3997.91411	0.06567
3995.98555	0.06548
3994.05698	0.06592
3992.12842	0.06668
3990.19985	0.06716
3988.27129	0.06732
3986.34272	0.06742
3984.41416	0.06756
3982.48560	0.06765
3980.55703	0.06803
3978.62847	0.06841
3976.69990	0.06837
3974.77134	0.06872
3972.84277	0.06954
3970.91421	0.07002
3968.98564	0.07016
3967.05708	0.07022
3965.12852	0.07020
3963.19995	0.07038
3961.27139	0.07074
3959.34282	0.07063
3957.41426	0.07001
3955.48569	0.06975
3953.55713	0.07017
3951.62856	0.07074
3949.70000	0.07103
3947.77144	0.07111
3945.84287	0.07080
3943.91431	0.07039
3941.98574	0.07061
3940.05718	0.07089
3938.12861	0.07078
3936.20005	0.07062
3934.27148	0.07048
3932.34292	0.07060
3930.41436	0.07099
3928.48579	0.07100
3926.55723	0.07072
3924.62866	0.07074
3922.70010	0.07062
3920.77153	0.07021
3918.84297	0.06997
3916.91440	0.06997
3914.98584	0.07008
3913.05728	0.07001
3911.12871	0.06969
3909.20015	0.06928
3907.27158	0.06918
3905.34302	0.06991
3903.41445	0.07126
3901.48589	0.07206
3899.55732	0.07171
3897.62876	0.07057
3895.70020	0.06939
3893.77163	0.06908
3891.84307	0.06986
3889.91450	0.07076
3887.98594	0.07083
3886.05737	0.07102
3884.12881	0.07171
3882.20024	0.07171
3880.27168	0.07113
3878.34312	0.07069
3876.41455	0.07066
3874.48599	0.07125
3872.55742	0.07204
3870.62886	0.07270
3868.70029	0.07333
3866.77173	0.07351
3864.84316	0.07375
3862.91460	0.07402
3860.98604	0.07360
3859.05747	0.07301
3857.12891	0.07281
3855.20034	0.07346
3853.27178	0.07579
3851.34321	0.07783
3849.41465	0.07710
3847.48608	0.07605
3845.55752	0.07571
3843.62896	0.07628
3841.70039	0.07775
3839.77183	0.07936
3837.84326	0.08060
3835.91470	0.08151
3833.98613	0.08182
3832.05757	0.08144
3830.12900	0.08111
3828.20044	0.08159
3826.27187	0.08264
3824.34331	0.08342
3822.41475	0.08424
3820.48618	0.08601
3818.55762	0.08738
3816.62905	0.08793
3814.70049	0.08851
3812.77192	0.08847
3810.84336	0.08845
3808.91479	0.08940
3806.98623	0.09123
3805.05767	0.09268
3803.12910	0.09339
3801.20054	0.09501
3799.27197	0.09710
3797.34341	0.09820
3795.41484	0.09914
3793.48628	0.09976
3791.55771	0.10027
3789.62915	0.10120
3787.70059	0.10222
3785.77202	0.10341
3783.84346	0.10496
3781.91489	0.10632
3779.98633	0.10773
3778.05776	0.10977
3776.12920	0.11144
3774.20063	0.11254
3772.27207	0.11400
3770.34351	0.11623
3768.41494	0.11852
3766.48638	0.12012
3764.55781	0.12200
3762.62925	0.12413
3760.70068	0.12599
3758.77212	0.12842
3756.84355	0.13150
3754.91499	0.13392
3752.98643	0.13578
3751.05786	0.13851
3749.12930	0.14274
3747.20073	0.14625
3745.27217	0.14934
3743.34360	0.15403
3741.41504	0.15835
3739.48647	0.16126
3737.55791	0.16494
3735.62935	0.17114
3733.70078	0.17894
3731.77222	0.18487
3729.84365	0.18926
3727.91509	0.19360
3725.98652	0.19896
3724.05796	0.20484
3722.12939	0.21020
3720.20083	0.21559
3718.27227	0.22127
3716.34370	0.22720
3714.41514	0.23353
3712.48657	0.24251
3710.55801	0.25712
3708.62944	0.27312
3706.70088	0.28527
3704.77231	0.29602
3702.84375	0.30851
3700.91519	0.32507
3698.98662	0.34338
3697.05806	0.36048
3695.12949	0.37816
3693.20093	0.39670
3691.27236	0.41721
3689.34380	0.44471
3687.41523	0.47883
3685.48667	0.50854
3683.55811	0.53400
3681.62954	0.56141
3679.70098	0.59244
3677.77241	0.62504
3675.84385	0.66373
3673.91528	0.71608
3671.98672	0.75864
3670.05815	0.79633
3668.12959	0.84868
3666.20103	0.89673
3664.27246	0.93694
3662.34390	0.98004
3660.41533	1.02610
3658.48677	1.07117
3656.55820	1.11975
3654.62964	1.17485
3652.70107	1.22145
3650.77251	1.26211
3648.84395	1.31874
3646.91538	1.38777
3644.98682	1.43717
3643.05825	1.47488
3641.12969	1.51426
3639.20112	1.55821
3637.27256	1.60298
3635.34399	1.64703
3633.41543	1.69118
3631.48687	1.73231
3629.55830	1.77372
3627.62974	1.82778
3625.70117	1.87752
3623.77261	1.91078
3621.84404	1.94336
3619.91548	1.98140
3617.98691	2.02670
3616.05835	2.06925
3614.12979	2.10486
3612.20122	2.14306
3610.27266	2.18237
3608.34409	2.22272
3606.41553	2.26549
3604.48696	2.30475
3602.55840	2.34004
3600.62983	2.37838
3598.70127	2.41960
3596.77271	2.45921
3594.84414	2.50011
3592.91558	2.54362
3590.98701	2.58378
3589.05845	2.62034
3587.12988	2.66365
3585.20132	2.70982
3583.27275	2.74845
3581.34419	2.78517
3579.41562	2.82552
3577.48706	2.86894
3575.55850	2.91269
3573.62993	2.95714
3571.70137	2.99992
3569.77280	3.04025
3567.84424	3.08293
3565.91567	3.13488
3563.98711	3.18570
3562.05854	3.22648
3560.12998	3.26731
3558.20142	3.31240
3556.27285	3.35728
3554.34429	3.39953
3552.41572	3.44422
3550.48716	3.49210
3548.55859	3.53868
3546.63003	3.58440
3544.70146	3.63329
3542.77290	3.68365
3540.84434	3.73194
3538.91577	3.77866
3536.98721	3.82507
3535.05864	3.87379
3533.13008	3.92231
3531.20151	3.96888
3529.27295	4.01655
3527.34438	4.06664
3525.41582	4.11392
3523.48726	4.15817
3521.55869	4.20646
3519.63013	4.25630
3517.70156	4.30457
3515.77300	4.35399
3513.84443	4.40371
3511.91587	4.45035
3509.98730	4.49918
3508.05874	4.55469
3506.13018	4.60761
3504.20161	4.65335
3502.27305	4.69830
3500.34448	4.74347
3498.41592	4.78776
3496.48735	4.83246
3494.55879	4.87850
3492.63022	4.93140
3490.70166	4.98795
3488.77310	5.03734
3486.84453	5.07785
3484.91597	5.11662
3482.98740	5.16402
3481.05884	5.22544
3479.13027	5.28920
3477.20171	5.34178
3475.27314	5.38660
3473.34458	5.43002
3471.41602	5.47636
3469.48745	5.52599
3467.55889	5.57650
3465.63032	5.62663
3463.70176	5.67574
3461.77319	5.72867
3459.84463	5.78446
3457.91606	5.83553
3455.98750	5.88683
3454.05894	5.93749
3452.13037	5.98598
3450.20181	6.03620
3448.27324	6.08056
3446.34468	6.12480
3444.41611	6.18033
3442.48755	6.23811
3440.55898	6.28344
3438.63042	6.32789
3436.70186	6.37692
3434.77329	6.42293
3432.84473	6.47814
3430.91616	6.54140
3428.98760	6.60902
3427.05903	6.68022
3425.13047	6.72838
3423.20190	6.74604
3421.27334	6.78288
3419.34478	6.84528
3417.41621	6.89840
3415.48765	6.94271
3413.55908	6.98648
3411.63052	7.03529
3409.70195	7.07654
3407.77339	7.11716
3405.84482	7.16130
3403.91626	7.19626
3401.98770	7.23298
3400.05913	7.28991
3398.13057	7.36166
3396.20200	7.43130
3394.27344	7.49658
3392.34487	7.54667
3390.41631	7.60389
3388.48774	7.65108
3386.55918	7.61966
3384.63062	7.55450
3382.70205	7.57418
3380.77349	7.68010
3378.84492	7.79309
3376.91636	7.85744
3374.98779	7.84065
3373.05923	7.81496
3371.13066	7.82700
3369.20210	7.83548
3367.27354	7.81820
3365.34497	7.83931
3363.41641	7.93208
3361.48784	8.03181
3359.55928	8.10489
3357.63071	8.15497
3355.70215	8.20911
3353.77358	8.24776
3351.84502	8.20856
3349.91646	8.12067
3347.98789	8.08252
3346.05933	8.09190
3344.13076	8.12134
3342.20220	8.17906
3340.27363	8.21489
3338.34507	8.24192
3336.41650	8.28632
3334.48794	8.30267
3332.55937	8.26927
3330.63081	8.25115
3328.70225	8.26235
3326.77368	8.26237
3324.84512	8.24848
3322.91655	8.24112
3320.98799	8.26532
3319.05942	8.29234
3317.13086	8.32887
3315.20229	8.33516
3313.27373	8.27729
3311.34517	8.28867
3309.41660	8.43294
3307.48804	8.54059
3305.55947	8.47508
3303.63091	8.37111
3301.70234	8.38393
3299.77378	8.49261
3297.84521	8.46991
3295.91665	8.37690
3293.98809	8.39303
3292.05952	8.41499
3290.13096	8.35287
3288.20239	8.28463
3286.27383	8.31589
3284.34526	8.40140
3282.41670	8.42634
3280.48813	8.40919
3278.55957	8.41320
3276.63101	8.40574
3274.70244	8.38148
3272.77388	8.39251
3270.84531	8.44972
3268.91675	8.49551
3266.98818	8.45341
3265.05962	8.42469
3263.13105	8.44614
3261.20249	8.42398
3259.27393	8.40891
3257.34536	8.44306
3255.41680	8.46415
3253.48823	8.47486
3251.55967	8.53673
3249.63110	8.65696
3247.70254	8.72162
3245.77397	8.61539
3243.84541	8.48961
3241.91685	8.48863
3239.98828	8.54443
3238.05972	8.55790
3236.13115	8.55402
3234.20259	8.59614
3232.27402	8.60950
3230.34546	8.50486
3228.41689	8.39707
3226.48833	8.37251
3224.55977	8.38674
3222.63120	8.41838
3220.70264	8.42516
3218.77407	8.35252
3216.84551	8.26204
3214.91694	8.20843
3212.98838	8.16788
3211.05981	8.12352
3209.13125	8.09905
3207.20269	8.10216
3205.27412	8.07472
3203.34556	8.01421
3201.41699	7.99231
3199.48843	7.98390
3197.55986	7.95079
3195.63130	7.93214
3193.70273	7.91157
3191.77417	7.84752
3189.84561	7.78796
3187.91704	7.75330
3185.98848	7.69513
3184.05991	7.59404
3182.13135	7.48873
3180.20278	7.42985
3178.27422	7.38665
3176.34565	7.31971
3174.41709	7.25404
3172.48853	7.20140
3170.55996	7.14187
3168.63140	7.06126
3166.70283	6.98167
3164.77427	6.92624
3162.84570	6.88255
3160.91714	6.83556
3158.98857	6.78398
3157.06001	6.71054
3155.13145	6.61718
3153.20288	6.52910
3151.27432	6.44775
3149.34575	6.37523
3147.41719	6.31702
3145.48862	6.26040
3143.56006	6.19039
3141.63149	6.10930
3139.70293	6.03392
3137.77437	5.96599
3135.84580	5.89456
3133.91724	5.82733
3131.98867	5.75567
3130.06011	5.66614
3128.13154	5.58552
3126.20298	5.52510
3124.27441	5.46396
3122.34585	5.39090
3120.41729	5.31589
3118.48872	5.24948
3116.56016	5.18504
3114.63159	5.11137
3112.70303	5.03410
3110.77446	4.96426
3108.84590	4.89868
3106.91733	4.83183
3104.98877	4.76250
3103.06021	4.69035
3101.13164	4.61753
3099.20308	4.54727
3097.27451	4.48071
3095.34595	4.41702
3093.41738	4.35492
3091.48882	4.29113
3089.56025	4.22432
3087.63169	4.15775
3085.70312	4.09412
3083.77456	4.03251
3081.84600	3.97162
3079.91743	3.91164
3077.98887	3.85138
3076.06030	3.79043
3074.13174	3.73178
3072.20317	3.67515
3070.27461	3.61732
3068.34604	3.56046
3066.41748	3.50628
3064.48892	3.45089
3062.56035	3.39337
3060.63179	3.33749
3058.70322	3.28480
3056.77466	3.23278
3054.84609	3.17986
3052.91753	3.12713
3050.98896	3.07566
3049.06040	3.02570
3047.13184	2.97567
3045.20327	2.92469
3043.27471	2.87473
3041.34614	2.82650
3039.41758	2.77905
3037.48901	2.73185
3035.56045	2.68472
3033.63188	2.63840
3031.70332	2.59360
3029.77476	2.55014
3027.84619	2.50721
3025.91763	2.46392
3023.98906	2.42046
3022.06050	2.37808
3020.13193	2.33752
3018.20337	2.29762
3016.27480	2.25701
3014.34624	2.21688
3012.41768	2.17805
3010.48911	2.13917
3008.56055	2.10021
3006.63198	2.06258
3004.70342	2.02666
3002.77485	1.99181
3000.84629	1.95808
2998.91772	1.92554
2996.98916	1.89319
2995.06060	1.86073
2993.13203	1.82864
2991.20347	1.79743
2989.27490	1.76746
2987.34634	1.73831
2985.41777	1.71004
2983.48921	1.68260
2981.56064	1.65490
2979.63208	1.62714
2977.70352	1.60032
2975.77495	1.57419
2973.84639	1.54836
2971.91782	1.52303
2969.98926	1.49830
2968.06069	1.47394
2966.13213	1.44970
2964.20356	1.42568
2962.27500	1.40191
2960.34644	1.37809
2958.41787	1.35430
2956.48931	1.33101
2954.56074	1.30804
2952.63218	1.28481
2950.70361	1.26146
2948.77505	1.23861
2946.84648	1.21622
2944.91792	1.19420
2942.98936	1.17276
2941.06079	1.15207
2939.13223	1.13222
2937.20366	1.11245
2935.27510	1.09196
2933.34653	1.07124
2931.41797	1.05134
2929.48940	1.03234
2927.56084	1.01288
2925.63228	0.99282
2923.70371	0.97417
2921.77515	0.95762
2919.84658	0.94198
2917.91802	0.92609
2915.98945	0.90948
2914.06089	0.89259
2912.13232	0.87608
2910.20376	0.86002
2908.27520	0.84446
2906.34663	0.82937
2904.41807	0.81437
2902.48950	0.79993
2900.56094	0.78638
2898.63237	0.77319
2896.70381	0.76031
2894.77524	0.74784
2892.84668	0.73562
2890.91812	0.72362
2888.98955	0.71195
2887.06099	0.70047
2885.13242	0.68919
2883.20386	0.67842
2881.27529	0.66830
2879.34673	0.65869
2877.41816	0.64948
2875.48960	0.64042
2873.56104	0.63090
2871.63247	0.62049
2869.70391	0.60948
2867.77534	0.59807
2865.84678	0.58627
2863.91821	0.57428
2861.98965	0.56248
2860.06108	0.55126
2858.13252	0.54088
2856.20396	0.53140
2854.27539	0.52254
2852.34683	0.51399
2850.41826	0.50559
2848.48970	0.49714
2846.56113	0.48879
2844.63257	0.48112
2842.70400	0.47419
2840.77544	0.46758
2838.84687	0.46108
2836.91831	0.45478
2834.98975	0.44872
2833.06118	0.44269
2831.13262	0.43659
2829.20405	0.43065
2827.27549	0.42490
2825.34692	0.41906
2823.41836	0.41298
2821.48979	0.40685
2819.56123	0.40094
2817.63267	0.39518
2815.70410	0.38946
2813.77554	0.38405
2811.84697	0.37881
2809.91841	0.37337
2807.98984	0.36789
2806.06128	0.36254
2804.13271	0.35726
2802.20415	0.35214
2800.27559	0.34722
2798.34702	0.34241
2796.41846	0.33762
2794.48989	0.33289
2792.56133	0.32833
2790.63276	0.32399
2788.70420	0.31963
2786.77563	0.31509
2784.84707	0.31062
2782.91851	0.30639
2780.98994	0.30229
2779.06138	0.29825
2777.13281	0.29424
2775.20425	0.29023
2773.27568	0.28641
2771.34712	0.28281
2769.41855	0.27921
2767.48999	0.27562
2765.56143	0.27209
2763.63286	0.26861
2761.70430	0.26528
2759.77573	0.26208
2757.84717	0.25884
2755.91860	0.25558
2753.99004	0.25240
2752.06147	0.24931
2750.13291	0.24637
2748.20435	0.24348
2746.27578	0.24047
2744.34722	0.23750
2742.41865	0.23472
2740.49009	0.23215
2738.56152	0.22964
2736.63296	0.22705
2734.70439	0.22460
2732.77583	0.22240
2730.84727	0.22024
2728.91870	0.21783
2726.99014	0.21529
2725.06157	0.21294
2723.13301	0.21081
2721.20444	0.20870
2719.27588	0.20663
2717.34731	0.20472
2715.41875	0.20287
2713.49019	0.20105
2711.56162	0.19926
2709.63306	0.19744
2707.70449	0.19570
2705.77593	0.19411
2703.84736	0.19258
2701.91880	0.19103
2699.99023	0.18947
2698.06167	0.18785
2696.13311	0.18629
2694.20454	0.18492
2692.27598	0.18370
2690.34741	0.18252
2688.41885	0.18131
2686.49028	0.18009
2684.56172	0.17885
2682.63315	0.17756
2680.70459	0.17626
2678.77603	0.17505
2676.84746	0.17397
2674.91890	0.17290
2672.99033	0.17170
2671.06177	0.17047
2669.13320	0.16944
2667.20464	0.16862
2665.27607	0.16794
2663.34751	0.16715
2661.41895	0.16610
2659.49038	0.16500
2657.56182	0.16418
2655.63325	0.16361
2653.70469	0.16299
2651.77612	0.16229
2649.84756	0.16167
2647.91899	0.16102
2645.99043	0.16027
2644.06187	0.15960
2642.13330	0.15914
2640.20474	0.15877
2638.27617	0.15824
2636.34761	0.15758
2634.41904	0.15708
2632.49048	0.15672
2630.56191	0.15627
2628.63335	0.15585
2626.70479	0.15566
2624.77622	0.15548
2622.84766	0.15513
2620.91909	0.15470
2618.99053	0.15426
2617.06196	0.15388
2615.13340	0.15363
2613.20483	0.15346
2611.27627	0.15339
2609.34771	0.15334
2607.41914	0.15320
2605.49058	0.15308
2603.56201	0.15300
2601.63345	0.15297
2599.70488	0.15309
2597.77632	0.15326
2595.84775	0.15334
2593.91919	0.15333
2591.99062	0.15337
2590.06206	0.15351
2588.13350	0.15358
2586.20493	0.15362
2584.27637	0.15380
2582.34780	0.15407
2580.41924	0.15426
2578.49067	0.15444
2576.56211	0.15475
2574.63354	0.15505
2572.70498	0.15523
2570.77642	0.15547
2568.84785	0.15587
2566.91929	0.15630
2564.99072	0.15667
2563.06216	0.15702
2561.13359	0.15738
2559.20503	0.15781
2557.27646	0.15831
2555.34790	0.15874
2553.41934	0.15919
2551.49077	0.15976
2549.56221	0.16030
2547.63364	0.16074
2545.70508	0.16124
2543.77651	0.16178
2541.84795	0.16228
2539.91938	0.16278
2537.99082	0.16336
2536.06226	0.16405
2534.13369	0.16472
2532.20513	0.16533
2530.27656	0.16594
2528.34800	0.16654
2526.41943	0.16720
2524.49087	0.16802
2522.56230	0.16887
2520.63374	0.16959
2518.70518	0.17025
2516.77661	0.17092
2514.84805	0.17157
2512.91948	0.17233
2510.99092	0.17317
2509.06235	0.17398
2507.13379	0.17484
2505.20522	0.17571
2503.27666	0.17651
2501.34810	0.17730
2499.41953	0.17809
2497.49097	0.17892
2495.56240	0.17975
2493.63384	0.18055
2491.70527	0.18142
2489.77671	0.18233
2487.84814	0.18305
2485.91958	0.18374
2483.99102	0.18465
2482.06245	0.18566
2480.13389	0.18655
2478.20532	0.18723
2476.27676	0.18781
2474.34819	0.18854
2472.41963	0.18947
2470.49106	0.19047
2468.56250	0.19144
2466.63394	0.19231
2464.70537	0.19309
2462.77681	0.19401
2460.84824	0.19510
2458.91968	0.19607
2456.99111	0.19687
2455.06255	0.19768
2453.13398	0.19851
2451.20542	0.19936
2449.27686	0.20034
2447.34829	0.20142
2445.41973	0.20245
2443.49116	0.20346
2441.56260	0.20452
2439.63403	0.20563
2437.70547	0.20667
2435.77690	0.20767
2433.84834	0.20877
2431.91978	0.20990
2429.99121	0.21093
2428.06265	0.21186
2426.13408	0.21281
2424.20552	0.21382
2422.27695	0.21485
2420.34839	0.21588
2418.41982	0.21695
2416.49126	0.21816
2414.56270	0.21936
2412.63413	0.22040
2410.70557	0.22143
2408.77700	0.22263
2406.84844	0.22385
2404.91987	0.22502
2402.99131	0.22625
2401.06274	0.22744
2399.13418	0.22847
2397.20562	0.22956
2395.27705	0.23086
2393.34849	0.23222
2391.41992	0.23347
2389.49136	0.23477
2387.56279	0.23653
2385.63423	0.23920
2383.70566	0.24326
2381.77710	0.24880
2379.84854	0.25546
2377.91997	0.26300
2375.99141	0.27176
2374.06284	0.28178
2372.13428	0.29251
2370.20571	0.30372
2368.27715	0.31577
2366.34858	0.32822
2364.42002	0.33919
2362.49146	0.34737
2360.56289	0.35250
2358.63433	0.35334
2356.70576	0.34893
2354.77720	0.34112
2352.84863	0.33158
2350.92007	0.32101
2348.99150	0.31419
2347.06294	0.31497
2345.13437	0.32371
2343.20581	0.33543
2341.27725	0.34203
2339.34868	0.34326
2337.42012	0.34296
2335.49155	0.34269
2333.56299	0.34238
2331.63442	0.34235
2329.70586	0.34216
2327.77729	0.34090
2325.84873	0.33858
2323.92017	0.33594
2321.99160	0.33326
2320.06304	0.33014
2318.13447	0.32671
2316.20591	0.32402
2314.27734	0.32274
2312.34878	0.32238
2310.42021	0.32197
2308.49165	0.32095
2306.56309	0.31953
2304.63452	0.31831
2302.70596	0.31785
2300.77739	0.31823
2298.84883	0.31889
2296.92026	0.31956
2294.99170	0.32026
2293.06313	0.32086
2291.13457	0.32140
2289.20601	0.32210
2287.27744	0.32290
2285.34888	0.32379
2283.42031	0.32503
2281.49175	0.32680
2279.56318	0.32900
2277.63462	0.33144
2275.70605	0.33383
2273.77749	0.33606
2271.84893	0.33822
2269.92036	0.34033
2267.99180	0.34232
2266.06323	0.34425
2264.13467	0.34617
2262.20610	0.34811
2260.27754	0.35006
2258.34897	0.35201
2256.42041	0.35390
2254.49185	0.35570
2252.56328	0.35750
2250.63472	0.35934
2248.70615	0.36129
2246.77759	0.36337
2244.84902	0.36555
2242.92046	0.36776
2240.99189	0.36994
2239.06333	0.37209
2237.13477	0.37428
2235.20620	0.37652
2233.27764	0.37878
2231.34907	0.38103
2229.42051	0.38327
2227.49194	0.38541
2225.56338	0.38741
2223.63481	0.38951
2221.70625	0.39179
2219.77769	0.39411
2217.84912	0.39636
2215.92056	0.39850
2213.99199	0.40055
2212.06343	0.40260
2210.13486	0.40474
2208.20630	0.40696
2206.27773	0.40919
2204.34917	0.41132
2202.42061	0.41335
2200.49204	0.41535
2198.56348	0.41735
2196.63491	0.41927
2194.70635	0.42110
2192.77778	0.42291
2190.84922	0.42479
2188.92065	0.42675
2186.99209	0.42862
2185.06353	0.43034
2183.13496	0.43208
2181.20640	0.43374
2179.27783	0.43526
2177.34927	0.43678
2175.42070	0.43840
2173.49214	0.44005
2171.56357	0.44158
2169.63501	0.44299
2167.70645	0.44441
2165.77788	0.44580
2163.84932	0.44707
2161.92075	0.44820
2159.99219	0.44912
2158.06362	0.44998
2156.13506	0.45099
2154.20649	0.45200
2152.27793	0.45282
2150.34937	0.45349
2148.42080	0.45408
2146.49224	0.45462
2144.56367	0.45515
2142.63511	0.45570
2140.70654	0.45614
2138.77798	0.45636
2136.84941	0.45640
2134.92085	0.45644
2132.99229	0.45652
2131.06372	0.45654
2129.13516	0.45633
2127.20659	0.45588
2125.27803	0.45543
2123.34946	0.45506
2121.42090	0.45454
2119.49233	0.45384
2117.56377	0.45324
2115.63521	0.45269
2113.70664	0.45194
2111.77808	0.45099
2109.84951	0.44992
2107.92095	0.44881
2105.99238	0.44776
2104.06382	0.44676
2102.13525	0.44562
2100.20669	0.44432
2098.27812	0.44290
2096.34956	0.44137
2094.42100	0.43972
2092.49243	0.43810
2090.56387	0.43655
2088.63530	0.43487
2086.70674	0.43305
2084.77817	0.43112
2082.84961	0.42911
2080.92104	0.42717
2078.99248	0.42523
2077.06392	0.42312
2075.13535	0.42086
2073.20679	0.41856
2071.27822	0.41621
2069.34966	0.41391
2067.42109	0.41174
2065.49253	0.40953
2063.56396	0.40709
2061.63540	0.40448
2059.70684	0.40188
2057.77827	0.39940
2055.84971	0.39696
2053.92114	0.39445
2051.99258	0.39190
2050.06401	0.38935
2048.13545	0.38677
2046.20688	0.38402
2044.27832	0.38123
2042.34976	0.37860
2040.42119	0.37598
2038.49263	0.37314
2036.56406	0.37023
2034.63550	0.36747
2032.70693	0.36485
2030.77837	0.36221
2028.84980	0.35947
2026.92124	0.35669
2024.99268	0.35389
2023.06411	0.35111
2021.13555	0.34838
2019.20698	0.34566
2017.27842	0.34293
2015.34985	0.34009
2013.42129	0.33721
2011.49272	0.33439
2009.56416	0.33168
2007.63560	0.32900
2005.70703	0.32636
2003.77847	0.32380
2001.84990	0.32120
1999.92134	0.31848
1997.99277	0.31582
1996.06421	0.31339
1994.13564	0.31107
1992.20708	0.30859
1990.27852	0.30587
1988.34995	0.30324
1986.42139	0.30081
1984.49282	0.29841
1982.56426	0.29600
1980.63569	0.29362
1978.70713	0.29133
1976.77856	0.28908
1974.85000	0.28687
1972.92144	0.28476
1970.99287	0.28278
1969.06431	0.28091
1967.13574	0.27896
1965.20718	0.27681
1963.27861	0.27472
1961.35005	0.27288
1959.42148	0.27114
1957.49292	0.26935
1955.56436	0.26751
1953.63579	0.26567
1951.70723	0.26388
1949.77866	0.26227
1947.85010	0.26073
1945.92153	0.25923
1943.99297	0.25790
1942.06440	0.25655
1940.13584	0.25495
1938.20728	0.25333
1936.27871	0.25184
1934.35015	0.25047
1932.42158	0.24922
1930.49302	0.24809
1928.56445	0.24704
1926.63589	0.24600
1924.70732	0.24505
1922.77876	0.24409
1920.85020	0.24304
1918.92163	0.24216
1916.99307	0.24137
1915.06450	0.24036
1913.13594	0.23931
1911.20737	0.23856
1909.27881	0.23797
1907.35024	0.23736
1905.42168	0.23675
1903.49312	0.23619
1901.56455	0.23564
1899.63599	0.23511
1897.70742	0.23464
1895.77886	0.23423
1893.85029	0.23390
1891.92173	0.23358
1889.99316	0.23341
1888.06460	0.23322
1886.13604	0.23287
1884.20747	0.23257
1882.27891	0.23238
1880.35034	0.23225
1878.42178	0.23221
1876.49321	0.23225
1874.56465	0.23224
1872.63608	0.23225
1870.70752	0.23246
1868.77896	0.23303
1866.85039	0.23338
1864.92183	0.23320
1862.99326	0.23310
1861.06470	0.23332
1859.13613	0.23374
1857.20757	0.23408
1855.27900	0.23447
1853.35044	0.23496
1851.42187	0.23557
1849.49331	0.23624
1847.56475	0.23696
1845.63618	0.23780
1843.70762	0.23881
1841.77905	0.23954
1839.85049	0.23997
1837.92192	0.24075
1835.99336	0.24174
1834.06479	0.24269
1832.13623	0.24364
1830.20767	0.24510
1828.27910	0.24681
1826.35054	0.24799
1824.42197	0.24911
1822.49341	0.25019
1820.56484	0.25125
1818.63628	0.25254
1816.70771	0.25417
1814.77915	0.25582
1812.85059	0.25753
1810.92202	0.25960
1808.99346	0.26177
1807.06489	0.26373
1805.13633	0.26562
1803.20776	0.26785
1801.27920	0.27039
1799.35063	0.27315
1797.42207	0.27560
1795.49351	0.27797
1793.56494	0.28074
1791.63638	0.28433
1789.70781	0.28780
1787.77925	0.29041
1785.85068	0.29346
1783.92212	0.29710
1781.99355	0.30100
1780.06499	0.30516
1778.13643	0.30945
1776.20786	0.31349
1774.27930	0.31782
1772.35073	0.32369
1770.42217	0.33007
1768.49360	0.33541
1766.56504	0.34049
1764.63647	0.34569
1762.70791	0.35143
1760.77935	0.35874
1758.85078	0.36571
1756.92222	0.37275
1754.99365	0.38038
1753.06509	0.38729
1751.13652	0.39557
1749.20796	0.40607
1747.27939	0.41638
1745.35083	0.42532
1743.42227	0.43474
1741.49370	0.44520
1739.56514	0.45761
1737.63657	0.47010
1735.70801	0.48102
1733.77944	0.49727
1731.85088	0.51653
1729.92231	0.53176
1727.99375	0.54733
1726.06519	0.56415
1724.13662	0.58257
1722.20806	0.60263
1720.27949	0.62120
1718.35093	0.64285
1716.42236	0.67479
1714.49380	0.70526
1712.56523	0.72994
1710.63667	0.75385
1708.70811	0.77967
1706.77954	0.80921
1704.85098	0.84467
1702.92241	0.87627
1700.99385	0.90735
1699.06528	0.95387
1697.13672	0.99708
1695.20815	1.04140
1693.27959	1.08477
1691.35103	1.12018
1689.42246	1.16131
1687.49390	1.20498
1685.56533	1.24741
1683.63677	1.31265
1681.70820	1.38029
1679.77964	1.42344
1677.85107	1.46433
1675.92251	1.51165
1673.99395	1.57096
1672.06538	1.62441
1670.13682	1.67741
1668.20825	1.74638
1666.27969	1.80261
1664.35112	1.85121
1662.42256	1.91379
1660.49399	1.98497
1658.56543	2.04057
1656.63687	2.08579
1654.70830	2.12665
1652.77974	2.18749
1650.85117	2.24433
1648.92261	2.26384
1646.99404	2.28728
1645.06548	2.31187
1643.13691	2.32784
1641.20835	2.33590
1639.27979	2.34246
1637.35122	2.34598
1635.42266	2.34528
1633.49409	2.33656
1631.56553	2.32018
1629.63696	2.30011
1627.70840	2.26794
1625.77983	2.23109
1623.85127	2.18625
1621.92271	2.13246
1619.99414	2.08537
1618.06558	2.03973
1616.13701	1.97456
1614.20845	1.90835
1612.27988	1.85762
1610.35132	1.80443
1608.42275	1.74685
1606.49419	1.69008
1604.56562	1.63831
1602.63706	1.58928
1600.70850	1.54146
1598.77993	1.49691
1596.85137	1.45514
1594.92280	1.41543
1592.99424	1.37781
1591.06567	1.34338
1589.13711	1.31104
1587.20854	1.28121
1585.27998	1.25412
1583.35142	1.22937
1581.42285	1.20726
1579.49429	1.18861
1577.56572	1.17212
1575.63716	1.15284
1573.70859	1.13624
1571.78003	1.12564
1569.85146	1.11567
1567.92290	1.10545
1565.99434	1.09816
1564.06577	1.09350
1562.13721	1.09062
1560.20864	1.09038
1558.28008	1.09546
1556.35151	1.10114
1554.42295	1.10391
1552.49438	1.10627
1550.56582	1.10675
1548.63726	1.10466
1546.70869	1.10008
1544.78013	1.09210
1542.85156	1.08001
1540.92300	1.06078
1538.99443	1.03065
1537.06587	1.00857
1535.13730	0.99317
1533.20874	0.97261
1531.28018	0.95087
1529.35161	0.93518
1527.42305	0.92040
1525.49448	0.90515
1523.56592	0.89233
1521.63735	0.88032
1519.70879	0.86803
1517.78022	0.85737
1515.85166	0.84524
1513.92310	0.83243
1511.99453	0.82101
1510.06597	0.81071
1508.13740	0.80101
1506.20884	0.78579
1504.28027	0.77190
1502.35171	0.76411
1500.42314	0.75752
1498.49458	0.75060
1496.56602	0.74252
1494.63745	0.73440
1492.70889	0.72826
1490.78032	0.72305
1488.85176	0.71685
1486.92319	0.71065
1484.99463	0.70576
1483.06606	0.70207
1481.13750	0.69921
1479.20894	0.69709
1477.28037	0.69587
1475.35181	0.69543
1473.42324	0.69554
1471.49468	0.69510
1469.56611	0.69340
1467.63755	0.69120
1465.70898	0.68930
1463.78042	0.68806
1461.85186	0.68735
1459.92329	0.68711
1457.99473	0.68761
1456.06616	0.68791
1454.13760	0.68617
1452.20903	0.68370
1450.28047	0.68115
1448.35190	0.67872
1446.42334	0.67629
1444.49478	0.67387
1442.56621	0.67138
1440.63765	0.66866
1438.70908	0.66581
1436.78052	0.66255
1434.85195	0.65879
1432.92339	0.65556
1430.99482	0.65342
1429.06626	0.65244
1427.13770	0.65227
1425.20913	0.65273
1423.28057	0.65375
1421.35200	0.65471
1419.42344	0.65540
1417.49487	0.65541
1415.56631	0.65439
1413.63774	0.65352
1411.70918	0.65350
1409.78062	0.65437
1407.85205	0.65591
1405.92349	0.65794
1403.99492	0.65982
1402.06636	0.66043
1400.13779	0.65987
1398.20923	0.65850
1396.28066	0.65618
1394.35210	0.65249
1392.42354	0.64785
1390.49497	0.64339
1388.56641	0.63898
1386.63784	0.63384
1384.70928	0.62842
1382.78071	0.62337
1380.85215	0.61860
1378.92358	0.61441
1376.99502	0.61123
1375.06646	0.60915
1373.13789	0.60777
1371.20933	0.60683
1369.28076	0.60614
1367.35220	0.60503
1365.42363	0.60332
1363.49507	0.60160
1361.56650	0.60015
1359.63794	0.59878
1357.70937	0.59740
1355.78081	0.59614
1353.85225	0.59511
1351.92368	0.59421
1349.99512	0.59344
1348.06655	0.59274
1346.13799	0.59181
1344.20942	0.59075
1342.28086	0.58986
1340.35229	0.58924
1338.42373	0.58872
1336.49517	0.58827
1334.56660	0.58799
1332.63804	0.58796
1330.70947	0.58825
1328.78091	0.58875
1326.85234	0.58932
1324.92378	0.59003
1322.99521	0.59089
1321.06665	0.59167
1319.13809	0.59230
1317.20952	0.59265
1315.28096	0.59263
1313.35239	0.59246
1311.42383	0.59218
1309.49526	0.59160
1307.56670	0.59089
1305.63813	0.59029
1303.70957	0.58974
1301.78101	0.58912
1299.85244	0.58830
1297.92388	0.58725
1295.99531	0.58601
1294.06675	0.58470
1292.13818	0.58337
1290.20962	0.58209
1288.28105	0.58090
1286.35249	0.57969
1284.42393	0.57836
1282.49536	0.57678
1280.56680	0.57509
1278.63823	0.57359
1276.70967	0.57230
1274.78110	0.57118
1272.85254	0.57032
1270.92397	0.56956
1268.99541	0.56871
1267.06685	0.56780
1265.13828	0.56695
1263.20972	0.56620
1261.28115	0.56544
1259.35259	0.56473
1257.42402	0.56418
1255.49546	0.56355
1253.56689	0.56290
1251.63833	0.56272
1249.70977	0.56302
1247.78120	0.56323
1245.85264	0.56297
1243.92407	0.56225
1241.99551	0.56135
1240.06694	0.56021
1238.13838	0.55852
1236.20981	0.55634
1234.28125	0.55403
1232.35269	0.55171
1230.42412	0.54947
1228.49556	0.54740
1226.56699	0.54550
1224.63843	0.54372
1222.70986	0.54198
1220.78130	0.54035
1218.85273	0.53887
1216.92417	0.53750
1214.99561	0.53631
1213.06704	0.53533
1211.13848	0.53450
1209.20991	0.53382
1207.28135	0.53324
1205.35278	0.53255
1203.42422	0.53162
1201.49565	0.53058
1199.56709	0.52956
1197.63853	0.52870
1195.70996	0.52802
1193.78140	0.52738
1191.85283	0.52674
1189.92427	0.52629
1187.99570	0.52608
1186.06714	0.52587
1184.13857	0.52573
1182.21001	0.52605
1180.28145	0.52699
1178.35288	0.52834
1176.42432	0.52979
1174.49575	0.53101
1172.56719	0.53173
1170.63862	0.53193
1168.71006	0.53174
1166.78149	0.53134
1164.85293	0.53093
1162.92437	0.53069
1160.99580	0.53054
1159.06724	0.53022
1157.13867	0.52966
1155.21011	0.52888
1153.28154	0.52766
1151.35298	0.52589
1149.42441	0.52363
1147.49585	0.52102
1145.56729	0.51827
1143.63872	0.51562
1141.71016	0.51327
1139.78159	0.51144
1137.85303	0.51017
1135.92446	0.50929
1133.99590	0.50869
1132.06733	0.50823
1130.13877	0.50791
1128.21021	0.50766
1126.28164	0.50707
1124.35308	0.50617
1122.42451	0.50539
1120.49595	0.50470
1118.56738	0.50440
1116.63882	0.50482
1114.71025	0.50535
1112.78169	0.50570
1110.85312	0.50624
1108.92456	0.50705
1106.99600	0.50787
1105.06743	0.50864
1103.13887	0.50963
1101.21030	0.51113
1099.28174	0.51297
1097.35317	0.51496
1095.42461	0.51763
1093.49604	0.52126
1091.56748	0.52565
1089.63892	0.53091
1087.71035	0.53726
1085.78179	0.54447
1083.85322	0.55186
1081.92466	0.55887
1079.99609	0.56452
1078.06753	0.56738
1076.13896	0.56715
1074.21040	0.56442
1072.28184	0.55950
1070.35327	0.55312
1068.42471	0.54624
1066.49614	0.53936
1064.56758	0.53271
1062.63901	0.52686
1060.71045	0.52218
1058.78188	0.51823
1056.85332	0.51445
1054.92476	0.51077
1052.99619	0.50749
1051.06763	0.50474
1049.13906	0.50253
1047.21050	0.50086
1045.28193	0.49970
1043.35337	0.49892
1041.42480	0.49842
1039.49624	0.49809
1037.56768	0.49773
1035.63911	0.49722
1033.71055	0.49659
1031.78198	0.49607
1029.85342	0.49553
1027.92485	0.49454
1025.99629	0.49337
1024.06772	0.49279
1022.13916	0.49274
1020.21060	0.49267
1018.28203	0.49264
1016.35347	0.49286
1014.42490	0.49315
1012.49634	0.49345
1010.56777	0.49383
1008.63921	0.49443
1006.71064	0.49533
1004.78208	0.49666
1002.85352	0.49850
1000.92495	0.50092
998.99639	0.50403
997.06782	0.50784
995.13926	0.51230
993.21069	0.51688
991.28213	0.52066
989.35356	0.52306
987.42500	0.52417
985.49644	0.52449
983.56787	0.52458
981.63931	0.52482
979.71074	0.52557
977.78218	0.52710
975.85361	0.52933
973.92505	0.53203
971.99648	0.53495
970.06792	0.53808
968.13936	0.54165
966.21079	0.54561
964.28223	0.55013
962.35366	0.55530
960.42510	0.56075
958.49653	0.56617
956.56797	0.57161
954.63940	0.57747
952.71084	0.58389
950.78228	0.59038
948.85371	0.59684
946.92515	0.60346
944.99658	0.60983
943.06802	0.61569
941.13945	0.62151
939.21089	0.62754
937.28232	0.63365
935.35376	0.63951
933.42520	0.64492
931.49663	0.65064
929.56807	0.65704
927.63950	0.66324
925.71094	0.66909
923.78237	0.67551
921.85381	0.68265
919.92524	0.68982
917.99668	0.69658
916.06812	0.70313
914.13955	0.71035
912.21099	0.71880
910.28242	0.72758
908.35386	0.73570
906.42529	0.74350
904.49673	0.75178
902.56816	0.76118
900.63960	0.77174
898.71104	0.78223
896.78247	0.79185
894.85391	0.80189
892.92534	0.81290
890.99678	0.82355
889.06821	0.83408
887.13965	0.84508
885.21108	0.85552
883.28252	0.86631
881.35396	0.87814
879.42539	0.88923
877.49683	0.90031
875.56826	0.91308
873.63970	0.92534
871.71113	0.93593
869.78257	0.94689
867.85400	0.95987
865.92544	0.97386
863.99687	0.98623
862.06831	0.99813
860.13975	1.01066
858.21118	1.02100
856.28262	1.02867
854.35405	1.03698
852.42549	1.04906
850.49692	1.06504
848.56836	1.08060
846.63979	1.09183
844.71123	1.10175
842.78267	1.11322
840.85410	1.12484
838.92554	1.13773
836.99697	1.15314
835.06841	1.16774
833.13984	1.17926
831.21128	1.19159
829.28271	1.20768
827.35415	1.22120
825.42559	1.22913
823.49702	1.24240
821.56846	1.26520
819.63989	1.28620
817.71133	1.29852
815.78276	1.31062
813.85420	1.33147
811.92563	1.35493
809.99707	1.36813
808.06851	1.37229
806.13994	1.37605
804.21138	1.38535
802.28281	1.41308
800.35425	1.47375
798.42568	1.58212
796.49712	1.70365
794.56855	1.69294
792.63999	1.58018
790.71143	1.50968
788.78286	1.48518
786.85430	1.47839
784.92573	1.53864
782.99717	1.70319
781.06860	1.67899
779.14004	1.45556
777.21147	1.31677
775.28291	1.27195
773.35435	1.28000
771.42578	1.29481
769.49722	1.27298
767.56865	1.18410
765.64009	1.09227
763.71152	1.08609
761.78296	1.15780
759.85439	1.21416
757.92583	1.19956
755.99727	1.11608
754.06870	1.05275
752.14014	1.07219
750.21157	1.04275
748.28301	0.93464
746.35444	0.86087
744.42588	0.82022
742.49731	0.78691
740.56875	0.75221
738.64019	0.72162
736.71162	0.67906
734.78306	0.62392
732.85449	0.54100
730.92593	0.38811
728.99736	0.21652
727.06880	0.04481
725.14023	-0.17935
723.21167	-0.42359
721.28311	-0.89958
719.35454	-0.69122
717.42598	-0.51750
715.49741	-0.58574
713.56885	-0.39354
711.64028	-0.13655
709.71172	0.03694
707.78315	0.09058
705.85459	0.10690
703.92603	0.15911
701.99746	0.22249
700.06890	0.23474
698.14033	0.21959
696.21177	0.21449
694.28320	0.20771
692.35464	0.17972
690.42607	0.16497
688.49751	0.20177
686.56895	0.26930
684.64038	0.27284
682.71182	0.18909
680.78325	0.15162
678.85469	0.20218
676.92612	0.27295
674.99756	0.29615
673.06899	0.29207
671.14043	0.25323
669.21187	0.18331
667.28330	0.12377
665.35474	0.11009
663.42617	0.17238
661.49761	0.26371
659.56904	0.25972
657.64048	0.19233
655.71191	0.17198
653.78335	0.19387
651.85479	0.23690
649.92622	0.23681
647.99766	0.18396
646.06909	0.15518
644.14053	0.18981
642.21196	0.24911
640.28340	0.27869
638.35483	0.28016
636.42627	0.26172
634.49771	0.21837
632.56914	0.19721
630.64058	0.20471
628.71201	0.19194
626.78345	0.17297
624.85488	0.17500
622.92632	0.18158
620.99775	0.20908
619.06919	0.26233
617.14062	0.28874
615.21206	0.25382
613.28350	0.19485
611.35493	0.14490
609.42637	0.11143
607.49780	0.11262
605.56924	0.15893
603.64067	0.22584
601.71211	0.26457
599.78354	0.27928
597.85498	0.28639
595.92642	0.26885
593.99785	0.23474
592.06929	0.20542
590.14072	0.18220
588.21216	0.18511
586.28359	0.22572
584.35503	0.25519
582.42646	0.24946
580.49790	0.25862
578.56934	0.27749
576.64077	0.23627
574.71221	0.17995
572.78364	0.16559
570.85508	0.17866
568.92651	0.18403
566.99795	0.15989
565.06938	0.14745
563.14082	0.18635
561.21226	0.21801
559.28369	0.18779
557.35513	0.14592
555.42656	0.13123
553.49800	0.13431
551.56943	0.14743
549.64087	0.17375
547.71230	0.20766
545.78374	0.22359
543.85518	0.19361
541.92661	0.16880
539.99805	0.17655
538.06948	0.18796
536.14092	0.17908
534.21235	0.14173
532.28379	0.11516
530.35522	0.14660
528.42666	0.21173
526.49810	0.22880
524.56953	0.17551
522.64097	0.12883
520.71240	0.12298
518.78384	0.12695
516.85527	0.13193
514.92671	0.15138
512.99814	0.15089
511.06958	0.13501
509.14102	0.15850
507.21245	0.21119
505.28389	0.24749
503.35532	0.26327
501.42676	0.25264
499.49819	0.23752
