3997.91411	0.07301
3995.98555	0.07361
3994.05698	0.07449
3992.12842	0.07516
3990.19985	0.07530
3988.27129	0.07504
3986.34272	0.07496
3984.41416	0.07546
3982.48560	0.07617
3980.55703	0.07655
3978.62847	0.07664
3976.69990	0.07675
3974.77134	0.07697
3972.84277	0.07702
3970.91421	0.07667
3968.98564	0.07635
3967.05708	0.07644
3965.12852	0.07695
3963.19995	0.07771
3961.27139	0.07841
3959.34282	0.07875
3957.41426	0.07858
3955.48569	0.07823
3953.55713	0.07808
3951.62856	0.07826
3949.70000	0.07870
3947.77144	0.07903
3945.84287	0.07900
3943.91431	0.07922
3941.98574	0.07971
3940.05718	0.07946
3938.12861	0.07866
3936.20005	0.07828
3934.27148	0.07878
3932.34292	0.07982
3930.41436	0.08016
3928.48579	0.07952
3926.55723	0.07914
3924.62866	0.07956
3922.70010	0.07980
3920.77153	0.07948
3918.84297	0.07960
3916.91440	0.08013
3914.98584	0.07971
3913.05728	0.07842
3911.12871	0.07737
3909.20015	0.07685
3907.27158	0.07727
3905.34302	0.07921
3903.41445	0.08206
3901.48589	0.08370
3899.55732	0.08317
3897.62876	0.08123
3895.70020	0.07926
3893.77163	0.07877
3891.84307	0.07999
3889.91450	0.08098
3887.98594	0.08042
3886.05737	0.08042
3884.12881	0.08167
3882.20024	0.08255
3880.27168	0.08280
3878.34312	0.08192
3876.41455	0.08063
3874.48599	0.08105
3872.55742	0.08285
3870.62886	0.08467
3868.70029	0.08575
3866.77173	0.08503
3864.84316	0.08445
3862.91460	0.08514
3860.98604	0.08496
3859.05747	0.08408
3857.12891	0.08437
3855.20034	0.08664
3853.27178	0.09119
3851.34321	0.09307
3849.41465	0.08934
3847.48608	0.08617
3845.55752	0.08547
3843.62896	0.08666
3841.70039	0.08855
3839.77183	0.09055
3837.84326	0.09286
3835.91470	0.09394
3833.98613	0.09327
3832.05757	0.09257
3830.12900	0.09221
3828.20044	0.09225
3826.27187	0.09333
3824.34331	0.09478
3822.41475	0.09618
3820.48618	0.09861
3818.55762	0.10023
3816.62905	0.10032
3814.70049	0.10035
3812.77192	0.09967
3810.84336	0.09899
3808.91479	0.09950
3806.98623	0.10153
3805.05767	0.10383
3803.12910	0.10570
3801.20054	0.10856
3799.27197	0.11045
3797.34341	0.11017
3795.41484	0.10979
3793.48628	0.10922
3791.55771	0.10903
3789.62915	0.11009
3787.70059	0.11203
3785.77202	0.11449
3783.84346	0.11679
3781.91489	0.11812
3779.98633	0.11948
3778.05776	0.12132
3776.12920	0.12218
3774.20063	0.12265
3772.27207	0.12426
3770.34351	0.12728
3768.41494	0.13059
3766.48638	0.13259
3764.55781	0.13392
3762.62925	0.13540
3760.70068	0.13763
3758.77212	0.14097
3756.84355	0.14399
3754.91499	0.14612
3752.98643	0.14947
3751.05786	0.15543
3749.12930	0.16092
3747.20073	0.16236
3745.27217	0.16338
3743.34360	0.16631
3741.41504	0.16834
3739.48647	0.16901
3737.55791	0.17110
3735.62935	0.17605
3733.70078	0.18139
3731.77222	0.18346
3729.84365	0.18428
3727.91509	0.18676
3725.98652	0.19239
3724.05796	0.20026
3722.12939	0.20815
3720.20083	0.21595
3718.27227	0.22379
3716.34370	0.23168
3714.41514	0.23993
3712.48657	0.25006
3710.55801	0.26333
3708.62944	0.27586
3706.70088	0.28549
3704.77231	0.29539
3702.84375	0.30826
3700.91519	0.32551
3698.98662	0.34381
3697.05806	0.36102
3695.12949	0.37982
3693.20093	0.40023
3691.27236	0.42307
3689.34380	0.45279
3687.41523	0.48753
3685.48667	0.51652
3683.55811	0.54175
3681.62954	0.56994
3679.70098	0.60245
3677.77241	0.63695
3675.84385	0.67777
3673.91528	0.73170
3671.98672	0.77523
3670.05815	0.81357
3668.12959	0.86523
3666.20103	0.91188
3664.27246	0.95137
3662.34390	0.99481
3660.41533	1.04221
3658.48677	1.08900
3656.55820	1.13879
3654.62964	1.19366
3652.70107	1.23988
3650.77251	1.28143
3648.84395	1.33821
3646.91538	1.40502
3644.98682	1.45344
3643.05825	1.49116
3641.12969	1.53034
3639.20112	1.57368
3637.27256	1.61743
3635.34399	1.66046
3633.41543	1.70366
3631.48687	1.74434
3629.55830	1.78621
3627.62974	1.84009
3625.70117	1.88865
3623.77261	1.92162
3621.84404	1.95515
3619.91548	1.99557
3617.98691	2.04367
3616.05835	2.08801
3614.12979	2.12550
3612.20122	2.16541
3610.27266	2.20418
3608.34409	2.24271
3606.41553	2.28424
3604.48696	2.32263
3602.55840	2.35741
3600.62983	2.39590
3598.70127	2.43817
3596.77271	2.47971
3594.84414	2.52115
3592.91558	2.56373
3590.98701	2.60492
3589.05845	2.64363
3587.12988	2.68784
3585.20132	2.73456
3583.27275	2.77415
3581.34419	2.81210
3579.41562	2.85395
3577.48706	2.89848
3575.55850	2.94239
3573.62993	2.98556
3571.70137	3.02718
3569.77280	3.06801
3567.84424	3.11324
3565.91567	3.16858
3563.98711	3.22096
3562.05854	3.26458
3560.12998	3.30851
3558.20142	3.35230
3556.27285	3.39519
3554.34429	3.43970
3552.41572	3.48717
3550.48716	3.53468
3548.55859	3.58015
3546.63003	3.62529
3544.70146	3.67466
3542.77290	3.72562
3540.84434	3.77209
3538.91577	3.81626
3536.98721	3.86153
3535.05864	3.91031
3533.13008	3.96019
3531.20151	4.00859
3529.27295	4.05648
3527.34438	4.10714
3525.41582	4.15790
3523.48726	4.20473
3521.55869	4.25382
3519.63013	4.30675
3517.70156	4.35664
3515.77300	4.40238
3513.84443	4.45079
3511.91587	4.50195
3509.98730	4.55177
3508.05874	4.59878
3506.13018	4.64391
3504.20161	4.69125
3502.27305	4.74249
3500.34448	4.79502
3498.41592	4.84424
3496.48735	4.88932
3494.55879	4.93310
3492.63022	4.98135
3490.70166	5.03386
3488.77310	5.08211
3486.84453	5.12735
3484.91597	5.17806
3482.98740	5.23405
3481.05884	5.29092
3479.13027	5.34373
3477.20171	5.38876
3475.27314	5.42875
3473.34458	5.47351
3471.41602	5.52380
3469.48745	5.57312
3467.55889	5.62828
3465.63032	5.69262
3463.70176	5.75508
3461.77319	5.80604
3459.84463	5.84649
3457.91606	5.88203
3455.98750	5.92608
3454.05894	5.98570
3452.13037	6.04909
3450.20181	6.10752
3448.27324	6.16231
3446.34468	6.21773
3444.41611	6.26985
3442.48755	6.31761
3440.55898	6.36027
3438.63042	6.40511
3436.70186	6.46273
3434.77329	6.52114
3432.84473	6.57428
3430.91616	6.62339
3428.98760	6.66286
3427.05903	6.70363
3425.13047	6.75242
3423.20190	6.79195
3421.27334	6.84235
3419.34478	6.91985
3417.41621	7.00063
3415.48765	7.05878
3413.55908	7.08027
3411.63052	7.09377
3409.70195	7.12251
3407.77339	7.16951
3405.84482	7.24790
3403.91626	7.36453
3401.98770	7.44865
3400.05913	7.45625
3398.13057	7.44825
3396.20200	7.44932
3394.27344	7.47733
3392.34487	7.56195
3390.41631	7.67834
3388.48774	7.73778
3386.55918	7.72449
3384.63062	7.70589
3382.70205	7.73732
3380.77349	7.78801
3378.84492	7.79461
3376.91636	7.79699
3374.98779	7.84966
3373.05923	7.97721
3371.13066	8.08907
3369.20210	8.06570
3367.27354	7.99988
3365.34497	8.01122
3363.41641	8.04595
3361.48784	8.03038
3359.55928	8.01104
3357.63071	8.03046
3355.70215	8.10544
3353.77358	8.19294
3351.84502	8.22665
3349.91646	8.21891
3347.98789	8.22616
3346.05933	8.25214
3344.13076	8.28861
3342.20220	8.34160
3340.27363	8.37273
3338.34507	8.36315
3336.41650	8.33318
3334.48794	8.35091
3332.55937	8.42214
3330.63081	8.46345
3328.70225	8.40855
3326.77368	8.33705
3324.84512	8.35613
3322.91655	8.40107
3320.98799	8.40038
3319.05942	8.40370
3317.13086	8.47312
3315.20229	8.57608
3313.27373	8.68300
3311.34517	8.76129
3309.41660	8.70539
3307.48804	8.54940
3305.55947	8.47467
3303.63091	8.54832
3301.70234	8.59451
3299.77378	8.49932
3297.84521	8.40183
3295.91665	8.40501
3293.98809	8.45953
3292.05952	8.48849
3290.13096	8.53298
3288.20239	8.62777
3286.27383	8.67863
3284.34526	8.62380
3282.41670	8.52263
3280.48813	8.44562
3278.55957	8.43115
3276.63101	8.46521
3274.70244	8.49235
3272.77388	8.48911
3270.84531	8.59720
3268.91675	8.79336
3266.98818	8.78356
3265.05962	8.65769
3263.13105	8.63950
3261.20249	8.71936
3259.27393	8.83467
3257.34536	8.89308
3255.41680	8.72725
3253.48823	8.47248
3251.55967	8.39448
3249.63110	8.47952
3247.70254	8.56437
3245.77397	8.60923
3243.84541	8.67895
3241.91685	8.60686
3239.98828	8.39565
3238.05972	8.35684
3236.13115	8.48893
3234.20259	8.54859
3232.27402	8.49471
3230.34546	8.41044
3228.41689	8.34711
3226.48833	8.35470
3224.55977	8.41138
3222.63120	8.47248
3220.70264	8.50217
3218.77407	8.46820
3216.84551	8.37453
3214.91694	8.33004
3212.98838	8.37150
3211.05981	8.33387
3209.13125	8.20482
3207.20269	8.10172
3205.27412	8.05500
3203.34556	8.09915
3201.41699	8.18050
3199.48843	8.13409
3197.55986	7.98507
3195.63130	7.90605
3193.70273	7.91120
3191.77417	7.90021
3189.84561	7.86930
3187.91704	7.84336
3185.98848	7.79043
3184.05991	7.71466
3182.13135	7.63221
3180.20278	7.54166
3178.27422	7.44816
3176.34565	7.37482
3174.41709	7.32762
3172.48853	7.28990
3170.55996	7.25702
3168.63140	7.21463
3166.70283	7.15075
3164.77427	7.08537
3162.84570	7.02776
3160.91714	6.95643
3158.98857	6.87660
3157.06001	6.80133
3155.13145	6.71418
3153.20288	6.62194
3151.27432	6.55719
3149.34575	6.51143
3147.41719	6.45191
3145.48862	6.38264
3143.56006	6.30303
3141.63149	6.20734
3139.70293	6.12107
3137.77437	6.05063
3135.84580	5.97716
3133.91724	5.89585
3131.98867	5.80753
3130.06011	5.72070
3128.13154	5.65377
3126.20298	5.60071
3124.27441	5.53750
3122.34585	5.45804
3120.41729	5.37413
3118.48872	5.29371
3116.56016	5.21916
3114.63159	5.14836
3112.70303	5.07218
3110.77446	4.99503
3108.84590	4.92896
3106.91733	4.86757
3104.98877	4.80306
3103.06021	4.73999
3101.13164	4.67582
3099.20308	4.60396
3097.27451	4.52886
3095.34595	4.45730
3093.41738	4.39098
3091.48882	4.32966
3089.56025	4.26750
3087.63169	4.20018
3085.70312	4.13352
3083.77456	4.06972
3081.84600	4.00677
3079.91743	3.94618
3077.98887	3.88790
3076.06030	3.83103
3074.13174	3.77499
3072.20317	3.71731
3070.27461	3.65747
3068.34604	3.59850
3066.41748	3.53973
3064.48892	3.47949
3062.56035	3.42242
3060.63179	3.37001
3058.70322	3.31728
3056.77466	3.26307
3054.84609	3.20917
3052.91753	3.15593
3050.98896	3.10349
3049.06040	3.05116
3047.13184	2.99912
3045.20327	2.94870
3043.27471	2.89963
3041.34614	2.85164
3039.41758	2.80444
3037.48901	2.75726
3035.56045	2.71055
3033.63188	2.66438
3031.70332	2.61841
3029.77476	2.57336
3027.84619	2.52952
3025.91763	2.48595
3023.98906	2.44258
3022.06050	2.40094
3020.13193	2.36068
3018.20337	2.31965
3016.27480	2.27804
3014.34624	2.23775
3012.41768	2.19887
3010.48911	2.16048
3008.56055	2.12287
3006.63198	2.08624
3004.70342	2.04997
3002.77485	2.01412
3000.84629	1.97938
2998.91772	1.94575
2996.98916	1.91274
2995.06060	1.88021
2993.13203	1.84838
2991.20347	1.81750
2989.27490	1.78768
2987.34634	1.75883
2985.41777	1.73032
2983.48921	1.70148
2981.56064	1.67303
2979.63208	1.64575
2977.70352	1.61908
2975.77495	1.59243
2973.84639	1.56632
2971.91782	1.54121
2969.98926	1.51670
2968.06069	1.49214
2966.13213	1.46733
2964.20356	1.44281
2962.27500	1.41898
2960.34644	1.39508
2958.41787	1.37052
2956.48931	1.34578
2954.56074	1.32176
2952.63218	1.29868
2950.70361	1.27612
2948.77505	1.25377
2946.84648	1.23126
2944.91792	1.20884
2942.98936	1.18720
2941.06079	1.16618
2939.13223	1.14499
2937.20366	1.12332
2935.27510	1.10170
2933.34653	1.08068
2931.41797	1.05986
2929.48940	1.03880
2927.56084	1.01809
2925.63228	0.99819
2923.70371	0.97936
2921.77515	0.96178
2919.84658	0.94514
2917.91802	0.92911
2915.98945	0.91341
2914.06089	0.89819
2912.13232	0.88352
2910.20376	0.86879
2908.27520	0.85397
2906.34663	0.83973
2904.41807	0.82579
2902.48950	0.81177
2900.56094	0.79819
2898.63237	0.78529
2896.70381	0.77289
2894.77524	0.76074
2892.84668	0.74869
2890.91812	0.73678
2888.98955	0.72521
2887.06099	0.71410
2885.13242	0.70351
2883.20386	0.69362
2881.27529	0.68426
2879.34673	0.67484
2877.41816	0.66522
2875.48960	0.65544
2873.56104	0.64516
2871.63247	0.63408
2869.70391	0.62235
2867.77534	0.61039
2865.84678	0.59839
2863.91821	0.58632
2861.98965	0.57411
2860.06108	0.56187
2858.13252	0.55024
2856.20396	0.53940
2854.27539	0.52890
2852.34683	0.51929
2850.41826	0.51104
2848.48970	0.50347
2846.56113	0.49634
2844.63257	0.48990
2842.70400	0.48404
2840.77544	0.47854
2838.84687	0.47303
2836.91831	0.46730
2834.98975	0.46147
2833.06118	0.45560
2831.13262	0.44965
2829.20405	0.44372
2827.27549	0.43779
2825.34692	0.43179
2823.41836	0.42573
2821.48979	0.41978
2819.56123	0.41409
2817.63267	0.40849
2815.70410	0.40271
2813.77554	0.39684
2811.84697	0.39115
2809.91841	0.38571
2807.98984	0.38039
2806.06128	0.37508
2804.13271	0.36970
2802.20415	0.36441
2800.27559	0.35945
2798.34702	0.35464
2796.41846	0.34976
2794.48989	0.34479
2792.56133	0.33992
2790.63276	0.33535
2788.70420	0.33087
2786.77563	0.32638
2784.84707	0.32207
2782.91851	0.31801
2780.98994	0.31402
2779.06138	0.30988
2777.13281	0.30573
2775.20425	0.30175
2773.27568	0.29791
2771.34712	0.29408
2769.41855	0.29029
2767.48999	0.28661
2765.56143	0.28302
2763.63286	0.27955
2761.70430	0.27630
2759.77573	0.27311
2757.84717	0.26977
2755.91860	0.26647
2753.99004	0.26334
2752.06147	0.26011
2750.13291	0.25681
2748.20435	0.25378
2746.27578	0.25100
2744.34722	0.24832
2742.41865	0.24573
2740.49009	0.24320
2738.56152	0.24059
2736.63296	0.23786
2734.70439	0.23518
2732.77583	0.23271
2730.84727	0.23036
2728.91870	0.22804
2726.99014	0.22579
2725.06157	0.22354
2723.13301	0.22130
2721.20444	0.21921
2719.27588	0.21720
2717.34731	0.21513
2715.41875	0.21305
2713.49019	0.21106
2711.56162	0.20921
2709.63306	0.20750
2707.70449	0.20585
2705.77593	0.20413
2703.84736	0.20236
2701.91880	0.20073
2699.99023	0.19932
2698.06167	0.19791
2696.13311	0.19645
2694.20454	0.19502
2692.27598	0.19367
2690.34741	0.19244
2688.41885	0.19129
2686.49028	0.19003
2684.56172	0.18864
2682.63315	0.18731
2680.70459	0.18600
2678.77603	0.18466
2676.84746	0.18344
2674.91890	0.18248
2672.99033	0.18153
2671.06177	0.18041
2669.13320	0.17930
2667.20464	0.17830
2665.27607	0.17725
2663.34751	0.17620
2661.41895	0.17536
2659.49038	0.17466
2657.56182	0.17382
2655.63325	0.17280
2653.70469	0.17188
2651.77612	0.17119
2649.84756	0.17051
2647.91899	0.16974
2645.99043	0.16908
2644.06187	0.16863
2642.13330	0.16818
2640.20474	0.16761
2638.27617	0.16703
2636.34761	0.16642
2634.41904	0.16583
2632.49048	0.16538
2630.56191	0.16510
2628.63335	0.16488
2626.70479	0.16454
2624.77622	0.16404
2622.84766	0.16355
2620.91909	0.16318
2618.99053	0.16293
2617.06196	0.16279
2615.13340	0.16273
2613.20483	0.16266
2611.27627	0.16242
2609.34771	0.16208
2607.41914	0.16193
2605.49058	0.16198
2603.56201	0.16193
2601.63345	0.16176
2599.70488	0.16174
2597.77632	0.16186
2595.84775	0.16191
2593.91919	0.16188
2591.99062	0.16182
2590.06206	0.16180
2588.13350	0.16188
2586.20493	0.16204
2584.27637	0.16228
2582.34780	0.16253
2580.41924	0.16271
2578.49067	0.16290
2576.56211	0.16316
2574.63354	0.16346
2572.70498	0.16377
2570.77642	0.16405
2568.84785	0.16432
2566.91929	0.16464
2564.99072	0.16498
2563.06216	0.16533
2561.13359	0.16573
2559.20503	0.16626
2557.27646	0.16686
2555.34790	0.16739
2553.41934	0.16788
2551.49077	0.16839
2549.56221	0.16882
2547.63364	0.16922
2545.70508	0.16977
2543.77651	0.17037
2541.84795	0.17093
2539.91938	0.17158
2537.99082	0.17231
2536.06226	0.17296
2534.13369	0.17358
2532.20513	0.17424
2530.27656	0.17486
2528.34800	0.17552
2526.41943	0.17630
2524.49087	0.17712
2522.56230	0.17787
2520.63374	0.17852
2518.70518	0.17913
2516.77661	0.17976
2514.84805	0.18040
2512.91948	0.18105
2510.99092	0.18179
2509.06235	0.18249
2507.13379	0.18326
2505.20522	0.18417
2503.27666	0.18500
2501.34810	0.18572
2499.41953	0.18648
2497.49097	0.18729
2495.56240	0.18822
2493.63384	0.18927
2491.70527	0.19020
2489.77671	0.19094
2487.84814	0.19174
2485.91958	0.19262
2483.99102	0.19348
2482.06245	0.19430
2480.13389	0.19503
2478.20532	0.19584
2476.27676	0.19681
2474.34819	0.19775
2472.41963	0.19867
2470.49106	0.19962
2468.56250	0.20057
2466.63394	0.20143
2464.70537	0.20216
2462.77681	0.20292
2460.84824	0.20387
2458.91968	0.20486
2456.99111	0.20573
2455.06255	0.20659
2453.13398	0.20758
2451.20542	0.20867
2449.27686	0.20965
2447.34829	0.21048
2445.41973	0.21139
2443.49116	0.21246
2441.56260	0.21353
2439.63403	0.21447
2437.70547	0.21539
2435.77690	0.21638
2433.84834	0.21744
2431.91978	0.21857
2429.99121	0.21968
2428.06265	0.22066
2426.13408	0.22170
2424.20552	0.22290
2422.27695	0.22407
2420.34839	0.22513
2418.41982	0.22615
2416.49126	0.22715
2414.56270	0.22822
2412.63413	0.22938
2410.70557	0.23056
2408.77700	0.23177
2406.84844	0.23298
2404.91987	0.23402
2402.99131	0.23497
2401.06274	0.23613
2399.13418	0.23747
2397.20562	0.23874
2395.27705	0.23993
2393.34849	0.24113
2391.41992	0.24233
2389.49136	0.24344
2387.56279	0.24415
2385.63423	0.24404
2383.70566	0.24265
2381.77710	0.23981
2379.84854	0.23586
2377.91997	0.23098
2375.99141	0.22505
2374.06284	0.21798
2372.13428	0.20984
2370.20571	0.20105
2368.27715	0.19189
2366.34858	0.18288
2364.42002	0.17560
2362.49146	0.17130
2360.56289	0.16989
2358.63433	0.17169
2356.70576	0.17818
2354.77720	0.18936
2352.84863	0.20308
2350.92007	0.21647
2348.99150	0.22507
2347.06294	0.22618
2345.13437	0.22036
2343.20581	0.21300
2341.27725	0.21087
2339.34868	0.21328
2337.42012	0.21641
2335.49155	0.21932
2333.56299	0.22282
2331.63442	0.22696
2329.70586	0.23137
2327.77729	0.23568
2325.84873	0.24018
2323.92017	0.24542
2321.99160	0.25139
2320.06304	0.25783
2318.13447	0.26436
2316.20591	0.27036
2314.27734	0.27533
2312.34878	0.27947
2310.42021	0.28357
2308.49165	0.28808
2306.56309	0.29282
2304.63452	0.29729
2302.70596	0.30100
2300.77739	0.30415
2298.84883	0.30727
2296.92026	0.31049
2294.99170	0.31360
2293.06313	0.31653
2291.13457	0.31949
2289.20601	0.32258
2287.27744	0.32570
2285.34888	0.32871
2283.42031	0.33141
2281.49175	0.33363
2279.56318	0.33546
2277.63462	0.33705
2275.70605	0.33871
2273.77749	0.34067
2271.84893	0.34279
2269.92036	0.34484
2267.99180	0.34677
2266.06323	0.34879
2264.13467	0.35108
2262.20610	0.35355
2260.27754	0.35600
2258.34897	0.35845
2256.42041	0.36093
2254.49185	0.36336
2252.56328	0.36566
2250.63472	0.36792
2248.70615	0.37026
2246.77759	0.37264
2244.84902	0.37506
2242.92046	0.37746
2240.99189	0.37971
2239.06333	0.38187
2237.13477	0.38408
2235.20620	0.38638
2233.27764	0.38863
2231.34907	0.39072
2229.42051	0.39286
2227.49194	0.39526
2225.56338	0.39767
2223.63481	0.39991
2221.70625	0.40205
2219.77769	0.40417
2217.84912	0.40628
2215.92056	0.40844
2213.99199	0.41064
2212.06343	0.41280
2210.13486	0.41493
2208.20630	0.41707
2206.27773	0.41919
2204.34917	0.42125
2202.42061	0.42328
2200.49204	0.42536
2198.56348	0.42751
2196.63491	0.42964
2194.70635	0.43163
2192.77778	0.43345
2190.84922	0.43523
2188.92065	0.43703
2186.99209	0.43883
2185.06353	0.44060
2183.13496	0.44229
2181.20640	0.44393
2179.27783	0.44559
2177.34927	0.44720
2175.42070	0.44866
2173.49214	0.45013
2171.56357	0.45165
2169.63501	0.45301
2167.70645	0.45425
2165.77788	0.45550
2163.84932	0.45668
2161.92075	0.45776
2159.99219	0.45883
2158.06362	0.45991
2156.13506	0.46090
2154.20649	0.46176
2152.27793	0.46261
2150.34937	0.46331
2148.42080	0.46387
2146.49224	0.46439
2144.56367	0.46483
2142.63511	0.46521
2140.70654	0.46561
2138.77798	0.46599
2136.84941	0.46616
2134.92085	0.46613
2132.99229	0.46605
2131.06372	0.46599
2129.13516	0.46588
2127.20659	0.46561
2125.27803	0.46519
2123.34946	0.46466
2121.42090	0.46418
2119.49233	0.46368
2117.56377	0.46310
2115.63521	0.46240
2113.70664	0.46156
2111.77808	0.46063
2109.84951	0.45964
2107.92095	0.45853
2105.99238	0.45733
2104.06382	0.45609
2102.13525	0.45482
2100.20669	0.45353
2098.27812	0.45215
2096.34956	0.45066
2094.42100	0.44910
2092.49243	0.44745
2090.56387	0.44572
2088.63530	0.44399
2086.70674	0.44222
2084.77817	0.44027
2082.84961	0.43823
2080.92104	0.43620
2078.99248	0.43420
2077.06392	0.43222
2075.13535	0.43012
2073.20679	0.42779
2071.27822	0.42533
2069.34966	0.42296
2067.42109	0.42073
2065.49253	0.41850
2063.56396	0.41609
2061.63540	0.41354
2059.70684	0.41105
2057.77827	0.40859
2055.84971	0.40603
2053.92114	0.40339
2051.99258	0.40079
2050.06401	0.39819
2048.13545	0.39552
2046.20688	0.39279
2044.27832	0.39013
2042.34976	0.38750
2040.42119	0.38482
2038.49263	0.38207
2036.56406	0.37924
2034.63550	0.37639
2032.70693	0.37358
2030.77837	0.37079
2028.84980	0.36796
2026.92124	0.36519
2024.99268	0.36246
2023.06411	0.35971
2021.13555	0.35696
2019.20698	0.35428
2017.27842	0.35161
2015.34985	0.34880
2013.42129	0.34595
2011.49272	0.34312
2009.56416	0.34029
2007.63560	0.33748
2005.70703	0.33469
2003.77847	0.33191
2001.84990	0.32923
1999.92134	0.32670
1997.99277	0.32418
1996.06421	0.32169
1994.13564	0.31939
1992.20708	0.31714
1990.27852	0.31457
1988.34995	0.31188
1986.42139	0.30927
1984.49282	0.30676
1982.56426	0.30434
1980.63569	0.30205
1978.70713	0.29979
1976.77856	0.29746
1974.85000	0.29513
1972.92144	0.29293
1970.99287	0.29092
1969.06431	0.28914
1967.13574	0.28739
1965.20718	0.28537
1963.27861	0.28315
1961.35005	0.28100
1959.42148	0.27905
1957.49292	0.27723
1955.56436	0.27544
1953.63579	0.27370
1951.70723	0.27200
1949.77866	0.27030
1947.85010	0.26871
1945.92153	0.26741
1943.99297	0.26628
1942.06440	0.26497
1940.13584	0.26321
1938.20728	0.26140
1936.27871	0.25987
1934.35015	0.25856
1932.42158	0.25733
1930.49302	0.25611
1928.56445	0.25497
1926.63589	0.25397
1924.70732	0.25321
1922.77876	0.25254
1920.85020	0.25164
1918.92163	0.25065
1916.99307	0.24971
1915.06450	0.24868
1913.13594	0.24774
1911.20737	0.24710
1909.27881	0.24651
1907.35024	0.24581
1905.42168	0.24510
1903.49312	0.24441
1901.56455	0.24375
1899.63599	0.24326
1897.70742	0.24295
1895.77886	0.24265
1893.85029	0.24233
1891.92173	0.24206
1889.99316	0.24199
1888.06460	0.24177
1886.13604	0.24131
1884.20747	0.24098
1882.27891	0.24077
1880.35034	0.24060
1878.42178	0.24049
1876.49321	0.24044
1874.56465	0.24043
1872.63608	0.24062
1870.70752	0.24121
1868.77896	0.24213
1866.85039	0.24240
1864.92183	0.24192
1862.99326	0.24168
1861.06470	0.24187
1859.13613	0.24219
1857.20757	0.24247
1855.27900	0.24285
1853.35044	0.24327
1851.42187	0.24385
1849.49331	0.24465
1847.56475	0.24562
1845.63618	0.24666
1843.70762	0.24771
1841.77905	0.24831
1839.85049	0.24859
1837.92192	0.24929
1835.99336	0.25024
1834.06479	0.25120
1832.13623	0.25234
1830.20767	0.25402
1828.27910	0.25556
1826.35054	0.25648
1824.42197	0.25765
1822.49341	0.25885
1820.56484	0.25993
1818.63628	0.26114
1816.70771	0.26272
1814.77915	0.26444
1812.85059	0.26634
1810.92202	0.26857
1808.99346	0.27074
1807.06489	0.27253
1805.13633	0.27426
1803.20776	0.27658
1801.27920	0.27947
1799.35063	0.28242
1797.42207	0.28485
1795.49351	0.28726
1793.56494	0.29029
1791.63638	0.29396
1789.70781	0.29699
1787.77925	0.29921
1785.85068	0.30221
1783.92212	0.30594
1781.99355	0.30995
1780.06499	0.31418
1778.13643	0.31848
1776.20786	0.32261
1774.27930	0.32726
1772.35073	0.33346
1770.42217	0.33973
1768.49360	0.34461
1766.56504	0.34931
1764.63647	0.35436
1762.70791	0.36019
1760.77935	0.36755
1758.85078	0.37428
1756.92222	0.38094
1754.99365	0.38821
1753.06509	0.39496
1751.13652	0.40325
1749.20796	0.41357
1747.27939	0.42339
1745.35083	0.43194
1743.42227	0.44120
1741.49370	0.45164
1739.56514	0.46417
1737.63657	0.47678
1735.70801	0.48803
1733.77944	0.50508
1731.85088	0.52489
1729.92231	0.54015
1727.99375	0.55574
1726.06519	0.57282
1724.13662	0.59159
1722.20806	0.61173
1720.27949	0.63057
1718.35093	0.65315
1716.42236	0.68594
1714.49380	0.71612
1712.56523	0.74028
1710.63667	0.76409
1708.70811	0.79015
1706.77954	0.82000
1704.85098	0.85556
1702.92241	0.88737
1700.99385	0.91919
1699.06528	0.96623
1697.13672	1.00924
1695.20815	1.05367
1693.27959	1.09762
1691.35103	1.13390
1689.42246	1.17611
1687.49390	1.22055
1685.56533	1.26371
1683.63677	1.32977
1681.70820	1.39714
1679.77964	1.44021
1677.85107	1.48187
1675.92251	1.53023
1673.99395	1.59024
1672.06538	1.64440
1670.13682	1.69855
1668.20825	1.76886
1666.27969	1.82613
1664.35112	1.87558
1662.42256	1.93938
1660.49399	2.01239
1658.56543	2.06936
1656.63687	2.11581
1654.70830	2.16022
1652.77974	2.22395
1650.85117	2.27510
1648.92261	2.29084
1646.99404	2.31323
1645.06548	2.33792
1643.13691	2.35434
1641.20835	2.36211
1639.27979	2.36992
1637.35122	2.37588
1635.42266	2.37330
1633.49409	2.36085
1631.56553	2.34393
1629.63696	2.32478
1627.70840	2.29441
1625.77983	2.25795
1623.85127	2.21206
1621.92271	2.15781
1619.99414	2.11033
1618.06558	2.06446
1616.13701	1.99836
1614.20845	1.92948
1612.27988	1.87702
1610.35132	1.82387
1608.42275	1.76689
1606.49419	1.71044
1604.56562	1.65829
1602.63706	1.60832
1600.70850	1.56030
1598.77993	1.51649
1596.85137	1.47522
1594.92280	1.43505
1592.99424	1.39644
1591.06567	1.36156
1589.13711	1.32960
1587.20854	1.30032
1585.27998	1.27355
1583.35142	1.24901
1581.42285	1.22727
1579.49429	1.20939
1577.56572	1.19397
1575.63716	1.17535
1573.70859	1.15869
1571.78003	1.14832
1569.85146	1.13897
1567.92290	1.12904
1565.99434	1.12158
1564.06577	1.11692
1562.13721	1.11501
1560.20864	1.11706
1558.28008	1.12438
1556.35151	1.12926
1554.42295	1.13149
1552.49438	1.13430
1550.56582	1.13533
1548.63726	1.13328
1546.70869	1.12842
1544.78013	1.12079
1542.85156	1.11027
1540.92300	1.09262
1538.99443	1.06018
1537.06587	1.03464
1535.13730	1.01795
1533.20874	0.99668
1531.28018	0.97364
1529.35161	0.95687
1527.42305	0.94175
1525.49448	0.92646
1523.56592	0.91343
1521.63735	0.90086
1519.70879	0.88798
1517.78022	0.87733
1515.85166	0.86471
1513.92310	0.85072
1511.99453	0.83867
1510.06597	0.82855
1508.13740	0.81932
1506.20884	0.80345
1504.28027	0.78780
1502.35171	0.77916
1500.42314	0.77246
1498.49458	0.76577
1496.56602	0.75789
1494.63745	0.74949
1492.70889	0.74280
1490.78032	0.73734
1488.85176	0.73128
1486.92319	0.72495
1484.99463	0.71973
1483.06606	0.71597
1481.13750	0.71322
1479.20894	0.71127
1477.28037	0.71046
1475.35181	0.71071
1473.42324	0.71161
1471.49468	0.71136
1469.56611	0.70893
1467.63755	0.70617
1465.70898	0.70419
1463.78042	0.70298
1461.85186	0.70265
1459.92329	0.70359
1457.99473	0.70561
1456.06616	0.70569
1454.13760	0.70250
1452.20903	0.69935
1450.28047	0.69662
1448.35190	0.69406
1446.42334	0.69152
1444.49478	0.68903
1442.56621	0.68649
1440.63765	0.68378
1438.70908	0.68112
1436.78052	0.67794
1434.85195	0.67394
1432.92339	0.67075
1430.99482	0.66896
1429.06626	0.66818
1427.13770	0.66806
1425.20913	0.66872
1423.28057	0.66999
1421.35200	0.67113
1419.42344	0.67209
1417.49487	0.67212
1415.56631	0.67078
1413.63774	0.66974
1411.70918	0.66973
1409.78062	0.67056
1407.85205	0.67187
1405.92349	0.67365
1403.99492	0.67538
1402.06636	0.67600
1400.13779	0.67556
1398.20923	0.67412
1396.28066	0.67157
1394.35210	0.66767
1392.42354	0.66275
1390.49497	0.65802
1388.56641	0.65347
1386.63784	0.64823
1384.70928	0.64245
1382.78071	0.63706
1380.85215	0.63224
1378.92358	0.62821
1376.99502	0.62531
1375.06646	0.62353
1373.13789	0.62226
1371.20933	0.62113
1369.28076	0.62024
1367.35220	0.61917
1365.42363	0.61774
1363.49507	0.61629
1361.56650	0.61478
1359.63794	0.61300
1357.70937	0.61136
1355.78081	0.60999
1353.85225	0.60881
1351.92368	0.60787
1349.99512	0.60713
1348.06655	0.60633
1346.13799	0.60546
1344.20942	0.60475
1342.28086	0.60426
1340.35229	0.60397
1338.42373	0.60338
1336.49517	0.60228
1334.56660	0.60133
1332.63804	0.60098
1330.70947	0.60122
1328.78091	0.60193
1326.85234	0.60289
1324.92378	0.60387
1322.99521	0.60485
1321.06665	0.60577
1319.13809	0.60650
1317.20952	0.60689
1315.28096	0.60693
1313.35239	0.60672
1311.42383	0.60622
1309.49526	0.60540
1307.56670	0.60450
1305.63813	0.60386
1303.70957	0.60343
1301.78101	0.60286
1299.85244	0.60192
1297.92388	0.60058
1295.99531	0.59912
1294.06675	0.59780
1292.13818	0.59657
1290.20962	0.59520
1288.28105	0.59367
1286.35249	0.59225
1284.42393	0.59094
1282.49536	0.58955
1280.56680	0.58803
1278.63823	0.58632
1276.70967	0.58459
1274.78110	0.58322
1272.85254	0.58234
1270.92397	0.58166
1268.99541	0.58088
1267.06685	0.58007
1265.13828	0.57928
1263.20972	0.57839
1261.28115	0.57745
1259.35259	0.57661
1257.42402	0.57590
1255.49546	0.57544
1253.56689	0.57527
1251.63833	0.57536
1249.70977	0.57556
1247.78120	0.57557
1245.85264	0.57531
1243.92407	0.57482
1241.99551	0.57387
1240.06694	0.57236
1238.13838	0.57042
1236.20981	0.56817
1234.28125	0.56581
1232.35269	0.56341
1230.42412	0.56098
1228.49556	0.55865
1226.56699	0.55648
1224.63843	0.55447
1222.70986	0.55271
1220.78130	0.55114
1218.85273	0.54955
1216.92417	0.54800
1214.99561	0.54674
1213.06704	0.54577
1211.13848	0.54497
1209.20991	0.54424
1207.28135	0.54346
1205.35278	0.54260
1203.42422	0.54170
1201.49565	0.54083
1199.56709	0.53994
1197.63853	0.53894
1195.70996	0.53799
1193.78140	0.53730
1191.85283	0.53670
1189.92427	0.53608
1187.99570	0.53565
1186.06714	0.53544
1184.13857	0.53533
1182.21001	0.53553
1180.28145	0.53630
1178.35288	0.53769
1176.42432	0.53933
1174.49575	0.54070
1172.56719	0.54167
1170.63862	0.54227
1168.71006	0.54248
1166.78149	0.54249
1164.85293	0.54262
1162.92437	0.54284
1160.99580	0.54281
1159.06724	0.54248
1157.13867	0.54201
1155.21011	0.54129
1153.28154	0.54012
1151.35298	0.53855
1149.42441	0.53639
1147.49585	0.53360
1145.56729	0.53066
1143.63872	0.52803
1141.71016	0.52575
1139.78159	0.52395
1137.85303	0.52275
1135.92446	0.52205
1133.99590	0.52186
1132.06733	0.52205
1130.13877	0.52223
1128.21021	0.52221
1126.28164	0.52184
1124.35308	0.52117
1122.42451	0.52059
1120.49595	0.52024
1118.56738	0.52029
1116.63882	0.52089
1114.71025	0.52163
1112.78169	0.52223
1110.85312	0.52289
1108.92456	0.52370
1106.99600	0.52467
1105.06743	0.52581
1103.13887	0.52692
1101.21030	0.52794
1099.28174	0.52929
1097.35317	0.53130
1095.42461	0.53393
1093.49604	0.53729
1091.56748	0.54179
1089.63892	0.54778
1087.71035	0.55531
1085.78179	0.56391
1083.85322	0.57259
1081.92466	0.58006
1079.99609	0.58535
1078.06753	0.58795
1076.13896	0.58751
1074.21040	0.58432
1072.28184	0.57895
1070.35327	0.57212
1068.42471	0.56484
1066.49614	0.55775
1064.56758	0.55119
1062.63901	0.54559
1060.71045	0.54088
1058.78188	0.53664
1056.85332	0.53264
1054.92476	0.52886
1052.99619	0.52552
1051.06763	0.52293
1049.13906	0.52123
1047.21050	0.52034
1045.28193	0.51997
1043.35337	0.51973
1041.42480	0.51939
1039.49624	0.51915
1037.56768	0.51897
1035.63911	0.51856
1033.71055	0.51800
1031.78198	0.51724
1029.85342	0.51592
1027.92485	0.51403
1025.99629	0.51232
1024.06772	0.51139
1022.13916	0.51072
1020.21060	0.50987
1018.28203	0.50933
1016.35347	0.50928
1014.42490	0.50916
1012.49634	0.50872
1010.56777	0.50832
1008.63921	0.50823
1006.71064	0.50866
1004.78208	0.50974
1002.85352	0.51139
1000.92495	0.51378
998.99639	0.51711
997.06782	0.52125
995.13926	0.52584
993.21069	0.53037
991.28213	0.53398
989.35356	0.53607
987.42500	0.53681
985.49644	0.53670
983.56787	0.53633
981.63931	0.53627
979.71074	0.53675
977.78218	0.53797
975.85361	0.53999
973.92505	0.54242
971.99648	0.54507
970.06792	0.54827
968.13936	0.55216
966.21079	0.55632
964.28223	0.56074
962.35366	0.56550
960.42510	0.57032
958.49653	0.57533
956.56797	0.58094
954.63940	0.58712
952.71084	0.59352
950.78228	0.59998
948.85371	0.60666
946.92515	0.61356
944.99658	0.62053
943.06802	0.62715
941.13945	0.63313
939.21089	0.63883
937.28232	0.64475
935.35376	0.65074
933.42520	0.65634
931.49663	0.66169
929.56807	0.66764
927.63950	0.67428
925.71094	0.68040
923.78237	0.68596
921.85381	0.69219
919.92524	0.69901
917.99668	0.70606
916.06812	0.71387
914.13955	0.72242
912.21099	0.73097
910.28242	0.73881
908.35386	0.74615
906.42529	0.75445
904.49673	0.76375
902.56816	0.77294
900.63960	0.78243
898.71104	0.79252
896.78247	0.80295
894.85391	0.81424
892.92534	0.82637
890.99678	0.83770
889.06821	0.84725
887.13965	0.85658
885.21108	0.86699
883.28252	0.87793
881.35396	0.88922
879.42539	0.90130
877.49683	0.91360
875.56826	0.92531
873.63970	0.93637
871.71113	0.94732
869.78257	0.95924
867.85400	0.97217
865.92544	0.98452
863.99687	0.99562
862.06831	1.00672
860.13975	1.01870
858.21118	1.03142
856.28262	1.04400
854.35405	1.05538
852.42549	1.06605
850.49692	1.07752
848.56836	1.08997
846.63979	1.10278
844.71123	1.11524
842.78267	1.12694
840.85410	1.13882
838.92554	1.15113
836.99697	1.16491
835.06841	1.18106
833.13984	1.19609
831.21128	1.20953
829.28271	1.22691
827.35415	1.24621
825.42559	1.25658
823.49702	1.26013
821.56846	1.27103
819.63989	1.29382
817.71133	1.31811
815.78276	1.33125
813.85420	1.33765
811.92563	1.35160
809.99707	1.36946
808.06851	1.38057
806.13994	1.39489
804.21138	1.42283
802.28281	1.46835
800.35425	1.51895
798.42568	1.54485
796.49712	1.56331
794.56855	1.58290
792.63999	1.58000
790.71143	1.62816
788.78286	1.75249
786.85430	1.78167
784.92573	1.79475
782.99717	1.97667
781.06860	2.34820
779.14004	2.93386
777.21147	2.08426
775.28291	1.87475
773.35435	1.86187
771.42578	1.70543
769.49722	1.53923
767.56865	1.49351
765.64009	1.43604
763.71152	1.35378
761.78296	1.34611
759.85439	1.38951
757.92583	1.36688
755.99727	1.33958
754.06870	1.35978
752.14014	1.30686
750.21157	1.17799
748.28301	1.09734
746.35444	1.05267
744.42588	0.99525
742.49731	0.94335
740.56875	0.89888
738.64019	0.87024
736.71162	0.83858
734.78306	0.72209
732.85449	0.59999
730.92593	0.56228
728.99736	0.53830
727.06880	0.47671
725.14023	0.44473
723.21167	0.44520
721.28311	0.40747
719.35454	0.31796
717.42598	0.26490
715.49741	0.26565
713.56885	0.30717
711.64028	0.29146
709.71172	0.18606
707.78315	0.11450
705.85459	0.11010
703.92603	0.13857
701.99746	0.19109
700.06890	0.29170
698.14033	0.39617
696.21177	0.25462
694.28320	0.09217
692.35464	0.05971
690.42607	0.10886
688.49751	0.13585
686.56895	0.15783
684.64038	0.22891
682.71182	0.22532
680.78325	0.13810
678.85469	0.06170
676.92612	0.03872
674.99756	0.07675
673.06899	0.09084
671.14043	0.02623
669.21187	-0.05854
667.28330	-0.06588
665.35474	0.02852
663.42617	0.08784
661.49761	0.08410
659.56904	0.08805
657.64048	0.04975
655.71191	-0.02033
653.78335	-0.02411
651.85479	0.06242
649.92622	0.12890
647.99766	0.14539
646.06909	0.14085
644.14053	0.12728
642.21196	0.12956
640.28340	0.19239
638.35483	0.34763
636.42627	0.36309
634.49771	0.24041
632.56914	0.14845
630.64058	0.07294
628.71201	0.11390
626.78345	0.24710
624.85488	0.28320
622.92632	0.21293
620.99775	0.14981
619.06919	0.10951
617.14062	0.04420
615.21206	-0.02436
613.28350	-0.01194
611.35493	0.06356
609.42637	0.11712
607.49780	0.14353
605.56924	0.13537
603.64067	0.08614
601.71211	0.07159
599.78354	0.12591
597.85498	0.15841
595.92642	0.12991
593.99785	0.11083
592.06929	0.11907
590.14072	0.11806
588.21216	0.08945
586.28359	0.06662
584.35503	0.07812
582.42646	0.04823
580.49790	-0.00860
578.56934	0.06196
576.64077	0.21638
574.71221	0.27104
572.78364	0.21639
570.85508	0.21385
568.92651	0.23803
566.99795	0.19640
565.06938	0.13552
563.14082	0.11380
561.21226	0.13034
559.28369	0.12330
557.35513	0.04684
555.42656	-0.02861
553.49800	0.00498
551.56943	0.09594
549.64087	0.15216
547.71230	0.16536
545.78374	0.15080
543.85518	0.11135
541.92661	0.07038
539.99805	0.07217
538.06948	0.10710
536.14092	0.11755
534.21235	0.11029
532.28379	0.13168
530.35522	0.13845
528.42666	0.11344
526.49810	0.12003
524.56953	0.17830
522.64097	0.23642
520.71240	0.24398
518.78384	0.20473
516.85527	0.12206
514.92671	0.05680
512.99814	0.05378
511.06958	0.06237
509.14102	0.08214
507.21245	0.13193
505.28389	0.16897
503.35532	0.15203
501.42676	0.10044
499.49819	0.08518
