3997.91411	0.06470
3995.98555	0.06461
3994.05698	0.06503
3992.12842	0.06588
3990.19985	0.06679
3988.27129	0.06733
3986.34272	0.06728
3984.41416	0.06693
3982.48560	0.06677
3980.55703	0.06714
3978.62847	0.06756
3976.69990	0.06773
3974.77134	0.06816
3972.84277	0.06872
3970.91421	0.06884
3968.98564	0.06882
3967.05708	0.06907
3965.12852	0.06933
3963.19995	0.06951
3961.27139	0.07002
3959.34282	0.07053
3957.41426	0.07045
3955.48569	0.07011
3953.55713	0.07007
3951.62856	0.07056
3949.70000	0.07141
3947.77144	0.07211
3945.84287	0.07198
3943.91431	0.07140
3941.98574	0.07128
3940.05718	0.07101
3938.12861	0.07030
3936.20005	0.07008
3934.27148	0.07056
3932.34292	0.07120
3930.41436	0.07133
3928.48579	0.07070
3926.55723	0.07017
3924.62866	0.07051
3922.70010	0.07097
3920.77153	0.07086
3918.84297	0.07075
3916.91440	0.07080
3914.98584	0.07051
3913.05728	0.07002
3911.12871	0.06981
3909.20015	0.06966
3907.27158	0.06974
3905.34302	0.07099
3903.41445	0.07288
3901.48589	0.07366
3899.55732	0.07328
3897.62876	0.07188
3895.70020	0.07021
3893.77163	0.06974
3891.84307	0.07054
3889.91450	0.07134
3887.98594	0.07119
3886.05737	0.07106
3884.12881	0.07159
3882.20024	0.07223
3880.27168	0.07250
3878.34312	0.07217
3876.41455	0.07198
3874.48599	0.07261
3872.55742	0.07341
3870.62886	0.07393
3868.70029	0.07410
3866.77173	0.07361
3864.84316	0.07379
3862.91460	0.07475
3860.98604	0.07477
3859.05747	0.07423
3857.12891	0.07427
3855.20034	0.07530
3853.27178	0.07757
3851.34321	0.07907
3849.41465	0.07801
3847.48608	0.07696
3845.55752	0.07699
3843.62896	0.07805
3841.70039	0.07982
3839.77183	0.08159
3837.84326	0.08275
3835.91470	0.08321
3833.98613	0.08337
3832.05757	0.08330
3830.12900	0.08318
3828.20044	0.08343
3826.27187	0.08413
3824.34331	0.08487
3822.41475	0.08578
3820.48618	0.08737
3818.55762	0.08868
3816.62905	0.08961
3814.70049	0.09025
3812.77192	0.08991
3810.84336	0.08976
3808.91479	0.09072
3806.98623	0.09265
3805.05767	0.09441
3803.12910	0.09569
3801.20054	0.09763
3799.27197	0.09910
3797.34341	0.09963
3795.41484	0.10057
3793.48628	0.10103
3791.55771	0.10105
3789.62915	0.10188
3787.70059	0.10353
3785.77202	0.10547
3783.84346	0.10726
3781.91489	0.10863
3779.98633	0.11010
3778.05776	0.11185
3776.12920	0.11305
3774.20063	0.11397
3772.27207	0.11544
3770.34351	0.11765
3768.41494	0.12017
3766.48638	0.12223
3764.55781	0.12415
3762.62925	0.12602
3760.70068	0.12807
3758.77212	0.13104
3756.84355	0.13415
3754.91499	0.13653
3752.98643	0.13923
3751.05786	0.14292
3749.12930	0.14642
3747.20073	0.14884
3745.27217	0.15160
3743.34360	0.15502
3741.41504	0.15742
3739.48647	0.15944
3737.55791	0.16262
3735.62935	0.16786
3733.70078	0.17413
3731.77222	0.17784
3729.84365	0.17992
3727.91509	0.18310
3725.98652	0.18837
3724.05796	0.19494
3722.12939	0.20161
3720.20083	0.20888
3718.27227	0.21697
3716.34370	0.22524
3714.41514	0.23335
3712.48657	0.24280
3710.55801	0.25561
3708.62944	0.26902
3706.70088	0.28011
3704.77231	0.29083
3702.84375	0.30392
3700.91519	0.32140
3698.98662	0.34008
3697.05806	0.35720
3695.12949	0.37551
3693.20093	0.39534
3691.27236	0.41708
3689.34380	0.44548
3687.41523	0.48042
3685.48667	0.51052
3683.55811	0.53641
3681.62954	0.56468
3679.70098	0.59655
3677.77241	0.62981
3675.84385	0.66927
3673.91528	0.72235
3671.98672	0.76569
3670.05815	0.80455
3668.12959	0.85772
3666.20103	0.90557
3664.27246	0.94524
3662.34390	0.98824
3660.41533	1.03534
3658.48677	1.08203
3656.55820	1.13134
3654.62964	1.18616
3652.70107	1.23273
3650.77251	1.27362
3648.84395	1.32966
3646.91538	1.39747
3644.98682	1.44679
3643.05825	1.48513
3641.12969	1.52490
3639.20112	1.56875
3637.27256	1.61300
3635.34399	1.65583
3633.41543	1.69804
3631.48687	1.73797
3629.55830	1.77908
3627.62974	1.83207
3625.70117	1.88196
3623.77261	1.91675
3621.84404	1.95001
3619.91548	1.98852
3617.98691	2.03565
3616.05835	2.08011
3614.12979	2.11717
3612.20122	2.15728
3610.27266	2.19747
3608.34409	2.23602
3606.41553	2.27560
3604.48696	2.31321
3602.55840	2.34881
3600.62983	2.38860
3598.70127	2.43178
3596.77271	2.47240
3594.84414	2.51224
3592.91558	2.55365
3590.98701	2.59319
3589.05845	2.63047
3587.12988	2.67454
3585.20132	2.72195
3583.27275	2.76213
3581.34419	2.80031
3579.41562	2.84166
3577.48706	2.88495
3575.55850	2.92794
3573.62993	2.97118
3571.70137	3.01300
3569.77280	3.05309
3567.84424	3.09555
3565.91567	3.14710
3563.98711	3.19821
3562.05854	3.24190
3560.12998	3.28544
3558.20142	3.32963
3556.27285	3.37435
3554.34429	3.41996
3552.41572	3.46710
3550.48716	3.51417
3548.55859	3.55960
3546.63003	3.60563
3544.70146	3.65553
3542.77290	3.70604
3540.84434	3.75342
3538.91577	3.79861
3536.98721	3.84114
3535.05864	3.88455
3533.13008	3.93208
3531.20151	3.98257
3529.27295	4.03400
3527.34438	4.08584
3525.41582	4.13410
3523.48726	4.17935
3521.55869	4.22950
3519.63013	4.28245
3517.70156	4.33218
3515.77300	4.37565
3513.84443	4.41595
3511.91587	4.46180
3509.98730	4.51618
3508.05874	4.57281
3506.13018	4.62535
3504.20161	4.67200
3502.27305	4.71590
3500.34448	4.76236
3498.41592	4.80987
3496.48735	4.85700
3494.55879	4.90653
3492.63022	4.96181
3490.70166	5.01789
3488.77310	5.06560
3486.84453	5.11202
3484.91597	5.16246
3482.98740	5.20570
3481.05884	5.25023
3479.13027	5.30631
3477.20171	5.35707
3475.27314	5.40299
3473.34458	5.45888
3471.41602	5.51621
3469.48745	5.55682
3467.55889	5.58406
3465.63032	5.62056
3463.70176	5.67376
3461.77319	5.73237
3459.84463	5.79346
3457.91606	5.85233
3455.98750	5.90601
3454.05894	5.96156
3452.13037	6.02055
3450.20181	6.07579
3448.27324	6.12229
3446.34468	6.17360
3444.41611	6.23145
3442.48755	6.27665
3440.55898	6.31762
3438.63042	6.36932
3436.70186	6.41160
3434.77329	6.45301
3432.84473	6.51333
3430.91616	6.56269
3428.98760	6.59555
3427.05903	6.64177
3425.13047	6.70500
3423.20190	6.77361
3421.27334	6.86181
3419.34478	6.94210
3417.41621	6.98665
3415.48765	7.03151
3413.55908	7.07740
3411.63052	7.12955
3409.70195	7.20002
3407.77339	7.24798
3405.84482	7.25046
3403.91626	7.27440
3401.98770	7.33857
3400.05913	7.39030
3398.13057	7.41309
3396.20200	7.44003
3394.27344	7.48987
3392.34487	7.52926
3390.41631	7.60038
3388.48774	7.70220
3386.55918	7.75405
3384.63062	7.75590
3382.70205	7.73572
3380.77349	7.72130
3378.84492	7.74601
3376.91636	7.82875
3374.98779	7.93201
3373.05923	7.99194
3371.13066	8.00375
3369.20210	8.04042
3367.27354	8.13673
3365.34497	8.23604
3363.41641	8.26139
3361.48784	8.23445
3359.55928	8.20299
3357.63071	8.16373
3355.70215	8.14346
3353.77358	8.15884
3351.84502	8.22598
3349.91646	8.30934
3347.98789	8.36164
3346.05933	8.33963
3344.13076	8.24919
3342.20220	8.23160
3340.27363	8.32604
3338.34507	8.42718
3336.41650	8.45910
3334.48794	8.46721
3332.55937	8.47359
3330.63081	8.47351
3328.70225	8.49399
3326.77368	8.53688
3324.84512	8.52635
3322.91655	8.44711
3320.98799	8.40128
3319.05942	8.41478
3317.13086	8.48059
3315.20229	8.54468
3313.27373	8.58829
3311.34517	8.63941
3309.41660	8.66766
3307.48804	8.68569
3305.55947	8.74930
3303.63091	8.79338
3301.70234	8.70352
3299.77378	8.57065
3297.84521	8.48292
3295.91665	8.47223
3293.98809	8.53702
3292.05952	8.67154
3290.13096	8.80148
3288.20239	8.82375
3286.27383	8.85130
3284.34526	8.92530
3282.41670	8.98149
3280.48813	8.89726
3278.55957	8.63744
3276.63101	8.41607
3274.70244	8.38496
3272.77388	8.46691
3270.84531	8.49006
3268.91675	8.46159
3266.98818	8.44376
3265.05962	8.42213
3263.13105	8.41835
3261.20249	8.47089
3259.27393	8.48158
3257.34536	8.42480
3255.41680	8.44621
3253.48823	8.58952
3251.55967	8.74869
3249.63110	8.79390
3247.70254	8.74931
3245.77397	8.64176
3243.84541	8.48149
3241.91685	8.35945
3239.98828	8.37181
3238.05972	8.51298
3236.13115	8.62424
3234.20259	8.60177
3232.27402	8.53584
3230.34546	8.52616
3228.41689	8.53430
3226.48833	8.50158
3224.55977	8.40912
3222.63120	8.28813
3220.70264	8.29444
3218.77407	8.41368
3216.84551	8.46290
3214.91694	8.46119
3212.98838	8.44593
3211.05981	8.37924
3209.13125	8.31263
3207.20269	8.28363
3205.27412	8.25838
3203.34556	8.20234
3201.41699	8.13442
3199.48843	8.07302
3197.55986	7.99849
3195.63130	7.92137
3193.70273	7.90482
3191.77417	7.92410
3189.84561	7.85379
3187.91704	7.68270
3185.98848	7.53419
3184.05991	7.49094
3182.13135	7.52625
3180.20278	7.55140
3178.27422	7.53399
3176.34565	7.48718
3174.41709	7.40403
3172.48853	7.31874
3170.55996	7.25674
3168.63140	7.19878
3166.70283	7.13680
3164.77427	7.06637
3162.84570	6.98585
3160.91714	6.90502
3158.98857	6.84903
3157.06001	6.81251
3155.13145	6.75419
3153.20288	6.66549
3151.27432	6.56274
3149.34575	6.46694
3147.41719	6.38656
3145.48862	6.30977
3143.56006	6.23631
3141.63149	6.16492
3139.70293	6.09537
3137.77437	6.03756
3135.84580	5.97683
3133.91724	5.89690
3131.98867	5.80644
3130.06011	5.71697
3128.13154	5.63366
3126.20298	5.56235
3124.27441	5.49922
3122.34585	5.42859
3120.41729	5.35491
3118.48872	5.28648
3116.56016	5.21285
3114.63159	5.13141
3112.70303	5.05232
3110.77446	4.97933
3108.84590	4.91055
3106.91733	4.84556
3104.98877	4.78023
3103.06021	4.71027
3101.13164	4.63646
3099.20308	4.56350
3097.27451	4.49558
3095.34595	4.42850
3093.41738	4.35776
3091.48882	4.28924
3089.56025	4.22645
3087.63169	4.16454
3085.70312	4.10045
3083.77456	4.03533
3081.84600	3.97220
3079.91743	3.91087
3077.98887	3.84894
3076.06030	3.78649
3074.13174	3.72519
3072.20317	3.66642
3070.27461	3.60925
3068.34604	3.55125
3066.41748	3.49161
3064.48892	3.43304
3062.56035	3.37691
3060.63179	3.32171
3058.70322	3.26691
3056.77466	3.21204
3054.84609	3.15753
3052.91753	3.10507
3050.98896	3.05415
3049.06040	3.00333
3047.13184	2.95252
3045.20327	2.90231
3043.27471	2.85283
3041.34614	2.80364
3039.41758	2.75532
3037.48901	2.70857
3035.56045	2.66261
3033.63188	2.61673
3031.70332	2.57049
3029.77476	2.52415
3027.84619	2.47934
3025.91763	2.43630
3023.98906	2.39397
3022.06050	2.35218
3020.13193	2.31095
3018.20337	2.27003
3016.27480	2.22913
3014.34624	2.18828
3012.41768	2.14874
3010.48911	2.11076
3008.56055	2.07367
3006.63198	2.03763
3004.70342	2.00211
3002.77485	1.96674
3000.84629	1.93231
2998.91772	1.89895
2996.98916	1.86577
2995.06060	1.83238
2993.13203	1.79915
2991.20347	1.76650
2989.27490	1.73507
2987.34634	1.70520
2985.41777	1.67642
2983.48921	1.64786
2981.56064	1.61892
2979.63208	1.58978
2977.70352	1.56121
2975.77495	1.53361
2973.84639	1.50634
2971.91782	1.47896
2969.98926	1.45233
2968.06069	1.42677
2966.13213	1.40143
2964.20356	1.37601
2962.27500	1.35106
2960.34644	1.32678
2958.41787	1.30280
2956.48931	1.27879
2954.56074	1.25509
2952.63218	1.23208
2950.70361	1.20946
2948.77505	1.18715
2946.84648	1.16541
2944.91792	1.14391
2942.98936	1.12248
2941.06079	1.10141
2939.13223	1.08031
2937.20366	1.05881
2935.27510	1.03748
2933.34653	1.01657
2931.41797	0.99557
2929.48940	0.97494
2927.56084	0.95568
2925.63228	0.93748
2923.70371	0.92004
2921.77515	0.90410
2919.84658	0.88956
2917.91802	0.87523
2915.98945	0.86088
2914.06089	0.84697
2912.13232	0.83297
2910.20376	0.81843
2908.27520	0.80399
2906.34663	0.79027
2904.41807	0.77696
2902.48950	0.76385
2900.56094	0.75091
2898.63237	0.73816
2896.70381	0.72579
2894.77524	0.71401
2892.84668	0.70269
2890.91812	0.69128
2888.98955	0.67970
2887.06099	0.66841
2885.13242	0.65756
2883.20386	0.64684
2881.27529	0.63617
2879.34673	0.62588
2877.41816	0.61590
2875.48960	0.60593
2873.56104	0.59590
2871.63247	0.58570
2869.70391	0.57532
2867.77534	0.56483
2865.84678	0.55415
2863.91821	0.54332
2861.98965	0.53235
2860.06108	0.52132
2858.13252	0.51053
2856.20396	0.50038
2854.27539	0.49136
2852.34683	0.48353
2850.41826	0.47658
2848.48970	0.46993
2846.56113	0.46322
2844.63257	0.45673
2842.70400	0.45060
2840.77544	0.44464
2838.84687	0.43878
2836.91831	0.43302
2834.98975	0.42736
2833.06118	0.42173
2831.13262	0.41582
2829.20405	0.40970
2827.27549	0.40383
2825.34692	0.39817
2823.41836	0.39238
2821.48979	0.38653
2819.56123	0.38089
2817.63267	0.37538
2815.70410	0.36993
2813.77554	0.36466
2811.84697	0.35951
2809.91841	0.35432
2807.98984	0.34907
2806.06128	0.34386
2804.13271	0.33880
2802.20415	0.33395
2800.27559	0.32929
2798.34702	0.32463
2796.41846	0.31994
2794.48989	0.31538
2792.56133	0.31092
2790.63276	0.30655
2788.70420	0.30228
2786.77563	0.29818
2784.84707	0.29422
2782.91851	0.29020
2780.98994	0.28614
2779.06138	0.28221
2777.13281	0.27835
2775.20425	0.27459
2773.27568	0.27109
2771.34712	0.26771
2769.41855	0.26428
2767.48999	0.26086
2765.56143	0.25734
2763.63286	0.25385
2761.70430	0.25073
2759.77573	0.24795
2757.84717	0.24507
2755.91860	0.24191
2753.99004	0.23878
2752.06147	0.23591
2750.13291	0.23327
2748.20435	0.23062
2746.27578	0.22783
2744.34722	0.22502
2742.41865	0.22237
2740.49009	0.21997
2738.56152	0.21756
2736.63296	0.21501
2734.70439	0.21270
2732.77583	0.21075
2730.84727	0.20876
2728.91870	0.20645
2726.99014	0.20407
2725.06157	0.20190
2723.13301	0.20001
2721.20444	0.19816
2719.27588	0.19621
2717.34731	0.19430
2715.41875	0.19247
2713.49019	0.19075
2711.56162	0.18906
2709.63306	0.18735
2707.70449	0.18576
2705.77593	0.18424
2703.84736	0.18263
2701.91880	0.18100
2699.99023	0.17938
2698.06167	0.17779
2696.13311	0.17645
2694.20454	0.17535
2692.27598	0.17423
2690.34741	0.17293
2688.41885	0.17158
2686.49028	0.17039
2684.56172	0.16936
2682.63315	0.16830
2680.70459	0.16710
2678.77603	0.16580
2676.84746	0.16456
2674.91890	0.16342
2672.99033	0.16228
2671.06177	0.16123
2669.13320	0.16037
2667.20464	0.15960
2665.27607	0.15880
2663.34751	0.15796
2661.41895	0.15719
2659.49038	0.15646
2657.56182	0.15563
2655.63325	0.15479
2653.70469	0.15407
2651.77612	0.15342
2649.84756	0.15286
2647.91899	0.15244
2645.99043	0.15194
2644.06187	0.15124
2642.13330	0.15061
2640.20474	0.15016
2638.27617	0.14972
2636.34761	0.14925
2634.41904	0.14887
2632.49048	0.14860
2630.56191	0.14823
2628.63335	0.14780
2626.70479	0.14755
2624.77622	0.14742
2622.84766	0.14719
2620.91909	0.14688
2618.99053	0.14654
2617.06196	0.14620
2615.13340	0.14602
2613.20483	0.14601
2611.27627	0.14604
2609.34771	0.14605
2607.41914	0.14600
2605.49058	0.14591
2603.56201	0.14582
2601.63345	0.14586
2599.70488	0.14605
2597.77632	0.14625
2595.84775	0.14639
2593.91919	0.14647
2591.99062	0.14655
2590.06206	0.14668
2588.13350	0.14684
2586.20493	0.14699
2584.27637	0.14721
2582.34780	0.14758
2580.41924	0.14793
2578.49067	0.14818
2576.56211	0.14852
2574.63354	0.14894
2572.70498	0.14934
2570.77642	0.14969
2568.84785	0.14999
2566.91929	0.15030
2564.99072	0.15061
2563.06216	0.15100
2561.13359	0.15151
2559.20503	0.15213
2557.27646	0.15276
2555.34790	0.15327
2553.41934	0.15381
2551.49077	0.15446
2549.56221	0.15504
2547.63364	0.15558
2545.70508	0.15614
2543.77651	0.15661
2541.84795	0.15718
2539.91938	0.15796
2537.99082	0.15875
2536.06226	0.15943
2534.13369	0.16009
2532.20513	0.16085
2530.27656	0.16169
2528.34800	0.16251
2526.41943	0.16336
2524.49087	0.16413
2522.56230	0.16476
2520.63374	0.16540
2518.70518	0.16611
2516.77661	0.16685
2514.84805	0.16762
2512.91948	0.16848
2510.99092	0.16943
2509.06235	0.17032
2507.13379	0.17105
2505.20522	0.17165
2503.27666	0.17249
2501.34810	0.17362
2499.41953	0.17461
2497.49097	0.17538
2495.56240	0.17621
2493.63384	0.17712
2491.70527	0.17803
2489.77671	0.17893
2487.84814	0.17968
2485.91958	0.18041
2483.99102	0.18145
2482.06245	0.18262
2480.13389	0.18365
2478.20532	0.18446
2476.27676	0.18507
2474.34819	0.18577
2472.41963	0.18678
2470.49106	0.18790
2468.56250	0.18895
2466.63394	0.18986
2464.70537	0.19066
2462.77681	0.19150
2460.84824	0.19245
2458.91968	0.19349
2456.99111	0.19459
2455.06255	0.19568
2453.13398	0.19665
2451.20542	0.19758
2449.27686	0.19860
2447.34829	0.19960
2445.41973	0.20045
2443.49116	0.20141
2441.56260	0.20264
2439.63403	0.20388
2437.70547	0.20502
2435.77690	0.20608
2433.84834	0.20705
2431.91978	0.20803
2429.99121	0.20910
2428.06265	0.21016
2426.13408	0.21119
2424.20552	0.21219
2422.27695	0.21321
2420.34839	0.21428
2418.41982	0.21537
2416.49126	0.21652
2414.56270	0.21780
2412.63413	0.21901
2410.70557	0.22011
2408.77700	0.22128
2406.84844	0.22252
2404.91987	0.22379
2402.99131	0.22502
2401.06274	0.22615
2399.13418	0.22725
2397.20562	0.22840
2395.27705	0.22968
2393.34849	0.23109
2391.41992	0.23242
2389.49136	0.23348
2387.56279	0.23423
2385.63423	0.23455
2383.70566	0.23435
2381.77710	0.23367
2379.84854	0.23247
2377.91997	0.23088
2375.99141	0.22914
2374.06284	0.22700
2372.13428	0.22396
2370.20571	0.22040
2368.27715	0.21720
2366.34858	0.21437
2364.42002	0.21195
2362.49146	0.21113
2360.56289	0.21213
2358.63433	0.21374
2356.70576	0.21667
2354.77720	0.22246
2352.84863	0.23020
2350.92007	0.23733
2348.99150	0.24146
2347.06294	0.24200
2345.13437	0.23977
2343.20581	0.23761
2341.27725	0.23846
2339.34868	0.24128
2337.42012	0.24393
2335.49155	0.24594
2333.56299	0.24799
2331.63442	0.25017
2329.70586	0.25233
2327.77729	0.25480
2325.84873	0.25783
2323.92017	0.26134
2321.99160	0.26506
2320.06304	0.26888
2318.13447	0.27280
2316.20591	0.27648
2314.27734	0.27967
2312.34878	0.28247
2310.42021	0.28521
2308.49165	0.28819
2306.56309	0.29144
2304.63452	0.29458
2302.70596	0.29730
2300.77739	0.29978
2298.84883	0.30228
2296.92026	0.30492
2294.99170	0.30763
2293.06313	0.31026
2291.13457	0.31280
2289.20601	0.31534
2287.27744	0.31785
2285.34888	0.32023
2283.42031	0.32251
2281.49175	0.32467
2279.56318	0.32670
2277.63462	0.32872
2275.70605	0.33071
2273.77749	0.33268
2271.84893	0.33468
2269.92036	0.33675
2267.99180	0.33890
2266.06323	0.34112
2264.13467	0.34332
2262.20610	0.34548
2260.27754	0.34766
2258.34897	0.34997
2256.42041	0.35235
2254.49185	0.35471
2252.56328	0.35697
2250.63472	0.35909
2248.70615	0.36125
2246.77759	0.36351
2244.84902	0.36582
2242.92046	0.36816
2240.99189	0.37044
2239.06333	0.37260
2237.13477	0.37482
2235.20620	0.37708
2233.27764	0.37934
2231.34907	0.38165
2229.42051	0.38400
2227.49194	0.38626
2225.56338	0.38848
2223.63481	0.39068
2221.70625	0.39282
2219.77769	0.39497
2217.84912	0.39718
2215.92056	0.39950
2213.99199	0.40181
2212.06343	0.40395
2210.13486	0.40605
2208.20630	0.40825
2206.27773	0.41042
2204.34917	0.41250
2202.42061	0.41458
2200.49204	0.41654
2198.56348	0.41840
2196.63491	0.42028
2194.70635	0.42221
2192.77778	0.42420
2190.84922	0.42617
2188.92065	0.42802
2186.99209	0.42983
2185.06353	0.43167
2183.13496	0.43344
2181.20640	0.43510
2179.27783	0.43671
2177.34927	0.43830
2175.42070	0.43991
2173.49214	0.44157
2171.56357	0.44308
2169.63501	0.44442
2167.70645	0.44573
2165.77788	0.44703
2163.84932	0.44829
2161.92075	0.44946
2159.99219	0.45047
2158.06362	0.45144
2156.13506	0.45246
2154.20649	0.45338
2152.27793	0.45420
2150.34937	0.45494
2148.42080	0.45559
2146.49224	0.45617
2144.56367	0.45663
2142.63511	0.45703
2140.70654	0.45737
2138.77798	0.45762
2136.84941	0.45779
2134.92085	0.45786
2132.99229	0.45788
2131.06372	0.45787
2129.13516	0.45769
2127.20659	0.45736
2125.27803	0.45705
2123.34946	0.45668
2121.42090	0.45617
2119.49233	0.45557
2117.56377	0.45504
2115.63521	0.45446
2113.70664	0.45361
2111.77808	0.45266
2109.84951	0.45172
2107.92095	0.45070
2105.99238	0.44958
2104.06382	0.44844
2102.13525	0.44726
2100.20669	0.44595
2098.27812	0.44447
2096.34956	0.44284
2094.42100	0.44118
2092.49243	0.43965
2090.56387	0.43816
2088.63530	0.43645
2086.70674	0.43454
2084.77817	0.43258
2082.84961	0.43073
2080.92104	0.42893
2078.99248	0.42697
2077.06392	0.42479
2075.13535	0.42256
2073.20679	0.42031
2071.27822	0.41796
2069.34966	0.41571
2067.42109	0.41366
2065.49253	0.41151
2063.56396	0.40898
2061.63540	0.40634
2059.70684	0.40387
2057.77827	0.40155
2055.84971	0.39923
2053.92114	0.39677
2051.99258	0.39413
2050.06401	0.39144
2048.13545	0.38884
2046.20688	0.38615
2044.27832	0.38337
2042.34976	0.38065
2040.42119	0.37791
2038.49263	0.37505
2036.56406	0.37226
2034.63550	0.36957
2032.70693	0.36685
2030.77837	0.36412
2028.84980	0.36130
2026.92124	0.35846
2024.99268	0.35572
2023.06411	0.35308
2021.13555	0.35044
2019.20698	0.34779
2017.27842	0.34504
2015.34985	0.34209
2013.42129	0.33911
2011.49272	0.33631
2009.56416	0.33366
2007.63560	0.33106
2005.70703	0.32844
2003.77847	0.32575
2001.84990	0.32299
1999.92134	0.32028
1997.99277	0.31770
1996.06421	0.31525
1994.13564	0.31289
1992.20708	0.31048
1990.27852	0.30782
1988.34995	0.30513
1986.42139	0.30258
1984.49282	0.30011
1982.56426	0.29769
1980.63569	0.29534
1978.70713	0.29309
1976.77856	0.29087
1974.85000	0.28862
1972.92144	0.28634
1970.99287	0.28414
1969.06431	0.28215
1967.13574	0.28028
1965.20718	0.27826
1963.27861	0.27621
1961.35005	0.27431
1959.42148	0.27250
1957.49292	0.27069
1955.56436	0.26887
1953.63579	0.26708
1951.70723	0.26536
1949.77866	0.26380
1947.85010	0.26232
1945.92153	0.26082
1943.99297	0.25944
1942.06440	0.25802
1940.13584	0.25634
1938.20728	0.25474
1936.27871	0.25337
1934.35015	0.25206
1932.42158	0.25077
1930.49302	0.24957
1928.56445	0.24849
1926.63589	0.24750
1924.70732	0.24666
1922.77876	0.24581
1920.85020	0.24480
1918.92163	0.24384
1916.99307	0.24286
1915.06450	0.24173
1913.13594	0.24081
1911.20737	0.24026
1909.27881	0.23973
1907.35024	0.23900
1905.42168	0.23822
1903.49312	0.23757
1901.56455	0.23702
1899.63599	0.23651
1897.70742	0.23605
1895.77886	0.23566
1893.85029	0.23530
1891.92173	0.23495
1889.99316	0.23479
1888.06460	0.23456
1886.13604	0.23417
1884.20747	0.23392
1882.27891	0.23376
1880.35034	0.23358
1878.42178	0.23346
1876.49321	0.23350
1874.56465	0.23354
1872.63608	0.23365
1870.70752	0.23406
1868.77896	0.23480
1866.85039	0.23513
1864.92183	0.23487
1862.99326	0.23466
1861.06470	0.23476
1859.13613	0.23509
1857.20757	0.23543
1855.27900	0.23582
1853.35044	0.23627
1851.42187	0.23685
1849.49331	0.23759
1847.56475	0.23850
1845.63618	0.23958
1843.70762	0.24062
1841.77905	0.24115
1839.85049	0.24141
1837.92192	0.24215
1835.99336	0.24316
1834.06479	0.24415
1832.13623	0.24518
1830.20767	0.24672
1828.27910	0.24842
1826.35054	0.24955
1824.42197	0.25060
1822.49341	0.25160
1820.56484	0.25272
1818.63628	0.25408
1816.70771	0.25564
1814.77915	0.25720
1812.85059	0.25900
1810.92202	0.26122
1808.99346	0.26342
1807.06489	0.26533
1805.13633	0.26717
1803.20776	0.26942
1801.27920	0.27211
1799.35063	0.27503
1797.42207	0.27755
1795.49351	0.27988
1793.56494	0.28268
1791.63638	0.28634
1789.70781	0.28971
1787.77925	0.29216
1785.85068	0.29520
1783.92212	0.29894
1781.99355	0.30298
1780.06499	0.30720
1778.13643	0.31147
1776.20786	0.31551
1774.27930	0.32000
1772.35073	0.32604
1770.42217	0.33228
1768.49360	0.33734
1766.56504	0.34231
1764.63647	0.34756
1762.70791	0.35341
1760.77935	0.36075
1758.85078	0.36762
1756.92222	0.37449
1754.99365	0.38192
1753.06509	0.38871
1751.13652	0.39688
1749.20796	0.40723
1747.27939	0.41750
1745.35083	0.42658
1743.42227	0.43615
1741.49370	0.44672
1739.56514	0.45934
1737.63657	0.47211
1735.70801	0.48339
1733.77944	0.50020
1731.85088	0.51990
1729.92231	0.53535
1727.99375	0.55122
1726.06519	0.56830
1724.13662	0.58675
1722.20806	0.60658
1720.27949	0.62504
1718.35093	0.64700
1716.42236	0.67952
1714.49380	0.71015
1712.56523	0.73459
1710.63667	0.75832
1708.70811	0.78420
1706.77954	0.81376
1704.85098	0.84878
1702.92241	0.87975
1700.99385	0.91034
1699.06528	0.95631
1697.13672	0.99886
1695.20815	1.04213
1693.27959	1.08380
1691.35103	1.11727
1689.42246	1.15620
1687.49390	1.19739
1685.56533	1.23706
1683.63677	1.29797
1681.70820	1.36098
1679.77964	1.40145
1677.85107	1.44007
1675.92251	1.48455
1673.99395	1.53955
1672.06538	1.58803
1670.13682	1.63542
1668.20825	1.69719
1666.27969	1.74736
1664.35112	1.79033
1662.42256	1.84411
1660.49399	1.90357
1658.56543	1.94912
1656.63687	1.98608
1654.70830	2.02146
1652.77974	2.07835
1650.85117	2.13203
1648.92261	2.15329
1646.99404	2.18104
1645.06548	2.20967
1643.13691	2.22711
1641.20835	2.23769
1639.27979	2.24827
1637.35122	2.25637
1635.42266	2.25814
1633.49409	2.25132
1631.56553	2.23947
1629.63696	2.22503
1627.70840	2.19924
1625.77983	2.16842
1623.85127	2.12970
1621.92271	2.08115
1619.99414	2.03714
1618.06558	1.99391
1616.13701	1.93192
1614.20845	1.86896
1612.27988	1.82168
1610.35132	1.77270
1608.42275	1.71896
1606.49419	1.66509
1604.56562	1.61574
1602.63706	1.56864
1600.70850	1.52226
1598.77993	1.47928
1596.85137	1.43895
1594.92280	1.39966
1592.99424	1.36130
1591.06567	1.32561
1589.13711	1.29184
1587.20854	1.26045
1585.27998	1.23137
1583.35142	1.20393
1581.42285	1.17864
1579.49429	1.15690
1577.56572	1.13745
1575.63716	1.11399
1573.70859	1.09296
1571.78003	1.07897
1569.85146	1.06448
1567.92290	1.04824
1565.99434	1.03558
1564.06577	1.02539
1562.13721	1.01727
1560.20864	1.01144
1558.28008	1.00303
1556.35151	0.99476
1554.42295	0.98948
1552.49438	0.98437
1550.56582	0.97863
1548.63726	0.97163
1546.70869	0.96415
1544.78013	0.95582
1542.85156	0.94563
1540.92300	0.93171
1538.99443	0.91054
1537.06587	0.89464
1535.13730	0.88404
1533.20874	0.87052
1531.28018	0.85588
1529.35161	0.84516
1527.42305	0.83547
1525.49448	0.82561
1523.56592	0.81682
1521.63735	0.80774
1519.70879	0.79804
1517.78022	0.79007
1515.85166	0.78174
1513.92310	0.77320
1511.99453	0.76569
1510.06597	0.75905
1508.13740	0.75301
1506.20884	0.74328
1504.28027	0.73398
1502.35171	0.72864
1500.42314	0.72420
1498.49458	0.71978
1496.56602	0.71462
1494.63745	0.70898
1492.70889	0.70448
1490.78032	0.70102
1488.85176	0.69741
1486.92319	0.69352
1484.99463	0.68986
1483.06606	0.68686
1481.13750	0.68441
1479.20894	0.68241
1477.28037	0.68120
1475.35181	0.68065
1473.42324	0.68010
1471.49468	0.67814
1469.56611	0.67510
1467.63755	0.67245
1465.70898	0.67036
1463.78042	0.66841
1461.85186	0.66685
1459.92329	0.66615
1457.99473	0.66581
1456.06616	0.66403
1454.13760	0.66085
1452.20903	0.65803
1450.28047	0.65555
1448.35190	0.65319
1446.42334	0.65067
1444.49478	0.64829
1442.56621	0.64619
1440.63765	0.64416
1438.70908	0.64227
1436.78052	0.64004
1434.85195	0.63726
1432.92339	0.63491
1430.99482	0.63329
1429.06626	0.63204
1427.13770	0.63103
1425.20913	0.63038
1423.28057	0.63004
1421.35200	0.62978
1419.42344	0.62955
1417.49487	0.62882
1415.56631	0.62711
1413.63774	0.62536
1411.70918	0.62415
1409.78062	0.62358
1407.85205	0.62345
1405.92349	0.62346
1403.99492	0.62317
1402.06636	0.62238
1400.13779	0.62145
1398.20923	0.62026
1396.28066	0.61847
1394.35210	0.61592
1392.42354	0.61294
1390.49497	0.61019
1388.56641	0.60763
1386.63784	0.60477
1384.70928	0.60160
1382.78071	0.59854
1380.85215	0.59578
1378.92358	0.59352
1376.99502	0.59191
1375.06646	0.59084
1373.13789	0.58999
1371.20933	0.58918
1369.28076	0.58849
1367.35220	0.58763
1365.42363	0.58648
1363.49507	0.58522
1361.56650	0.58382
1359.63794	0.58232
1357.70937	0.58102
1355.78081	0.57988
1353.85225	0.57879
1351.92368	0.57785
1349.99512	0.57707
1348.06655	0.57626
1346.13799	0.57533
1344.20942	0.57434
1342.28086	0.57345
1340.35229	0.57272
1338.42373	0.57197
1336.49517	0.57117
1334.56660	0.57043
1332.63804	0.56977
1330.70947	0.56931
1328.78091	0.56908
1326.85234	0.56892
1324.92378	0.56876
1322.99521	0.56872
1321.06665	0.56877
1319.13809	0.56874
1317.20952	0.56838
1315.28096	0.56775
1313.35239	0.56708
1311.42383	0.56629
1309.49526	0.56544
1307.56670	0.56468
1305.63813	0.56386
1303.70957	0.56287
1301.78101	0.56189
1299.85244	0.56105
1297.92388	0.56023
1295.99531	0.55924
1294.06675	0.55823
1292.13818	0.55734
1290.20962	0.55635
1288.28105	0.55515
1286.35249	0.55399
1284.42393	0.55315
1282.49536	0.55251
1280.56680	0.55175
1278.63823	0.55074
1276.70967	0.54974
1274.78110	0.54888
1272.85254	0.54822
1270.92397	0.54764
1268.99541	0.54693
1267.06685	0.54615
1265.13828	0.54554
1263.20972	0.54500
1261.28115	0.54438
1259.35259	0.54386
1257.42402	0.54352
1255.49546	0.54318
1253.56689	0.54280
1251.63833	0.54261
1249.70977	0.54252
1247.78120	0.54221
1245.85264	0.54171
1243.92407	0.54120
1241.99551	0.54067
1240.06694	0.53993
1238.13838	0.53879
1236.20981	0.53740
1234.28125	0.53612
1232.35269	0.53490
1230.42412	0.53359
1228.49556	0.53227
1226.56699	0.53101
1224.63843	0.52990
1222.70986	0.52888
1220.78130	0.52770
1218.85273	0.52640
1216.92417	0.52528
1214.99561	0.52442
1213.06704	0.52367
1211.13848	0.52294
1209.20991	0.52231
1207.28135	0.52176
1205.35278	0.52113
1203.42422	0.52040
1201.49565	0.51977
1199.56709	0.51921
1197.63853	0.51861
1195.70996	0.51799
1193.78140	0.51732
1191.85283	0.51661
1189.92427	0.51607
1187.99570	0.51573
1186.06714	0.51549
1184.13857	0.51540
1182.21001	0.51550
1180.28145	0.51578
1178.35288	0.51638
1176.42432	0.51743
1174.49575	0.51862
1172.56719	0.51961
1170.63862	0.52028
1168.71006	0.52061
1166.78149	0.52076
1164.85293	0.52100
1162.92437	0.52142
1160.99580	0.52184
1159.06724	0.52202
1157.13867	0.52176
1155.21011	0.52103
1153.28154	0.51988
1151.35298	0.51835
1149.42441	0.51643
1147.49585	0.51410
1145.56729	0.51138
1143.63872	0.50864
1141.71016	0.50618
1139.78159	0.50404
1137.85303	0.50234
1135.92446	0.50120
1133.99590	0.50035
1132.06733	0.49959
1130.13877	0.49899
1128.21021	0.49850
1126.28164	0.49787
1124.35308	0.49706
1122.42451	0.49624
1120.49595	0.49565
1118.56738	0.49532
1116.63882	0.49518
1114.71025	0.49538
1112.78169	0.49599
1110.85312	0.49681
1108.92456	0.49772
1106.99600	0.49883
1105.06743	0.49993
1103.13887	0.50078
1101.21030	0.50179
1099.28174	0.50336
1097.35317	0.50542
1095.42461	0.50805
1093.49604	0.51156
1091.56748	0.51624
1089.63892	0.52231
1087.71035	0.52959
1085.78179	0.53755
1083.85322	0.54567
1081.92466	0.55306
1079.99609	0.55855
1078.06753	0.56163
1076.13896	0.56186
1074.21040	0.55898
1072.28184	0.55358
1070.35327	0.54672
1068.42471	0.53963
1066.49614	0.53317
1064.56758	0.52723
1062.63901	0.52168
1060.71045	0.51679
1058.78188	0.51259
1056.85332	0.50890
1054.92476	0.50555
1052.99619	0.50269
1051.06763	0.50064
1049.13906	0.49928
1047.21050	0.49846
1045.28193	0.49831
1043.35337	0.49858
1041.42480	0.49884
1039.49624	0.49880
1037.56768	0.49853
1035.63911	0.49822
1033.71055	0.49787
1031.78198	0.49722
1029.85342	0.49608
1027.92485	0.49460
1025.99629	0.49328
1024.06772	0.49234
1022.13916	0.49166
1020.21060	0.49130
1018.28203	0.49149
1016.35347	0.49206
1014.42490	0.49250
1012.49634	0.49260
1010.56777	0.49270
1008.63921	0.49309
1006.71064	0.49370
1004.78208	0.49464
1002.85352	0.49622
1000.92495	0.49872
998.99639	0.50216
997.06782	0.50624
995.13926	0.51060
993.21069	0.51467
991.28213	0.51796
989.35356	0.52024
987.42500	0.52128
985.49644	0.52132
983.56787	0.52128
981.63931	0.52188
979.71074	0.52316
977.78218	0.52472
975.85361	0.52661
973.92505	0.52924
971.99648	0.53244
970.06792	0.53582
968.13936	0.53947
966.21079	0.54349
964.28223	0.54782
962.35366	0.55248
960.42510	0.55772
958.49653	0.56350
956.56797	0.56940
954.63940	0.57532
952.71084	0.58146
950.78228	0.58776
948.85371	0.59419
946.92515	0.60081
944.99658	0.60735
943.06802	0.61363
941.13945	0.61972
939.21089	0.62547
937.28232	0.63106
935.35376	0.63700
933.42520	0.64312
931.49663	0.64905
929.56807	0.65462
927.63950	0.65986
925.71094	0.66555
923.78237	0.67222
921.85381	0.67898
919.92524	0.68535
917.99668	0.69240
916.06812	0.70064
914.13955	0.70924
912.21099	0.71737
910.28242	0.72497
908.35386	0.73280
906.42529	0.74157
904.49673	0.75107
902.56816	0.76017
900.63960	0.76859
898.71104	0.77729
896.78247	0.78671
894.85391	0.79741
892.92534	0.80937
890.99678	0.82021
889.06821	0.82933
887.13965	0.83950
885.21108	0.85165
883.28252	0.86421
881.35396	0.87603
879.42539	0.88725
877.49683	0.89907
875.56826	0.91178
873.63970	0.92348
871.71113	0.93399
869.78257	0.94596
867.85400	0.95927
865.92544	0.97131
863.99687	0.98228
862.06831	0.99402
860.13975	1.00591
858.21118	1.01730
856.28262	1.02912
854.35405	1.04105
852.42549	1.05250
850.49692	1.06430
848.56836	1.07772
846.63979	1.09175
844.71123	1.10334
842.78267	1.11346
840.85410	1.12602
838.92554	1.13994
836.99697	1.15112
835.06841	1.16022
833.13984	1.17194
831.21128	1.18830
829.28271	1.20545
827.35415	1.21873
825.42559	1.23089
823.49702	1.24653
821.56846	1.26534
819.63989	1.28453
817.71133	1.29913
815.78276	1.31247
813.85420	1.33080
811.92563	1.35515
809.99707	1.38230
808.06851	1.39142
806.13994	1.38335
804.21138	1.39397
802.28281	1.43703
800.35425	1.48501
798.42568	1.50118
796.49712	1.50735
794.56855	1.53515
792.63999	1.56118
790.71143	1.61145
788.78286	1.73751
786.85430	1.79177
784.92573	1.66647
782.99717	1.64385
781.06860	1.81491
779.14004	2.15614
777.21147	1.95142
775.28291	1.74171
773.35435	1.65370
771.42578	1.54449
769.49722	1.45843
767.56865	1.41550
765.64009	1.40888
763.71152	1.44422
761.78296	1.43630
759.85439	1.33138
757.92583	1.24166
755.99727	1.18493
754.06870	1.14874
752.14014	1.14296
750.21157	1.08962
748.28301	0.96340
746.35444	0.91330
744.42588	0.97694
742.49731	0.98137
740.56875	0.85981
738.64019	0.76497
736.71162	0.70158
734.78306	0.66148
732.85449	0.61704
730.92593	0.51717
728.99736	0.40535
727.06880	0.30603
725.14023	0.07381
723.21167	-0.27669
721.28311	-0.86734
719.35454	-0.71576
717.42598	-0.52219
715.49741	-0.54458
713.56885	-0.29734
711.64028	0.02741
709.71172	0.22096
707.78315	0.26363
705.85459	0.28983
703.92603	0.31297
701.99746	0.36695
700.06890	0.42856
698.14033	0.38490
696.21177	0.31545
694.28320	0.33216
692.35464	0.39280
690.42607	0.33129
688.49751	0.24196
686.56895	0.22816
684.64038	0.25225
682.71182	0.25894
680.78325	0.26385
678.85469	0.30777
676.92612	0.33622
674.99756	0.28995
673.06899	0.23893
671.14043	0.22830
669.21187	0.22589
667.28330	0.22922
665.35474	0.27816
663.42617	0.35904
661.49761	0.38759
659.56904	0.37592
657.64048	0.36510
655.71191	0.33290
653.78335	0.32060
651.85479	0.38828
649.92622	0.49537
647.99766	0.50305
646.06909	0.37798
644.14053	0.29965
642.21196	0.28219
640.28340	0.24581
638.35483	0.19517
636.42627	0.18352
634.49771	0.22890
632.56914	0.26130
630.64058	0.21440
628.71201	0.18494
626.78345	0.23481
624.85488	0.28159
622.92632	0.27258
620.99775	0.25851
619.06919	0.28419
617.14062	0.31912
615.21206	0.31029
613.28350	0.26217
611.35493	0.21831
609.42637	0.19966
607.49780	0.20730
605.56924	0.25488
603.64067	0.36582
601.71211	0.44342
599.78354	0.36139
597.85498	0.23702
595.92642	0.15642
593.99785	0.14630
592.06929	0.19683
590.14072	0.23575
588.21216	0.21470
586.28359	0.18832
584.35503	0.18299
582.42646	0.17610
580.49790	0.17042
578.56934	0.18395
576.64077	0.19073
574.71221	0.18808
572.78364	0.21982
570.85508	0.26210
568.92651	0.27252
566.99795	0.27959
565.06938	0.31558
563.14082	0.35919
561.21226	0.37543
559.28369	0.33963
557.35513	0.28006
555.42656	0.24528
553.49800	0.22015
551.56943	0.21690
549.64087	0.26344
547.71230	0.30263
545.78374	0.27759
543.85518	0.25107
541.92661	0.25547
539.99805	0.23714
538.06948	0.19272
536.14092	0.19114
534.21235	0.22126
532.28379	0.22067
530.35522	0.22951
528.42666	0.26320
526.49810	0.26753
524.56953	0.26419
522.64097	0.24848
520.71240	0.21042
518.78384	0.21261
516.85527	0.24857
514.92671	0.26223
512.99814	0.25100
511.06958	0.25136
509.14102	0.27352
507.21245	0.29095
505.28389	0.28404
503.35532	0.25876
501.42676	0.22376
499.49819	0.19886
