3997.91411	0.07069
3995.98555	0.07212
3994.05698	0.07326
3992.12842	0.07361
3990.19985	0.07392
3988.27129	0.07442
3986.34272	0.07463
3984.41416	0.07456
3982.48560	0.07442
3980.55703	0.07443
3978.62847	0.07489
3976.69990	0.07574
3974.77134	0.07644
3972.84277	0.07660
3970.91421	0.07652
3968.98564	0.07647
3967.05708	0.07626
3965.12852	0.07622
3963.19995	0.07679
3961.27139	0.07745
3959.34282	0.07755
3957.41426	0.07746
3955.48569	0.07768
3953.55713	0.07819
3951.62856	0.07952
3949.70000	0.08205
3947.77144	0.08391
3945.84287	0.08368
3943.91431	0.08374
3941.98574	0.08426
3940.05718	0.08222
3938.12861	0.07925
3936.20005	0.07834
3934.27148	0.08016
3932.34292	0.08412
3930.41436	0.08659
3928.48579	0.08493
3926.55723	0.08336
3924.62866	0.08507
3922.70010	0.08608
3920.77153	0.08474
3918.84297	0.08495
3916.91440	0.08622
3914.98584	0.08423
3913.05728	0.07966
3911.12871	0.07659
3909.20015	0.07651
3907.27158	0.08011
3905.34302	0.08843
3903.41445	0.09830
3901.48589	0.10277
3899.55732	0.10050
3897.62876	0.09369
3895.70020	0.08640
3893.77163	0.08461
3891.84307	0.08855
3889.91450	0.09011
3887.98594	0.08724
3886.05737	0.08838
3884.12881	0.09262
3882.20024	0.09400
3880.27168	0.09413
3878.34312	0.09125
3876.41455	0.08720
3874.48599	0.08929
3872.55742	0.09629
3870.62886	0.10294
3868.70029	0.10533
3866.77173	0.10221
3864.84316	0.10127
3862.91460	0.10241
3860.98604	0.09796
3859.05747	0.09245
3857.12891	0.09362
3855.20034	0.10288
3853.27178	0.11782
3851.34321	0.12007
3849.41465	0.10529
3847.48608	0.09375
3845.55752	0.09073
3843.62896	0.09525
3841.70039	0.10403
3839.77183	0.11361
3837.84326	0.12017
3835.91470	0.11812
3833.98613	0.11108
3832.05757	0.10555
3830.12900	0.10193
3828.20044	0.10065
3826.27187	0.10210
3824.34331	0.10477
3822.41475	0.11090
3820.48618	0.12120
3818.55762	0.12406
3816.62905	0.12015
3814.70049	0.11504
3812.77192	0.10677
3810.84336	0.10087
3808.91479	0.10181
3806.98623	0.10889
3805.05767	0.11639
3803.12910	0.12244
3801.20054	0.12994
3799.27197	0.13081
3797.34341	0.12496
3795.41484	0.11979
3793.48628	0.11401
3791.55771	0.10947
3789.62915	0.10869
3787.70059	0.11096
3785.77202	0.11525
3783.84346	0.11898
3781.91489	0.12073
3779.98633	0.12368
3778.05776	0.12626
3776.12920	0.12377
3774.20063	0.12108
3772.27207	0.12355
3770.34351	0.13109
3768.41494	0.13835
3766.48638	0.14072
3764.55781	0.14069
3762.62925	0.14050
3760.70068	0.14380
3758.77212	0.15165
3756.84355	0.15714
3754.91499	0.15921
3752.98643	0.16637
3751.05786	0.18204
3749.12930	0.19384
3747.20073	0.19287
3745.27217	0.19254
3743.34360	0.19614
3741.41504	0.19725
3739.48647	0.19982
3737.55791	0.21024
3735.62935	0.22932
3733.70078	0.24530
3731.77222	0.24544
3729.84365	0.24051
3727.91509	0.24179
3725.98652	0.24956
3724.05796	0.25701
3722.12939	0.25926
3720.20083	0.25755
3718.27227	0.25379
3716.34370	0.25167
3714.41514	0.25648
3712.48657	0.27384
3710.55801	0.30136
3708.62944	0.31873
3706.70088	0.32279
3704.77231	0.32855
3702.84375	0.34152
3700.91519	0.35913
3698.98662	0.37453
3697.05806	0.38781
3695.12949	0.40429
3693.20093	0.42560
3691.27236	0.45301
3689.34380	0.48604
3687.41523	0.51455
3685.48667	0.53235
3683.55811	0.54973
3681.62954	0.57482
3679.70098	0.60895
3677.77241	0.64898
3675.84385	0.69684
3673.91528	0.75015
3671.98672	0.78632
3670.05815	0.82193
3668.12959	0.86965
3666.20103	0.90698
3664.27246	0.93934
3662.34390	0.97944
3660.41533	1.02610
3658.48677	1.07447
3656.55820	1.12734
3654.62964	1.18398
3652.70107	1.23167
3650.77251	1.28071
3648.84395	1.35079
3646.91538	1.41860
3644.98682	1.45371
3643.05825	1.48132
3641.12969	1.51714
3639.20112	1.56073
3637.27256	1.60627
3635.34399	1.65283
3633.41543	1.70153
3631.48687	1.74838
3629.55830	1.79790
3627.62974	1.85805
3625.70117	1.90276
3623.77261	1.92854
3621.84404	1.95754
3619.91548	1.99602
3617.98691	2.04252
3616.05835	2.08332
3614.12979	2.11669
3612.20122	2.15315
3610.27266	2.19089
3608.34409	2.23237
3606.41553	2.27633
3604.48696	2.31302
3602.55840	2.34715
3600.62983	2.38787
3598.70127	2.43016
3596.77271	2.46893
3594.84414	2.50965
3592.91558	2.55058
3590.98701	2.58589
3589.05845	2.62203
3587.12988	2.66921
3585.20132	2.71417
3583.27275	2.74533
3581.34419	2.77539
3579.41562	2.81249
3577.48706	2.85450
3575.55850	2.89694
3573.62993	2.94009
3571.70137	2.98291
3569.77280	3.02639
3567.84424	3.07712
3565.91567	3.13585
3563.98711	3.18162
3562.05854	3.21508
3560.12998	3.25345
3558.20142	3.29682
3556.27285	3.33972
3554.34429	3.38097
3552.41572	3.42555
3550.48716	3.47409
3548.55859	3.52151
3546.63003	3.56756
3544.70146	3.61588
3542.77290	3.66459
3540.84434	3.70917
3538.91577	3.75125
3536.98721	3.79392
3535.05864	3.83888
3533.13008	3.88549
3531.20151	3.93464
3529.27295	3.98627
3527.34438	4.03914
3525.41582	4.08951
3523.48726	4.13618
3521.55869	4.18161
3519.63013	4.22449
3517.70156	4.26830
3515.77300	4.31504
3513.84443	4.36197
3511.91587	4.40922
3509.98730	4.46050
3508.05874	4.51363
3506.13018	4.55835
3504.20161	4.59667
3502.27305	4.64108
3500.34448	4.69078
3498.41592	4.73928
3496.48735	4.79141
3494.55879	4.84461
3492.63022	4.89094
3490.70166	4.93445
3488.77310	4.97961
3486.84453	5.02535
3484.91597	5.07328
3482.98740	5.12384
3481.05884	5.17108
3479.13027	5.21259
3477.20171	5.25712
3475.27314	5.30895
3473.34458	5.36373
3471.41602	5.41743
3469.48745	5.46569
3467.55889	5.50838
3465.63032	5.55176
3463.70176	5.59592
3461.77319	5.63535
3459.84463	5.68118
3457.91606	5.74193
3455.98750	5.79861
3454.05894	5.84235
3452.13037	5.88967
3450.20181	5.93750
3448.27324	5.97981
3446.34468	6.02857
3444.41611	6.07300
3442.48755	6.11412
3440.55898	6.16638
3438.63042	6.22056
3436.70186	6.27092
3434.77329	6.32525
3432.84473	6.37967
3430.91616	6.42728
3428.98760	6.47240
3427.05903	6.51804
3425.13047	6.57611
3423.20190	6.63111
3421.27334	6.66208
3419.34478	6.69018
3417.41621	6.74205
3415.48765	6.80456
3413.55908	6.85289
3411.63052	6.89594
3409.70195	6.93801
3407.77339	6.99044
3405.84482	7.04493
3403.91626	7.07539
3401.98770	7.09694
3400.05913	7.13849
3398.13057	7.19183
3396.20200	7.23794
3394.27344	7.27899
3392.34487	7.29860
3390.41631	7.32151
3388.48774	7.37825
3386.55918	7.42511
3384.63062	7.41491
3382.70205	7.41380
3380.77349	7.48361
3378.84492	7.54939
3376.91636	7.57878
3374.98779	7.63242
3373.05923	7.69151
3371.13066	7.67969
3369.20210	7.64794
3367.27354	7.66281
3365.34497	7.69806
3363.41641	7.74022
3361.48784	7.79139
3359.55928	7.82806
3357.63071	7.82190
3355.70215	7.77562
3353.77358	7.74424
3351.84502	7.77666
3349.91646	7.82704
3347.98789	7.85137
3346.05933	7.84137
3344.13076	7.82364
3342.20220	7.84570
3340.27363	7.88382
3338.34507	7.87758
3336.41650	7.83561
3334.48794	7.86648
3332.55937	7.95746
3330.63081	7.99673
3328.70225	7.95559
3326.77368	7.90792
3324.84512	7.93136
3322.91655	7.97240
3320.98799	7.99640
3319.05942	8.02726
3317.13086	8.06463
3315.20229	8.11980
3313.27373	8.14882
3311.34517	8.10186
3309.41660	8.07088
3307.48804	8.08496
3305.55947	8.07333
3303.63091	8.05196
3301.70234	8.03700
3299.77378	8.03080
3297.84521	8.02887
3295.91665	8.01481
3293.98809	7.99095
3292.05952	7.98453
3290.13096	8.01562
3288.20239	8.05499
3286.27383	8.07557
3284.34526	8.09234
3282.41670	8.13651
3280.48813	8.16542
3278.55957	8.13088
3276.63101	8.09284
3274.70244	8.11285
3272.77388	8.15196
3270.84531	8.19895
3268.91675	8.26459
3266.98818	8.25507
3265.05962	8.20957
3263.13105	8.24141
3261.20249	8.27991
3259.27393	8.19798
3257.34536	8.07450
3255.41680	8.02660
3253.48823	8.02271
3251.55967	8.00766
3249.63110	7.98543
3247.70254	8.00293
3245.77397	8.06799
3243.84541	8.10448
3241.91685	8.09167
3239.98828	8.10649
3238.05972	8.12614
3236.13115	8.06610
3234.20259	8.01273
3232.27402	8.05881
3230.34546	8.12316
3228.41689	8.11691
3226.48833	8.05413
3224.55977	7.99458
3222.63120	7.97411
3220.70264	7.95207
3218.77407	7.91885
3216.84551	7.87863
3214.91694	7.83924
3212.98838	7.84505
3211.05981	7.85723
3209.13125	7.82351
3207.20269	7.76425
3205.27412	7.71368
3203.34556	7.69382
3201.41699	7.70617
3199.48843	7.71189
3197.55986	7.64090
3195.63130	7.53984
3193.70273	7.49193
3191.77417	7.46950
3189.84561	7.44430
3187.91704	7.41477
3185.98848	7.38484
3184.05991	7.35576
3182.13135	7.30054
3180.20278	7.23649
3178.27422	7.19378
3176.34565	7.14860
3174.41709	7.08678
3172.48853	7.02782
3170.55996	6.96413
3168.63140	6.89131
3166.70283	6.82800
3164.77427	6.77298
3162.84570	6.71634
3160.91714	6.65526
3158.98857	6.59669
3157.06001	6.53563
3155.13145	6.47247
3153.20288	6.42256
3151.27432	6.37486
3149.34575	6.32221
3147.41719	6.27282
3145.48862	6.21334
3143.56006	6.13402
3141.63149	6.04843
3139.70293	5.96573
3137.77437	5.88428
3135.84580	5.80783
3133.91724	5.73942
3131.98867	5.66726
3130.06011	5.59528
3128.13154	5.53671
3126.20298	5.47872
3124.27441	5.41251
3122.34585	5.34012
3120.41729	5.26081
3118.48872	5.18621
3116.56016	5.12518
3114.63159	5.06522
3112.70303	4.99681
3110.77446	4.92481
3108.84590	4.85456
3106.91733	4.78956
3104.98877	4.72641
3103.06021	4.65761
3101.13164	4.58489
3099.20308	4.51615
3097.27451	4.45012
3095.34595	4.38222
3093.41738	4.31776
3091.48882	4.25966
3089.56025	4.20154
3087.63169	4.13962
3085.70312	4.07683
3083.77456	4.01583
3081.84600	3.95725
3079.91743	3.90020
3077.98887	3.84238
3076.06030	3.78366
3074.13174	3.72458
3072.20317	3.66502
3070.27461	3.60690
3068.34604	3.55187
3066.41748	3.49851
3064.48892	3.44390
3062.56035	3.38702
3060.63179	3.33065
3058.70322	3.27759
3056.77466	3.22714
3054.84609	3.17641
3052.91753	3.12398
3050.98896	3.07097
3049.06040	3.01844
3047.13184	2.96739
3045.20327	2.91834
3043.27471	2.87028
3041.34614	2.82264
3039.41758	2.77559
3037.48901	2.72942
3035.56045	2.68456
3033.63188	2.64064
3031.70332	2.59697
3029.77476	2.55292
3027.84619	2.50806
3025.91763	2.46290
3023.98906	2.41852
3022.06050	2.37616
3020.13193	2.33610
3018.20337	2.29686
3016.27480	2.25719
3014.34624	2.21754
3012.41768	2.17878
3010.48911	2.14083
3008.56055	2.10345
3006.63198	2.06694
3004.70342	2.03142
3002.77485	1.99631
3000.84629	1.96167
2998.91772	1.92836
2996.98916	1.89598
2995.06060	1.86401
2993.13203	1.83272
2991.20347	1.80207
2989.27490	1.77216
2987.34634	1.74337
2985.41777	1.71558
2983.48921	1.68814
2981.56064	1.66081
2979.63208	1.63387
2977.70352	1.60760
2975.77495	1.58226
2973.84639	1.55761
2971.91782	1.53327
2969.98926	1.50915
2968.06069	1.48526
2966.13213	1.46185
2964.20356	1.43859
2962.27500	1.41483
2960.34644	1.39092
2958.41787	1.36759
2956.48931	1.34452
2954.56074	1.32081
2952.63218	1.29679
2950.70361	1.27322
2948.77505	1.24993
2946.84648	1.22704
2944.91792	1.20528
2942.98936	1.18437
2941.06079	1.16373
2939.13223	1.14374
2937.20366	1.12443
2935.27510	1.10496
2933.34653	1.08508
2931.41797	1.06518
2929.48940	1.04556
2927.56084	1.02568
2925.63228	1.00513
2923.70371	0.98485
2921.77515	0.96506
2919.84658	0.94514
2917.91802	0.92599
2915.98945	0.90895
2914.06089	0.89354
2912.13232	0.87889
2910.20376	0.86502
2908.27520	0.85169
2906.34663	0.83833
2904.41807	0.82440
2902.48950	0.81018
2900.56094	0.79632
2898.63237	0.78260
2896.70381	0.76899
2894.77524	0.75588
2892.84668	0.74340
2890.91812	0.73183
2888.98955	0.72111
2887.06099	0.71050
2885.13242	0.69994
2883.20386	0.68980
2881.27529	0.68002
2879.34673	0.67033
2877.41816	0.66084
2875.48960	0.65183
2873.56104	0.64283
2871.63247	0.63286
2869.70391	0.62147
2867.77534	0.60918
2865.84678	0.59673
2863.91821	0.58423
2861.98965	0.57201
2860.06108	0.56092
2858.13252	0.55083
2856.20396	0.54057
2854.27539	0.52977
2852.34683	0.51874
2850.41826	0.50785
2848.48970	0.49829
2846.56113	0.49124
2844.63257	0.48598
2842.70400	0.48100
2840.77544	0.47574
2838.84687	0.47003
2836.91831	0.46402
2834.98975	0.45810
2833.06118	0.45233
2831.13262	0.44642
2829.20405	0.44034
2827.27549	0.43425
2825.34692	0.42823
2823.41836	0.42231
2821.48979	0.41641
2819.56123	0.41063
2817.63267	0.40503
2815.70410	0.39943
2813.77554	0.39372
2811.84697	0.38807
2809.91841	0.38258
2807.98984	0.37707
2806.06128	0.37167
2804.13271	0.36648
2802.20415	0.36148
2800.27559	0.35666
2798.34702	0.35176
2796.41846	0.34675
2794.48989	0.34188
2792.56133	0.33723
2790.63276	0.33271
2788.70420	0.32823
2786.77563	0.32371
2784.84707	0.31928
2782.91851	0.31502
2780.98994	0.31091
2779.06138	0.30695
2777.13281	0.30306
2775.20425	0.29920
2773.27568	0.29544
2771.34712	0.29172
2769.41855	0.28792
2767.48999	0.28414
2765.56143	0.28059
2763.63286	0.27716
2761.70430	0.27381
2759.77573	0.27059
2757.84717	0.26732
2755.91860	0.26408
2753.99004	0.26096
2752.06147	0.25784
2750.13291	0.25481
2748.20435	0.25204
2746.27578	0.24944
2744.34722	0.24656
2742.41865	0.24334
2740.49009	0.24034
2738.56152	0.23782
2736.63296	0.23542
2734.70439	0.23285
2732.77583	0.23024
2730.84727	0.22779
2728.91870	0.22548
2726.99014	0.22319
2725.06157	0.22096
2723.13301	0.21889
2721.20444	0.21683
2719.27588	0.21469
2717.34731	0.21262
2715.41875	0.21065
2713.49019	0.20872
2711.56162	0.20691
2709.63306	0.20518
2707.70449	0.20347
2705.77593	0.20188
2703.84736	0.20030
2701.91880	0.19849
2699.99023	0.19671
2698.06167	0.19525
2696.13311	0.19400
2694.20454	0.19269
2692.27598	0.19137
2690.34741	0.19009
2688.41885	0.18884
2686.49028	0.18763
2684.56172	0.18650
2682.63315	0.18536
2680.70459	0.18410
2678.77603	0.18283
2676.84746	0.18159
2674.91890	0.18050
2672.99033	0.17955
2671.06177	0.17850
2669.13320	0.17738
2667.20464	0.17628
2665.27607	0.17525
2663.34751	0.17443
2661.41895	0.17362
2659.49038	0.17265
2657.56182	0.17178
2655.63325	0.17111
2653.70469	0.17051
2651.77612	0.16990
2649.84756	0.16924
2647.91899	0.16863
2645.99043	0.16808
2644.06187	0.16742
2642.13330	0.16677
2640.20474	0.16621
2638.27617	0.16566
2636.34761	0.16516
2634.41904	0.16473
2632.49048	0.16428
2630.56191	0.16388
2628.63335	0.16346
2626.70479	0.16295
2624.77622	0.16254
2622.84766	0.16225
2620.91909	0.16194
2618.99053	0.16166
2617.06196	0.16145
2615.13340	0.16134
2613.20483	0.16121
2611.27627	0.16089
2609.34771	0.16061
2607.41914	0.16055
2605.49058	0.16053
2603.56201	0.16040
2601.63345	0.16020
2599.70488	0.16000
2597.77632	0.16003
2595.84775	0.16031
2593.91919	0.16045
2591.99062	0.16032
2590.06206	0.16024
2588.13350	0.16037
2586.20493	0.16064
2584.27637	0.16098
2582.34780	0.16125
2580.41924	0.16136
2578.49067	0.16140
2576.56211	0.16160
2574.63354	0.16193
2572.70498	0.16223
2570.77642	0.16249
2568.84785	0.16278
2566.91929	0.16310
2564.99072	0.16343
2563.06216	0.16372
2561.13359	0.16404
2559.20503	0.16448
2557.27646	0.16498
2555.34790	0.16550
2553.41934	0.16602
2551.49077	0.16647
2549.56221	0.16690
2547.63364	0.16744
2545.70508	0.16808
2543.77651	0.16860
2541.84795	0.16906
2539.91938	0.16964
2537.99082	0.17029
2536.06226	0.17091
2534.13369	0.17150
2532.20513	0.17211
2530.27656	0.17282
2528.34800	0.17363
2526.41943	0.17440
2524.49087	0.17499
2522.56230	0.17555
2520.63374	0.17619
2518.70518	0.17690
2516.77661	0.17762
2514.84805	0.17832
2512.91948	0.17913
2510.99092	0.17998
2509.06235	0.18074
2507.13379	0.18145
2505.20522	0.18216
2503.27666	0.18289
2501.34810	0.18365
2499.41953	0.18441
2497.49097	0.18528
2495.56240	0.18628
2493.63384	0.18717
2491.70527	0.18784
2489.77671	0.18844
2487.84814	0.18916
2485.91958	0.19006
2483.99102	0.19098
2482.06245	0.19184
2480.13389	0.19268
2478.20532	0.19353
2476.27676	0.19432
2474.34819	0.19507
2472.41963	0.19592
2470.49106	0.19702
2468.56250	0.19825
2466.63394	0.19924
2464.70537	0.19998
2462.77681	0.20065
2460.84824	0.20145
2458.91968	0.20238
2456.99111	0.20334
2455.06255	0.20429
2453.13398	0.20519
2451.20542	0.20602
2449.27686	0.20685
2447.34829	0.20772
2445.41973	0.20863
2443.49116	0.20957
2441.56260	0.21057
2439.63403	0.21177
2437.70547	0.21303
2435.77690	0.21413
2433.84834	0.21506
2431.91978	0.21590
2429.99121	0.21672
2428.06265	0.21760
2426.13408	0.21862
2424.20552	0.21972
2422.27695	0.22089
2420.34839	0.22211
2418.41982	0.22322
2416.49126	0.22426
2414.56270	0.22541
2412.63413	0.22657
2410.70557	0.22758
2408.77700	0.22856
2406.84844	0.22973
2404.91987	0.23114
2402.99131	0.23249
2401.06274	0.23354
2399.13418	0.23454
2397.20562	0.23570
2395.27705	0.23695
2393.34849	0.23828
2391.41992	0.23980
2389.49136	0.24203
2387.56279	0.24620
2385.63423	0.25387
2383.70566	0.26674
2381.77710	0.28573
2379.84854	0.30997
2377.91997	0.33798
2375.99141	0.36980
2374.06284	0.40666
2372.13428	0.44859
2370.20571	0.49381
2368.27715	0.53995
2366.34858	0.58430
2364.42002	0.62344
2362.49146	0.65287
2360.56289	0.66888
2358.63433	0.66910
2356.70576	0.65063
2354.77720	0.61337
2352.84863	0.56329
2350.92007	0.51186
2348.99150	0.47967
2347.06294	0.47992
2345.13437	0.51215
2343.20581	0.55345
2341.27725	0.57305
2339.34868	0.57253
2337.42012	0.56564
2335.49155	0.55851
2333.56299	0.55230
2331.63442	0.54782
2329.70586	0.54219
2327.77729	0.53202
2325.84873	0.51835
2323.92017	0.50424
2321.99160	0.48955
2320.06304	0.47163
2318.13447	0.45152
2316.20591	0.43399
2314.27734	0.42213
2312.34878	0.41454
2310.42021	0.40730
2308.49165	0.39799
2306.56309	0.38707
2304.63452	0.37683
2302.70596	0.36949
2300.77739	0.36464
2298.84883	0.36048
2296.92026	0.35661
2294.99170	0.35314
2293.06313	0.34973
2291.13457	0.34634
2289.20601	0.34315
2287.27744	0.34017
2285.34888	0.33773
2283.42031	0.33673
2281.49175	0.33792
2279.56318	0.34085
2277.63462	0.34419
2275.70605	0.34714
2273.77749	0.34972
2271.84893	0.35209
2269.92036	0.35426
2267.99180	0.35614
2266.06323	0.35763
2264.13467	0.35900
2262.20610	0.36040
2260.27754	0.36169
2258.34897	0.36286
2256.42041	0.36410
2254.49185	0.36538
2252.56328	0.36667
2250.63472	0.36804
2248.70615	0.36952
2246.77759	0.37110
2244.84902	0.37266
2242.92046	0.37428
2240.99189	0.37623
2239.06333	0.37837
2237.13477	0.38043
2235.20620	0.38246
2233.27764	0.38458
2231.34907	0.38663
2229.42051	0.38852
2227.49194	0.39054
2225.56338	0.39277
2223.63481	0.39507
2221.70625	0.39732
2219.77769	0.39952
2217.84912	0.40161
2215.92056	0.40356
2213.99199	0.40553
2212.06343	0.40766
2210.13486	0.40989
2208.20630	0.41216
2206.27773	0.41438
2204.34917	0.41642
2202.42061	0.41839
2200.49204	0.42038
2198.56348	0.42236
2196.63491	0.42428
2194.70635	0.42613
2192.77778	0.42796
2190.84922	0.42985
2188.92065	0.43184
2186.99209	0.43380
2185.06353	0.43568
2183.13496	0.43746
2181.20640	0.43898
2179.27783	0.44033
2177.34927	0.44180
2175.42070	0.44344
2173.49214	0.44511
2171.56357	0.44664
2169.63501	0.44797
2167.70645	0.44914
2165.77788	0.45034
2163.84932	0.45161
2161.92075	0.45274
2159.99219	0.45368
2158.06362	0.45455
2156.13506	0.45547
2154.20649	0.45635
2152.27793	0.45712
2150.34937	0.45785
2148.42080	0.45851
2146.49224	0.45907
2144.56367	0.45950
2142.63511	0.45980
2140.70654	0.46002
2138.77798	0.46029
2136.84941	0.46062
2134.92085	0.46085
2132.99229	0.46080
2131.06372	0.46057
2129.13516	0.46029
2127.20659	0.45999
2125.27803	0.45967
2123.34946	0.45926
2121.42090	0.45877
2119.49233	0.45830
2117.56377	0.45777
2115.63521	0.45701
2113.70664	0.45608
2111.77808	0.45511
2109.84951	0.45416
2107.92095	0.45317
2105.99238	0.45197
2104.06382	0.45063
2102.13525	0.44933
2100.20669	0.44808
2098.27812	0.44677
2096.34956	0.44530
2094.42100	0.44362
2092.49243	0.44190
2090.56387	0.44034
2088.63530	0.43871
2086.70674	0.43683
2084.77817	0.43488
2082.84961	0.43300
2080.92104	0.43109
2078.99248	0.42910
2077.06392	0.42705
2075.13535	0.42491
2073.20679	0.42271
2071.27822	0.42046
2069.34966	0.41818
2067.42109	0.41601
2065.49253	0.41391
2063.56396	0.41152
2061.63540	0.40885
2059.70684	0.40622
2057.77827	0.40368
2055.84971	0.40108
2053.92114	0.39841
2051.99258	0.39571
2050.06401	0.39303
2048.13545	0.39040
2046.20688	0.38783
2044.27832	0.38539
2042.34976	0.38293
2040.42119	0.38018
2038.49263	0.37716
2036.56406	0.37419
2034.63550	0.37146
2032.70693	0.36876
2030.77837	0.36596
2028.84980	0.36312
2026.92124	0.36034
2024.99268	0.35757
2023.06411	0.35482
2021.13555	0.35223
2019.20698	0.34997
2017.27842	0.34765
2015.34985	0.34467
2013.42129	0.34131
2011.49272	0.33826
2009.56416	0.33556
2007.63560	0.33288
2005.70703	0.33012
2003.77847	0.32738
2001.84990	0.32471
1999.92134	0.32220
1997.99277	0.31978
1996.06421	0.31741
1994.13564	0.31560
1992.20708	0.31411
1990.27852	0.31165
1988.34995	0.30837
1986.42139	0.30525
1984.49282	0.30252
1982.56426	0.30003
1980.63569	0.29765
1978.70713	0.29539
1976.77856	0.29317
1974.85000	0.29092
1972.92144	0.28872
1970.99287	0.28684
1969.06431	0.28558
1967.13574	0.28443
1965.20718	0.28224
1963.27861	0.27940
1961.35005	0.27705
1959.42148	0.27510
1957.49292	0.27333
1955.56436	0.27171
1953.63579	0.26997
1951.70723	0.26808
1949.77866	0.26639
1947.85010	0.26513
1945.92153	0.26444
1943.99297	0.26433
1942.06440	0.26348
1940.13584	0.26074
1938.20728	0.25782
1936.27871	0.25603
1934.35015	0.25483
1932.42158	0.25364
1930.49302	0.25235
1928.56445	0.25116
1926.63589	0.25034
1924.70732	0.25044
1922.77876	0.25085
1920.85020	0.25023
1918.92163	0.24930
1916.99307	0.24816
1915.06450	0.24601
1913.13594	0.24430
1911.20737	0.24412
1909.27881	0.24434
1907.35024	0.24353
1905.42168	0.24203
1903.49312	0.24087
1901.56455	0.24008
1899.63599	0.23947
1897.70742	0.23934
1895.77886	0.23972
1893.85029	0.23968
1891.92173	0.23952
1889.99316	0.24019
1888.06460	0.24000
1886.13604	0.23853
1884.20747	0.23749
1882.27891	0.23701
1880.35034	0.23671
1878.42178	0.23661
1876.49321	0.23659
1874.56465	0.23661
1872.63608	0.23740
1870.70752	0.24014
1868.77896	0.24394
1866.85039	0.24418
1864.92183	0.24102
1862.99326	0.23884
1861.06470	0.23845
1859.13613	0.23874
1857.20757	0.23895
1855.27900	0.23913
1853.35044	0.23943
1851.42187	0.24015
1849.49331	0.24162
1847.56475	0.24398
1845.63618	0.24708
1843.70762	0.24921
1841.77905	0.24803
1839.85049	0.24624
1837.92192	0.24651
1835.99336	0.24751
1834.06479	0.24836
1832.13623	0.25066
1830.20767	0.25484
1828.27910	0.25718
1826.35054	0.25704
1824.42197	0.25717
1822.49341	0.25682
1820.56484	0.25650
1818.63628	0.25738
1816.70771	0.25899
1814.77915	0.26082
1812.85059	0.26362
1810.92202	0.26706
1808.99346	0.26912
1807.06489	0.26993
1805.13633	0.27128
1803.20776	0.27441
1801.27920	0.27882
1799.35063	0.28243
1797.42207	0.28438
1795.49351	0.28689
1793.56494	0.29152
1791.63638	0.29634
1789.70781	0.29726
1787.77925	0.29688
1785.85068	0.29925
1783.92212	0.30346
1781.99355	0.30817
1780.06499	0.31287
1778.13643	0.31687
1776.20786	0.32126
1774.27930	0.32824
1772.35073	0.33759
1770.42217	0.34360
1768.49360	0.34539
1766.56504	0.34736
1764.63647	0.35131
1762.70791	0.35805
1760.77935	0.36627
1758.85078	0.37256
1756.92222	0.37883
1754.99365	0.38555
1753.06509	0.39260
1751.13652	0.40364
1749.20796	0.41690
1747.27939	0.42613
1745.35083	0.43222
1743.42227	0.43969
1741.49370	0.44932
1739.56514	0.46123
1737.63657	0.47333
1735.70801	0.48624
1733.77944	0.50685
1731.85088	0.52634
1729.92231	0.53830
1727.99375	0.55082
1726.06519	0.56612
1724.13662	0.58495
1722.20806	0.60604
1720.27949	0.62706
1718.35093	0.65446
1716.42236	0.69085
1714.49380	0.71817
1712.56523	0.73801
1710.63667	0.75950
1708.70811	0.78578
1706.77954	0.81803
1704.85098	0.85566
1702.92241	0.88789
1700.99385	0.92147
1699.06528	0.97136
1697.13672	1.01446
1695.20815	1.05562
1693.27959	1.09515
1691.35103	1.12969
1689.42246	1.17278
1687.49390	1.21926
1685.56533	1.26580
1683.63677	1.33511
1681.70820	1.40117
1679.77964	1.44162
1677.85107	1.48164
1675.92251	1.53040
1673.99395	1.59191
1672.06538	1.64673
1670.13682	1.70190
1668.20825	1.77130
1666.27969	1.82544
1664.35112	1.87438
1662.42256	1.94023
1660.49399	2.01324
1658.56543	2.06898
1656.63687	2.11585
1654.70830	2.16113
1652.77974	2.22460
1650.85117	2.27825
1648.92261	2.29822
1646.99404	2.32277
1645.06548	2.34339
1643.13691	2.35413
1641.20835	2.35954
1639.27979	2.36712
1637.35122	2.37347
1635.42266	2.37010
1633.49409	2.35396
1631.56553	2.33551
1629.63696	2.31705
1627.70840	2.28717
1625.77983	2.25195
1623.85127	2.20834
1621.92271	2.15386
1619.99414	2.10393
1618.06558	2.05663
1616.13701	1.99116
1614.20845	1.92305
1612.27988	1.87046
1610.35132	1.81711
1608.42275	1.76002
1606.49419	1.70380
1604.56562	1.65214
1602.63706	1.60222
1600.70850	1.55339
1598.77993	1.50889
1596.85137	1.46807
1594.92280	1.42885
1592.99424	1.39096
1591.06567	1.35630
1589.13711	1.32386
1587.20854	1.29390
1585.27998	1.26687
1583.35142	1.24245
1581.42285	1.22106
1579.49429	1.20454
1577.56572	1.19231
1575.63716	1.17633
1573.70859	1.15865
1571.78003	1.14791
1569.85146	1.14070
1567.92290	1.13226
1565.99434	1.12498
1564.06577	1.12144
1562.13721	1.12164
1560.20864	1.12855
1558.28008	1.14359
1556.35151	1.14809
1554.42295	1.14735
1552.49438	1.14896
1550.56582	1.15032
1548.63726	1.14876
1546.70869	1.14451
1544.78013	1.13940
1542.85156	1.13311
1540.92300	1.11966
1538.99443	1.08612
1537.06587	1.05516
1535.13730	1.03654
1533.20874	1.01490
1531.28018	0.98935
1529.35161	0.97072
1527.42305	0.95621
1525.49448	0.94199
1523.56592	0.93027
1521.63735	0.91987
1519.70879	0.90680
1517.78022	0.89417
1515.85166	0.87936
1513.92310	0.86265
1511.99453	0.84934
1510.06597	0.84094
1508.13740	0.83609
1506.20884	0.82108
1504.28027	0.79840
1502.35171	0.78517
1500.42314	0.77760
1498.49458	0.77205
1496.56602	0.76398
1494.63745	0.75291
1492.70889	0.74519
1490.78032	0.74196
1488.85176	0.73773
1486.92319	0.72889
1484.99463	0.72015
1483.06606	0.71466
1481.13750	0.71147
1479.20894	0.70939
1477.28037	0.70949
1475.35181	0.71235
1473.42324	0.71582
1471.49468	0.71442
1469.56611	0.70840
1467.63755	0.70421
1465.70898	0.70320
1463.78042	0.70258
1461.85186	0.70181
1459.92329	0.70419
1457.99473	0.71025
1456.06616	0.71154
1454.13760	0.70460
1452.20903	0.69862
1450.28047	0.69506
1448.35190	0.69281
1446.42334	0.68976
1444.49478	0.68586
1442.56621	0.68254
1440.63765	0.67998
1438.70908	0.67858
1436.78052	0.67720
1434.85195	0.67296
1432.92339	0.66853
1430.99482	0.66641
1429.06626	0.66509
1427.13770	0.66395
1425.20913	0.66461
1423.28057	0.66655
1421.35200	0.66848
1419.42344	0.67113
1417.49487	0.67165
1415.56631	0.66821
1413.63774	0.66551
1411.70918	0.66530
1409.78062	0.66655
1407.85205	0.66865
1405.92349	0.67180
1403.99492	0.67440
1402.06636	0.67505
1400.13779	0.67548
1398.20923	0.67585
1396.28066	0.67436
1394.35210	0.66969
1392.42354	0.66260
1390.49497	0.65657
1388.56641	0.65240
1386.63784	0.64724
1384.70928	0.63998
1382.78071	0.63311
1380.85215	0.62770
1378.92358	0.62368
1376.99502	0.62130
1375.06646	0.62028
1373.13789	0.61857
1371.20933	0.61602
1369.28076	0.61437
1367.35220	0.61299
1365.42363	0.61170
1363.49507	0.61155
1361.56650	0.61076
1359.63794	0.60779
1357.70937	0.60489
1355.78081	0.60328
1353.85225	0.60226
1351.92368	0.60121
1349.99512	0.60042
1348.06655	0.59986
1346.13799	0.59911
1344.20942	0.59844
1342.28086	0.59871
1340.35229	0.59992
1338.42373	0.60004
1336.49517	0.59816
1334.56660	0.59630
1332.63804	0.59567
1330.70947	0.59601
1328.78091	0.59670
1326.85234	0.59745
1324.92378	0.59835
1322.99521	0.59958
1321.06665	0.60116
1319.13809	0.60260
1317.20952	0.60317
1315.28096	0.60306
1313.35239	0.60271
1311.42383	0.60198
1309.49526	0.60107
1307.56670	0.60039
1305.63813	0.59981
1303.70957	0.59913
1301.78101	0.59842
1299.85244	0.59770
1297.92388	0.59678
1295.99531	0.59554
1294.06675	0.59416
1292.13818	0.59280
1290.20962	0.59149
1288.28105	0.59018
1286.35249	0.58864
1284.42393	0.58689
1282.49536	0.58518
1280.56680	0.58360
1278.63823	0.58206
1276.70967	0.58062
1274.78110	0.57945
1272.85254	0.57853
1270.92397	0.57783
1268.99541	0.57721
1267.06685	0.57653
1265.13828	0.57570
1263.20972	0.57476
1261.28115	0.57381
1259.35259	0.57287
1257.42402	0.57197
1255.49546	0.57138
1253.56689	0.57117
1251.63833	0.57129
1249.70977	0.57159
1247.78120	0.57179
1245.85264	0.57164
1243.92407	0.57103
1241.99551	0.57005
1240.06694	0.56875
1238.13838	0.56685
1236.20981	0.56432
1234.28125	0.56156
1232.35269	0.55888
1230.42412	0.55644
1228.49556	0.55424
1226.56699	0.55211
1224.63843	0.55008
1222.70986	0.54819
1220.78130	0.54645
1218.85273	0.54480
1216.92417	0.54330
1214.99561	0.54202
1213.06704	0.54099
1211.13848	0.54022
1209.20991	0.53954
1207.28135	0.53876
1205.35278	0.53786
1203.42422	0.53688
1201.49565	0.53585
1199.56709	0.53486
1197.63853	0.53393
1195.70996	0.53316
1193.78140	0.53264
1191.85283	0.53227
1189.92427	0.53195
1187.99570	0.53173
1186.06714	0.53153
1184.13857	0.53141
1182.21001	0.53177
1180.28145	0.53281
1178.35288	0.53424
1176.42432	0.53576
1174.49575	0.53704
1172.56719	0.53770
1170.63862	0.53777
1168.71006	0.53757
1166.78149	0.53726
1164.85293	0.53695
1162.92437	0.53661
1160.99580	0.53611
1159.06724	0.53543
1157.13867	0.53456
1155.21011	0.53347
1153.28154	0.53217
1151.35298	0.53063
1149.42441	0.52861
1147.49585	0.52606
1145.56729	0.52336
1143.63872	0.52086
1141.71016	0.51880
1139.78159	0.51714
1137.85303	0.51577
1135.92446	0.51468
1133.99590	0.51397
1132.06733	0.51352
1130.13877	0.51305
1128.21021	0.51247
1126.28164	0.51191
1124.35308	0.51129
1122.42451	0.51055
1120.49595	0.50995
1118.56738	0.50966
1116.63882	0.50965
1114.71025	0.50988
1112.78169	0.51021
1110.85312	0.51058
1108.92456	0.51102
1106.99600	0.51172
1105.06743	0.51296
1103.13887	0.51449
1101.21030	0.51600
1099.28174	0.51768
1097.35317	0.51981
1095.42461	0.52258
1093.49604	0.52612
1091.56748	0.53046
1089.63892	0.53578
1087.71035	0.54203
1085.78179	0.54875
1083.85322	0.55553
1081.92466	0.56200
1079.99609	0.56743
1078.06753	0.57067
1076.13896	0.57082
1074.21040	0.56812
1072.28184	0.56344
1070.35327	0.55739
1068.42471	0.55061
1066.49614	0.54393
1064.56758	0.53777
1062.63901	0.53223
1060.71045	0.52736
1058.78188	0.52301
1056.85332	0.51883
1054.92476	0.51494
1052.99619	0.51177
1051.06763	0.50921
1049.13906	0.50695
1047.21050	0.50507
1045.28193	0.50368
1043.35337	0.50266
1041.42480	0.50185
1039.49624	0.50109
1037.56768	0.50027
1035.63911	0.49959
1033.71055	0.49909
1031.78198	0.49847
1029.85342	0.49766
1027.92485	0.49677
1025.99629	0.49597
1024.06772	0.49543
1022.13916	0.49534
1020.21060	0.49566
1018.28203	0.49604
1016.35347	0.49639
1014.42490	0.49673
1012.49634	0.49706
1010.56777	0.49753
1008.63921	0.49821
1006.71064	0.49921
1004.78208	0.50067
1002.85352	0.50258
1000.92495	0.50514
998.99639	0.50852
997.06782	0.51249
995.13926	0.51669
993.21069	0.52076
991.28213	0.52418
989.35356	0.52650
987.42500	0.52775
985.49644	0.52830
983.56787	0.52867
981.63931	0.52925
979.71074	0.53011
977.78218	0.53144
975.85361	0.53335
973.92505	0.53583
971.99648	0.53888
970.06792	0.54229
968.13936	0.54593
966.21079	0.54997
964.28223	0.55446
962.35366	0.55920
960.42510	0.56416
958.49653	0.56965
956.56797	0.57563
954.63940	0.58176
952.71084	0.58785
950.78228	0.59394
948.85371	0.60013
946.92515	0.60634
944.99658	0.61240
943.06802	0.61829
941.13945	0.62413
939.21089	0.63001
937.28232	0.63608
935.35376	0.64234
933.42520	0.64865
931.49663	0.65491
929.56807	0.66081
927.63950	0.66634
925.71094	0.67185
923.78237	0.67763
921.85381	0.68421
919.92524	0.69135
917.99668	0.69789
916.06812	0.70430
914.13955	0.71151
912.21099	0.71921
910.28242	0.72797
908.35386	0.73782
906.42529	0.74739
904.49673	0.75613
902.56816	0.76418
900.63960	0.77183
898.71104	0.78006
896.78247	0.78907
894.85391	0.79868
892.92534	0.80944
890.99678	0.82091
889.06821	0.83270
887.13965	0.84454
885.21108	0.85528
883.28252	0.86567
881.35396	0.87704
879.42539	0.88873
877.49683	0.90024
875.56826	0.91241
873.63970	0.92476
871.71113	0.93599
869.78257	0.94620
867.85400	0.95656
865.92544	0.96774
863.99687	0.97893
862.06831	0.98994
860.13975	1.00122
858.21118	1.01250
856.28262	1.02326
854.35405	1.03319
852.42549	1.04290
850.49692	1.05449
848.56836	1.06862
846.63979	1.08240
844.71123	1.09411
842.78267	1.10478
840.85410	1.11466
838.92554	1.12275
836.99697	1.13028
835.06841	1.14063
833.13984	1.15632
831.21128	1.17459
829.28271	1.18729
827.35415	1.19305
825.42559	1.19920
823.49702	1.20838
821.56846	1.21933
819.63989	1.23511
817.71133	1.25056
815.78276	1.25778
813.85420	1.26245
811.92563	1.26839
809.99707	1.26900
808.06851	1.26276
806.13994	1.26616
804.21138	1.28548
802.28281	1.30392
800.35425	1.31100
798.42568	1.30870
796.49712	1.29783
794.56855	1.29355
792.63999	1.31258
790.71143	1.33519
788.78286	1.32798
786.85430	1.28888
784.92573	1.26897
782.99717	1.27719
781.06860	1.26049
779.14004	1.25544
777.21147	1.30394
775.28291	1.32770
773.35435	1.28467
771.42578	1.23561
769.49722	1.20575
767.56865	1.21162
765.64009	1.24998
763.71152	1.32199
761.78296	1.42334
759.85439	1.44516
757.92583	1.39927
755.99727	1.35562
754.06870	1.25570
752.14014	1.13659
750.21157	1.08909
748.28301	1.08390
746.35444	1.04101
744.42588	0.98980
742.49731	0.94423
740.56875	0.88805
738.64019	0.84495
736.71162	0.80615
734.78306	0.74327
732.85449	0.67662
730.92593	0.61219
728.99736	0.53243
727.06880	0.48053
725.14023	0.49531
723.21167	0.52989
721.28311	0.50339
719.35454	0.44968
717.42598	0.42084
715.49741	0.41346
713.56885	0.41660
711.64028	0.34631
709.71172	0.21387
707.78315	0.17983
705.85459	0.23098
703.92603	0.28148
701.99746	0.22922
700.06890	0.12540
698.14033	0.12625
696.21177	0.19933
694.28320	0.23734
692.35464	0.26546
690.42607	0.25804
688.49751	0.19274
686.56895	0.18313
684.64038	0.21169
682.71182	0.19781
680.78325	0.22790
678.85469	0.33397
676.92612	0.34383
674.99756	0.20695
673.06899	0.10259
671.14043	0.09947
669.21187	0.15934
667.28330	0.25927
665.35474	0.31097
663.42617	0.19114
661.49761	0.07283
659.56904	0.10104
657.64048	0.26083
655.71191	0.32181
653.78335	0.27345
651.85479	0.18932
649.92622	0.13288
647.99766	0.13533
646.06909	0.17463
644.14053	0.20248
642.21196	0.19585
640.28340	0.17845
638.35483	0.15392
636.42627	0.13803
634.49771	0.21411
632.56914	0.37509
630.64058	0.32951
628.71201	0.19940
626.78345	0.19184
624.85488	0.23423
622.92632	0.23041
620.99775	0.22121
619.06919	0.22703
617.14062	0.23346
615.21206	0.21981
613.28350	0.16743
611.35493	0.12904
609.42637	0.13461
607.49780	0.11981
605.56924	0.08953
603.64067	0.09830
601.71211	0.12610
599.78354	0.15240
597.85498	0.20643
595.92642	0.28680
593.99785	0.30513
592.06929	0.24295
590.14072	0.15509
588.21216	0.08708
586.28359	0.08283
584.35503	0.13039
582.42646	0.17284
580.49790	0.19048
578.56934	0.22473
576.64077	0.25602
574.71221	0.21149
572.78364	0.14888
570.85508	0.13531
568.92651	0.15195
566.99795	0.16354
565.06938	0.18628
563.14082	0.23772
561.21226	0.25060
559.28369	0.19292
557.35513	0.14929
555.42656	0.16849
553.49800	0.19807
551.56943	0.24132
549.64087	0.32600
547.71230	0.36501
545.78374	0.35178
543.85518	0.30475
541.92661	0.22019
539.99805	0.18180
538.06948	0.17604
536.14092	0.18280
534.21235	0.21178
532.28379	0.21025
530.35522	0.18117
528.42666	0.19269
526.49810	0.23917
524.56953	0.21279
522.64097	0.12518
520.71240	0.09615
518.78384	0.12392
516.85527	0.13022
514.92671	0.11736
512.99814	0.11347
511.06958	0.10978
509.14102	0.12756
507.21245	0.16441
505.28389	0.21159
503.35532	0.26506
501.42676	0.23609
499.49819	0.17980
