3997.91411	0.06240
3995.98555	0.06285
3994.05698	0.06328
3992.12842	0.06354
3990.19985	0.06378
3988.27129	0.06419
3986.34272	0.06485
3984.41416	0.06549
3982.48560	0.06580
3980.55703	0.06589
3978.62847	0.06594
3976.69990	0.06602
3974.77134	0.06614
3972.84277	0.06633
3970.91421	0.06663
3968.98564	0.06703
3967.05708	0.06735
3965.12852	0.06721
3963.19995	0.06674
3961.27139	0.06663
3959.34282	0.06684
3957.41426	0.06701
3955.48569	0.06736
3953.55713	0.06784
3951.62856	0.06816
3949.70000	0.06852
3947.77144	0.06881
3945.84287	0.06863
3943.91431	0.06841
3941.98574	0.06850
3940.05718	0.06815
3938.12861	0.06743
3936.20005	0.06732
3934.27148	0.06786
3932.34292	0.06881
3930.41436	0.06980
3928.48579	0.06996
3926.55723	0.06980
3924.62866	0.07029
3922.70010	0.07051
3920.77153	0.06967
3918.84297	0.06884
3916.91440	0.06883
3914.98584	0.06889
3913.05728	0.06833
3911.12871	0.06771
3909.20015	0.06740
3907.27158	0.06748
3905.34302	0.06857
3903.41445	0.07074
3901.48589	0.07224
3899.55732	0.07191
3897.62876	0.07031
3895.70020	0.06864
3893.77163	0.06824
3891.84307	0.06941
3889.91450	0.07040
3887.98594	0.06975
3886.05737	0.06941
3884.12881	0.07004
3882.20024	0.07019
3880.27168	0.07038
3878.34312	0.07036
3876.41455	0.06979
3874.48599	0.07047
3872.55742	0.07212
3870.62886	0.07317
3868.70029	0.07341
3866.77173	0.07276
3864.84316	0.07271
3862.91460	0.07365
3860.98604	0.07376
3859.05747	0.07316
3857.12891	0.07314
3855.20034	0.07443
3853.27178	0.07806
3851.34321	0.08083
3849.41465	0.07860
3847.48608	0.07569
3845.55752	0.07473
3843.62896	0.07602
3841.70039	0.07819
3839.77183	0.08032
3837.84326	0.08261
3835.91470	0.08328
3833.98613	0.08199
3832.05757	0.08081
3830.12900	0.08064
3828.20044	0.08135
3826.27187	0.08249
3824.34331	0.08359
3822.41475	0.08528
3820.48618	0.08849
3818.55762	0.09009
3816.62905	0.08963
3814.70049	0.08929
3812.77192	0.08801
3810.84336	0.08695
3808.91479	0.08793
3806.98623	0.09094
3805.05767	0.09383
3803.12910	0.09548
3801.20054	0.09784
3799.27197	0.09953
3797.34341	0.09901
3795.41484	0.09853
3793.48628	0.09832
3791.55771	0.09826
3789.62915	0.09893
3787.70059	0.10037
3785.77202	0.10249
3783.84346	0.10476
3781.91489	0.10642
3779.98633	0.10820
3778.05776	0.11042
3776.12920	0.11150
3774.20063	0.11184
3772.27207	0.11303
3770.34351	0.11576
3768.41494	0.11911
3766.48638	0.12133
3764.55781	0.12283
3762.62925	0.12401
3760.70068	0.12555
3758.77212	0.12862
3756.84355	0.13203
3754.91499	0.13451
3752.98643	0.13782
3751.05786	0.14339
3749.12930	0.14903
3747.20073	0.15164
3745.27217	0.15395
3743.34360	0.15808
3741.41504	0.16134
3739.48647	0.16352
3737.55791	0.16733
3735.62935	0.17438
3733.70078	0.18262
3731.77222	0.18757
3729.84365	0.19070
3727.91509	0.19454
3725.98652	0.20024
3724.05796	0.20702
3722.12939	0.21316
3720.20083	0.21840
3718.27227	0.22294
3716.34370	0.22764
3714.41514	0.23382
3712.48657	0.24426
3710.55801	0.26068
3708.62944	0.27634
3706.70088	0.28718
3704.77231	0.29758
3702.84375	0.31045
3700.91519	0.32706
3698.98662	0.34489
3697.05806	0.36180
3695.12949	0.37979
3693.20093	0.39902
3691.27236	0.42047
3689.34380	0.44886
3687.41523	0.48266
3685.48667	0.51097
3683.55811	0.53581
3681.62954	0.56352
3679.70098	0.59508
3677.77241	0.62867
3675.84385	0.66901
3673.91528	0.72204
3671.98672	0.76380
3670.05815	0.80105
3668.12959	0.85340
3666.20103	0.90091
3664.27246	0.94018
3662.34390	0.98278
3660.41533	1.02966
3658.48677	1.07642
3656.55820	1.12628
3654.62964	1.18150
3652.70107	1.22747
3650.77251	1.26811
3648.84395	1.32562
3646.91538	1.39438
3644.98682	1.44263
3643.05825	1.47979
3641.12969	1.51862
3639.20112	1.56219
3637.27256	1.60737
3635.34399	1.65212
3633.41543	1.69635
3631.48687	1.73714
3629.55830	1.77874
3627.62974	1.83288
3625.70117	1.88223
3623.77261	1.91516
3621.84404	1.94683
3619.91548	1.98387
3617.98691	2.02961
3616.05835	2.07332
3614.12979	2.10895
3612.20122	2.14666
3610.27266	2.18603
3608.34409	2.22728
3606.41553	2.27172
3604.48696	2.31195
3602.55840	2.34649
3600.62983	2.38401
3598.70127	2.42574
3596.77271	2.46544
3594.84414	2.50459
3592.91558	2.54554
3590.98701	2.58396
3589.05845	2.61938
3587.12988	2.66202
3585.20132	2.71031
3583.27275	2.75198
3581.34419	2.78971
3579.41562	2.82920
3577.48706	2.87079
3575.55850	2.91329
3573.62993	2.95646
3571.70137	2.99715
3569.77280	3.03614
3567.84424	3.08009
3565.91567	3.13554
3563.98711	3.18824
3562.05854	3.22970
3560.12998	3.27056
3558.20142	3.31443
3556.27285	3.35980
3554.34429	3.40428
3552.41572	3.44900
3550.48716	3.49383
3548.55859	3.53719
3546.63003	3.58187
3544.70146	3.63196
3542.77290	3.68189
3540.84434	3.72739
3538.91577	3.77346
3536.98721	3.82101
3535.05864	3.86927
3533.13008	3.91612
3531.20151	3.96141
3529.27295	4.00885
3527.34438	4.06094
3525.41582	4.11171
3523.48726	4.15757
3521.55869	4.20486
3519.63013	4.25370
3517.70156	4.30113
3515.77300	4.34764
3513.84443	4.39548
3511.91587	4.44325
3509.98730	4.48946
3508.05874	4.53683
3506.13018	4.58506
3504.20161	4.63207
3502.27305	4.67858
3500.34448	4.72788
3498.41592	4.78058
3496.48735	4.83196
3494.55879	4.87753
3492.63022	4.91846
3490.70166	4.96017
3488.77310	5.00734
3486.84453	5.05890
3484.91597	5.11319
3482.98740	5.17116
3481.05884	5.22387
3479.13027	5.26315
3477.20171	5.30544
3475.27314	5.35746
3473.34458	5.40318
3471.41602	5.44488
3469.48745	5.49359
3467.55889	5.54373
3465.63032	5.59188
3463.70176	5.64234
3461.77319	5.69481
3459.84463	5.74662
3457.91606	5.79334
3455.98750	5.84303
3454.05894	5.90160
3452.13037	5.95668
3450.20181	6.00455
3448.27324	6.05620
3446.34468	6.12210
3444.41611	6.18017
3442.48755	6.20964
3440.55898	6.23950
3438.63042	6.30078
3436.70186	6.37190
3434.77329	6.41429
3432.84473	6.42794
3430.91616	6.44445
3428.98760	6.49303
3427.05903	6.55488
3425.13047	6.60150
3423.20190	6.64555
3421.27334	6.71407
3419.34478	6.78822
3417.41621	6.83823
3415.48765	6.88007
3413.55908	6.91815
3411.63052	6.95180
3409.70195	6.99625
3407.77339	7.05104
3405.84482	7.09924
3403.91626	7.15172
3401.98770	7.19258
3400.05913	7.21215
3398.13057	7.26403
3396.20200	7.35397
3394.27344	7.40644
3392.34487	7.38336
3390.41631	7.36844
3388.48774	7.39985
3386.55918	7.45754
3384.63062	7.52197
3382.70205	7.56163
3380.77349	7.58290
3378.84492	7.60809
3376.91636	7.64184
3374.98779	7.66635
3373.05923	7.68101
3371.13066	7.70186
3369.20210	7.74056
3367.27354	7.79104
3365.34497	7.81752
3363.41641	7.77880
3361.48784	7.74659
3359.55928	7.78725
3357.63071	7.84546
3355.70215	7.89871
3353.77358	7.93152
3351.84502	7.94886
3349.91646	7.98875
3347.98789	8.02516
3346.05933	8.03891
3344.13076	8.05987
3342.20220	8.04039
3340.27363	7.99739
3338.34507	8.01994
3336.41650	8.03248
3334.48794	8.01408
3332.55937	8.02131
3330.63081	8.05115
3328.70225	8.05390
3326.77368	8.00056
3324.84512	7.97490
3322.91655	8.03646
3320.98799	8.13203
3319.05942	8.17690
3317.13086	8.15231
3315.20229	8.06887
3313.27373	8.03002
3311.34517	8.09278
3309.41660	8.18022
3307.48804	8.21672
3305.55947	8.17730
3303.63091	8.11056
3301.70234	8.07112
3299.77378	8.07414
3297.84521	8.07430
3295.91665	8.05993
3293.98809	8.08038
3292.05952	8.13597
3290.13096	8.17792
3288.20239	8.21999
3286.27383	8.27328
3284.34526	8.28713
3282.41670	8.26696
3280.48813	8.23594
3278.55957	8.25477
3276.63101	8.27475
3274.70244	8.18702
3272.77388	8.07358
3270.84531	8.06453
3268.91675	8.16433
3266.98818	8.24024
3265.05962	8.21438
3263.13105	8.14380
3261.20249	8.10308
3259.27393	8.09740
3257.34536	8.09532
3255.41680	8.05838
3253.48823	7.99592
3251.55967	7.99179
3249.63110	8.04193
3247.70254	8.06726
3245.77397	8.06392
3243.84541	8.07369
3241.91685	8.09487
3239.98828	8.12575
3238.05972	8.10980
3236.13115	8.02190
3234.20259	7.97173
3232.27402	8.01976
3230.34546	8.14233
3228.41689	8.23214
3226.48833	8.21293
3224.55977	8.18433
3222.63120	8.19698
3220.70264	8.19334
3218.77407	8.14602
3216.84551	8.05415
3214.91694	7.97625
3212.98838	7.96034
3211.05981	7.96250
3209.13125	7.95365
3207.20269	7.92837
3205.27412	7.86277
3203.34556	7.78768
3201.41699	7.75127
3199.48843	7.72541
3197.55986	7.69637
3195.63130	7.66990
3193.70273	7.63170
3191.77417	7.61337
3189.84561	7.59340
3187.91704	7.51914
3185.98848	7.46180
3184.05991	7.47172
3182.13135	7.47370
3180.20278	7.42300
3178.27422	7.33998
3176.34565	7.27549
3174.41709	7.26178
3172.48853	7.22528
3170.55996	7.12005
3168.63140	7.00210
3166.70283	6.91867
3164.77427	6.86954
3162.84570	6.82012
3160.91714	6.74389
3158.98857	6.66656
3157.06001	6.61183
3155.13145	6.54413
3153.20288	6.44726
3151.27432	6.36772
3149.34575	6.33119
3147.41719	6.30393
3145.48862	6.25045
3143.56006	6.17209
3141.63149	6.08237
3139.70293	6.00603
3137.77437	5.95489
3135.84580	5.89773
3133.91724	5.81622
3131.98867	5.72886
3130.06011	5.64518
3128.13154	5.56819
3126.20298	5.50281
3124.27441	5.44211
3122.34585	5.37553
3120.41729	5.29983
3118.48872	5.22251
3116.56016	5.15119
3114.63159	5.08500
3112.70303	5.02050
3110.77446	4.94955
3108.84590	4.87348
3106.91733	4.80398
3104.98877	4.73988
3103.06021	4.67170
3101.13164	4.60034
3099.20308	4.53531
3097.27451	4.47447
3095.34595	4.40845
3093.41738	4.33964
3091.48882	4.27494
3089.56025	4.21338
3087.63169	4.15158
3085.70312	4.08870
3083.77456	4.02431
3081.84600	3.96067
3079.91743	3.89960
3077.98887	3.83928
3076.06030	3.77827
3074.13174	3.71764
3072.20317	3.65948
3070.27461	3.60280
3068.34604	3.54455
3066.41748	3.48514
3064.48892	3.42773
3062.56035	3.37231
3060.63179	3.31750
3058.70322	3.26391
3056.77466	3.21114
3054.84609	3.15776
3052.91753	3.10403
3050.98896	3.05123
3049.06040	2.99927
3047.13184	2.94797
3045.20327	2.89806
3043.27471	2.84985
3041.34614	2.80254
3039.41758	2.75472
3037.48901	2.70659
3035.56045	2.65988
3033.63188	2.61481
3031.70332	2.57046
3029.77476	2.52634
3027.84619	2.48221
3025.91763	2.43863
3023.98906	2.39622
3022.06050	2.35432
3020.13193	2.31210
3018.20337	2.26994
3016.27480	2.22893
3014.34624	2.18964
3012.41768	2.15161
3010.48911	2.11395
3008.56055	2.07657
3006.63198	2.03983
3004.70342	2.00362
3002.77485	1.96751
3000.84629	1.93253
2998.91772	1.89944
2996.98916	1.86653
2995.06060	1.83316
2993.13203	1.80058
2991.20347	1.76925
2989.27490	1.73890
2987.34634	1.70889
2985.41777	1.67873
2983.48921	1.64900
2981.56064	1.62023
2979.63208	1.59220
2977.70352	1.56481
2975.77495	1.53822
2973.84639	1.51210
2971.91782	1.48594
2969.98926	1.45968
2968.06069	1.43376
2966.13213	1.40867
2964.20356	1.38438
2962.27500	1.36030
2960.34644	1.33605
2958.41787	1.31179
2956.48931	1.28778
2954.56074	1.26428
2952.63218	1.24132
2950.70361	1.21871
2948.77505	1.19637
2946.84648	1.17425
2944.91792	1.15240
2942.98936	1.13099
2941.06079	1.11008
2939.13223	1.08964
2937.20366	1.06939
2935.27510	1.04918
2933.34653	1.02946
2931.41797	1.01038
2929.48940	0.99172
2927.56084	0.97369
2925.63228	0.95624
2923.70371	0.93894
2921.77515	0.92196
2919.84658	0.90571
2917.91802	0.88948
2915.98945	0.87270
2914.06089	0.85621
2912.13232	0.84055
2910.20376	0.82535
2908.27520	0.81019
2906.34663	0.79552
2904.41807	0.78175
2902.48950	0.76849
2900.56094	0.75556
2898.63237	0.74288
2896.70381	0.73015
2894.77524	0.71745
2892.84668	0.70523
2890.91812	0.69360
2888.98955	0.68225
2887.06099	0.67109
2885.13242	0.66004
2883.20386	0.64909
2881.27529	0.63856
2879.34673	0.62845
2877.41816	0.61859
2875.48960	0.60880
2873.56104	0.59882
2871.63247	0.58857
2869.70391	0.57806
2867.77534	0.56744
2865.84678	0.55692
2863.91821	0.54629
2861.98965	0.53564
2860.06108	0.52533
2858.13252	0.51536
2856.20396	0.50606
2854.27539	0.49795
2852.34683	0.49048
2850.41826	0.48273
2848.48970	0.47459
2846.56113	0.46639
2844.63257	0.45855
2842.70400	0.45151
2840.77544	0.44528
2838.84687	0.43934
2836.91831	0.43327
2834.98975	0.42704
2833.06118	0.42094
2831.13262	0.41506
2829.20405	0.40926
2827.27549	0.40346
2825.34692	0.39771
2823.41836	0.39204
2821.48979	0.38639
2819.56123	0.38068
2817.63267	0.37487
2815.70410	0.36910
2813.77554	0.36364
2811.84697	0.35854
2809.91841	0.35347
2807.98984	0.34826
2806.06128	0.34302
2804.13271	0.33784
2802.20415	0.33281
2800.27559	0.32804
2798.34702	0.32341
2796.41846	0.31882
2794.48989	0.31448
2792.56133	0.31036
2790.63276	0.30609
2788.70420	0.30161
2786.77563	0.29715
2784.84707	0.29282
2782.91851	0.28873
2780.98994	0.28492
2779.06138	0.28113
2777.13281	0.27733
2775.20425	0.27375
2773.27568	0.27018
2771.34712	0.26641
2769.41855	0.26275
2767.48999	0.25931
2765.56143	0.25601
2763.63286	0.25286
2761.70430	0.24974
2759.77573	0.24654
2757.84717	0.24343
2755.91860	0.24047
2753.99004	0.23753
2752.06147	0.23460
2750.13291	0.23185
2748.20435	0.22927
2746.27578	0.22666
2744.34722	0.22398
2742.41865	0.22133
2740.49009	0.21867
2738.56152	0.21601
2736.63296	0.21354
2734.70439	0.21128
2732.77583	0.20908
2730.84727	0.20694
2728.91870	0.20479
2726.99014	0.20267
2725.06157	0.20059
2723.13301	0.19852
2721.20444	0.19653
2719.27588	0.19455
2717.34731	0.19252
2715.41875	0.19061
2713.49019	0.18893
2711.56162	0.18732
2709.63306	0.18561
2707.70449	0.18386
2705.77593	0.18222
2703.84736	0.18075
2701.91880	0.17935
2699.99023	0.17787
2698.06167	0.17620
2696.13311	0.17460
2694.20454	0.17336
2692.27598	0.17227
2690.34741	0.17113
2688.41885	0.16999
2686.49028	0.16875
2684.56172	0.16744
2682.63315	0.16628
2680.70459	0.16522
2678.77603	0.16407
2676.84746	0.16291
2674.91890	0.16201
2672.99033	0.16130
2671.06177	0.16052
2669.13320	0.15953
2667.20464	0.15848
2665.27607	0.15756
2663.34751	0.15669
2661.41895	0.15573
2659.49038	0.15483
2657.56182	0.15411
2655.63325	0.15345
2653.70469	0.15280
2651.77612	0.15212
2649.84756	0.15143
2647.91899	0.15082
2645.99043	0.15032
2644.06187	0.14981
2642.13330	0.14931
2640.20474	0.14891
2638.27617	0.14849
2636.34761	0.14795
2634.41904	0.14733
2632.49048	0.14682
2630.56191	0.14656
2628.63335	0.14643
2626.70479	0.14623
2624.77622	0.14599
2622.84766	0.14586
2620.91909	0.14577
2618.99053	0.14559
2617.06196	0.14529
2615.13340	0.14494
2613.20483	0.14474
2611.27627	0.14467
2609.34771	0.14470
2607.41914	0.14474
2605.49058	0.14465
2603.56201	0.14455
2601.63345	0.14464
2599.70488	0.14483
2597.77632	0.14489
2595.84775	0.14486
2593.91919	0.14493
2591.99062	0.14511
2590.06206	0.14526
2588.13350	0.14538
2586.20493	0.14554
2584.27637	0.14579
2582.34780	0.14616
2580.41924	0.14654
2578.49067	0.14685
2576.56211	0.14712
2574.63354	0.14745
2572.70498	0.14786
2570.77642	0.14833
2568.84785	0.14878
2566.91929	0.14913
2564.99072	0.14943
2563.06216	0.14981
2561.13359	0.15021
2559.20503	0.15057
2557.27646	0.15102
2555.34790	0.15159
2553.41934	0.15220
2551.49077	0.15278
2549.56221	0.15328
2547.63364	0.15380
2545.70508	0.15432
2543.77651	0.15479
2541.84795	0.15538
2539.91938	0.15610
2537.99082	0.15684
2536.06226	0.15754
2534.13369	0.15824
2532.20513	0.15907
2530.27656	0.15986
2528.34800	0.16043
2526.41943	0.16114
2524.49087	0.16217
2522.56230	0.16310
2520.63374	0.16365
2518.70518	0.16417
2516.77661	0.16498
2514.84805	0.16588
2512.91948	0.16665
2510.99092	0.16741
2509.06235	0.16822
2507.13379	0.16897
2505.20522	0.16969
2503.27666	0.17056
2501.34810	0.17154
2499.41953	0.17241
2497.49097	0.17314
2495.56240	0.17392
2493.63384	0.17486
2491.70527	0.17585
2489.77671	0.17675
2487.84814	0.17755
2485.91958	0.17835
2483.99102	0.17926
2482.06245	0.18027
2480.13389	0.18128
2478.20532	0.18225
2476.27676	0.18321
2474.34819	0.18410
2472.41963	0.18488
2470.49106	0.18569
2468.56250	0.18661
2466.63394	0.18750
2464.70537	0.18829
2462.77681	0.18912
2460.84824	0.19013
2458.91968	0.19131
2456.99111	0.19249
2455.06255	0.19349
2453.13398	0.19436
2451.20542	0.19532
2449.27686	0.19635
2447.34829	0.19735
2445.41973	0.19840
2443.49116	0.19950
2441.56260	0.20047
2439.63403	0.20133
2437.70547	0.20225
2435.77690	0.20331
2433.84834	0.20444
2431.91978	0.20555
2429.99121	0.20668
2428.06265	0.20781
2426.13408	0.20891
2424.20552	0.21003
2422.27695	0.21116
2420.34839	0.21224
2418.41982	0.21329
2416.49126	0.21434
2414.56270	0.21541
2412.63413	0.21663
2410.70557	0.21786
2408.77700	0.21902
2406.84844	0.22018
2404.91987	0.22137
2402.99131	0.22255
2401.06274	0.22379
2399.13418	0.22514
2397.20562	0.22648
2395.27705	0.22768
2393.34849	0.22879
2391.41992	0.22999
2389.49136	0.23151
2387.56279	0.23357
2385.63423	0.23650
2383.70566	0.24074
2381.77710	0.24658
2379.84854	0.25396
2377.91997	0.26244
2375.99141	0.27177
2374.06284	0.28232
2372.13428	0.29440
2370.20571	0.30750
2368.27715	0.32071
2366.34858	0.33365
2364.42002	0.34584
2362.49146	0.35581
2360.56289	0.36176
2358.63433	0.36293
2356.70576	0.35892
2354.77720	0.34975
2352.84863	0.33741
2350.92007	0.32477
2348.99150	0.31699
2347.06294	0.31765
2345.13437	0.32718
2343.20581	0.33984
2341.27725	0.34657
2339.34868	0.34805
2337.42012	0.34837
2335.49155	0.34812
2333.56299	0.34712
2331.63442	0.34649
2329.70586	0.34617
2327.77729	0.34477
2325.84873	0.34190
2323.92017	0.33870
2321.99160	0.33571
2320.06304	0.33228
2318.13447	0.32835
2316.20591	0.32503
2314.27734	0.32334
2312.34878	0.32292
2310.42021	0.32242
2308.49165	0.32100
2306.56309	0.31913
2304.63452	0.31775
2302.70596	0.31734
2300.77739	0.31757
2298.84883	0.31785
2296.92026	0.31816
2294.99170	0.31862
2293.06313	0.31916
2291.13457	0.31982
2289.20601	0.32056
2287.27744	0.32129
2285.34888	0.32205
2283.42031	0.32317
2281.49175	0.32492
2279.56318	0.32715
2277.63462	0.32949
2275.70605	0.33185
2273.77749	0.33418
2271.84893	0.33641
2269.92036	0.33853
2267.99180	0.34055
2266.06323	0.34247
2264.13467	0.34430
2262.20610	0.34612
2260.27754	0.34809
2258.34897	0.35019
2256.42041	0.35218
2254.49185	0.35410
2252.56328	0.35603
2250.63472	0.35803
2248.70615	0.36005
2246.77759	0.36199
2244.84902	0.36391
2242.92046	0.36587
2240.99189	0.36792
2239.06333	0.37013
2237.13477	0.37246
2235.20620	0.37475
2233.27764	0.37693
2231.34907	0.37906
2229.42051	0.38126
2227.49194	0.38355
2225.56338	0.38581
2223.63481	0.38796
2221.70625	0.39004
2219.77769	0.39226
2217.84912	0.39466
2215.92056	0.39698
2213.99199	0.39910
2212.06343	0.40118
2210.13486	0.40324
2208.20630	0.40526
2206.27773	0.40733
2204.34917	0.40947
2202.42061	0.41161
2200.49204	0.41376
2198.56348	0.41594
2196.63491	0.41799
2194.70635	0.41979
2192.77778	0.42159
2190.84922	0.42353
2188.92065	0.42543
2186.99209	0.42723
2185.06353	0.42897
2183.13496	0.43062
2181.20640	0.43227
2179.27783	0.43395
2177.34927	0.43561
2175.42070	0.43723
2173.49214	0.43878
2171.56357	0.44023
2169.63501	0.44159
2167.70645	0.44299
2165.77788	0.44435
2163.84932	0.44557
2161.92075	0.44666
2159.99219	0.44763
2158.06362	0.44862
2156.13506	0.44967
2154.20649	0.45058
2152.27793	0.45138
2150.34937	0.45219
2148.42080	0.45299
2146.49224	0.45373
2144.56367	0.45428
2142.63511	0.45466
2140.70654	0.45495
2138.77798	0.45521
2136.84941	0.45543
2134.92085	0.45554
2132.99229	0.45550
2131.06372	0.45529
2129.13516	0.45492
2127.20659	0.45462
2125.27803	0.45446
2123.34946	0.45410
2121.42090	0.45352
2119.49233	0.45299
2117.56377	0.45254
2115.63521	0.45196
2113.70664	0.45113
2111.77808	0.45007
2109.84951	0.44893
2107.92095	0.44791
2105.99238	0.44702
2104.06382	0.44604
2102.13525	0.44481
2100.20669	0.44334
2098.27812	0.44180
2096.34956	0.44029
2094.42100	0.43875
2092.49243	0.43712
2090.56387	0.43542
2088.63530	0.43368
2086.70674	0.43195
2084.77817	0.43020
2082.84961	0.42834
2080.92104	0.42642
2078.99248	0.42449
2077.06392	0.42249
2075.13535	0.42031
2073.20679	0.41800
2071.27822	0.41567
2069.34966	0.41341
2067.42109	0.41120
2065.49253	0.40894
2063.56396	0.40659
2061.63540	0.40419
2059.70684	0.40171
2057.77827	0.39905
2055.84971	0.39637
2053.92114	0.39378
2051.99258	0.39119
2050.06401	0.38860
2048.13545	0.38608
2046.20688	0.38347
2044.27832	0.38086
2042.34976	0.37830
2040.42119	0.37559
2038.49263	0.37276
2036.56406	0.36997
2034.63550	0.36717
2032.70693	0.36432
2030.77837	0.36150
2028.84980	0.35875
2026.92124	0.35595
2024.99268	0.35308
2023.06411	0.35037
2021.13555	0.34784
2019.20698	0.34533
2017.27842	0.34270
2015.34985	0.33989
2013.42129	0.33702
2011.49272	0.33417
2009.56416	0.33134
2007.63560	0.32858
2005.70703	0.32595
2003.77847	0.32333
2001.84990	0.32069
1999.92134	0.31809
1997.99277	0.31546
1996.06421	0.31284
1994.13564	0.31043
1992.20708	0.30814
1990.27852	0.30563
1988.34995	0.30305
1986.42139	0.30055
1984.49282	0.29806
1982.56426	0.29562
1980.63569	0.29326
1978.70713	0.29093
1976.77856	0.28869
1974.85000	0.28650
1972.92144	0.28424
1970.99287	0.28210
1969.06431	0.28019
1967.13574	0.27829
1965.20718	0.27621
1963.27861	0.27411
1961.35005	0.27217
1959.42148	0.27029
1957.49292	0.26850
1955.56436	0.26677
1953.63579	0.26497
1951.70723	0.26312
1949.77866	0.26138
1947.85010	0.25983
1945.92153	0.25852
1943.99297	0.25737
1942.06440	0.25612
1940.13584	0.25445
1938.20728	0.25268
1936.27871	0.25117
1934.35015	0.24986
1932.42158	0.24865
1930.49302	0.24746
1928.56445	0.24632
1926.63589	0.24533
1924.70732	0.24455
1922.77876	0.24379
1920.85020	0.24283
1918.92163	0.24190
1916.99307	0.24098
1915.06450	0.23991
1913.13594	0.23893
1911.20737	0.23835
1909.27881	0.23792
1907.35024	0.23729
1905.42168	0.23642
1903.49312	0.23562
1901.56455	0.23498
1899.63599	0.23437
1897.70742	0.23390
1895.77886	0.23367
1893.85029	0.23342
1891.92173	0.23299
1889.99316	0.23274
1888.06460	0.23259
1886.13604	0.23232
1884.20747	0.23199
1882.27891	0.23168
1880.35034	0.23150
1878.42178	0.23141
1876.49321	0.23139
1874.56465	0.23139
1872.63608	0.23157
1870.70752	0.23215
1868.77896	0.23311
1866.85039	0.23344
1864.92183	0.23295
1862.99326	0.23265
1861.06470	0.23286
1859.13613	0.23334
1857.20757	0.23373
1855.27900	0.23409
1853.35044	0.23451
1851.42187	0.23505
1849.49331	0.23574
1847.56475	0.23666
1845.63618	0.23784
1843.70762	0.23905
1841.77905	0.23961
1839.85049	0.23976
1837.92192	0.24040
1835.99336	0.24135
1834.06479	0.24232
1832.13623	0.24347
1830.20767	0.24520
1828.27910	0.24688
1826.35054	0.24791
1824.42197	0.24903
1822.49341	0.25005
1820.56484	0.25101
1818.63628	0.25227
1816.70771	0.25391
1814.77915	0.25561
1812.85059	0.25747
1810.92202	0.25970
1808.99346	0.26188
1807.06489	0.26376
1805.13633	0.26556
1803.20776	0.26782
1801.27920	0.27059
1799.35063	0.27355
1797.42207	0.27597
1795.49351	0.27828
1793.56494	0.28133
1791.63638	0.28534
1789.70781	0.28863
1787.77925	0.29079
1785.85068	0.29364
1783.92212	0.29730
1781.99355	0.30136
1780.06499	0.30571
1778.13643	0.31018
1776.20786	0.31443
1774.27930	0.31913
1772.35073	0.32547
1770.42217	0.33179
1768.49360	0.33655
1766.56504	0.34121
1764.63647	0.34628
1762.70791	0.35221
1760.77935	0.35982
1758.85078	0.36677
1756.92222	0.37372
1754.99365	0.38142
1753.06509	0.38849
1751.13652	0.39716
1749.20796	0.40818
1747.27939	0.41868
1745.35083	0.42769
1743.42227	0.43729
1741.49370	0.44798
1739.56514	0.46052
1737.63657	0.47296
1735.70801	0.48394
1733.77944	0.50067
1731.85088	0.52031
1729.92231	0.53544
1727.99375	0.55073
1726.06519	0.56731
1724.13662	0.58566
1722.20806	0.60561
1720.27949	0.62414
1718.35093	0.64620
1716.42236	0.67881
1714.49380	0.70926
1712.56523	0.73350
1710.63667	0.75713
1708.70811	0.78283
1706.77954	0.81224
1704.85098	0.84742
1702.92241	0.87879
1700.99385	0.90989
1699.06528	0.95590
1697.13672	0.99745
1695.20815	1.03987
1693.27959	1.08169
1691.35103	1.11565
1689.42246	1.15482
1687.49390	1.19617
1685.56533	1.23602
1683.63677	1.29686
1681.70820	1.35967
1679.77964	1.40002
1677.85107	1.43865
1675.92251	1.48330
1673.99395	1.53887
1672.06538	1.58855
1670.13682	1.63680
1668.20825	1.69878
1666.27969	1.74887
1664.35112	1.79129
1662.42256	1.84483
1660.49399	1.90609
1658.56543	1.95513
1656.63687	1.99482
1654.70830	2.02996
1652.77974	2.08473
1650.85117	2.13784
1648.92261	2.15710
1646.99404	2.18216
1645.06548	2.21200
1643.13691	2.23189
1641.20835	2.24230
1639.27979	2.25097
1637.35122	2.25588
1635.42266	2.25420
1633.49409	2.24700
1631.56553	2.23502
1629.63696	2.21914
1627.70840	2.19275
1625.77983	2.16231
1623.85127	2.12291
1621.92271	2.07352
1619.99414	2.02912
1618.06558	1.98522
1616.13701	1.92305
1614.20845	1.86013
1612.27988	1.81195
1610.35132	1.76168
1608.42275	1.70727
1606.49419	1.65321
1604.56562	1.60275
1602.63706	1.55427
1600.70850	1.50762
1598.77993	1.46448
1596.85137	1.42358
1594.92280	1.38394
1592.99424	1.34566
1591.06567	1.31069
1589.13711	1.27805
1587.20854	1.24738
1585.27998	1.21908
1583.35142	1.19301
1581.42285	1.16935
1579.49429	1.14912
1577.56572	1.13096
1575.63716	1.10894
1573.70859	1.08960
1571.78003	1.07706
1569.85146	1.06400
1567.92290	1.04926
1565.99434	1.03801
1564.06577	1.02944
1562.13721	1.02277
1560.20864	1.01847
1558.28008	1.01397
1556.35151	1.00921
1554.42295	1.00544
1552.49438	1.00168
1550.56582	0.99706
1548.63726	0.99094
1546.70869	0.98395
1544.78013	0.97581
1542.85156	0.96580
1540.92300	0.95157
1538.99443	0.92936
1537.06587	0.91254
1535.13730	0.90106
1533.20874	0.88637
1531.28018	0.87053
1529.35161	0.85881
1527.42305	0.84796
1525.49448	0.83683
1523.56592	0.82743
1521.63735	0.81862
1519.70879	0.80892
1517.78022	0.80006
1515.85166	0.79041
1513.92310	0.78066
1511.99453	0.77242
1510.06597	0.76530
1508.13740	0.75890
1506.20884	0.74848
1504.28027	0.73772
1502.35171	0.73130
1500.42314	0.72626
1498.49458	0.72123
1496.56602	0.71519
1494.63745	0.70890
1492.70889	0.70400
1490.78032	0.70008
1488.85176	0.69555
1486.92319	0.69026
1484.99463	0.68564
1483.06606	0.68225
1481.13750	0.67960
1479.20894	0.67738
1477.28037	0.67584
1475.35181	0.67487
1473.42324	0.67385
1471.49468	0.67176
1469.56611	0.66895
1467.63755	0.66653
1465.70898	0.66471
1463.78042	0.66301
1461.85186	0.66157
1459.92329	0.66114
1457.99473	0.66163
1456.06616	0.66085
1454.13760	0.65796
1452.20903	0.65510
1450.28047	0.65259
1448.35190	0.65047
1446.42334	0.64834
1444.49478	0.64608
1442.56621	0.64393
1440.63765	0.64188
1438.70908	0.63999
1436.78052	0.63783
1434.85195	0.63513
1432.92339	0.63279
1430.99482	0.63123
1429.06626	0.63011
1427.13770	0.62923
1425.20913	0.62881
1423.28057	0.62874
1421.35200	0.62865
1419.42344	0.62863
1417.49487	0.62812
1415.56631	0.62650
1413.63774	0.62500
1411.70918	0.62435
1409.78062	0.62430
1407.85205	0.62448
1405.92349	0.62492
1403.99492	0.62534
1402.06636	0.62519
1400.13779	0.62453
1398.20923	0.62325
1396.28066	0.62119
1394.35210	0.61833
1392.42354	0.61500
1390.49497	0.61201
1388.56641	0.60935
1386.63784	0.60621
1384.70928	0.60248
1382.78071	0.59897
1380.85215	0.59587
1378.92358	0.59324
1376.99502	0.59124
1375.06646	0.58978
1373.13789	0.58850
1371.20933	0.58740
1369.28076	0.58655
1367.35220	0.58562
1365.42363	0.58462
1363.49507	0.58370
1361.56650	0.58239
1359.63794	0.58066
1357.70937	0.57924
1355.78081	0.57818
1353.85225	0.57723
1351.92368	0.57641
1349.99512	0.57566
1348.06655	0.57479
1346.13799	0.57377
1344.20942	0.57286
1342.28086	0.57226
1340.35229	0.57189
1338.42373	0.57136
1336.49517	0.57045
1334.56660	0.56949
1332.63804	0.56883
1330.70947	0.56861
1328.78091	0.56863
1326.85234	0.56858
1324.92378	0.56840
1322.99521	0.56840
1321.06665	0.56871
1319.13809	0.56900
1317.20952	0.56889
1315.28096	0.56843
1313.35239	0.56787
1311.42383	0.56721
1309.49526	0.56642
1307.56670	0.56568
1305.63813	0.56505
1303.70957	0.56442
1301.78101	0.56371
1299.85244	0.56287
1297.92388	0.56190
1295.99531	0.56088
1294.06675	0.55992
1292.13818	0.55902
1290.20962	0.55803
1288.28105	0.55692
1286.35249	0.55585
1284.42393	0.55496
1282.49536	0.55420
1280.56680	0.55331
1278.63823	0.55217
1276.70967	0.55098
1274.78110	0.55005
1272.85254	0.54942
1270.92397	0.54887
1268.99541	0.54820
1267.06685	0.54750
1265.13828	0.54683
1263.20972	0.54618
1261.28115	0.54562
1259.35259	0.54512
1257.42402	0.54457
1255.49546	0.54414
1253.56689	0.54390
1251.63833	0.54374
1249.70977	0.54367
1247.78120	0.54367
1245.85264	0.54345
1243.92407	0.54290
1241.99551	0.54220
1240.06694	0.54124
1238.13838	0.53994
1236.20981	0.53847
1234.28125	0.53697
1232.35269	0.53542
1230.42412	0.53382
1228.49556	0.53231
1226.56699	0.53102
1224.63843	0.52980
1222.70986	0.52851
1220.78130	0.52732
1218.85273	0.52642
1216.92417	0.52553
1214.99561	0.52440
1213.06704	0.52332
1211.13848	0.52251
1209.20991	0.52186
1207.28135	0.52126
1205.35278	0.52064
1203.42422	0.51998
1201.49565	0.51927
1199.56709	0.51858
1197.63853	0.51789
1195.70996	0.51708
1193.78140	0.51625
1191.85283	0.51567
1189.92427	0.51536
1187.99570	0.51508
1186.06714	0.51482
1184.13857	0.51474
1182.21001	0.51496
1180.28145	0.51546
1178.35288	0.51618
1176.42432	0.51712
1174.49575	0.51813
1172.56719	0.51887
1170.63862	0.51913
1168.71006	0.51913
1166.78149	0.51908
1164.85293	0.51910
1162.92437	0.51928
1160.99580	0.51946
1159.06724	0.51927
1157.13867	0.51867
1155.21011	0.51778
1153.28154	0.51651
1151.35298	0.51494
1149.42441	0.51299
1147.49585	0.51063
1145.56729	0.50816
1143.63872	0.50571
1141.71016	0.50334
1139.78159	0.50126
1137.85303	0.49947
1135.92446	0.49786
1133.99590	0.49657
1132.06733	0.49566
1130.13877	0.49485
1128.21021	0.49387
1126.28164	0.49297
1124.35308	0.49239
1122.42451	0.49183
1120.49595	0.49131
1118.56738	0.49121
1116.63882	0.49145
1114.71025	0.49177
1112.78169	0.49211
1110.85312	0.49249
1108.92456	0.49316
1106.99600	0.49419
1105.06743	0.49533
1103.13887	0.49650
1101.21030	0.49778
1099.28174	0.49947
1097.35317	0.50184
1095.42461	0.50473
1093.49604	0.50805
1091.56748	0.51211
1089.63892	0.51721
1087.71035	0.52347
1085.78179	0.53066
1083.85322	0.53804
1081.92466	0.54489
1079.99609	0.55072
1078.06753	0.55460
1076.13896	0.55527
1074.21040	0.55244
1072.28184	0.54728
1070.35327	0.54101
1068.42471	0.53405
1066.49614	0.52717
1064.56758	0.52110
1062.63901	0.51569
1060.71045	0.51065
1058.78188	0.50601
1056.85332	0.50208
1054.92476	0.49886
1052.99619	0.49608
1051.06763	0.49370
1049.13906	0.49183
1047.21050	0.49039
1045.28193	0.48918
1043.35337	0.48817
1041.42480	0.48761
1039.49624	0.48732
1037.56768	0.48694
1035.63911	0.48672
1033.71055	0.48655
1031.78198	0.48609
1029.85342	0.48557
1027.92485	0.48510
1025.99629	0.48449
1024.06772	0.48394
1022.13916	0.48378
1020.21060	0.48410
1018.28203	0.48471
1016.35347	0.48534
1014.42490	0.48595
1012.49634	0.48639
1010.56777	0.48659
1008.63921	0.48712
1006.71064	0.48832
1004.78208	0.49003
1002.85352	0.49218
1000.92495	0.49485
998.99639	0.49825
997.06782	0.50220
995.13926	0.50620
993.21069	0.51001
991.28213	0.51336
989.35356	0.51577
987.42500	0.51712
985.49644	0.51773
983.56787	0.51814
981.63931	0.51892
979.71074	0.52034
977.78218	0.52226
975.85361	0.52449
973.92505	0.52711
971.99648	0.53011
970.06792	0.53341
968.13936	0.53702
966.21079	0.54095
964.28223	0.54528
962.35366	0.55016
960.42510	0.55549
958.49653	0.56084
956.56797	0.56613
954.63940	0.57204
952.71084	0.57886
950.78228	0.58578
948.85371	0.59213
946.92515	0.59815
944.99658	0.60420
943.06802	0.61038
941.13945	0.61671
939.21089	0.62276
937.28232	0.62850
935.35376	0.63435
933.42520	0.64020
931.49663	0.64564
929.56807	0.65065
927.63950	0.65576
925.71094	0.66161
923.78237	0.66826
921.85381	0.67519
919.92524	0.68211
917.99668	0.68926
916.06812	0.69683
914.13955	0.70464
912.21099	0.71276
910.28242	0.72130
908.35386	0.72977
906.42529	0.73772
904.49673	0.74566
902.56816	0.75413
900.63960	0.76290
898.71104	0.77253
896.78247	0.78390
894.85391	0.79532
892.92534	0.80404
890.99678	0.81141
889.06821	0.82091
887.13965	0.83221
885.21108	0.84392
883.28252	0.85684
881.35396	0.86944
879.42539	0.88058
877.49683	0.89278
875.56826	0.90600
873.63970	0.91802
871.71113	0.92840
869.78257	0.93800
867.85400	0.94879
865.92544	0.96091
863.99687	0.97235
862.06831	0.98257
860.13975	0.99266
858.21118	1.00412
856.28262	1.01647
854.35405	1.02863
852.42549	1.04140
850.49692	1.05383
848.56836	1.06336
846.63979	1.07230
844.71123	1.08361
842.78267	1.09555
840.85410	1.10802
838.92554	1.12159
836.99697	1.13512
835.06841	1.14726
833.13984	1.15411
831.21128	1.15757
829.28271	1.16630
827.35415	1.18144
825.42559	1.19735
823.49702	1.20924
821.56846	1.21523
819.63989	1.22111
817.71133	1.23119
815.78276	1.24147
813.85420	1.24969
811.92563	1.25479
809.99707	1.26024
808.06851	1.27505
806.13994	1.29237
804.21138	1.29748
802.28281	1.29353
800.35425	1.29449
798.42568	1.31778
796.49712	1.34838
794.56855	1.35417
792.63999	1.36729
790.71143	1.41380
788.78286	1.42162
786.85430	1.36501
784.92573	1.33315
782.99717	1.33733
781.06860	1.35904
779.14004	1.37710
777.21147	1.36851
775.28291	1.35070
773.35435	1.32827
771.42578	1.35633
769.49722	1.45097
767.56865	1.47619
765.64009	1.41179
763.71152	1.43690
761.78296	1.62045
759.85439	1.72926
757.92583	1.52245
755.99727	1.33385
754.06870	1.21655
752.14014	1.12611
750.21157	1.08127
748.28301	1.10084
746.35444	1.14771
744.42588	1.22293
742.49731	1.31080
740.56875	1.21543
738.64019	1.05156
736.71162	0.97202
734.78306	0.93713
732.85449	0.85490
730.92593	0.75801
728.99736	0.68631
727.06880	0.60364
725.14023	0.52335
723.21167	0.47878
721.28311	0.47155
719.35454	0.39048
717.42598	0.26615
715.49741	0.24282
713.56885	0.32596
711.64028	0.35819
709.71172	0.26144
707.78315	0.18976
705.85459	0.12773
703.92603	0.04483
701.99746	0.02508
700.06890	0.09843
698.14033	0.16988
696.21177	0.20006
694.28320	0.18535
692.35464	0.14564
690.42607	0.20039
688.49751	0.32059
686.56895	0.28778
684.64038	0.14207
682.71182	0.11227
680.78325	0.18003
678.85469	0.21775
676.92612	0.22198
674.99756	0.25377
673.06899	0.29299
671.14043	0.31294
669.21187	0.30796
667.28330	0.26773
665.35474	0.24081
663.42617	0.22266
661.49761	0.19836
659.56904	0.19931
657.64048	0.19108
655.71191	0.17628
653.78335	0.25117
651.85479	0.34631
649.92622	0.25438
647.99766	0.14680
646.06909	0.07866
644.14053	0.03834
642.21196	0.06143
640.28340	0.12963
638.35483	0.21925
636.42627	0.30382
634.49771	0.43181
632.56914	0.55630
630.64058	0.38582
628.71201	0.24966
626.78345	0.20668
624.85488	0.17358
622.92632	0.15544
620.99775	0.17994
619.06919	0.22597
617.14062	0.25197
615.21206	0.22745
613.28350	0.18575
611.35493	0.18300
609.42637	0.22507
607.49780	0.26848
605.56924	0.28615
603.64067	0.28940
601.71211	0.25916
599.78354	0.20100
597.85498	0.16007
595.92642	0.14207
593.99785	0.13471
592.06929	0.14664
590.14072	0.16016
588.21216	0.19095
586.28359	0.27094
584.35503	0.30995
582.42646	0.20891
580.49790	0.10476
578.56934	0.08504
576.64077	0.13346
574.71221	0.17837
572.78364	0.18833
570.85508	0.22144
568.92651	0.30444
566.99795	0.39578
565.06938	0.43637
563.14082	0.41955
561.21226	0.29747
559.28369	0.13806
557.35513	0.08056
555.42656	0.14464
553.49800	0.18807
551.56943	0.18582
549.64087	0.17906
547.71230	0.20217
545.78374	0.31322
543.85518	0.39023
541.92661	0.27240
539.99805	0.19728
538.06948	0.22987
536.14092	0.24236
534.21235	0.15688
532.28379	0.09310
530.35522	0.07793
528.42666	0.12688
526.49810	0.19371
524.56953	0.16017
522.64097	0.11648
520.71240	0.13317
518.78384	0.16444
516.85527	0.21062
514.92671	0.23629
512.99814	0.20310
511.06958	0.15139
509.14102	0.09229
507.21245	0.07963
505.28389	0.12095
503.35532	0.14242
501.42676	0.11588
499.49819	0.11165
