3997.91411	0.07507
3995.98555	0.07502
3994.05698	0.07470
3992.12842	0.07473
3990.19985	0.07555
3988.27129	0.07651
3986.34272	0.07719
3984.41416	0.07779
3982.48560	0.07833
3980.55703	0.07866
3978.62847	0.07876
3976.69990	0.07875
3974.77134	0.07861
3972.84277	0.07850
3970.91421	0.07867
3968.98564	0.07889
3967.05708	0.07901
3965.12852	0.07918
3963.19995	0.07948
3961.27139	0.07992
3959.34282	0.08002
3957.41426	0.07953
3955.48569	0.07928
3953.55713	0.07966
3951.62856	0.08019
3949.70000	0.08087
3947.77144	0.08135
3945.84287	0.08105
3943.91431	0.08075
3941.98574	0.08084
3940.05718	0.08048
3938.12861	0.07970
3936.20005	0.07941
3934.27148	0.07997
3932.34292	0.08098
3930.41436	0.08157
3928.48579	0.08118
3926.55723	0.08082
3924.62866	0.08133
3922.70010	0.08153
3920.77153	0.08096
3918.84297	0.08066
3916.91440	0.08061
3914.98584	0.08024
3913.05728	0.07981
3911.12871	0.07953
3909.20015	0.07929
3907.27158	0.07938
3905.34302	0.08052
3903.41445	0.08253
3901.48589	0.08348
3899.55732	0.08294
3897.62876	0.08190
3895.70020	0.08075
3893.77163	0.08047
3891.84307	0.08151
3889.91450	0.08241
3887.98594	0.08209
3886.05737	0.08217
3884.12881	0.08297
3882.20024	0.08329
3880.27168	0.08329
3878.34312	0.08283
3876.41455	0.08233
3874.48599	0.08292
3872.55742	0.08410
3870.62886	0.08523
3868.70029	0.08595
3866.77173	0.08555
3864.84316	0.08544
3862.91460	0.08586
3860.98604	0.08547
3859.05747	0.08487
3857.12891	0.08516
3855.20034	0.08698
3853.27178	0.09049
3851.34321	0.09199
3849.41465	0.08948
3847.48608	0.08721
3845.55752	0.08681
3843.62896	0.08823
3841.70039	0.09062
3839.77183	0.09316
3837.84326	0.09490
3835.91470	0.09455
3833.98613	0.09355
3832.05757	0.09348
3830.12900	0.09385
3828.20044	0.09414
3826.27187	0.09466
3824.34331	0.09551
3822.41475	0.09719
3820.48618	0.10003
3818.55762	0.10129
3816.62905	0.10091
3814.70049	0.10059
3812.77192	0.09991
3810.84336	0.09956
3808.91479	0.10053
3806.98623	0.10299
3805.05767	0.10539
3803.12910	0.10699
3801.20054	0.10918
3799.27197	0.11054
3797.34341	0.11027
3795.41484	0.11035
3793.48628	0.11073
3791.55771	0.11118
3789.62915	0.11205
3787.70059	0.11344
3785.77202	0.11540
3783.84346	0.11742
3781.91489	0.11887
3779.98633	0.12037
3778.05776	0.12230
3776.12920	0.12369
3774.20063	0.12471
3772.27207	0.12622
3770.34351	0.12873
3768.41494	0.13164
3766.48638	0.13357
3764.55781	0.13500
3762.62925	0.13636
3760.70068	0.13813
3758.77212	0.14108
3756.84355	0.14429
3754.91499	0.14723
3752.98643	0.15110
3751.05786	0.15628
3749.12930	0.16071
3747.20073	0.16288
3745.27217	0.16530
3743.34360	0.16943
3741.41504	0.17279
3739.48647	0.17534
3737.55791	0.17939
3735.62935	0.18583
3733.70078	0.19286
3731.77222	0.19739
3729.84365	0.20074
3727.91509	0.20510
3725.98652	0.21125
3724.05796	0.21798
3722.12939	0.22379
3720.20083	0.22936
3718.27227	0.23507
3716.34370	0.24087
3714.41514	0.24762
3712.48657	0.25786
3710.55801	0.27306
3708.62944	0.28777
3706.70088	0.29883
3704.77231	0.30993
3702.84375	0.32349
3700.91519	0.34081
3698.98662	0.35925
3697.05806	0.37631
3695.12949	0.39468
3693.20093	0.41502
3691.27236	0.43729
3689.34380	0.46530
3687.41523	0.49872
3685.48667	0.52781
3683.55811	0.55347
3681.62954	0.58158
3679.70098	0.61366
3677.77241	0.64806
3675.84385	0.68883
3673.91528	0.74201
3671.98672	0.78486
3670.05815	0.82311
3668.12959	0.87524
3666.20103	0.92248
3664.27246	0.96219
3662.34390	1.00564
3660.41533	1.05303
3658.48677	1.09929
3656.55820	1.14815
3654.62964	1.20272
3652.70107	1.24886
3650.77251	1.28994
3648.84395	1.34705
3646.91538	1.41510
3644.98682	1.46349
3643.05825	1.50082
3641.12969	1.53993
3639.20112	1.58383
3637.27256	1.62858
3635.34399	1.67233
3633.41543	1.71613
3631.48687	1.75726
3629.55830	1.79877
3627.62974	1.85200
3625.70117	1.90112
3623.77261	1.93416
3621.84404	1.96581
3619.91548	2.00316
3617.98691	2.04893
3616.05835	2.09200
3614.12979	2.12804
3612.20122	2.16733
3610.27266	2.20697
3608.34409	2.24604
3606.41553	2.28758
3604.48696	2.32639
3602.55840	2.36109
3600.62983	2.39860
3598.70127	2.43934
3596.77271	2.47933
3594.84414	2.52099
3592.91558	2.56419
3590.98701	2.60271
3589.05845	2.63758
3587.12988	2.68041
3585.20132	2.72739
3583.27275	2.76626
3581.34419	2.80309
3579.41562	2.84427
3577.48706	2.88797
3575.55850	2.93046
3573.62993	2.97275
3571.70137	3.01493
3569.77280	3.05701
3567.84424	3.10289
3565.91567	3.15728
3563.98711	3.20592
3562.05854	3.24407
3560.12998	3.28326
3558.20142	3.32487
3556.27285	3.36773
3554.34429	3.41212
3552.41572	3.45987
3550.48716	3.50882
3548.55859	3.55576
3546.63003	3.60251
3544.70146	3.65165
3542.77290	3.70039
3540.84434	3.74714
3538.91577	3.79425
3536.98721	3.84093
3535.05864	3.88784
3533.13008	3.93457
3531.20151	3.98083
3529.27295	4.02911
3527.34438	4.08052
3525.41582	4.13018
3523.48726	4.17538
3521.55869	4.21973
3519.63013	4.26600
3517.70156	4.31597
3515.77300	4.36788
3513.84443	4.41868
3511.91587	4.46780
3509.98730	4.51908
3508.05874	4.57089
3506.13018	4.61670
3504.20161	4.65860
3502.27305	4.70127
3500.34448	4.74705
3498.41592	4.79769
3496.48735	4.85582
3494.55879	4.91637
3492.63022	4.96681
3490.70166	5.00660
3488.77310	5.04628
3486.84453	5.09189
3484.91597	5.14619
3482.98740	5.20701
3481.05884	5.26403
3479.13027	5.31259
3477.20171	5.35957
3475.27314	5.40715
3473.34458	5.45350
3471.41602	5.50096
3469.48745	5.54825
3467.55889	5.59422
3465.63032	5.64517
3463.70176	5.70358
3461.77319	5.76397
3459.84463	5.82629
3457.91606	5.88371
3455.98750	5.92633
3454.05894	5.95961
3452.13037	6.00168
3450.20181	6.06418
3448.27324	6.13348
3446.34468	6.19680
3444.41611	6.25180
3442.48755	6.30182
3440.55898	6.35284
3438.63042	6.40404
3436.70186	6.44967
3434.77329	6.50315
3432.84473	6.56677
3430.91616	6.61708
3428.98760	6.67412
3427.05903	6.74710
3425.13047	6.80070
3423.20190	6.82614
3421.27334	6.86490
3419.34478	6.94002
3417.41621	7.00736
3415.48765	7.03545
3413.55908	7.05579
3411.63052	7.09072
3409.70195	7.14532
3407.77339	7.23684
3405.84482	7.31468
3403.91626	7.35623
3401.98770	7.39242
3400.05913	7.41011
3398.13057	7.43441
3396.20200	7.48747
3394.27344	7.54123
3392.34487	7.58496
3390.41631	7.63237
3388.48774	7.66312
3386.55918	7.66555
3384.63062	7.67082
3382.70205	7.73354
3380.77349	7.84023
3378.84492	7.90991
3376.91636	7.93546
3374.98779	7.94351
3373.05923	7.94424
3371.13066	7.95892
3369.20210	8.01562
3367.27354	8.07023
3365.34497	8.11380
3363.41641	8.15965
3361.48784	8.16034
3359.55928	8.16980
3357.63071	8.23520
3355.70215	8.31280
3353.77358	8.36779
3351.84502	8.39248
3349.91646	8.35094
3347.98789	8.30447
3346.05933	8.33499
3344.13076	8.42384
3342.20220	8.50346
3340.27363	8.50363
3338.34507	8.45377
3336.41650	8.45486
3334.48794	8.53076
3332.55937	8.52648
3330.63081	8.48917
3328.70225	8.55127
3326.77368	8.61425
3324.84512	8.65155
3322.91655	8.68454
3320.98799	8.65868
3319.05942	8.61959
3317.13086	8.62302
3315.20229	8.57945
3313.27373	8.51102
3311.34517	8.50082
3309.41660	8.54988
3307.48804	8.63671
3305.55947	8.67435
3303.63091	8.64460
3301.70234	8.65328
3299.77378	8.75663
3297.84521	8.81567
3295.91665	8.75154
3293.98809	8.63975
3292.05952	8.54132
3290.13096	8.51197
3288.20239	8.56179
3286.27383	8.68451
3284.34526	8.73999
3282.41670	8.60733
3280.48813	8.48244
3278.55957	8.52914
3276.63101	8.69742
3274.70244	8.83587
3272.77388	8.77313
3270.84531	8.58494
3268.91675	8.49210
3266.98818	8.53051
3265.05962	8.64470
3263.13105	8.71372
3261.20249	8.63274
3259.27393	8.55289
3257.34536	8.65637
3255.41680	8.83049
3253.48823	8.81630
3251.55967	8.69950
3249.63110	8.68179
3247.70254	8.67749
3245.77397	8.60200
3243.84541	8.58337
3241.91685	8.60881
3239.98828	8.66346
3238.05972	8.79977
3236.13115	8.88245
3234.20259	8.82345
3232.27402	8.69869
3230.34546	8.59905
3228.41689	8.65062
3226.48833	8.83265
3224.55977	8.90627
3222.63120	8.78150
3220.70264	8.63273
3218.77407	8.55834
3216.84551	8.49126
3214.91694	8.39472
3212.98838	8.29006
3211.05981	8.26412
3209.13125	8.36946
3207.20269	8.42086
3205.27412	8.38004
3203.34556	8.40529
3201.41699	8.39563
3199.48843	8.25575
3197.55986	8.12754
3195.63130	8.08919
3193.70273	8.09552
3191.77417	8.07852
3189.84561	8.00078
3187.91704	7.90571
3185.98848	7.84334
3184.05991	7.81392
3182.13135	7.79312
3180.20278	7.73881
3178.27422	7.63808
3176.34565	7.51509
3174.41709	7.39394
3172.48853	7.31276
3170.55996	7.26668
3168.63140	7.20227
3166.70283	7.12440
3164.77427	7.07093
3162.84570	7.01684
3160.91714	6.93064
3158.98857	6.85316
3157.06001	6.79773
3155.13145	6.73666
3153.20288	6.66132
3151.27432	6.57058
3149.34575	6.48005
3147.41719	6.39338
3145.48862	6.30550
3143.56006	6.22363
3141.63149	6.14410
3139.70293	6.06787
3137.77437	6.00360
3135.84580	5.93887
3133.91724	5.86280
3131.98867	5.78458
3130.06011	5.70583
3128.13154	5.62023
3126.20298	5.53803
3124.27441	5.47033
3122.34585	5.40142
3120.41729	5.32220
3118.48872	5.24321
3116.56016	5.16526
3114.63159	5.08749
3112.70303	5.01597
3110.77446	4.95218
3108.84590	4.88683
3106.91733	4.81267
3104.98877	4.73389
3103.06021	4.65545
3101.13164	4.58007
3099.20308	4.51009
3097.27451	4.44372
3095.34595	4.37670
3093.41738	4.30562
3091.48882	4.22850
3089.56025	4.15237
3087.63169	4.08805
3085.70312	4.02981
3083.77456	3.96551
3081.84600	3.89806
3079.91743	3.83370
3077.98887	3.77073
3076.06030	3.70687
3074.13174	3.64323
3072.20317	3.58236
3070.27461	3.52423
3068.34604	3.46631
3066.41748	3.40781
3064.48892	3.34834
3062.56035	3.28893
3060.63179	3.23276
3058.70322	3.17894
3056.77466	3.12389
3054.84609	3.06761
3052.91753	3.01276
3050.98896	2.95980
3049.06040	2.90782
3047.13184	2.85690
3045.20327	2.80658
3043.27471	2.75632
3041.34614	2.70640
3039.41758	2.65742
3037.48901	2.60928
3035.56045	2.56160
3033.63188	2.51502
3031.70332	2.47012
3029.77476	2.42649
3027.84619	2.38326
3025.91763	2.33972
3023.98906	2.29635
3022.06050	2.25425
3020.13193	2.21303
3018.20337	2.17208
3016.27480	2.13180
3014.34624	2.09251
3012.41768	2.05392
3010.48911	2.01583
3008.56055	1.97861
3006.63198	1.94213
3004.70342	1.90619
3002.77485	1.87109
3000.84629	1.83636
2998.91772	1.80138
2996.98916	1.76658
2995.06060	1.73302
2993.13203	1.70100
2991.20347	1.66968
2989.27490	1.63827
2987.34634	1.60701
2985.41777	1.57644
2983.48921	1.54642
2981.56064	1.51688
2979.63208	1.48798
2977.70352	1.45936
2975.77495	1.43064
2973.84639	1.40210
2971.91782	1.37459
2969.98926	1.34815
2968.06069	1.32199
2966.13213	1.29617
2964.20356	1.27119
2962.27500	1.24675
2960.34644	1.22261
2958.41787	1.19882
2956.48931	1.17545
2954.56074	1.15291
2952.63218	1.13135
2950.70361	1.11020
2948.77505	1.08874
2946.84648	1.06692
2944.91792	1.04550
2942.98936	1.02499
2941.06079	1.00497
2939.13223	0.98500
2937.20366	0.96534
2935.27510	0.94634
2933.34653	0.92788
2931.41797	0.91015
2929.48940	0.89324
2927.56084	0.87672
2925.63228	0.86067
2923.70371	0.84538
2921.77515	0.83044
2919.84658	0.81527
2917.91802	0.79973
2915.98945	0.78399
2914.06089	0.76842
2912.13232	0.75332
2910.20376	0.73866
2908.27520	0.72444
2906.34663	0.71067
2904.41807	0.69701
2902.48950	0.68357
2900.56094	0.67097
2898.63237	0.65904
2896.70381	0.64709
2894.77524	0.63519
2892.84668	0.62376
2890.91812	0.61261
2888.98955	0.60140
2887.06099	0.59016
2885.13242	0.57913
2883.20386	0.56851
2881.27529	0.55824
2879.34673	0.54809
2877.41816	0.53811
2875.48960	0.52840
2873.56104	0.51892
2871.63247	0.50972
2869.70391	0.50077
2867.77534	0.49194
2865.84678	0.48324
2863.91821	0.47470
2861.98965	0.46617
2860.06108	0.45765
2858.13252	0.44943
2856.20396	0.44190
2854.27539	0.43500
2852.34683	0.42823
2850.41826	0.42140
2848.48970	0.41451
2846.56113	0.40729
2844.63257	0.39986
2842.70400	0.39279
2840.77544	0.38637
2838.84687	0.38041
2836.91831	0.37473
2834.98975	0.36921
2833.06118	0.36377
2831.13262	0.35829
2829.20405	0.35283
2827.27549	0.34761
2825.34692	0.34253
2823.41836	0.33741
2821.48979	0.33217
2819.56123	0.32685
2817.63267	0.32161
2815.70410	0.31667
2813.77554	0.31192
2811.84697	0.30721
2809.91841	0.30252
2807.98984	0.29779
2806.06128	0.29321
2804.13271	0.28893
2802.20415	0.28468
2800.27559	0.28045
2798.34702	0.27642
2796.41846	0.27252
2794.48989	0.26865
2792.56133	0.26496
2790.63276	0.26141
2788.70420	0.25773
2786.77563	0.25386
2784.84707	0.25006
2782.91851	0.24648
2780.98994	0.24308
2779.06138	0.23980
2777.13281	0.23663
2775.20425	0.23364
2773.27568	0.23070
2771.34712	0.22770
2769.41855	0.22474
2767.48999	0.22173
2765.56143	0.21875
2763.63286	0.21603
2761.70430	0.21338
2759.77573	0.21060
2757.84717	0.20798
2755.91860	0.20568
2753.99004	0.20343
2752.06147	0.20102
2750.13291	0.19860
2748.20435	0.19630
2746.27578	0.19409
2744.34722	0.19196
2742.41865	0.18992
2740.49009	0.18790
2738.56152	0.18582
2736.63296	0.18370
2734.70439	0.18167
2732.77583	0.17987
2730.84727	0.17822
2728.91870	0.17649
2726.99014	0.17476
2725.06157	0.17309
2723.13301	0.17142
2721.20444	0.16983
2719.27588	0.16824
2717.34731	0.16661
2715.41875	0.16518
2713.49019	0.16386
2711.56162	0.16246
2709.63306	0.16108
2707.70449	0.15971
2705.77593	0.15836
2703.84736	0.15702
2701.91880	0.15568
2699.99023	0.15441
2698.06167	0.15314
2696.13311	0.15187
2694.20454	0.15083
2692.27598	0.15002
2690.34741	0.14920
2688.41885	0.14832
2686.49028	0.14732
2684.56172	0.14615
2682.63315	0.14516
2680.70459	0.14454
2678.77603	0.14394
2676.84746	0.14314
2674.91890	0.14231
2672.99033	0.14166
2671.06177	0.14114
2669.13320	0.14049
2667.20464	0.13970
2665.27607	0.13898
2663.34751	0.13842
2661.41895	0.13789
2659.49038	0.13730
2657.56182	0.13667
2655.63325	0.13622
2653.70469	0.13595
2651.77612	0.13557
2649.84756	0.13500
2647.91899	0.13453
2645.99043	0.13426
2644.06187	0.13405
2642.13330	0.13389
2640.20474	0.13369
2638.27617	0.13340
2636.34761	0.13309
2634.41904	0.13275
2632.49048	0.13242
2630.56191	0.13227
2628.63335	0.13224
2626.70479	0.13215
2624.77622	0.13207
2622.84766	0.13212
2620.91909	0.13219
2618.99053	0.13219
2617.06196	0.13211
2615.13340	0.13198
2613.20483	0.13197
2611.27627	0.13208
2609.34771	0.13221
2607.41914	0.13229
2605.49058	0.13230
2603.56201	0.13240
2601.63345	0.13275
2599.70488	0.13320
2597.77632	0.13344
2595.84775	0.13352
2593.91919	0.13372
2591.99062	0.13406
2590.06206	0.13438
2588.13350	0.13466
2586.20493	0.13501
2584.27637	0.13543
2582.34780	0.13581
2580.41924	0.13619
2578.49067	0.13657
2576.56211	0.13684
2574.63354	0.13721
2572.70498	0.13784
2570.77642	0.13845
2568.84785	0.13893
2566.91929	0.13943
2564.99072	0.13996
2563.06216	0.14052
2561.13359	0.14103
2559.20503	0.14143
2557.27646	0.14189
2555.34790	0.14256
2553.41934	0.14335
2551.49077	0.14406
2549.56221	0.14472
2547.63364	0.14538
2545.70508	0.14603
2543.77651	0.14663
2541.84795	0.14734
2539.91938	0.14826
2537.99082	0.14917
2536.06226	0.14985
2534.13369	0.15043
2532.20513	0.15112
2530.27656	0.15191
2528.34800	0.15269
2526.41943	0.15348
2524.49087	0.15427
2522.56230	0.15503
2520.63374	0.15578
2518.70518	0.15662
2516.77661	0.15757
2514.84805	0.15850
2512.91948	0.15940
2510.99092	0.16030
2509.06235	0.16120
2507.13379	0.16203
2505.20522	0.16280
2503.27666	0.16362
2501.34810	0.16456
2499.41953	0.16554
2497.49097	0.16640
2495.56240	0.16721
2493.63384	0.16814
2491.70527	0.16920
2489.77671	0.17022
2487.84814	0.17113
2485.91958	0.17204
2483.99102	0.17295
2482.06245	0.17384
2480.13389	0.17477
2478.20532	0.17577
2476.27676	0.17683
2474.34819	0.17791
2472.41963	0.17893
2470.49106	0.17989
2468.56250	0.18080
2466.63394	0.18166
2464.70537	0.18257
2462.77681	0.18363
2460.84824	0.18482
2458.91968	0.18600
2456.99111	0.18714
2455.06255	0.18828
2453.13398	0.18933
2451.20542	0.19028
2449.27686	0.19122
2447.34829	0.19223
2445.41973	0.19334
2443.49116	0.19449
2441.56260	0.19552
2439.63403	0.19647
2437.70547	0.19752
2435.77690	0.19867
2433.84834	0.19980
2431.91978	0.20098
2429.99121	0.20226
2428.06265	0.20348
2426.13408	0.20459
2424.20552	0.20568
2422.27695	0.20681
2420.34839	0.20807
2418.41982	0.20936
2416.49126	0.21050
2414.56270	0.21160
2412.63413	0.21283
2410.70557	0.21416
2408.77700	0.21554
2406.84844	0.21687
2404.91987	0.21805
2402.99131	0.21920
2401.06274	0.22051
2399.13418	0.22183
2397.20562	0.22312
2395.27705	0.22452
2393.34849	0.22594
2391.41992	0.22724
2389.49136	0.22865
2387.56279	0.23059
2385.63423	0.23330
2383.70566	0.23687
2381.77710	0.24152
2379.84854	0.24722
2377.91997	0.25373
2375.99141	0.26103
2374.06284	0.26941
2372.13428	0.27867
2370.20571	0.28812
2368.27715	0.29777
2366.34858	0.30777
2364.42002	0.31699
2362.49146	0.32427
2360.56289	0.32868
2358.63433	0.32955
2356.70576	0.32722
2354.77720	0.32196
2352.84863	0.31422
2350.92007	0.30571
2348.99150	0.30042
2347.06294	0.30112
2345.13437	0.30825
2343.20581	0.31809
2341.27725	0.32419
2339.34868	0.32608
2337.42012	0.32628
2335.49155	0.32603
2333.56299	0.32576
2331.63442	0.32587
2329.70586	0.32587
2327.77729	0.32511
2325.84873	0.32364
2323.92017	0.32214
2321.99160	0.32088
2320.06304	0.31919
2318.13447	0.31690
2316.20591	0.31484
2314.27734	0.31403
2312.34878	0.31441
2310.42021	0.31489
2308.49165	0.31469
2306.56309	0.31401
2304.63452	0.31346
2302.70596	0.31351
2300.77739	0.31413
2298.84883	0.31494
2296.92026	0.31578
2294.99170	0.31672
2293.06313	0.31773
2291.13457	0.31884
2289.20601	0.32004
2287.27744	0.32119
2285.34888	0.32224
2283.42031	0.32355
2281.49175	0.32541
2279.56318	0.32759
2277.63462	0.32986
2275.70605	0.33228
2273.77749	0.33465
2271.84893	0.33685
2269.92036	0.33905
2267.99180	0.34119
2266.06323	0.34313
2264.13467	0.34499
2262.20610	0.34697
2260.27754	0.34913
2258.34897	0.35137
2256.42041	0.35346
2254.49185	0.35541
2252.56328	0.35744
2250.63472	0.35956
2248.70615	0.36170
2246.77759	0.36382
2244.84902	0.36591
2242.92046	0.36795
2240.99189	0.37005
2239.06333	0.37225
2237.13477	0.37453
2235.20620	0.37686
2233.27764	0.37918
2231.34907	0.38144
2229.42051	0.38361
2227.49194	0.38576
2225.56338	0.38802
2223.63481	0.39040
2221.70625	0.39275
2219.77769	0.39500
2217.84912	0.39723
2215.92056	0.39952
2213.99199	0.40174
2212.06343	0.40385
2210.13486	0.40595
2208.20630	0.40812
2206.27773	0.41041
2204.34917	0.41271
2202.42061	0.41480
2200.49204	0.41677
2198.56348	0.41877
2196.63491	0.42078
2194.70635	0.42277
2192.77778	0.42476
2190.84922	0.42673
2188.92065	0.42860
2186.99209	0.43045
2185.06353	0.43233
2183.13496	0.43414
2181.20640	0.43586
2179.27783	0.43753
2177.34927	0.43915
2175.42070	0.44077
2173.49214	0.44234
2171.56357	0.44380
2169.63501	0.44530
2167.70645	0.44684
2165.77788	0.44817
2163.84932	0.44935
2161.92075	0.45060
2159.99219	0.45180
2158.06362	0.45277
2156.13506	0.45367
2154.20649	0.45463
2152.27793	0.45555
2150.34937	0.45638
2148.42080	0.45718
2146.49224	0.45794
2144.56367	0.45845
2142.63511	0.45872
2140.70654	0.45902
2138.77798	0.45939
2136.84941	0.45965
2134.92085	0.45974
2132.99229	0.45977
2131.06372	0.45972
2129.13516	0.45948
2127.20659	0.45918
2125.27803	0.45898
2123.34946	0.45871
2121.42090	0.45823
2119.49233	0.45764
2117.56377	0.45705
2115.63521	0.45640
2113.70664	0.45569
2111.77808	0.45490
2109.84951	0.45398
2107.92095	0.45302
2105.99238	0.45206
2104.06382	0.45098
2102.13525	0.44962
2100.20669	0.44807
2098.27812	0.44651
2096.34956	0.44505
2094.42100	0.44359
2092.49243	0.44209
2090.56387	0.44057
2088.63530	0.43891
2086.70674	0.43713
2084.77817	0.43529
2082.84961	0.43336
2080.92104	0.43140
2078.99248	0.42946
2077.06392	0.42742
2075.13535	0.42520
2073.20679	0.42288
2071.27822	0.42057
2069.34966	0.41837
2067.42109	0.41627
2065.49253	0.41417
2063.56396	0.41183
2061.63540	0.40931
2059.70684	0.40670
2057.77827	0.40405
2055.84971	0.40141
2053.92114	0.39883
2051.99258	0.39630
2050.06401	0.39378
2048.13545	0.39124
2046.20688	0.38863
2044.27832	0.38603
2042.34976	0.38342
2040.42119	0.38072
2038.49263	0.37791
2036.56406	0.37509
2034.63550	0.37224
2032.70693	0.36938
2030.77837	0.36665
2028.84980	0.36395
2026.92124	0.36126
2024.99268	0.35855
2023.06411	0.35581
2021.13555	0.35310
2019.20698	0.35042
2017.27842	0.34767
2015.34985	0.34481
2013.42129	0.34198
2011.49272	0.33930
2009.56416	0.33663
2007.63560	0.33384
2005.70703	0.33108
2003.77847	0.32844
2001.84990	0.32584
1999.92134	0.32320
1997.99277	0.32049
1996.06421	0.31784
1994.13564	0.31542
1992.20708	0.31308
1990.27852	0.31053
1988.34995	0.30792
1986.42139	0.30536
1984.49282	0.30287
1982.56426	0.30052
1980.63569	0.29819
1978.70713	0.29584
1976.77856	0.29354
1974.85000	0.29134
1972.92144	0.28920
1970.99287	0.28713
1969.06431	0.28513
1967.13574	0.28308
1965.20718	0.28092
1963.27861	0.27885
1961.35005	0.27691
1959.42148	0.27494
1957.49292	0.27302
1955.56436	0.27127
1953.63579	0.26957
1951.70723	0.26784
1949.77866	0.26617
1947.85010	0.26462
1945.92153	0.26320
1943.99297	0.26194
1942.06440	0.26066
1940.13584	0.25906
1938.20728	0.25735
1936.27871	0.25581
1934.35015	0.25447
1932.42158	0.25328
1930.49302	0.25206
1928.56445	0.25084
1926.63589	0.24978
1924.70732	0.24896
1922.77876	0.24813
1920.85020	0.24717
1918.92163	0.24631
1916.99307	0.24538
1915.06450	0.24423
1913.13594	0.24323
1911.20737	0.24258
1909.27881	0.24207
1907.35024	0.24144
1905.42168	0.24061
1903.49312	0.23982
1901.56455	0.23921
1899.63599	0.23872
1897.70742	0.23832
1895.77886	0.23801
1893.85029	0.23768
1891.92173	0.23725
1889.99316	0.23697
1888.06460	0.23672
1886.13604	0.23641
1884.20747	0.23613
1882.27891	0.23593
1880.35034	0.23579
1878.42178	0.23567
1876.49321	0.23568
1874.56465	0.23578
1872.63608	0.23598
1870.70752	0.23640
1868.77896	0.23716
1866.85039	0.23746
1864.92183	0.23708
1862.99326	0.23682
1861.06470	0.23703
1859.13613	0.23755
1857.20757	0.23801
1855.27900	0.23834
1853.35044	0.23863
1851.42187	0.23915
1849.49331	0.23996
1847.56475	0.24089
1845.63618	0.24192
1843.70762	0.24291
1841.77905	0.24337
1839.85049	0.24356
1837.92192	0.24422
1835.99336	0.24512
1834.06479	0.24605
1832.13623	0.24718
1830.20767	0.24882
1828.27910	0.25048
1826.35054	0.25160
1824.42197	0.25274
1822.49341	0.25381
1820.56484	0.25492
1818.63628	0.25629
1816.70771	0.25792
1814.77915	0.25956
1812.85059	0.26136
1810.92202	0.26349
1808.99346	0.26566
1807.06489	0.26760
1805.13633	0.26945
1803.20776	0.27173
1801.27920	0.27440
1799.35063	0.27724
1797.42207	0.27977
1795.49351	0.28225
1793.56494	0.28525
1791.63638	0.28908
1789.70781	0.29250
1787.77925	0.29492
1785.85068	0.29786
1783.92212	0.30148
1781.99355	0.30554
1780.06499	0.30988
1778.13643	0.31425
1776.20786	0.31838
1774.27930	0.32288
1772.35073	0.32898
1770.42217	0.33542
1768.49360	0.34065
1766.56504	0.34569
1764.63647	0.35090
1762.70791	0.35667
1760.77935	0.36409
1758.85078	0.37129
1756.92222	0.37858
1754.99365	0.38636
1753.06509	0.39341
1751.13652	0.40192
1749.20796	0.41281
1747.27939	0.42367
1745.35083	0.43314
1743.42227	0.44295
1741.49370	0.45372
1739.56514	0.46642
1737.63657	0.47909
1735.70801	0.49036
1733.77944	0.50729
1731.85088	0.52696
1729.92231	0.54213
1727.99375	0.55751
1726.06519	0.57418
1724.13662	0.59255
1722.20806	0.61238
1720.27949	0.63075
1718.35093	0.65254
1716.42236	0.68486
1714.49380	0.71544
1712.56523	0.73987
1710.63667	0.76339
1708.70811	0.78858
1706.77954	0.81718
1704.85098	0.85148
1702.92241	0.88221
1700.99385	0.91250
1699.06528	0.95704
1697.13672	0.99763
1695.20815	1.03878
1693.27959	1.07809
1691.35103	1.10911
1689.42246	1.14478
1687.49390	1.18259
1685.56533	1.21919
1683.63677	1.27477
1681.70820	1.33143
1679.77964	1.36741
1677.85107	1.40178
1675.92251	1.44156
1673.99395	1.49080
1672.06538	1.53454
1670.13682	1.57715
1668.20825	1.63086
1666.27969	1.67279
1664.35112	1.70764
1662.42256	1.75080
1660.49399	1.79867
1658.56543	1.83599
1656.63687	1.86759
1654.70830	1.90061
1652.77974	1.95763
1650.85117	2.00804
1648.92261	2.02566
1646.99404	2.05352
1645.06548	2.08840
1643.13691	2.11114
1641.20835	2.12561
1639.27979	2.13849
1637.35122	2.14744
1635.42266	2.15173
1633.49409	2.14819
1631.56553	2.13669
1629.63696	2.12250
1627.70840	2.10106
1625.77983	2.07658
1623.85127	2.04336
1621.92271	1.99974
1619.99414	1.96041
1618.06558	1.92285
1616.13701	1.86773
1614.20845	1.80826
1612.27988	1.76221
1610.35132	1.71501
1608.42275	1.66338
1606.49419	1.61154
1604.56562	1.56345
1602.63706	1.51685
1600.70850	1.47094
1598.77993	1.42800
1596.85137	1.38735
1594.92280	1.34830
1592.99424	1.31067
1591.06567	1.27552
1589.13711	1.24195
1587.20854	1.21028
1585.27998	1.18056
1583.35142	1.15226
1581.42285	1.12595
1579.49429	1.10306
1577.56572	1.08191
1575.63716	1.05523
1573.70859	1.03096
1571.78003	1.01482
1569.85146	0.99741
1567.92290	0.97704
1565.99434	0.96046
1564.06577	0.94605
1562.13721	0.93396
1560.20864	0.92435
1558.28008	0.90712
1556.35151	0.88870
1554.42295	0.87678
1552.49438	0.86582
1550.56582	0.85550
1548.63726	0.84504
1546.70869	0.83588
1544.78013	0.82818
1542.85156	0.82092
1540.92300	0.81272
1538.99443	0.80039
1537.06587	0.79056
1535.13730	0.78446
1533.20874	0.77742
1531.28018	0.76941
1529.35161	0.76328
1527.42305	0.75785
1525.49448	0.75211
1523.56592	0.74673
1521.63735	0.74126
1519.70879	0.73506
1517.78022	0.72954
1515.85166	0.72391
1513.92310	0.71831
1511.99453	0.71389
1510.06597	0.71054
1508.13740	0.70807
1506.20884	0.70320
1504.28027	0.69670
1502.35171	0.69256
1500.42314	0.68957
1498.49458	0.68672
1496.56602	0.68316
1494.63745	0.67931
1492.70889	0.67646
1490.78032	0.67450
1488.85176	0.67191
1486.92319	0.66807
1484.99463	0.66435
1483.06606	0.66131
1481.13750	0.65851
1479.20894	0.65577
1477.28037	0.65337
1475.35181	0.65134
1473.42324	0.64921
1471.49468	0.64575
1469.56611	0.64188
1467.63755	0.63904
1465.70898	0.63695
1463.78042	0.63470
1461.85186	0.63221
1459.92329	0.63045
1457.99473	0.62944
1456.06616	0.62737
1454.13760	0.62397
1452.20903	0.62123
1450.28047	0.61918
1448.35190	0.61760
1446.42334	0.61595
1444.49478	0.61415
1442.56621	0.61256
1440.63765	0.61113
1438.70908	0.60999
1436.78052	0.60901
1434.85195	0.60759
1432.92339	0.60601
1430.99482	0.60470
1429.06626	0.60326
1427.13770	0.60164
1425.20913	0.60017
1423.28057	0.59882
1421.35200	0.59762
1419.42344	0.59652
1417.49487	0.59480
1415.56631	0.59266
1413.63774	0.59090
1411.70918	0.58941
1409.78062	0.58792
1407.85205	0.58659
1405.92349	0.58548
1403.99492	0.58425
1402.06636	0.58289
1400.13779	0.58173
1398.20923	0.58063
1396.28066	0.57936
1394.35210	0.57781
1392.42354	0.57617
1390.49497	0.57480
1388.56641	0.57379
1386.63784	0.57282
1384.70928	0.57158
1382.78071	0.57029
1380.85215	0.56911
1378.92358	0.56814
1376.99502	0.56739
1375.06646	0.56667
1373.13789	0.56555
1371.20933	0.56419
1369.28076	0.56315
1367.35220	0.56230
1365.42363	0.56138
1363.49507	0.56061
1361.56650	0.55991
1359.63794	0.55894
1357.70937	0.55789
1355.78081	0.55695
1353.85225	0.55601
1351.92368	0.55503
1349.99512	0.55408
1348.06655	0.55322
1346.13799	0.55234
1344.20942	0.55136
1342.28086	0.55045
1340.35229	0.54984
1338.42373	0.54915
1336.49517	0.54807
1334.56660	0.54693
1332.63804	0.54598
1330.70947	0.54514
1328.78091	0.54430
1326.85234	0.54335
1324.92378	0.54227
1322.99521	0.54126
1321.06665	0.54036
1319.13809	0.53939
1317.20952	0.53841
1315.28096	0.53762
1313.35239	0.53691
1311.42383	0.53605
1309.49526	0.53511
1307.56670	0.53422
1305.63813	0.53327
1303.70957	0.53231
1301.78101	0.53160
1299.85244	0.53098
1297.92388	0.53022
1295.99531	0.52927
1294.06675	0.52823
1292.13818	0.52722
1290.20962	0.52637
1288.28105	0.52566
1286.35249	0.52497
1284.42393	0.52425
1282.49536	0.52357
1280.56680	0.52288
1278.63823	0.52205
1276.70967	0.52114
1274.78110	0.52036
1272.85254	0.51975
1270.92397	0.51907
1268.99541	0.51817
1267.06685	0.51734
1265.13828	0.51672
1263.20972	0.51618
1261.28115	0.51570
1259.35259	0.51504
1257.42402	0.51408
1255.49546	0.51314
1253.56689	0.51235
1251.63833	0.51161
1249.70977	0.51097
1247.78120	0.51049
1245.85264	0.51003
1243.92407	0.50954
1241.99551	0.50904
1240.06694	0.50842
1238.13838	0.50759
1236.20981	0.50654
1234.28125	0.50544
1232.35269	0.50453
1230.42412	0.50376
1228.49556	0.50294
1226.56699	0.50215
1224.63843	0.50131
1222.70986	0.50034
1220.78130	0.49949
1218.85273	0.49873
1216.92417	0.49786
1214.99561	0.49699
1213.06704	0.49620
1211.13848	0.49531
1209.20991	0.49429
1207.28135	0.49329
1205.35278	0.49231
1203.42422	0.49137
1201.49565	0.49049
1199.56709	0.48966
1197.63853	0.48880
1195.70996	0.48792
1193.78140	0.48695
1191.85283	0.48591
1189.92427	0.48482
1187.99570	0.48371
1186.06714	0.48274
1184.13857	0.48198
1182.21001	0.48127
1180.28145	0.48042
1178.35288	0.47946
1176.42432	0.47852
1174.49575	0.47770
1172.56719	0.47682
1170.63862	0.47577
1168.71006	0.47471
1166.78149	0.47366
1164.85293	0.47256
1162.92437	0.47154
1160.99580	0.47063
1159.06724	0.46981
1157.13867	0.46897
1155.21011	0.46791
1153.28154	0.46680
1151.35298	0.46603
1149.42441	0.46548
1147.49585	0.46493
1145.56729	0.46428
1143.63872	0.46341
1141.71016	0.46236
1139.78159	0.46128
1137.85303	0.46034
1135.92446	0.45948
1133.99590	0.45860
1132.06733	0.45764
1130.13877	0.45674
1128.21021	0.45609
1126.28164	0.45555
1124.35308	0.45493
1122.42451	0.45426
1120.49595	0.45359
1118.56738	0.45300
1116.63882	0.45250
1114.71025	0.45179
1112.78169	0.45097
1110.85312	0.45035
1108.92456	0.44991
1106.99600	0.44960
1105.06743	0.44938
1103.13887	0.44904
1101.21030	0.44860
1099.28174	0.44830
1097.35317	0.44799
1095.42461	0.44745
1093.49604	0.44693
1091.56748	0.44656
1089.63892	0.44617
1087.71035	0.44577
1085.78179	0.44548
1083.85322	0.44517
1081.92466	0.44480
1079.99609	0.44452
1078.06753	0.44421
1076.13896	0.44379
1074.21040	0.44352
1072.28184	0.44355
1070.35327	0.44368
1068.42471	0.44373
1066.49614	0.44382
1064.56758	0.44397
1062.63901	0.44425
1060.71045	0.44471
1058.78188	0.44520
1056.85332	0.44566
1054.92476	0.44613
1052.99619	0.44655
1051.06763	0.44691
1049.13906	0.44731
1047.21050	0.44768
1045.28193	0.44801
1043.35337	0.44849
1041.42480	0.44899
1039.49624	0.44925
1037.56768	0.44969
1035.63911	0.45080
1033.71055	0.45223
1031.78198	0.45333
1029.85342	0.45411
1027.92485	0.45507
1025.99629	0.45624
1024.06772	0.45735
1022.13916	0.45855
1020.21060	0.46008
1018.28203	0.46179
1016.35347	0.46340
1014.42490	0.46469
1012.49634	0.46580
1010.56777	0.46709
1008.63921	0.46861
1006.71064	0.47027
1004.78208	0.47199
1002.85352	0.47378
1000.92495	0.47564
998.99639	0.47759
997.06782	0.47977
995.13926	0.48199
993.21069	0.48418
991.28213	0.48660
989.35356	0.48926
987.42500	0.49194
985.49644	0.49466
983.56787	0.49745
981.63931	0.50016
979.71074	0.50295
977.78218	0.50610
975.85361	0.50954
973.92505	0.51311
971.99648	0.51671
970.06792	0.52036
968.13936	0.52402
966.21079	0.52778
964.28223	0.53170
962.35366	0.53574
960.42510	0.53988
958.49653	0.54419
956.56797	0.54869
954.63940	0.55337
952.71084	0.55835
950.78228	0.56348
948.85371	0.56856
946.92515	0.57380
944.99658	0.57933
943.06802	0.58500
941.13945	0.59079
939.21089	0.59698
937.28232	0.60339
935.35376	0.60984
933.42520	0.61664
931.49663	0.62353
929.56807	0.63013
927.63950	0.63695
925.71094	0.64428
923.78237	0.65167
921.85381	0.65944
919.92524	0.66801
917.99668	0.67653
916.06812	0.68448
914.13955	0.69227
912.21099	0.70051
910.28242	0.70972
908.35386	0.71925
906.42529	0.72822
904.49673	0.73707
902.56816	0.74671
900.63960	0.75708
898.71104	0.76734
896.78247	0.77707
894.85391	0.78636
892.92534	0.79561
890.99678	0.80535
889.06821	0.81622
887.13965	0.82866
885.21108	0.84105
883.28252	0.85177
881.35396	0.86189
879.42539	0.87243
877.49683	0.88292
875.56826	0.89373
873.63970	0.90566
871.71113	0.91812
869.78257	0.93106
867.85400	0.94422
865.92544	0.95570
863.99687	0.96601
862.06831	0.97749
860.13975	0.98919
858.21118	1.00003
856.28262	1.01170
854.35405	1.02448
852.42549	1.03721
850.49692	1.05006
848.56836	1.06318
846.63979	1.07569
844.71123	1.08745
842.78267	1.09980
840.85410	1.11356
838.92554	1.12645
836.99697	1.13593
835.06841	1.14432
833.13984	1.15745
831.21128	1.17725
829.28271	1.19862
827.35415	1.21341
825.42559	1.22052
823.49702	1.23097
821.56846	1.25298
819.63989	1.27923
817.71133	1.29585
815.78276	1.30455
813.85420	1.31803
811.92563	1.34138
809.99707	1.36452
808.06851	1.37120
806.13994	1.36743
804.21138	1.36690
802.28281	1.37577
800.35425	1.39717
798.42568	1.42552
796.49712	1.45841
794.56855	1.51152
792.63999	1.59312
790.71143	1.65668
788.78286	1.65492
786.85430	1.63325
784.92573	1.64943
782.99717	1.75279
781.06860	1.78385
779.14004	1.71924
777.21147	1.80147
775.28291	1.81487
773.35435	1.55181
771.42578	1.44009
769.49722	1.48816
767.56865	1.56219
765.64009	1.53470
763.71152	1.40905
761.78296	1.30940
759.85439	1.25809
757.92583	1.20065
755.99727	1.17076
754.06870	1.20514
752.14014	1.18458
750.21157	1.10235
748.28301	1.06411
746.35444	1.02977
744.42588	0.97815
742.49731	0.92997
740.56875	0.89148
738.64019	0.82875
736.71162	0.71856
734.78306	0.61670
732.85449	0.54949
730.92593	0.53347
728.99736	0.54415
727.06880	0.50268
725.14023	0.45148
723.21167	0.41054
721.28311	0.30840
719.35454	0.21448
717.42598	0.19968
715.49741	0.20737
713.56885	0.19622
711.64028	0.14489
709.71172	0.05613
707.78315	0.03628
705.85459	0.08057
703.92603	0.09574
701.99746	0.07191
700.06890	0.05415
698.14033	0.02279
696.21177	0.00173
694.28320	-0.01228
692.35464	-0.02366
690.42607	0.00549
688.49751	0.07090
686.56895	0.12409
684.64038	0.12059
682.71182	0.05945
680.78325	0.01123
678.85469	0.04121
676.92612	0.12321
674.99756	0.16911
673.06899	0.16095
671.14043	0.14581
669.21187	0.09452
667.28330	0.03422
665.35474	0.00870
663.42617	-0.01427
661.49761	-0.02758
659.56904	-0.01996
657.64048	-0.02486
655.71191	-0.02103
653.78335	0.01538
651.85479	0.05769
649.92622	0.07975
647.99766	0.09742
646.06909	0.09278
644.14053	0.01260
642.21196	-0.05429
640.28340	-0.03684
638.35483	0.02414
636.42627	0.04218
634.49771	0.00617
632.56914	0.00014
630.64058	0.02277
628.71201	0.04839
626.78345	0.07264
624.85488	0.08777
622.92632	0.09035
620.99775	0.06238
619.06919	-0.00713
617.14062	-0.07504
615.21206	-0.08026
613.28350	-0.04587
611.35493	0.01317
609.42637	0.08444
607.49780	0.13287
605.56924	0.19260
603.64067	0.24841
601.71211	0.18190
599.78354	0.10394
597.85498	0.07921
595.92642	0.04159
593.99785	-0.00293
592.06929	-0.01834
590.14072	-0.02100
588.21216	-0.01105
586.28359	0.00661
584.35503	0.01183
582.42646	0.02221
580.49790	0.06336
578.56934	0.10269
576.64077	0.11222
574.71221	0.08967
572.78364	0.05455
570.85508	0.03520
568.92651	0.03630
566.99795	0.04337
565.06938	0.03306
563.14082	0.00757
561.21226	-0.01913
559.28369	-0.04645
557.35513	-0.04102
555.42656	0.01467
553.49800	0.07002
551.56943	0.13737
549.64087	0.18654
547.71230	0.14691
545.78374	0.10707
543.85518	0.11611
541.92661	0.12003
539.99805	0.08924
538.06948	0.02793
536.14092	-0.01697
534.21235	-0.01878
532.28379	-0.01335
530.35522	-0.02246
528.42666	0.00261
526.49810	0.08474
524.56953	0.14051
522.64097	0.10628
520.71240	0.05992
518.78384	0.03027
516.85527	0.01315
514.92671	0.02267
512.99814	0.04572
511.06958	0.04160
509.14102	0.00742
507.21245	-0.01244
505.28389	-0.00151
503.35532	0.00899
501.42676	-0.00512
499.49819	0.00843
