3997.91411	0.07152
3995.98555	0.07245
3994.05698	0.07310
3992.12842	0.07342
3990.19985	0.07357
3988.27129	0.07356
3986.34272	0.07354
3984.41416	0.07386
3982.48560	0.07439
3980.55703	0.07478
3978.62847	0.07509
3976.69990	0.07548
3974.77134	0.07575
3972.84277	0.07558
3970.91421	0.07534
3968.98564	0.07548
3967.05708	0.07546
3965.12852	0.07535
3963.19995	0.07606
3961.27139	0.07714
3959.34282	0.07759
3957.41426	0.07725
3955.48569	0.07677
3953.55713	0.07661
3951.62856	0.07667
3949.70000	0.07687
3947.77144	0.07704
3945.84287	0.07705
3943.91431	0.07714
3941.98574	0.07721
3940.05718	0.07679
3938.12861	0.07625
3936.20005	0.07624
3934.27148	0.07671
3932.34292	0.07731
3930.41436	0.07767
3928.48579	0.07765
3926.55723	0.07751
3924.62866	0.07759
3922.70010	0.07772
3920.77153	0.07765
3918.84297	0.07773
3916.91440	0.07789
3914.98584	0.07721
3913.05728	0.07605
3911.12871	0.07543
3909.20015	0.07530
3907.27158	0.07567
3905.34302	0.07690
3903.41445	0.07875
3901.48589	0.08001
3899.55732	0.07961
3897.62876	0.07788
3895.70020	0.07639
3893.77163	0.07628
3891.84307	0.07733
3889.91450	0.07801
3887.98594	0.07759
3886.05737	0.07782
3884.12881	0.07900
3882.20024	0.07965
3880.27168	0.07968
3878.34312	0.07888
3876.41455	0.07804
3874.48599	0.07866
3872.55742	0.08010
3870.62886	0.08142
3868.70029	0.08230
3866.77173	0.08164
3864.84316	0.08071
3862.91460	0.08080
3860.98604	0.08089
3859.05747	0.08073
3857.12891	0.08119
3855.20034	0.08266
3853.27178	0.08536
3851.34321	0.08678
3849.41465	0.08497
3847.48608	0.08318
3845.55752	0.08283
3843.62896	0.08385
3841.70039	0.08544
3839.77183	0.08711
3837.84326	0.08895
3835.91470	0.08982
3833.98613	0.08939
3832.05757	0.08882
3830.12900	0.08864
3828.20044	0.08916
3826.27187	0.09047
3824.34331	0.09200
3822.41475	0.09365
3820.48618	0.09581
3818.55762	0.09671
3816.62905	0.09638
3814.70049	0.09628
3812.77192	0.09608
3810.84336	0.09607
3808.91479	0.09685
3806.98623	0.09871
3805.05767	0.10089
3803.12910	0.10285
3801.20054	0.10524
3799.27197	0.10667
3797.34341	0.10677
3795.41484	0.10698
3793.48628	0.10709
3791.55771	0.10735
3789.62915	0.10828
3787.70059	0.10993
3785.77202	0.11223
3783.84346	0.11446
3781.91489	0.11584
3779.98633	0.11706
3778.05776	0.11880
3776.12920	0.12018
3774.20063	0.12113
3772.27207	0.12248
3770.34351	0.12471
3768.41494	0.12734
3766.48638	0.12946
3764.55781	0.13151
3762.62925	0.13354
3760.70068	0.13572
3758.77212	0.13856
3756.84355	0.14117
3754.91499	0.14306
3752.98643	0.14573
3751.05786	0.15039
3749.12930	0.15529
3747.20073	0.15766
3745.27217	0.15956
3743.34360	0.16274
3741.41504	0.16533
3739.48647	0.16696
3737.55791	0.16963
3735.62935	0.17427
3733.70078	0.17916
3731.77222	0.18233
3729.84365	0.18528
3727.91509	0.18948
3725.98652	0.19561
3724.05796	0.20311
3722.12939	0.21079
3720.20083	0.21813
3718.27227	0.22514
3716.34370	0.23244
3714.41514	0.24025
3712.48657	0.24991
3710.55801	0.26302
3708.62944	0.27616
3706.70088	0.28682
3704.77231	0.29744
3702.84375	0.31016
3700.91519	0.32674
3698.98662	0.34520
3697.05806	0.36302
3695.12949	0.38187
3693.20093	0.40232
3691.27236	0.42523
3689.34380	0.45413
3687.41523	0.48786
3685.48667	0.51734
3683.55811	0.54340
3681.62954	0.57163
3679.70098	0.60375
3677.77241	0.63794
3675.84385	0.67814
3673.91528	0.73114
3671.98672	0.77449
3670.05815	0.81293
3668.12959	0.86483
3666.20103	0.91251
3664.27246	0.95292
3662.34390	0.99654
3660.41533	1.04386
3658.48677	1.09058
3656.55820	1.14021
3654.62964	1.19526
3652.70107	1.24193
3650.77251	1.28323
3648.84395	1.33900
3646.91538	1.40520
3644.98682	1.45375
3643.05825	1.49177
3641.12969	1.53154
3639.20112	1.57588
3637.27256	1.62005
3635.34399	1.66240
3633.41543	1.70469
3631.48687	1.74481
3629.55830	1.78605
3627.62974	1.83919
3625.70117	1.88836
3623.77261	1.92215
3621.84404	1.95512
3619.91548	1.99343
3617.98691	2.03968
3616.05835	2.08425
3614.12979	2.12205
3612.20122	2.16151
3610.27266	2.20016
3608.34409	2.23840
3606.41553	2.27993
3604.48696	2.31958
3602.55840	2.35490
3600.62983	2.39264
3598.70127	2.43468
3596.77271	2.47652
3594.84414	2.51797
3592.91558	2.55967
3590.98701	2.59862
3589.05845	2.63525
3587.12988	2.68003
3585.20132	2.72960
3583.27275	2.77000
3581.34419	2.80688
3579.41562	2.84763
3577.48706	2.89062
3575.55850	2.93314
3573.62993	2.97617
3571.70137	3.01814
3569.77280	3.05817
3567.84424	3.10040
3565.91567	3.15274
3563.98711	3.20456
3562.05854	3.24635
3560.12998	3.28754
3558.20142	3.33274
3556.27285	3.37946
3554.34429	3.42408
3552.41572	3.46947
3550.48716	3.51654
3548.55859	3.56161
3546.63003	3.60561
3544.70146	3.65366
3542.77290	3.70314
3540.84434	3.74882
3538.91577	3.79268
3536.98721	3.83841
3535.05864	3.88872
3533.13008	3.93847
3531.20151	3.98510
3529.27295	4.03310
3527.34438	4.08459
3525.41582	4.13551
3523.48726	4.18417
3521.55869	4.23389
3519.63013	4.28410
3517.70156	4.33280
3515.77300	4.37830
3513.84443	4.42278
3511.91587	4.46976
3509.98730	4.52030
3508.05874	4.57208
3506.13018	4.62149
3504.20161	4.67025
3502.27305	4.72109
3500.34448	4.76892
3498.41592	4.81146
3496.48735	4.85729
3494.55879	4.90710
3492.63022	4.95747
3490.70166	5.01038
3488.77310	5.06074
3486.84453	5.10459
3484.91597	5.15320
3482.98740	5.21079
3481.05884	5.26521
3479.13027	5.31186
3477.20171	5.36045
3475.27314	5.41454
3473.34458	5.46434
3471.41602	5.50415
3469.48745	5.54237
3467.55889	5.58600
3465.63032	5.63405
3463.70176	5.68488
3461.77319	5.73901
3459.84463	5.80153
3457.91606	5.86493
3455.98750	5.91625
3454.05894	5.95307
3452.13037	5.98745
3450.20181	6.03900
3448.27324	6.10047
3446.34468	6.16224
3444.41611	6.22694
3442.48755	6.28693
3440.55898	6.33239
3438.63042	6.36304
3436.70186	6.39685
3434.77329	6.45496
3432.84473	6.52696
3430.91616	6.59059
3428.98760	6.63602
3427.05903	6.65297
3425.13047	6.66774
3423.20190	6.71766
3421.27334	6.79015
3419.34478	6.84547
3417.41621	6.89904
3415.48765	6.97228
3413.55908	7.03270
3411.63052	7.07118
3409.70195	7.10843
3407.77339	7.16142
3405.84482	7.22729
3403.91626	7.28797
3401.98770	7.31152
3400.05913	7.33489
3398.13057	7.40040
3396.20200	7.46773
3394.27344	7.52904
3392.34487	7.56901
3390.41631	7.56470
3388.48774	7.55492
3386.55918	7.59942
3384.63062	7.67102
3382.70205	7.71893
3380.77349	7.77329
3378.84492	7.82692
3376.91636	7.85262
3374.98779	7.87152
3373.05923	7.90147
3371.13066	7.92273
3369.20210	7.94545
3367.27354	7.98051
3365.34497	8.02270
3363.41641	8.04461
3361.48784	8.04417
3359.55928	8.09305
3357.63071	8.19707
3355.70215	8.25053
3353.77358	8.14021
3351.84502	7.99674
3349.91646	7.98474
3347.98789	8.08995
3346.05933	8.19612
3344.13076	8.23362
3342.20220	8.23834
3340.27363	8.24065
3338.34507	8.26828
3336.41650	8.30554
3334.48794	8.30431
3332.55937	8.23551
3330.63081	8.18278
3328.70225	8.19589
3326.77368	8.19414
3324.84512	8.19323
3322.91655	8.25117
3320.98799	8.33311
3319.05942	8.38875
3317.13086	8.39175
3315.20229	8.36291
3313.27373	8.37112
3311.34517	8.36979
3309.41660	8.34806
3307.48804	8.36283
3305.55947	8.39354
3303.63091	8.47344
3301.70234	8.54766
3299.77378	8.54268
3297.84521	8.51050
3295.91665	8.48591
3293.98809	8.48867
3292.05952	8.48584
3290.13096	8.42257
3288.20239	8.35333
3286.27383	8.33755
3284.34526	8.33864
3282.41670	8.33719
3280.48813	8.37921
3278.55957	8.50173
3276.63101	8.62348
3274.70244	8.68568
3272.77388	8.73815
3270.84531	8.72175
3268.91675	8.57757
3266.98818	8.41207
3265.05962	8.36542
3263.13105	8.44517
3261.20249	8.53273
3259.27393	8.54821
3257.34536	8.51428
3255.41680	8.45720
3253.48823	8.43481
3251.55967	8.45630
3249.63110	8.46339
3247.70254	8.44755
3245.77397	8.38375
3243.84541	8.30160
3241.91685	8.28343
3239.98828	8.32026
3238.05972	8.35301
3236.13115	8.38174
3234.20259	8.42862
3232.27402	8.49020
3230.34546	8.51649
3228.41689	8.43890
3226.48833	8.33500
3224.55977	8.30465
3222.63120	8.33042
3220.70264	8.34181
3218.77407	8.32153
3216.84551	8.27949
3214.91694	8.17886
3212.98838	8.04986
3211.05981	8.01259
3209.13125	8.09823
3207.20269	8.16880
3205.27412	8.13866
3203.34556	8.06796
3201.41699	7.99171
3199.48843	7.93950
3197.55986	7.91650
3195.63130	7.87785
3193.70273	7.79533
3191.77417	7.70411
3189.84561	7.67367
3187.91704	7.68358
3185.98848	7.64477
3184.05991	7.57612
3182.13135	7.52110
3180.20278	7.44992
3178.27422	7.37505
3176.34565	7.33742
3174.41709	7.33025
3172.48853	7.31532
3170.55996	7.24589
3168.63140	7.13578
3166.70283	7.05845
3164.77427	7.02426
3162.84570	6.97072
3160.91714	6.89426
3158.98857	6.83442
3157.06001	6.76550
3155.13145	6.67134
3153.20288	6.58398
3151.27432	6.51992
3149.34575	6.47386
3147.41719	6.42920
3145.48862	6.36327
3143.56006	6.27057
3141.63149	6.17464
3139.70293	6.09823
3137.77437	6.04043
3135.84580	5.97647
3133.91724	5.89879
3131.98867	5.82732
3130.06011	5.76288
3128.13154	5.69322
3126.20298	5.61651
3124.27441	5.53642
3122.34585	5.45773
3120.41729	5.37973
3118.48872	5.29669
3116.56016	5.21501
3114.63159	5.14480
3112.70303	5.08051
3110.77446	5.01249
3108.84590	4.94102
3106.91733	4.86968
3104.98877	4.79696
3103.06021	4.72307
3101.13164	4.65178
3099.20308	4.58422
3097.27451	4.51997
3095.34595	4.45614
3093.41738	4.38876
3091.48882	4.32066
3089.56025	4.25376
3087.63169	4.18496
3085.70312	4.11691
3083.77456	4.05305
3081.84600	3.99072
3079.91743	3.92748
3077.98887	3.86474
3076.06030	3.80426
3074.13174	3.74508
3072.20317	3.68448
3070.27461	3.62262
3068.34604	3.56291
3066.41748	3.50497
3064.48892	3.44611
3062.56035	3.38756
3060.63179	3.33143
3058.70322	3.27658
3056.77466	3.22174
3054.84609	3.16717
3052.91753	3.11338
3050.98896	3.06082
3049.06040	3.00923
3047.13184	2.95830
3045.20327	2.90820
3043.27471	2.85854
3041.34614	2.80887
3039.41758	2.76028
3037.48901	2.71332
3035.56045	2.66671
3033.63188	2.62027
3031.70332	2.57444
3029.77476	2.52946
3027.84619	2.48585
3025.91763	2.44302
3023.98906	2.39942
3022.06050	2.35572
3020.13193	2.31403
3018.20337	2.27360
3016.27480	2.23285
3014.34624	2.19241
3012.41768	2.15317
3010.48911	2.11491
3008.56055	2.07714
3006.63198	2.03976
3004.70342	2.00318
3002.77485	1.96753
3000.84629	1.93223
2998.91772	1.89722
2996.98916	1.86281
2995.06060	1.82894
2993.13203	1.79600
2991.20347	1.76437
2989.27490	1.73345
2987.34634	1.70259
2985.41777	1.67187
2983.48921	1.64163
2981.56064	1.61177
2979.63208	1.58198
2977.70352	1.55247
2975.77495	1.52386
2973.84639	1.49611
2971.91782	1.46854
2969.98926	1.44103
2968.06069	1.41390
2966.13213	1.38708
2964.20356	1.36075
2962.27500	1.33522
2960.34644	1.31025
2958.41787	1.28556
2956.48931	1.26127
2954.56074	1.23802
2952.63218	1.21598
2950.70361	1.19461
2948.77505	1.17336
2946.84648	1.15141
2944.91792	1.12878
2942.98936	1.10674
2941.06079	1.08588
2939.13223	1.06541
2937.20366	1.04447
2935.27510	1.02339
2933.34653	1.00342
2931.41797	0.98454
2929.48940	0.96541
2927.56084	0.94580
2925.63228	0.92674
2923.70371	0.90896
2921.77515	0.89246
2919.84658	0.87697
2917.91802	0.86211
2915.98945	0.84765
2914.06089	0.83349
2912.13232	0.81947
2910.20376	0.80577
2908.27520	0.79259
2906.34663	0.77982
2904.41807	0.76717
2902.48950	0.75451
2900.56094	0.74188
2898.63237	0.72931
2896.70381	0.71690
2894.77524	0.70484
2892.84668	0.69323
2890.91812	0.68200
2888.98955	0.67102
2887.06099	0.66005
2885.13242	0.64911
2883.20386	0.63827
2881.27529	0.62754
2879.34673	0.61713
2877.41816	0.60697
2875.48960	0.59668
2873.56104	0.58631
2871.63247	0.57594
2869.70391	0.56555
2867.77534	0.55529
2865.84678	0.54521
2863.91821	0.53512
2861.98965	0.52488
2860.06108	0.51465
2858.13252	0.50491
2856.20396	0.49565
2854.27539	0.48644
2852.34683	0.47768
2850.41826	0.46995
2848.48970	0.46300
2846.56113	0.45668
2844.63257	0.45099
2842.70400	0.44550
2840.77544	0.43995
2838.84687	0.43438
2836.91831	0.42893
2834.98975	0.42352
2833.06118	0.41779
2831.13262	0.41176
2829.20405	0.40597
2827.27549	0.40044
2825.34692	0.39480
2823.41836	0.38899
2821.48979	0.38318
2819.56123	0.37756
2817.63267	0.37222
2815.70410	0.36691
2813.77554	0.36156
2811.84697	0.35642
2809.91841	0.35135
2807.98984	0.34603
2806.06128	0.34074
2804.13271	0.33582
2802.20415	0.33120
2800.27559	0.32655
2798.34702	0.32186
2796.41846	0.31733
2794.48989	0.31288
2792.56133	0.30851
2790.63276	0.30427
2788.70420	0.30004
2786.77563	0.29583
2784.84707	0.29179
2782.91851	0.28797
2780.98994	0.28433
2779.06138	0.28075
2777.13281	0.27715
2775.20425	0.27356
2773.27568	0.27000
2771.34712	0.26645
2769.41855	0.26295
2767.48999	0.25956
2765.56143	0.25640
2763.63286	0.25340
2761.70430	0.25037
2759.77573	0.24732
2757.84717	0.24428
2755.91860	0.24122
2753.99004	0.23821
2752.06147	0.23536
2750.13291	0.23268
2748.20435	0.23012
2746.27578	0.22754
2744.34722	0.22494
2742.41865	0.22250
2740.49009	0.22024
2738.56152	0.21797
2736.63296	0.21548
2734.70439	0.21301
2732.77583	0.21079
2730.84727	0.20876
2728.91870	0.20682
2726.99014	0.20491
2725.06157	0.20300
2723.13301	0.20100
2721.20444	0.19894
2719.27588	0.19702
2717.34731	0.19516
2715.41875	0.19330
2713.49019	0.19158
2711.56162	0.18982
2709.63306	0.18798
2707.70449	0.18634
2705.77593	0.18486
2703.84736	0.18330
2701.91880	0.18176
2699.99023	0.18043
2698.06167	0.17907
2696.13311	0.17759
2694.20454	0.17621
2692.27598	0.17499
2690.34741	0.17375
2688.41885	0.17255
2686.49028	0.17146
2684.56172	0.17031
2682.63315	0.16904
2680.70459	0.16779
2678.77603	0.16668
2676.84746	0.16568
2674.91890	0.16475
2672.99033	0.16388
2671.06177	0.16305
2669.13320	0.16221
2667.20464	0.16134
2665.27607	0.16044
2663.34751	0.15961
2661.41895	0.15878
2659.49038	0.15790
2657.56182	0.15703
2655.63325	0.15621
2653.70469	0.15546
2651.77612	0.15485
2649.84756	0.15439
2647.91899	0.15390
2645.99043	0.15338
2644.06187	0.15291
2642.13330	0.15240
2640.20474	0.15187
2638.27617	0.15143
2636.34761	0.15106
2634.41904	0.15076
2632.49048	0.15051
2630.56191	0.15024
2628.63335	0.14992
2626.70479	0.14959
2624.77622	0.14935
2622.84766	0.14910
2620.91909	0.14888
2618.99053	0.14883
2617.06196	0.14883
2615.13340	0.14874
2613.20483	0.14864
2611.27627	0.14855
2609.34771	0.14843
2607.41914	0.14827
2605.49058	0.14818
2603.56201	0.14826
2601.63345	0.14849
2599.70488	0.14878
2597.77632	0.14902
2595.84775	0.14910
2593.91919	0.14905
2591.99062	0.14905
2590.06206	0.14919
2588.13350	0.14950
2586.20493	0.14987
2584.27637	0.15015
2582.34780	0.15037
2580.41924	0.15067
2578.49067	0.15106
2576.56211	0.15150
2574.63354	0.15192
2572.70498	0.15234
2570.77642	0.15268
2568.84785	0.15297
2566.91929	0.15341
2564.99072	0.15395
2563.06216	0.15438
2561.13359	0.15475
2559.20503	0.15520
2557.27646	0.15578
2555.34790	0.15643
2553.41934	0.15711
2551.49077	0.15774
2549.56221	0.15823
2547.63364	0.15871
2545.70508	0.15943
2543.77651	0.16024
2541.84795	0.16094
2539.91938	0.16162
2537.99082	0.16236
2536.06226	0.16309
2534.13369	0.16382
2532.20513	0.16460
2530.27656	0.16530
2528.34800	0.16599
2526.41943	0.16684
2524.49087	0.16774
2522.56230	0.16844
2520.63374	0.16910
2518.70518	0.17000
2516.77661	0.17105
2514.84805	0.17194
2512.91948	0.17264
2510.99092	0.17333
2509.06235	0.17407
2507.13379	0.17491
2505.20522	0.17586
2503.27666	0.17676
2501.34810	0.17755
2499.41953	0.17834
2497.49097	0.17927
2495.56240	0.18030
2493.63384	0.18128
2491.70527	0.18223
2489.77671	0.18316
2487.84814	0.18409
2485.91958	0.18503
2483.99102	0.18593
2482.06245	0.18683
2480.13389	0.18778
2478.20532	0.18873
2476.27676	0.18968
2474.34819	0.19067
2472.41963	0.19167
2470.49106	0.19263
2468.56250	0.19362
2466.63394	0.19466
2464.70537	0.19565
2462.77681	0.19658
2460.84824	0.19751
2458.91968	0.19852
2456.99111	0.19954
2455.06255	0.20042
2453.13398	0.20122
2451.20542	0.20220
2449.27686	0.20337
2447.34829	0.20443
2445.41973	0.20541
2443.49116	0.20654
2441.56260	0.20772
2439.63403	0.20881
2437.70547	0.20990
2435.77690	0.21096
2433.84834	0.21188
2431.91978	0.21281
2429.99121	0.21389
2428.06265	0.21502
2426.13408	0.21619
2424.20552	0.21738
2422.27695	0.21857
2420.34839	0.21975
2418.41982	0.22086
2416.49126	0.22194
2414.56270	0.22313
2412.63413	0.22441
2410.70557	0.22567
2408.77700	0.22694
2406.84844	0.22813
2404.91987	0.22927
2402.99131	0.23043
2401.06274	0.23156
2399.13418	0.23269
2397.20562	0.23393
2395.27705	0.23521
2393.34849	0.23654
2391.41992	0.23797
2389.49136	0.23938
2387.56279	0.24055
2385.63423	0.24133
2383.70566	0.24167
2381.77710	0.24149
2379.84854	0.24073
2377.91997	0.23944
2375.99141	0.23767
2374.06284	0.23549
2372.13428	0.23289
2370.20571	0.22979
2368.27715	0.22630
2366.34858	0.22291
2364.42002	0.22014
2362.49146	0.21861
2360.56289	0.21935
2358.63433	0.22232
2356.70576	0.22641
2354.77720	0.23130
2352.84863	0.23747
2350.92007	0.24420
2348.99150	0.24883
2347.06294	0.24997
2345.13437	0.24813
2343.20581	0.24552
2341.27725	0.24503
2339.34868	0.24708
2337.42012	0.25000
2335.49155	0.25270
2333.56299	0.25517
2331.63442	0.25784
2329.70586	0.26077
2327.77729	0.26349
2325.84873	0.26634
2323.92017	0.26985
2321.99160	0.27399
2320.06304	0.27822
2318.13447	0.28205
2316.20591	0.28542
2314.27734	0.28843
2312.34878	0.29124
2310.42021	0.29412
2308.49165	0.29718
2306.56309	0.30036
2304.63452	0.30337
2302.70596	0.30592
2300.77739	0.30812
2298.84883	0.31037
2296.92026	0.31283
2294.99170	0.31520
2293.06313	0.31737
2291.13457	0.31961
2289.20601	0.32207
2287.27744	0.32464
2285.34888	0.32705
2283.42031	0.32922
2281.49175	0.33124
2279.56318	0.33317
2277.63462	0.33499
2275.70605	0.33685
2273.77749	0.33892
2271.84893	0.34112
2269.92036	0.34324
2267.99180	0.34529
2266.06323	0.34741
2264.13467	0.34972
2262.20610	0.35216
2260.27754	0.35457
2258.34897	0.35688
2256.42041	0.35903
2254.49185	0.36113
2252.56328	0.36333
2250.63472	0.36558
2248.70615	0.36781
2246.77759	0.37007
2244.84902	0.37238
2242.92046	0.37468
2240.99189	0.37692
2239.06333	0.37918
2237.13477	0.38150
2235.20620	0.38379
2233.27764	0.38597
2231.34907	0.38809
2229.42051	0.39029
2227.49194	0.39271
2225.56338	0.39520
2223.63481	0.39750
2221.70625	0.39964
2219.77769	0.40180
2217.84912	0.40397
2215.92056	0.40620
2213.99199	0.40844
2212.06343	0.41055
2210.13486	0.41261
2208.20630	0.41478
2206.27773	0.41694
2204.34917	0.41900
2202.42061	0.42107
2200.49204	0.42316
2198.56348	0.42532
2196.63491	0.42750
2194.70635	0.42947
2192.77778	0.43126
2190.84922	0.43310
2188.92065	0.43502
2186.99209	0.43690
2185.06353	0.43870
2183.13496	0.44040
2181.20640	0.44200
2179.27783	0.44362
2177.34927	0.44535
2175.42070	0.44703
2173.49214	0.44848
2171.56357	0.44981
2169.63501	0.45119
2167.70645	0.45262
2165.77788	0.45396
2163.84932	0.45514
2161.92075	0.45619
2159.99219	0.45721
2158.06362	0.45828
2156.13506	0.45935
2154.20649	0.46034
2152.27793	0.46122
2150.34937	0.46198
2148.42080	0.46257
2146.49224	0.46300
2144.56367	0.46342
2142.63511	0.46392
2140.70654	0.46433
2138.77798	0.46461
2136.84941	0.46479
2134.92085	0.46484
2132.99229	0.46479
2131.06372	0.46463
2129.13516	0.46442
2127.20659	0.46417
2125.27803	0.46383
2123.34946	0.46335
2121.42090	0.46286
2119.49233	0.46238
2117.56377	0.46186
2115.63521	0.46121
2113.70664	0.46040
2111.77808	0.45950
2109.84951	0.45850
2107.92095	0.45737
2105.99238	0.45613
2104.06382	0.45484
2102.13525	0.45355
2100.20669	0.45221
2098.27812	0.45074
2096.34956	0.44926
2094.42100	0.44786
2092.49243	0.44638
2090.56387	0.44473
2088.63530	0.44295
2086.70674	0.44109
2084.77817	0.43921
2082.84961	0.43738
2080.92104	0.43552
2078.99248	0.43360
2077.06392	0.43161
2075.13535	0.42942
2073.20679	0.42705
2071.27822	0.42469
2069.34966	0.42246
2067.42109	0.42022
2065.49253	0.41787
2063.56396	0.41542
2061.63540	0.41286
2059.70684	0.41027
2057.77827	0.40778
2055.84971	0.40538
2053.92114	0.40296
2051.99258	0.40032
2050.06401	0.39753
2048.13545	0.39485
2046.20688	0.39226
2044.27832	0.38961
2042.34976	0.38690
2040.42119	0.38410
2038.49263	0.38131
2036.56406	0.37857
2034.63550	0.37582
2032.70693	0.37303
2030.77837	0.37023
2028.84980	0.36740
2026.92124	0.36460
2024.99268	0.36186
2023.06411	0.35909
2021.13555	0.35626
2019.20698	0.35347
2017.27842	0.35072
2015.34985	0.34796
2013.42129	0.34517
2011.49272	0.34241
2009.56416	0.33973
2007.63560	0.33697
2005.70703	0.33414
2003.77847	0.33137
2001.84990	0.32870
1999.92134	0.32606
1997.99277	0.32339
1996.06421	0.32086
1994.13564	0.31857
1992.20708	0.31624
1990.27852	0.31363
1988.34995	0.31097
1986.42139	0.30843
1984.49282	0.30598
1982.56426	0.30358
1980.63569	0.30120
1978.70713	0.29877
1976.77856	0.29635
1974.85000	0.29405
1972.92144	0.29195
1970.99287	0.28998
1969.06431	0.28811
1967.13574	0.28624
1965.20718	0.28416
1963.27861	0.28194
1961.35005	0.27984
1959.42148	0.27795
1957.49292	0.27617
1955.56436	0.27438
1953.63579	0.27260
1951.70723	0.27085
1949.77866	0.26914
1947.85010	0.26753
1945.92153	0.26617
1943.99297	0.26500
1942.06440	0.26363
1940.13584	0.26194
1938.20728	0.26032
1936.27871	0.25893
1934.35015	0.25762
1932.42158	0.25638
1930.49302	0.25518
1928.56445	0.25400
1926.63589	0.25291
1924.70732	0.25203
1922.77876	0.25127
1920.85020	0.25033
1918.92163	0.24927
1916.99307	0.24820
1915.06450	0.24712
1913.13594	0.24621
1911.20737	0.24560
1909.27881	0.24507
1907.35024	0.24444
1905.42168	0.24376
1903.49312	0.24313
1901.56455	0.24253
1899.63599	0.24201
1897.70742	0.24161
1895.77886	0.24124
1893.85029	0.24085
1891.92173	0.24055
1889.99316	0.24044
1888.06460	0.24013
1886.13604	0.23962
1884.20747	0.23923
1882.27891	0.23907
1880.35034	0.23906
1878.42178	0.23905
1876.49321	0.23902
1874.56465	0.23906
1872.63608	0.23929
1870.70752	0.23971
1868.77896	0.24039
1866.85039	0.24074
1864.92183	0.24050
1862.99326	0.24037
1861.06470	0.24059
1859.13613	0.24093
1857.20757	0.24116
1855.27900	0.24145
1853.35044	0.24189
1851.42187	0.24255
1849.49331	0.24337
1847.56475	0.24422
1845.63618	0.24511
1843.70762	0.24607
1841.77905	0.24668
1839.85049	0.24696
1837.92192	0.24762
1835.99336	0.24859
1834.06479	0.24962
1832.13623	0.25079
1830.20767	0.25241
1828.27910	0.25396
1826.35054	0.25501
1824.42197	0.25622
1822.49341	0.25742
1820.56484	0.25858
1818.63628	0.25988
1816.70771	0.26149
1814.77915	0.26316
1812.85059	0.26496
1810.92202	0.26705
1808.99346	0.26917
1807.06489	0.27110
1805.13633	0.27300
1803.20776	0.27531
1801.27920	0.27796
1799.35063	0.28082
1797.42207	0.28341
1795.49351	0.28590
1793.56494	0.28882
1791.63638	0.29250
1789.70781	0.29581
1787.77925	0.29825
1785.85068	0.30129
1783.92212	0.30500
1781.99355	0.30898
1780.06499	0.31314
1778.13643	0.31743
1776.20786	0.32158
1774.27930	0.32613
1772.35073	0.33221
1770.42217	0.33865
1768.49360	0.34389
1766.56504	0.34884
1764.63647	0.35400
1762.70791	0.35984
1760.77935	0.36723
1758.85078	0.37417
1756.92222	0.38110
1754.99365	0.38863
1753.06509	0.39551
1751.13652	0.40377
1749.20796	0.41406
1747.27939	0.42400
1745.35083	0.43270
1743.42227	0.44217
1741.49370	0.45283
1739.56514	0.46541
1737.63657	0.47800
1735.70801	0.48916
1733.77944	0.50603
1731.85088	0.52603
1729.92231	0.54177
1727.99375	0.55762
1726.06519	0.57475
1724.13662	0.59364
1722.20806	0.61398
1720.27949	0.63279
1718.35093	0.65486
1716.42236	0.68711
1714.49380	0.71768
1712.56523	0.74264
1710.63667	0.76693
1708.70811	0.79286
1706.77954	0.82214
1704.85098	0.85710
1702.92241	0.88836
1700.99385	0.91897
1699.06528	0.96393
1697.13672	1.00514
1695.20815	1.04702
1693.27959	1.08762
1691.35103	1.12052
1689.42246	1.15827
1687.49390	1.19752
1685.56533	1.23523
1683.63677	1.29304
1681.70820	1.35234
1679.77964	1.39020
1677.85107	1.42654
1675.92251	1.46872
1673.99395	1.52086
1672.06538	1.56669
1670.13682	1.61041
1668.20825	1.66619
1666.27969	1.71130
1664.35112	1.74949
1662.42256	1.79648
1660.49399	1.84854
1658.56543	1.88948
1656.63687	1.92331
1654.70830	1.95537
1652.77974	2.00785
1650.85117	2.05762
1648.92261	2.07686
1646.99404	2.10526
1645.06548	2.13935
1643.13691	2.16100
1641.20835	2.17459
1639.27979	2.18756
1637.35122	2.19634
1635.42266	2.19835
1633.49409	2.19365
1631.56553	2.18344
1629.63696	2.17033
1627.70840	2.14767
1625.77983	2.12008
1623.85127	2.08336
1621.92271	2.03731
1619.99414	1.99623
1618.06558	1.95628
1616.13701	1.89901
1614.20845	1.83881
1612.27988	1.79199
1610.35132	1.74374
1608.42275	1.69196
1606.49419	1.64063
1604.56562	1.59269
1602.63706	1.54608
1600.70850	1.50026
1598.77993	1.45754
1596.85137	1.41700
1594.92280	1.37754
1592.99424	1.33894
1591.06567	1.30289
1589.13711	1.26887
1587.20854	1.23692
1585.27998	1.20682
1583.35142	1.17823
1581.42285	1.15173
1579.49429	1.12877
1577.56572	1.10788
1575.63716	1.08174
1573.70859	1.05800
1571.78003	1.04238
1569.85146	1.02565
1567.92290	1.00597
1565.99434	0.99008
1564.06577	0.97682
1562.13721	0.96600
1560.20864	0.95709
1558.28008	0.94119
1556.35151	0.92584
1554.42295	0.91657
1552.49438	0.90759
1550.56582	0.89855
1548.63726	0.88910
1546.70869	0.88038
1544.78013	0.87207
1542.85156	0.86343
1540.92300	0.85351
1538.99443	0.83890
1537.06587	0.82731
1535.13730	0.81976
1533.20874	0.81083
1531.28018	0.80099
1529.35161	0.79355
1527.42305	0.78676
1525.49448	0.77982
1523.56592	0.77365
1521.63735	0.76737
1519.70879	0.76027
1517.78022	0.75384
1515.85166	0.74704
1513.92310	0.74052
1511.99453	0.73535
1510.06597	0.73116
1508.13740	0.72757
1506.20884	0.72110
1504.28027	0.71402
1502.35171	0.70976
1500.42314	0.70645
1498.49458	0.70329
1496.56602	0.69951
1494.63745	0.69547
1492.70889	0.69238
1490.78032	0.69002
1488.85176	0.68728
1486.92319	0.68389
1484.99463	0.68057
1483.06606	0.67781
1481.13750	0.67559
1479.20894	0.67366
1477.28037	0.67197
1475.35181	0.67041
1473.42324	0.66866
1471.49468	0.66563
1469.56611	0.66214
1467.63755	0.65938
1465.70898	0.65720
1463.78042	0.65517
1461.85186	0.65330
1459.92329	0.65202
1457.99473	0.65105
1456.06616	0.64856
1454.13760	0.64513
1452.20903	0.64251
1450.28047	0.64026
1448.35190	0.63813
1446.42334	0.63586
1444.49478	0.63367
1442.56621	0.63192
1440.63765	0.63049
1438.70908	0.62925
1436.78052	0.62789
1434.85195	0.62601
1432.92339	0.62410
1430.99482	0.62258
1429.06626	0.62107
1427.13770	0.61938
1425.20913	0.61786
1423.28057	0.61650
1421.35200	0.61533
1419.42344	0.61438
1417.49487	0.61301
1415.56631	0.61104
1413.63774	0.60918
1411.70918	0.60769
1409.78062	0.60645
1407.85205	0.60535
1405.92349	0.60440
1403.99492	0.60334
1402.06636	0.60184
1400.13779	0.60031
1398.20923	0.59908
1396.28066	0.59779
1394.35210	0.59594
1392.42354	0.59383
1390.49497	0.59213
1388.56641	0.59080
1386.63784	0.58935
1384.70928	0.58752
1382.78071	0.58571
1380.85215	0.58426
1378.92358	0.58322
1376.99502	0.58244
1375.06646	0.58182
1373.13789	0.58109
1371.20933	0.58014
1369.28076	0.57912
1367.35220	0.57799
1365.42363	0.57691
1363.49507	0.57616
1361.56650	0.57543
1359.63794	0.57433
1357.70937	0.57316
1355.78081	0.57209
1353.85225	0.57100
1351.92368	0.56992
1349.99512	0.56887
1348.06655	0.56785
1346.13799	0.56691
1344.20942	0.56608
1342.28086	0.56539
1340.35229	0.56487
1338.42373	0.56401
1336.49517	0.56263
1334.56660	0.56136
1332.63804	0.56047
1330.70947	0.55967
1328.78091	0.55891
1326.85234	0.55830
1324.92378	0.55775
1322.99521	0.55717
1321.06665	0.55657
1319.13809	0.55592
1317.20952	0.55511
1315.28096	0.55427
1313.35239	0.55350
1311.42383	0.55266
1309.49526	0.55172
1307.56670	0.55076
1305.63813	0.54982
1303.70957	0.54889
1301.78101	0.54804
1299.85244	0.54723
1297.92388	0.54639
1295.99531	0.54555
1294.06675	0.54472
1292.13818	0.54388
1290.20962	0.54319
1288.28105	0.54269
1286.35249	0.54215
1284.42393	0.54146
1282.49536	0.54080
1280.56680	0.54024
1278.63823	0.53957
1276.70967	0.53882
1274.78110	0.53818
1272.85254	0.53771
1270.92397	0.53735
1268.99541	0.53702
1267.06685	0.53657
1265.13828	0.53605
1263.20972	0.53568
1261.28115	0.53541
1259.35259	0.53504
1257.42402	0.53465
1255.49546	0.53444
1253.56689	0.53433
1251.63833	0.53418
1249.70977	0.53401
1247.78120	0.53381
1245.85264	0.53353
1243.92407	0.53305
1241.99551	0.53242
1240.06694	0.53177
1238.13838	0.53107
1236.20981	0.53022
1234.28125	0.52934
1232.35269	0.52859
1230.42412	0.52793
1228.49556	0.52722
1226.56699	0.52635
1224.63843	0.52544
1222.70986	0.52464
1220.78130	0.52389
1218.85273	0.52306
1216.92417	0.52218
1214.99561	0.52135
1213.06704	0.52067
1211.13848	0.52013
1209.20991	0.51964
1207.28135	0.51921
1205.35278	0.51874
1203.42422	0.51821
1201.49565	0.51760
1199.56709	0.51689
1197.63853	0.51615
1195.70996	0.51544
1193.78140	0.51476
1191.85283	0.51418
1189.92427	0.51369
1187.99570	0.51322
1186.06714	0.51287
1184.13857	0.51284
1182.21001	0.51303
1180.28145	0.51326
1178.35288	0.51367
1176.42432	0.51432
1174.49575	0.51507
1172.56719	0.51587
1170.63862	0.51670
1168.71006	0.51755
1166.78149	0.51846
1164.85293	0.51946
1162.92437	0.52026
1160.99580	0.52062
1159.06724	0.52070
1157.13867	0.52061
1155.21011	0.52023
1153.28154	0.51939
1151.35298	0.51799
1149.42441	0.51602
1147.49585	0.51363
1145.56729	0.51103
1143.63872	0.50835
1141.71016	0.50567
1139.78159	0.50314
1137.85303	0.50103
1135.92446	0.49935
1133.99590	0.49794
1132.06733	0.49674
1130.13877	0.49557
1128.21021	0.49432
1126.28164	0.49312
1124.35308	0.49216
1122.42451	0.49150
1120.49595	0.49116
1118.56738	0.49120
1116.63882	0.49159
1114.71025	0.49230
1112.78169	0.49329
1110.85312	0.49439
1108.92456	0.49538
1106.99600	0.49622
1105.06743	0.49709
1103.13887	0.49818
1101.21030	0.49947
1099.28174	0.50109
1097.35317	0.50326
1095.42461	0.50597
1093.49604	0.50933
1091.56748	0.51373
1089.63892	0.51954
1087.71035	0.52685
1085.78179	0.53527
1083.85322	0.54393
1081.92466	0.55172
1079.99609	0.55765
1078.06753	0.56094
1076.13896	0.56123
1074.21040	0.55872
1072.28184	0.55385
1070.35327	0.54733
1068.42471	0.54035
1066.49614	0.53370
1064.56758	0.52761
1062.63901	0.52226
1060.71045	0.51766
1058.78188	0.51359
1056.85332	0.50978
1054.92476	0.50623
1052.99619	0.50312
1051.06763	0.50083
1049.13906	0.49951
1047.21050	0.49881
1045.28193	0.49848
1043.35337	0.49839
1041.42480	0.49851
1039.49624	0.49896
1037.56768	0.49951
1035.63911	0.49980
1033.71055	0.49976
1031.78198	0.49922
1029.85342	0.49814
1027.92485	0.49698
1025.99629	0.49603
1024.06772	0.49536
1022.13916	0.49506
1020.21060	0.49496
1018.28203	0.49478
1016.35347	0.49459
1014.42490	0.49463
1012.49634	0.49476
1010.56777	0.49502
1008.63921	0.49549
1006.71064	0.49620
1004.78208	0.49726
1002.85352	0.49881
1000.92495	0.50111
998.99639	0.50427
997.06782	0.50815
995.13926	0.51239
993.21069	0.51645
991.28213	0.51965
989.35356	0.52169
987.42500	0.52271
985.49644	0.52289
983.56787	0.52280
981.63931	0.52319
979.71074	0.52441
977.78218	0.52643
975.85361	0.52883
973.92505	0.53124
971.99648	0.53393
970.06792	0.53732
968.13936	0.54136
966.21079	0.54561
964.28223	0.54981
962.35366	0.55444
960.42510	0.55976
958.49653	0.56523
956.56797	0.57084
954.63940	0.57696
952.71084	0.58343
950.78228	0.58985
948.85371	0.59596
946.92515	0.60199
944.99658	0.60838
943.06802	0.61480
941.13945	0.62078
939.21089	0.62648
937.28232	0.63237
935.35376	0.63856
933.42520	0.64440
931.49663	0.64943
929.56807	0.65453
927.63950	0.66078
925.71094	0.66745
923.78237	0.67364
921.85381	0.68028
919.92524	0.68774
917.99668	0.69517
916.06812	0.70231
914.13955	0.70978
912.21099	0.71767
910.28242	0.72566
908.35386	0.73402
906.42529	0.74298
904.49673	0.75221
902.56816	0.76111
900.63960	0.76970
898.71104	0.77888
896.78247	0.78934
894.85391	0.80061
892.92534	0.81096
890.99678	0.81981
889.06821	0.82912
887.13965	0.84053
885.21108	0.85252
883.28252	0.86356
881.35396	0.87463
879.42539	0.88642
877.49683	0.89841
875.56826	0.90957
873.63970	0.92064
871.71113	0.93310
869.78257	0.94491
867.85400	0.95443
865.92544	0.96395
863.99687	0.97599
862.06831	0.99044
860.13975	1.00463
858.21118	1.01588
856.28262	1.02452
854.35405	1.03420
852.42549	1.04771
850.49692	1.06235
848.56836	1.07403
846.63979	1.08533
844.71123	1.09993
842.78267	1.11501
840.85410	1.12630
838.92554	1.13367
836.99697	1.14068
835.06841	1.14817
833.13984	1.15754
831.21128	1.17441
829.28271	1.19541
827.35415	1.20951
825.42559	1.21516
823.49702	1.22025
821.56846	1.23194
819.63989	1.24882
817.71133	1.26106
815.78276	1.26901
813.85420	1.28072
811.92563	1.29348
809.99707	1.30190
808.06851	1.30798
806.13994	1.32037
804.21138	1.34152
802.28281	1.36573
800.35425	1.38473
798.42568	1.39012
796.49712	1.38933
794.56855	1.38823
792.63999	1.35532
790.71143	1.28940
788.78286	1.24910
786.85430	1.22563
784.92573	1.18647
782.99717	1.14431
781.06860	1.12886
779.14004	1.12983
777.21147	1.12993
775.28291	1.12295
773.35435	1.09451
771.42578	1.06334
769.49722	1.05273
767.56865	1.02651
765.64009	0.96276
763.71152	0.89959
761.78296	0.87144
759.85439	0.86963
757.92583	0.85939
755.99727	0.83714
754.06870	0.81604
752.14014	0.78219
750.21157	0.73727
748.28301	0.71790
746.35444	0.72075
744.42588	0.69545
742.49731	0.64470
740.56875	0.59428
738.64019	0.52967
736.71162	0.45846
734.78306	0.39041
732.85449	0.31041
730.92593	0.24232
728.99736	0.21719
727.06880	0.20339
725.14023	0.15432
723.21167	0.08465
721.28311	0.02682
719.35454	0.01229
717.42598	0.01085
715.49741	-0.02875
713.56885	-0.07772
711.64028	-0.10529
709.71172	-0.14943
707.78315	-0.17004
705.85459	-0.14171
703.92603	-0.12366
701.99746	-0.14307
700.06890	-0.19422
698.14033	-0.25965
696.21177	-0.26923
694.28320	-0.23812
692.35464	-0.20658
690.42607	-0.16372
688.49751	-0.15271
686.56895	-0.19636
684.64038	-0.22673
682.71182	-0.21050
680.78325	-0.21725
678.85469	-0.26581
676.92612	-0.31158
674.99756	-0.29363
673.06899	-0.20976
671.14043	-0.13602
669.21187	-0.15581
667.28330	-0.21676
665.35474	-0.22841
663.42617	-0.22986
661.49761	-0.24210
659.56904	-0.22499
657.64048	-0.22726
655.71191	-0.28679
653.78335	-0.30401
651.85479	-0.23340
649.92622	-0.16588
647.99766	-0.12536
646.06909	-0.11244
644.14053	-0.13880
642.21196	-0.17467
640.28340	-0.19098
638.35483	-0.18182
636.42627	-0.14406
634.49771	-0.13021
632.56914	-0.18897
630.64058	-0.27415
628.71201	-0.27362
626.78345	-0.20081
624.85488	-0.12927
622.92632	-0.10147
620.99775	-0.11821
619.06919	-0.15177
617.14062	-0.20313
615.21206	-0.27149
613.28350	-0.27743
611.35493	-0.19869
609.42637	-0.13219
607.49780	-0.13010
605.56924	-0.18088
603.64067	-0.22376
601.71211	-0.21333
599.78354	-0.16254
597.85498	-0.13341
595.92642	-0.13849
593.99785	-0.12252
592.06929	-0.08369
590.14072	-0.08837
588.21216	-0.12789
586.28359	-0.15996
584.35503	-0.19027
582.42646	-0.22734
580.49790	-0.24142
578.56934	-0.18538
576.64077	-0.13496
574.71221	-0.13974
572.78364	-0.14766
570.85508	-0.13403
568.92651	-0.13728
566.99795	-0.14229
565.06938	-0.13765
563.14082	-0.15868
561.21226	-0.17151
559.28369	-0.13049
557.35513	-0.12112
555.42656	-0.17360
553.49800	-0.16160
551.56943	-0.10639
549.64087	-0.08472
547.71230	-0.08037
545.78374	-0.08302
543.85518	-0.10938
541.92661	-0.13941
539.99805	-0.13793
538.06948	-0.12655
536.14092	-0.14561
534.21235	-0.17592
532.28379	-0.17020
530.35522	-0.13654
528.42666	-0.10683
526.49810	-0.09231
524.56953	-0.07982
522.64097	-0.06059
520.71240	-0.05418
518.78384	-0.08193
516.85527	-0.13032
514.92671	-0.16594
512.99814	-0.18906
511.06958	-0.19881
509.14102	-0.15023
507.21245	-0.09097
505.28389	-0.07000
503.35532	-0.07909
501.42676	-0.11016
499.49819	-0.12555
