3997.91411	0.05670
3995.98555	0.05746
3994.05698	0.05744
3992.12842	0.05712
3990.19985	0.05713
3988.27129	0.05768
3986.34272	0.05839
3984.41416	0.05864
3982.48560	0.05867
3980.55703	0.05907
3978.62847	0.05949
3976.69990	0.05943
3974.77134	0.05924
3972.84277	0.05944
3970.91421	0.05983
3968.98564	0.06001
3967.05708	0.06011
3965.12852	0.06047
3963.19995	0.06108
3961.27139	0.06164
3959.34282	0.06170
3957.41426	0.06136
3955.48569	0.06104
3953.55713	0.06082
3951.62856	0.06066
3949.70000	0.06052
3947.77144	0.06051
3945.84287	0.06062
3943.91431	0.06097
3941.98574	0.06146
3940.05718	0.06127
3938.12861	0.06059
3936.20005	0.06026
3934.27148	0.06028
3932.34292	0.06060
3930.41436	0.06116
3928.48579	0.06132
3926.55723	0.06121
3924.62866	0.06136
3922.70010	0.06135
3920.77153	0.06089
3918.84297	0.06038
3916.91440	0.06032
3914.98584	0.06077
3913.05728	0.06103
3911.12871	0.06071
3909.20015	0.06016
3907.27158	0.05999
3905.34302	0.06033
3903.41445	0.06109
3901.48589	0.06163
3899.55732	0.06138
3897.62876	0.06097
3895.70020	0.06082
3893.77163	0.06073
3891.84307	0.06074
3889.91450	0.06103
3887.98594	0.06133
3886.05737	0.06155
3884.12881	0.06148
3882.20024	0.06099
3880.27168	0.06086
3878.34312	0.06116
3876.41455	0.06103
3874.48599	0.06080
3872.55742	0.06093
3870.62886	0.06100
3868.70029	0.06120
3866.77173	0.06192
3864.84316	0.06307
3862.91460	0.06425
3860.98604	0.06466
3859.05747	0.06469
3857.12891	0.06474
3855.20034	0.06467
3853.27178	0.06498
3851.34321	0.06597
3849.41465	0.06624
3847.48608	0.06630
3845.55752	0.06655
3843.62896	0.06695
3841.70039	0.06755
3839.77183	0.06830
3837.84326	0.06942
3835.91470	0.07075
3833.98613	0.07148
3832.05757	0.07152
3830.12900	0.07140
3828.20044	0.07153
3826.27187	0.07232
3824.34331	0.07357
3822.41475	0.07464
3820.48618	0.07635
3818.55762	0.07873
3816.62905	0.08012
3814.70049	0.08058
3812.77192	0.08047
3810.84336	0.08048
3808.91479	0.08099
3806.98623	0.08193
3805.05767	0.08310
3803.12910	0.08432
3801.20054	0.08588
3799.27197	0.08753
3797.34341	0.08835
3795.41484	0.08895
3793.48628	0.09009
3791.55771	0.09151
3789.62915	0.09265
3787.70059	0.09371
3785.77202	0.09522
3783.84346	0.09686
3781.91489	0.09795
3779.98633	0.09895
3778.05776	0.10072
3776.12920	0.10274
3774.20063	0.10456
3772.27207	0.10617
3770.34351	0.10754
3768.41494	0.10911
3766.48638	0.11101
3764.55781	0.11317
3762.62925	0.11531
3760.70068	0.11735
3758.77212	0.11991
3756.84355	0.12277
3754.91499	0.12490
3752.98643	0.12626
3751.05786	0.12808
3749.12930	0.13192
3747.20073	0.13575
3745.27217	0.13854
3743.34360	0.14214
3741.41504	0.14585
3739.48647	0.14856
3737.55791	0.15110
3735.62935	0.15443
3733.70078	0.15922
3731.77222	0.16423
3729.84365	0.16880
3727.91509	0.17327
3725.98652	0.17852
3724.05796	0.18480
3722.12939	0.19140
3720.20083	0.19877
3718.27227	0.20698
3716.34370	0.21488
3714.41514	0.22213
3712.48657	0.23079
3710.55801	0.24352
3708.62944	0.25774
3706.70088	0.26971
3704.77231	0.28091
3702.84375	0.29362
3700.91519	0.31012
3698.98662	0.32868
3697.05806	0.34642
3695.12949	0.36488
3693.20093	0.38426
3691.27236	0.40523
3689.34380	0.43230
3687.41523	0.46589
3685.48667	0.49635
3683.55811	0.52312
3681.62954	0.55137
3679.70098	0.58257
3677.77241	0.61484
3675.84385	0.65257
3673.91528	0.70413
3671.98672	0.74765
3670.05815	0.78645
3668.12959	0.83919
3666.20103	0.88777
3664.27246	0.92854
3662.34390	0.97234
3660.41533	1.01956
3658.48677	1.06542
3656.55820	1.11334
3654.62964	1.16703
3652.70107	1.21278
3650.77251	1.25185
3648.84395	1.30512
3646.91538	1.37308
3644.98682	1.42521
3643.05825	1.46503
3641.12969	1.50477
3639.20112	1.54833
3637.27256	1.59265
3635.34399	1.63556
3633.41543	1.67786
3631.48687	1.71773
3629.55830	1.75807
3627.62974	1.81069
3625.70117	1.86141
3623.77261	1.89611
3621.84404	1.92829
3619.91548	1.96564
3617.98691	2.01260
3616.05835	2.05825
3614.12979	2.09501
3612.20122	2.13298
3610.27266	2.17231
3608.34409	2.21175
3606.41553	2.25306
3604.48696	2.29213
3602.55840	2.32777
3600.62983	2.36645
3598.70127	2.40771
3596.77271	2.44714
3594.84414	2.48817
3592.91558	2.53149
3590.98701	2.57109
3589.05845	2.60624
3587.12988	2.64822
3585.20132	2.69611
3583.27275	2.73728
3581.34419	2.77603
3579.41562	2.81801
3577.48706	2.86204
3575.55850	2.90670
3573.62993	2.95100
3571.70137	2.99253
3569.77280	3.03304
3567.84424	3.07676
3565.91567	3.12823
3563.98711	3.17688
3562.05854	3.21687
3560.12998	3.25802
3558.20142	3.30368
3556.27285	3.35008
3554.34429	3.39382
3552.41572	3.43762
3550.48716	3.48213
3548.55859	3.52670
3546.63003	3.57328
3544.70146	3.62512
3542.77290	3.67863
3540.84434	3.72632
3538.91577	3.76869
3536.98721	3.81069
3535.05864	3.85761
3533.13008	3.90601
3531.20151	3.95163
3529.27295	3.99857
3527.34438	4.05104
3525.41582	4.10239
3523.48726	4.14953
3521.55869	4.19968
3519.63013	4.24920
3517.70156	4.29423
3515.77300	4.33924
3513.84443	4.38721
3511.91587	4.43767
3509.98730	4.48792
3508.05874	4.53430
3506.13018	4.57593
3504.20161	4.61834
3502.27305	4.66941
3500.34448	4.72259
3498.41592	4.76817
3496.48735	4.81545
3494.55879	4.86840
3492.63022	4.91850
3490.70166	4.96717
3488.77310	5.02107
3486.84453	5.07553
3484.91597	5.12308
3482.98740	5.16568
3481.05884	5.20894
3479.13027	5.25472
3477.20171	5.30296
3475.27314	5.35185
3473.34458	5.39937
3471.41602	5.44413
3469.48745	5.48502
3467.55889	5.52944
3465.63032	5.58496
3463.70176	5.64453
3461.77319	5.69511
3459.84463	5.74256
3457.91606	5.79766
3455.98750	5.85495
3454.05894	5.90498
3452.13037	5.94862
3450.20181	5.98626
3448.27324	6.01507
3446.34468	6.04867
3444.41611	6.09706
3442.48755	6.16424
3440.55898	6.23904
3438.63042	6.29724
3436.70186	6.33881
3434.77329	6.38030
3432.84473	6.43534
3430.91616	6.49990
3428.98760	6.56285
3427.05903	6.62651
3425.13047	6.69866
3423.20190	6.75409
3421.27334	6.77385
3419.34478	6.77676
3417.41621	6.78710
3415.48765	6.82060
3413.55908	6.88874
3411.63052	6.98714
3409.70195	7.05296
3407.77339	7.06245
3405.84482	7.08074
3403.91626	7.13372
3401.98770	7.16638
3400.05913	7.17723
3398.13057	7.21018
3396.20200	7.25299
3394.27344	7.30102
3392.34487	7.34895
3390.41631	7.38721
3388.48774	7.42146
3386.55918	7.46582
3384.63062	7.50724
3382.70205	7.52189
3380.77349	7.52577
3378.84492	7.55256
3376.91636	7.60255
3374.98779	7.61561
3373.05923	7.58267
3371.13066	7.55082
3369.20210	7.56346
3367.27354	7.63484
3365.34497	7.74713
3363.41641	7.85110
3361.48784	7.89020
3359.55928	7.84896
3357.63071	7.79835
3355.70215	7.82912
3353.77358	7.87894
3351.84502	7.88673
3349.91646	7.87964
3347.98789	7.86160
3346.05933	7.86445
3344.13076	7.92640
3342.20220	7.96969
3340.27363	7.94496
3338.34507	7.97730
3336.41650	8.07374
3334.48794	8.10922
3332.55937	8.03088
3330.63081	7.93447
3328.70225	7.92906
3326.77368	8.00418
3324.84512	8.06422
3322.91655	8.04439
3320.98799	8.00471
3319.05942	7.99940
3317.13086	8.01024
3315.20229	8.01908
3313.27373	8.05371
3311.34517	8.07381
3309.41660	8.05975
3307.48804	8.07454
3305.55947	8.09314
3303.63091	8.08201
3301.70234	8.04633
3299.77378	8.02550
3297.84521	8.03019
3295.91665	8.05594
3293.98809	8.10038
3292.05952	8.08639
3290.13096	8.02721
3288.20239	8.03938
3286.27383	8.12255
3284.34526	8.17399
3282.41670	8.19428
3280.48813	8.24487
3278.55957	8.26274
3276.63101	8.21355
3274.70244	8.19966
3272.77388	8.19294
3270.84531	8.14275
3268.91675	8.12833
3266.98818	8.17173
3265.05962	8.22105
3263.13105	8.20135
3261.20249	8.14935
3259.27393	8.16938
3257.34536	8.23155
3255.41680	8.21027
3253.48823	8.14078
3251.55967	8.13538
3249.63110	8.14511
3247.70254	8.10355
3245.77397	8.05509
3243.84541	8.05145
3241.91685	8.07373
3239.98828	8.07616
3238.05972	8.05491
3236.13115	8.06789
3234.20259	8.14228
3232.27402	8.20443
3230.34546	8.18789
3228.41689	8.13369
3226.48833	8.09311
3224.55977	8.04448
3222.63120	7.98731
3220.70264	7.95200
3218.77407	7.96923
3216.84551	8.01105
3214.91694	7.97418
3212.98838	7.88008
3211.05981	7.82247
3209.13125	7.81325
3207.20269	7.82144
3205.27412	7.80134
3203.34556	7.77431
3201.41699	7.80238
3199.48843	7.81688
3197.55986	7.74164
3195.63130	7.66264
3193.70273	7.63425
3191.77417	7.60906
3189.84561	7.54647
3187.91704	7.46143
3185.98848	7.41479
3184.05991	7.41173
3182.13135	7.37828
3180.20278	7.30671
3178.27422	7.23801
3176.34565	7.18602
3174.41709	7.15600
3172.48853	7.12714
3170.55996	7.08006
3168.63140	7.01946
3166.70283	6.94530
3164.77427	6.87813
3162.84570	6.83493
3160.91714	6.78918
3158.98857	6.72418
3157.06001	6.64909
3155.13145	6.56497
3153.20288	6.46485
3151.27432	6.37015
3149.34575	6.30873
3147.41719	6.26794
3145.48862	6.22150
3143.56006	6.17146
3141.63149	6.12921
3139.70293	6.07217
3137.77437	5.98645
3135.84580	5.89929
3133.91724	5.82656
3131.98867	5.75712
3130.06011	5.67970
3128.13154	5.59753
3126.20298	5.52488
3124.27441	5.46511
3122.34585	5.40227
3120.41729	5.32888
3118.48872	5.24986
3116.56016	5.17211
3114.63159	5.10236
3112.70303	5.03908
3110.77446	4.97421
3108.84590	4.90368
3106.91733	4.83100
3104.98877	4.76102
3103.06021	4.69762
3101.13164	4.63660
3099.20308	4.56906
3097.27451	4.49716
3095.34595	4.42853
3093.41738	4.36299
3091.48882	4.29792
3089.56025	4.23581
3087.63169	4.17557
3085.70312	4.11348
3083.77456	4.05022
3081.84600	3.98656
3079.91743	3.92265
3077.98887	3.86086
3076.06030	3.80092
3074.13174	3.73937
3072.20317	3.67784
3070.27461	3.62030
3068.34604	3.56509
3066.41748	3.50838
3064.48892	3.45112
3062.56035	3.39626
3060.63179	3.34236
3058.70322	3.28704
3056.77466	3.23197
3054.84609	3.17824
3052.91753	3.12458
3050.98896	3.07171
3049.06040	3.02042
3047.13184	2.96983
3045.20327	2.91965
3043.27471	2.87011
3041.34614	2.82122
3039.41758	2.77300
3037.48901	2.72568
3035.56045	2.67928
3033.63188	2.63316
3031.70332	2.58748
3029.77476	2.54307
3027.84619	2.49918
3025.91763	2.45523
3023.98906	2.41186
3022.06050	2.36941
3020.13193	2.32807
3018.20337	2.28759
3016.27480	2.24770
3014.34624	2.20840
3012.41768	2.16930
3010.48911	2.13072
3008.56055	2.09353
3006.63198	2.05693
3004.70342	2.02021
3002.77485	1.98441
3000.84629	1.95015
2998.91772	1.91669
2996.98916	1.88330
2995.06060	1.84981
2993.13203	1.81683
2991.20347	1.78541
2989.27490	1.75533
2987.34634	1.72522
2985.41777	1.69483
2983.48921	1.66528
2981.56064	1.63667
2979.63208	1.60878
2977.70352	1.58190
2975.77495	1.55557
2973.84639	1.52924
2971.91782	1.50301
2969.98926	1.47711
2968.06069	1.45180
2966.13213	1.42721
2964.20356	1.40315
2962.27500	1.37872
2960.34644	1.35382
2958.41787	1.32955
2956.48931	1.30614
2954.56074	1.28303
2952.63218	1.25997
2950.70361	1.23703
2948.77505	1.21414
2946.84648	1.19158
2944.91792	1.17013
2942.98936	1.14977
2941.06079	1.12979
2939.13223	1.10982
2937.20366	1.08988
2935.27510	1.06986
2933.34653	1.04976
2931.41797	1.03007
2929.48940	1.01134
2927.56084	0.99370
2925.63228	0.97632
2923.70371	0.95827
2921.77515	0.94024
2919.84658	0.92325
2917.91802	0.90711
2915.98945	0.89131
2914.06089	0.87526
2912.13232	0.85885
2910.20376	0.84295
2908.27520	0.82796
2906.34663	0.81363
2904.41807	0.79971
2902.48950	0.78604
2900.56094	0.77259
2898.63237	0.75958
2896.70381	0.74701
2894.77524	0.73447
2892.84668	0.72217
2890.91812	0.71047
2888.98955	0.69899
2887.06099	0.68758
2885.13242	0.67662
2883.20386	0.66616
2881.27529	0.65589
2879.34673	0.64565
2877.41816	0.63561
2875.48960	0.62587
2873.56104	0.61598
2871.63247	0.60555
2869.70391	0.59465
2867.77534	0.58364
2865.84678	0.57273
2863.91821	0.56193
2861.98965	0.55128
2860.06108	0.54100
2858.13252	0.53130
2856.20396	0.52198
2854.27539	0.51278
2852.34683	0.50388
2850.41826	0.49539
2848.48970	0.48703
2846.56113	0.47884
2844.63257	0.47111
2842.70400	0.46380
2840.77544	0.45689
2838.84687	0.45048
2836.91831	0.44447
2834.98975	0.43862
2833.06118	0.43268
2831.13262	0.42651
2829.20405	0.42026
2827.27549	0.41407
2825.34692	0.40790
2823.41836	0.40180
2821.48979	0.39590
2819.56123	0.39011
2817.63267	0.38442
2815.70410	0.37886
2813.77554	0.37336
2811.84697	0.36796
2809.91841	0.36273
2807.98984	0.35750
2806.06128	0.35218
2804.13271	0.34702
2802.20415	0.34212
2800.27559	0.33724
2798.34702	0.33231
2796.41846	0.32756
2794.48989	0.32302
2792.56133	0.31850
2790.63276	0.31385
2788.70420	0.30926
2786.77563	0.30496
2784.84707	0.30083
2782.91851	0.29666
2780.98994	0.29242
2779.06138	0.28829
2777.13281	0.28446
2775.20425	0.28073
2773.27568	0.27684
2771.34712	0.27297
2769.41855	0.26938
2767.48999	0.26596
2765.56143	0.26251
2763.63286	0.25915
2761.70430	0.25607
2759.77573	0.25318
2757.84717	0.25011
2755.91860	0.24685
2753.99004	0.24374
2752.06147	0.24087
2750.13291	0.23802
2748.20435	0.23511
2746.27578	0.23220
2744.34722	0.22942
2742.41865	0.22688
2740.49009	0.22446
2738.56152	0.22191
2736.63296	0.21925
2734.70439	0.21674
2732.77583	0.21443
2730.84727	0.21224
2728.91870	0.21007
2726.99014	0.20778
2725.06157	0.20552
2723.13301	0.20346
2721.20444	0.20143
2719.27588	0.19941
2717.34731	0.19758
2715.41875	0.19586
2713.49019	0.19408
2711.56162	0.19229
2709.63306	0.19049
2707.70449	0.18864
2705.77593	0.18684
2703.84736	0.18516
2701.91880	0.18353
2699.99023	0.18190
2698.06167	0.18038
2696.13311	0.17906
2694.20454	0.17779
2692.27598	0.17647
2690.34741	0.17518
2688.41885	0.17394
2686.49028	0.17260
2684.56172	0.17118
2682.63315	0.16983
2680.70459	0.16863
2678.77603	0.16755
2676.84746	0.16640
2674.91890	0.16524
2672.99033	0.16428
2671.06177	0.16338
2669.13320	0.16244
2667.20464	0.16149
2665.27607	0.16052
2663.34751	0.15955
2661.41895	0.15854
2659.49038	0.15759
2657.56182	0.15680
2655.63325	0.15604
2653.70469	0.15524
2651.77612	0.15452
2649.84756	0.15399
2647.91899	0.15354
2645.99043	0.15290
2644.06187	0.15218
2642.13330	0.15165
2640.20474	0.15120
2638.27617	0.15065
2636.34761	0.15009
2634.41904	0.14965
2632.49048	0.14927
2630.56191	0.14877
2628.63335	0.14816
2626.70479	0.14773
2624.77622	0.14761
2622.84766	0.14751
2620.91909	0.14722
2618.99053	0.14699
2617.06196	0.14688
2615.13340	0.14670
2613.20483	0.14641
2611.27627	0.14617
2609.34771	0.14608
2607.41914	0.14607
2605.49058	0.14607
2603.56201	0.14604
2601.63345	0.14592
2599.70488	0.14582
2597.77632	0.14582
2595.84775	0.14584
2593.91919	0.14591
2591.99062	0.14607
2590.06206	0.14626
2588.13350	0.14649
2586.20493	0.14678
2584.27637	0.14697
2582.34780	0.14708
2580.41924	0.14724
2578.49067	0.14750
2576.56211	0.14780
2574.63354	0.14811
2572.70498	0.14841
2570.77642	0.14876
2568.84785	0.14921
2566.91929	0.14966
2564.99072	0.15001
2563.06216	0.15038
2561.13359	0.15084
2559.20503	0.15132
2557.27646	0.15180
2555.34790	0.15240
2553.41934	0.15308
2551.49077	0.15364
2549.56221	0.15398
2547.63364	0.15424
2545.70508	0.15467
2543.77651	0.15529
2541.84795	0.15599
2539.91938	0.15670
2537.99082	0.15736
2536.06226	0.15804
2534.13369	0.15881
2532.20513	0.15960
2530.27656	0.16033
2528.34800	0.16099
2526.41943	0.16165
2524.49087	0.16239
2522.56230	0.16317
2520.63374	0.16386
2518.70518	0.16454
2516.77661	0.16531
2514.84805	0.16613
2512.91948	0.16685
2510.99092	0.16749
2509.06235	0.16824
2507.13379	0.16911
2505.20522	0.17001
2503.27666	0.17088
2501.34810	0.17168
2499.41953	0.17244
2497.49097	0.17323
2495.56240	0.17409
2493.63384	0.17503
2491.70527	0.17599
2489.77671	0.17690
2487.84814	0.17771
2485.91958	0.17842
2483.99102	0.17915
2482.06245	0.17999
2480.13389	0.18093
2478.20532	0.18190
2476.27676	0.18283
2474.34819	0.18373
2472.41963	0.18463
2470.49106	0.18557
2468.56250	0.18656
2466.63394	0.18745
2464.70537	0.18821
2462.77681	0.18909
2460.84824	0.19005
2458.91968	0.19085
2456.99111	0.19164
2455.06255	0.19258
2453.13398	0.19358
2451.20542	0.19455
2449.27686	0.19557
2447.34829	0.19669
2445.41973	0.19782
2443.49116	0.19895
2441.56260	0.20012
2439.63403	0.20118
2437.70547	0.20209
2435.77690	0.20303
2433.84834	0.20406
2431.91978	0.20516
2429.99121	0.20629
2428.06265	0.20727
2426.13408	0.20805
2424.20552	0.20895
2422.27695	0.21015
2420.34839	0.21140
2418.41982	0.21246
2416.49126	0.21338
2414.56270	0.21445
2412.63413	0.21578
2410.70557	0.21714
2408.77700	0.21833
2406.84844	0.21955
2404.91987	0.22079
2402.99131	0.22188
2401.06274	0.22299
2399.13418	0.22433
2397.20562	0.22568
2395.27705	0.22686
2393.34849	0.22805
2391.41992	0.22933
2389.49136	0.23054
2387.56279	0.23161
2385.63423	0.23259
2383.70566	0.23349
2381.77710	0.23419
2379.84854	0.23469
2377.91997	0.23511
2375.99141	0.23531
2374.06284	0.23530
2372.13428	0.23527
2370.20571	0.23517
2368.27715	0.23468
2366.34858	0.23393
2364.42002	0.23374
2362.49146	0.23472
2360.56289	0.23625
2358.63433	0.23756
2356.70576	0.23937
2354.77720	0.24248
2352.84863	0.24662
2350.92007	0.25072
2348.99150	0.25341
2347.06294	0.25435
2345.13437	0.25430
2343.20581	0.25469
2341.27725	0.25630
2339.34868	0.25852
2337.42012	0.26043
2335.49155	0.26181
2333.56299	0.26306
2331.63442	0.26464
2329.70586	0.26665
2327.77729	0.26900
2325.84873	0.27143
2323.92017	0.27380
2321.99160	0.27645
2320.06304	0.27928
2318.13447	0.28191
2316.20591	0.28426
2314.27734	0.28651
2312.34878	0.28864
2310.42021	0.29063
2308.49165	0.29274
2306.56309	0.29505
2304.63452	0.29737
2302.70596	0.29956
2300.77739	0.30158
2298.84883	0.30343
2296.92026	0.30539
2294.99170	0.30761
2293.06313	0.30988
2291.13457	0.31195
2289.20601	0.31387
2287.27744	0.31587
2285.34888	0.31798
2283.42031	0.32005
2281.49175	0.32205
2279.56318	0.32413
2277.63462	0.32623
2275.70605	0.32821
2273.77749	0.33018
2271.84893	0.33227
2269.92036	0.33438
2267.99180	0.33642
2266.06323	0.33844
2264.13467	0.34061
2262.20610	0.34292
2260.27754	0.34524
2258.34897	0.34747
2256.42041	0.34958
2254.49185	0.35161
2252.56328	0.35373
2250.63472	0.35602
2248.70615	0.35833
2246.77759	0.36053
2244.84902	0.36268
2242.92046	0.36495
2240.99189	0.36724
2239.06333	0.36950
2237.13477	0.37183
2235.20620	0.37421
2233.27764	0.37640
2231.34907	0.37847
2229.42051	0.38068
2227.49194	0.38305
2225.56338	0.38541
2223.63481	0.38758
2221.70625	0.38962
2219.77769	0.39189
2217.84912	0.39434
2215.92056	0.39659
2213.99199	0.39854
2212.06343	0.40050
2210.13486	0.40263
2208.20630	0.40484
2206.27773	0.40692
2204.34917	0.40895
2202.42061	0.41108
2200.49204	0.41324
2198.56348	0.41533
2196.63491	0.41730
2194.70635	0.41923
2192.77778	0.42119
2190.84922	0.42309
2188.92065	0.42491
2186.99209	0.42674
2185.06353	0.42864
2183.13496	0.43047
2181.20640	0.43214
2179.27783	0.43379
2177.34927	0.43541
2175.42070	0.43689
2173.49214	0.43827
2171.56357	0.43963
2169.63501	0.44098
2167.70645	0.44232
2165.77788	0.44368
2163.84932	0.44508
2161.92075	0.44640
2159.99219	0.44750
2158.06362	0.44846
2156.13506	0.44943
2154.20649	0.45022
2152.27793	0.45081
2150.34937	0.45147
2148.42080	0.45219
2146.49224	0.45280
2144.56367	0.45330
2142.63511	0.45376
2140.70654	0.45413
2138.77798	0.45442
2136.84941	0.45458
2134.92085	0.45455
2132.99229	0.45440
2131.06372	0.45425
2129.13516	0.45410
2127.20659	0.45388
2125.27803	0.45361
2123.34946	0.45329
2121.42090	0.45291
2119.49233	0.45237
2117.56377	0.45177
2115.63521	0.45113
2113.70664	0.45035
2111.77808	0.44949
2109.84951	0.44855
2107.92095	0.44745
2105.99238	0.44623
2104.06382	0.44498
2102.13525	0.44366
2100.20669	0.44234
2098.27812	0.44099
2096.34956	0.43951
2094.42100	0.43798
2092.49243	0.43645
2090.56387	0.43482
2088.63530	0.43306
2086.70674	0.43119
2084.77817	0.42923
2082.84961	0.42728
2080.92104	0.42537
2078.99248	0.42338
2077.06392	0.42117
2075.13535	0.41884
2073.20679	0.41662
2071.27822	0.41452
2069.34966	0.41234
2067.42109	0.41001
2065.49253	0.40765
2063.56396	0.40528
2061.63540	0.40286
2059.70684	0.40033
2057.77827	0.39779
2055.84971	0.39536
2053.92114	0.39288
2051.99258	0.39020
2050.06401	0.38743
2048.13545	0.38473
2046.20688	0.38209
2044.27832	0.37939
2042.34976	0.37672
2040.42119	0.37417
2038.49263	0.37156
2036.56406	0.36874
2034.63550	0.36588
2032.70693	0.36310
2030.77837	0.36038
2028.84980	0.35763
2026.92124	0.35483
2024.99268	0.35198
2023.06411	0.34910
2021.13555	0.34627
2019.20698	0.34359
2017.27842	0.34095
2015.34985	0.33823
2013.42129	0.33552
2011.49272	0.33285
2009.56416	0.33016
2007.63560	0.32741
2005.70703	0.32459
2003.77847	0.32175
2001.84990	0.31899
1999.92134	0.31632
1997.99277	0.31369
1996.06421	0.31111
1994.13564	0.30861
1992.20708	0.30610
1990.27852	0.30357
1988.34995	0.30114
1986.42139	0.29876
1984.49282	0.29644
1982.56426	0.29411
1980.63569	0.29174
1978.70713	0.28937
1976.77856	0.28705
1974.85000	0.28478
1972.92144	0.28255
1970.99287	0.28044
1969.06431	0.27848
1967.13574	0.27653
1965.20718	0.27451
1963.27861	0.27251
1961.35005	0.27057
1959.42148	0.26866
1957.49292	0.26682
1955.56436	0.26512
1953.63579	0.26354
1951.70723	0.26190
1949.77866	0.26019
1947.85010	0.25855
1945.92153	0.25701
1943.99297	0.25553
1942.06440	0.25404
1940.13584	0.25253
1938.20728	0.25110
1936.27871	0.24978
1934.35015	0.24846
1932.42158	0.24710
1930.49302	0.24581
1928.56445	0.24473
1926.63589	0.24375
1924.70732	0.24283
1922.77876	0.24192
1920.85020	0.24098
1918.92163	0.24006
1916.99307	0.23915
1915.06450	0.23823
1913.13594	0.23734
1911.20737	0.23652
1909.27881	0.23580
1907.35024	0.23523
1905.42168	0.23471
1903.49312	0.23415
1901.56455	0.23357
1899.63599	0.23300
1897.70742	0.23247
1895.77886	0.23206
1893.85029	0.23174
1891.92173	0.23135
1889.99316	0.23104
1888.06460	0.23084
1886.13604	0.23070
1884.20747	0.23057
1882.27891	0.23043
1880.35034	0.23035
1878.42178	0.23028
1876.49321	0.23019
1874.56465	0.23014
1872.63608	0.23028
1870.70752	0.23048
1868.77896	0.23078
1866.85039	0.23110
1864.92183	0.23122
1862.99326	0.23131
1861.06470	0.23154
1859.13613	0.23199
1857.20757	0.23243
1855.27900	0.23286
1853.35044	0.23328
1851.42187	0.23374
1849.49331	0.23422
1847.56475	0.23478
1845.63618	0.23542
1843.70762	0.23633
1841.77905	0.23736
1839.85049	0.23806
1837.92192	0.23879
1835.99336	0.23967
1834.06479	0.24067
1832.13623	0.24169
1830.20767	0.24295
1828.27910	0.24441
1826.35054	0.24563
1824.42197	0.24694
1822.49341	0.24824
1820.56484	0.24949
1818.63628	0.25083
1816.70771	0.25247
1814.77915	0.25423
1812.85059	0.25602
1810.92202	0.25796
1808.99346	0.25998
1807.06489	0.26198
1805.13633	0.26392
1803.20776	0.26611
1801.27920	0.26863
1799.35063	0.27143
1797.42207	0.27394
1795.49351	0.27626
1793.56494	0.27882
1791.63638	0.28221
1789.70781	0.28587
1787.77925	0.28879
1785.85068	0.29192
1783.92212	0.29554
1781.99355	0.29942
1780.06499	0.30359
1778.13643	0.30801
1776.20786	0.31207
1774.27930	0.31615
1772.35073	0.32167
1770.42217	0.32805
1768.49360	0.33365
1766.56504	0.33901
1764.63647	0.34442
1762.70791	0.35020
1760.77935	0.35750
1758.85078	0.36454
1756.92222	0.37172
1754.99365	0.37955
1753.06509	0.38648
1751.13652	0.39441
1749.20796	0.40455
1747.27939	0.41504
1745.35083	0.42448
1743.42227	0.43432
1741.49370	0.44500
1739.56514	0.45739
1737.63657	0.46974
1735.70801	0.48045
1733.77944	0.49647
1731.85088	0.51619
1729.92231	0.53231
1727.99375	0.54850
1726.06519	0.56549
1724.13662	0.58370
1722.20806	0.60345
1720.27949	0.62181
1718.35093	0.64310
1716.42236	0.67466
1714.49380	0.70545
1712.56523	0.73062
1710.63667	0.75470
1708.70811	0.78038
1706.77954	0.80944
1704.85098	0.84425
1702.92241	0.87552
1700.99385	0.90607
1699.06528	0.95128
1697.13672	0.99350
1695.20815	1.03745
1693.27959	1.08072
1691.35103	1.11538
1689.42246	1.15473
1687.49390	1.19631
1685.56533	1.23632
1683.63677	1.29765
1681.70820	1.36302
1679.77964	1.40610
1677.85107	1.44644
1675.92251	1.49196
1673.99395	1.54798
1672.06538	1.59767
1670.13682	1.64607
1668.20825	1.70999
1666.27969	1.76325
1664.35112	1.80844
1662.42256	1.86483
1660.49399	1.92902
1658.56543	1.97918
1656.63687	2.01855
1654.70830	2.05332
1652.77974	2.10729
1650.85117	2.15945
1648.92261	2.17828
1646.99404	2.20211
1645.06548	2.23093
1643.13691	2.25226
1641.20835	2.26488
1639.27979	2.27488
1637.35122	2.27980
1635.42266	2.27875
1633.49409	2.27361
1631.56553	2.26278
1629.63696	2.24758
1627.70840	2.22101
1625.77983	2.18927
1623.85127	2.14860
1621.92271	2.09802
1619.99414	2.05254
1618.06558	2.00836
1616.13701	1.94658
1614.20845	1.88401
1612.27988	1.83584
1610.35132	1.78533
1608.42275	1.73089
1606.49419	1.67746
1604.56562	1.62811
1602.63706	1.58049
1600.70850	1.53448
1598.77993	1.49222
1596.85137	1.45204
1594.92280	1.41254
1592.99424	1.37412
1591.06567	1.33894
1589.13711	1.30600
1587.20854	1.27526
1585.27998	1.24691
1583.35142	1.22037
1581.42285	1.19575
1579.49429	1.17450
1577.56572	1.15536
1575.63716	1.13258
1573.70859	1.11307
1571.78003	1.10015
1569.85146	1.08654
1567.92290	1.07204
1565.99434	1.06134
1564.06577	1.05291
1562.13721	1.04597
1560.20864	1.04042
1558.28008	1.03476
1556.35151	1.03210
1554.42295	1.03048
1552.49438	1.02839
1550.56582	1.02491
1548.63726	1.01905
1546.70869	1.01153
1544.78013	1.00211
1542.85156	0.99034
1540.92300	0.97426
1538.99443	0.95050
1537.06587	0.93321
1535.13730	0.92092
1533.20874	0.90436
1531.28018	0.88707
1529.35161	0.87460
1527.42305	0.86253
1525.49448	0.84989
1523.56592	0.83910
1521.63735	0.82878
1519.70879	0.81871
1517.78022	0.81046
1515.85166	0.80096
1513.92310	0.79088
1511.99453	0.78198
1510.06597	0.77379
1508.13740	0.76559
1506.20884	0.75373
1504.28027	0.74421
1502.35171	0.73896
1500.42314	0.73428
1498.49458	0.72931
1496.56602	0.72357
1494.63745	0.71771
1492.70889	0.71291
1490.78032	0.70860
1488.85176	0.70395
1486.92319	0.69999
1484.99463	0.69699
1483.06606	0.69459
1481.13750	0.69263
1479.20894	0.69103
1477.28037	0.68995
1475.35181	0.68932
1473.42324	0.68894
1471.49468	0.68801
1469.56611	0.68638
1467.63755	0.68452
1465.70898	0.68262
1463.78042	0.68094
1461.85186	0.67975
1459.92329	0.67890
1457.99473	0.67812
1456.06616	0.67666
1454.13760	0.67424
1452.20903	0.67175
1450.28047	0.66915
1448.35190	0.66629
1446.42334	0.66329
1444.49478	0.66072
1442.56621	0.65853
1440.63765	0.65630
1438.70908	0.65384
1436.78052	0.65073
1434.85195	0.64757
1432.92339	0.64536
1430.99482	0.64378
1429.06626	0.64263
1427.13770	0.64194
1425.20913	0.64159
1423.28057	0.64151
1421.35200	0.64151
1419.42344	0.64146
1417.49487	0.64110
1415.56631	0.64004
1413.63774	0.63891
1411.70918	0.63821
1409.78062	0.63798
1407.85205	0.63804
1405.92349	0.63832
1403.99492	0.63847
1402.06636	0.63789
1400.13779	0.63662
1398.20923	0.63486
1396.28066	0.63262
1394.35210	0.62960
1392.42354	0.62615
1390.49497	0.62294
1388.56641	0.61980
1386.63784	0.61640
1384.70928	0.61298
1382.78071	0.60970
1380.85215	0.60655
1378.92358	0.60379
1376.99502	0.60159
1375.06646	0.59993
1373.13789	0.59882
1371.20933	0.59819
1369.28076	0.59762
1367.35220	0.59685
1365.42363	0.59578
1363.49507	0.59445
1361.56650	0.59309
1359.63794	0.59177
1357.70937	0.59044
1355.78081	0.58904
1353.85225	0.58773
1351.92368	0.58670
1349.99512	0.58586
1348.06655	0.58494
1346.13799	0.58390
1344.20942	0.58293
1342.28086	0.58210
1340.35229	0.58131
1338.42373	0.58050
1336.49517	0.57971
1334.56660	0.57899
1332.63804	0.57843
1330.70947	0.57815
1328.78091	0.57819
1326.85234	0.57848
1324.92378	0.57878
1322.99521	0.57907
1321.06665	0.57941
1319.13809	0.57970
1317.20952	0.57965
1315.28096	0.57934
1313.35239	0.57893
1311.42383	0.57824
1309.49526	0.57727
1307.56670	0.57633
1305.63813	0.57547
1303.70957	0.57451
1301.78101	0.57344
1299.85244	0.57230
1297.92388	0.57119
1295.99531	0.57022
1294.06675	0.56932
1292.13818	0.56840
1290.20962	0.56732
1288.28105	0.56591
1286.35249	0.56448
1284.42393	0.56344
1282.49536	0.56249
1280.56680	0.56137
1278.63823	0.56022
1276.70967	0.55909
1274.78110	0.55800
1272.85254	0.55708
1270.92397	0.55642
1268.99541	0.55595
1267.06685	0.55547
1265.13828	0.55481
1263.20972	0.55408
1261.28115	0.55351
1259.35259	0.55300
1257.42402	0.55232
1255.49546	0.55170
1253.56689	0.55151
1251.63833	0.55155
1249.70977	0.55138
1247.78120	0.55100
1245.85264	0.55062
1243.92407	0.55016
1241.99551	0.54945
1240.06694	0.54842
1238.13838	0.54708
1236.20981	0.54550
1234.28125	0.54385
1232.35269	0.54224
1230.42412	0.54062
1228.49556	0.53895
1226.56699	0.53725
1224.63843	0.53561
1222.70986	0.53414
1220.78130	0.53288
1218.85273	0.53171
1216.92417	0.53059
1214.99561	0.52956
1213.06704	0.52864
1211.13848	0.52793
1209.20991	0.52751
1207.28135	0.52711
1205.35278	0.52641
1203.42422	0.52561
1201.49565	0.52485
1199.56709	0.52405
1197.63853	0.52321
1195.70996	0.52236
1193.78140	0.52149
1191.85283	0.52071
1189.92427	0.52008
1187.99570	0.51966
1186.06714	0.51941
1184.13857	0.51942
1182.21001	0.51999
1180.28145	0.52094
1178.35288	0.52194
1176.42432	0.52311
1174.49575	0.52445
1172.56719	0.52564
1170.63862	0.52649
1168.71006	0.52702
1166.78149	0.52747
1164.85293	0.52809
1162.92437	0.52881
1160.99580	0.52938
1159.06724	0.52958
1157.13867	0.52939
1155.21011	0.52883
1153.28154	0.52778
1151.35298	0.52610
1149.42441	0.52382
1147.49585	0.52106
1145.56729	0.51798
1143.63872	0.51503
1141.71016	0.51252
1139.78159	0.51036
1137.85303	0.50861
1135.92446	0.50757
1133.99590	0.50721
1132.06733	0.50708
1130.13877	0.50708
1128.21021	0.50704
1126.28164	0.50649
1124.35308	0.50566
1122.42451	0.50520
1120.49595	0.50521
1118.56738	0.50546
1116.63882	0.50586
1114.71025	0.50640
1112.78169	0.50712
1110.85312	0.50792
1108.92456	0.50869
1106.99600	0.50945
1105.06743	0.51031
1103.13887	0.51130
1101.21030	0.51236
1099.28174	0.51355
1097.35317	0.51511
1095.42461	0.51741
1093.49604	0.52094
1091.56748	0.52602
1089.63892	0.53248
1087.71035	0.54007
1085.78179	0.54863
1083.85322	0.55759
1081.92466	0.56562
1079.99609	0.57139
1078.06753	0.57416
1076.13896	0.57357
1074.21040	0.56990
1072.28184	0.56412
1070.35327	0.55726
1068.42471	0.55023
1066.49614	0.54365
1064.56758	0.53747
1062.63901	0.53178
1060.71045	0.52698
1058.78188	0.52299
1056.85332	0.51940
1054.92476	0.51604
1052.99619	0.51319
1051.06763	0.51105
1049.13906	0.50955
1047.21050	0.50900
1045.28193	0.50935
1043.35337	0.50989
1041.42480	0.51034
1039.49624	0.51080
1037.56768	0.51125
1035.63911	0.51143
1033.71055	0.51090
1031.78198	0.50963
1029.85342	0.50800
1027.92485	0.50612
1025.99629	0.50417
1024.06772	0.50263
1022.13916	0.50158
1020.21060	0.50079
1018.28203	0.50022
1016.35347	0.49983
1014.42490	0.49946
1012.49634	0.49902
1010.56777	0.49874
1008.63921	0.49882
1006.71064	0.49922
1004.78208	0.49997
1002.85352	0.50142
1000.92495	0.50382
998.99639	0.50713
997.06782	0.51118
995.13926	0.51546
993.21069	0.51946
991.28213	0.52290
989.35356	0.52519
987.42500	0.52583
985.49644	0.52537
983.56787	0.52484
981.63931	0.52477
979.71074	0.52529
977.78218	0.52659
975.85361	0.52858
973.92505	0.53101
971.99648	0.53384
970.06792	0.53713
968.13936	0.54089
966.21079	0.54496
964.28223	0.54935
962.35366	0.55420
960.42510	0.55932
958.49653	0.56447
956.56797	0.56991
954.63940	0.57585
952.71084	0.58220
950.78228	0.58882
948.85371	0.59512
946.92515	0.60071
944.99658	0.60619
943.06802	0.61211
941.13945	0.61829
939.21089	0.62452
937.28232	0.63055
935.35376	0.63614
933.42520	0.64156
931.49663	0.64743
929.56807	0.65380
927.63950	0.65997
925.71094	0.66588
923.78237	0.67208
921.85381	0.67848
919.92524	0.68507
917.99668	0.69209
916.06812	0.69907
914.13955	0.70604
912.21099	0.71372
910.28242	0.72220
908.35386	0.73093
906.42529	0.73931
904.49673	0.74785
902.56816	0.75712
900.63960	0.76616
898.71104	0.77471
896.78247	0.78346
894.85391	0.79274
892.92534	0.80260
890.99678	0.81308
889.06821	0.82418
887.13965	0.83499
885.21108	0.84545
883.28252	0.85670
881.35396	0.86880
879.42539	0.88112
877.49683	0.89312
875.56826	0.90476
873.63970	0.91544
871.71113	0.92485
869.78257	0.93504
867.85400	0.94826
865.92544	0.96299
863.99687	0.97538
862.06831	0.98545
860.13975	0.99539
858.21118	1.00720
856.28262	1.02208
854.35405	1.03653
852.42549	1.04727
850.49692	1.05595
848.56836	1.06520
846.63979	1.07733
844.71123	1.09201
842.78267	1.10509
840.85410	1.11456
838.92554	1.12318
836.99697	1.13410
835.06841	1.14500
833.13984	1.15291
831.21128	1.16173
829.28271	1.17348
827.35415	1.18459
825.42559	1.19504
823.49702	1.20817
821.56846	1.22035
819.63989	1.22597
817.71133	1.23106
815.78276	1.24046
813.85420	1.25036
811.92563	1.26065
809.99707	1.27024
808.06851	1.27797
806.13994	1.28687
804.21138	1.29568
802.28281	1.29930
800.35425	1.29011
798.42568	1.27480
796.49712	1.26888
794.56855	1.26981
792.63999	1.26009
790.71143	1.24926
788.78286	1.28087
786.85430	1.34588
784.92573	1.34597
782.99717	1.28412
781.06860	1.25510
779.14004	1.25821
777.21147	1.27595
775.28291	1.30418
773.35435	1.29104
771.42578	1.25198
769.49722	1.23307
767.56865	1.23149
765.64009	1.24887
763.71152	1.28937
761.78296	1.31706
759.85439	1.30481
757.92583	1.27235
755.99727	1.20271
754.06870	1.11452
752.14014	1.03898
750.21157	0.99341
748.28301	0.99400
746.35444	1.01284
744.42588	0.99598
742.49731	0.93673
740.56875	0.85921
738.64019	0.76462
736.71162	0.66067
734.78306	0.59037
732.85449	0.55080
730.92593	0.45994
728.99736	0.29964
727.06880	0.15246
725.14023	0.03450
723.21167	-0.06092
721.28311	-0.14562
719.35454	-0.16383
717.42598	-0.02499
715.49741	0.19019
713.56885	0.11809
711.64028	0.00502
709.71172	-0.06567
707.78315	-0.08236
705.85459	-0.02064
703.92603	0.06102
701.99746	0.13010
700.06890	0.14391
698.14033	0.14980
696.21177	0.21218
694.28320	0.30591
692.35464	0.36757
690.42607	0.42417
688.49751	0.44939
686.56895	0.38027
684.64038	0.29699
682.71182	0.22777
680.78325	0.19369
678.85469	0.21003
676.92612	0.18702
674.99756	0.11297
673.06899	0.07380
671.14043	0.07936
669.21187	0.11801
667.28330	0.17691
665.35474	0.23400
663.42617	0.30684
661.49761	0.42605
659.56904	0.51868
657.64048	0.42482
655.71191	0.28334
653.78335	0.22198
651.85479	0.23494
649.92622	0.29717
647.99766	0.41067
646.06909	0.50268
644.14053	0.40961
642.21196	0.26961
640.28340	0.20847
638.35483	0.23438
636.42627	0.29057
634.49771	0.36933
632.56914	0.47683
630.64058	0.45248
628.71201	0.27352
626.78345	0.11619
624.85488	0.08077
622.92632	0.16493
620.99775	0.25794
619.06919	0.26940
617.14062	0.27831
615.21206	0.30736
613.28350	0.32891
611.35493	0.32984
609.42637	0.29897
607.49780	0.27137
605.56924	0.31048
603.64067	0.41327
601.71211	0.47173
599.78354	0.40335
597.85498	0.32519
595.92642	0.23364
593.99785	0.14983
592.06929	0.12141
590.14072	0.14849
588.21216	0.18371
586.28359	0.18770
584.35503	0.18307
582.42646	0.15003
580.49790	0.05398
578.56934	-0.00322
576.64077	0.06436
574.71221	0.22963
572.78364	0.37263
570.85508	0.32700
568.92651	0.17358
566.99795	0.08059
565.06938	0.11295
563.14082	0.19801
561.21226	0.20554
559.28369	0.16612
557.35513	0.17339
555.42656	0.22644
553.49800	0.22257
551.56943	0.18816
549.64087	0.20679
547.71230	0.21207
545.78374	0.16880
543.85518	0.14938
541.92661	0.19763
539.99805	0.28058
538.06948	0.32848
536.14092	0.32558
534.21235	0.32836
532.28379	0.31428
530.35522	0.25535
528.42666	0.18804
526.49810	0.16247
524.56953	0.20534
522.64097	0.27442
520.71240	0.26629
518.78384	0.21433
516.85527	0.18160
514.92671	0.18145
512.99814	0.19639
511.06958	0.17954
509.14102	0.12850
507.21245	0.08802
505.28389	0.09681
503.35532	0.17700
501.42676	0.28784
499.49819	0.31646
