3997.91411	0.06076
3995.98555	0.06102
3994.05698	0.06132
3992.12842	0.06158
3990.19985	0.06215
3988.27129	0.06283
3986.34272	0.06345
3984.41416	0.06377
3982.48560	0.06362
3980.55703	0.06346
3978.62847	0.06354
3976.69990	0.06368
3974.77134	0.06377
3972.84277	0.06398
3970.91421	0.06434
3968.98564	0.06450
3967.05708	0.06455
3965.12852	0.06469
3963.19995	0.06486
3961.27139	0.06501
3959.34282	0.06508
3957.41426	0.06500
3955.48569	0.06508
3953.55713	0.06538
3951.62856	0.06550
3949.70000	0.06535
3947.77144	0.06527
3945.84287	0.06536
3943.91431	0.06553
3941.98574	0.06569
3940.05718	0.06556
3938.12861	0.06517
3936.20005	0.06505
3934.27148	0.06532
3932.34292	0.06590
3930.41436	0.06653
3928.48579	0.06645
3926.55723	0.06595
3924.62866	0.06595
3922.70010	0.06611
3920.77153	0.06572
3918.84297	0.06514
3916.91440	0.06490
3914.98584	0.06502
3913.05728	0.06523
3911.12871	0.06526
3909.20015	0.06496
3907.27158	0.06439
3905.34302	0.06399
3903.41445	0.06445
3901.48589	0.06540
3899.55732	0.06576
3897.62876	0.06546
3895.70020	0.06493
3893.77163	0.06465
3891.84307	0.06496
3889.91450	0.06556
3887.98594	0.06552
3886.05737	0.06532
3884.12881	0.06574
3882.20024	0.06618
3880.27168	0.06622
3878.34312	0.06601
3876.41455	0.06579
3874.48599	0.06597
3872.55742	0.06632
3870.62886	0.06646
3868.70029	0.06655
3866.77173	0.06647
3864.84316	0.06670
3862.91460	0.06755
3860.98604	0.06817
3859.05747	0.06816
3857.12891	0.06783
3855.20034	0.06759
3853.27178	0.06846
3851.34321	0.07044
3849.41465	0.07094
3847.48608	0.07062
3845.55752	0.07054
3843.62896	0.07099
3841.70039	0.07172
3839.77183	0.07269
3837.84326	0.07403
3835.91470	0.07478
3833.98613	0.07485
3832.05757	0.07498
3830.12900	0.07553
3828.20044	0.07643
3826.27187	0.07736
3824.34331	0.07792
3822.41475	0.07833
3820.48618	0.07965
3818.55762	0.08122
3816.62905	0.08180
3814.70049	0.08205
3812.77192	0.08241
3810.84336	0.08302
3808.91479	0.08398
3806.98623	0.08552
3805.05767	0.08719
3803.12910	0.08824
3801.20054	0.08969
3799.27197	0.09128
3797.34341	0.09205
3795.41484	0.09309
3793.48628	0.09431
3791.55771	0.09515
3789.62915	0.09604
3787.70059	0.09726
3785.77202	0.09893
3783.84346	0.10080
3781.91489	0.10219
3779.98633	0.10334
3778.05776	0.10514
3776.12920	0.10693
3774.20063	0.10810
3772.27207	0.10935
3770.34351	0.11148
3768.41494	0.11407
3766.48638	0.11585
3764.55781	0.11737
3762.62925	0.11896
3760.70068	0.12041
3758.77212	0.12252
3756.84355	0.12534
3754.91499	0.12796
3752.98643	0.13045
3751.05786	0.13328
3749.12930	0.13666
3747.20073	0.13961
3745.27217	0.14229
3743.34360	0.14642
3741.41504	0.15035
3739.48647	0.15272
3737.55791	0.15519
3735.62935	0.15906
3733.70078	0.16462
3731.77222	0.17021
3729.84365	0.17491
3727.91509	0.17920
3725.98652	0.18446
3724.05796	0.19097
3722.12939	0.19766
3720.20083	0.20458
3718.27227	0.21176
3716.34370	0.21898
3714.41514	0.22603
3712.48657	0.23460
3710.55801	0.24773
3708.62944	0.26267
3706.70088	0.27490
3704.77231	0.28629
3702.84375	0.29923
3700.91519	0.31554
3698.98662	0.33339
3697.05806	0.35057
3695.12949	0.36894
3693.20093	0.38832
3691.27236	0.40892
3689.34380	0.43578
3687.41523	0.46979
3685.48667	0.50022
3683.55811	0.52669
3681.62954	0.55509
3679.70098	0.58657
3677.77241	0.61914
3675.84385	0.65755
3673.91528	0.70949
3671.98672	0.75222
3670.05815	0.79033
3668.12959	0.84411
3666.20103	0.89403
3664.27246	0.93471
3662.34390	0.97761
3660.41533	1.02419
3658.48677	1.07004
3656.55820	1.11844
3654.62964	1.17270
3652.70107	1.21853
3650.77251	1.25786
3648.84395	1.31196
3646.91538	1.37972
3644.98682	1.43082
3643.05825	1.47005
3641.12969	1.50992
3639.20112	1.55396
3637.27256	1.59842
3635.34399	1.64184
3633.41543	1.68505
3631.48687	1.72494
3629.55830	1.76490
3627.62974	1.81806
3625.70117	1.86889
3623.77261	1.90306
3621.84404	1.93528
3619.91548	1.97226
3617.98691	2.01708
3616.05835	2.06067
3614.12979	2.09776
3612.20122	2.13678
3610.27266	2.17567
3608.34409	2.21469
3606.41553	2.25661
3604.48696	2.29628
3602.55840	2.33195
3600.62983	2.36963
3598.70127	2.41022
3596.77271	2.45060
3594.84414	2.49212
3592.91558	2.53476
3590.98701	2.57421
3589.05845	2.60982
3587.12988	2.65215
3585.20132	2.70093
3583.27275	2.74288
3581.34419	2.78014
3579.41562	2.81981
3577.48706	2.86276
3575.55850	2.90631
3573.62993	2.95025
3571.70137	2.99183
3569.77280	3.02973
3567.84424	3.07028
3565.91567	3.12273
3563.98711	3.17548
3562.05854	3.21868
3560.12998	3.25970
3558.20142	3.30230
3556.27285	3.34760
3554.34429	3.39315
3552.41572	3.43958
3550.48716	3.48779
3548.55859	3.53511
3546.63003	3.58064
3544.70146	3.62521
3542.77290	3.66937
3540.84434	3.71667
3538.91577	3.76543
3536.98721	3.81119
3535.05864	3.85831
3533.13008	3.90664
3531.20151	3.95210
3529.27295	3.99563
3527.34438	4.04269
3525.41582	4.09372
3523.48726	4.14453
3521.55869	4.19603
3519.63013	4.24583
3517.70156	4.28991
3515.77300	4.33010
3513.84443	4.37462
3511.91587	4.42663
3509.98730	4.48198
3508.05874	4.53533
3506.13018	4.58113
3504.20161	4.62162
3502.27305	4.66758
3500.34448	4.71815
3498.41592	4.76236
3496.48735	4.80363
3494.55879	4.84965
3492.63022	4.90355
3490.70166	4.96271
3488.77310	5.01670
3486.84453	5.05859
3484.91597	5.09667
3482.98740	5.14346
3481.05884	5.19222
3479.13027	5.23074
3477.20171	5.27086
3475.27314	5.32352
3473.34458	5.37929
3471.41602	5.42999
3469.48745	5.47884
3467.55889	5.52955
3465.63032	5.57927
3463.70176	5.62648
3461.77319	5.67311
3459.84463	5.72018
3457.91606	5.76348
3455.98750	5.80695
3454.05894	5.85914
3452.13037	5.90894
3450.20181	5.94749
3448.27324	5.99045
3446.34468	6.04715
3444.41611	6.10378
3442.48755	6.15825
3440.55898	6.21131
3438.63042	6.26102
3436.70186	6.30640
3434.77329	6.34131
3432.84473	6.37457
3430.91616	6.42140
3428.98760	6.48938
3427.05903	6.56389
3425.13047	6.61836
3423.20190	6.64848
3421.27334	6.68657
3419.34478	6.73874
3417.41621	6.78073
3415.48765	6.81982
3413.55908	6.85827
3411.63052	6.88409
3409.70195	6.92003
3407.77339	7.00008
3405.84482	7.08328
3403.91626	7.10731
3401.98770	7.08011
3400.05913	7.07367
3398.13057	7.12998
3396.20200	7.19962
3394.27344	7.21978
3392.34487	7.21711
3390.41631	7.28498
3388.48774	7.40155
3386.55918	7.46409
3384.63062	7.47234
3382.70205	7.49080
3380.77349	7.52608
3378.84492	7.54714
3376.91636	7.54653
3374.98779	7.53354
3373.05923	7.53314
3371.13066	7.55474
3369.20210	7.60609
3367.27354	7.66418
3365.34497	7.69966
3363.41641	7.70243
3361.48784	7.71090
3359.55928	7.78040
3357.63071	7.86418
3355.70215	7.90493
3353.77358	7.91686
3351.84502	7.94929
3349.91646	7.94063
3347.98789	7.87187
3346.05933	7.87576
3344.13076	7.95892
3342.20220	7.99113
3340.27363	7.96126
3338.34507	7.96607
3336.41650	7.98501
3334.48794	7.98075
3332.55937	7.93106
3330.63081	7.85079
3328.70225	7.80984
3326.77368	7.82147
3324.84512	7.85125
3322.91655	7.88359
3320.98799	7.96240
3319.05942	8.06291
3317.13086	8.05892
3315.20229	7.96258
3313.27373	7.94171
3311.34517	8.01560
3309.41660	8.06236
3307.48804	8.00689
3305.55947	7.93043
3303.63091	7.95596
3301.70234	7.99563
3299.77378	7.92904
3297.84521	7.87093
3295.91665	7.94857
3293.98809	8.07951
3292.05952	8.10540
3290.13096	8.01087
3288.20239	7.90180
3286.27383	7.86897
3284.34526	7.91329
3282.41670	7.97926
3280.48813	7.96581
3278.55957	7.92321
3276.63101	7.97937
3274.70244	8.10368
3272.77388	8.16399
3270.84531	8.09044
3268.91675	7.99401
3266.98818	7.95461
3265.05962	7.92968
3263.13105	7.93338
3261.20249	8.00022
3259.27393	8.06010
3257.34536	8.08702
3255.41680	8.10508
3253.48823	8.09124
3251.55967	8.04476
3249.63110	8.00892
3247.70254	8.01569
3245.77397	8.04511
3243.84541	8.05679
3241.91685	8.00209
3239.98828	7.97227
3238.05972	8.04991
3236.13115	8.06772
3234.20259	7.95229
3232.27402	7.88778
3230.34546	7.93630
3228.41689	7.98816
3226.48833	7.93125
3224.55977	7.80976
3222.63120	7.76784
3220.70264	7.83150
3218.77407	7.90869
3216.84551	7.92315
3214.91694	7.89883
3212.98838	7.89643
3211.05981	7.88690
3209.13125	7.82461
3207.20269	7.75588
3205.27412	7.72119
3203.34556	7.69683
3201.41699	7.67828
3199.48843	7.67202
3197.55986	7.66972
3195.63130	7.65821
3193.70273	7.59810
3191.77417	7.51203
3189.84561	7.45304
3187.91704	7.40392
3185.98848	7.34671
3184.05991	7.31825
3182.13135	7.32836
3180.20278	7.30664
3178.27422	7.23161
3176.34565	7.15478
3174.41709	7.07441
3172.48853	7.00225
3170.55996	6.96651
3168.63140	6.92564
3166.70283	6.85069
3164.77427	6.78255
3162.84570	6.74495
3160.91714	6.71432
3158.98857	6.66198
3157.06001	6.57957
3155.13145	6.49025
3153.20288	6.41722
3151.27432	6.35920
3149.34575	6.30476
3147.41719	6.25184
3145.48862	6.19812
3143.56006	6.12041
3141.63149	6.02326
3139.70293	5.94478
3137.77437	5.89260
3135.84580	5.84042
3133.91724	5.77008
3131.98867	5.68609
3130.06011	5.60624
3128.13154	5.53825
3126.20298	5.46963
3124.27441	5.39743
3122.34585	5.33002
3120.41729	5.26612
3118.48872	5.20107
3116.56016	5.13221
3114.63159	5.05941
3112.70303	4.98951
3110.77446	4.92349
3108.84590	4.85497
3106.91733	4.78678
3104.98877	4.72198
3103.06021	4.65554
3101.13164	4.58531
3099.20308	4.51539
3097.27451	4.44982
3095.34595	4.38768
3093.41738	4.32439
3091.48882	4.26026
3089.56025	4.19896
3087.63169	4.13906
3085.70312	4.07705
3083.77456	4.01191
3081.84600	3.94735
3079.91743	3.88759
3077.98887	3.83117
3076.06030	3.77426
3074.13174	3.71509
3072.20317	3.65594
3070.27461	3.59997
3068.34604	3.54558
3066.41748	3.48963
3064.48892	3.43277
3062.56035	3.37683
3060.63179	3.32287
3058.70322	3.27014
3056.77466	3.21674
3054.84609	3.16372
3052.91753	3.11241
3050.98896	3.06161
3049.06040	3.01117
3047.13184	2.96140
3045.20327	2.91170
3043.27471	2.86259
3041.34614	2.81475
3039.41758	2.76748
3037.48901	2.71990
3035.56045	2.67272
3033.63188	2.62723
3031.70332	2.58279
3029.77476	2.53892
3027.84619	2.49619
3025.91763	2.45390
3023.98906	2.41134
3022.06050	2.36870
3020.13193	2.32630
3018.20337	2.28468
3016.27480	2.24414
3014.34624	2.20478
3012.41768	2.16632
3010.48911	2.12835
3008.56055	2.09119
3006.63198	2.05517
3004.70342	2.01998
3002.77485	1.98501
3000.84629	1.95041
2998.91772	1.91658
2996.98916	1.88347
2995.06060	1.85103
2993.13203	1.81918
2991.20347	1.78808
2989.27490	1.75787
2987.34634	1.72841
2985.41777	1.69962
2983.48921	1.67147
2981.56064	1.64372
2979.63208	1.61625
2977.70352	1.58975
2975.77495	1.56443
2973.84639	1.53927
2971.91782	1.51399
2969.98926	1.48955
2968.06069	1.46595
2966.13213	1.44206
2964.20356	1.41787
2962.27500	1.39383
2960.34644	1.36988
2958.41787	1.34600
2956.48931	1.32215
2954.56074	1.29840
2952.63218	1.27504
2950.70361	1.25187
2948.77505	1.22835
2946.84648	1.20502
2944.91792	1.18304
2942.98936	1.16257
2941.06079	1.14273
2939.13223	1.12254
2937.20366	1.10201
2935.27510	1.08149
2933.34653	1.06108
2931.41797	1.04124
2929.48940	1.02216
2927.56084	1.00346
2925.63228	0.98492
2923.70371	0.96670
2921.77515	0.94903
2919.84658	0.93213
2917.91802	0.91572
2915.98945	0.89897
2914.06089	0.88189
2912.13232	0.86484
2910.20376	0.84814
2908.27520	0.83239
2906.34663	0.81761
2904.41807	0.80325
2902.48950	0.78914
2900.56094	0.77538
2898.63237	0.76208
2896.70381	0.74933
2894.77524	0.73689
2892.84668	0.72465
2890.91812	0.71286
2888.98955	0.70124
2887.06099	0.68961
2885.13242	0.67864
2883.20386	0.66850
2881.27529	0.65870
2879.34673	0.64895
2877.41816	0.63927
2875.48960	0.62959
2873.56104	0.61953
2871.63247	0.60906
2869.70391	0.59833
2867.77534	0.58722
2865.84678	0.57576
2863.91821	0.56411
2861.98965	0.55263
2860.06108	0.54169
2858.13252	0.53132
2856.20396	0.52156
2854.27539	0.51251
2852.34683	0.50387
2850.41826	0.49539
2848.48970	0.48732
2846.56113	0.47969
2844.63257	0.47216
2842.70400	0.46485
2840.77544	0.45811
2838.84687	0.45189
2836.91831	0.44590
2834.98975	0.43994
2833.06118	0.43403
2831.13262	0.42807
2829.20405	0.42204
2827.27549	0.41614
2825.34692	0.41055
2823.41836	0.40513
2821.48979	0.39952
2819.56123	0.39364
2817.63267	0.38773
2815.70410	0.38197
2813.77554	0.37638
2811.84697	0.37104
2809.91841	0.36570
2807.98984	0.36002
2806.06128	0.35449
2804.13271	0.34948
2802.20415	0.34466
2800.27559	0.33981
2798.34702	0.33499
2796.41846	0.33030
2794.48989	0.32588
2792.56133	0.32153
2790.63276	0.31701
2788.70420	0.31241
2786.77563	0.30787
2784.84707	0.30340
2782.91851	0.29904
2780.98994	0.29486
2779.06138	0.29092
2777.13281	0.28724
2775.20425	0.28367
2773.27568	0.27992
2771.34712	0.27603
2769.41855	0.27228
2767.48999	0.26865
2765.56143	0.26512
2763.63286	0.26183
2761.70430	0.25858
2759.77573	0.25524
2757.84717	0.25199
2755.91860	0.24884
2753.99004	0.24577
2752.06147	0.24280
2750.13291	0.23980
2748.20435	0.23687
2746.27578	0.23415
2744.34722	0.23150
2742.41865	0.22886
2740.49009	0.22625
2738.56152	0.22363
2736.63296	0.22102
2734.70439	0.21844
2732.77583	0.21600
2730.84727	0.21376
2728.91870	0.21149
2726.99014	0.20916
2725.06157	0.20699
2723.13301	0.20489
2721.20444	0.20278
2719.27588	0.20075
2717.34731	0.19876
2715.41875	0.19682
2713.49019	0.19502
2711.56162	0.19327
2709.63306	0.19148
2707.70449	0.18972
2705.77593	0.18805
2703.84736	0.18648
2701.91880	0.18504
2699.99023	0.18359
2698.06167	0.18195
2696.13311	0.18031
2694.20454	0.17892
2692.27598	0.17771
2690.34741	0.17652
2688.41885	0.17532
2686.49028	0.17406
2684.56172	0.17283
2682.63315	0.17170
2680.70459	0.17062
2678.77603	0.16957
2676.84746	0.16846
2674.91890	0.16739
2672.99033	0.16652
2671.06177	0.16569
2669.13320	0.16469
2667.20464	0.16365
2665.27607	0.16274
2663.34751	0.16179
2661.41895	0.16074
2659.49038	0.15980
2657.56182	0.15911
2655.63325	0.15868
2653.70469	0.15828
2651.77612	0.15755
2649.84756	0.15664
2647.91899	0.15595
2645.99043	0.15539
2644.06187	0.15483
2642.13330	0.15432
2640.20474	0.15379
2638.27617	0.15319
2636.34761	0.15268
2634.41904	0.15220
2632.49048	0.15170
2630.56191	0.15131
2628.63335	0.15108
2626.70479	0.15084
2624.77622	0.15059
2622.84766	0.15044
2620.91909	0.15018
2618.99053	0.14973
2617.06196	0.14927
2615.13340	0.14904
2613.20483	0.14900
2611.27627	0.14894
2609.34771	0.14883
2607.41914	0.14868
2605.49058	0.14858
2603.56201	0.14856
2601.63345	0.14856
2599.70488	0.14856
2597.77632	0.14860
2595.84775	0.14870
2593.91919	0.14883
2591.99062	0.14895
2590.06206	0.14896
2588.13350	0.14893
2586.20493	0.14907
2584.27637	0.14933
2582.34780	0.14952
2580.41924	0.14971
2578.49067	0.15000
2576.56211	0.15033
2574.63354	0.15065
2572.70498	0.15104
2570.77642	0.15145
2568.84785	0.15178
2566.91929	0.15206
2564.99072	0.15232
2563.06216	0.15261
2561.13359	0.15297
2559.20503	0.15338
2557.27646	0.15384
2555.34790	0.15434
2553.41934	0.15485
2551.49077	0.15538
2549.56221	0.15590
2547.63364	0.15638
2545.70508	0.15685
2543.77651	0.15737
2541.84795	0.15799
2539.91938	0.15875
2537.99082	0.15955
2536.06226	0.16021
2534.13369	0.16075
2532.20513	0.16135
2530.27656	0.16207
2528.34800	0.16281
2526.41943	0.16348
2524.49087	0.16411
2522.56230	0.16473
2520.63374	0.16539
2518.70518	0.16610
2516.77661	0.16689
2514.84805	0.16774
2512.91948	0.16857
2510.99092	0.16934
2509.06235	0.17010
2507.13379	0.17085
2505.20522	0.17159
2503.27666	0.17246
2501.34810	0.17340
2499.41953	0.17426
2497.49097	0.17505
2495.56240	0.17581
2493.63384	0.17666
2491.70527	0.17754
2489.77671	0.17835
2487.84814	0.17910
2485.91958	0.17991
2483.99102	0.18082
2482.06245	0.18165
2480.13389	0.18233
2478.20532	0.18311
2476.27676	0.18412
2474.34819	0.18516
2472.41963	0.18604
2470.49106	0.18682
2468.56250	0.18759
2466.63394	0.18834
2464.70537	0.18918
2462.77681	0.19018
2460.84824	0.19130
2458.91968	0.19240
2456.99111	0.19336
2455.06255	0.19428
2453.13398	0.19531
2451.20542	0.19634
2449.27686	0.19723
2447.34829	0.19809
2445.41973	0.19912
2443.49116	0.20018
2441.56260	0.20112
2439.63403	0.20213
2437.70547	0.20322
2435.77690	0.20418
2433.84834	0.20505
2431.91978	0.20601
2429.99121	0.20713
2428.06265	0.20832
2426.13408	0.20941
2424.20552	0.21041
2422.27695	0.21147
2420.34839	0.21262
2418.41982	0.21373
2416.49126	0.21477
2414.56270	0.21577
2412.63413	0.21684
2410.70557	0.21805
2408.77700	0.21930
2406.84844	0.22045
2404.91987	0.22150
2402.99131	0.22261
2401.06274	0.22390
2399.13418	0.22532
2397.20562	0.22666
2395.27705	0.22784
2393.34849	0.22892
2391.41992	0.23001
2389.49136	0.23125
2387.56279	0.23268
2385.63423	0.23414
2383.70566	0.23558
2381.77710	0.23715
2379.84854	0.23887
2377.91997	0.24065
2375.99141	0.24254
2374.06284	0.24463
2372.13428	0.24684
2370.20571	0.24894
2368.27715	0.25101
2366.34858	0.25373
2364.42002	0.25688
2362.49146	0.25955
2360.56289	0.26110
2358.63433	0.26171
2356.70576	0.26264
2354.77720	0.26406
2352.84863	0.26530
2350.92007	0.26594
2348.99150	0.26626
2347.06294	0.26695
2345.13437	0.26883
2343.20581	0.27187
2341.27725	0.27425
2339.34868	0.27575
2337.42012	0.27740
2335.49155	0.27905
2333.56299	0.28017
2331.63442	0.28119
2329.70586	0.28255
2327.77729	0.28392
2325.84873	0.28487
2323.92017	0.28582
2321.99160	0.28722
2320.06304	0.28876
2318.13447	0.29021
2316.20591	0.29170
2314.27734	0.29324
2312.34878	0.29481
2310.42021	0.29644
2308.49165	0.29796
2306.56309	0.29932
2304.63452	0.30073
2302.70596	0.30232
2300.77739	0.30401
2298.84883	0.30575
2296.92026	0.30753
2294.99170	0.30932
2293.06313	0.31116
2291.13457	0.31314
2289.20601	0.31516
2287.27744	0.31703
2285.34888	0.31868
2283.42031	0.32035
2281.49175	0.32232
2279.56318	0.32449
2277.63462	0.32664
2275.70605	0.32871
2273.77749	0.33070
2271.84893	0.33267
2269.92036	0.33476
2267.99180	0.33689
2266.06323	0.33889
2264.13467	0.34079
2262.20610	0.34284
2260.27754	0.34516
2258.34897	0.34752
2256.42041	0.34964
2254.49185	0.35167
2252.56328	0.35380
2250.63472	0.35597
2248.70615	0.35810
2246.77759	0.36019
2244.84902	0.36234
2242.92046	0.36458
2240.99189	0.36686
2239.06333	0.36913
2237.13477	0.37138
2235.20620	0.37360
2233.27764	0.37574
2231.34907	0.37789
2229.42051	0.38010
2227.49194	0.38228
2225.56338	0.38441
2223.63481	0.38655
2221.70625	0.38882
2219.77769	0.39118
2217.84912	0.39354
2215.92056	0.39577
2213.99199	0.39785
2212.06343	0.39995
2210.13486	0.40214
2208.20630	0.40426
2206.27773	0.40632
2204.34917	0.40850
2202.42061	0.41068
2200.49204	0.41267
2198.56348	0.41454
2196.63491	0.41642
2194.70635	0.41838
2192.77778	0.42035
2190.84922	0.42224
2188.92065	0.42402
2186.99209	0.42579
2185.06353	0.42759
2183.13496	0.42931
2181.20640	0.43100
2179.27783	0.43272
2177.34927	0.43440
2175.42070	0.43599
2173.49214	0.43750
2171.56357	0.43892
2169.63501	0.44034
2167.70645	0.44172
2165.77788	0.44288
2163.84932	0.44394
2161.92075	0.44505
2159.99219	0.44619
2158.06362	0.44724
2156.13506	0.44819
2154.20649	0.44910
2152.27793	0.45002
2150.34937	0.45087
2148.42080	0.45162
2146.49224	0.45226
2144.56367	0.45279
2142.63511	0.45323
2140.70654	0.45354
2138.77798	0.45371
2136.84941	0.45373
2134.92085	0.45368
2132.99229	0.45364
2131.06372	0.45355
2129.13516	0.45329
2127.20659	0.45302
2125.27803	0.45283
2123.34946	0.45253
2121.42090	0.45206
2119.49233	0.45146
2117.56377	0.45082
2115.63521	0.45019
2113.70664	0.44952
2111.77808	0.44866
2109.84951	0.44768
2107.92095	0.44671
2105.99238	0.44560
2104.06382	0.44429
2102.13525	0.44287
2100.20669	0.44144
2098.27812	0.44002
2096.34956	0.43855
2094.42100	0.43700
2092.49243	0.43542
2090.56387	0.43382
2088.63530	0.43218
2086.70674	0.43049
2084.77817	0.42866
2082.84961	0.42669
2080.92104	0.42473
2078.99248	0.42276
2077.06392	0.42068
2075.13535	0.41855
2073.20679	0.41639
2071.27822	0.41415
2069.34966	0.41178
2067.42109	0.40942
2065.49253	0.40710
2063.56396	0.40468
2061.63540	0.40220
2059.70684	0.39973
2057.77827	0.39727
2055.84971	0.39480
2053.92114	0.39223
2051.99258	0.38958
2050.06401	0.38688
2048.13545	0.38425
2046.20688	0.38169
2044.27832	0.37914
2042.34976	0.37653
2040.42119	0.37380
2038.49263	0.37095
2036.56406	0.36810
2034.63550	0.36533
2032.70693	0.36261
2030.77837	0.35987
2028.84980	0.35709
2026.92124	0.35441
2024.99268	0.35174
2023.06411	0.34897
2021.13555	0.34619
2019.20698	0.34342
2017.27842	0.34060
2015.34985	0.33784
2013.42129	0.33519
2011.49272	0.33246
2009.56416	0.32964
2007.63560	0.32684
2005.70703	0.32413
2003.77847	0.32153
2001.84990	0.31899
1999.92134	0.31644
1997.99277	0.31378
1996.06421	0.31112
1994.13564	0.30860
1992.20708	0.30621
1990.27852	0.30379
1988.34995	0.30136
1986.42139	0.29887
1984.49282	0.29636
1982.56426	0.29391
1980.63569	0.29157
1978.70713	0.28932
1976.77856	0.28716
1974.85000	0.28506
1972.92144	0.28285
1970.99287	0.28060
1969.06431	0.27849
1967.13574	0.27651
1965.20718	0.27450
1963.27861	0.27253
1961.35005	0.27064
1959.42148	0.26874
1957.49292	0.26684
1955.56436	0.26498
1953.63579	0.26321
1951.70723	0.26157
1949.77866	0.26002
1947.85010	0.25850
1945.92153	0.25696
1943.99297	0.25548
1942.06440	0.25405
1940.13584	0.25260
1938.20728	0.25116
1936.27871	0.24978
1934.35015	0.24844
1932.42158	0.24720
1930.49302	0.24599
1928.56445	0.24482
1926.63589	0.24367
1924.70732	0.24262
1922.77876	0.24168
1920.85020	0.24080
1918.92163	0.24000
1916.99307	0.23916
1915.06450	0.23822
1913.13594	0.23731
1911.20737	0.23655
1909.27881	0.23589
1907.35024	0.23526
1905.42168	0.23460
1903.49312	0.23403
1901.56455	0.23356
1899.63599	0.23304
1897.70742	0.23249
1895.77886	0.23205
1893.85029	0.23175
1891.92173	0.23140
1889.99316	0.23104
1888.06460	0.23075
1886.13604	0.23052
1884.20747	0.23036
1882.27891	0.23028
1880.35034	0.23017
1878.42178	0.23004
1876.49321	0.23003
1874.56465	0.23004
1872.63608	0.23004
1870.70752	0.23013
1868.77896	0.23054
1866.85039	0.23095
1864.92183	0.23100
1862.99326	0.23103
1861.06470	0.23131
1859.13613	0.23183
1857.20757	0.23234
1855.27900	0.23279
1853.35044	0.23315
1851.42187	0.23361
1849.49331	0.23420
1847.56475	0.23480
1845.63618	0.23544
1843.70762	0.23633
1841.77905	0.23722
1839.85049	0.23778
1837.92192	0.23856
1835.99336	0.23951
1834.06479	0.24044
1832.13623	0.24131
1830.20767	0.24253
1828.27910	0.24408
1826.35054	0.24539
1824.42197	0.24675
1822.49341	0.24811
1820.56484	0.24943
1818.63628	0.25084
1816.70771	0.25243
1814.77915	0.25398
1812.85059	0.25558
1810.92202	0.25748
1808.99346	0.25958
1807.06489	0.26167
1805.13633	0.26360
1803.20776	0.26566
1801.27920	0.26806
1799.35063	0.27089
1797.42207	0.27342
1795.49351	0.27568
1793.56494	0.27827
1791.63638	0.28185
1789.70781	0.28554
1787.77925	0.28833
1785.85068	0.29143
1783.92212	0.29509
1781.99355	0.29904
1780.06499	0.30323
1778.13643	0.30757
1776.20786	0.31157
1774.27930	0.31561
1772.35073	0.32107
1770.42217	0.32736
1768.49360	0.33294
1766.56504	0.33835
1764.63647	0.34373
1762.70791	0.34933
1760.77935	0.35651
1758.85078	0.36351
1756.92222	0.37059
1754.99365	0.37833
1753.06509	0.38527
1751.13652	0.39331
1749.20796	0.40358
1747.27939	0.41404
1745.35083	0.42333
1743.42227	0.43296
1741.49370	0.44342
1739.56514	0.45582
1737.63657	0.46837
1735.70801	0.47909
1733.77944	0.49501
1731.85088	0.51471
1729.92231	0.53064
1727.99375	0.54657
1726.06519	0.56353
1724.13662	0.58185
1722.20806	0.60155
1720.27949	0.61962
1718.35093	0.64056
1716.42236	0.67191
1714.49380	0.70260
1712.56523	0.72783
1710.63667	0.75222
1708.70811	0.77813
1706.77954	0.80709
1704.85098	0.84166
1702.92241	0.87270
1700.99385	0.90374
1699.06528	0.95076
1697.13672	0.99430
1695.20815	1.03901
1693.27959	1.08318
1691.35103	1.11900
1689.42246	1.16018
1687.49390	1.20367
1685.56533	1.24508
1683.63677	1.30902
1681.70820	1.37758
1679.77964	1.42234
1677.85107	1.46437
1675.92251	1.51250
1673.99395	1.57225
1672.06538	1.62506
1670.13682	1.67569
1668.20825	1.74320
1666.27969	1.80113
1664.35112	1.85127
1662.42256	1.91425
1660.49399	1.98615
1658.56543	2.04176
1656.63687	2.08547
1654.70830	2.12459
1652.77974	2.18440
1650.85117	2.24126
1648.92261	2.25963
1646.99404	2.28001
1645.06548	2.30340
1643.13691	2.32270
1641.20835	2.33424
1639.27979	2.34029
1637.35122	2.33750
1635.42266	2.32866
1633.49409	2.32226
1631.56553	2.31209
1629.63696	2.29476
1627.70840	2.26376
1625.77983	2.22858
1623.85127	2.18518
1621.92271	2.13195
1619.99414	2.08513
1618.06558	2.03950
1616.13701	1.97392
1614.20845	1.90769
1612.27988	1.85758
1610.35132	1.80477
1608.42275	1.74739
1606.49419	1.69159
1604.56562	1.64058
1602.63706	1.59119
1600.70850	1.54284
1598.77993	1.49831
1596.85137	1.45674
1594.92280	1.41672
1592.99424	1.37827
1591.06567	1.34303
1589.13711	1.31027
1587.20854	1.28039
1585.27998	1.25328
1583.35142	1.22821
1581.42285	1.20560
1579.49429	1.18643
1577.56572	1.16925
1575.63716	1.14936
1573.70859	1.13309
1571.78003	1.12291
1569.85146	1.11281
1567.92290	1.10264
1565.99434	1.09597
1564.06577	1.09170
1562.13721	1.08858
1560.20864	1.08728
1558.28008	1.09165
1556.35151	1.09889
1554.42295	1.10282
1552.49438	1.10581
1550.56582	1.10686
1548.63726	1.10515
1546.70869	1.10024
1544.78013	1.09136
1542.85156	1.07849
1540.92300	1.05884
1538.99443	1.02946
1537.06587	1.00901
1535.13730	0.99446
1533.20874	0.97399
1531.28018	0.95201
1529.35161	0.93587
1527.42305	0.92042
1525.49448	0.90437
1523.56592	0.89092
1521.63735	0.87859
1519.70879	0.86648
1517.78022	0.85621
1515.85166	0.84430
1513.92310	0.83160
1511.99453	0.82020
1510.06597	0.80960
1508.13740	0.79905
1506.20884	0.78343
1504.28027	0.77027
1502.35171	0.76280
1500.42314	0.75617
1498.49458	0.74911
1496.56602	0.74112
1494.63745	0.73325
1492.70889	0.72685
1490.78032	0.72100
1488.85176	0.71457
1486.92319	0.70886
1484.99463	0.70439
1483.06606	0.70081
1481.13750	0.69793
1479.20894	0.69581
1477.28037	0.69451
1475.35181	0.69384
1473.42324	0.69379
1471.49468	0.69348
1469.56611	0.69187
1467.63755	0.68971
1465.70898	0.68778
1463.78042	0.68629
1461.85186	0.68537
1459.92329	0.68495
1457.99473	0.68488
1456.06616	0.68466
1454.13760	0.68302
1452.20903	0.68063
1450.28047	0.67819
1448.35190	0.67592
1446.42334	0.67333
1444.49478	0.67053
1442.56621	0.66791
1440.63765	0.66531
1438.70908	0.66251
1436.78052	0.65898
1434.85195	0.65504
1432.92339	0.65193
1430.99482	0.64987
1429.06626	0.64884
1427.13770	0.64852
1425.20913	0.64858
1423.28057	0.64910
1421.35200	0.64971
1419.42344	0.65024
1417.49487	0.65039
1415.56631	0.64972
1413.63774	0.64917
1411.70918	0.64943
1409.78062	0.65059
1407.85205	0.65226
1405.92349	0.65424
1403.99492	0.65624
1402.06636	0.65710
1400.13779	0.65649
1398.20923	0.65485
1396.28066	0.65232
1394.35210	0.64860
1392.42354	0.64427
1390.49497	0.64011
1388.56641	0.63568
1386.63784	0.63038
1384.70928	0.62483
1382.78071	0.61974
1380.85215	0.61494
1378.92358	0.61065
1376.99502	0.60731
1375.06646	0.60489
1373.13789	0.60319
1371.20933	0.60219
1369.28076	0.60147
1367.35220	0.60036
1365.42363	0.59872
1363.49507	0.59689
1361.56650	0.59521
1359.63794	0.59373
1357.70937	0.59242
1355.78081	0.59124
1353.85225	0.59027
1351.92368	0.58961
1349.99512	0.58906
1348.06655	0.58842
1346.13799	0.58765
1344.20942	0.58688
1342.28086	0.58617
1340.35229	0.58555
1338.42373	0.58503
1336.49517	0.58466
1334.56660	0.58448
1332.63804	0.58458
1330.70947	0.58490
1328.78091	0.58530
1326.85234	0.58578
1324.92378	0.58639
1322.99521	0.58711
1321.06665	0.58787
1319.13809	0.58865
1317.20952	0.58920
1315.28096	0.58921
1313.35239	0.58883
1311.42383	0.58836
1309.49526	0.58786
1307.56670	0.58751
1305.63813	0.58735
1303.70957	0.58703
1301.78101	0.58641
1299.85244	0.58556
1297.92388	0.58448
1295.99531	0.58327
1294.06675	0.58210
1292.13818	0.58101
1290.20962	0.57983
1288.28105	0.57850
1286.35249	0.57707
1284.42393	0.57561
1282.49536	0.57424
1280.56680	0.57308
1278.63823	0.57191
1276.70967	0.57060
1274.78110	0.56930
1272.85254	0.56825
1270.92397	0.56744
1268.99541	0.56661
1267.06685	0.56568
1265.13828	0.56478
1263.20972	0.56396
1261.28115	0.56316
1259.35259	0.56239
1257.42402	0.56179
1255.49546	0.56145
1253.56689	0.56130
1251.63833	0.56126
1249.70977	0.56127
1247.78120	0.56125
1245.85264	0.56101
1243.92407	0.56050
1241.99551	0.55981
1240.06694	0.55866
1238.13838	0.55689
1236.20981	0.55479
1234.28125	0.55248
1232.35269	0.55001
1230.42412	0.54769
1228.49556	0.54562
1226.56699	0.54365
1224.63843	0.54173
1222.70986	0.53992
1220.78130	0.53831
1218.85273	0.53696
1216.92417	0.53577
1214.99561	0.53466
1213.06704	0.53369
1211.13848	0.53292
1209.20991	0.53225
1207.28135	0.53159
1205.35278	0.53083
1203.42422	0.52994
1201.49565	0.52894
1199.56709	0.52801
1197.63853	0.52728
1195.70996	0.52662
1193.78140	0.52598
1191.85283	0.52543
1189.92427	0.52505
1187.99570	0.52474
1186.06714	0.52455
1184.13857	0.52464
1182.21001	0.52507
1180.28145	0.52589
1178.35288	0.52720
1176.42432	0.52876
1174.49575	0.53005
1172.56719	0.53070
1170.63862	0.53064
1168.71006	0.53019
1166.78149	0.52974
1164.85293	0.52936
1162.92437	0.52896
1160.99580	0.52840
1159.06724	0.52758
1157.13867	0.52663
1155.21011	0.52549
1153.28154	0.52400
1151.35298	0.52226
1149.42441	0.52031
1147.49585	0.51800
1145.56729	0.51532
1143.63872	0.51263
1141.71016	0.51031
1139.78159	0.50839
1137.85303	0.50682
1135.92446	0.50554
1133.99590	0.50440
1132.06733	0.50331
1130.13877	0.50238
1128.21021	0.50168
1126.28164	0.50096
1124.35308	0.50010
1122.42451	0.49927
1120.49595	0.49858
1118.56738	0.49825
1116.63882	0.49824
1114.71025	0.49820
1112.78169	0.49815
1110.85312	0.49850
1108.92456	0.49937
1106.99600	0.50055
1105.06743	0.50187
1103.13887	0.50332
1101.21030	0.50497
1099.28174	0.50707
1097.35317	0.50958
1095.42461	0.51221
1093.49604	0.51516
1091.56748	0.51888
1089.63892	0.52361
1087.71035	0.52920
1085.78179	0.53524
1083.85322	0.54149
1081.92466	0.54766
1079.99609	0.55291
1078.06753	0.55626
1076.13896	0.55700
1074.21040	0.55483
1072.28184	0.55034
1070.35327	0.54422
1068.42471	0.53709
1066.49614	0.53015
1064.56758	0.52396
1062.63901	0.51838
1060.71045	0.51322
1058.78188	0.50845
1056.85332	0.50442
1054.92476	0.50118
1052.99619	0.49816
1051.06763	0.49510
1049.13906	0.49240
1047.21050	0.49028
1045.28193	0.48852
1043.35337	0.48695
1041.42480	0.48563
1039.49624	0.48454
1037.56768	0.48348
1035.63911	0.48268
1033.71055	0.48248
1031.78198	0.48241
1029.85342	0.48205
1027.92485	0.48176
1025.99629	0.48171
1024.06772	0.48177
1022.13916	0.48211
1020.21060	0.48278
1018.28203	0.48343
1016.35347	0.48404
1014.42490	0.48490
1012.49634	0.48590
1010.56777	0.48688
1008.63921	0.48794
1006.71064	0.48941
1004.78208	0.49135
1002.85352	0.49356
1000.92495	0.49620
998.99639	0.49948
997.06782	0.50327
995.13926	0.50722
993.21069	0.51120
991.28213	0.51492
989.35356	0.51786
987.42500	0.51963
985.49644	0.52043
983.56787	0.52089
981.63931	0.52157
979.71074	0.52286
977.78218	0.52481
975.85361	0.52711
973.92505	0.52969
971.99648	0.53264
970.06792	0.53598
968.13936	0.53966
966.21079	0.54377
964.28223	0.54840
962.35366	0.55327
960.42510	0.55816
958.49653	0.56343
956.56797	0.56923
954.63940	0.57523
952.71084	0.58134
950.78228	0.58752
948.85371	0.59377
946.92515	0.60019
944.99658	0.60655
943.06802	0.61263
941.13945	0.61883
939.21089	0.62520
937.28232	0.63131
935.35376	0.63706
933.42520	0.64273
931.49663	0.64823
929.56807	0.65350
927.63950	0.65936
925.71094	0.66595
923.78237	0.67244
921.85381	0.67860
919.92524	0.68461
917.99668	0.69066
916.06812	0.69768
914.13955	0.70584
912.21099	0.71365
910.28242	0.72098
908.35386	0.72935
906.42529	0.73850
904.49673	0.74702
902.56816	0.75524
900.63960	0.76386
898.71104	0.77319
896.78247	0.78301
894.85391	0.79200
892.92534	0.80074
890.99678	0.81127
889.06821	0.82344
887.13965	0.83580
885.21108	0.84824
883.28252	0.86061
881.35396	0.87172
879.42539	0.88213
877.49683	0.89266
875.56826	0.90300
873.63970	0.91422
871.71113	0.92709
869.78257	0.94021
867.85400	0.95165
865.92544	0.96123
863.99687	0.97110
862.06831	0.98212
860.13975	0.99256
858.21118	1.00311
856.28262	1.01510
854.35405	1.02748
852.42549	1.03984
850.49692	1.05118
848.56836	1.06142
846.63979	1.07339
844.71123	1.08569
842.78267	1.09454
840.85410	1.10298
838.92554	1.11519
836.99697	1.13004
835.06841	1.14228
833.13984	1.14948
831.21128	1.15644
829.28271	1.16461
827.35415	1.17234
825.42559	1.18165
823.49702	1.19624
821.56846	1.21544
819.63989	1.22709
817.71133	1.22324
815.78276	1.21659
813.85420	1.22104
811.92563	1.23650
809.99707	1.25249
808.06851	1.26199
806.13994	1.27357
804.21138	1.28937
802.28281	1.29665
800.35425	1.29606
798.42568	1.29716
796.49712	1.29226
794.56855	1.26629
792.63999	1.21985
790.71143	1.18426
788.78286	1.18769
786.85430	1.20704
784.92573	1.20616
782.99717	1.19696
781.06860	1.20785
779.14004	1.25312
777.21147	1.31560
775.28291	1.32728
773.35435	1.25919
771.42578	1.18641
769.49722	1.15965
767.56865	1.16346
765.64009	1.14666
763.71152	1.11404
761.78296	1.10307
759.85439	1.09546
757.92583	1.06224
755.99727	1.03026
754.06870	1.02879
752.14014	1.04095
750.21157	1.01834
748.28301	0.94264
746.35444	0.87941
744.42588	0.87313
742.49731	0.86942
740.56875	0.78582
738.64019	0.66963
736.71162	0.58926
734.78306	0.54638
732.85449	0.53069
730.92593	0.53664
728.99736	0.53771
727.06880	0.50850
725.14023	0.46860
723.21167	0.43650
721.28311	0.38850
719.35454	0.32394
717.42598	0.28042
715.49741	0.25553
713.56885	0.23726
711.64028	0.20287
709.71172	0.13842
707.78315	0.09977
705.85459	0.08729
703.92603	0.04534
701.99746	-0.02241
700.06890	-0.04702
698.14033	-0.03363
696.21177	-0.01964
694.28320	-0.02043
692.35464	-0.01218
690.42607	0.04353
688.49751	0.09998
686.56895	0.07204
684.64038	0.01754
682.71182	0.05153
680.78325	0.08056
678.85469	0.05596
676.92612	0.05929
674.99756	0.07377
673.06899	0.04670
671.14043	0.00868
669.21187	-0.00114
667.28330	-0.00981
665.35474	-0.07696
663.42617	-0.16062
661.49761	-0.17166
659.56904	-0.11502
657.64048	-0.10023
655.71191	-0.08200
653.78335	-0.00644
651.85479	0.07730
649.92622	0.09871
647.99766	0.04616
646.06909	-0.02438
644.14053	-0.05949
642.21196	-0.04958
640.28340	-0.03099
638.35483	-0.02813
636.42627	-0.06017
634.49771	-0.07168
632.56914	-0.00860
630.64058	0.02781
628.71201	-0.00350
626.78345	-0.01731
624.85488	0.01370
622.92632	0.05211
620.99775	0.08776
619.06919	0.09456
617.14062	0.04409
615.21206	-0.00287
613.28350	0.00023
611.35493	0.05027
609.42637	0.11191
607.49780	0.13896
605.56924	0.13758
603.64067	0.12711
601.71211	0.10822
599.78354	0.09138
597.85498	0.04844
595.92642	-0.01529
593.99785	-0.02093
592.06929	0.01627
590.14072	0.03081
588.21216	0.00966
586.28359	-0.00364
584.35503	0.02595
582.42646	0.05958
580.49790	0.04256
578.56934	0.02208
576.64077	0.02520
574.71221	0.07374
572.78364	0.16323
570.85508	0.15184
568.92651	0.06547
566.99795	0.01872
565.06938	-0.00659
563.14082	-0.00983
561.21226	-0.00440
559.28369	-0.02065
557.35513	-0.02074
555.42656	0.04815
553.49800	0.12628
551.56943	0.13867
549.64087	0.11038
547.71230	0.06432
545.78374	0.02756
543.85518	0.01499
541.92661	0.01478
539.99805	0.02064
538.06948	0.01750
536.14092	0.00663
534.21235	0.01069
532.28379	0.02017
530.35522	0.01875
528.42666	0.02008
526.49810	0.01920
524.56953	0.00063
522.64097	-0.00282
520.71240	0.03423
518.78384	0.07735
516.85527	0.09061
514.92671	0.07763
512.99814	0.08125
511.06958	0.09158
509.14102	0.05901
507.21245	0.02740
505.28389	0.03228
503.35532	0.02032
501.42676	-0.00842
499.49819	0.00947
