3997.91411	0.07016
3995.98555	0.07050
3994.05698	0.07091
3992.12842	0.07146
3990.19985	0.07182
3988.27129	0.07201
3986.34272	0.07221
3984.41416	0.07220
3982.48560	0.07192
3980.55703	0.07196
3978.62847	0.07274
3976.69990	0.07369
3974.77134	0.07398
3972.84277	0.07371
3970.91421	0.07351
3968.98564	0.07360
3967.05708	0.07379
3965.12852	0.07404
3963.19995	0.07417
3961.27139	0.07415
3959.34282	0.07431
3957.41426	0.07435
3955.48569	0.07408
3953.55713	0.07407
3951.62856	0.07445
3949.70000	0.07456
3947.77144	0.07423
3945.84287	0.07399
3943.91431	0.07411
3941.98574	0.07446
3940.05718	0.07465
3938.12861	0.07450
3936.20005	0.07415
3934.27148	0.07396
3932.34292	0.07423
3930.41436	0.07469
3928.48579	0.07495
3926.55723	0.07484
3924.62866	0.07469
3922.70010	0.07464
3920.77153	0.07448
3918.84297	0.07462
3916.91440	0.07509
3914.98584	0.07487
3913.05728	0.07410
3911.12871	0.07361
3909.20015	0.07330
3907.27158	0.07317
3905.34302	0.07347
3903.41445	0.07420
3901.48589	0.07476
3899.55732	0.07454
3897.62876	0.07382
3895.70020	0.07310
3893.77163	0.07274
3891.84307	0.07319
3889.91450	0.07410
3887.98594	0.07412
3886.05737	0.07396
3884.12881	0.07462
3882.20024	0.07520
3880.27168	0.07554
3878.34312	0.07567
3876.41455	0.07512
3874.48599	0.07473
3872.55742	0.07518
3870.62886	0.07622
3868.70029	0.07760
3866.77173	0.07791
3864.84316	0.07730
3862.91460	0.07737
3860.98604	0.07767
3859.05747	0.07749
3857.12891	0.07719
3855.20034	0.07705
3853.27178	0.07779
3851.34321	0.07955
3849.41465	0.07992
3847.48608	0.07969
3845.55752	0.07990
3843.62896	0.08043
3841.70039	0.08107
3839.77183	0.08199
3837.84326	0.08360
3835.91470	0.08500
3833.98613	0.08512
3832.05757	0.08478
3830.12900	0.08500
3828.20044	0.08583
3826.27187	0.08697
3824.34331	0.08788
3822.41475	0.08845
3820.48618	0.08960
3818.55762	0.09058
3816.62905	0.09088
3814.70049	0.09159
3812.77192	0.09232
3810.84336	0.09275
3808.91479	0.09309
3806.98623	0.09395
3805.05767	0.09564
3803.12910	0.09723
3801.20054	0.09926
3799.27197	0.10131
3797.34341	0.10212
3795.41484	0.10298
3793.48628	0.10380
3791.55771	0.10428
3789.62915	0.10512
3787.70059	0.10656
3785.77202	0.10828
3783.84346	0.11003
3781.91489	0.11147
3779.98633	0.11281
3778.05776	0.11456
3776.12920	0.11615
3774.20063	0.11727
3772.27207	0.11841
3770.34351	0.12009
3768.41494	0.12237
3766.48638	0.12448
3764.55781	0.12657
3762.62925	0.12853
3760.70068	0.13020
3758.77212	0.13249
3756.84355	0.13524
3754.91499	0.13739
3752.98643	0.13955
3751.05786	0.14302
3749.12930	0.14738
3747.20073	0.14990
3745.27217	0.15127
3743.34360	0.15398
3741.41504	0.15693
3739.48647	0.15846
3737.55791	0.16014
3735.62935	0.16322
3733.70078	0.16737
3731.77222	0.17103
3729.84365	0.17390
3727.91509	0.17712
3725.98652	0.18229
3724.05796	0.18936
3722.12939	0.19722
3720.20083	0.20588
3718.27227	0.21491
3716.34370	0.22381
3714.41514	0.23211
3712.48657	0.24090
3710.55801	0.25260
3708.62944	0.26546
3706.70088	0.27653
3704.77231	0.28722
3702.84375	0.29989
3700.91519	0.31682
3698.98662	0.33571
3697.05806	0.35343
3695.12949	0.37201
3693.20093	0.39212
3691.27236	0.41437
3689.34380	0.44321
3687.41523	0.47874
3685.48667	0.50973
3683.55811	0.53604
3681.62954	0.56427
3679.70098	0.59610
3677.77241	0.62930
3675.84385	0.66821
3673.91528	0.72088
3671.98672	0.76469
3670.05815	0.80353
3668.12959	0.85672
3666.20103	0.90593
3664.27246	0.94689
3662.34390	0.99009
3660.41533	1.03673
3658.48677	1.08308
3656.55820	1.13232
3654.62964	1.18659
3652.70107	1.23149
3650.77251	1.27001
3648.84395	1.32385
3646.91538	1.39183
3644.98682	1.44327
3643.05825	1.48262
3641.12969	1.52212
3639.20112	1.56484
3637.27256	1.60768
3635.34399	1.65002
3633.41543	1.69232
3631.48687	1.73139
3629.55830	1.77123
3627.62974	1.82469
3625.70117	1.87548
3623.77261	1.90950
3621.84404	1.94134
3619.91548	1.97823
3617.98691	2.02424
3616.05835	2.06938
3614.12979	2.10720
3612.20122	2.14671
3610.27266	2.18607
3608.34409	2.22514
3606.41553	2.26658
3604.48696	2.30473
3602.55840	2.33846
3600.62983	2.37587
3598.70127	2.41843
3596.77271	2.46018
3594.84414	2.50098
3592.91558	2.54215
3590.98701	2.58041
3589.05845	2.61614
3587.12988	2.65969
3585.20132	2.70900
3583.27275	2.75153
3581.34419	2.79043
3579.41562	2.83171
3577.48706	2.87486
3575.55850	2.91751
3573.62993	2.96012
3571.70137	3.00125
3569.77280	3.04149
3567.84424	3.08540
3565.91567	3.13835
3563.98711	3.18950
3562.05854	3.23213
3560.12998	3.27465
3558.20142	3.31947
3556.27285	3.36417
3554.34429	3.40708
3552.41572	3.45210
3550.48716	3.49925
3548.55859	3.54388
3546.63003	3.58623
3544.70146	3.63195
3542.77290	3.68294
3540.84434	3.73430
3538.91577	3.78154
3536.98721	3.82595
3535.05864	3.87298
3533.13008	3.92057
3531.20151	3.96733
3529.27295	4.01620
3527.34438	4.06864
3525.41582	4.11964
3523.48726	4.16482
3521.55869	4.21034
3519.63013	4.25962
3517.70156	4.30994
3515.77300	4.35845
3513.84443	4.40412
3511.91587	4.44914
3509.98730	4.49729
3508.05874	4.54762
3506.13018	4.59705
3504.20161	4.64426
3502.27305	4.69114
3500.34448	4.74058
3498.41592	4.78818
3496.48735	4.83236
3494.55879	4.87867
3492.63022	4.92710
3490.70166	4.97233
3488.77310	5.01817
3486.84453	5.06676
3484.91597	5.11105
3482.98740	5.15447
3481.05884	5.20624
3479.13027	5.26209
3477.20171	5.31536
3475.27314	5.36824
3473.34458	5.42087
3471.41602	5.47091
3469.48745	5.51794
3467.55889	5.56336
3465.63032	5.60877
3463.70176	5.65272
3461.77319	5.69752
3459.84463	5.75446
3457.91606	5.81715
3455.98750	5.86850
3454.05894	5.91091
3452.13037	5.95686
3450.20181	6.00871
3448.27324	6.05521
3446.34468	6.09620
3444.41611	6.14179
3442.48755	6.19569
3440.55898	6.24673
3438.63042	6.28682
3436.70186	6.32736
3434.77329	6.38517
3432.84473	6.46092
3430.91616	6.52086
3428.98760	6.54944
3427.05903	6.58923
3425.13047	6.66490
3423.20190	6.73003
3421.27334	6.76820
3419.34478	6.81203
3417.41621	6.85712
3415.48765	6.89761
3413.55908	6.94261
3411.63052	6.98275
3409.70195	7.00885
3407.77339	7.03794
3405.84482	7.07986
3403.91626	7.12495
3401.98770	7.16543
3400.05913	7.21995
3398.13057	7.28289
3396.20200	7.32553
3394.27344	7.37477
3392.34487	7.44329
3390.41631	7.48214
3388.48774	7.48542
3386.55918	7.51989
3384.63062	7.56247
3382.70205	7.55342
3380.77349	7.52754
3378.84492	7.54312
3376.91636	7.59763
3374.98779	7.65804
3373.05923	7.72503
3371.13066	7.76265
3369.20210	7.76091
3367.27354	7.72068
3365.34497	7.68292
3363.41641	7.73451
3361.48784	7.83207
3359.55928	7.87963
3357.63071	7.88474
3355.70215	7.88738
3353.77358	7.87978
3351.84502	7.90144
3349.91646	7.96805
3347.98789	8.00842
3346.05933	7.97360
3344.13076	7.93350
3342.20220	7.96309
3340.27363	8.00105
3338.34507	7.97277
3336.41650	7.93051
3334.48794	7.97695
3332.55937	8.05901
3330.63081	8.08093
3328.70225	8.06580
3326.77368	8.04107
3324.84512	8.00547
3322.91655	7.98572
3320.98799	8.02928
3319.05942	8.06658
3317.13086	8.01047
3315.20229	7.92316
3313.27373	7.93488
3311.34517	8.03541
3309.41660	8.10159
3307.48804	8.15298
3305.55947	8.23491
3303.63091	8.26546
3301.70234	8.17962
3299.77378	8.08845
3297.84521	8.10659
3295.91665	8.17817
3293.98809	8.16978
3292.05952	8.09143
3290.13096	8.03899
3288.20239	8.05086
3286.27383	8.11816
3284.34526	8.17184
3282.41670	8.17373
3280.48813	8.14077
3278.55957	8.12080
3276.63101	8.19432
3274.70244	8.32502
3272.77388	8.33701
3270.84531	8.25906
3268.91675	8.22559
3266.98818	8.20253
3265.05962	8.17834
3263.13105	8.16858
3261.20249	8.16753
3259.27393	8.17651
3257.34536	8.16968
3255.41680	8.14719
3253.48823	8.15012
3251.55967	8.18354
3249.63110	8.19260
3247.70254	8.13891
3245.77397	8.04981
3243.84541	8.01990
3241.91685	8.10643
3239.98828	8.21428
3238.05972	8.22363
3236.13115	8.14378
3234.20259	8.02929
3232.27402	8.00237
3230.34546	8.10683
3228.41689	8.15237
3226.48833	8.09972
3224.55977	8.09902
3222.63120	8.12127
3220.70264	8.13355
3218.77407	8.15403
3216.84551	8.12436
3214.91694	8.03901
3212.98838	7.96804
3211.05981	7.93447
3209.13125	7.91146
3207.20269	7.93579
3205.27412	7.98967
3203.34556	7.94455
3201.41699	7.84100
3199.48843	7.77803
3197.55986	7.72338
3195.63130	7.64191
3193.70273	7.58663
3191.77417	7.57899
3189.84561	7.55810
3187.91704	7.50838
3185.98848	7.46580
3184.05991	7.42905
3182.13135	7.37341
3180.20278	7.30404
3178.27422	7.23755
3176.34565	7.19475
3174.41709	7.18580
3172.48853	7.17522
3170.55996	7.12261
3168.63140	7.04294
3166.70283	6.98419
3164.77427	6.94182
3162.84570	6.87791
3160.91714	6.80050
3158.98857	6.73112
3157.06001	6.66022
3155.13145	6.57590
3153.20288	6.48899
3151.27432	6.41122
3149.34575	6.33843
3147.41719	6.27495
3145.48862	6.22509
3143.56006	6.17737
3141.63149	6.12240
3139.70293	6.05396
3137.77437	5.98524
3135.84580	5.92544
3133.91724	5.85042
3131.98867	5.76011
3130.06011	5.68350
3128.13154	5.61504
3126.20298	5.53603
3124.27441	5.45869
3122.34585	5.39681
3120.41729	5.34045
3118.48872	5.27277
3116.56016	5.19350
3114.63159	5.11374
3112.70303	5.04080
3110.77446	4.97518
3108.84590	4.91203
3106.91733	4.84571
3104.98877	4.77456
3103.06021	4.70414
3101.13164	4.63792
3099.20308	4.57298
3097.27451	4.50640
3095.34595	4.43802
3093.41738	4.36839
3091.48882	4.29893
3089.56025	4.23195
3087.63169	4.16718
3085.70312	4.10468
3083.77456	4.04412
3081.84600	3.98404
3079.91743	3.92465
3077.98887	3.86427
3076.06030	3.80191
3074.13174	3.74099
3072.20317	3.68306
3070.27461	3.62608
3068.34604	3.56911
3066.41748	3.51269
3064.48892	3.45604
3062.56035	3.39772
3060.63179	3.33998
3058.70322	3.28535
3056.77466	3.23192
3054.84609	3.17731
3052.91753	3.12255
3050.98896	3.07011
3049.06040	3.01956
3047.13184	2.96917
3045.20327	2.91927
3043.27471	2.87051
3041.34614	2.82212
3039.41758	2.77383
3037.48901	2.72630
3035.56045	2.67970
3033.63188	2.63434
3031.70332	2.58933
3029.77476	2.54384
3027.84619	2.49950
3025.91763	2.45689
3023.98906	2.41427
3022.06050	2.37069
3020.13193	2.32759
3018.20337	2.28676
3016.27480	2.24738
3014.34624	2.20760
3012.41768	2.16761
3010.48911	2.12867
3008.56055	2.09112
3006.63198	2.05450
3004.70342	2.01852
3002.77485	1.98323
3000.84629	1.94824
2998.91772	1.91358
2996.98916	1.87984
2995.06060	1.84708
2993.13203	1.81516
2991.20347	1.78385
2989.27490	1.75284
2987.34634	1.72203
2985.41777	1.69142
2983.48921	1.66147
2981.56064	1.63260
2979.63208	1.60429
2977.70352	1.57598
2975.77495	1.54788
2973.84639	1.52064
2971.91782	1.49417
2969.98926	1.46757
2968.06069	1.44091
2966.13213	1.41497
2964.20356	1.38969
2962.27500	1.36469
2960.34644	1.34010
2958.41787	1.31609
2956.48931	1.29240
2954.56074	1.26898
2952.63218	1.24594
2950.70361	1.22291
2948.77505	1.20006
2946.84648	1.17780
2944.91792	1.15551
2942.98936	1.13281
2941.06079	1.11063
2939.13223	1.08976
2937.20366	1.06942
2935.27510	1.04846
2933.34653	1.02763
2931.41797	1.00770
2929.48940	0.98838
2927.56084	0.96976
2925.63228	0.95162
2923.70371	0.93371
2921.77515	0.91642
2919.84658	0.90032
2917.91802	0.88513
2915.98945	0.86973
2914.06089	0.85420
2912.13232	0.83926
2910.20376	0.82486
2908.27520	0.81079
2906.34663	0.79686
2904.41807	0.78293
2902.48950	0.76919
2900.56094	0.75593
2898.63237	0.74329
2896.70381	0.73106
2894.77524	0.71894
2892.84668	0.70702
2890.91812	0.69536
2888.98955	0.68390
2887.06099	0.67270
2885.13242	0.66177
2883.20386	0.65114
2881.27529	0.64080
2879.34673	0.63064
2877.41816	0.62065
2875.48960	0.61068
2873.56104	0.60047
2871.63247	0.58996
2869.70391	0.57917
2867.77534	0.56831
2865.84678	0.55758
2863.91821	0.54693
2861.98965	0.53616
2860.06108	0.52537
2858.13252	0.51510
2856.20396	0.50559
2854.27539	0.49642
2852.34683	0.48786
2850.41826	0.48041
2848.48970	0.47345
2846.56113	0.46640
2844.63257	0.45969
2842.70400	0.45366
2840.77544	0.44796
2838.84687	0.44232
2836.91831	0.43674
2834.98975	0.43107
2833.06118	0.42511
2831.13262	0.41900
2829.20405	0.41311
2827.27549	0.40755
2825.34692	0.40204
2823.41836	0.39632
2821.48979	0.39050
2819.56123	0.38479
2817.63267	0.37924
2815.70410	0.37380
2813.77554	0.36843
2811.84697	0.36317
2809.91841	0.35806
2807.98984	0.35292
2806.06128	0.34759
2804.13271	0.34239
2802.20415	0.33750
2800.27559	0.33266
2798.34702	0.32783
2796.41846	0.32313
2794.48989	0.31854
2792.56133	0.31406
2790.63276	0.30981
2788.70420	0.30577
2786.77563	0.30169
2784.84707	0.29742
2782.91851	0.29330
2780.98994	0.28942
2779.06138	0.28561
2777.13281	0.28199
2775.20425	0.27850
2773.27568	0.27487
2771.34712	0.27122
2769.41855	0.26774
2767.48999	0.26445
2765.56143	0.26126
2763.63286	0.25812
2761.70430	0.25493
2759.77573	0.25168
2757.84717	0.24844
2755.91860	0.24534
2753.99004	0.24233
2752.06147	0.23923
2750.13291	0.23619
2748.20435	0.23347
2746.27578	0.23100
2744.34722	0.22849
2742.41865	0.22587
2740.49009	0.22325
2738.56152	0.22069
2736.63296	0.21826
2734.70439	0.21598
2732.77583	0.21372
2730.84727	0.21143
2728.91870	0.20930
2726.99014	0.20733
2725.06157	0.20532
2723.13301	0.20319
2721.20444	0.20112
2719.27588	0.19920
2717.34731	0.19727
2715.41875	0.19528
2713.49019	0.19341
2711.56162	0.19157
2709.63306	0.18982
2707.70449	0.18835
2705.77593	0.18697
2703.84736	0.18540
2701.91880	0.18379
2699.99023	0.18238
2698.06167	0.18106
2696.13311	0.17974
2694.20454	0.17834
2692.27598	0.17690
2690.34741	0.17562
2688.41885	0.17459
2686.49028	0.17349
2684.56172	0.17222
2682.63315	0.17102
2680.70459	0.16989
2678.77603	0.16875
2676.84746	0.16765
2674.91890	0.16664
2672.99033	0.16571
2671.06177	0.16479
2669.13320	0.16384
2667.20464	0.16287
2665.27607	0.16191
2663.34751	0.16105
2661.41895	0.16032
2659.49038	0.15971
2657.56182	0.15907
2655.63325	0.15834
2653.70469	0.15770
2651.77612	0.15713
2649.84756	0.15651
2647.91899	0.15583
2645.99043	0.15522
2644.06187	0.15484
2642.13330	0.15452
2640.20474	0.15407
2638.27617	0.15352
2636.34761	0.15299
2634.41904	0.15257
2632.49048	0.15223
2630.56191	0.15196
2628.63335	0.15174
2626.70479	0.15147
2624.77622	0.15118
2622.84766	0.15089
2620.91909	0.15057
2618.99053	0.15024
2617.06196	0.14999
2615.13340	0.14991
2613.20483	0.15001
2611.27627	0.15009
2609.34771	0.14995
2607.41914	0.14971
2605.49058	0.14972
2603.56201	0.14991
2601.63345	0.15007
2599.70488	0.15011
2597.77632	0.15004
2595.84775	0.14996
2593.91919	0.14999
2591.99062	0.15011
2590.06206	0.15033
2588.13350	0.15064
2586.20493	0.15094
2584.27637	0.15124
2582.34780	0.15161
2580.41924	0.15193
2578.49067	0.15216
2576.56211	0.15245
2574.63354	0.15279
2572.70498	0.15317
2570.77642	0.15354
2568.84785	0.15385
2566.91929	0.15417
2564.99072	0.15452
2563.06216	0.15485
2561.13359	0.15525
2559.20503	0.15582
2557.27646	0.15646
2555.34790	0.15710
2553.41934	0.15781
2551.49077	0.15858
2549.56221	0.15913
2547.63364	0.15942
2545.70508	0.15974
2543.77651	0.16025
2541.84795	0.16094
2539.91938	0.16171
2537.99082	0.16251
2536.06226	0.16331
2534.13369	0.16407
2532.20513	0.16479
2530.27656	0.16554
2528.34800	0.16625
2526.41943	0.16696
2524.49087	0.16769
2522.56230	0.16840
2520.63374	0.16915
2518.70518	0.16998
2516.77661	0.17087
2514.84805	0.17167
2512.91948	0.17240
2510.99092	0.17320
2509.06235	0.17397
2507.13379	0.17464
2505.20522	0.17540
2503.27666	0.17633
2501.34810	0.17738
2499.41953	0.17834
2497.49097	0.17916
2495.56240	0.18000
2493.63384	0.18089
2491.70527	0.18170
2489.77671	0.18259
2487.84814	0.18370
2485.91958	0.18477
2483.99102	0.18564
2482.06245	0.18648
2480.13389	0.18730
2478.20532	0.18811
2476.27676	0.18902
2474.34819	0.18996
2472.41963	0.19088
2470.49106	0.19187
2468.56250	0.19290
2466.63394	0.19382
2464.70537	0.19457
2462.77681	0.19534
2460.84824	0.19634
2458.91968	0.19751
2456.99111	0.19860
2455.06255	0.19947
2453.13398	0.20025
2451.20542	0.20123
2449.27686	0.20235
2447.34829	0.20340
2445.41973	0.20440
2443.49116	0.20547
2441.56260	0.20655
2439.63403	0.20758
2437.70547	0.20862
2435.77690	0.20972
2433.84834	0.21079
2431.91978	0.21188
2429.99121	0.21304
2428.06265	0.21412
2426.13408	0.21513
2424.20552	0.21620
2422.27695	0.21734
2420.34839	0.21850
2418.41982	0.21970
2416.49126	0.22084
2414.56270	0.22194
2412.63413	0.22308
2410.70557	0.22425
2408.77700	0.22550
2406.84844	0.22674
2404.91987	0.22787
2402.99131	0.22891
2401.06274	0.23004
2399.13418	0.23131
2397.20562	0.23264
2395.27705	0.23396
2393.34849	0.23523
2391.41992	0.23651
2389.49136	0.23770
2387.56279	0.23831
2385.63423	0.23769
2383.70566	0.23550
2381.77710	0.23178
2379.84854	0.22681
2377.91997	0.22071
2375.99141	0.21336
2374.06284	0.20457
2372.13428	0.19435
2370.20571	0.18289
2368.27715	0.17040
2366.34858	0.15830
2364.42002	0.14847
2362.49146	0.14186
2360.56289	0.13951
2358.63433	0.14233
2356.70576	0.15058
2354.77720	0.16401
2352.84863	0.18098
2350.92007	0.19775
2348.99150	0.20816
2347.06294	0.20890
2345.13437	0.20108
2343.20581	0.19161
2341.27725	0.18850
2339.34868	0.19104
2337.42012	0.19513
2335.49155	0.19908
2333.56299	0.20303
2331.63442	0.20682
2329.70586	0.21090
2327.77729	0.21594
2325.84873	0.22179
2323.92017	0.22810
2321.99160	0.23507
2320.06304	0.24288
2318.13447	0.25085
2316.20591	0.25789
2314.27734	0.26337
2312.34878	0.26766
2310.42021	0.27206
2308.49165	0.27733
2306.56309	0.28303
2304.63452	0.28828
2302.70596	0.29252
2300.77739	0.29604
2298.84883	0.29943
2296.92026	0.30286
2294.99170	0.30623
2293.06313	0.30963
2291.13457	0.31307
2289.20601	0.31644
2287.27744	0.31975
2285.34888	0.32295
2283.42031	0.32573
2281.49175	0.32790
2279.56318	0.32966
2277.63462	0.33124
2275.70605	0.33286
2273.77749	0.33474
2271.84893	0.33690
2269.92036	0.33911
2267.99180	0.34124
2266.06323	0.34338
2264.13467	0.34565
2262.20610	0.34808
2260.27754	0.35054
2258.34897	0.35298
2256.42041	0.35539
2254.49185	0.35782
2252.56328	0.36031
2250.63472	0.36279
2248.70615	0.36514
2246.77759	0.36741
2244.84902	0.36975
2242.92046	0.37212
2240.99189	0.37445
2239.06333	0.37674
2237.13477	0.37904
2235.20620	0.38144
2233.27764	0.38379
2231.34907	0.38590
2229.42051	0.38794
2227.49194	0.39016
2225.56338	0.39254
2223.63481	0.39490
2221.70625	0.39715
2219.77769	0.39934
2217.84912	0.40149
2215.92056	0.40371
2213.99199	0.40598
2212.06343	0.40812
2210.13486	0.41011
2208.20630	0.41212
2206.27773	0.41420
2204.34917	0.41638
2202.42061	0.41861
2200.49204	0.42075
2198.56348	0.42281
2196.63491	0.42485
2194.70635	0.42682
2192.77778	0.42866
2190.84922	0.43046
2188.92065	0.43233
2186.99209	0.43418
2185.06353	0.43592
2183.13496	0.43761
2181.20640	0.43934
2179.27783	0.44107
2177.34927	0.44263
2175.42070	0.44403
2173.49214	0.44556
2171.56357	0.44721
2169.63501	0.44868
2167.70645	0.44992
2165.77788	0.45109
2163.84932	0.45226
2161.92075	0.45352
2159.99219	0.45477
2158.06362	0.45577
2156.13506	0.45656
2154.20649	0.45747
2152.27793	0.45847
2150.34937	0.45924
2148.42080	0.45982
2146.49224	0.46034
2144.56367	0.46079
2142.63511	0.46120
2140.70654	0.46155
2138.77798	0.46174
2136.84941	0.46188
2134.92085	0.46200
2132.99229	0.46196
2131.06372	0.46181
2129.13516	0.46165
2127.20659	0.46149
2125.27803	0.46129
2123.34946	0.46083
2121.42090	0.46022
2119.49233	0.45963
2117.56377	0.45901
2115.63521	0.45825
2113.70664	0.45738
2111.77808	0.45645
2109.84951	0.45551
2107.92095	0.45449
2105.99238	0.45335
2104.06382	0.45214
2102.13525	0.45090
2100.20669	0.44963
2098.27812	0.44816
2096.34956	0.44657
2094.42100	0.44505
2092.49243	0.44349
2090.56387	0.44184
2088.63530	0.44018
2086.70674	0.43840
2084.77817	0.43634
2082.84961	0.43422
2080.92104	0.43223
2078.99248	0.43034
2077.06392	0.42843
2075.13535	0.42633
2073.20679	0.42400
2071.27822	0.42156
2069.34966	0.41911
2067.42109	0.41678
2065.49253	0.41458
2063.56396	0.41225
2061.63540	0.40972
2059.70684	0.40713
2057.77827	0.40460
2055.84971	0.40213
2053.92114	0.39969
2051.99258	0.39715
2050.06401	0.39449
2048.13545	0.39186
2046.20688	0.38926
2044.27832	0.38662
2042.34976	0.38384
2040.42119	0.38092
2038.49263	0.37811
2036.56406	0.37540
2034.63550	0.37260
2032.70693	0.36971
2030.77837	0.36690
2028.84980	0.36410
2026.92124	0.36133
2024.99268	0.35859
2023.06411	0.35579
2021.13555	0.35290
2019.20698	0.35005
2017.27842	0.34730
2015.34985	0.34460
2013.42129	0.34192
2011.49272	0.33926
2009.56416	0.33661
2007.63560	0.33384
2005.70703	0.33095
2003.77847	0.32813
2001.84990	0.32544
1999.92134	0.32281
1997.99277	0.32020
1996.06421	0.31764
1994.13564	0.31519
1992.20708	0.31270
1990.27852	0.31006
1988.34995	0.30748
1986.42139	0.30505
1984.49282	0.30271
1982.56426	0.30034
1980.63569	0.29793
1978.70713	0.29558
1976.77856	0.29331
1974.85000	0.29113
1972.92144	0.28898
1970.99287	0.28684
1969.06431	0.28478
1967.13574	0.28285
1965.20718	0.28092
1963.27861	0.27886
1961.35005	0.27677
1959.42148	0.27481
1957.49292	0.27300
1955.56436	0.27118
1953.63579	0.26934
1951.70723	0.26760
1949.77866	0.26597
1947.85010	0.26438
1945.92153	0.26293
1943.99297	0.26160
1942.06440	0.26019
1940.13584	0.25866
1938.20728	0.25714
1936.27871	0.25573
1934.35015	0.25445
1932.42158	0.25326
1930.49302	0.25202
1928.56445	0.25081
1926.63589	0.24971
1924.70732	0.24872
1922.77876	0.24779
1920.85020	0.24684
1918.92163	0.24586
1916.99307	0.24487
1915.06450	0.24391
1913.13594	0.24308
1911.20737	0.24248
1909.27881	0.24191
1907.35024	0.24122
1905.42168	0.24055
1903.49312	0.23997
1901.56455	0.23939
1899.63599	0.23879
1897.70742	0.23824
1895.77886	0.23781
1893.85029	0.23753
1891.92173	0.23727
1889.99316	0.23704
1888.06460	0.23683
1886.13604	0.23662
1884.20747	0.23641
1882.27891	0.23617
1880.35034	0.23598
1878.42178	0.23585
1876.49321	0.23577
1874.56465	0.23577
1872.63608	0.23591
1870.70752	0.23615
1868.77896	0.23658
1866.85039	0.23691
1864.92183	0.23693
1862.99326	0.23700
1861.06470	0.23725
1859.13613	0.23758
1857.20757	0.23790
1855.27900	0.23835
1853.35044	0.23885
1851.42187	0.23941
1849.49331	0.23993
1847.56475	0.24038
1845.63618	0.24098
1843.70762	0.24200
1841.77905	0.24311
1839.85049	0.24383
1837.92192	0.24460
1835.99336	0.24547
1834.06479	0.24636
1832.13623	0.24722
1830.20767	0.24844
1828.27910	0.24987
1826.35054	0.25100
1824.42197	0.25237
1822.49341	0.25387
1820.56484	0.25529
1818.63628	0.25672
1816.70771	0.25829
1814.77915	0.25984
1812.85059	0.26145
1810.92202	0.26333
1808.99346	0.26539
1807.06489	0.26746
1805.13633	0.26949
1803.20776	0.27174
1801.27920	0.27425
1799.35063	0.27710
1797.42207	0.27972
1795.49351	0.28205
1793.56494	0.28458
1791.63638	0.28801
1789.70781	0.29163
1787.77925	0.29439
1785.85068	0.29746
1783.92212	0.30117
1781.99355	0.30517
1780.06499	0.30934
1778.13643	0.31367
1776.20786	0.31771
1774.27930	0.32185
1772.35073	0.32744
1770.42217	0.33390
1768.49360	0.33951
1766.56504	0.34470
1764.63647	0.34988
1762.70791	0.35563
1760.77935	0.36315
1758.85078	0.37020
1756.92222	0.37703
1754.99365	0.38456
1753.06509	0.39140
1751.13652	0.39930
1749.20796	0.40935
1747.27939	0.41967
1745.35083	0.42891
1743.42227	0.43849
1741.49370	0.44900
1739.56514	0.46153
1737.63657	0.47409
1735.70801	0.48490
1733.77944	0.50119
1731.85088	0.52131
1729.92231	0.53755
1727.99375	0.55372
1726.06519	0.57086
1724.13662	0.58943
1722.20806	0.60941
1720.27949	0.62776
1718.35093	0.64913
1716.42236	0.68102
1714.49380	0.71203
1712.56523	0.73734
1710.63667	0.76161
1708.70811	0.78735
1706.77954	0.81640
1704.85098	0.85113
1702.92241	0.88225
1700.99385	0.91300
1699.06528	0.95849
1697.13672	1.00040
1695.20815	1.04373
1693.27959	1.08630
1691.35103	1.12051
1689.42246	1.15937
1687.49390	1.19991
1685.56533	1.23874
1683.63677	1.29854
1681.70820	1.36122
1679.77964	1.40201
1677.85107	1.44104
1675.92251	1.48567
1673.99395	1.54011
1672.06538	1.58806
1670.13682	1.63495
1668.20825	1.69656
1666.27969	1.74688
1664.35112	1.78884
1662.42256	1.84158
1660.49399	1.90211
1658.56543	1.94963
1656.63687	1.98705
1654.70830	2.02026
1652.77974	2.07413
1650.85117	2.12807
1648.92261	2.14814
1646.99404	2.17219
1645.06548	2.19945
1643.13691	2.21974
1641.20835	2.23401
1639.27979	2.24599
1637.35122	2.25124
1635.42266	2.24930
1633.49409	2.24194
1631.56553	2.22859
1629.63696	2.21211
1627.70840	2.18623
1625.77983	2.15542
1623.85127	2.11556
1621.92271	2.06724
1619.99414	2.02410
1618.06558	1.98119
1616.13701	1.92111
1614.20845	1.86014
1612.27988	1.81216
1610.35132	1.76132
1608.42275	1.70657
1606.49419	1.65340
1604.56562	1.60500
1602.63706	1.55799
1600.70850	1.51117
1598.77993	1.46752
1596.85137	1.42648
1594.92280	1.38691
1592.99424	1.34913
1591.06567	1.31481
1589.13711	1.28263
1587.20854	1.25256
1585.27998	1.22477
1583.35142	1.19893
1581.42285	1.17542
1579.49429	1.15485
1577.56572	1.13588
1575.63716	1.11344
1573.70859	1.09383
1571.78003	1.08058
1569.85146	1.06687
1567.92290	1.05189
1565.99434	1.04015
1564.06577	1.03045
1562.13721	1.02255
1560.20864	1.01661
1558.28008	1.00933
1556.35151	1.00351
1554.42295	0.99974
1552.49438	0.99604
1550.56582	0.99154
1548.63726	0.98542
1546.70869	0.97817
1544.78013	0.96906
1542.85156	0.95761
1540.92300	0.94281
1538.99443	0.92188
1537.06587	0.90636
1535.13730	0.89552
1533.20874	0.88150
1531.28018	0.86649
1529.35161	0.85532
1527.42305	0.84474
1525.49448	0.83381
1523.56592	0.82444
1521.63735	0.81545
1519.70879	0.80630
1517.78022	0.79835
1515.85166	0.78944
1513.92310	0.78044
1511.99453	0.77271
1510.06597	0.76556
1508.13740	0.75827
1506.20884	0.74738
1504.28027	0.73818
1502.35171	0.73288
1500.42314	0.72813
1498.49458	0.72298
1496.56602	0.71693
1494.63745	0.71096
1492.70889	0.70615
1490.78032	0.70182
1488.85176	0.69706
1486.92319	0.69256
1484.99463	0.68880
1483.06606	0.68560
1481.13750	0.68267
1479.20894	0.68003
1477.28037	0.67788
1475.35181	0.67607
1473.42324	0.67438
1471.49468	0.67225
1469.56611	0.66972
1467.63755	0.66724
1465.70898	0.66500
1463.78042	0.66309
1461.85186	0.66154
1459.92329	0.66038
1457.99473	0.65955
1456.06616	0.65855
1454.13760	0.65661
1452.20903	0.65433
1450.28047	0.65202
1448.35190	0.64978
1446.42334	0.64764
1444.49478	0.64566
1442.56621	0.64372
1440.63765	0.64169
1438.70908	0.63971
1436.78052	0.63753
1434.85195	0.63496
1432.92339	0.63266
1430.99482	0.63115
1429.06626	0.63033
1427.13770	0.62971
1425.20913	0.62920
1423.28057	0.62905
1421.35200	0.62894
1419.42344	0.62851
1417.49487	0.62770
1415.56631	0.62646
1413.63774	0.62531
1411.70918	0.62472
1409.78062	0.62466
1407.85205	0.62477
1405.92349	0.62496
1403.99492	0.62503
1402.06636	0.62455
1400.13779	0.62350
1398.20923	0.62199
1396.28066	0.62005
1394.35210	0.61734
1392.42354	0.61424
1390.49497	0.61143
1388.56641	0.60869
1386.63784	0.60560
1384.70928	0.60220
1382.78071	0.59876
1380.85215	0.59552
1378.92358	0.59279
1376.99502	0.59070
1375.06646	0.58929
1373.13789	0.58825
1371.20933	0.58728
1369.28076	0.58632
1367.35220	0.58531
1365.42363	0.58412
1363.49507	0.58282
1361.56650	0.58165
1359.63794	0.58056
1357.70937	0.57942
1355.78081	0.57837
1353.85225	0.57750
1351.92368	0.57668
1349.99512	0.57587
1348.06655	0.57507
1346.13799	0.57423
1344.20942	0.57345
1342.28086	0.57282
1340.35229	0.57225
1338.42373	0.57153
1336.49517	0.57067
1334.56660	0.56996
1332.63804	0.56941
1330.70947	0.56895
1328.78091	0.56878
1326.85234	0.56892
1324.92378	0.56904
1322.99521	0.56903
1321.06665	0.56906
1319.13809	0.56913
1317.20952	0.56900
1315.28096	0.56864
1313.35239	0.56811
1311.42383	0.56738
1309.49526	0.56658
1307.56670	0.56583
1305.63813	0.56517
1303.70957	0.56459
1301.78101	0.56402
1299.85244	0.56321
1297.92388	0.56203
1295.99531	0.56069
1294.06675	0.55947
1292.13818	0.55845
1290.20962	0.55745
1288.28105	0.55640
1286.35249	0.55549
1284.42393	0.55469
1282.49536	0.55377
1280.56680	0.55272
1278.63823	0.55169
1276.70967	0.55072
1274.78110	0.54986
1272.85254	0.54915
1270.92397	0.54856
1268.99541	0.54797
1267.06685	0.54734
1265.13828	0.54673
1263.20972	0.54618
1261.28115	0.54568
1259.35259	0.54522
1257.42402	0.54475
1255.49546	0.54438
1253.56689	0.54419
1251.63833	0.54407
1249.70977	0.54399
1247.78120	0.54392
1245.85264	0.54374
1243.92407	0.54331
1241.99551	0.54265
1240.06694	0.54177
1238.13838	0.54070
1236.20981	0.53948
1234.28125	0.53818
1232.35269	0.53690
1230.42412	0.53558
1228.49556	0.53412
1226.56699	0.53262
1224.63843	0.53130
1222.70986	0.53014
1220.78130	0.52905
1218.85273	0.52815
1216.92417	0.52731
1214.99561	0.52639
1213.06704	0.52553
1211.13848	0.52488
1209.20991	0.52433
1207.28135	0.52366
1205.35278	0.52273
1203.42422	0.52180
1201.49565	0.52117
1199.56709	0.52058
1197.63853	0.51985
1195.70996	0.51917
1193.78140	0.51858
1191.85283	0.51812
1189.92427	0.51794
1187.99570	0.51782
1186.06714	0.51760
1184.13857	0.51746
1182.21001	0.51762
1180.28145	0.51806
1178.35288	0.51864
1176.42432	0.51939
1174.49575	0.52006
1172.56719	0.52043
1170.63862	0.52059
1168.71006	0.52067
1166.78149	0.52075
1164.85293	0.52081
1162.92437	0.52077
1160.99580	0.52039
1159.06724	0.51966
1157.13867	0.51891
1155.21011	0.51813
1153.28154	0.51699
1151.35298	0.51536
1149.42441	0.51336
1147.49585	0.51119
1145.56729	0.50889
1143.63872	0.50647
1141.71016	0.50414
1139.78159	0.50204
1137.85303	0.50038
1135.92446	0.49917
1133.99590	0.49815
1132.06733	0.49713
1130.13877	0.49605
1128.21021	0.49489
1126.28164	0.49370
1124.35308	0.49256
1122.42451	0.49149
1120.49595	0.49061
1118.56738	0.49018
1116.63882	0.49018
1114.71025	0.49032
1112.78169	0.49046
1110.85312	0.49072
1108.92456	0.49117
1106.99600	0.49188
1105.06743	0.49303
1103.13887	0.49465
1101.21030	0.49657
1099.28174	0.49873
1097.35317	0.50126
1095.42461	0.50409
1093.49604	0.50712
1091.56748	0.51076
1089.63892	0.51558
1087.71035	0.52143
1085.78179	0.52780
1083.85322	0.53444
1081.92466	0.54090
1079.99609	0.54623
1078.06753	0.54971
1076.13896	0.55084
1074.21040	0.54917
1072.28184	0.54490
1070.35327	0.53881
1068.42471	0.53198
1066.49614	0.52553
1064.56758	0.51962
1062.63901	0.51390
1060.71045	0.50850
1058.78188	0.50389
1056.85332	0.50003
1054.92476	0.49647
1052.99619	0.49322
1051.06763	0.49058
1049.13906	0.48854
1047.21050	0.48683
1045.28193	0.48542
1043.35337	0.48433
1041.42480	0.48336
1039.49624	0.48231
1037.56768	0.48127
1035.63911	0.48053
1033.71055	0.48018
1031.78198	0.48006
1029.85342	0.48014
1027.92485	0.48028
1025.99629	0.48032
1024.06772	0.48047
1022.13916	0.48098
1020.21060	0.48168
1018.28203	0.48234
1016.35347	0.48311
1014.42490	0.48403
1012.49634	0.48490
1010.56777	0.48600
1008.63921	0.48747
1006.71064	0.48902
1004.78208	0.49083
1002.85352	0.49319
1000.92495	0.49593
998.99639	0.49903
997.06782	0.50268
995.13926	0.50670
993.21069	0.51068
991.28213	0.51411
989.35356	0.51649
987.42500	0.51789
985.49644	0.51875
983.56787	0.51952
981.63931	0.52053
979.71074	0.52185
977.78218	0.52355
975.85361	0.52578
973.92505	0.52861
971.99648	0.53199
970.06792	0.53578
968.13936	0.53971
966.21079	0.54362
964.28223	0.54778
962.35366	0.55239
960.42510	0.55739
958.49653	0.56290
956.56797	0.56899
954.63940	0.57531
952.71084	0.58156
950.78228	0.58774
948.85371	0.59398
946.92515	0.60026
944.99658	0.60662
943.06802	0.61298
941.13945	0.61907
939.21089	0.62494
937.28232	0.63068
935.35376	0.63638
933.42520	0.64206
931.49663	0.64752
929.56807	0.65282
927.63950	0.65840
925.71094	0.66441
923.78237	0.67084
921.85381	0.67774
919.92524	0.68493
917.99668	0.69193
916.06812	0.69873
914.13955	0.70582
912.21099	0.71356
910.28242	0.72192
908.35386	0.73046
906.42529	0.73874
904.49673	0.74644
902.56816	0.75414
900.63960	0.76331
898.71104	0.77403
896.78247	0.78429
894.85391	0.79286
892.92534	0.80133
890.99678	0.81142
889.06821	0.82316
887.13965	0.83505
885.21108	0.84596
883.28252	0.85700
881.35396	0.86913
879.42539	0.88135
877.49683	0.89208
875.56826	0.90236
873.63970	0.91404
871.71113	0.92564
869.78257	0.93623
867.85400	0.94794
865.92544	0.96057
863.99687	0.97123
862.06831	0.98013
860.13975	0.99061
858.21118	1.00310
856.28262	1.01459
854.35405	1.02494
852.42549	1.03630
850.49692	1.04923
848.56836	1.06263
846.63979	1.07530
844.71123	1.08699
842.78267	1.09791
840.85410	1.10925
838.92554	1.12136
836.99697	1.13429
835.06841	1.14767
833.13984	1.16042
831.21128	1.17199
829.28271	1.17904
827.35415	1.18410
825.42559	1.19621
823.49702	1.21211
821.56846	1.21911
819.63989	1.21783
817.71133	1.22115
815.78276	1.23492
813.85420	1.24897
811.92563	1.25459
809.99707	1.26259
808.06851	1.27532
806.13994	1.28134
804.21138	1.28143
802.28281	1.28576
800.35425	1.29560
798.42568	1.29309
796.49712	1.27947
794.56855	1.28795
792.63999	1.30767
790.71143	1.29044
788.78286	1.25631
786.85430	1.25475
784.92573	1.28232
782.99717	1.29362
781.06860	1.27688
779.14004	1.25216
777.21147	1.22641
775.28291	1.20648
773.35435	1.20578
771.42578	1.20409
769.49722	1.16648
767.56865	1.15217
765.64009	1.18516
763.71152	1.18623
761.78296	1.15617
759.85439	1.16598
757.92583	1.19726
755.99727	1.17781
754.06870	1.10127
752.14014	1.00973
750.21157	0.93042
748.28301	0.89681
746.35444	0.91689
744.42588	0.92119
742.49731	0.88216
740.56875	0.83888
738.64019	0.76183
736.71162	0.67445
734.78306	0.65402
732.85449	0.69544
730.92593	0.66805
728.99736	0.58427
727.06880	0.52279
725.14023	0.44299
723.21167	0.38560
721.28311	0.41618
719.35454	0.49534
717.42598	0.43159
715.49741	0.26375
713.56885	0.12589
711.64028	0.07255
709.71172	0.06546
707.78315	0.10056
705.85459	0.17943
703.92603	0.23378
701.99746	0.21814
700.06890	0.15103
698.14033	0.12062
696.21177	0.24912
694.28320	0.40421
692.35464	0.33892
690.42607	0.28181
688.49751	0.24185
686.56895	0.16169
684.64038	0.13227
682.71182	0.16289
680.78325	0.15200
678.85469	0.08846
676.92612	0.02699
674.99756	0.02495
673.06899	0.06631
671.14043	0.11403
669.21187	0.14710
667.28330	0.14668
665.35474	0.12277
663.42617	0.11914
661.49761	0.15195
659.56904	0.22126
657.64048	0.26331
655.71191	0.15611
653.78335	0.05612
651.85479	0.09864
649.92622	0.17552
647.99766	0.23216
646.06909	0.24028
644.14053	0.17370
642.21196	0.10515
640.28340	0.05905
638.35483	0.03327
636.42627	0.05434
634.49771	0.08044
632.56914	0.08604
630.64058	0.10674
628.71201	0.13484
626.78345	0.16720
624.85488	0.23753
622.92632	0.29320
620.99775	0.27124
619.06919	0.19530
617.14062	0.11195
615.21206	0.03742
613.28350	0.03076
611.35493	0.09691
609.42637	0.17365
607.49780	0.25693
605.56924	0.31304
603.64067	0.23958
601.71211	0.20667
599.78354	0.37901
597.85498	0.62752
595.92642	0.40188
593.99785	0.22753
592.06929	0.16680
590.14072	0.12427
588.21216	0.10108
586.28359	0.11094
584.35503	0.11615
582.42646	0.07773
580.49790	0.03577
578.56934	0.06839
576.64077	0.13094
574.71221	0.13137
572.78364	0.10363
570.85508	0.10734
568.92651	0.08991
566.99795	0.06538
565.06938	0.08042
563.14082	0.10095
561.21226	0.14029
559.28369	0.18738
557.35513	0.10767
555.42656	-0.01281
553.49800	0.00192
551.56943	0.09148
549.64087	0.14468
547.71230	0.15811
545.78374	0.15339
543.85518	0.14206
541.92661	0.15427
539.99805	0.19119
538.06948	0.16096
536.14092	0.07131
534.21235	0.01416
532.28379	0.06086
530.35522	0.18038
528.42666	0.19748
526.49810	0.14402
524.56953	0.16581
522.64097	0.21852
520.71240	0.18896
518.78384	0.11272
516.85527	0.02751
514.92671	-0.02110
512.99814	-0.01463
511.06958	0.01755
509.14102	0.08431
507.21245	0.14804
505.28389	0.17735
503.35532	0.15400
501.42676	0.08411
499.49819	0.03805
