3997.91411	0.05310
3995.98555	0.05326
3994.05698	0.05328
3992.12842	0.05360
3990.19985	0.05396
3988.27129	0.05416
3986.34272	0.05429
3984.41416	0.05446
3982.48560	0.05492
3980.55703	0.05562
3978.62847	0.05599
3976.69990	0.05596
3974.77134	0.05608
3972.84277	0.05645
3970.91421	0.05674
3968.98564	0.05674
3967.05708	0.05661
3965.12852	0.05663
3963.19995	0.05722
3961.27139	0.05822
3959.34282	0.05856
3957.41426	0.05831
3955.48569	0.05835
3953.55713	0.05861
3951.62856	0.05901
3949.70000	0.05969
3947.77144	0.06010
3945.84287	0.05987
3943.91431	0.06005
3941.98574	0.06075
3940.05718	0.06032
3938.12861	0.05911
3936.20005	0.05858
3934.27148	0.05923
3932.34292	0.06113
3930.41436	0.06247
3928.48579	0.06161
3926.55723	0.06085
3924.62866	0.06164
3922.70010	0.06193
3920.77153	0.06120
3918.84297	0.06115
3916.91440	0.06162
3914.98584	0.06086
3913.05728	0.05896
3911.12871	0.05747
3909.20015	0.05714
3907.27158	0.05864
3905.34302	0.06275
3903.41445	0.06785
3901.48589	0.07002
3899.55732	0.06857
3897.62876	0.06539
3895.70020	0.06270
3893.77163	0.06242
3891.84307	0.06417
3889.91450	0.06469
3887.98594	0.06333
3886.05737	0.06355
3884.12881	0.06520
3882.20024	0.06611
3880.27168	0.06645
3878.34312	0.06501
3876.41455	0.06322
3874.48599	0.06436
3872.55742	0.06747
3870.62886	0.06989
3868.70029	0.07032
3866.77173	0.06926
3864.84316	0.06990
3862.91460	0.07117
3860.98604	0.06930
3859.05747	0.06691
3857.12891	0.06781
3855.20034	0.07232
3853.27178	0.07903
3851.34321	0.08023
3849.41465	0.07423
3847.48608	0.06964
3845.55752	0.06851
3843.62896	0.07043
3841.70039	0.07448
3839.77183	0.07926
3837.84326	0.08274
3835.91470	0.08255
3833.98613	0.08035
3832.05757	0.07869
3830.12900	0.07722
3828.20044	0.07632
3826.27187	0.07714
3824.34331	0.07904
3822.41475	0.08222
3820.48618	0.08736
3818.55762	0.08965
3816.62905	0.08851
3814.70049	0.08624
3812.77192	0.08271
3810.84336	0.08086
3808.91479	0.08223
3806.98623	0.08584
3805.05767	0.08903
3803.12910	0.09187
3801.20054	0.09599
3799.27197	0.09749
3797.34341	0.09590
3795.41484	0.09425
3793.48628	0.09226
3791.55771	0.09108
3789.62915	0.09158
3787.70059	0.09332
3785.77202	0.09612
3783.84346	0.09886
3781.91489	0.10048
3779.98633	0.10230
3778.05776	0.10434
3776.12920	0.10457
3774.20063	0.10448
3772.27207	0.10641
3770.34351	0.11040
3768.41494	0.11433
3766.48638	0.11651
3764.55781	0.11804
3762.62925	0.11946
3760.70068	0.12238
3758.77212	0.12755
3756.84355	0.13144
3754.91499	0.13330
3752.98643	0.13717
3751.05786	0.14490
3749.12930	0.15216
3747.20073	0.15479
3745.27217	0.15748
3743.34360	0.16159
3741.41504	0.16409
3739.48647	0.16708
3737.55791	0.17376
3735.62935	0.18471
3733.70078	0.19494
3731.77222	0.19846
3729.84365	0.19961
3727.91509	0.20298
3725.98652	0.20949
3724.05796	0.21683
3722.12939	0.22189
3720.20083	0.22474
3718.27227	0.22677
3716.34370	0.22955
3714.41514	0.23535
3712.48657	0.24781
3710.55801	0.26731
3708.62944	0.28321
3706.70088	0.29219
3704.77231	0.30173
3702.84375	0.31497
3700.91519	0.33191
3698.98662	0.34899
3697.05806	0.36479
3695.12949	0.38239
3693.20093	0.40259
3691.27236	0.42641
3689.34380	0.45612
3687.41523	0.48731
3685.48667	0.51196
3683.55811	0.53439
3681.62954	0.56117
3679.70098	0.59403
3677.77241	0.63062
3675.84385	0.67367
3673.91528	0.72645
3671.98672	0.76698
3670.05815	0.80455
3668.12959	0.85562
3666.20103	0.89994
3664.27246	0.93734
3662.34390	0.97961
3660.41533	1.02674
3658.48677	1.07402
3656.55820	1.12452
3654.62964	1.17980
3652.70107	1.22630
3650.77251	1.26949
3648.84395	1.33016
3646.91538	1.39837
3644.98682	1.44391
3643.05825	1.47986
3641.12969	1.51895
3639.20112	1.56328
3637.27256	1.60922
3635.34399	1.65484
3633.41543	1.70057
3631.48687	1.74367
3629.55830	1.78783
3627.62974	1.84394
3625.70117	1.89328
3623.77261	1.92535
3621.84404	1.95714
3619.91548	1.99501
3617.98691	2.03998
3616.05835	2.08162
3614.12979	2.11725
3612.20122	2.15616
3610.27266	2.19508
3608.34409	2.23486
3606.41553	2.27766
3604.48696	2.31663
3602.55840	2.35233
3600.62983	2.39266
3598.70127	2.43609
3596.77271	2.47681
3594.84414	2.51726
3592.91558	2.55785
3590.98701	2.59460
3589.05845	2.63052
3587.12988	2.67555
3585.20132	2.72229
3583.27275	2.75907
3581.34419	2.79378
3579.41562	2.83273
3577.48706	2.87521
3575.55850	2.91904
3573.62993	2.96363
3571.70137	3.00582
3569.77280	3.04602
3567.84424	3.09038
3565.91567	3.14369
3563.98711	3.19286
3562.05854	3.23327
3560.12998	3.27464
3558.20142	3.31843
3556.27285	3.36263
3554.34429	3.40575
3552.41572	3.45027
3550.48716	3.49664
3548.55859	3.54300
3546.63003	3.59093
3544.70146	3.64277
3542.77290	3.69350
3540.84434	3.73977
3538.91577	3.78468
3536.98721	3.82901
3535.05864	3.87562
3533.13008	3.92481
3531.20151	3.97334
3529.27295	4.02014
3527.34438	4.06801
3525.41582	4.11686
3523.48726	4.16515
3521.55869	4.21419
3519.63013	4.26465
3517.70156	4.31725
3515.77300	4.36740
3513.84443	4.41303
3511.91587	4.45845
3509.98730	4.50586
3508.05874	4.55205
3506.13018	4.59721
3504.20161	4.64595
3502.27305	4.69746
3500.34448	4.74938
3498.41592	4.79914
3496.48735	4.84673
3494.55879	4.89559
3492.63022	4.94476
3490.70166	4.99104
3488.77310	5.03514
3486.84453	5.08284
3484.91597	5.13583
3482.98740	5.18773
3481.05884	5.24107
3479.13027	5.29927
3477.20171	5.35508
3475.27314	5.40271
3473.34458	5.44212
3471.41602	5.48071
3469.48745	5.52601
3467.55889	5.57671
3465.63032	5.62636
3463.70176	5.67437
3461.77319	5.71994
3459.84463	5.76206
3457.91606	5.81330
3455.98750	5.88167
3454.05894	5.94812
3452.13037	6.00056
3450.20181	6.05663
3448.27324	6.11843
3446.34468	6.16482
3444.41611	6.19932
3442.48755	6.24679
3440.55898	6.29973
3438.63042	6.34122
3436.70186	6.37647
3434.77329	6.42156
3432.84473	6.47696
3430.91616	6.53256
3428.98760	6.59672
3427.05903	6.67315
3425.13047	6.74499
3423.20190	6.78275
3421.27334	6.80169
3419.34478	6.82733
3417.41621	6.85380
3415.48765	6.89961
3413.55908	6.98853
3411.63052	7.08648
3409.70195	7.13205
3407.77339	7.15186
3405.84482	7.17961
3403.91626	7.20005
3401.98770	7.21183
3400.05913	7.25550
3398.13057	7.35009
3396.20200	7.43825
3394.27344	7.47700
3392.34487	7.49103
3390.41631	7.51717
3388.48774	7.56062
3386.55918	7.65680
3384.63062	7.77590
3382.70205	7.81430
3380.77349	7.76303
3378.84492	7.69007
3376.91636	7.68351
3374.98779	7.75364
3373.05923	7.81367
3371.13066	7.80601
3369.20210	7.81514
3367.27354	7.87505
3365.34497	7.92496
3363.41641	7.93288
3361.48784	7.88849
3359.55928	7.87230
3357.63071	7.97445
3355.70215	8.10602
3353.77358	8.10208
3351.84502	8.05231
3349.91646	8.06184
3347.98789	8.10676
3346.05933	8.15298
3344.13076	8.15583
3342.20220	8.09593
3340.27363	8.01463
3338.34507	7.98938
3336.41650	8.02339
3334.48794	8.09542
3332.55937	8.17726
3330.63081	8.20329
3328.70225	8.14552
3326.77368	8.08515
3324.84512	8.08643
3322.91655	8.14304
3320.98799	8.25360
3319.05942	8.33429
3317.13086	8.33443
3315.20229	8.29161
3313.27373	8.24252
3311.34517	8.23860
3309.41660	8.27875
3307.48804	8.31195
3305.55947	8.33502
3303.63091	8.34255
3301.70234	8.33017
3299.77378	8.32737
3297.84521	8.25477
3295.91665	8.17041
3293.98809	8.19384
3292.05952	8.27509
3290.13096	8.36688
3288.20239	8.47514
3286.27383	8.55830
3284.34526	8.53883
3282.41670	8.46312
3280.48813	8.39577
3278.55957	8.34645
3276.63101	8.35238
3274.70244	8.37349
3272.77388	8.28733
3270.84531	8.16550
3268.91675	8.16002
3266.98818	8.24599
3265.05962	8.31283
3263.13105	8.34855
3261.20249	8.40581
3259.27393	8.43359
3257.34536	8.44053
3255.41680	8.43887
3253.48823	8.32002
3251.55967	8.15075
3249.63110	8.06731
3247.70254	8.08408
3245.77397	8.18588
3243.84541	8.31983
3241.91685	8.35975
3239.98828	8.34500
3238.05972	8.33837
3236.13115	8.29377
3234.20259	8.27128
3232.27402	8.31732
3230.34546	8.34151
3228.41689	8.28751
3226.48833	8.24641
3224.55977	8.25652
3222.63120	8.28993
3220.70264	8.32802
3218.77407	8.31908
3216.84551	8.23883
3214.91694	8.15155
3212.98838	8.12248
3211.05981	8.09984
3209.13125	8.02969
3207.20269	7.97519
3205.27412	7.97529
3203.34556	7.98039
3201.41699	7.94673
3199.48843	7.89536
3197.55986	7.85278
3195.63130	7.81364
3193.70273	7.75971
3191.77417	7.69200
3189.84561	7.62506
3187.91704	7.55947
3185.98848	7.51821
3184.05991	7.51638
3182.13135	7.51619
3180.20278	7.48428
3178.27422	7.41371
3176.34565	7.32341
3174.41709	7.24178
3172.48853	7.17203
3170.55996	7.08230
3168.63140	6.95987
3166.70283	6.87240
3164.77427	6.85896
3162.84570	6.85229
3160.91714	6.80661
3158.98857	6.75631
3157.06001	6.71273
3155.13145	6.65400
3153.20288	6.56885
3151.27432	6.48161
3149.34575	6.41120
3147.41719	6.33455
3145.48862	6.24841
3143.56006	6.18039
3141.63149	6.13315
3139.70293	6.08144
3137.77437	6.01068
3135.84580	5.93419
3133.91724	5.86717
3131.98867	5.79803
3130.06011	5.71805
3128.13154	5.63605
3126.20298	5.55787
3124.27441	5.48802
3122.34585	5.42208
3120.41729	5.35206
3118.48872	5.27283
3116.56016	5.19061
3114.63159	5.11973
3112.70303	5.05568
3110.77446	4.98514
3108.84590	4.90966
3106.91733	4.83756
3104.98877	4.76830
3103.06021	4.70039
3101.13164	4.63497
3099.20308	4.56925
3097.27451	4.49992
3095.34595	4.42833
3093.41738	4.35949
3091.48882	4.29379
3089.56025	4.22862
3087.63169	4.16346
3085.70312	4.09800
3083.77456	4.03336
3081.84600	3.97059
3079.91743	3.90771
3077.98887	3.84321
3076.06030	3.77963
3074.13174	3.72037
3072.20317	3.66423
3070.27461	3.60795
3068.34604	3.55056
3066.41748	3.49191
3064.48892	3.43323
3062.56035	3.37612
3060.63179	3.32075
3058.70322	3.26635
3056.77466	3.21177
3054.84609	3.15753
3052.91753	3.10470
3050.98896	3.05296
3049.06040	3.00164
3047.13184	2.95047
3045.20327	2.89889
3043.27471	2.84807
3041.34614	2.79995
3039.41758	2.75304
3037.48901	2.70592
3035.56045	2.65910
3033.63188	2.61260
3031.70332	2.56694
3029.77476	2.52246
3027.84619	2.47849
3025.91763	2.43507
3023.98906	2.39227
3022.06050	2.34969
3020.13193	2.30761
3018.20337	2.26655
3016.27480	2.22643
3014.34624	2.18685
3012.41768	2.14795
3010.48911	2.11010
3008.56055	2.07262
3006.63198	2.03493
3004.70342	1.99789
3002.77485	1.96222
3000.84629	1.92788
2998.91772	1.89449
2996.98916	1.86140
2995.06060	1.82818
2993.13203	1.79525
2991.20347	1.76372
2989.27490	1.73316
2987.34634	1.70235
2985.41777	1.67176
2983.48921	1.64227
2981.56064	1.61366
2979.63208	1.58530
2977.70352	1.55714
2975.77495	1.52931
2973.84639	1.50179
2971.91782	1.47510
2969.98926	1.44941
2968.06069	1.42421
2966.13213	1.39908
2964.20356	1.37400
2962.27500	1.34910
2960.34644	1.32445
2958.41787	1.30021
2956.48931	1.27661
2954.56074	1.25361
2952.63218	1.23087
2950.70361	1.20827
2948.77505	1.18592
2946.84648	1.16391
2944.91792	1.14222
2942.98936	1.12079
2941.06079	1.09988
2939.13223	1.07978
2937.20366	1.06029
2935.27510	1.04072
2933.34653	1.02074
2931.41797	1.00100
2929.48940	0.98207
2927.56084	0.96393
2925.63228	0.94641
2923.70371	0.92934
2921.77515	0.91253
2919.84658	0.89593
2917.91802	0.87988
2915.98945	0.86433
2914.06089	0.84869
2912.13232	0.83322
2910.20376	0.81843
2908.27520	0.80377
2906.34663	0.78912
2904.41807	0.77518
2902.48950	0.76190
2900.56094	0.74872
2898.63237	0.73577
2896.70381	0.72309
2894.77524	0.71038
2892.84668	0.69807
2890.91812	0.68651
2888.98955	0.67519
2887.06099	0.66378
2885.13242	0.65270
2883.20386	0.64220
2881.27529	0.63212
2879.34673	0.62218
2877.41816	0.61208
2875.48960	0.60188
2873.56104	0.59185
2871.63247	0.58174
2869.70391	0.57138
2867.77534	0.56098
2865.84678	0.55040
2863.91821	0.53978
2861.98965	0.52945
2860.06108	0.51946
2858.13252	0.50986
2856.20396	0.50082
2854.27539	0.49233
2852.34683	0.48427
2850.41826	0.47652
2848.48970	0.46861
2846.56113	0.46042
2844.63257	0.45274
2842.70400	0.44578
2840.77544	0.43914
2838.84687	0.43289
2836.91831	0.42736
2834.98975	0.42199
2833.06118	0.41609
2831.13262	0.40992
2829.20405	0.40388
2827.27549	0.39794
2825.34692	0.39190
2823.41836	0.38585
2821.48979	0.38009
2819.56123	0.37457
2817.63267	0.36907
2815.70410	0.36347
2813.77554	0.35785
2811.84697	0.35249
2809.91841	0.34734
2807.98984	0.34218
2806.06128	0.33722
2804.13271	0.33248
2802.20415	0.32763
2800.27559	0.32270
2798.34702	0.31799
2796.41846	0.31346
2794.48989	0.30902
2792.56133	0.30454
2790.63276	0.30000
2788.70420	0.29561
2786.77563	0.29147
2784.84707	0.28745
2782.91851	0.28344
2780.98994	0.27943
2779.06138	0.27561
2777.13281	0.27198
2775.20425	0.26830
2773.27568	0.26447
2771.34712	0.26066
2769.41855	0.25713
2767.48999	0.25392
2765.56143	0.25082
2763.63286	0.24769
2761.70430	0.24455
2759.77573	0.24136
2757.84717	0.23813
2755.91860	0.23506
2753.99004	0.23224
2752.06147	0.22954
2750.13291	0.22679
2748.20435	0.22395
2746.27578	0.22112
2744.34722	0.21843
2742.41865	0.21598
2740.49009	0.21362
2738.56152	0.21114
2736.63296	0.20864
2734.70439	0.20635
2732.77583	0.20423
2730.84727	0.20215
2728.91870	0.20008
2726.99014	0.19797
2725.06157	0.19585
2723.13301	0.19380
2721.20444	0.19175
2719.27588	0.18974
2717.34731	0.18796
2715.41875	0.18635
2713.49019	0.18463
2711.56162	0.18277
2709.63306	0.18095
2707.70449	0.17923
2705.77593	0.17770
2703.84736	0.17629
2701.91880	0.17474
2699.99023	0.17307
2698.06167	0.17168
2696.13311	0.17053
2694.20454	0.16920
2692.27598	0.16776
2690.34741	0.16651
2688.41885	0.16537
2686.49028	0.16412
2684.56172	0.16279
2682.63315	0.16151
2680.70459	0.16044
2678.77603	0.15953
2676.84746	0.15845
2674.91890	0.15724
2672.99033	0.15621
2671.06177	0.15535
2669.13320	0.15453
2667.20464	0.15365
2665.27607	0.15266
2663.34751	0.15170
2661.41895	0.15075
2659.49038	0.14983
2657.56182	0.14905
2655.63325	0.14843
2653.70469	0.14794
2651.77612	0.14750
2649.84756	0.14694
2647.91899	0.14626
2645.99043	0.14565
2644.06187	0.14513
2642.13330	0.14469
2640.20474	0.14427
2638.27617	0.14378
2636.34761	0.14327
2634.41904	0.14288
2632.49048	0.14252
2630.56191	0.14215
2628.63335	0.14183
2626.70479	0.14149
2624.77622	0.14116
2622.84766	0.14098
2620.91909	0.14093
2618.99053	0.14085
2617.06196	0.14072
2615.13340	0.14058
2613.20483	0.14037
2611.27627	0.14012
2609.34771	0.13997
2607.41914	0.13997
2605.49058	0.14011
2603.56201	0.14031
2601.63345	0.14043
2599.70488	0.14041
2597.77632	0.14043
2595.84775	0.14054
2593.91919	0.14069
2591.99062	0.14087
2590.06206	0.14100
2588.13350	0.14107
2586.20493	0.14121
2584.27637	0.14150
2582.34780	0.14184
2580.41924	0.14228
2578.49067	0.14274
2576.56211	0.14307
2574.63354	0.14330
2572.70498	0.14359
2570.77642	0.14398
2568.84785	0.14437
2566.91929	0.14472
2564.99072	0.14508
2563.06216	0.14551
2561.13359	0.14598
2559.20503	0.14651
2557.27646	0.14713
2555.34790	0.14781
2553.41934	0.14844
2551.49077	0.14895
2549.56221	0.14939
2547.63364	0.14986
2545.70508	0.15046
2543.77651	0.15118
2541.84795	0.15190
2539.91938	0.15258
2537.99082	0.15321
2536.06226	0.15387
2534.13369	0.15465
2532.20513	0.15548
2530.27656	0.15621
2528.34800	0.15689
2526.41943	0.15767
2524.49087	0.15856
2522.56230	0.15949
2520.63374	0.16030
2518.70518	0.16094
2516.77661	0.16156
2514.84805	0.16233
2512.91948	0.16322
2510.99092	0.16411
2509.06235	0.16503
2507.13379	0.16594
2505.20522	0.16675
2503.27666	0.16762
2501.34810	0.16859
2499.41953	0.16947
2497.49097	0.17024
2495.56240	0.17098
2493.63384	0.17181
2491.70527	0.17273
2489.77671	0.17367
2487.84814	0.17463
2485.91958	0.17551
2483.99102	0.17624
2482.06245	0.17698
2480.13389	0.17791
2478.20532	0.17895
2476.27676	0.17995
2474.34819	0.18088
2472.41963	0.18183
2470.49106	0.18285
2468.56250	0.18388
2466.63394	0.18482
2464.70537	0.18572
2462.77681	0.18675
2460.84824	0.18784
2458.91968	0.18877
2456.99111	0.18972
2455.06255	0.19077
2453.13398	0.19173
2451.20542	0.19263
2449.27686	0.19354
2447.34829	0.19455
2445.41973	0.19570
2443.49116	0.19688
2441.56260	0.19800
2439.63403	0.19897
2437.70547	0.19987
2435.77690	0.20084
2433.84834	0.20189
2431.91978	0.20306
2429.99121	0.20431
2428.06265	0.20542
2426.13408	0.20639
2424.20552	0.20742
2422.27695	0.20859
2420.34839	0.20977
2418.41982	0.21086
2416.49126	0.21190
2414.56270	0.21305
2412.63413	0.21445
2410.70557	0.21590
2408.77700	0.21705
2406.84844	0.21801
2404.91987	0.21912
2402.99131	0.22040
2401.06274	0.22174
2399.13418	0.22312
2397.20562	0.22447
2395.27705	0.22578
2393.34849	0.22710
2391.41992	0.22849
2389.49136	0.23016
2387.56279	0.23288
2385.63423	0.23777
2383.70566	0.24573
2381.77710	0.25692
2379.84854	0.27087
2377.91997	0.28693
2375.99141	0.30499
2374.06284	0.32568
2372.13428	0.34904
2370.20571	0.37415
2368.27715	0.39976
2366.34858	0.42442
2364.42002	0.44621
2362.49146	0.46297
2360.56289	0.47254
2358.63433	0.47265
2356.70576	0.46233
2354.77720	0.44286
2352.84863	0.41746
2350.92007	0.39126
2348.99150	0.37497
2347.06294	0.37567
2345.13437	0.39337
2343.20581	0.41656
2341.27725	0.42831
2339.34868	0.42858
2337.42012	0.42540
2335.49155	0.42253
2333.56299	0.41985
2331.63442	0.41774
2329.70586	0.41555
2327.77729	0.41157
2325.84873	0.40555
2323.92017	0.39866
2321.99160	0.39113
2320.06304	0.38216
2318.13447	0.37234
2316.20591	0.36387
2314.27734	0.35833
2312.34878	0.35506
2310.42021	0.35198
2308.49165	0.34767
2306.56309	0.34233
2304.63452	0.33736
2302.70596	0.33411
2300.77739	0.33234
2298.84883	0.33092
2296.92026	0.32960
2294.99170	0.32854
2293.06313	0.32760
2291.13457	0.32663
2289.20601	0.32575
2287.27744	0.32496
2285.34888	0.32440
2283.42031	0.32464
2281.49175	0.32616
2279.56318	0.32872
2277.63462	0.33162
2275.70605	0.33435
2273.77749	0.33679
2271.84893	0.33907
2269.92036	0.34116
2267.99180	0.34304
2266.06323	0.34480
2264.13467	0.34663
2262.20610	0.34845
2260.27754	0.35012
2258.34897	0.35173
2256.42041	0.35343
2254.49185	0.35519
2252.56328	0.35687
2250.63472	0.35847
2248.70615	0.36020
2246.77759	0.36212
2244.84902	0.36410
2242.92046	0.36614
2240.99189	0.36830
2239.06333	0.37055
2237.13477	0.37274
2235.20620	0.37472
2233.27764	0.37666
2231.34907	0.37876
2229.42051	0.38102
2227.49194	0.38333
2225.56338	0.38563
2223.63481	0.38788
2221.70625	0.39011
2219.77769	0.39237
2217.84912	0.39459
2215.92056	0.39669
2213.99199	0.39875
2212.06343	0.40098
2210.13486	0.40326
2208.20630	0.40543
2206.27773	0.40753
2204.34917	0.40965
2202.42061	0.41174
2200.49204	0.41376
2198.56348	0.41575
2196.63491	0.41770
2194.70635	0.41962
2192.77778	0.42160
2190.84922	0.42362
2188.92065	0.42550
2186.99209	0.42727
2185.06353	0.42903
2183.13496	0.43078
2181.20640	0.43253
2179.27783	0.43423
2177.34927	0.43585
2175.42070	0.43737
2173.49214	0.43883
2171.56357	0.44029
2169.63501	0.44171
2167.70645	0.44307
2165.77788	0.44437
2163.84932	0.44566
2161.92075	0.44688
2159.99219	0.44798
2158.06362	0.44893
2156.13506	0.44981
2154.20649	0.45065
2152.27793	0.45146
2150.34937	0.45231
2148.42080	0.45308
2146.49224	0.45359
2144.56367	0.45399
2142.63511	0.45438
2140.70654	0.45467
2138.77798	0.45505
2136.84941	0.45548
2134.92085	0.45560
2132.99229	0.45536
2131.06372	0.45517
2129.13516	0.45508
2127.20659	0.45483
2125.27803	0.45445
2123.34946	0.45397
2121.42090	0.45339
2119.49233	0.45278
2117.56377	0.45216
2115.63521	0.45151
2113.70664	0.45081
2111.77808	0.45008
2109.84951	0.44925
2107.92095	0.44820
2105.99238	0.44692
2104.06382	0.44558
2102.13525	0.44425
2100.20669	0.44299
2098.27812	0.44174
2096.34956	0.44034
2094.42100	0.43876
2092.49243	0.43713
2090.56387	0.43544
2088.63530	0.43358
2086.70674	0.43166
2084.77817	0.42974
2082.84961	0.42785
2080.92104	0.42601
2078.99248	0.42413
2077.06392	0.42208
2075.13535	0.41986
2073.20679	0.41771
2071.27822	0.41563
2069.34966	0.41337
2067.42109	0.41098
2065.49253	0.40867
2063.56396	0.40627
2061.63540	0.40369
2059.70684	0.40110
2057.77827	0.39858
2055.84971	0.39608
2053.92114	0.39358
2051.99258	0.39106
2050.06401	0.38847
2048.13545	0.38578
2046.20688	0.38312
2044.27832	0.38055
2042.34976	0.37794
2040.42119	0.37515
2038.49263	0.37227
2036.56406	0.36946
2034.63550	0.36671
2032.70693	0.36398
2030.77837	0.36126
2028.84980	0.35850
2026.92124	0.35575
2024.99268	0.35301
2023.06411	0.35023
2021.13555	0.34746
2019.20698	0.34487
2017.27842	0.34232
2015.34985	0.33943
2013.42129	0.33644
2011.49272	0.33365
2009.56416	0.33095
2007.63560	0.32815
2005.70703	0.32538
2003.77847	0.32271
2001.84990	0.32011
1999.92134	0.31750
1997.99277	0.31485
1996.06421	0.31233
1994.13564	0.31016
1992.20708	0.30804
1990.27852	0.30553
1988.34995	0.30278
1986.42139	0.30002
1984.49282	0.29740
1982.56426	0.29498
1980.63569	0.29267
1978.70713	0.29038
1976.77856	0.28811
1974.85000	0.28592
1972.92144	0.28383
1970.99287	0.28182
1969.06431	0.28001
1967.13574	0.27825
1965.20718	0.27608
1963.27861	0.27375
1961.35005	0.27168
1959.42148	0.26976
1957.49292	0.26796
1955.56436	0.26634
1953.63579	0.26479
1951.70723	0.26308
1949.77866	0.26130
1947.85010	0.25972
1945.92153	0.25848
1943.99297	0.25749
1942.06440	0.25622
1940.13584	0.25424
1938.20728	0.25227
1936.27871	0.25085
1934.35015	0.24962
1932.42158	0.24836
1930.49302	0.24708
1928.56445	0.24589
1926.63589	0.24496
1924.70732	0.24461
1922.77876	0.24430
1920.85020	0.24330
1918.92163	0.24221
1916.99307	0.24117
1915.06450	0.23975
1913.13594	0.23860
1911.20737	0.23815
1909.27881	0.23784
1907.35024	0.23713
1905.42168	0.23617
1903.49312	0.23533
1901.56455	0.23468
1899.63599	0.23419
1897.70742	0.23392
1895.77886	0.23379
1893.85029	0.23351
1891.92173	0.23324
1889.99316	0.23338
1888.06460	0.23319
1886.13604	0.23244
1884.20747	0.23191
1882.27891	0.23165
1880.35034	0.23146
1878.42178	0.23135
1876.49321	0.23133
1874.56465	0.23135
1872.63608	0.23178
1870.70752	0.23310
1868.77896	0.23488
1866.85039	0.23511
1864.92183	0.23387
1862.99326	0.23302
1861.06470	0.23296
1859.13613	0.23326
1857.20757	0.23353
1855.27900	0.23386
1853.35044	0.23433
1851.42187	0.23499
1849.49331	0.23598
1847.56475	0.23738
1845.63618	0.23904
1843.70762	0.24036
1841.77905	0.24041
1839.85049	0.24009
1837.92192	0.24070
1835.99336	0.24168
1834.06479	0.24263
1832.13623	0.24419
1830.20767	0.24669
1828.27910	0.24854
1826.35054	0.24924
1824.42197	0.25015
1822.49341	0.25082
1820.56484	0.25137
1818.63628	0.25246
1816.70771	0.25408
1814.77915	0.25581
1812.85059	0.25800
1810.92202	0.26068
1808.99346	0.26281
1807.06489	0.26431
1805.13633	0.26601
1803.20776	0.26863
1801.27920	0.27198
1799.35063	0.27517
1797.42207	0.27752
1795.49351	0.28001
1793.56494	0.28351
1791.63638	0.28758
1789.70781	0.29016
1787.77925	0.29172
1785.85068	0.29450
1783.92212	0.29839
1781.99355	0.30274
1780.06499	0.30717
1778.13643	0.31129
1776.20786	0.31547
1774.27930	0.32094
1772.35073	0.32830
1770.42217	0.33466
1768.49360	0.33874
1766.56504	0.34278
1764.63647	0.34765
1762.70791	0.35388
1760.77935	0.36171
1758.85078	0.36869
1756.92222	0.37569
1754.99365	0.38323
1753.06509	0.39043
1751.13652	0.40000
1749.20796	0.41192
1747.27939	0.42238
1745.35083	0.43097
1743.42227	0.44045
1741.49370	0.45130
1739.56514	0.46391
1737.63657	0.47624
1735.70801	0.48767
1733.77944	0.50537
1731.85088	0.52483
1729.92231	0.53904
1727.99375	0.55358
1726.06519	0.56971
1724.13662	0.58807
1722.20806	0.60830
1720.27949	0.62764
1718.35093	0.65139
1716.42236	0.68516
1714.49380	0.71456
1712.56523	0.73730
1710.63667	0.76019
1708.70811	0.78603
1706.77954	0.81614
1704.85098	0.85177
1702.92241	0.88318
1700.99385	0.91469
1699.06528	0.96144
1697.13672	1.00324
1695.20815	1.04458
1693.27959	1.08430
1691.35103	1.11711
1689.42246	1.15631
1687.49390	1.19802
1685.56533	1.23854
1683.63677	1.29987
1681.70820	1.36121
1679.77964	1.39994
1677.85107	1.43799
1675.92251	1.48258
1673.99395	1.53718
1672.06538	1.58549
1670.13682	1.63337
1668.20825	1.69411
1666.27969	1.74195
1664.35112	1.78321
1662.42256	1.83563
1660.49399	1.89334
1658.56543	1.93821
1656.63687	1.97665
1654.70830	2.01479
1652.77974	2.07482
1650.85117	2.12708
1648.92261	2.14378
1646.99404	2.16868
1645.06548	2.19859
1643.13691	2.21771
1641.20835	2.22918
1639.27979	2.24044
1637.35122	2.24848
1635.42266	2.24972
1633.49409	2.24227
1631.56553	2.22929
1629.63696	2.21414
1627.70840	2.18882
1625.77983	2.15834
1623.85127	2.11938
1621.92271	2.07141
1619.99414	2.02861
1618.06558	1.98727
1616.13701	1.92773
1614.20845	1.86534
1612.27988	1.81741
1610.35132	1.76788
1608.42275	1.71407
1606.49419	1.66079
1604.56562	1.61219
1602.63706	1.56541
1600.70850	1.51883
1598.77993	1.47544
1596.85137	1.43496
1594.92280	1.39586
1592.99424	1.35775
1591.06567	1.32240
1589.13711	1.28892
1587.20854	1.25741
1585.27998	1.22825
1583.35142	1.20104
1581.42285	1.17599
1579.49429	1.15475
1577.56572	1.13644
1575.63716	1.11348
1573.70859	1.09133
1571.78003	1.07682
1569.85146	1.06294
1567.92290	1.04685
1565.99434	1.03354
1564.06577	1.02304
1562.13721	1.01532
1560.20864	1.01076
1558.28008	1.00380
1556.35151	0.99428
1554.42295	0.98707
1552.49438	0.98079
1550.56582	0.97467
1548.63726	0.96716
1546.70869	0.95942
1544.78013	0.95249
1542.85156	0.94527
1540.92300	0.93340
1538.99443	0.91072
1537.06587	0.89282
1535.13730	0.88202
1533.20874	0.86868
1531.28018	0.85331
1529.35161	0.84229
1527.42305	0.83324
1525.49448	0.82400
1523.56592	0.81606
1521.63735	0.80847
1519.70879	0.79925
1517.78022	0.79086
1515.85166	0.78172
1513.92310	0.77198
1511.99453	0.76421
1510.06597	0.75882
1508.13740	0.75512
1506.20884	0.74616
1504.28027	0.73414
1502.35171	0.72714
1500.42314	0.72272
1498.49458	0.71926
1496.56602	0.71466
1494.63745	0.70854
1492.70889	0.70391
1490.78032	0.70146
1488.85176	0.69882
1486.92319	0.69413
1484.99463	0.68926
1483.06606	0.68589
1481.13750	0.68371
1479.20894	0.68207
1477.28037	0.68137
1475.35181	0.68185
1473.42324	0.68235
1471.49468	0.68003
1469.56611	0.67583
1467.63755	0.67283
1465.70898	0.67113
1463.78042	0.66930
1461.85186	0.66739
1459.92329	0.66708
1457.99473	0.66836
1456.06616	0.66714
1454.13760	0.66235
1452.20903	0.65833
1450.28047	0.65543
1448.35190	0.65301
1446.42334	0.65033
1444.49478	0.64755
1442.56621	0.64517
1440.63765	0.64315
1438.70908	0.64171
1436.78052	0.64033
1434.85195	0.63782
1432.92339	0.63510
1430.99482	0.63327
1429.06626	0.63186
1427.13770	0.63066
1425.20913	0.63020
1423.28057	0.63018
1421.35200	0.63013
1419.42344	0.63024
1417.49487	0.62919
1415.56631	0.62664
1413.63774	0.62459
1411.70918	0.62351
1409.78062	0.62290
1407.85205	0.62255
1405.92349	0.62259
1403.99492	0.62242
1402.06636	0.62166
1400.13779	0.62091
1398.20923	0.61994
1396.28066	0.61817
1394.35210	0.61529
1392.42354	0.61168
1390.49497	0.60867
1388.56641	0.60662
1386.63784	0.60423
1384.70928	0.60069
1382.78071	0.59729
1380.85215	0.59483
1378.92358	0.59310
1376.99502	0.59192
1375.06646	0.59120
1373.13789	0.59022
1371.20933	0.58892
1369.28076	0.58795
1367.35220	0.58699
1365.42363	0.58602
1363.49507	0.58541
1361.56650	0.58435
1359.63794	0.58243
1357.70937	0.58062
1355.78081	0.57929
1353.85225	0.57820
1351.92368	0.57730
1349.99512	0.57663
1348.06655	0.57582
1346.13799	0.57467
1344.20942	0.57358
1342.28086	0.57314
1340.35229	0.57330
1338.42373	0.57286
1336.49517	0.57131
1334.56660	0.56974
1332.63804	0.56878
1330.70947	0.56820
1328.78091	0.56788
1326.85234	0.56782
1324.92378	0.56787
1322.99521	0.56799
1321.06665	0.56826
1319.13809	0.56845
1317.20952	0.56818
1315.28096	0.56749
1313.35239	0.56666
1311.42383	0.56576
1309.49526	0.56485
1307.56670	0.56390
1305.63813	0.56290
1303.70957	0.56195
1301.78101	0.56112
1299.85244	0.56028
1297.92388	0.55941
1295.99531	0.55848
1294.06675	0.55740
1292.13818	0.55623
1290.20962	0.55516
1288.28105	0.55419
1286.35249	0.55327
1284.42393	0.55241
1282.49536	0.55151
1280.56680	0.55058
1278.63823	0.54975
1276.70967	0.54900
1274.78110	0.54831
1272.85254	0.54779
1270.92397	0.54734
1268.99541	0.54671
1267.06685	0.54595
1265.13828	0.54527
1263.20972	0.54473
1261.28115	0.54422
1259.35259	0.54359
1257.42402	0.54291
1255.49546	0.54245
1253.56689	0.54223
1251.63833	0.54211
1249.70977	0.54194
1247.78120	0.54165
1245.85264	0.54131
1243.92407	0.54094
1241.99551	0.54050
1240.06694	0.53990
1238.13838	0.53898
1236.20981	0.53778
1234.28125	0.53644
1232.35269	0.53505
1230.42412	0.53368
1228.49556	0.53230
1226.56699	0.53089
1224.63843	0.52960
1222.70986	0.52848
1220.78130	0.52748
1218.85273	0.52642
1216.92417	0.52537
1214.99561	0.52462
1213.06704	0.52410
1211.13848	0.52347
1209.20991	0.52271
1207.28135	0.52199
1205.35278	0.52135
1203.42422	0.52081
1201.49565	0.52027
1199.56709	0.51958
1197.63853	0.51883
1195.70996	0.51817
1193.78140	0.51757
1191.85283	0.51693
1189.92427	0.51635
1187.99570	0.51604
1186.06714	0.51582
1184.13857	0.51568
1182.21001	0.51589
1180.28145	0.51640
1178.35288	0.51712
1176.42432	0.51812
1174.49575	0.51924
1172.56719	0.52024
1170.63862	0.52095
1168.71006	0.52135
1166.78149	0.52171
1164.85293	0.52229
1162.92437	0.52294
1160.99580	0.52332
1159.06724	0.52331
1157.13867	0.52290
1155.21011	0.52223
1153.28154	0.52129
1151.35298	0.51987
1149.42441	0.51775
1147.49585	0.51509
1145.56729	0.51235
1143.63872	0.50985
1141.71016	0.50755
1139.78159	0.50531
1137.85303	0.50329
1135.92446	0.50186
1133.99590	0.50094
1132.06733	0.50011
1130.13877	0.49932
1128.21021	0.49871
1126.28164	0.49810
1124.35308	0.49734
1122.42451	0.49668
1120.49595	0.49634
1118.56738	0.49620
1116.63882	0.49624
1114.71025	0.49666
1112.78169	0.49737
1110.85312	0.49811
1108.92456	0.49897
1106.99600	0.49998
1105.06743	0.50088
1103.13887	0.50182
1101.21030	0.50307
1099.28174	0.50456
1097.35317	0.50638
1095.42461	0.50894
1093.49604	0.51250
1091.56748	0.51725
1089.63892	0.52332
1087.71035	0.53044
1085.78179	0.53830
1083.85322	0.54659
1081.92466	0.55437
1079.99609	0.56016
1078.06753	0.56310
1076.13896	0.56314
1074.21040	0.56040
1072.28184	0.55530
1070.35327	0.54861
1068.42471	0.54154
1066.49614	0.53485
1064.56758	0.52847
1062.63901	0.52265
1060.71045	0.51800
1058.78188	0.51425
1056.85332	0.51062
1054.92476	0.50702
1052.99619	0.50401
1051.06763	0.50193
1049.13906	0.50057
1047.21050	0.49979
1045.28193	0.49942
1043.35337	0.49930
1041.42480	0.49957
1039.49624	0.49997
1037.56768	0.50002
1035.63911	0.49982
1033.71055	0.49960
1031.78198	0.49920
1029.85342	0.49828
1027.92485	0.49690
1025.99629	0.49547
1024.06772	0.49442
1022.13916	0.49382
1020.21060	0.49336
1018.28203	0.49319
1016.35347	0.49351
1014.42490	0.49381
1012.49634	0.49367
1010.56777	0.49356
1008.63921	0.49398
1006.71064	0.49484
1004.78208	0.49585
1002.85352	0.49738
1000.92495	0.49990
998.99639	0.50320
997.06782	0.50705
995.13926	0.51131
993.21069	0.51543
991.28213	0.51877
989.35356	0.52093
987.42500	0.52181
985.49644	0.52190
983.56787	0.52193
981.63931	0.52240
979.71074	0.52348
977.78218	0.52513
975.85361	0.52725
973.92505	0.52974
971.99648	0.53265
970.06792	0.53609
968.13936	0.53981
966.21079	0.54367
964.28223	0.54791
962.35366	0.55267
960.42510	0.55784
958.49653	0.56332
956.56797	0.56921
954.63940	0.57564
952.71084	0.58230
950.78228	0.58856
948.85371	0.59438
946.92515	0.60030
944.99658	0.60656
943.06802	0.61279
941.13945	0.61874
939.21089	0.62491
937.28232	0.63121
935.35376	0.63685
933.42520	0.64206
931.49663	0.64729
929.56807	0.65266
927.63950	0.65851
925.71094	0.66483
923.78237	0.67153
921.85381	0.67855
919.92524	0.68581
917.99668	0.69317
916.06812	0.70038
914.13955	0.70756
912.21099	0.71518
910.28242	0.72346
908.35386	0.73193
906.42529	0.74030
904.49673	0.74854
902.56816	0.75712
900.63960	0.76714
898.71104	0.77747
896.78247	0.78657
894.85391	0.79572
892.92534	0.80621
890.99678	0.81676
889.06821	0.82644
887.13965	0.83728
885.21108	0.85039
883.28252	0.86339
881.35396	0.87442
879.42539	0.88462
877.49683	0.89527
875.56826	0.90686
873.63970	0.91959
871.71113	0.93218
869.78257	0.94306
867.85400	0.95362
865.92544	0.96577
863.99687	0.97775
862.06831	0.98801
860.13975	0.99842
858.21118	1.01104
856.28262	1.02513
854.35405	1.03740
852.42549	1.04684
850.49692	1.05736
848.56836	1.07035
846.63979	1.08264
844.71123	1.09428
842.78267	1.10537
840.85410	1.11419
838.92554	1.12322
836.99697	1.13457
835.06841	1.14515
833.13984	1.15480
831.21128	1.16803
829.28271	1.18479
827.35415	1.20195
825.42559	1.21879
823.49702	1.23262
821.56846	1.23876
819.63989	1.24358
817.71133	1.25437
815.78276	1.26396
813.85420	1.27137
811.92563	1.28325
809.99707	1.29125
808.06851	1.29487
806.13994	1.31221
804.21138	1.34191
802.28281	1.36768
800.35425	1.37579
798.42568	1.37587
796.49712	1.39500
794.56855	1.40634
792.63999	1.37529
790.71143	1.34270
788.78286	1.34342
786.85430	1.35470
784.92573	1.35944
782.99717	1.39397
781.06860	1.41737
779.14004	1.39338
777.21147	1.37556
775.28291	1.34157
773.35435	1.30115
771.42578	1.28141
769.49722	1.29505
767.56865	1.32657
765.64009	1.29912
763.71152	1.22763
761.78296	1.20323
759.85439	1.21443
757.92583	1.15488
755.99727	1.05424
754.06870	0.98949
752.14014	0.95531
750.21157	0.95142
748.28301	0.98323
746.35444	0.97075
744.42588	0.84149
742.49731	0.74206
740.56875	0.73426
738.64019	0.75266
736.71162	0.75676
734.78306	0.76139
732.85449	0.65278
730.92593	0.45634
728.99736	0.29524
727.06880	0.16017
725.14023	0.02352
723.21167	-0.06634
721.28311	-0.11642
719.35454	-0.17168
717.42598	-0.20354
715.49741	-0.18861
713.56885	-0.15112
711.64028	-0.16471
709.71172	-0.23560
707.78315	-0.20201
705.85459	-0.05904
703.92603	0.05249
701.99746	0.11741
700.06890	0.14283
698.14033	0.10032
696.21177	0.04822
694.28320	0.03622
692.35464	0.05082
690.42607	0.08632
688.49751	0.13139
686.56895	0.15436
684.64038	0.14034
682.71182	0.09668
680.78325	0.07397
678.85469	0.06421
676.92612	0.05706
674.99756	0.08927
673.06899	0.12454
671.14043	0.09641
669.21187	0.08717
667.28330	0.14127
665.35474	0.19308
663.42617	0.19433
661.49761	0.15965
659.56904	0.14065
657.64048	0.14856
655.71191	0.13953
653.78335	0.08579
651.85479	0.03348
649.92622	0.04475
647.99766	0.09767
646.06909	0.12015
644.14053	0.11703
642.21196	0.11393
640.28340	0.10439
638.35483	0.06454
636.42627	-0.00860
634.49771	-0.03422
632.56914	0.01790
630.64058	0.07425
628.71201	0.07217
626.78345	0.06327
624.85488	0.09103
622.92632	0.11163
620.99775	0.12403
619.06919	0.16261
617.14062	0.21791
615.21206	0.24617
613.28350	0.21354
611.35493	0.16565
609.42637	0.12869
607.49780	0.07585
605.56924	0.04584
603.64067	0.04270
601.71211	0.05090
599.78354	0.07468
597.85498	0.10167
595.92642	0.09441
593.99785	0.08054
592.06929	0.11026
590.14072	0.13139
588.21216	0.10808
586.28359	0.09964
584.35503	0.11692
582.42646	0.10885
580.49790	0.03941
578.56934	-0.04320
576.64077	-0.06040
574.71221	-0.00128
572.78364	0.08265
570.85508	0.11277
568.92651	0.09878
566.99795	0.08981
565.06938	0.11043
563.14082	0.15844
561.21226	0.17638
559.28369	0.12994
557.35513	0.09703
555.42656	0.10920
553.49800	0.12104
551.56943	0.12687
549.64087	0.14349
547.71230	0.15139
545.78374	0.13855
543.85518	0.12199
541.92661	0.12755
539.99805	0.13529
538.06948	0.12602
536.14092	0.13798
534.21235	0.17285
532.28379	0.19270
530.35522	0.19001
528.42666	0.16250
526.49810	0.14399
524.56953	0.16174
522.64097	0.16788
520.71240	0.12408
518.78384	0.07840
516.85527	0.07834
514.92671	0.11193
512.99814	0.11276
511.06958	0.06973
509.14102	0.04050
507.21245	0.03705
505.28389	0.03061
503.35532	0.03160
501.42676	0.05127
499.49819	0.07265
