3997.91411	0.07125
3995.98555	0.07164
3994.05698	0.07203
3992.12842	0.07222
3990.19985	0.07269
3988.27129	0.07330
3986.34272	0.07358
3984.41416	0.07379
3982.48560	0.07428
3980.55703	0.07466
3978.62847	0.07475
3976.69990	0.07507
3974.77134	0.07571
3972.84277	0.07629
3970.91421	0.07655
3968.98564	0.07642
3967.05708	0.07614
3965.12852	0.07606
3963.19995	0.07635
3961.27139	0.07697
3959.34282	0.07745
3957.41426	0.07741
3955.48569	0.07733
3953.55713	0.07777
3951.62856	0.07865
3949.70000	0.07957
3947.77144	0.07994
3945.84287	0.07969
3943.91431	0.07983
3941.98574	0.08020
3940.05718	0.07929
3938.12861	0.07766
3936.20005	0.07696
3934.27148	0.07781
3932.34292	0.07990
3930.41436	0.08153
3928.48579	0.08115
3926.55723	0.08046
3924.62866	0.08115
3922.70010	0.08137
3920.77153	0.08032
3918.84297	0.08010
3916.91440	0.08063
3914.98584	0.07989
3913.05728	0.07790
3911.12871	0.07648
3909.20015	0.07633
3907.27158	0.07753
3905.34302	0.08085
3903.41445	0.08573
3901.48589	0.08848
3899.55732	0.08753
3897.62876	0.08438
3895.70020	0.08103
3893.77163	0.08006
3891.84307	0.08193
3889.91450	0.08332
3887.98594	0.08239
3886.05737	0.08239
3884.12881	0.08386
3882.20024	0.08474
3880.27168	0.08498
3878.34312	0.08359
3876.41455	0.08189
3874.48599	0.08316
3872.55742	0.08649
3870.62886	0.08951
3868.70029	0.09071
3866.77173	0.08941
3864.84316	0.08916
3862.91460	0.08974
3860.98604	0.08761
3859.05747	0.08513
3857.12891	0.08577
3855.20034	0.09030
3853.27178	0.09820
3851.34321	0.10112
3849.41465	0.09485
3847.48608	0.08901
3845.55752	0.08729
3843.62896	0.08971
3841.70039	0.09421
3839.77183	0.09881
3837.84326	0.10224
3835.91470	0.10167
3833.98613	0.09824
3832.05757	0.09574
3830.12900	0.09466
3828.20044	0.09449
3826.27187	0.09533
3824.34331	0.09688
3822.41475	0.10016
3820.48618	0.10565
3818.55762	0.10759
3816.62905	0.10595
3814.70049	0.10392
3812.77192	0.10062
3810.84336	0.09842
3808.91479	0.09966
3806.98623	0.10411
3805.05767	0.10803
3803.12910	0.11033
3801.20054	0.11400
3799.27197	0.11555
3797.34341	0.11369
3795.41484	0.11193
3793.48628	0.10988
3791.55771	0.10835
3789.62915	0.10856
3787.70059	0.11030
3785.77202	0.11336
3783.84346	0.11632
3781.91489	0.11798
3779.98633	0.11993
3778.05776	0.12217
3776.12920	0.12228
3774.20063	0.12192
3772.27207	0.12386
3770.34351	0.12846
3768.41494	0.13303
3766.48638	0.13495
3764.55781	0.13575
3762.62925	0.13644
3760.70068	0.13852
3758.77212	0.14312
3756.84355	0.14739
3754.91499	0.15007
3752.98643	0.15489
3751.05786	0.16408
3749.12930	0.17232
3747.20073	0.17410
3745.27217	0.17585
3743.34360	0.18063
3741.41504	0.18445
3739.48647	0.18842
3737.55791	0.19640
3735.62935	0.20911
3733.70078	0.22091
3731.77222	0.22520
3729.84365	0.22689
3727.91509	0.23094
3725.98652	0.23779
3724.05796	0.24436
3722.12939	0.24796
3720.20083	0.24940
3718.27227	0.24955
3716.34370	0.25016
3714.41514	0.25449
3712.48657	0.26686
3710.55801	0.28840
3708.62944	0.30713
3706.70088	0.31688
3704.77231	0.32580
3702.84375	0.33845
3700.91519	0.35511
3698.98662	0.37221
3697.05806	0.38812
3695.12949	0.40549
3693.20093	0.42516
3691.27236	0.44825
3689.34380	0.47708
3687.41523	0.50792
3685.48667	0.53272
3683.55811	0.55512
3681.62954	0.58142
3679.70098	0.61304
3677.77241	0.64841
3675.84385	0.69191
3673.91528	0.74644
3671.98672	0.78687
3670.05815	0.82345
3668.12959	0.87413
3666.20103	0.91788
3664.27246	0.95437
3662.34390	0.99613
3660.41533	1.04346
3658.48677	1.09119
3656.55820	1.14213
3654.62964	1.19771
3652.70107	1.24415
3650.77251	1.28807
3648.84395	1.35093
3646.91538	1.42001
3644.98682	1.46399
3643.05825	1.49891
3641.12969	1.53840
3639.20112	1.58361
3637.27256	1.62972
3635.34399	1.67540
3633.41543	1.72194
3631.48687	1.76614
3629.55830	1.81128
3627.62974	1.86796
3625.70117	1.91672
3623.77261	1.94816
3621.84404	1.97954
3619.91548	2.01691
3617.98691	2.06244
3616.05835	2.10541
3614.12979	2.13999
3612.20122	2.17643
3610.27266	2.21563
3608.34409	2.25829
3606.41553	2.30272
3604.48696	2.34052
3602.55840	2.37480
3600.62983	2.41494
3598.70127	2.45821
3596.77271	2.49783
3594.84414	2.53759
3592.91558	2.57899
3590.98701	2.61675
3589.05845	2.65248
3587.12988	2.69654
3585.20132	2.74293
3583.27275	2.77921
3581.34419	2.81196
3579.41562	2.84863
3577.48706	2.89024
3575.55850	2.93402
3573.62993	2.97826
3571.70137	3.02062
3569.77280	3.06213
3567.84424	3.10869
3565.91567	3.16413
3563.98711	3.21274
3562.05854	3.25170
3560.12998	3.29331
3558.20142	3.33789
3556.27285	3.38266
3554.34429	3.42716
3552.41572	3.47396
3550.48716	3.52115
3548.55859	3.56563
3546.63003	3.60968
3544.70146	3.65620
3542.77290	3.70383
3540.84434	3.75031
3538.91577	3.79647
3536.98721	3.84410
3535.05864	3.89419
3533.13008	3.94269
3531.20151	3.98934
3529.27295	4.03713
3527.34438	4.08719
3525.41582	4.13534
3523.48726	4.18092
3521.55869	4.23101
3519.63013	4.28266
3517.70156	4.33012
3515.77300	4.37443
3513.84443	4.41933
3511.91587	4.46762
3509.98730	4.52099
3508.05874	4.57395
3506.13018	4.62078
3504.20161	4.66912
3502.27305	4.72287
3500.34448	4.77411
3498.41592	4.81809
3496.48735	4.86127
3494.55879	4.91393
3492.63022	4.97207
3490.70166	5.02111
3488.77310	5.06211
3486.84453	5.10706
3484.91597	5.15887
3482.98740	5.20897
3481.05884	5.25458
3479.13027	5.30398
3477.20171	5.35800
3475.27314	5.41238
3473.34458	5.46635
3471.41602	5.51498
3469.48745	5.55714
3467.55889	5.60130
3465.63032	5.65480
3463.70176	5.70936
3461.77319	5.74942
3459.84463	5.78342
3457.91606	5.82106
3455.98750	5.87027
3454.05894	5.94078
3452.13037	6.01399
3450.20181	6.07082
3448.27324	6.11803
3446.34468	6.16413
3444.41611	6.20572
3442.48755	6.25805
3440.55898	6.32682
3438.63042	6.38279
3436.70186	6.41779
3434.77329	6.45376
3432.84473	6.49327
3430.91616	6.53460
3428.98760	6.58749
3427.05903	6.64013
3425.13047	6.70305
3423.20190	6.78804
3421.27334	6.87088
3419.34478	6.93383
3417.41621	6.98823
3415.48765	7.03022
3413.55908	7.04768
3411.63052	7.08185
3409.70195	7.14209
3407.77339	7.18622
3405.84482	7.19923
3403.91626	7.22935
3401.98770	7.30877
3400.05913	7.40897
3398.13057	7.48632
3396.20200	7.52725
3394.27344	7.56340
3392.34487	7.59486
3390.41631	7.62622
3388.48774	7.66624
3386.55918	7.71168
3384.63062	7.75309
3382.70205	7.77099
3380.77349	7.77168
3378.84492	7.76411
3376.91636	7.77791
3374.98779	7.86002
3373.05923	7.96488
3371.13066	7.98303
3369.20210	7.98032
3367.27354	8.02510
3365.34497	8.06832
3363.41641	8.09288
3361.48784	8.07819
3359.55928	8.02392
3357.63071	8.02607
3355.70215	8.12610
3353.77358	8.23077
3351.84502	8.29543
3349.91646	8.30889
3347.98789	8.29126
3346.05933	8.28440
3344.13076	8.29922
3342.20220	8.31765
3340.27363	8.27342
3338.34507	8.22485
3336.41650	8.26259
3334.48794	8.38157
3332.55937	8.48381
3330.63081	8.47935
3328.70225	8.41654
3326.77368	8.41880
3324.84512	8.47479
3322.91655	8.47335
3320.98799	8.45542
3319.05942	8.47599
3317.13086	8.50635
3315.20229	8.50447
3313.27373	8.49807
3311.34517	8.51577
3309.41660	8.52883
3307.48804	8.49891
3305.55947	8.47906
3303.63091	8.52823
3301.70234	8.53959
3299.77378	8.49599
3297.84521	8.49232
3295.91665	8.55691
3293.98809	8.56385
3292.05952	8.43622
3290.13096	8.37328
3288.20239	8.47679
3286.27383	8.62557
3284.34526	8.68748
3282.41670	8.61950
3280.48813	8.47288
3278.55957	8.42486
3276.63101	8.50609
3274.70244	8.59907
3272.77388	8.63859
3270.84531	8.64096
3268.91675	8.64143
3266.98818	8.63440
3265.05962	8.64960
3263.13105	8.68498
3261.20249	8.68828
3259.27393	8.64707
3257.34536	8.59596
3255.41680	8.55061
3253.48823	8.52082
3251.55967	8.54700
3249.63110	8.62089
3247.70254	8.64295
3245.77397	8.58587
3243.84541	8.55773
3241.91685	8.56308
3239.98828	8.58296
3238.05972	8.61611
3236.13115	8.64074
3234.20259	8.64175
3232.27402	8.61149
3230.34546	8.60947
3228.41689	8.56700
3226.48833	8.45301
3224.55977	8.43585
3222.63120	8.53470
3220.70264	8.54309
3218.77407	8.40350
3216.84551	8.29455
3214.91694	8.26429
3212.98838	8.24750
3211.05981	8.22635
3209.13125	8.25730
3207.20269	8.37622
3205.27412	8.44606
3203.34556	8.32048
3201.41699	8.14455
3199.48843	8.03785
3197.55986	7.96655
3195.63130	7.95129
3193.70273	7.97094
3191.77417	7.90137
3189.84561	7.76186
3187.91704	7.65716
3185.98848	7.61796
3184.05991	7.63092
3182.13135	7.65468
3180.20278	7.62228
3178.27422	7.52356
3176.34565	7.43747
3174.41709	7.38802
3172.48853	7.34698
3170.55996	7.29383
3168.63140	7.21850
3166.70283	7.15430
3164.77427	7.11276
3162.84570	7.05580
3160.91714	6.97579
3158.98857	6.90951
3157.06001	6.85204
3155.13145	6.76967
3153.20288	6.67477
3151.27432	6.58102
3149.34575	6.48168
3147.41719	6.38998
3145.48862	6.32170
3143.56006	6.26657
3141.63149	6.20618
3139.70293	6.13613
3137.77437	6.06054
3135.84580	5.97981
3133.91724	5.89728
3131.98867	5.82140
3130.06011	5.75491
3128.13154	5.68698
3126.20298	5.61290
3124.27441	5.53986
3122.34585	5.46206
3120.41729	5.38079
3118.48872	5.30414
3116.56016	5.22629
3114.63159	5.14916
3112.70303	5.07878
3110.77446	5.00918
3108.84590	4.93888
3106.91733	4.87189
3104.98877	4.80448
3103.06021	4.73495
3101.13164	4.66464
3099.20308	4.59283
3097.27451	4.52142
3095.34595	4.45177
3093.41738	4.38341
3091.48882	4.31670
3089.56025	4.25060
3087.63169	4.18349
3085.70312	4.11601
3083.77456	4.04934
3081.84600	3.98530
3079.91743	3.92372
3077.98887	3.86204
3076.06030	3.79984
3074.13174	3.73791
3072.20317	3.67749
3070.27461	3.61837
3068.34604	3.55842
3066.41748	3.49807
3064.48892	3.44026
3062.56035	3.38445
3060.63179	3.32791
3058.70322	3.27134
3056.77466	3.21623
3054.84609	3.16173
3052.91753	3.10707
3050.98896	3.05335
3049.06040	3.00160
3047.13184	2.95096
3045.20327	2.90071
3043.27471	2.85056
3041.34614	2.80109
3039.41758	2.75365
3037.48901	2.70700
3035.56045	2.65967
3033.63188	2.61277
3031.70332	2.56701
3029.77476	2.52171
3027.84619	2.47702
3025.91763	2.43366
3023.98906	2.39076
3022.06050	2.34761
3020.13193	2.30558
3018.20337	2.26541
3016.27480	2.22613
3014.34624	2.18709
3012.41768	2.14830
3010.48911	2.10987
3008.56055	2.07217
3006.63198	2.03515
3004.70342	1.99865
3002.77485	1.96280
3000.84629	1.92742
2998.91772	1.89241
2996.98916	1.85824
2995.06060	1.82508
2993.13203	1.79258
2991.20347	1.76058
2989.27490	1.72882
2987.34634	1.69706
2985.41777	1.66569
2983.48921	1.63528
2981.56064	1.60562
2979.63208	1.57619
2977.70352	1.54707
2975.77495	1.51817
2973.84639	1.48929
2971.91782	1.46092
2969.98926	1.43343
2968.06069	1.40671
2966.13213	1.38067
2964.20356	1.35486
2962.27500	1.32947
2960.34644	1.30514
2958.41787	1.28163
2956.48931	1.25869
2954.56074	1.23602
2952.63218	1.21312
2950.70361	1.19058
2948.77505	1.16923
2946.84648	1.14810
2944.91792	1.12619
2942.98936	1.10457
2941.06079	1.08418
2939.13223	1.06443
2937.20366	1.04482
2935.27510	1.02543
2933.34653	1.00632
2931.41797	0.98738
2929.48940	0.96869
2927.56084	0.95104
2925.63228	0.93457
2923.70371	0.91882
2921.77515	0.90323
2919.84658	0.88724
2917.91802	0.87127
2915.98945	0.85614
2914.06089	0.84135
2912.13232	0.82618
2910.20376	0.81110
2908.27520	0.79668
2906.34663	0.78304
2904.41807	0.76978
2902.48950	0.75654
2900.56094	0.74375
2898.63237	0.73143
2896.70381	0.71911
2894.77524	0.70684
2892.84668	0.69490
2890.91812	0.68341
2888.98955	0.67216
2887.06099	0.66102
2885.13242	0.64998
2883.20386	0.63873
2881.27529	0.62748
2879.34673	0.61664
2877.41816	0.60616
2875.48960	0.59591
2873.56104	0.58562
2871.63247	0.57534
2869.70391	0.56539
2867.77534	0.55582
2865.84678	0.54638
2863.91821	0.53677
2861.98965	0.52700
2860.06108	0.51731
2858.13252	0.50774
2856.20396	0.49877
2854.27539	0.49095
2852.34683	0.48380
2850.41826	0.47670
2848.48970	0.46949
2846.56113	0.46203
2844.63257	0.45435
2842.70400	0.44687
2840.77544	0.44004
2838.84687	0.43387
2836.91831	0.42796
2834.98975	0.42197
2833.06118	0.41589
2831.13262	0.40981
2829.20405	0.40387
2827.27549	0.39813
2825.34692	0.39247
2823.41836	0.38675
2821.48979	0.38090
2819.56123	0.37493
2817.63267	0.36912
2815.70410	0.36360
2813.77554	0.35836
2811.84697	0.35338
2809.91841	0.34827
2807.98984	0.34284
2806.06128	0.33763
2804.13271	0.33290
2802.20415	0.32816
2800.27559	0.32328
2798.34702	0.31859
2796.41846	0.31422
2794.48989	0.31007
2792.56133	0.30593
2790.63276	0.30172
2788.70420	0.29744
2786.77563	0.29324
2784.84707	0.28916
2782.91851	0.28505
2780.98994	0.28100
2779.06138	0.27717
2777.13281	0.27354
2775.20425	0.27011
2773.27568	0.26677
2771.34712	0.26336
2769.41855	0.25998
2767.48999	0.25660
2765.56143	0.25315
2763.63286	0.24989
2761.70430	0.24696
2759.77573	0.24408
2757.84717	0.24113
2755.91860	0.23826
2753.99004	0.23549
2752.06147	0.23276
2750.13291	0.23013
2748.20435	0.22751
2746.27578	0.22484
2744.34722	0.22232
2742.41865	0.21992
2740.49009	0.21746
2738.56152	0.21507
2736.63296	0.21280
2734.70439	0.21046
2732.77583	0.20816
2730.84727	0.20613
2728.91870	0.20430
2726.99014	0.20256
2725.06157	0.20064
2723.13301	0.19849
2721.20444	0.19643
2719.27588	0.19450
2717.34731	0.19270
2715.41875	0.19118
2713.49019	0.18968
2711.56162	0.18793
2709.63306	0.18613
2707.70449	0.18448
2705.77593	0.18292
2703.84736	0.18132
2701.91880	0.17968
2699.99023	0.17806
2698.06167	0.17651
2696.13311	0.17511
2694.20454	0.17380
2692.27598	0.17250
2690.34741	0.17128
2688.41885	0.17009
2686.49028	0.16880
2684.56172	0.16754
2682.63315	0.16643
2680.70459	0.16542
2678.77603	0.16439
2676.84746	0.16325
2674.91890	0.16209
2672.99033	0.16113
2671.06177	0.16034
2669.13320	0.15951
2667.20464	0.15858
2665.27607	0.15767
2663.34751	0.15676
2661.41895	0.15582
2659.49038	0.15500
2657.56182	0.15431
2655.63325	0.15367
2653.70469	0.15302
2651.77612	0.15229
2649.84756	0.15154
2647.91899	0.15099
2645.99043	0.15053
2644.06187	0.14995
2642.13330	0.14942
2640.20474	0.14899
2638.27617	0.14854
2636.34761	0.14816
2634.41904	0.14779
2632.49048	0.14742
2630.56191	0.14716
2628.63335	0.14693
2626.70479	0.14667
2624.77622	0.14651
2622.84766	0.14639
2620.91909	0.14621
2618.99053	0.14602
2617.06196	0.14573
2615.13340	0.14538
2613.20483	0.14517
2611.27627	0.14502
2609.34771	0.14498
2607.41914	0.14512
2605.49058	0.14529
2603.56201	0.14537
2601.63345	0.14541
2599.70488	0.14557
2597.77632	0.14582
2595.84775	0.14596
2593.91919	0.14605
2591.99062	0.14623
2590.06206	0.14650
2588.13350	0.14675
2586.20493	0.14697
2584.27637	0.14724
2582.34780	0.14753
2580.41924	0.14783
2578.49067	0.14813
2576.56211	0.14841
2574.63354	0.14875
2572.70498	0.14928
2570.77642	0.14988
2568.84785	0.15039
2566.91929	0.15076
2564.99072	0.15109
2563.06216	0.15154
2561.13359	0.15209
2559.20503	0.15262
2557.27646	0.15318
2555.34790	0.15373
2553.41934	0.15423
2551.49077	0.15474
2549.56221	0.15531
2547.63364	0.15598
2545.70508	0.15665
2543.77651	0.15730
2541.84795	0.15803
2539.91938	0.15883
2537.99082	0.15959
2536.06226	0.16032
2534.13369	0.16111
2532.20513	0.16197
2530.27656	0.16279
2528.34800	0.16350
2526.41943	0.16415
2524.49087	0.16486
2522.56230	0.16563
2520.63374	0.16635
2518.70518	0.16706
2516.77661	0.16794
2514.84805	0.16893
2512.91948	0.16981
2510.99092	0.17055
2509.06235	0.17133
2507.13379	0.17219
2505.20522	0.17301
2503.27666	0.17385
2501.34810	0.17478
2499.41953	0.17571
2497.49097	0.17657
2495.56240	0.17744
2493.63384	0.17837
2491.70527	0.17936
2489.77671	0.18029
2487.84814	0.18110
2485.91958	0.18193
2483.99102	0.18288
2482.06245	0.18384
2480.13389	0.18479
2478.20532	0.18579
2476.27676	0.18673
2474.34819	0.18754
2472.41963	0.18834
2470.49106	0.18930
2468.56250	0.19034
2466.63394	0.19126
2464.70537	0.19215
2462.77681	0.19316
2460.84824	0.19428
2458.91968	0.19547
2456.99111	0.19659
2455.06255	0.19759
2453.13398	0.19857
2451.20542	0.19953
2449.27686	0.20044
2447.34829	0.20132
2445.41973	0.20228
2443.49116	0.20338
2441.56260	0.20452
2439.63403	0.20561
2437.70547	0.20666
2435.77690	0.20775
2433.84834	0.20884
2431.91978	0.20996
2429.99121	0.21107
2428.06265	0.21211
2426.13408	0.21312
2424.20552	0.21419
2422.27695	0.21534
2420.34839	0.21649
2418.41982	0.21761
2416.49126	0.21876
2414.56270	0.21996
2412.63413	0.22117
2410.70557	0.22231
2408.77700	0.22346
2406.84844	0.22474
2404.91987	0.22602
2402.99131	0.22722
2401.06274	0.22850
2399.13418	0.22983
2397.20562	0.23111
2395.27705	0.23230
2393.34849	0.23350
2391.41992	0.23498
2389.49136	0.23722
2387.56279	0.24098
2385.63423	0.24744
2383.70566	0.25797
2381.77710	0.27314
2379.84854	0.29222
2377.91997	0.31427
2375.99141	0.33958
2374.06284	0.36902
2372.13428	0.40216
2370.20571	0.43717
2368.27715	0.47246
2366.34858	0.50675
2364.42002	0.53732
2362.49146	0.55988
2360.56289	0.57151
2358.63433	0.57167
2356.70576	0.55808
2354.77720	0.52998
2352.84863	0.49238
2350.92007	0.45396
2348.99150	0.43046
2347.06294	0.43114
2345.13437	0.45581
2343.20581	0.48908
2341.27725	0.50635
2339.34868	0.50700
2337.42012	0.50265
2335.49155	0.49791
2333.56299	0.49291
2331.63442	0.48847
2329.70586	0.48351
2327.77729	0.47640
2325.84873	0.46667
2323.92017	0.45525
2321.99160	0.44281
2320.06304	0.42920
2318.13447	0.41526
2316.20591	0.40296
2314.27734	0.39401
2312.34878	0.38823
2310.42021	0.38308
2308.49165	0.37615
2306.56309	0.36762
2304.63452	0.35975
2302.70596	0.35460
2300.77739	0.35166
2298.84883	0.34909
2296.92026	0.34652
2294.99170	0.34419
2293.06313	0.34192
2291.13457	0.33973
2289.20601	0.33763
2287.27744	0.33556
2285.34888	0.33376
2283.42031	0.33303
2281.49175	0.33424
2279.56318	0.33715
2277.63462	0.34054
2275.70605	0.34356
2273.77749	0.34608
2271.84893	0.34834
2269.92036	0.35041
2267.99180	0.35217
2266.06323	0.35369
2264.13467	0.35521
2262.20610	0.35677
2260.27754	0.35831
2258.34897	0.35981
2256.42041	0.36127
2254.49185	0.36274
2252.56328	0.36425
2250.63472	0.36570
2248.70615	0.36716
2246.77759	0.36880
2244.84902	0.37062
2242.92046	0.37249
2240.99189	0.37437
2239.06333	0.37637
2237.13477	0.37852
2235.20620	0.38069
2233.27764	0.38277
2231.34907	0.38478
2229.42051	0.38689
2227.49194	0.38916
2225.56338	0.39150
2223.63481	0.39384
2221.70625	0.39613
2219.77769	0.39837
2217.84912	0.40057
2215.92056	0.40270
2213.99199	0.40478
2212.06343	0.40691
2210.13486	0.40903
2208.20630	0.41115
2206.27773	0.41338
2204.34917	0.41557
2202.42061	0.41755
2200.49204	0.41953
2198.56348	0.42162
2196.63491	0.42364
2194.70635	0.42552
2192.77778	0.42740
2190.84922	0.42936
2188.92065	0.43121
2186.99209	0.43295
2185.06353	0.43477
2183.13496	0.43666
2181.20640	0.43849
2179.27783	0.44021
2177.34927	0.44182
2175.42070	0.44337
2173.49214	0.44483
2171.56357	0.44625
2169.63501	0.44773
2167.70645	0.44909
2165.77788	0.45029
2163.84932	0.45147
2161.92075	0.45265
2159.99219	0.45384
2158.06362	0.45503
2156.13506	0.45610
2154.20649	0.45697
2152.27793	0.45771
2150.34937	0.45839
2148.42080	0.45906
2146.49224	0.45967
2144.56367	0.46015
2142.63511	0.46060
2140.70654	0.46106
2138.77798	0.46140
2136.84941	0.46155
2134.92085	0.46166
2132.99229	0.46171
2131.06372	0.46161
2129.13516	0.46136
2127.20659	0.46107
2125.27803	0.46075
2123.34946	0.46030
2121.42090	0.45979
2119.49233	0.45921
2117.56377	0.45856
2115.63521	0.45785
2113.70664	0.45706
2111.77808	0.45620
2109.84951	0.45530
2107.92095	0.45433
2105.99238	0.45323
2104.06382	0.45203
2102.13525	0.45073
2100.20669	0.44935
2098.27812	0.44792
2096.34956	0.44643
2094.42100	0.44485
2092.49243	0.44325
2090.56387	0.44163
2088.63530	0.43989
2086.70674	0.43808
2084.77817	0.43626
2082.84961	0.43438
2080.92104	0.43244
2078.99248	0.43048
2077.06392	0.42841
2075.13535	0.42618
2073.20679	0.42398
2071.27822	0.42178
2069.34966	0.41952
2067.42109	0.41729
2065.49253	0.41514
2063.56396	0.41276
2061.63540	0.41019
2059.70684	0.40770
2057.77827	0.40527
2055.84971	0.40274
2053.92114	0.40010
2051.99258	0.39740
2050.06401	0.39472
2048.13545	0.39205
2046.20688	0.38939
2044.27832	0.38686
2042.34976	0.38436
2040.42119	0.38163
2038.49263	0.37871
2036.56406	0.37578
2034.63550	0.37291
2032.70693	0.37011
2030.77837	0.36733
2028.84980	0.36450
2026.92124	0.36170
2024.99268	0.35899
2023.06411	0.35638
2021.13555	0.35385
2019.20698	0.35134
2017.27842	0.34875
2015.34985	0.34580
2013.42129	0.34267
2011.49272	0.33973
2009.56416	0.33699
2007.63560	0.33430
2005.70703	0.33163
2003.77847	0.32896
2001.84990	0.32636
1999.92134	0.32381
1997.99277	0.32116
1996.06421	0.31842
1994.13564	0.31606
1992.20708	0.31410
1990.27852	0.31177
1988.34995	0.30895
1986.42139	0.30613
1984.49282	0.30356
1982.56426	0.30121
1980.63569	0.29895
1978.70713	0.29667
1976.77856	0.29441
1974.85000	0.29219
1972.92144	0.28990
1970.99287	0.28772
1969.06431	0.28595
1967.13574	0.28433
1965.20718	0.28224
1963.27861	0.27985
1961.35005	0.27763
1959.42148	0.27564
1957.49292	0.27382
1955.56436	0.27202
1953.63579	0.27017
1951.70723	0.26842
1949.77866	0.26685
1947.85010	0.26536
1945.92153	0.26408
1943.99297	0.26323
1942.06440	0.26226
1940.13584	0.26044
1938.20728	0.25832
1936.27871	0.25657
1934.35015	0.25515
1932.42158	0.25394
1930.49302	0.25276
1928.56445	0.25162
1926.63589	0.25068
1924.70732	0.25019
1922.77876	0.24977
1920.85020	0.24884
1918.92163	0.24784
1916.99307	0.24675
1915.06450	0.24526
1913.13594	0.24414
1911.20737	0.24378
1909.27881	0.24357
1907.35024	0.24284
1905.42168	0.24171
1903.49312	0.24077
1901.56455	0.24014
1899.63599	0.23962
1897.70742	0.23925
1895.77886	0.23916
1893.85029	0.23892
1891.92173	0.23850
1889.99316	0.23847
1888.06460	0.23832
1886.13604	0.23771
1884.20747	0.23718
1882.27891	0.23682
1880.35034	0.23658
1878.42178	0.23644
1876.49321	0.23641
1874.56465	0.23651
1872.63608	0.23700
1870.70752	0.23824
1868.77896	0.23996
1866.85039	0.24020
1864.92183	0.23892
1862.99326	0.23815
1861.06470	0.23824
1859.13613	0.23866
1857.20757	0.23905
1855.27900	0.23937
1853.35044	0.23963
1851.42187	0.24013
1849.49331	0.24107
1847.56475	0.24244
1845.63618	0.24421
1843.70762	0.24581
1841.77905	0.24588
1839.85049	0.24535
1837.92192	0.24578
1835.99336	0.24671
1834.06479	0.24760
1832.13623	0.24905
1830.20767	0.25155
1828.27910	0.25353
1826.35054	0.25434
1824.42197	0.25520
1822.49341	0.25576
1820.56484	0.25632
1818.63628	0.25752
1816.70771	0.25920
1814.77915	0.26095
1812.85059	0.26310
1810.92202	0.26573
1808.99346	0.26793
1807.06489	0.26949
1805.13633	0.27114
1803.20776	0.27359
1801.27920	0.27675
1799.35063	0.27989
1797.42207	0.28234
1795.49351	0.28490
1793.56494	0.28849
1791.63638	0.29270
1789.70781	0.29526
1787.77925	0.29663
1785.85068	0.29933
1783.92212	0.30324
1781.99355	0.30764
1780.06499	0.31219
1778.13643	0.31647
1776.20786	0.32070
1774.27930	0.32614
1772.35073	0.33352
1770.42217	0.33990
1768.49360	0.34388
1766.56504	0.34780
1764.63647	0.35264
1762.70791	0.35887
1760.77935	0.36673
1758.85078	0.37375
1756.92222	0.38078
1754.99365	0.38831
1753.06509	0.39555
1751.13652	0.40529
1749.20796	0.41749
1747.27939	0.42807
1745.35083	0.43653
1743.42227	0.44573
1741.49370	0.45630
1739.56514	0.46891
1737.63657	0.48153
1735.70801	0.49323
1733.77944	0.51123
1731.85088	0.53077
1729.92231	0.54469
1727.99375	0.55901
1726.06519	0.57522
1724.13662	0.59384
1722.20806	0.61431
1720.27949	0.63369
1718.35093	0.65738
1716.42236	0.69121
1714.49380	0.72061
1712.56523	0.74324
1710.63667	0.76595
1708.70811	0.79155
1706.77954	0.82151
1704.85098	0.85705
1702.92241	0.88815
1700.99385	0.91913
1699.06528	0.96516
1697.13672	1.00585
1695.20815	1.04520
1693.27959	1.08285
1691.35103	1.11410
1689.42246	1.15121
1687.49390	1.19013
1685.56533	1.22765
1683.63677	1.28440
1681.70820	1.34068
1679.77964	1.37621
1677.85107	1.41124
1675.92251	1.45199
1673.99395	1.50158
1672.06538	1.54523
1670.13682	1.58820
1668.20825	1.64178
1666.27969	1.68267
1664.35112	1.71717
1662.42256	1.76113
1660.49399	1.81002
1658.56543	1.84748
1656.63687	1.87889
1654.70830	1.91168
1652.77974	1.96854
1650.85117	2.02114
1648.92261	2.04208
1646.99404	2.07135
1645.06548	2.10290
1643.13691	2.12232
1641.20835	2.13502
1639.27979	2.14749
1637.35122	2.15883
1635.42266	2.16662
1633.49409	2.16182
1631.56553	2.14773
1629.63696	2.13329
1627.70840	2.11199
1625.77983	2.08621
1623.85127	2.05285
1621.92271	2.01039
1619.99414	1.97025
1618.06558	1.93082
1616.13701	1.87426
1614.20845	1.81379
1612.27988	1.76693
1610.35132	1.71940
1608.42275	1.66832
1606.49419	1.61733
1604.56562	1.56988
1602.63706	1.52375
1600.70850	1.47801
1598.77993	1.43532
1596.85137	1.39516
1594.92280	1.35657
1592.99424	1.31948
1591.06567	1.28521
1589.13711	1.25272
1587.20854	1.22204
1585.27998	1.19304
1583.35142	1.16533
1581.42285	1.13985
1579.49429	1.11829
1577.56572	1.09918
1575.63716	1.07430
1573.70859	1.04977
1571.78003	1.03311
1569.85146	1.01593
1567.92290	0.99506
1565.99434	0.97726
1564.06577	0.96236
1562.13721	0.95083
1560.20864	0.94295
1558.28008	0.92718
1556.35151	0.90728
1554.42295	0.89376
1552.49438	0.88121
1550.56582	0.86946
1548.63726	0.85815
1546.70869	0.84881
1544.78013	0.84178
1542.85156	0.83620
1540.92300	0.82988
1538.99443	0.81596
1537.06587	0.80289
1535.13730	0.79553
1533.20874	0.78823
1531.28018	0.77955
1529.35161	0.77283
1527.42305	0.76744
1525.49448	0.76218
1523.56592	0.75774
1521.63735	0.75337
1519.70879	0.74675
1517.78022	0.74004
1515.85166	0.73320
1513.92310	0.72644
1511.99453	0.72177
1510.06597	0.71944
1508.13740	0.71895
1506.20884	0.71442
1504.28027	0.70513
1502.35171	0.69928
1500.42314	0.69605
1498.49458	0.69394
1496.56602	0.69084
1494.63745	0.68635
1492.70889	0.68317
1490.78032	0.68203
1488.85176	0.68042
1486.92319	0.67613
1484.99463	0.67136
1483.06606	0.66784
1481.13750	0.66526
1479.20894	0.66303
1477.28037	0.66158
1475.35181	0.66113
1473.42324	0.66060
1471.49468	0.65730
1469.56611	0.65240
1467.63755	0.64929
1465.70898	0.64788
1463.78042	0.64612
1461.85186	0.64393
1459.92329	0.64341
1457.99473	0.64459
1456.06616	0.64325
1454.13760	0.63849
1452.20903	0.63470
1450.28047	0.63226
1448.35190	0.63057
1446.42334	0.62847
1444.49478	0.62599
1442.56621	0.62408
1440.63765	0.62286
1438.70908	0.62239
1436.78052	0.62221
1434.85195	0.62088
1432.92339	0.61902
1430.99482	0.61776
1429.06626	0.61645
1427.13770	0.61491
1425.20913	0.61401
1423.28057	0.61351
1421.35200	0.61289
1419.42344	0.61250
1417.49487	0.61105
1415.56631	0.60799
1413.63774	0.60521
1411.70918	0.60310
1409.78062	0.60114
1407.85205	0.59937
1405.92349	0.59808
1403.99492	0.59657
1402.06636	0.59474
1400.13779	0.59365
1398.20923	0.59307
1396.28066	0.59192
1394.35210	0.58993
1392.42354	0.58747
1390.49497	0.58562
1388.56641	0.58491
1386.63784	0.58425
1384.70928	0.58272
1382.78071	0.58124
1380.85215	0.58041
1378.92358	0.58011
1376.99502	0.58018
1375.06646	0.58040
1373.13789	0.57991
1371.20933	0.57879
1369.28076	0.57795
1367.35220	0.57717
1365.42363	0.57639
1363.49507	0.57593
1361.56650	0.57508
1359.63794	0.57347
1357.70937	0.57192
1355.78081	0.57067
1353.85225	0.56947
1351.92368	0.56822
1349.99512	0.56703
1348.06655	0.56589
1346.13799	0.56472
1344.20942	0.56364
1342.28086	0.56293
1340.35229	0.56271
1338.42373	0.56200
1336.49517	0.56029
1334.56660	0.55859
1332.63804	0.55751
1330.70947	0.55672
1328.78091	0.55580
1326.85234	0.55484
1324.92378	0.55407
1322.99521	0.55350
1321.06665	0.55320
1319.13809	0.55293
1317.20952	0.55216
1315.28096	0.55102
1313.35239	0.54990
1311.42383	0.54871
1309.49526	0.54740
1307.56670	0.54619
1305.63813	0.54508
1303.70957	0.54393
1301.78101	0.54284
1299.85244	0.54189
1297.92388	0.54106
1295.99531	0.54027
1294.06675	0.53944
1292.13818	0.53867
1290.20962	0.53804
1288.28105	0.53753
1286.35249	0.53701
1284.42393	0.53637
1282.49536	0.53570
1280.56680	0.53508
1278.63823	0.53449
1276.70967	0.53397
1274.78110	0.53349
1272.85254	0.53300
1270.92397	0.53254
1268.99541	0.53215
1267.06685	0.53176
1265.13828	0.53124
1263.20972	0.53071
1261.28115	0.53034
1259.35259	0.53000
1257.42402	0.52957
1255.49546	0.52914
1253.56689	0.52866
1251.63833	0.52811
1249.70977	0.52772
1247.78120	0.52755
1245.85264	0.52732
1243.92407	0.52685
1241.99551	0.52625
1240.06694	0.52568
1238.13838	0.52515
1236.20981	0.52448
1234.28125	0.52376
1232.35269	0.52313
1230.42412	0.52246
1228.49556	0.52167
1226.56699	0.52091
1224.63843	0.52022
1222.70986	0.51940
1220.78130	0.51844
1218.85273	0.51751
1216.92417	0.51669
1214.99561	0.51602
1213.06704	0.51548
1211.13848	0.51496
1209.20991	0.51437
1207.28135	0.51382
1205.35278	0.51338
1203.42422	0.51294
1201.49565	0.51243
1199.56709	0.51180
1197.63853	0.51099
1195.70996	0.51015
1193.78140	0.50942
1191.85283	0.50870
1189.92427	0.50792
1187.99570	0.50723
1186.06714	0.50683
1184.13857	0.50675
1182.21001	0.50686
1180.28145	0.50702
1178.35288	0.50727
1176.42432	0.50778
1174.49575	0.50848
1172.56719	0.50910
1170.63862	0.50966
1168.71006	0.51048
1166.78149	0.51160
1164.85293	0.51284
1162.92437	0.51397
1160.99580	0.51485
1159.06724	0.51537
1157.13867	0.51547
1155.21011	0.51514
1153.28154	0.51442
1151.35298	0.51322
1149.42441	0.51145
1147.49585	0.50918
1145.56729	0.50664
1143.63872	0.50399
1141.71016	0.50143
1139.78159	0.49929
1137.85303	0.49768
1135.92446	0.49637
1133.99590	0.49533
1132.06733	0.49471
1130.13877	0.49445
1128.21021	0.49422
1126.28164	0.49391
1124.35308	0.49357
1122.42451	0.49321
1120.49595	0.49301
1118.56738	0.49311
1116.63882	0.49342
1114.71025	0.49391
1112.78169	0.49455
1110.85312	0.49531
1108.92456	0.49625
1106.99600	0.49726
1105.06743	0.49809
1103.13887	0.49886
1101.21030	0.49977
1099.28174	0.50091
1097.35317	0.50249
1095.42461	0.50470
1093.49604	0.50794
1091.56748	0.51273
1089.63892	0.51925
1087.71035	0.52735
1085.78179	0.53671
1083.85322	0.54633
1081.92466	0.55469
1079.99609	0.56079
1078.06753	0.56401
1076.13896	0.56385
1074.21040	0.56048
1072.28184	0.55468
1070.35327	0.54754
1068.42471	0.54019
1066.49614	0.53327
1064.56758	0.52718
1062.63901	0.52200
1060.71045	0.51749
1058.78188	0.51349
1056.85332	0.50989
1054.92476	0.50676
1052.99619	0.50426
1051.06763	0.50254
1049.13906	0.50172
1047.21050	0.50174
1045.28193	0.50254
1043.35337	0.50386
1041.42480	0.50521
1039.49624	0.50606
1037.56768	0.50639
1035.63911	0.50653
1033.71055	0.50638
1031.78198	0.50549
1029.85342	0.50381
1027.92485	0.50174
1025.99629	0.49975
1024.06772	0.49811
1022.13916	0.49700
1020.21060	0.49646
1018.28203	0.49623
1016.35347	0.49598
1014.42490	0.49573
1012.49634	0.49545
1010.56777	0.49507
1008.63921	0.49480
1006.71064	0.49488
1004.78208	0.49551
1002.85352	0.49691
1000.92495	0.49925
998.99639	0.50253
997.06782	0.50661
995.13926	0.51103
993.21069	0.51508
991.28213	0.51822
989.35356	0.52014
987.42500	0.52069
985.49644	0.52041
983.56787	0.52021
981.63931	0.52063
979.71074	0.52176
977.78218	0.52337
975.85361	0.52532
973.92505	0.52772
971.99648	0.53054
970.06792	0.53384
968.13936	0.53772
966.21079	0.54209
964.28223	0.54673
962.35366	0.55140
960.42510	0.55626
958.49653	0.56159
956.56797	0.56729
954.63940	0.57326
952.71084	0.57957
950.78228	0.58610
948.85371	0.59249
946.92515	0.59877
944.99658	0.60517
943.06802	0.61149
941.13945	0.61776
939.21089	0.62393
937.28232	0.62962
935.35376	0.63516
933.42520	0.64117
931.49663	0.64749
929.56807	0.65355
927.63950	0.65904
925.71094	0.66455
923.78237	0.67116
921.85381	0.67878
919.92524	0.68651
917.99668	0.69387
916.06812	0.70052
914.13955	0.70727
912.21099	0.71514
910.28242	0.72347
908.35386	0.73184
906.42529	0.74075
904.49673	0.75000
902.56816	0.75909
900.63960	0.76853
898.71104	0.77870
896.78247	0.78840
894.85391	0.79748
892.92534	0.80810
890.99678	0.81976
889.06821	0.82991
887.13965	0.83916
885.21108	0.84945
883.28252	0.86162
881.35396	0.87531
879.42539	0.88852
877.49683	0.89987
875.56826	0.91049
873.63970	0.92135
871.71113	0.93198
869.78257	0.94212
867.85400	0.95199
865.92544	0.96284
863.99687	0.97602
862.06831	0.99017
860.13975	1.00291
858.21118	1.01464
856.28262	1.02626
854.35405	1.03781
852.42549	1.04984
850.49692	1.06132
848.56836	1.07132
846.63979	1.08179
844.71123	1.09416
842.78267	1.10726
840.85410	1.11938
838.92554	1.13036
836.99697	1.14245
835.06841	1.15591
833.13984	1.16800
831.21128	1.17929
829.28271	1.19377
827.35415	1.21107
825.42559	1.22734
823.49702	1.24339
821.56846	1.25810
819.63989	1.26791
817.71133	1.27840
815.78276	1.29513
813.85420	1.31235
811.92563	1.32660
809.99707	1.34112
808.06851	1.35694
806.13994	1.38069
804.21138	1.42083
802.28281	1.47736
800.35425	1.52365
798.42568	1.52273
796.49712	1.49076
794.56855	1.48308
792.63999	1.54566
790.71143	1.67425
788.78286	1.76051
786.85430	1.75028
784.92573	1.66234
782.99717	1.65878
781.06860	1.77673
779.14004	1.84747
777.21147	1.70497
775.28291	1.58712
773.35435	1.51088
771.42578	1.46348
769.49722	1.44836
767.56865	1.40987
765.64009	1.36076
763.71152	1.35991
761.78296	1.37769
759.85439	1.35943
757.92583	1.29895
755.99727	1.23208
754.06870	1.19562
752.14014	1.14802
750.21157	1.07889
748.28301	1.05033
746.35444	1.05063
744.42588	1.02882
742.49731	1.01590
740.56875	1.05106
738.64019	0.99119
736.71162	0.77938
734.78306	0.61437
732.85449	0.54708
730.92593	0.55768
728.99736	0.55036
727.06880	0.44567
725.14023	0.34688
723.21167	0.30091
721.28311	0.28524
719.35454	0.28714
717.42598	0.27797
715.49741	0.20566
713.56885	0.11146
711.64028	0.04986
709.71172	0.05465
707.78315	0.11326
705.85459	0.08893
703.92603	0.00276
701.99746	-0.01743
700.06890	0.04201
698.14033	0.09027
696.21177	0.11255
694.28320	0.08062
692.35464	0.03676
690.42607	0.07290
688.49751	0.10287
686.56895	0.07417
684.64038	0.05452
682.71182	0.06965
680.78325	0.09991
678.85469	0.14439
676.92612	0.16253
674.99756	0.17854
673.06899	0.25682
671.14043	0.33471
669.21187	0.28530
667.28330	0.18032
665.35474	0.08979
663.42617	0.01887
661.49761	-0.00930
659.56904	0.00030
657.64048	0.01056
655.71191	0.01073
653.78335	0.01308
651.85479	0.05338
649.92622	0.12388
647.99766	0.13589
646.06909	0.08061
644.14053	0.04096
642.21196	0.07331
640.28340	0.17750
638.35483	0.28317
636.42627	0.20230
634.49771	0.03664
632.56914	0.00362
630.64058	0.07380
628.71201	0.14162
626.78345	0.14985
624.85488	0.16031
622.92632	0.21117
620.99775	0.21776
619.06919	0.13477
617.14062	0.08571
615.21206	0.12242
613.28350	0.16054
611.35493	0.15090
609.42637	0.11403
607.49780	0.08512
605.56924	0.09450
603.64067	0.16018
601.71211	0.21392
599.78354	0.15170
597.85498	0.05564
595.92642	0.01054
593.99785	0.00797
592.06929	-0.00555
590.14072	-0.03406
588.21216	-0.04559
586.28359	-0.03149
584.35503	-0.01680
582.42646	-0.00786
580.49790	0.00527
578.56934	0.03710
576.64077	0.10155
574.71221	0.14906
572.78364	0.13927
570.85508	0.11534
568.92651	0.09077
566.99795	0.06280
565.06938	0.04167
563.14082	0.06251
561.21226	0.10698
559.28369	0.09393
557.35513	0.01777
555.42656	-0.01273
553.49800	0.04316
551.56943	0.14794
549.64087	0.19243
547.71230	0.15660
545.78374	0.16752
543.85518	0.24369
541.92661	0.26416
539.99805	0.16109
538.06948	0.05358
536.14092	0.01345
534.21235	0.02031
532.28379	0.01156
530.35522	-0.01309
528.42666	0.00460
526.49810	0.06510
524.56953	0.10674
522.64097	0.09469
520.71240	0.08464
518.78384	0.07693
516.85527	0.03747
514.92671	0.01707
512.99814	0.04758
511.06958	0.06130
509.14102	0.01469
507.21245	-0.00841
505.28389	0.02053
503.35532	0.05875
501.42676	0.07269
499.49819	0.08569
