3997.91411	0.07148
3995.98555	0.07200
3994.05698	0.07271
3992.12842	0.07325
3990.19985	0.07326
3988.27129	0.07307
3986.34272	0.07324
3984.41416	0.07381
3982.48560	0.07448
3980.55703	0.07479
3978.62847	0.07465
3976.69990	0.07462
3974.77134	0.07511
3972.84277	0.07554
3970.91421	0.07521
3968.98564	0.07487
3967.05708	0.07524
3965.12852	0.07572
3963.19995	0.07603
3961.27139	0.07641
3959.34282	0.07676
3957.41426	0.07676
3955.48569	0.07648
3953.55713	0.07642
3951.62856	0.07675
3949.70000	0.07704
3947.77144	0.07703
3945.84287	0.07681
3943.91431	0.07683
3941.98574	0.07711
3940.05718	0.07675
3938.12861	0.07615
3936.20005	0.07616
3934.27148	0.07662
3932.34292	0.07747
3930.41436	0.07834
3928.48579	0.07830
3926.55723	0.07767
3924.62866	0.07764
3922.70010	0.07808
3920.77153	0.07814
3918.84297	0.07825
3916.91440	0.07855
3914.98584	0.07786
3913.05728	0.07646
3911.12871	0.07559
3909.20015	0.07527
3907.27158	0.07568
3905.34302	0.07730
3903.41445	0.07941
3901.48589	0.08043
3899.55732	0.08034
3897.62876	0.07945
3895.70020	0.07786
3893.77163	0.07690
3891.84307	0.07749
3889.91450	0.07835
3887.98594	0.07799
3886.05737	0.07803
3884.12881	0.07885
3882.20024	0.07923
3880.27168	0.07961
3878.34312	0.07932
3876.41455	0.07842
3874.48599	0.07896
3872.55742	0.08081
3870.62886	0.08247
3868.70029	0.08324
3866.77173	0.08257
3864.84316	0.08202
3862.91460	0.08226
3860.98604	0.08170
3859.05747	0.08090
3857.12891	0.08143
3855.20034	0.08337
3853.27178	0.08643
3851.34321	0.08777
3849.41465	0.08553
3847.48608	0.08343
3845.55752	0.08287
3843.62896	0.08365
3841.70039	0.08528
3839.77183	0.08768
3837.84326	0.09042
3835.91470	0.09112
3833.98613	0.08971
3832.05757	0.08871
3830.12900	0.08876
3828.20044	0.08960
3826.27187	0.09104
3824.34331	0.09228
3822.41475	0.09363
3820.48618	0.09611
3818.55762	0.09722
3816.62905	0.09671
3814.70049	0.09651
3812.77192	0.09605
3810.84336	0.09569
3808.91479	0.09635
3806.98623	0.09837
3805.05767	0.10081
3803.12910	0.10292
3801.20054	0.10581
3799.27197	0.10749
3797.34341	0.10700
3795.41484	0.10661
3793.48628	0.10611
3791.55771	0.10592
3789.62915	0.10708
3787.70059	0.10914
3785.77202	0.11148
3783.84346	0.11361
3781.91489	0.11485
3779.98633	0.11605
3778.05776	0.11793
3776.12920	0.11898
3774.20063	0.11940
3772.27207	0.12074
3770.34351	0.12343
3768.41494	0.12651
3766.48638	0.12879
3764.55781	0.13071
3762.62925	0.13228
3760.70068	0.13398
3758.77212	0.13686
3756.84355	0.14002
3754.91499	0.14233
3752.98643	0.14543
3751.05786	0.15117
3749.12930	0.15707
3747.20073	0.15846
3745.27217	0.15858
3743.34360	0.16099
3741.41504	0.16401
3739.48647	0.16613
3737.55791	0.16904
3735.62935	0.17409
3733.70078	0.17991
3731.77222	0.18329
3729.84365	0.18547
3727.91509	0.18872
3725.98652	0.19421
3724.05796	0.20145
3722.12939	0.20905
3720.20083	0.21660
3718.27227	0.22359
3716.34370	0.23032
3714.41514	0.23774
3712.48657	0.24764
3710.55801	0.26120
3708.62944	0.27419
3706.70088	0.28438
3704.77231	0.29486
3702.84375	0.30798
3700.91519	0.32498
3698.98662	0.34318
3697.05806	0.36038
3695.12949	0.37868
3693.20093	0.39867
3691.27236	0.42146
3689.34380	0.45048
3687.41523	0.48427
3685.48667	0.51364
3683.55811	0.53928
3681.62954	0.56701
3679.70098	0.59884
3677.77241	0.63294
3675.84385	0.67332
3673.91528	0.72642
3671.98672	0.76898
3670.05815	0.80654
3668.12959	0.85822
3666.20103	0.90545
3664.27246	0.94511
3662.34390	0.98838
3660.41533	1.03564
3658.48677	1.08213
3656.55820	1.13154
3654.62964	1.18665
3652.70107	1.23317
3650.77251	1.27400
3648.84395	1.32958
3646.91538	1.39607
3644.98682	1.44485
3643.05825	1.48309
3641.12969	1.52252
3639.20112	1.56587
3637.27256	1.60960
3635.34399	1.65228
3633.41543	1.69470
3631.48687	1.73405
3629.55830	1.77433
3627.62974	1.82823
3625.70117	1.87922
3623.77261	1.91369
3621.84404	1.94626
3619.91548	1.98335
3617.98691	2.02854
3616.05835	2.07350
3614.12979	2.11230
3612.20122	2.15265
3610.27266	2.19147
3608.34409	2.22915
3606.41553	2.27077
3604.48696	2.31092
3602.55840	2.34634
3600.62983	2.38386
3598.70127	2.42487
3596.77271	2.46516
3594.84414	2.50535
3592.91558	2.54564
3590.98701	2.58363
3589.05845	2.62114
3587.12988	2.66766
3585.20132	2.71765
3583.27275	2.75806
3581.34419	2.79536
3579.41562	2.83685
3577.48706	2.88110
3575.55850	2.92405
3573.62993	2.96623
3571.70137	3.00694
3569.77280	3.04600
3567.84424	3.08837
3565.91567	3.14255
3563.98711	3.19656
3562.05854	3.23847
3560.12998	3.27755
3558.20142	3.32006
3556.27285	3.36547
3554.34429	3.41022
3552.41572	3.45632
3550.48716	3.50431
3548.55859	3.55044
3546.63003	3.59598
3544.70146	3.64440
3542.77290	3.69261
3540.84434	3.73831
3538.91577	3.78397
3536.98721	3.82973
3535.05864	3.87651
3533.13008	3.92475
3531.20151	3.97552
3529.27295	4.02773
3527.34438	4.07760
3525.41582	4.12278
3523.48726	4.16771
3521.55869	4.21786
3519.63013	4.26779
3517.70156	4.31523
3515.77300	4.36507
3513.84443	4.41490
3511.91587	4.45935
3509.98730	4.50445
3508.05874	4.55500
3506.13018	4.60469
3504.20161	4.65086
3502.27305	4.69682
3500.34448	4.74473
3498.41592	4.79368
3496.48735	4.84015
3494.55879	4.88225
3492.63022	4.92816
3490.70166	4.98362
3488.77310	5.03799
3486.84453	5.08372
3484.91597	5.13045
3482.98740	5.18010
3481.05884	5.22253
3479.13027	5.26192
3477.20171	5.31299
3475.27314	5.37352
3473.34458	5.42800
3471.41602	5.47003
3469.48745	5.50751
3467.55889	5.55030
3465.63032	5.60304
3463.70176	5.66303
3461.77319	5.71766
3459.84463	5.76228
3457.91606	5.80496
3455.98750	5.85875
3454.05894	5.92084
3452.13037	5.97216
3450.20181	6.01587
3448.27324	6.06665
3446.34468	6.12950
3444.41611	6.19495
3442.48755	6.25140
3440.55898	6.29929
3438.63042	6.34380
3436.70186	6.38431
3434.77329	6.42140
3432.84473	6.45353
3430.91616	6.48366
3428.98760	6.53714
3427.05903	6.61820
3425.13047	6.70121
3423.20190	6.75494
3421.27334	6.78258
3419.34478	6.81018
3417.41621	6.84590
3415.48765	6.88590
3413.55908	6.92608
3411.63052	6.97208
3409.70195	7.02800
3407.77339	7.08990
3405.84482	7.13542
3403.91626	7.16756
3401.98770	7.18665
3400.05913	7.20053
3398.13057	7.24425
3396.20200	7.30658
3394.27344	7.35502
3392.34487	7.37218
3390.41631	7.39188
3388.48774	7.42673
3386.55918	7.45538
3384.63062	7.49390
3382.70205	7.55155
3380.77349	7.58236
3378.84492	7.58572
3376.91636	7.61797
3374.98779	7.65819
3373.05923	7.70308
3371.13066	7.77579
3369.20210	7.83011
3367.27354	7.82054
3365.34497	7.80489
3363.41641	7.82932
3361.48784	7.85798
3359.55928	7.87490
3357.63071	7.86997
3355.70215	7.84486
3353.77358	7.85754
3351.84502	7.97009
3349.91646	8.08909
3347.98789	8.08260
3346.05933	8.01912
3344.13076	7.99975
3342.20220	8.02245
3340.27363	8.06131
3338.34507	8.10165
3336.41650	8.09526
3334.48794	8.07151
3332.55937	8.04913
3330.63081	8.04296
3328.70225	8.11866
3326.77368	8.20782
3324.84512	8.18378
3322.91655	8.12701
3320.98799	8.14997
3319.05942	8.16421
3317.13086	8.13656
3315.20229	8.16690
3313.27373	8.23954
3311.34517	8.22999
3309.41660	8.15420
3307.48804	8.12601
3305.55947	8.14326
3303.63091	8.13928
3301.70234	8.13371
3299.77378	8.20803
3297.84521	8.26331
3295.91665	8.19389
3293.98809	8.14005
3292.05952	8.16525
3290.13096	8.16894
3288.20239	8.16412
3286.27383	8.21339
3284.34526	8.23512
3282.41670	8.25846
3280.48813	8.35674
3278.55957	8.41320
3276.63101	8.35624
3274.70244	8.30496
3272.77388	8.30242
3270.84531	8.28110
3268.91675	8.26917
3266.98818	8.29642
3265.05962	8.27005
3263.13105	8.22418
3261.20249	8.28132
3259.27393	8.32683
3257.34536	8.25994
3255.41680	8.17383
3253.48823	8.11837
3251.55967	8.13454
3249.63110	8.23811
3247.70254	8.33564
3245.77397	8.33309
3243.84541	8.31135
3241.91685	8.32406
3239.98828	8.31447
3238.05972	8.26077
3236.13115	8.17241
3234.20259	8.11412
3232.27402	8.12996
3230.34546	8.16767
3228.41689	8.17240
3226.48833	8.15275
3224.55977	8.15348
3222.63120	8.19056
3220.70264	8.19548
3218.77407	8.14126
3216.84551	8.11526
3214.91694	8.11131
3212.98838	8.04529
3211.05981	7.96664
3209.13125	7.94219
3207.20269	7.94090
3205.27412	7.92052
3203.34556	7.86357
3201.41699	7.77639
3199.48843	7.71025
3197.55986	7.70664
3195.63130	7.71381
3193.70273	7.67703
3191.77417	7.62695
3189.84561	7.58905
3187.91704	7.52399
3185.98848	7.41167
3184.05991	7.33182
3182.13135	7.31822
3180.20278	7.30123
3178.27422	7.24310
3176.34565	7.16768
3174.41709	7.11384
3172.48853	7.10827
3170.55996	7.11859
3168.63140	7.08948
3166.70283	7.02308
3164.77427	6.95394
3162.84570	6.88975
3160.91714	6.81771
3158.98857	6.74028
3157.06001	6.67575
3155.13145	6.62248
3153.20288	6.55918
3151.27432	6.48639
3149.34575	6.40715
3147.41719	6.32678
3145.48862	6.25473
3143.56006	6.18454
3141.63149	6.11717
3139.70293	6.05019
3137.77437	5.98132
3135.84580	5.91151
3133.91724	5.83594
3131.98867	5.75764
3130.06011	5.68310
3128.13154	5.61505
3126.20298	5.54829
3124.27441	5.47556
3122.34585	5.39739
3120.41729	5.32248
3118.48872	5.25574
3116.56016	5.19384
3114.63159	5.13012
3112.70303	5.05975
3110.77446	4.98442
3108.84590	4.91132
3106.91733	4.84604
3104.98877	4.78104
3103.06021	4.71088
3101.13164	4.64087
3099.20308	4.57337
3097.27451	4.50795
3095.34595	4.44377
3093.41738	4.37978
3091.48882	4.31524
3089.56025	4.25205
3087.63169	4.19198
3085.70312	4.13108
3083.77456	4.06750
3081.84600	4.00437
3079.91743	3.94122
3077.98887	3.87728
3076.06030	3.81640
3074.13174	3.75898
3072.20317	3.70078
3070.27461	3.64219
3068.34604	3.58509
3066.41748	3.52757
3064.48892	3.46995
3062.56035	3.41357
3060.63179	3.35873
3058.70322	3.30496
3056.77466	3.25019
3054.84609	3.19574
3052.91753	3.14366
3050.98896	3.09170
3049.06040	3.03887
3047.13184	2.98789
3045.20327	2.93831
3043.27471	2.88813
3041.34614	2.83955
3039.41758	2.79254
3037.48901	2.74435
3035.56045	2.69640
3033.63188	2.65038
3031.70332	2.60526
3029.77476	2.56078
3027.84619	2.51686
3025.91763	2.47301
3023.98906	2.43010
3022.06050	2.38827
3020.13193	2.34640
3018.20337	2.30514
3016.27480	2.26554
3014.34624	2.22643
3012.41768	2.18696
3010.48911	2.14818
3008.56055	2.11050
3006.63198	2.07325
3004.70342	2.03669
3002.77485	2.00111
3000.84629	1.96593
2998.91772	1.93151
2996.98916	1.89840
2995.06060	1.86600
2993.13203	1.83417
2991.20347	1.80327
2989.27490	1.77315
2987.34634	1.74332
2985.41777	1.71333
2983.48921	1.68374
2981.56064	1.65536
2979.63208	1.62783
2977.70352	1.60057
2975.77495	1.57390
2973.84639	1.54805
2971.91782	1.52269
2969.98926	1.49735
2968.06069	1.47170
2966.13213	1.44579
2964.20356	1.42041
2962.27500	1.39630
2960.34644	1.37277
2958.41787	1.34915
2956.48931	1.32597
2954.56074	1.30292
2952.63218	1.27926
2950.70361	1.25562
2948.77505	1.23273
2946.84648	1.21038
2944.91792	1.18842
2942.98936	1.16665
2941.06079	1.14511
2939.13223	1.12414
2937.20366	1.10333
2935.27510	1.08235
2933.34653	1.06151
2931.41797	1.04118
2929.48940	1.02157
2927.56084	1.00243
2925.63228	0.98341
2923.70371	0.96501
2921.77515	0.94792
2919.84658	0.93196
2917.91802	0.91648
2915.98945	0.90083
2914.06089	0.88522
2912.13232	0.87009
2910.20376	0.85502
2908.27520	0.83971
2906.34663	0.82470
2904.41807	0.81026
2902.48950	0.79651
2900.56094	0.78332
2898.63237	0.77027
2896.70381	0.75772
2894.77524	0.74572
2892.84668	0.73358
2890.91812	0.72117
2888.98955	0.70915
2887.06099	0.69783
2885.13242	0.68711
2883.20386	0.67690
2881.27529	0.66702
2879.34673	0.65725
2877.41816	0.64752
2875.48960	0.63779
2873.56104	0.62798
2871.63247	0.61769
2869.70391	0.60654
2867.77534	0.59492
2865.84678	0.58326
2863.91821	0.57165
2861.98965	0.56008
2860.06108	0.54866
2858.13252	0.53806
2856.20396	0.52853
2854.27539	0.51926
2852.34683	0.51018
2850.41826	0.50192
2848.48970	0.49445
2846.56113	0.48725
2844.63257	0.48025
2842.70400	0.47378
2840.77544	0.46765
2838.84687	0.46145
2836.91831	0.45539
2834.98975	0.44957
2833.06118	0.44364
2831.13262	0.43756
2829.20405	0.43158
2827.27549	0.42559
2825.34692	0.41940
2823.41836	0.41331
2821.48979	0.40762
2819.56123	0.40202
2817.63267	0.39638
2815.70410	0.39086
2813.77554	0.38533
2811.84697	0.37978
2809.91841	0.37438
2807.98984	0.36908
2806.06128	0.36387
2804.13271	0.35869
2802.20415	0.35355
2800.27559	0.34848
2798.34702	0.34348
2796.41846	0.33865
2794.48989	0.33403
2792.56133	0.32945
2790.63276	0.32499
2788.70420	0.32071
2786.77563	0.31642
2784.84707	0.31208
2782.91851	0.30791
2780.98994	0.30392
2779.06138	0.30002
2777.13281	0.29620
2775.20425	0.29242
2773.27568	0.28869
2771.34712	0.28503
2769.41855	0.28135
2767.48999	0.27761
2765.56143	0.27394
2763.63286	0.27047
2761.70430	0.26712
2759.77573	0.26382
2757.84717	0.26063
2755.91860	0.25766
2753.99004	0.25485
2752.06147	0.25188
2750.13291	0.24865
2748.20435	0.24556
2746.27578	0.24285
2744.34722	0.24031
2742.41865	0.23778
2740.49009	0.23517
2738.56152	0.23248
2736.63296	0.22978
2734.70439	0.22722
2732.77583	0.22485
2730.84727	0.22255
2728.91870	0.22029
2726.99014	0.21818
2725.06157	0.21613
2723.13301	0.21405
2721.20444	0.21202
2719.27588	0.21000
2717.34731	0.20796
2715.41875	0.20596
2713.49019	0.20401
2711.56162	0.20198
2709.63306	0.20006
2707.70449	0.19840
2705.77593	0.19683
2703.84736	0.19518
2701.91880	0.19360
2699.99023	0.19222
2698.06167	0.19095
2696.13311	0.18956
2694.20454	0.18803
2692.27598	0.18650
2690.34741	0.18515
2688.41885	0.18401
2686.49028	0.18284
2684.56172	0.18140
2682.63315	0.18001
2680.70459	0.17892
2678.77603	0.17793
2676.84746	0.17687
2674.91890	0.17583
2672.99033	0.17485
2671.06177	0.17389
2669.13320	0.17297
2667.20464	0.17206
2665.27607	0.17108
2663.34751	0.17003
2661.41895	0.16905
2659.49038	0.16824
2657.56182	0.16748
2655.63325	0.16663
2653.70469	0.16582
2651.77612	0.16516
2649.84756	0.16457
2647.91899	0.16394
2645.99043	0.16330
2644.06187	0.16282
2642.13330	0.16241
2640.20474	0.16184
2638.27617	0.16123
2636.34761	0.16077
2634.41904	0.16029
2632.49048	0.15979
2630.56191	0.15945
2628.63335	0.15917
2626.70479	0.15876
2624.77622	0.15837
2622.84766	0.15817
2620.91909	0.15801
2618.99053	0.15775
2617.06196	0.15756
2615.13340	0.15753
2613.20483	0.15745
2611.27627	0.15725
2609.34771	0.15701
2607.41914	0.15677
2605.49058	0.15663
2603.56201	0.15660
2601.63345	0.15662
2599.70488	0.15671
2597.77632	0.15683
2595.84775	0.15690
2593.91919	0.15694
2591.99062	0.15700
2590.06206	0.15711
2588.13350	0.15725
2586.20493	0.15733
2584.27637	0.15737
2582.34780	0.15755
2580.41924	0.15790
2578.49067	0.15817
2576.56211	0.15835
2574.63354	0.15860
2572.70498	0.15899
2570.77642	0.15942
2568.84785	0.15980
2566.91929	0.16013
2564.99072	0.16046
2563.06216	0.16079
2561.13359	0.16116
2559.20503	0.16165
2557.27646	0.16220
2555.34790	0.16272
2553.41934	0.16322
2551.49077	0.16378
2549.56221	0.16432
2547.63364	0.16476
2545.70508	0.16524
2543.77651	0.16583
2541.84795	0.16649
2539.91938	0.16725
2537.99082	0.16805
2536.06226	0.16874
2534.13369	0.16933
2532.20513	0.16994
2530.27656	0.17063
2528.34800	0.17137
2526.41943	0.17210
2524.49087	0.17274
2522.56230	0.17330
2520.63374	0.17394
2518.70518	0.17478
2516.77661	0.17565
2514.84805	0.17640
2512.91948	0.17714
2510.99092	0.17796
2509.06235	0.17870
2507.13379	0.17942
2505.20522	0.18031
2503.27666	0.18117
2501.34810	0.18196
2499.41953	0.18282
2497.49097	0.18368
2495.56240	0.18446
2493.63384	0.18527
2491.70527	0.18612
2489.77671	0.18701
2487.84814	0.18802
2485.91958	0.18907
2483.99102	0.18999
2482.06245	0.19079
2480.13389	0.19157
2478.20532	0.19242
2476.27676	0.19335
2474.34819	0.19435
2472.41963	0.19535
2470.49106	0.19621
2468.56250	0.19696
2466.63394	0.19772
2464.70537	0.19851
2462.77681	0.19940
2460.84824	0.20041
2458.91968	0.20144
2456.99111	0.20241
2455.06255	0.20326
2453.13398	0.20407
2451.20542	0.20499
2449.27686	0.20598
2447.34829	0.20698
2445.41973	0.20802
2443.49116	0.20918
2441.56260	0.21033
2439.63403	0.21132
2437.70547	0.21222
2435.77690	0.21317
2433.84834	0.21412
2431.91978	0.21516
2429.99121	0.21626
2428.06265	0.21734
2426.13408	0.21844
2424.20552	0.21957
2422.27695	0.22070
2420.34839	0.22180
2418.41982	0.22285
2416.49126	0.22395
2414.56270	0.22520
2412.63413	0.22646
2410.70557	0.22755
2408.77700	0.22858
2406.84844	0.22964
2404.91987	0.23076
2402.99131	0.23194
2401.06274	0.23321
2399.13418	0.23449
2397.20562	0.23568
2395.27705	0.23687
2393.34849	0.23811
2391.41992	0.23943
2389.49136	0.24076
2387.56279	0.24184
2385.63423	0.24249
2383.70566	0.24275
2381.77710	0.24251
2379.84854	0.24167
2377.91997	0.24027
2375.99141	0.23831
2374.06284	0.23561
2372.13428	0.23181
2370.20571	0.22691
2368.27715	0.22123
2366.34858	0.21559
2364.42002	0.21124
2362.49146	0.20890
2360.56289	0.20862
2358.63433	0.21070
2356.70576	0.21562
2354.77720	0.22336
2352.84863	0.23312
2350.92007	0.24249
2348.99150	0.24822
2347.06294	0.24918
2345.13437	0.24615
2343.20581	0.24241
2341.27725	0.24198
2339.34868	0.24464
2337.42012	0.24779
2335.49155	0.25030
2333.56299	0.25263
2331.63442	0.25521
2329.70586	0.25830
2327.77729	0.26182
2325.84873	0.26532
2323.92017	0.26874
2321.99160	0.27255
2320.06304	0.27700
2318.13447	0.28148
2316.20591	0.28529
2314.27734	0.28842
2312.34878	0.29127
2310.42021	0.29422
2308.49165	0.29730
2306.56309	0.30043
2304.63452	0.30349
2302.70596	0.30616
2300.77739	0.30853
2298.84883	0.31101
2296.92026	0.31359
2294.99170	0.31596
2293.06313	0.31816
2291.13457	0.32035
2289.20601	0.32263
2287.27744	0.32502
2285.34888	0.32743
2283.42031	0.32968
2281.49175	0.33169
2279.56318	0.33349
2277.63462	0.33527
2275.70605	0.33723
2273.77749	0.33940
2271.84893	0.34156
2269.92036	0.34356
2267.99180	0.34549
2266.06323	0.34753
2264.13467	0.34979
2262.20610	0.35222
2260.27754	0.35464
2258.34897	0.35698
2256.42041	0.35917
2254.49185	0.36123
2252.56328	0.36335
2250.63472	0.36557
2248.70615	0.36792
2246.77759	0.37028
2244.84902	0.37253
2242.92046	0.37470
2240.99189	0.37688
2239.06333	0.37907
2237.13477	0.38132
2235.20620	0.38362
2233.27764	0.38584
2231.34907	0.38795
2229.42051	0.39012
2227.49194	0.39247
2225.56338	0.39487
2223.63481	0.39712
2221.70625	0.39930
2219.77769	0.40151
2217.84912	0.40369
2215.92056	0.40582
2213.99199	0.40794
2212.06343	0.41002
2210.13486	0.41212
2208.20630	0.41430
2206.27773	0.41642
2204.34917	0.41848
2202.42061	0.42055
2200.49204	0.42258
2198.56348	0.42455
2196.63491	0.42657
2194.70635	0.42860
2192.77778	0.43053
2190.84922	0.43235
2188.92065	0.43420
2186.99209	0.43611
2185.06353	0.43794
2183.13496	0.43963
2181.20640	0.44123
2179.27783	0.44277
2177.34927	0.44434
2175.42070	0.44593
2173.49214	0.44748
2171.56357	0.44898
2169.63501	0.45035
2167.70645	0.45163
2165.77788	0.45287
2163.84932	0.45410
2161.92075	0.45530
2159.99219	0.45648
2158.06362	0.45758
2156.13506	0.45850
2154.20649	0.45935
2152.27793	0.46028
2150.34937	0.46115
2148.42080	0.46174
2146.49224	0.46216
2144.56367	0.46252
2142.63511	0.46286
2140.70654	0.46320
2138.77798	0.46344
2136.84941	0.46358
2134.92085	0.46361
2132.99229	0.46350
2131.06372	0.46335
2129.13516	0.46316
2127.20659	0.46284
2125.27803	0.46250
2123.34946	0.46220
2121.42090	0.46186
2119.49233	0.46136
2117.56377	0.46067
2115.63521	0.45986
2113.70664	0.45906
2111.77808	0.45819
2109.84951	0.45721
2107.92095	0.45614
2105.99238	0.45499
2104.06382	0.45372
2102.13525	0.45232
2100.20669	0.45091
2098.27812	0.44948
2096.34956	0.44800
2094.42100	0.44646
2092.49243	0.44475
2090.56387	0.44297
2088.63530	0.44116
2086.70674	0.43930
2084.77817	0.43735
2082.84961	0.43537
2080.92104	0.43344
2078.99248	0.43156
2077.06392	0.42966
2075.13535	0.42760
2073.20679	0.42533
2071.27822	0.42294
2069.34966	0.42066
2067.42109	0.41841
2065.49253	0.41610
2063.56396	0.41367
2061.63540	0.41110
2059.70684	0.40850
2057.77827	0.40599
2055.84971	0.40349
2053.92114	0.40091
2051.99258	0.39831
2050.06401	0.39567
2048.13545	0.39303
2046.20688	0.39041
2044.27832	0.38775
2042.34976	0.38496
2040.42119	0.38210
2038.49263	0.37932
2036.56406	0.37663
2034.63550	0.37390
2032.70693	0.37107
2030.77837	0.36827
2028.84980	0.36545
2026.92124	0.36265
2024.99268	0.35989
2023.06411	0.35712
2021.13555	0.35432
2019.20698	0.35162
2017.27842	0.34898
2015.34985	0.34623
2013.42129	0.34340
2011.49272	0.34069
2009.56416	0.33802
2007.63560	0.33519
2005.70703	0.33231
2003.77847	0.32948
2001.84990	0.32677
1999.92134	0.32422
1997.99277	0.32166
1996.06421	0.31907
1994.13564	0.31664
1992.20708	0.31428
1990.27852	0.31172
1988.34995	0.30914
1986.42139	0.30667
1984.49282	0.30421
1982.56426	0.30172
1980.63569	0.29928
1978.70713	0.29697
1976.77856	0.29471
1974.85000	0.29245
1972.92144	0.29022
1970.99287	0.28811
1969.06431	0.28624
1967.13574	0.28448
1965.20718	0.28244
1963.27861	0.28022
1961.35005	0.27818
1959.42148	0.27629
1957.49292	0.27449
1955.56436	0.27277
1953.63579	0.27110
1951.70723	0.26942
1949.77866	0.26768
1947.85010	0.26602
1945.92153	0.26467
1943.99297	0.26354
1942.06440	0.26215
1940.13584	0.26033
1938.20728	0.25853
1936.27871	0.25708
1934.35015	0.25586
1932.42158	0.25468
1930.49302	0.25344
1928.56445	0.25223
1926.63589	0.25116
1924.70732	0.25039
1922.77876	0.24974
1920.85020	0.24885
1918.92163	0.24790
1916.99307	0.24696
1915.06450	0.24576
1913.13594	0.24464
1911.20737	0.24399
1909.27881	0.24353
1907.35024	0.24289
1905.42168	0.24215
1903.49312	0.24148
1901.56455	0.24087
1899.63599	0.24032
1897.70742	0.23991
1895.77886	0.23959
1893.85029	0.23930
1891.92173	0.23906
1889.99316	0.23899
1888.06460	0.23874
1886.13604	0.23834
1884.20747	0.23802
1882.27891	0.23775
1880.35034	0.23759
1878.42178	0.23759
1876.49321	0.23759
1874.56465	0.23756
1872.63608	0.23777
1870.70752	0.23835
1868.77896	0.23915
1866.85039	0.23936
1864.92183	0.23896
1862.99326	0.23880
1861.06470	0.23899
1859.13613	0.23931
1857.20757	0.23963
1855.27900	0.24004
1853.35044	0.24046
1851.42187	0.24097
1849.49331	0.24167
1847.56475	0.24261
1845.63618	0.24371
1843.70762	0.24482
1841.77905	0.24541
1839.85049	0.24561
1837.92192	0.24625
1835.99336	0.24718
1834.06479	0.24813
1832.13623	0.24925
1830.20767	0.25094
1828.27910	0.25255
1826.35054	0.25354
1824.42197	0.25465
1822.49341	0.25575
1820.56484	0.25685
1818.63628	0.25816
1816.70771	0.25976
1814.77915	0.26148
1812.85059	0.26344
1810.92202	0.26565
1808.99346	0.26764
1807.06489	0.26933
1805.13633	0.27109
1803.20776	0.27347
1801.27920	0.27639
1799.35063	0.27947
1797.42207	0.28204
1795.49351	0.28440
1793.56494	0.28720
1791.63638	0.29074
1789.70781	0.29391
1787.77925	0.29629
1785.85068	0.29932
1783.92212	0.30303
1781.99355	0.30704
1780.06499	0.31123
1778.13643	0.31548
1776.20786	0.31953
1774.27930	0.32399
1772.35073	0.33002
1770.42217	0.33644
1768.49360	0.34161
1766.56504	0.34645
1764.63647	0.35158
1762.70791	0.35749
1760.77935	0.36502
1758.85078	0.37193
1756.92222	0.37871
1754.99365	0.38619
1753.06509	0.39322
1751.13652	0.40177
1749.20796	0.41248
1747.27939	0.42276
1745.35083	0.43159
1743.42227	0.44091
1741.49370	0.45134
1739.56514	0.46381
1737.63657	0.47634
1735.70801	0.48750
1733.77944	0.50436
1731.85088	0.52398
1729.92231	0.53923
1727.99375	0.55474
1726.06519	0.57150
1724.13662	0.58998
1722.20806	0.61012
1720.27949	0.62890
1718.35093	0.65121
1716.42236	0.68389
1714.49380	0.71426
1712.56523	0.73851
1710.63667	0.76218
1708.70811	0.78788
1706.77954	0.81740
1704.85098	0.85285
1702.92241	0.88475
1700.99385	0.91678
1699.06528	0.96392
1697.13672	1.00655
1695.20815	1.05009
1693.27959	1.09286
1691.35103	1.12790
1689.42246	1.16878
1687.49390	1.21202
1685.56533	1.25374
1683.63677	1.31756
1681.70820	1.38369
1679.77964	1.42606
1677.85107	1.46643
1675.92251	1.51293
1673.99395	1.57033
1672.06538	1.62227
1670.13682	1.67384
1668.20825	1.74001
1666.27969	1.79398
1664.35112	1.84017
1662.42256	1.89838
1660.49399	1.96459
1658.56543	2.01700
1656.63687	2.05890
1654.70830	2.09479
1652.77974	2.15047
1650.85117	2.20832
1648.92261	2.23060
1646.99404	2.25522
1645.06548	2.28137
1643.13691	2.29909
1641.20835	2.30832
1639.27979	2.31583
1637.35122	2.31965
1635.42266	2.31630
1633.49409	2.30761
1631.56553	2.29541
1629.63696	2.27853
1627.70840	2.24868
1625.77983	2.21402
1623.85127	2.17212
1621.92271	2.12229
1619.99414	2.07716
1618.06558	2.03179
1616.13701	1.96682
1614.20845	1.90099
1612.27988	1.85199
1610.35132	1.80143
1608.42275	1.74581
1606.49419	1.69069
1604.56562	1.63994
1602.63706	1.59064
1600.70850	1.54282
1598.77993	1.49947
1596.85137	1.45880
1594.92280	1.41907
1592.99424	1.38037
1591.06567	1.34460
1589.13711	1.31127
1587.20854	1.28054
1585.27998	1.25242
1583.35142	1.22656
1581.42285	1.20304
1579.49429	1.18291
1577.56572	1.16508
1575.63716	1.14393
1573.70859	1.12554
1571.78003	1.11395
1569.85146	1.10273
1567.92290	1.09037
1565.99434	1.08087
1564.06577	1.07413
1562.13721	1.06981
1560.20864	1.06821
1558.28008	1.06866
1556.35151	1.06913
1554.42295	1.06906
1552.49438	1.06908
1550.56582	1.06794
1548.63726	1.06446
1546.70869	1.05883
1544.78013	1.05087
1542.85156	1.04016
1540.92300	1.02397
1538.99443	0.99723
1537.06587	0.97645
1535.13730	0.96232
1533.20874	0.94427
1531.28018	0.92490
1529.35161	0.91079
1527.42305	0.89804
1525.49448	0.88493
1523.56592	0.87347
1521.63735	0.86282
1519.70879	0.85210
1517.78022	0.84264
1515.85166	0.83143
1513.92310	0.81950
1511.99453	0.80934
1510.06597	0.80063
1508.13740	0.79240
1506.20884	0.77893
1504.28027	0.76627
1502.35171	0.75926
1500.42314	0.75357
1498.49458	0.74766
1496.56602	0.74068
1494.63745	0.73343
1492.70889	0.72772
1490.78032	0.72311
1488.85176	0.71799
1486.92319	0.71247
1484.99463	0.70783
1483.06606	0.70441
1481.13750	0.70178
1479.20894	0.69981
1477.28037	0.69882
1475.35181	0.69870
1473.42324	0.69882
1471.49468	0.69766
1469.56611	0.69498
1467.63755	0.69229
1465.70898	0.69027
1463.78042	0.68872
1461.85186	0.68741
1459.92329	0.68687
1457.99473	0.68720
1456.06616	0.68656
1454.13760	0.68381
1452.20903	0.68098
1450.28047	0.67848
1448.35190	0.67613
1446.42334	0.67357
1444.49478	0.67093
1442.56621	0.66845
1440.63765	0.66607
1438.70908	0.66382
1436.78052	0.66095
1434.85195	0.65714
1432.92339	0.65402
1430.99482	0.65222
1429.06626	0.65120
1427.13770	0.65044
1425.20913	0.65011
1423.28057	0.65031
1421.35200	0.65061
1419.42344	0.65087
1417.49487	0.65040
1415.56631	0.64892
1413.63774	0.64780
1411.70918	0.64759
1409.78062	0.64812
1407.85205	0.64912
1405.92349	0.65043
1403.99492	0.65155
1402.06636	0.65181
1400.13779	0.65140
1398.20923	0.65035
1396.28066	0.64823
1394.35210	0.64462
1392.42354	0.64021
1390.49497	0.63627
1388.56641	0.63271
1386.63784	0.62876
1384.70928	0.62417
1382.78071	0.61945
1380.85215	0.61511
1378.92358	0.61168
1376.99502	0.60925
1375.06646	0.60760
1373.13789	0.60630
1371.20933	0.60510
1369.28076	0.60403
1367.35220	0.60278
1365.42363	0.60138
1363.49507	0.60023
1361.56650	0.59912
1359.63794	0.59763
1357.70937	0.59607
1355.78081	0.59474
1353.85225	0.59367
1351.92368	0.59285
1349.99512	0.59217
1348.06655	0.59129
1346.13799	0.59023
1344.20942	0.58940
1342.28086	0.58893
1340.35229	0.58860
1338.42373	0.58799
1336.49517	0.58699
1334.56660	0.58608
1332.63804	0.58560
1330.70947	0.58555
1328.78091	0.58584
1326.85234	0.58639
1324.92378	0.58696
1322.99521	0.58742
1321.06665	0.58781
1319.13809	0.58814
1317.20952	0.58830
1315.28096	0.58825
1313.35239	0.58791
1311.42383	0.58721
1309.49526	0.58642
1307.56670	0.58578
1305.63813	0.58529
1303.70957	0.58475
1301.78101	0.58404
1299.85244	0.58315
1297.92388	0.58215
1295.99531	0.58109
1294.06675	0.58000
1292.13818	0.57881
1290.20962	0.57756
1288.28105	0.57640
1286.35249	0.57527
1284.42393	0.57413
1282.49536	0.57288
1280.56680	0.57153
1278.63823	0.57016
1276.70967	0.56880
1274.78110	0.56759
1272.85254	0.56681
1270.92397	0.56636
1268.99541	0.56584
1267.06685	0.56510
1265.13828	0.56426
1263.20972	0.56337
1261.28115	0.56247
1259.35259	0.56178
1257.42402	0.56127
1255.49546	0.56092
1253.56689	0.56085
1251.63833	0.56103
1249.70977	0.56124
1247.78120	0.56123
1245.85264	0.56096
1243.92407	0.56040
1241.99551	0.55946
1240.06694	0.55820
1238.13838	0.55670
1236.20981	0.55500
1234.28125	0.55316
1232.35269	0.55129
1230.42412	0.54941
1228.49556	0.54754
1226.56699	0.54573
1224.63843	0.54406
1222.70986	0.54258
1220.78130	0.54120
1218.85273	0.53984
1216.92417	0.53864
1214.99561	0.53763
1213.06704	0.53661
1211.13848	0.53571
1209.20991	0.53518
1207.28135	0.53470
1205.35278	0.53387
1203.42422	0.53280
1201.49565	0.53178
1199.56709	0.53098
1197.63853	0.53035
1195.70996	0.52975
1193.78140	0.52918
1191.85283	0.52870
1189.92427	0.52832
1187.99570	0.52801
1186.06714	0.52772
1184.13857	0.52760
1182.21001	0.52789
1180.28145	0.52860
1178.35288	0.52962
1176.42432	0.53087
1174.49575	0.53225
1172.56719	0.53336
1170.63862	0.53382
1168.71006	0.53373
1166.78149	0.53356
1164.85293	0.53364
1162.92437	0.53384
1160.99580	0.53384
1159.06724	0.53370
1157.13867	0.53341
1155.21011	0.53266
1153.28154	0.53131
1151.35298	0.52942
1149.42441	0.52713
1147.49585	0.52470
1145.56729	0.52213
1143.63872	0.51942
1141.71016	0.51681
1139.78159	0.51461
1137.85303	0.51286
1135.92446	0.51157
1133.99590	0.51081
1132.06733	0.51035
1130.13877	0.50963
1128.21021	0.50850
1126.28164	0.50728
1124.35308	0.50627
1122.42451	0.50568
1120.49595	0.50560
1118.56738	0.50585
1116.63882	0.50626
1114.71025	0.50673
1112.78169	0.50716
1110.85312	0.50768
1108.92456	0.50846
1106.99600	0.50954
1105.06743	0.51087
1103.13887	0.51227
1101.21030	0.51360
1099.28174	0.51518
1097.35317	0.51738
1095.42461	0.52019
1093.49604	0.52352
1091.56748	0.52760
1089.63892	0.53303
1087.71035	0.53986
1085.78179	0.54725
1083.85322	0.55470
1081.92466	0.56181
1079.99609	0.56738
1078.06753	0.57023
1076.13896	0.57028
1074.21040	0.56781
1072.28184	0.56300
1070.35327	0.55661
1068.42471	0.54981
1066.49614	0.54323
1064.56758	0.53691
1062.63901	0.53114
1060.71045	0.52629
1058.78188	0.52238
1056.85332	0.51892
1054.92476	0.51527
1052.99619	0.51155
1051.06763	0.50851
1049.13906	0.50635
1047.21050	0.50488
1045.28193	0.50380
1043.35337	0.50285
1041.42480	0.50210
1039.49624	0.50157
1037.56768	0.50137
1035.63911	0.50150
1033.71055	0.50145
1031.78198	0.50080
1029.85342	0.49969
1027.92485	0.49848
1025.99629	0.49757
1024.06772	0.49714
1022.13916	0.49699
1020.21060	0.49696
1018.28203	0.49712
1016.35347	0.49729
1014.42490	0.49736
1012.49634	0.49756
1010.56777	0.49797
1008.63921	0.49854
1006.71064	0.49938
1004.78208	0.50063
1002.85352	0.50242
1000.92495	0.50488
998.99639	0.50812
997.06782	0.51216
995.13926	0.51660
993.21069	0.52089
991.28213	0.52453
989.35356	0.52679
987.42500	0.52761
985.49644	0.52780
983.56787	0.52802
981.63931	0.52848
979.71074	0.52934
977.78218	0.53075
975.85361	0.53263
973.92505	0.53500
971.99648	0.53802
970.06792	0.54154
968.13936	0.54532
966.21079	0.54939
964.28223	0.55379
962.35366	0.55853
960.42510	0.56374
958.49653	0.56935
956.56797	0.57504
954.63940	0.58089
952.71084	0.58716
950.78228	0.59357
948.85371	0.59990
946.92515	0.60638
944.99658	0.61285
943.06802	0.61886
941.13945	0.62457
939.21089	0.63035
937.28232	0.63639
935.35376	0.64250
933.42520	0.64801
931.49663	0.65314
929.56807	0.65864
927.63950	0.66429
925.71094	0.67019
923.78237	0.67701
921.85381	0.68438
919.92524	0.69121
917.99668	0.69734
916.06812	0.70377
914.13955	0.71122
912.21099	0.71957
910.28242	0.72813
908.35386	0.73649
906.42529	0.74493
904.49673	0.75354
902.56816	0.76240
900.63960	0.77161
898.71104	0.78125
896.78247	0.79177
894.85391	0.80284
892.92534	0.81268
890.99678	0.82094
889.06821	0.83016
887.13965	0.84131
885.21108	0.85271
883.28252	0.86412
881.35396	0.87636
879.42539	0.88904
877.49683	0.90058
875.56826	0.91071
873.63970	0.92166
871.71113	0.93420
869.78257	0.94577
867.85400	0.95599
865.92544	0.96707
863.99687	0.97906
862.06831	0.99108
860.13975	1.00236
858.21118	1.01260
856.28262	1.02363
854.35405	1.03688
852.42549	1.05055
850.49692	1.06340
848.56836	1.07559
846.63979	1.08715
844.71123	1.09844
842.78267	1.10835
840.85410	1.11809
838.92554	1.13019
836.99697	1.14141
835.06841	1.14890
833.13984	1.15731
831.21128	1.17008
829.28271	1.18444
827.35415	1.19720
825.42559	1.20724
823.49702	1.21691
821.56846	1.22792
819.63989	1.23859
817.71133	1.24460
815.78276	1.24595
813.85420	1.24922
811.92563	1.25822
809.99707	1.27844
808.06851	1.30401
806.13994	1.31350
804.21138	1.30820
802.28281	1.30473
800.35425	1.30753
798.42568	1.32170
796.49712	1.34686
794.56855	1.36581
792.63999	1.36713
790.71143	1.36250
788.78286	1.35991
786.85430	1.34136
784.92573	1.30257
782.99717	1.25712
781.06860	1.22838
779.14004	1.22602
777.21147	1.23221
775.28291	1.24687
773.35435	1.27002
771.42578	1.30345
769.49722	1.37022
767.56865	1.39036
765.64009	1.29011
763.71152	1.22384
761.78296	1.24168
759.85439	1.27829
757.92583	1.29491
755.99727	1.25533
754.06870	1.15302
752.14014	1.08303
750.21157	1.09768
748.28301	1.12927
746.35444	1.05262
744.42588	0.94319
742.49731	0.88394
740.56875	0.86621
738.64019	0.88535
736.71162	0.92558
734.78306	0.93459
732.85449	0.92961
730.92593	0.91799
728.99736	0.76656
727.06880	0.59210
725.14023	0.52760
723.21167	0.53000
721.28311	0.52475
719.35454	0.45550
717.42598	0.40582
715.49741	0.43890
713.56885	0.65697
711.64028	1.06987
709.71172	0.64961
707.78315	0.46336
705.85459	0.52114
703.92603	0.62080
701.99746	0.55980
700.06890	0.34789
698.14033	0.12279
696.21177	0.03872
694.28320	0.07166
692.35464	0.10976
690.42607	0.17518
688.49751	0.21851
686.56895	0.15181
684.64038	0.10165
682.71182	0.12505
680.78325	0.11560
678.85469	0.06650
676.92612	0.08700
674.99756	0.24738
673.06899	0.32442
671.14043	0.21993
669.21187	0.11548
667.28330	0.07013
665.35474	0.08635
663.42617	0.09932
661.49761	0.10989
659.56904	0.14281
657.64048	0.12853
655.71191	0.06108
653.78335	0.03753
651.85479	0.11093
649.92622	0.19553
647.99766	0.24273
646.06909	0.33506
644.14053	0.50954
642.21196	0.41267
640.28340	0.21150
638.35483	0.13222
636.42627	0.18852
634.49771	0.22393
632.56914	0.11194
630.64058	0.01594
628.71201	0.03291
626.78345	0.08161
624.85488	0.10845
622.92632	0.09795
620.99775	0.07573
619.06919	0.08181
617.14062	0.06426
615.21206	0.01392
613.28350	0.07385
611.35493	0.23980
609.42637	0.27877
607.49780	0.20044
605.56924	0.10901
603.64067	0.06492
601.71211	0.11351
599.78354	0.24111
597.85498	0.32672
595.92642	0.28287
593.99785	0.20061
592.06929	0.14100
590.14072	0.12409
588.21216	0.13649
586.28359	0.12514
584.35503	0.12146
582.42646	0.14206
580.49790	0.13157
578.56934	0.16547
576.64077	0.22659
574.71221	0.21393
572.78364	0.16809
570.85508	0.16295
568.92651	0.14357
566.99795	0.10058
565.06938	0.09257
563.14082	0.07922
561.21226	0.06438
559.28369	0.10273
557.35513	0.12369
555.42656	0.09112
553.49800	0.10395
551.56943	0.13270
549.64087	0.13128
547.71230	0.14916
545.78374	0.19836
543.85518	0.20493
541.92661	0.12037
539.99805	0.06660
538.06948	0.09746
536.14092	0.15095
534.21235	0.14518
532.28379	0.10049
530.35522	0.11390
528.42666	0.16876
526.49810	0.18874
524.56953	0.16783
522.64097	0.13999
520.71240	0.13260
518.78384	0.13060
516.85527	0.08742
514.92671	0.04163
512.99814	0.03068
511.06958	0.03968
509.14102	0.10700
507.21245	0.20061
505.28389	0.26340
503.35532	0.24433
501.42676	0.16497
499.49819	0.12508
