3997.91411	0.06610
3995.98555	0.06668
3994.05698	0.06670
3992.12842	0.06654
3990.19985	0.06690
3988.27129	0.06761
3986.34272	0.06835
3984.41416	0.06895
3982.48560	0.06923
3980.55703	0.06925
3978.62847	0.06928
3976.69990	0.06951
3974.77134	0.06983
3972.84277	0.07024
3970.91421	0.07053
3968.98564	0.07042
3967.05708	0.07030
3965.12852	0.07037
3963.19995	0.07046
3961.27139	0.07063
3959.34282	0.07081
3957.41426	0.07090
3955.48569	0.07097
3953.55713	0.07102
3951.62856	0.07127
3949.70000	0.07183
3947.77144	0.07213
3945.84287	0.07184
3943.91431	0.07154
3941.98574	0.07149
3940.05718	0.07118
3938.12861	0.07075
3936.20005	0.07073
3934.27148	0.07112
3932.34292	0.07164
3930.41436	0.07201
3928.48579	0.07190
3926.55723	0.07164
3924.62866	0.07203
3922.70010	0.07249
3920.77153	0.07210
3918.84297	0.07155
3916.91440	0.07135
3914.98584	0.07108
3913.05728	0.07062
3911.12871	0.07042
3909.20015	0.07067
3907.27158	0.07119
3905.34302	0.07215
3903.41445	0.07370
3901.48589	0.07484
3899.55732	0.07476
3897.62876	0.07373
3895.70020	0.07235
3893.77163	0.07174
3891.84307	0.07238
3889.91450	0.07306
3887.98594	0.07278
3886.05737	0.07277
3884.12881	0.07339
3882.20024	0.07378
3880.27168	0.07399
3878.34312	0.07353
3876.41455	0.07269
3874.48599	0.07293
3872.55742	0.07392
3870.62886	0.07472
3868.70029	0.07515
3866.77173	0.07498
3864.84316	0.07516
3862.91460	0.07584
3860.98604	0.07588
3859.05747	0.07555
3857.12891	0.07575
3855.20034	0.07696
3853.27178	0.07956
3851.34321	0.08126
3849.41465	0.07987
3847.48608	0.07838
3845.55752	0.07825
3843.62896	0.07960
3841.70039	0.08152
3839.77183	0.08328
3837.84326	0.08480
3835.91470	0.08502
3833.98613	0.08436
3832.05757	0.08427
3830.12900	0.08457
3828.20044	0.08476
3826.27187	0.08508
3824.34331	0.08560
3822.41475	0.08673
3820.48618	0.08913
3818.55762	0.09092
3816.62905	0.09136
3814.70049	0.09172
3812.77192	0.09164
3810.84336	0.09161
3808.91479	0.09249
3806.98623	0.09454
3805.05767	0.09678
3803.12910	0.09830
3801.20054	0.10023
3799.27197	0.10174
3797.34341	0.10181
3795.41484	0.10205
3793.48628	0.10252
3791.55771	0.10297
3789.62915	0.10375
3787.70059	0.10505
3785.77202	0.10683
3783.84346	0.10871
3781.91489	0.11025
3779.98633	0.11186
3778.05776	0.11370
3776.12920	0.11506
3774.20063	0.11617
3772.27207	0.11773
3770.34351	0.12008
3768.41494	0.12280
3766.48638	0.12479
3764.55781	0.12639
3762.62925	0.12776
3760.70068	0.12912
3758.77212	0.13140
3756.84355	0.13455
3754.91499	0.13773
3752.98643	0.14113
3751.05786	0.14543
3749.12930	0.15010
3747.20073	0.15302
3745.27217	0.15529
3743.34360	0.15854
3741.41504	0.16088
3739.48647	0.16198
3737.55791	0.16395
3735.62935	0.16821
3733.70078	0.17390
3731.77222	0.17797
3729.84365	0.18070
3727.91509	0.18410
3725.98652	0.18958
3724.05796	0.19685
3722.12939	0.20438
3720.20083	0.21195
3718.27227	0.21984
3716.34370	0.22795
3714.41514	0.23602
3712.48657	0.24557
3710.55801	0.25852
3708.62944	0.27174
3706.70088	0.28255
3704.77231	0.29342
3702.84375	0.30677
3700.91519	0.32403
3698.98662	0.34226
3697.05806	0.35948
3695.12949	0.37841
3693.20093	0.39898
3691.27236	0.42141
3689.34380	0.45025
3687.41523	0.48474
3685.48667	0.51438
3683.55811	0.54045
3681.62954	0.56902
3679.70098	0.60129
3677.77241	0.63537
3675.84385	0.67533
3673.91528	0.72784
3671.98672	0.77084
3670.05815	0.80989
3668.12959	0.86363
3666.20103	0.91218
3664.27246	0.95227
3662.34390	0.99562
3660.41533	1.04296
3658.48677	1.08973
3656.55820	1.13920
3654.62964	1.19401
3652.70107	1.23986
3650.77251	1.27967
3648.84395	1.33516
3646.91538	1.40391
3644.98682	1.45407
3643.05825	1.49230
3641.12969	1.53189
3639.20112	1.57583
3637.27256	1.61992
3635.34399	1.66261
3633.41543	1.70494
3631.48687	1.74444
3629.55830	1.78463
3627.62974	1.83727
3625.70117	1.88673
3623.77261	1.92055
3621.84404	1.95352
3619.91548	1.99238
3617.98691	2.04000
3616.05835	2.08497
3614.12979	2.12087
3612.20122	2.15843
3610.27266	2.19770
3608.34409	2.23805
3606.41553	2.27990
3604.48696	2.31808
3602.55840	2.35327
3600.62983	2.39173
3598.70127	2.43230
3596.77271	2.47049
3594.84414	2.50871
3592.91558	2.54984
3590.98701	2.59109
3589.05845	2.63015
3587.12988	2.67444
3585.20132	2.72183
3583.27275	2.76307
3581.34419	2.80141
3579.41562	2.84133
3577.48706	2.88340
3575.55850	2.92560
3573.62993	2.96807
3571.70137	3.00930
3569.77280	3.04784
3567.84424	3.08899
3565.91567	3.14246
3563.98711	3.19458
3562.05854	3.23531
3560.12998	3.27809
3558.20142	3.32528
3556.27285	3.36980
3554.34429	3.41011
3552.41572	3.45392
3550.48716	3.50302
3548.55859	3.55039
3546.63003	3.59601
3544.70146	3.64590
3542.77290	3.69618
3540.84434	3.74111
3538.91577	3.78366
3536.98721	3.82746
3535.05864	3.87548
3533.13008	3.92489
3531.20151	3.97283
3529.27295	4.02094
3527.34438	4.07120
3525.41582	4.12128
3523.48726	4.17122
3521.55869	4.22125
3519.63013	4.26808
3517.70156	4.31605
3515.77300	4.36409
3513.84443	4.40808
3511.91587	4.45175
3509.98730	4.49964
3508.05874	4.55233
3506.13018	4.60384
3504.20161	4.64932
3502.27305	4.69251
3500.34448	4.73584
3498.41592	4.77950
3496.48735	4.82753
3494.55879	4.87876
3492.63022	4.93056
3490.70166	4.98325
3488.77310	5.03679
3486.84453	5.08975
3484.91597	5.13642
3482.98740	5.17667
3481.05884	5.22022
3479.13027	5.27045
3477.20171	5.32280
3475.27314	5.37541
3473.34458	5.42795
3471.41602	5.47797
3469.48745	5.52147
3467.55889	5.56116
3465.63032	5.61005
3463.70176	5.66845
3461.77319	5.71930
3459.84463	5.76754
3457.91606	5.82701
3455.98750	5.88895
3454.05894	5.94085
3452.13037	5.99425
3450.20181	6.05529
3448.27324	6.10517
3446.34468	6.14849
3444.41611	6.19583
3442.48755	6.25243
3440.55898	6.31512
3438.63042	6.35640
3436.70186	6.38417
3434.77329	6.43696
3432.84473	6.50906
3430.91616	6.56885
3428.98760	6.60785
3427.05903	6.63886
3425.13047	6.68477
3423.20190	6.73850
3421.27334	6.79662
3419.34478	6.85683
3417.41621	6.89449
3415.48765	6.91647
3413.55908	6.95051
3411.63052	7.00630
3409.70195	7.07519
3407.77339	7.15224
3405.84482	7.20047
3403.91626	7.22477
3401.98770	7.25830
3400.05913	7.29236
3398.13057	7.34435
3396.20200	7.41275
3394.27344	7.45202
3392.34487	7.45957
3390.41631	7.48325
3388.48774	7.52566
3386.55918	7.56899
3384.63062	7.61243
3382.70205	7.69090
3380.77349	7.77957
3378.84492	7.79173
3376.91636	7.76723
3374.98779	7.77614
3373.05923	7.84280
3371.13066	7.90400
3369.20210	7.87669
3367.27354	7.82863
3365.34497	7.88897
3363.41641	8.02113
3361.48784	8.06066
3359.55928	8.01338
3357.63071	8.00981
3355.70215	8.09595
3353.77358	8.18324
3351.84502	8.19557
3349.91646	8.12805
3347.98789	8.04202
3346.05933	8.00020
3344.13076	7.99476
3342.20220	8.00887
3340.27363	8.05988
3338.34507	8.15843
3336.41650	8.19739
3334.48794	8.13720
3332.55937	8.06645
3330.63081	8.02861
3328.70225	7.98535
3326.77368	7.95477
3324.84512	8.01390
3322.91655	8.10553
3320.98799	8.13833
3319.05942	8.12386
3317.13086	8.14869
3315.20229	8.24223
3313.27373	8.33761
3311.34517	8.34433
3309.41660	8.28399
3307.48804	8.27824
3305.55947	8.29910
3303.63091	8.24105
3301.70234	8.17409
3299.77378	8.18169
3297.84521	8.17856
3295.91665	8.16651
3293.98809	8.18938
3292.05952	8.19932
3290.13096	8.21928
3288.20239	8.28687
3286.27383	8.38159
3284.34526	8.41281
3282.41670	8.34247
3280.48813	8.25193
3278.55957	8.21352
3276.63101	8.27749
3274.70244	8.41728
3272.77388	8.46507
3270.84531	8.39550
3268.91675	8.36502
3266.98818	8.38572
3265.05962	8.38592
3263.13105	8.34883
3261.20249	8.27212
3259.27393	8.20856
3257.34536	8.27689
3255.41680	8.41317
3253.48823	8.45574
3251.55967	8.43828
3249.63110	8.45814
3247.70254	8.54057
3245.77397	8.56654
3243.84541	8.44553
3241.91685	8.30227
3239.98828	8.23806
3238.05972	8.20949
3236.13115	8.17859
3234.20259	8.19463
3232.27402	8.26877
3230.34546	8.30835
3228.41689	8.26143
3226.48833	8.17680
3224.55977	8.08349
3222.63120	8.03977
3220.70264	8.07322
3218.77407	8.13638
3216.84551	8.15286
3214.91694	8.09799
3212.98838	8.07519
3211.05981	8.13139
3209.13125	8.17016
3207.20269	8.11046
3205.27412	8.01663
3203.34556	7.95297
3201.41699	7.92200
3199.48843	7.92761
3197.55986	7.90778
3195.63130	7.81485
3193.70273	7.73693
3191.77417	7.71925
3189.84561	7.70225
3187.91704	7.65322
3185.98848	7.59620
3184.05991	7.55994
3182.13135	7.53485
3180.20278	7.47858
3178.27422	7.38529
3176.34565	7.30295
3174.41709	7.26889
3172.48853	7.24913
3170.55996	7.19006
3168.63140	7.08921
3166.70283	6.98630
3164.77427	6.92884
3162.84570	6.89258
3160.91714	6.82443
3158.98857	6.74126
3157.06001	6.65452
3155.13145	6.56284
3153.20288	6.48975
3151.27432	6.44109
3149.34575	6.39880
3147.41719	6.34204
3145.48862	6.27064
3143.56006	6.20057
3141.63149	6.12258
3139.70293	6.03009
3137.77437	5.94882
3135.84580	5.88259
3133.91724	5.81773
3131.98867	5.75208
3130.06011	5.68311
3128.13154	5.61112
3126.20298	5.54151
3124.27441	5.47295
3122.34585	5.39660
3120.41729	5.31780
3118.48872	5.24881
3116.56016	5.18576
3114.63159	5.11699
3112.70303	5.04045
3110.77446	4.96309
3108.84590	4.88742
3106.91733	4.81314
3104.98877	4.74383
3103.06021	4.68071
3101.13164	4.61781
3099.20308	4.55038
3097.27451	4.48037
3095.34595	4.41120
3093.41738	4.34308
3091.48882	4.27537
3089.56025	4.20855
3087.63169	4.14182
3085.70312	4.07551
3083.77456	4.01097
3081.84600	3.94790
3079.91743	3.88708
3077.98887	3.82796
3076.06030	3.76624
3074.13174	3.70130
3072.20317	3.63768
3070.27461	3.57861
3068.34604	3.52306
3066.41748	3.46738
3064.48892	3.40965
3062.56035	3.35068
3060.63179	3.29281
3058.70322	3.23774
3056.77466	3.18468
3054.84609	3.13112
3052.91753	3.07646
3050.98896	3.02275
3049.06040	2.97041
3047.13184	2.91876
3045.20327	2.86871
3043.27471	2.82033
3041.34614	2.77187
3039.41758	2.72298
3037.48901	2.67493
3035.56045	2.62830
3033.63188	2.58286
3031.70332	2.53778
3029.77476	2.49269
3027.84619	2.44839
3025.91763	2.40560
3023.98906	2.36356
3022.06050	2.32152
3020.13193	2.28020
3018.20337	2.23972
3016.27480	2.19996
3014.34624	2.16145
3012.41768	2.12383
3010.48911	2.08628
3008.56055	2.04857
3006.63198	2.01116
3004.70342	1.97470
3002.77485	1.93904
3000.84629	1.90384
2998.91772	1.86954
2996.98916	1.83597
2995.06060	1.80249
2993.13203	1.76917
2991.20347	1.73638
2989.27490	1.70447
2987.34634	1.67327
2985.41777	1.64274
2983.48921	1.61295
2981.56064	1.58298
2979.63208	1.55286
2977.70352	1.52389
2975.77495	1.49588
2973.84639	1.46769
2971.91782	1.43921
2969.98926	1.41124
2968.06069	1.38453
2966.13213	1.35868
2964.20356	1.33288
2962.27500	1.30720
2960.34644	1.28193
2958.41787	1.25746
2956.48931	1.23401
2954.56074	1.21115
2952.63218	1.18834
2950.70361	1.16553
2948.77505	1.14311
2946.84648	1.12159
2944.91792	1.10072
2942.98936	1.07979
2941.06079	1.05887
2939.13223	1.03802
2937.20366	1.01718
2935.27510	0.99701
2933.34653	0.97766
2931.41797	0.95849
2929.48940	0.93968
2927.56084	0.92207
2925.63228	0.90543
2923.70371	0.88940
2921.77515	0.87422
2919.84658	0.85942
2917.91802	0.84437
2915.98945	0.82912
2914.06089	0.81373
2912.13232	0.79840
2910.20376	0.78376
2908.27520	0.76972
2906.34663	0.75571
2904.41807	0.74169
2902.48950	0.72823
2900.56094	0.71577
2898.63237	0.70379
2896.70381	0.69170
2894.77524	0.67957
2892.84668	0.66754
2890.91812	0.65573
2888.98955	0.64424
2887.06099	0.63301
2885.13242	0.62188
2883.20386	0.61079
2881.27529	0.59994
2879.34673	0.58930
2877.41816	0.57884
2875.48960	0.56868
2873.56104	0.55863
2871.63247	0.54849
2869.70391	0.53861
2867.77534	0.52936
2865.84678	0.52031
2863.91821	0.51100
2861.98965	0.50158
2860.06108	0.49238
2858.13252	0.48352
2856.20396	0.47512
2854.27539	0.46741
2852.34683	0.46020
2850.41826	0.45316
2848.48970	0.44625
2846.56113	0.43927
2844.63257	0.43211
2842.70400	0.42528
2840.77544	0.41898
2838.84687	0.41300
2836.91831	0.40734
2834.98975	0.40184
2833.06118	0.39629
2831.13262	0.39055
2829.20405	0.38473
2827.27549	0.37912
2825.34692	0.37377
2823.41836	0.36838
2821.48979	0.36284
2819.56123	0.35716
2817.63267	0.35151
2815.70410	0.34615
2813.77554	0.34106
2811.84697	0.33613
2809.91841	0.33121
2807.98984	0.32608
2806.06128	0.32099
2804.13271	0.31619
2802.20415	0.31158
2800.27559	0.30710
2798.34702	0.30279
2796.41846	0.29860
2794.48989	0.29451
2792.56133	0.29049
2790.63276	0.28645
2788.70420	0.28225
2786.77563	0.27808
2784.84707	0.27416
2782.91851	0.27036
2780.98994	0.26659
2779.06138	0.26292
2777.13281	0.25936
2775.20425	0.25594
2773.27568	0.25264
2771.34712	0.24947
2769.41855	0.24640
2767.48999	0.24313
2765.56143	0.23968
2763.63286	0.23656
2761.70430	0.23378
2759.77573	0.23097
2757.84717	0.22809
2755.91860	0.22526
2753.99004	0.22250
2752.06147	0.21981
2750.13291	0.21722
2748.20435	0.21475
2746.27578	0.21228
2744.34722	0.20978
2742.41865	0.20735
2740.49009	0.20498
2738.56152	0.20260
2736.63296	0.20031
2734.70439	0.19818
2732.77583	0.19619
2730.84727	0.19438
2728.91870	0.19247
2726.99014	0.19038
2725.06157	0.18838
2723.13301	0.18652
2721.20444	0.18473
2719.27588	0.18297
2717.34731	0.18120
2715.41875	0.17948
2713.49019	0.17789
2711.56162	0.17622
2709.63306	0.17448
2707.70449	0.17289
2705.77593	0.17148
2703.84736	0.17007
2701.91880	0.16868
2699.99023	0.16727
2698.06167	0.16568
2696.13311	0.16420
2694.20454	0.16303
2692.27598	0.16196
2690.34741	0.16092
2688.41885	0.15994
2686.49028	0.15882
2684.56172	0.15758
2682.63315	0.15648
2680.70459	0.15555
2678.77603	0.15467
2676.84746	0.15372
2674.91890	0.15269
2672.99033	0.15183
2671.06177	0.15115
2669.13320	0.15037
2667.20464	0.14944
2665.27607	0.14861
2663.34751	0.14789
2661.41895	0.14711
2659.49038	0.14635
2657.56182	0.14578
2655.63325	0.14530
2653.70469	0.14484
2651.77612	0.14427
2649.84756	0.14363
2647.91899	0.14307
2645.99043	0.14260
2644.06187	0.14215
2642.13330	0.14179
2640.20474	0.14147
2638.27617	0.14108
2636.34761	0.14070
2634.41904	0.14036
2632.49048	0.14003
2630.56191	0.13979
2628.63335	0.13962
2626.70479	0.13947
2624.77622	0.13936
2622.84766	0.13930
2620.91909	0.13915
2618.99053	0.13893
2617.06196	0.13874
2615.13340	0.13863
2613.20483	0.13861
2611.27627	0.13862
2609.34771	0.13873
2607.41914	0.13890
2605.49058	0.13903
2603.56201	0.13908
2601.63345	0.13916
2599.70488	0.13932
2597.77632	0.13946
2595.84775	0.13953
2593.91919	0.13970
2591.99062	0.13994
2590.06206	0.14014
2588.13350	0.14048
2586.20493	0.14088
2584.27637	0.14115
2582.34780	0.14142
2580.41924	0.14179
2578.49067	0.14211
2576.56211	0.14229
2574.63354	0.14261
2572.70498	0.14323
2570.77642	0.14392
2568.84785	0.14444
2566.91929	0.14479
2564.99072	0.14510
2563.06216	0.14560
2561.13359	0.14624
2559.20503	0.14683
2557.27646	0.14734
2555.34790	0.14789
2553.41934	0.14846
2551.49077	0.14902
2549.56221	0.14964
2547.63364	0.15028
2545.70508	0.15089
2543.77651	0.15150
2541.84795	0.15224
2539.91938	0.15309
2537.99082	0.15387
2536.06226	0.15454
2534.13369	0.15525
2532.20513	0.15613
2530.27656	0.15705
2528.34800	0.15786
2526.41943	0.15860
2524.49087	0.15937
2522.56230	0.16015
2520.63374	0.16091
2518.70518	0.16175
2516.77661	0.16270
2514.84805	0.16366
2512.91948	0.16446
2510.99092	0.16518
2509.06235	0.16603
2507.13379	0.16694
2505.20522	0.16778
2503.27666	0.16869
2501.34810	0.16973
2499.41953	0.17077
2497.49097	0.17173
2495.56240	0.17263
2493.63384	0.17348
2491.70527	0.17438
2489.77671	0.17531
2487.84814	0.17618
2485.91958	0.17702
2483.99102	0.17796
2482.06245	0.17903
2480.13389	0.18009
2478.20532	0.18109
2476.27676	0.18213
2474.34819	0.18314
2472.41963	0.18406
2470.49106	0.18501
2468.56250	0.18597
2466.63394	0.18688
2464.70537	0.18781
2462.77681	0.18881
2460.84824	0.18998
2458.91968	0.19121
2456.99111	0.19224
2455.06255	0.19314
2453.13398	0.19414
2451.20542	0.19519
2449.27686	0.19617
2447.34829	0.19719
2445.41973	0.19840
2443.49116	0.19961
2441.56260	0.20066
2439.63403	0.20166
2437.70547	0.20269
2435.77690	0.20379
2433.84834	0.20494
2431.91978	0.20612
2429.99121	0.20724
2428.06265	0.20829
2426.13408	0.20938
2424.20552	0.21055
2422.27695	0.21170
2420.34839	0.21284
2418.41982	0.21402
2416.49126	0.21512
2414.56270	0.21618
2412.63413	0.21744
2410.70557	0.21880
2408.77700	0.22007
2406.84844	0.22131
2404.91987	0.22255
2402.99131	0.22371
2401.06274	0.22486
2399.13418	0.22615
2397.20562	0.22755
2395.27705	0.22888
2393.34849	0.23006
2391.41992	0.23121
2389.49136	0.23236
2387.56279	0.23343
2385.63423	0.23424
2383.70566	0.23448
2381.77710	0.23401
2379.84854	0.23303
2377.91997	0.23167
2375.99141	0.22982
2374.06284	0.22738
2372.13428	0.22434
2370.20571	0.22083
2368.27715	0.21735
2366.34858	0.21480
2364.42002	0.21341
2362.49146	0.21257
2360.56289	0.21207
2358.63433	0.21312
2356.70576	0.21698
2354.77720	0.22290
2352.84863	0.23001
2350.92007	0.23715
2348.99150	0.24175
2347.06294	0.24275
2345.13437	0.24107
2343.20581	0.23900
2341.27725	0.23876
2339.34868	0.24060
2337.42012	0.24338
2335.49155	0.24628
2333.56299	0.24901
2331.63442	0.25130
2329.70586	0.25383
2327.77729	0.25702
2325.84873	0.26017
2323.92017	0.26324
2321.99160	0.26650
2320.06304	0.26996
2318.13447	0.27377
2316.20591	0.27750
2314.27734	0.28065
2312.34878	0.28345
2310.42021	0.28648
2308.49165	0.28981
2306.56309	0.29310
2304.63452	0.29610
2302.70596	0.29866
2300.77739	0.30097
2298.84883	0.30330
2296.92026	0.30572
2294.99170	0.30817
2293.06313	0.31070
2291.13457	0.31334
2289.20601	0.31596
2287.27744	0.31841
2285.34888	0.32074
2283.42031	0.32289
2281.49175	0.32482
2279.56318	0.32667
2277.63462	0.32857
2275.70605	0.33055
2273.77749	0.33261
2271.84893	0.33479
2269.92036	0.33698
2267.99180	0.33903
2266.06323	0.34100
2264.13467	0.34310
2262.20610	0.34538
2260.27754	0.34778
2258.34897	0.35016
2256.42041	0.35240
2254.49185	0.35462
2252.56328	0.35690
2250.63472	0.35919
2248.70615	0.36150
2246.77759	0.36379
2244.84902	0.36596
2242.92046	0.36811
2240.99189	0.37039
2239.06333	0.37276
2237.13477	0.37517
2235.20620	0.37750
2233.27764	0.37959
2231.34907	0.38160
2229.42051	0.38387
2227.49194	0.38634
2225.56338	0.38874
2223.63481	0.39100
2221.70625	0.39322
2219.77769	0.39548
2217.84912	0.39773
2215.92056	0.39988
2213.99199	0.40193
2212.06343	0.40403
2210.13486	0.40623
2208.20630	0.40836
2206.27773	0.41040
2204.34917	0.41255
2202.42061	0.41480
2200.49204	0.41695
2198.56348	0.41903
2196.63491	0.42102
2194.70635	0.42288
2192.77778	0.42471
2190.84922	0.42661
2188.92065	0.42844
2186.99209	0.43013
2185.06353	0.43178
2183.13496	0.43348
2181.20640	0.43522
2179.27783	0.43699
2177.34927	0.43869
2175.42070	0.44028
2173.49214	0.44181
2171.56357	0.44334
2169.63501	0.44487
2167.70645	0.44622
2165.77788	0.44733
2163.84932	0.44839
2161.92075	0.44961
2159.99219	0.45092
2158.06362	0.45211
2156.13506	0.45313
2154.20649	0.45402
2152.27793	0.45480
2150.34937	0.45543
2148.42080	0.45601
2146.49224	0.45659
2144.56367	0.45712
2142.63511	0.45763
2140.70654	0.45815
2138.77798	0.45858
2136.84941	0.45876
2134.92085	0.45869
2132.99229	0.45857
2131.06372	0.45851
2129.13516	0.45833
2127.20659	0.45803
2125.27803	0.45783
2123.34946	0.45766
2121.42090	0.45728
2119.49233	0.45671
2117.56377	0.45611
2115.63521	0.45541
2113.70664	0.45452
2111.77808	0.45359
2109.84951	0.45269
2107.92095	0.45176
2105.99238	0.45076
2104.06382	0.44969
2102.13525	0.44844
2100.20669	0.44696
2098.27812	0.44531
2096.34956	0.44363
2094.42100	0.44210
2092.49243	0.44069
2090.56387	0.43914
2088.63530	0.43734
2086.70674	0.43552
2084.77817	0.43373
2082.84961	0.43189
2080.92104	0.42997
2078.99248	0.42799
2077.06392	0.42589
2075.13535	0.42366
2073.20679	0.42136
2071.27822	0.41910
2069.34966	0.41687
2067.42109	0.41465
2065.49253	0.41245
2063.56396	0.41007
2061.63540	0.40750
2059.70684	0.40499
2057.77827	0.40251
2055.84971	0.39996
2053.92114	0.39741
2051.99258	0.39487
2050.06401	0.39227
2048.13545	0.38969
2046.20688	0.38715
2044.27832	0.38459
2042.34976	0.38187
2040.42119	0.37904
2038.49263	0.37627
2036.56406	0.37354
2034.63550	0.37079
2032.70693	0.36805
2030.77837	0.36532
2028.84980	0.36254
2026.92124	0.35975
2024.99268	0.35694
2023.06411	0.35418
2021.13555	0.35148
2019.20698	0.34880
2017.27842	0.34610
2015.34985	0.34330
2013.42129	0.34046
2011.49272	0.33769
2009.56416	0.33497
2007.63560	0.33223
2005.70703	0.32953
2003.77847	0.32693
2001.84990	0.32431
1999.92134	0.32161
1997.99277	0.31891
1996.06421	0.31629
1994.13564	0.31383
1992.20708	0.31150
1990.27852	0.30902
1988.34995	0.30638
1986.42139	0.30377
1984.49282	0.30132
1982.56426	0.29901
1980.63569	0.29668
1978.70713	0.29432
1976.77856	0.29204
1974.85000	0.28985
1972.92144	0.28765
1970.99287	0.28544
1969.06431	0.28339
1967.13574	0.28143
1965.20718	0.27940
1963.27861	0.27735
1961.35005	0.27538
1959.42148	0.27350
1957.49292	0.27169
1955.56436	0.26984
1953.63579	0.26796
1951.70723	0.26622
1949.77866	0.26458
1947.85010	0.26295
1945.92153	0.26146
1943.99297	0.26019
1942.06440	0.25891
1940.13584	0.25737
1938.20728	0.25576
1936.27871	0.25428
1934.35015	0.25290
1932.42158	0.25165
1930.49302	0.25052
1928.56445	0.24943
1926.63589	0.24840
1924.70732	0.24750
1922.77876	0.24659
1920.85020	0.24558
1918.92163	0.24466
1916.99307	0.24372
1915.06450	0.24269
1913.13594	0.24179
1911.20737	0.24115
1909.27881	0.24060
1907.35024	0.23994
1905.42168	0.23915
1903.49312	0.23844
1901.56455	0.23791
1899.63599	0.23737
1897.70742	0.23685
1895.77886	0.23651
1893.85029	0.23623
1891.92173	0.23582
1889.99316	0.23545
1888.06460	0.23510
1886.13604	0.23474
1884.20747	0.23451
1882.27891	0.23437
1880.35034	0.23430
1878.42178	0.23429
1876.49321	0.23435
1874.56465	0.23444
1872.63608	0.23461
1870.70752	0.23494
1868.77896	0.23553
1866.85039	0.23586
1864.92183	0.23569
1862.99326	0.23559
1861.06470	0.23577
1859.13613	0.23614
1857.20757	0.23651
1855.27900	0.23692
1853.35044	0.23732
1851.42187	0.23783
1849.49331	0.23854
1847.56475	0.23939
1845.63618	0.24032
1843.70762	0.24130
1841.77905	0.24190
1839.85049	0.24218
1837.92192	0.24288
1835.99336	0.24387
1834.06479	0.24486
1832.13623	0.24588
1830.20767	0.24733
1828.27910	0.24890
1826.35054	0.25002
1824.42197	0.25120
1822.49341	0.25242
1820.56484	0.25369
1818.63628	0.25513
1816.70771	0.25677
1814.77915	0.25841
1812.85059	0.26018
1810.92202	0.26225
1808.99346	0.26432
1807.06489	0.26620
1805.13633	0.26806
1803.20776	0.27031
1801.27920	0.27291
1799.35063	0.27573
1797.42207	0.27825
1795.49351	0.28070
1793.56494	0.28363
1791.63638	0.28740
1789.70781	0.29090
1787.77925	0.29339
1785.85068	0.29636
1783.92212	0.30006
1781.99355	0.30415
1780.06499	0.30850
1778.13643	0.31290
1776.20786	0.31697
1774.27930	0.32131
1772.35073	0.32726
1770.42217	0.33376
1768.49360	0.33909
1766.56504	0.34419
1764.63647	0.34947
1762.70791	0.35533
1760.77935	0.36279
1758.85078	0.36987
1756.92222	0.37693
1754.99365	0.38458
1753.06509	0.39163
1751.13652	0.40017
1749.20796	0.41099
1747.27939	0.42165
1745.35083	0.43100
1743.42227	0.44082
1741.49370	0.45154
1739.56514	0.46410
1737.63657	0.47675
1735.70801	0.48788
1733.77944	0.50456
1731.85088	0.52448
1729.92231	0.54012
1727.99375	0.55579
1726.06519	0.57263
1724.13662	0.59117
1722.20806	0.61122
1720.27949	0.62967
1718.35093	0.65135
1716.42236	0.68362
1714.49380	0.71432
1712.56523	0.73886
1710.63667	0.76255
1708.70811	0.78828
1706.77954	0.81753
1704.85098	0.85192
1702.92241	0.88243
1700.99385	0.91290
1699.06528	0.95818
1697.13672	0.99901
1695.20815	1.04009
1693.27959	1.07998
1691.35103	1.11200
1689.42246	1.14871
1687.49390	1.18697
1685.56533	1.22344
1683.63677	1.27987
1681.70820	1.33849
1679.77964	1.37544
1677.85107	1.41033
1675.92251	1.45084
1673.99395	1.50132
1672.06538	1.54573
1670.13682	1.58841
1668.20825	1.64347
1666.27969	1.68744
1664.35112	1.72372
1662.42256	1.76815
1660.49399	1.81693
1658.56543	1.85370
1656.63687	1.88323
1654.70830	1.91199
1652.77974	1.96343
1650.85117	2.01659
1648.92261	2.03921
1646.99404	2.06929
1645.06548	2.10390
1643.13691	2.12664
1641.20835	2.14155
1639.27979	2.15422
1637.35122	2.16223
1635.42266	2.16567
1633.49409	2.16340
1631.56553	2.15471
1629.63696	2.14272
1627.70840	2.12116
1625.77983	2.09523
1623.85127	2.06121
1621.92271	2.01781
1619.99414	1.97837
1618.06558	1.93946
1616.13701	1.88290
1614.20845	1.82366
1612.27988	1.77823
1610.35132	1.73119
1608.42275	1.67987
1606.49419	1.62881
1604.56562	1.58196
1602.63706	1.53684
1600.70850	1.49192
1598.77993	1.44967
1596.85137	1.40958
1594.92280	1.37054
1592.99424	1.33273
1591.06567	1.29773
1589.13711	1.26422
1587.20854	1.23237
1585.27998	1.20234
1583.35142	1.17370
1581.42285	1.14708
1579.49429	1.12379
1577.56572	1.10225
1575.63716	1.07520
1573.70859	1.05048
1571.78003	1.03362
1569.85146	1.01502
1567.92290	0.99359
1565.99434	0.97648
1564.06577	0.96155
1562.13721	0.94845
1560.20864	0.93672
1558.28008	0.91697
1556.35151	0.89937
1554.42295	0.88838
1552.49438	0.87710
1550.56582	0.86591
1548.63726	0.85489
1546.70869	0.84544
1544.78013	0.83709
1542.85156	0.82883
1540.92300	0.81954
1538.99443	0.80688
1537.06587	0.79749
1535.13730	0.79116
1533.20874	0.78359
1531.28018	0.77554
1529.35161	0.76937
1527.42305	0.76336
1525.49448	0.75694
1523.56592	0.75133
1521.63735	0.74586
1519.70879	0.73952
1517.78022	0.73367
1515.85166	0.72779
1513.92310	0.72230
1511.99453	0.71794
1510.06597	0.71427
1508.13740	0.71093
1506.20884	0.70547
1504.28027	0.69984
1502.35171	0.69622
1500.42314	0.69319
1498.49458	0.69040
1496.56602	0.68733
1494.63745	0.68380
1492.70889	0.68084
1490.78032	0.67873
1488.85176	0.67632
1486.92319	0.67311
1484.99463	0.67001
1483.06606	0.66747
1481.13750	0.66523
1479.20894	0.66306
1477.28037	0.66109
1475.35181	0.65914
1473.42324	0.65679
1471.49468	0.65339
1469.56611	0.64993
1467.63755	0.64717
1465.70898	0.64472
1463.78042	0.64214
1461.85186	0.63962
1459.92329	0.63780
1457.99473	0.63630
1456.06616	0.63345
1454.13760	0.62994
1452.20903	0.62713
1450.28047	0.62468
1448.35190	0.62237
1446.42334	0.61986
1444.49478	0.61746
1442.56621	0.61552
1440.63765	0.61393
1438.70908	0.61267
1436.78052	0.61141
1434.85195	0.60974
1432.92339	0.60809
1430.99482	0.60676
1429.06626	0.60538
1427.13770	0.60394
1425.20913	0.60274
1423.28057	0.60166
1421.35200	0.60059
1419.42344	0.59954
1417.49487	0.59800
1415.56631	0.59594
1413.63774	0.59405
1411.70918	0.59237
1409.78062	0.59082
1407.85205	0.58938
1405.92349	0.58801
1403.99492	0.58648
1402.06636	0.58481
1400.13779	0.58338
1398.20923	0.58227
1396.28066	0.58116
1394.35210	0.57966
1392.42354	0.57784
1390.49497	0.57622
1388.56641	0.57498
1386.63784	0.57382
1384.70928	0.57240
1382.78071	0.57100
1380.85215	0.56983
1378.92358	0.56879
1376.99502	0.56783
1375.06646	0.56695
1373.13789	0.56598
1371.20933	0.56493
1369.28076	0.56400
1367.35220	0.56314
1365.42363	0.56236
1363.49507	0.56173
1361.56650	0.56099
1359.63794	0.55998
1357.70937	0.55898
1355.78081	0.55804
1353.85225	0.55718
1351.92368	0.55634
1349.99512	0.55541
1348.06655	0.55446
1346.13799	0.55351
1344.20942	0.55251
1342.28086	0.55167
1340.35229	0.55116
1338.42373	0.55059
1336.49517	0.54964
1334.56660	0.54859
1332.63804	0.54770
1330.70947	0.54691
1328.78091	0.54607
1326.85234	0.54512
1324.92378	0.54424
1322.99521	0.54363
1321.06665	0.54310
1319.13809	0.54248
1317.20952	0.54174
1315.28096	0.54093
1313.35239	0.54011
1311.42383	0.53931
1309.49526	0.53853
1307.56670	0.53769
1305.63813	0.53676
1303.70957	0.53576
1301.78101	0.53475
1299.85244	0.53378
1297.92388	0.53285
1295.99531	0.53201
1294.06675	0.53128
1292.13818	0.53055
1290.20962	0.52986
1288.28105	0.52938
1286.35249	0.52902
1284.42393	0.52853
1282.49536	0.52801
1280.56680	0.52756
1278.63823	0.52703
1276.70967	0.52645
1274.78110	0.52597
1272.85254	0.52558
1270.92397	0.52523
1268.99541	0.52482
1267.06685	0.52431
1265.13828	0.52375
1263.20972	0.52326
1261.28115	0.52294
1259.35259	0.52257
1257.42402	0.52216
1255.49546	0.52197
1253.56689	0.52180
1251.63833	0.52140
1249.70977	0.52100
1247.78120	0.52083
1245.85264	0.52070
1243.92407	0.52039
1241.99551	0.52000
1240.06694	0.51961
1238.13838	0.51918
1236.20981	0.51870
1234.28125	0.51807
1232.35269	0.51730
1230.42412	0.51661
1228.49556	0.51609
1226.56699	0.51559
1224.63843	0.51499
1222.70986	0.51428
1220.78130	0.51366
1218.85273	0.51312
1216.92417	0.51249
1214.99561	0.51184
1213.06704	0.51123
1211.13848	0.51060
1209.20991	0.51000
1207.28135	0.50945
1205.35278	0.50880
1203.42422	0.50811
1201.49565	0.50760
1199.56709	0.50722
1197.63853	0.50681
1195.70996	0.50645
1193.78140	0.50611
1191.85283	0.50572
1189.92427	0.50534
1187.99570	0.50500
1186.06714	0.50477
1184.13857	0.50474
1182.21001	0.50474
1180.28145	0.50470
1178.35288	0.50482
1176.42432	0.50520
1174.49575	0.50576
1172.56719	0.50630
1170.63862	0.50669
1168.71006	0.50697
1166.78149	0.50719
1164.85293	0.50734
1162.92437	0.50741
1160.99580	0.50736
1159.06724	0.50709
1157.13867	0.50645
1155.21011	0.50549
1153.28154	0.50428
1151.35298	0.50278
1149.42441	0.50096
1147.49585	0.49896
1145.56729	0.49693
1143.63872	0.49471
1141.71016	0.49227
1139.78159	0.48996
1137.85303	0.48787
1135.92446	0.48587
1133.99590	0.48415
1132.06733	0.48258
1130.13877	0.48100
1128.21021	0.47958
1126.28164	0.47837
1124.35308	0.47715
1122.42451	0.47579
1120.49595	0.47461
1118.56738	0.47384
1116.63882	0.47325
1114.71025	0.47258
1112.78169	0.47204
1110.85312	0.47189
1108.92456	0.47221
1106.99600	0.47304
1105.06743	0.47432
1103.13887	0.47579
1101.21030	0.47737
1099.28174	0.47937
1097.35317	0.48200
1095.42461	0.48494
1093.49604	0.48810
1091.56748	0.49184
1089.63892	0.49632
1087.71035	0.50162
1085.78179	0.50772
1083.85322	0.51415
1081.92466	0.52035
1079.99609	0.52587
1078.06753	0.52992
1076.13896	0.53139
1074.21040	0.52980
1072.28184	0.52561
1070.35327	0.51970
1068.42471	0.51305
1066.49614	0.50642
1064.56758	0.50017
1062.63901	0.49456
1060.71045	0.48979
1058.78188	0.48565
1056.85332	0.48177
1054.92476	0.47839
1052.99619	0.47565
1051.06763	0.47343
1049.13906	0.47182
1047.21050	0.47049
1045.28193	0.46910
1043.35337	0.46788
1041.42480	0.46716
1039.49624	0.46671
1037.56768	0.46617
1035.63911	0.46568
1033.71055	0.46533
1031.78198	0.46514
1029.85342	0.46522
1027.92485	0.46542
1025.99629	0.46571
1024.06772	0.46629
1022.13916	0.46715
1020.21060	0.46821
1018.28203	0.46948
1016.35347	0.47088
1014.42490	0.47233
1012.49634	0.47369
1010.56777	0.47504
1008.63921	0.47670
1006.71064	0.47876
1004.78208	0.48093
1002.85352	0.48319
1000.92495	0.48587
998.99639	0.48900
997.06782	0.49245
995.13926	0.49635
993.21069	0.50048
991.28213	0.50409
989.35356	0.50674
987.42500	0.50861
985.49644	0.50996
983.56787	0.51098
981.63931	0.51216
979.71074	0.51398
977.78218	0.51631
975.85361	0.51892
973.92505	0.52195
971.99648	0.52532
970.06792	0.52885
968.13936	0.53272
966.21079	0.53710
964.28223	0.54178
962.35366	0.54656
960.42510	0.55160
958.49653	0.55715
956.56797	0.56312
954.63940	0.56921
952.71084	0.57523
950.78228	0.58144
948.85371	0.58798
946.92515	0.59452
944.99658	0.60084
943.06802	0.60690
941.13945	0.61266
939.21089	0.61836
937.28232	0.62416
935.35376	0.62988
933.42520	0.63534
931.49663	0.64079
929.56807	0.64663
927.63950	0.65276
925.71094	0.65922
923.78237	0.66604
921.85381	0.67263
919.92524	0.67918
917.99668	0.68612
916.06812	0.69327
914.13955	0.70089
912.21099	0.70891
910.28242	0.71677
908.35386	0.72463
906.42529	0.73295
904.49673	0.74159
902.56816	0.75026
900.63960	0.75996
898.71104	0.77090
896.78247	0.78077
894.85391	0.78943
892.92534	0.79919
890.99678	0.80978
889.06821	0.82028
887.13965	0.83077
885.21108	0.84173
883.28252	0.85338
881.35396	0.86476
879.42539	0.87551
877.49683	0.88647
875.56826	0.89872
873.63970	0.91182
871.71113	0.92393
869.78257	0.93410
867.85400	0.94323
865.92544	0.95307
863.99687	0.96539
862.06831	0.97988
860.13975	0.99311
858.21118	1.00416
856.28262	1.01474
854.35405	1.02481
852.42549	1.03451
850.49692	1.04524
848.56836	1.05747
846.63979	1.07043
844.71123	1.08371
842.78267	1.09711
840.85410	1.11009
838.92554	1.12025
836.99697	1.12787
835.06841	1.13736
833.13984	1.15059
831.21128	1.16440
829.28271	1.17463
827.35415	1.18446
825.42559	1.19612
823.49702	1.20514
821.56846	1.21421
819.63989	1.23026
817.71133	1.24893
815.78276	1.26166
813.85420	1.26661
811.92563	1.26915
809.99707	1.28204
808.06851	1.30083
806.13994	1.30942
804.21138	1.31291
802.28281	1.32142
800.35425	1.33641
798.42568	1.35882
796.49712	1.37657
794.56855	1.36031
792.63999	1.33930
790.71143	1.38100
788.78286	1.46541
786.85430	1.47983
784.92573	1.43089
782.99717	1.39720
781.06860	1.39111
779.14004	1.38378
777.21147	1.39002
775.28291	1.44557
773.35435	1.47035
771.42578	1.42201
769.49722	1.37050
767.56865	1.33877
765.64009	1.32071
763.71152	1.35494
761.78296	1.40240
759.85439	1.41716
757.92583	1.43590
755.99727	1.36750
754.06870	1.23184
752.14014	1.15987
750.21157	1.15323
748.28301	1.11776
746.35444	1.00144
744.42588	0.90431
742.49731	0.92305
740.56875	0.99984
738.64019	0.96031
736.71162	0.86647
734.78306	0.83040
732.85449	0.83079
730.92593	0.75674
728.99736	0.62047
727.06880	0.51879
725.14023	0.46879
723.21167	0.45076
721.28311	0.42525
719.35454	0.35479
717.42598	0.26211
715.49741	0.19881
713.56885	0.21239
711.64028	0.26408
709.71172	0.29800
707.78315	0.35475
705.85459	0.34106
703.92603	0.20067
701.99746	0.07864
700.06890	0.05473
698.14033	0.13176
696.21177	0.27664
694.28320	0.26007
692.35464	0.09753
690.42607	0.04578
688.49751	0.09222
686.56895	0.11670
684.64038	0.02188
682.71182	-0.04064
680.78325	0.01101
678.85469	0.07771
676.92612	0.07685
674.99756	0.07681
673.06899	0.10877
671.14043	0.12717
669.21187	0.12969
667.28330	0.15875
665.35474	0.21904
663.42617	0.22727
661.49761	0.18907
659.56904	0.20037
657.64048	0.22590
655.71191	0.24988
653.78335	0.25486
651.85479	0.28668
649.92622	0.39782
647.99766	0.45441
646.06909	0.28488
644.14053	0.08925
642.21196	0.01554
640.28340	0.03450
638.35483	0.07961
636.42627	0.07163
634.49771	0.02921
632.56914	0.04005
630.64058	0.05674
628.71201	0.04276
626.78345	0.04764
624.85488	0.08186
622.92632	0.09891
620.99775	0.08425
619.06919	0.04005
617.14062	0.00121
615.21206	0.02894
613.28350	0.08724
611.35493	0.15193
609.42637	0.18468
607.49780	0.13376
605.56924	0.10658
603.64067	0.15740
601.71211	0.21003
599.78354	0.21140
597.85498	0.17737
595.92642	0.10099
593.99785	0.02732
592.06929	0.02369
590.14072	0.06643
588.21216	0.11393
586.28359	0.18340
584.35503	0.20815
582.42646	0.12665
580.49790	0.09471
578.56934	0.11188
576.64077	0.11465
574.71221	0.11355
572.78364	0.13819
570.85508	0.18462
568.92651	0.21370
566.99795	0.19218
565.06938	0.12252
563.14082	0.05108
561.21226	0.03292
559.28369	0.05426
557.35513	0.13148
555.42656	0.28275
553.49800	0.32447
551.56943	0.25601
549.64087	0.20934
547.71230	0.16166
545.78374	0.13408
543.85518	0.14101
541.92661	0.12834
539.99805	0.09058
538.06948	0.07345
536.14092	0.09738
534.21235	0.12977
532.28379	0.12537
530.35522	0.10531
528.42666	0.10665
526.49810	0.13361
524.56953	0.19156
522.64097	0.24330
520.71240	0.20042
518.78384	0.14660
516.85527	0.12067
514.92671	0.10388
512.99814	0.09327
511.06958	0.07829
509.14102	0.07592
507.21245	0.11224
505.28389	0.12888
503.35532	0.09506
501.42676	0.05696
499.49819	0.08173
