3997.91411	0.06873
3995.98555	0.06885
3994.05698	0.06911
3992.12842	0.06971
3990.19985	0.07026
3988.27129	0.07047
3986.34272	0.07052
3984.41416	0.07064
3982.48560	0.07097
3980.55703	0.07139
3978.62847	0.07162
3976.69990	0.07164
3974.77134	0.07184
3972.84277	0.07215
3970.91421	0.07206
3968.98564	0.07188
3967.05708	0.07218
3965.12852	0.07256
3963.19995	0.07265
3961.27139	0.07265
3959.34282	0.07256
3957.41426	0.07237
3955.48569	0.07253
3953.55713	0.07277
3951.62856	0.07256
3949.70000	0.07238
3947.77144	0.07275
3945.84287	0.07315
3943.91431	0.07303
3941.98574	0.07270
3940.05718	0.07269
3938.12861	0.07300
3936.20005	0.07313
3934.27148	0.07286
3932.34292	0.07246
3930.41436	0.07222
3928.48579	0.07226
3926.55723	0.07228
3924.62866	0.07208
3922.70010	0.07161
3920.77153	0.07078
3918.84297	0.07019
3916.91440	0.07068
3914.98584	0.07173
3913.05728	0.07206
3911.12871	0.07164
3909.20015	0.07133
3907.27158	0.07144
3905.34302	0.07116
3903.41445	0.07028
3901.48589	0.06980
3899.55732	0.07011
3897.62876	0.07079
3895.70020	0.07142
3893.77163	0.07143
3891.84307	0.07102
3889.91450	0.07107
3887.98594	0.07143
3886.05737	0.07159
3884.12881	0.07169
3882.20024	0.07157
3880.27168	0.07146
3878.34312	0.07183
3876.41455	0.07210
3874.48599	0.07187
3872.55742	0.07155
3870.62886	0.07145
3868.70029	0.07189
3866.77173	0.07228
3864.84316	0.07198
3862.91460	0.07204
3860.98604	0.07298
3859.05747	0.07356
3857.12891	0.07331
3855.20034	0.07284
3853.27178	0.07310
3851.34321	0.07500
3849.41465	0.07682
3847.48608	0.07774
3845.55752	0.07819
3843.62896	0.07831
3841.70039	0.07804
3839.77183	0.07756
3837.84326	0.07760
3835.91470	0.07865
3833.98613	0.07981
3832.05757	0.08077
3830.12900	0.08176
3828.20044	0.08232
3826.27187	0.08260
3824.34331	0.08287
3822.41475	0.08283
3820.48618	0.08321
3818.55762	0.08475
3816.62905	0.08674
3814.70049	0.08872
3812.77192	0.08978
3810.84336	0.09008
3808.91479	0.09027
3806.98623	0.09081
3805.05767	0.09222
3803.12910	0.09357
3801.20054	0.09450
3799.27197	0.09606
3797.34341	0.09780
3795.41484	0.09946
3793.48628	0.10089
3791.55771	0.10200
3789.62915	0.10329
3787.70059	0.10464
3785.77202	0.10563
3783.84346	0.10657
3781.91489	0.10768
3779.98633	0.10886
3778.05776	0.11067
3776.12920	0.11278
3774.20063	0.11450
3772.27207	0.11602
3770.34351	0.11753
3768.41494	0.11933
3766.48638	0.12146
3764.55781	0.12372
3762.62925	0.12560
3760.70068	0.12714
3758.77212	0.12915
3756.84355	0.13156
3754.91499	0.13345
3752.98643	0.13488
3751.05786	0.13693
3749.12930	0.14040
3747.20073	0.14309
3745.27217	0.14478
3743.34360	0.14799
3741.41504	0.15164
3739.48647	0.15378
3737.55791	0.15559
3735.62935	0.15813
3733.70078	0.16231
3731.77222	0.16753
3729.84365	0.17227
3727.91509	0.17643
3725.98652	0.18116
3724.05796	0.18729
3722.12939	0.19482
3720.20083	0.20370
3718.27227	0.21291
3716.34370	0.22152
3714.41514	0.22913
3712.48657	0.23676
3710.55801	0.24752
3708.62944	0.26115
3706.70088	0.27352
3704.77231	0.28486
3702.84375	0.29765
3700.91519	0.31451
3698.98662	0.33339
3697.05806	0.35124
3695.12949	0.36990
3693.20093	0.38922
3691.27236	0.40963
3689.34380	0.43661
3687.41523	0.47173
3685.48667	0.50365
3683.55811	0.53086
3681.62954	0.55907
3679.70098	0.58999
3677.77241	0.62199
3675.84385	0.65948
3673.91528	0.71134
3671.98672	0.75541
3670.05815	0.79424
3668.12959	0.84778
3666.20103	0.89780
3664.27246	0.93891
3662.34390	0.98192
3660.41533	1.02844
3658.48677	1.07438
3656.55820	1.12263
3654.62964	1.17636
3652.70107	1.22195
3650.77251	1.26095
3648.84395	1.31415
3646.91538	1.38209
3644.98682	1.43445
3643.05825	1.47453
3641.12969	1.51466
3639.20112	1.55872
3637.27256	1.60270
3635.34399	1.64442
3633.41543	1.68562
3631.48687	1.72427
3629.55830	1.76330
3627.62974	1.81608
3625.70117	1.86815
3623.77261	1.90421
3621.84404	1.93792
3619.91548	1.97538
3617.98691	2.02024
3616.05835	2.06454
3614.12979	2.10242
3612.20122	2.14274
3610.27266	2.18313
3608.34409	2.22168
3606.41553	2.26238
3604.48696	2.30216
3602.55840	2.33832
3600.62983	2.37757
3598.70127	2.42070
3596.77271	2.46081
3594.84414	2.49980
3592.91558	2.54153
3590.98701	2.58177
3589.05845	2.61854
3587.12988	2.66120
3585.20132	2.70858
3583.27275	2.75072
3581.34419	2.79078
3579.41562	2.83266
3577.48706	2.87586
3575.55850	2.91952
3573.62993	2.96416
3571.70137	3.00705
3569.77280	3.04719
3567.84424	3.08895
3565.91567	3.13987
3563.98711	3.19081
3562.05854	3.23419
3560.12998	3.27843
3558.20142	3.32576
3556.27285	3.37279
3554.34429	3.41619
3552.41572	3.45927
3550.48716	3.50465
3548.55859	3.54881
3546.63003	3.59132
3544.70146	3.63803
3542.77290	3.68837
3540.84434	3.73714
3538.91577	3.78445
3536.98721	3.83123
3535.05864	3.87948
3533.13008	3.92825
3531.20151	3.97728
3529.27295	4.02796
3527.34438	4.07936
3525.41582	4.12462
3523.48726	4.16768
3521.55869	4.22034
3519.63013	4.27293
3517.70156	4.31722
3515.77300	4.36098
3513.84443	4.40944
3511.91587	4.46017
3509.98730	4.51212
3508.05874	4.56759
3506.13018	4.62313
3504.20161	4.67106
3502.27305	4.71242
3500.34448	4.75847
3498.41592	4.81220
3496.48735	4.86349
3494.55879	4.90810
3492.63022	4.95786
3490.70166	5.01574
3488.77310	5.06794
3486.84453	5.10958
3484.91597	5.14881
3482.98740	5.19067
3481.05884	5.23569
3479.13027	5.28674
3477.20171	5.34338
3475.27314	5.39489
3473.34458	5.43469
3471.41602	5.47236
3469.48745	5.51792
3467.55889	5.56693
3465.63032	5.61636
3463.70176	5.67514
3461.77319	5.73568
3459.84463	5.78273
3457.91606	5.82762
3455.98750	5.88448
3454.05894	5.93806
3452.13037	5.98203
3450.20181	6.03526
3448.27324	6.09616
3446.34468	6.14807
3444.41611	6.19693
3442.48755	6.25829
3440.55898	6.31541
3438.63042	6.36068
3436.70186	6.40020
3434.77329	6.43640
3432.84473	6.49043
3430.91616	6.56497
3428.98760	6.64090
3427.05903	6.69932
3425.13047	6.74009
3423.20190	6.77194
3421.27334	6.79791
3419.34478	6.83005
3417.41621	6.88107
3415.48765	6.92203
3413.55908	6.94160
3411.63052	6.99087
3409.70195	7.08472
3407.77339	7.16965
3405.84482	7.18463
3403.91626	7.18130
3401.98770	7.21853
3400.05913	7.27842
3398.13057	7.33747
3396.20200	7.37864
3394.27344	7.41686
3392.34487	7.46016
3390.41631	7.52756
3388.48774	7.63220
3386.55918	7.73693
3384.63062	7.77856
3382.70205	7.76623
3380.77349	7.76701
3378.84492	7.79592
3376.91636	7.83330
3374.98779	7.86254
3373.05923	7.90330
3371.13066	7.94232
3369.20210	7.98655
3367.27354	8.03747
3365.34497	8.02878
3363.41641	7.96522
3361.48784	7.92529
3359.55928	7.92702
3357.63071	7.93672
3355.70215	7.95846
3353.77358	7.99619
3351.84502	8.05605
3349.91646	8.10526
3347.98789	8.14344
3346.05933	8.20897
3344.13076	8.25695
3342.20220	8.23730
3340.27363	8.17678
3338.34507	8.14872
3336.41650	8.16082
3334.48794	8.16289
3332.55937	8.15007
3330.63081	8.21562
3328.70225	8.32761
3326.77368	8.38170
3324.84512	8.43708
3322.91655	8.50416
3320.98799	8.52280
3319.05942	8.47055
3317.13086	8.40432
3315.20229	8.39195
3313.27373	8.43904
3311.34517	8.46230
3309.41660	8.42422
3307.48804	8.38638
3305.55947	8.37153
3303.63091	8.38703
3301.70234	8.43220
3299.77378	8.49821
3297.84521	8.51053
3295.91665	8.47117
3293.98809	8.47788
3292.05952	8.56883
3290.13096	8.68332
3288.20239	8.74653
3286.27383	8.77474
3284.34526	8.70733
3282.41670	8.56933
3280.48813	8.47571
3278.55957	8.46453
3276.63101	8.47011
3274.70244	8.41984
3272.77388	8.40040
3270.84531	8.44862
3268.91675	8.49906
3266.98818	8.53723
3265.05962	8.59178
3263.13105	8.66191
3261.20249	8.70460
3259.27393	8.68507
3257.34536	8.62686
3255.41680	8.58431
3253.48823	8.57511
3251.55967	8.51624
3249.63110	8.39136
3247.70254	8.33014
3245.77397	8.34690
3243.84541	8.38419
3241.91685	8.46690
3239.98828	8.54818
3238.05972	8.53687
3236.13115	8.48052
3234.20259	8.45350
3232.27402	8.53357
3230.34546	8.70450
3228.41689	8.74477
3226.48833	8.59015
3224.55977	8.44021
3222.63120	8.39638
3220.70264	8.44112
3218.77407	8.49289
3216.84551	8.44351
3214.91694	8.33150
3212.98838	8.19801
3211.05981	8.08106
3209.13125	8.08051
3207.20269	8.12078
3205.27412	8.06666
3203.34556	7.96015
3201.41699	7.89954
3199.48843	7.91541
3197.55986	7.93405
3195.63130	7.89325
3193.70273	7.83040
3191.77417	7.77412
3189.84561	7.72254
3187.91704	7.65342
3185.98848	7.56319
3184.05991	7.50312
3182.13135	7.48474
3180.20278	7.46609
3178.27422	7.43437
3176.34565	7.40060
3174.41709	7.35567
3172.48853	7.28457
3170.55996	7.18915
3168.63140	7.11036
3166.70283	7.05753
3164.77427	6.98939
3162.84570	6.92094
3160.91714	6.86680
3158.98857	6.78899
3157.06001	6.69085
3155.13145	6.61765
3153.20288	6.56578
3151.27432	6.49638
3149.34575	6.40802
3147.41719	6.32981
3145.48862	6.26993
3143.56006	6.21197
3141.63149	6.14909
3139.70293	6.07976
3137.77437	6.00620
3135.84580	5.93121
3133.91724	5.85573
3131.98867	5.78143
3130.06011	5.70088
3128.13154	5.61881
3126.20298	5.54831
3124.27441	5.48545
3122.34585	5.42090
3120.41729	5.35484
3118.48872	5.28468
3116.56016	5.20754
3114.63159	5.12842
3112.70303	5.05270
3110.77446	4.98429
3108.84590	4.91846
3106.91733	4.84856
3104.98877	4.77915
3103.06021	4.71260
3101.13164	4.64234
3099.20308	4.57087
3097.27451	4.50534
3095.34595	4.44225
3093.41738	4.37761
3091.48882	4.31292
3089.56025	4.25066
3087.63169	4.18943
3085.70312	4.12369
3083.77456	4.05424
3081.84600	3.98696
3079.91743	3.92304
3077.98887	3.86198
3076.06030	3.80352
3074.13174	3.74645
3072.20317	3.68935
3070.27461	3.63198
3068.34604	3.57576
3066.41748	3.51922
3064.48892	3.46153
3062.56035	3.40534
3060.63179	3.35144
3058.70322	3.29749
3056.77466	3.24125
3054.84609	3.18593
3052.91753	3.13488
3050.98896	3.08427
3049.06040	3.03118
3047.13184	2.97868
3045.20327	2.92889
3043.27471	2.88003
3041.34614	2.83115
3039.41758	2.78363
3037.48901	2.73729
3035.56045	2.69089
3033.63188	2.64459
3031.70332	2.59874
3029.77476	2.55373
3027.84619	2.50978
3025.91763	2.46657
3023.98906	2.42427
3022.06050	2.38301
3020.13193	2.34204
3018.20337	2.30072
3016.27480	2.25990
3014.34624	2.22029
3012.41768	2.18128
3010.48911	2.14247
3008.56055	2.10445
3006.63198	2.06834
3004.70342	2.03334
3002.77485	1.99768
3000.84629	1.96223
2998.91772	1.92847
2996.98916	1.89600
2995.06060	1.86398
2993.13203	1.83216
2991.20347	1.80059
2989.27490	1.76957
2987.34634	1.73947
2985.41777	1.71052
2983.48921	1.68254
2981.56064	1.65484
2979.63208	1.62738
2977.70352	1.60071
2975.77495	1.57470
2973.84639	1.54898
2971.91782	1.52358
2969.98926	1.49853
2968.06069	1.47386
2966.13213	1.44932
2964.20356	1.42494
2962.27500	1.40117
2960.34644	1.37771
2958.41787	1.35396
2956.48931	1.33026
2954.56074	1.30686
2952.63218	1.28300
2950.70361	1.25886
2948.77505	1.23566
2946.84648	1.21376
2944.91792	1.19306
2942.98936	1.17326
2941.06079	1.15369
2939.13223	1.13392
2937.20366	1.11389
2935.27510	1.09347
2933.34653	1.07314
2931.41797	1.05390
2929.48940	1.03533
2927.56084	1.01663
2925.63228	0.99828
2923.70371	0.98101
2921.77515	0.96435
2919.84658	0.94734
2917.91802	0.92987
2915.98945	0.91253
2914.06089	0.89596
2912.13232	0.88000
2910.20376	0.86416
2908.27520	0.84847
2906.34663	0.83334
2904.41807	0.81900
2902.48950	0.80516
2900.56094	0.79145
2898.63237	0.77782
2896.70381	0.76453
2894.77524	0.75181
2892.84668	0.73966
2890.91812	0.72791
2888.98955	0.71627
2887.06099	0.70487
2885.13242	0.69417
2883.20386	0.68393
2881.27529	0.67372
2879.34673	0.66376
2877.41816	0.65409
2875.48960	0.64435
2873.56104	0.63435
2871.63247	0.62405
2869.70391	0.61333
2867.77534	0.60218
2865.84678	0.59063
2863.91821	0.57887
2861.98965	0.56741
2860.06108	0.55680
2858.13252	0.54705
2856.20396	0.53759
2854.27539	0.52825
2852.34683	0.51926
2850.41826	0.51059
2848.48970	0.50208
2846.56113	0.49381
2844.63257	0.48601
2842.70400	0.47871
2840.77544	0.47181
2838.84687	0.46540
2836.91831	0.45942
2834.98975	0.45335
2833.06118	0.44709
2831.13262	0.44092
2829.20405	0.43471
2827.27549	0.42836
2825.34692	0.42212
2823.41836	0.41616
2821.48979	0.41041
2819.56123	0.40462
2817.63267	0.39875
2815.70410	0.39303
2813.77554	0.38741
2811.84697	0.38175
2809.91841	0.37619
2807.98984	0.37083
2806.06128	0.36563
2804.13271	0.36054
2802.20415	0.35548
2800.27559	0.35049
2798.34702	0.34564
2796.41846	0.34086
2794.48989	0.33602
2792.56133	0.33117
2790.63276	0.32651
2788.70420	0.32208
2786.77563	0.31772
2784.84707	0.31336
2782.91851	0.30909
2780.98994	0.30492
2779.06138	0.30083
2777.13281	0.29684
2775.20425	0.29289
2773.27568	0.28896
2771.34712	0.28514
2769.41855	0.28148
2767.48999	0.27796
2765.56143	0.27474
2763.63286	0.27169
2761.70430	0.26840
2759.77573	0.26490
2757.84717	0.26149
2755.91860	0.25822
2753.99004	0.25509
2752.06147	0.25203
2750.13291	0.24903
2748.20435	0.24622
2746.27578	0.24353
2744.34722	0.24084
2742.41865	0.23822
2740.49009	0.23561
2738.56152	0.23290
2736.63296	0.23015
2734.70439	0.22754
2732.77583	0.22517
2730.84727	0.22287
2728.91870	0.22051
2726.99014	0.21813
2725.06157	0.21579
2723.13301	0.21358
2721.20444	0.21152
2719.27588	0.20957
2717.34731	0.20765
2715.41875	0.20569
2713.49019	0.20381
2711.56162	0.20213
2709.63306	0.20048
2707.70449	0.19874
2705.77593	0.19696
2703.84736	0.19520
2701.91880	0.19353
2699.99023	0.19208
2698.06167	0.19074
2696.13311	0.18931
2694.20454	0.18778
2692.27598	0.18633
2690.34741	0.18504
2688.41885	0.18376
2686.49028	0.18245
2684.56172	0.18128
2682.63315	0.18014
2680.70459	0.17887
2678.77603	0.17756
2676.84746	0.17628
2674.91890	0.17497
2672.99033	0.17372
2671.06177	0.17260
2669.13320	0.17161
2667.20464	0.17080
2665.27607	0.16999
2663.34751	0.16893
2661.41895	0.16782
2659.49038	0.16699
2657.56182	0.16638
2655.63325	0.16563
2653.70469	0.16472
2651.77612	0.16390
2649.84756	0.16324
2647.91899	0.16262
2645.99043	0.16202
2644.06187	0.16146
2642.13330	0.16091
2640.20474	0.16032
2638.27617	0.15977
2636.34761	0.15926
2634.41904	0.15871
2632.49048	0.15821
2630.56191	0.15789
2628.63335	0.15759
2626.70479	0.15714
2624.77622	0.15666
2622.84766	0.15623
2620.91909	0.15593
2618.99053	0.15580
2617.06196	0.15555
2615.13340	0.15504
2613.20483	0.15463
2611.27627	0.15455
2609.34771	0.15459
2607.41914	0.15461
2605.49058	0.15455
2603.56201	0.15431
2601.63345	0.15410
2599.70488	0.15404
2597.77632	0.15405
2595.84775	0.15419
2593.91919	0.15445
2591.99062	0.15456
2590.06206	0.15443
2588.13350	0.15436
2586.20493	0.15460
2584.27637	0.15500
2582.34780	0.15530
2580.41924	0.15551
2578.49067	0.15571
2576.56211	0.15592
2574.63354	0.15613
2572.70498	0.15642
2570.77642	0.15670
2568.84785	0.15694
2566.91929	0.15729
2564.99072	0.15772
2563.06216	0.15818
2561.13359	0.15877
2559.20503	0.15936
2557.27646	0.15969
2555.34790	0.15997
2553.41934	0.16038
2551.49077	0.16083
2549.56221	0.16130
2547.63364	0.16176
2545.70508	0.16227
2543.77651	0.16293
2541.84795	0.16365
2539.91938	0.16421
2537.99082	0.16467
2536.06226	0.16519
2534.13369	0.16586
2532.20513	0.16657
2530.27656	0.16724
2528.34800	0.16794
2526.41943	0.16868
2524.49087	0.16944
2522.56230	0.17026
2520.63374	0.17114
2518.70518	0.17184
2516.77661	0.17236
2514.84805	0.17296
2512.91948	0.17383
2510.99092	0.17478
2509.06235	0.17556
2507.13379	0.17623
2505.20522	0.17693
2503.27666	0.17764
2501.34810	0.17843
2499.41953	0.17929
2497.49097	0.18011
2495.56240	0.18084
2493.63384	0.18160
2491.70527	0.18256
2489.77671	0.18355
2487.84814	0.18434
2485.91958	0.18507
2483.99102	0.18585
2482.06245	0.18665
2480.13389	0.18745
2478.20532	0.18820
2476.27676	0.18902
2474.34819	0.19001
2472.41963	0.19101
2470.49106	0.19184
2468.56250	0.19260
2466.63394	0.19351
2464.70537	0.19448
2462.77681	0.19528
2460.84824	0.19606
2458.91968	0.19707
2456.99111	0.19824
2455.06255	0.19929
2453.13398	0.20008
2451.20542	0.20083
2449.27686	0.20171
2447.34829	0.20270
2445.41973	0.20370
2443.49116	0.20471
2441.56260	0.20573
2439.63403	0.20677
2437.70547	0.20777
2435.77690	0.20868
2433.84834	0.20966
2431.91978	0.21081
2429.99121	0.21200
2428.06265	0.21307
2426.13408	0.21407
2424.20552	0.21504
2422.27695	0.21598
2420.34839	0.21708
2418.41982	0.21842
2416.49126	0.21969
2414.56270	0.22076
2412.63413	0.22177
2410.70557	0.22272
2408.77700	0.22374
2406.84844	0.22497
2404.91987	0.22625
2402.99131	0.22745
2401.06274	0.22864
2399.13418	0.22987
2397.20562	0.23115
2395.27705	0.23246
2393.34849	0.23360
2391.41992	0.23458
2389.49136	0.23552
2387.56279	0.23629
2385.63423	0.23647
2383.70566	0.23569
2381.77710	0.23380
2379.84854	0.23083
2377.91997	0.22693
2375.99141	0.22255
2374.06284	0.21785
2372.13428	0.21210
2370.20571	0.20502
2368.27715	0.19746
2366.34858	0.19050
2364.42002	0.18483
2362.49146	0.18093
2360.56289	0.17955
2358.63433	0.18165
2356.70576	0.18819
2354.77720	0.19831
2352.84863	0.20983
2350.92007	0.22060
2348.99150	0.22722
2347.06294	0.22786
2345.13437	0.22326
2343.20581	0.21785
2341.27725	0.21678
2339.34868	0.21908
2337.42012	0.22193
2335.49155	0.22507
2333.56299	0.22876
2331.63442	0.23227
2329.70586	0.23539
2327.77729	0.23885
2325.84873	0.24296
2323.92017	0.24750
2321.99160	0.25241
2320.06304	0.25781
2318.13447	0.26352
2316.20591	0.26866
2314.27734	0.27278
2312.34878	0.27631
2310.42021	0.27983
2308.49165	0.28348
2306.56309	0.28737
2304.63452	0.29143
2302.70596	0.29511
2300.77739	0.29812
2298.84883	0.30076
2296.92026	0.30337
2294.99170	0.30617
2293.06313	0.30917
2291.13457	0.31219
2289.20601	0.31507
2287.27744	0.31787
2285.34888	0.32065
2283.42031	0.32328
2281.49175	0.32543
2279.56318	0.32702
2277.63462	0.32857
2275.70605	0.33047
2273.77749	0.33253
2271.84893	0.33453
2269.92036	0.33659
2267.99180	0.33887
2266.06323	0.34112
2264.13467	0.34321
2262.20610	0.34540
2260.27754	0.34784
2258.34897	0.35031
2256.42041	0.35254
2254.49185	0.35466
2252.56328	0.35691
2250.63472	0.35928
2248.70615	0.36167
2246.77759	0.36404
2244.84902	0.36635
2242.92046	0.36852
2240.99189	0.37071
2239.06333	0.37301
2237.13477	0.37527
2235.20620	0.37750
2233.27764	0.37993
2231.34907	0.38244
2229.42051	0.38467
2227.49194	0.38666
2225.56338	0.38872
2223.63481	0.39097
2221.70625	0.39330
2219.77769	0.39557
2217.84912	0.39775
2215.92056	0.39990
2213.99199	0.40200
2212.06343	0.40405
2210.13486	0.40613
2208.20630	0.40828
2206.27773	0.41040
2204.34917	0.41247
2202.42061	0.41457
2200.49204	0.41675
2198.56348	0.41889
2196.63491	0.42085
2194.70635	0.42271
2192.77778	0.42464
2190.84922	0.42662
2188.92065	0.42852
2186.99209	0.43030
2185.06353	0.43199
2183.13496	0.43372
2181.20640	0.43555
2179.27783	0.43735
2177.34927	0.43895
2175.42070	0.44032
2173.49214	0.44166
2171.56357	0.44311
2169.63501	0.44461
2167.70645	0.44597
2165.77788	0.44714
2163.84932	0.44823
2161.92075	0.44929
2159.99219	0.45032
2158.06362	0.45141
2156.13506	0.45248
2154.20649	0.45337
2152.27793	0.45417
2150.34937	0.45501
2148.42080	0.45571
2146.49224	0.45616
2144.56367	0.45656
2142.63511	0.45705
2140.70654	0.45749
2138.77798	0.45776
2136.84941	0.45780
2134.92085	0.45778
2132.99229	0.45784
2131.06372	0.45795
2129.13516	0.45791
2127.20659	0.45759
2125.27803	0.45713
2123.34946	0.45667
2121.42090	0.45616
2119.49233	0.45555
2117.56377	0.45479
2115.63521	0.45388
2113.70664	0.45303
2111.77808	0.45231
2109.84951	0.45144
2107.92095	0.45039
2105.99238	0.44932
2104.06382	0.44823
2102.13525	0.44695
2100.20669	0.44554
2098.27812	0.44413
2096.34956	0.44272
2094.42100	0.44116
2092.49243	0.43947
2090.56387	0.43778
2088.63530	0.43604
2086.70674	0.43413
2084.77817	0.43221
2082.84961	0.43041
2080.92104	0.42847
2078.99248	0.42627
2077.06392	0.42401
2075.13535	0.42182
2073.20679	0.41971
2071.27822	0.41766
2069.34966	0.41551
2067.42109	0.41317
2065.49253	0.41075
2063.56396	0.40836
2061.63540	0.40603
2059.70684	0.40368
2057.77827	0.40118
2055.84971	0.39855
2053.92114	0.39596
2051.99258	0.39347
2050.06401	0.39090
2048.13545	0.38811
2046.20688	0.38529
2044.27832	0.38262
2042.34976	0.37996
2040.42119	0.37729
2038.49263	0.37469
2036.56406	0.37205
2034.63550	0.36929
2032.70693	0.36649
2030.77837	0.36370
2028.84980	0.36086
2026.92124	0.35809
2024.99268	0.35533
2023.06411	0.35246
2021.13555	0.34967
2019.20698	0.34700
2017.27842	0.34418
2015.34985	0.34124
2013.42129	0.33846
2011.49272	0.33585
2009.56416	0.33323
2007.63560	0.33049
2005.70703	0.32776
2003.77847	0.32510
2001.84990	0.32249
1999.92134	0.31988
1997.99277	0.31727
1996.06421	0.31473
1994.13564	0.31219
1992.20708	0.30955
1990.27852	0.30691
1988.34995	0.30438
1986.42139	0.30196
1984.49282	0.29961
1982.56426	0.29728
1980.63569	0.29498
1978.70713	0.29274
1976.77856	0.29050
1974.85000	0.28827
1972.92144	0.28607
1970.99287	0.28399
1969.06431	0.28200
1967.13574	0.27995
1965.20718	0.27780
1963.27861	0.27569
1961.35005	0.27373
1959.42148	0.27195
1957.49292	0.27027
1955.56436	0.26852
1953.63579	0.26671
1951.70723	0.26496
1949.77866	0.26326
1947.85010	0.26158
1945.92153	0.25995
1943.99297	0.25835
1942.06440	0.25681
1940.13584	0.25548
1938.20728	0.25424
1936.27871	0.25294
1934.35015	0.25170
1932.42158	0.25047
1930.49302	0.24919
1928.56445	0.24804
1926.63589	0.24700
1924.70732	0.24590
1922.77876	0.24478
1920.85020	0.24379
1918.92163	0.24289
1916.99307	0.24200
1915.06450	0.24118
1913.13594	0.24038
1911.20737	0.23958
1909.27881	0.23878
1907.35024	0.23808
1905.42168	0.23748
1903.49312	0.23705
1901.56455	0.23664
1899.63599	0.23605
1897.70742	0.23546
1895.77886	0.23502
1893.85029	0.23471
1891.92173	0.23431
1889.99316	0.23395
1888.06460	0.23376
1886.13604	0.23360
1884.20747	0.23334
1882.27891	0.23311
1880.35034	0.23300
1878.42178	0.23299
1876.49321	0.23308
1874.56465	0.23315
1872.63608	0.23310
1870.70752	0.23295
1868.77896	0.23308
1866.85039	0.23353
1864.92183	0.23387
1862.99326	0.23406
1861.06470	0.23428
1859.13613	0.23470
1857.20757	0.23517
1855.27900	0.23562
1853.35044	0.23602
1851.42187	0.23644
1849.49331	0.23689
1847.56475	0.23739
1845.63618	0.23794
1843.70762	0.23880
1841.77905	0.23988
1839.85049	0.24063
1837.92192	0.24135
1835.99336	0.24225
1834.06479	0.24334
1832.13623	0.24428
1830.20767	0.24529
1828.27910	0.24665
1826.35054	0.24795
1824.42197	0.24936
1822.49341	0.25077
1820.56484	0.25209
1818.63628	0.25339
1816.70771	0.25492
1814.77915	0.25649
1812.85059	0.25808
1810.92202	0.25999
1808.99346	0.26217
1807.06489	0.26432
1805.13633	0.26628
1803.20776	0.26834
1801.27920	0.27068
1799.35063	0.27345
1797.42207	0.27604
1795.49351	0.27835
1793.56494	0.28085
1791.63638	0.28433
1789.70781	0.28815
1787.77925	0.29114
1785.85068	0.29435
1783.92212	0.29802
1781.99355	0.30182
1780.06499	0.30580
1778.13643	0.31010
1776.20786	0.31411
1774.27930	0.31804
1772.35073	0.32331
1770.42217	0.32967
1768.49360	0.33545
1766.56504	0.34086
1764.63647	0.34612
1762.70791	0.35176
1760.77935	0.35912
1758.85078	0.36622
1756.92222	0.37332
1754.99365	0.38118
1753.06509	0.38809
1751.13652	0.39569
1749.20796	0.40541
1747.27939	0.41590
1745.35083	0.42557
1743.42227	0.43548
1741.49370	0.44602
1739.56514	0.45838
1737.63657	0.47091
1735.70801	0.48171
1733.77944	0.49772
1731.85088	0.51756
1729.92231	0.53369
1727.99375	0.54980
1726.06519	0.56689
1724.13662	0.58537
1722.20806	0.60516
1720.27949	0.62308
1718.35093	0.64376
1716.42236	0.67511
1714.49380	0.70616
1712.56523	0.73167
1710.63667	0.75594
1708.70811	0.78153
1706.77954	0.81054
1704.85098	0.84574
1702.92241	0.87736
1700.99385	0.90814
1699.06528	0.95401
1697.13672	0.99696
1695.20815	1.04216
1693.27959	1.08679
1691.35103	1.12241
1689.42246	1.16298
1687.49390	1.20579
1685.56533	1.24669
1683.63677	1.31030
1681.70820	1.37859
1679.77964	1.42316
1677.85107	1.46461
1675.92251	1.51128
1673.99395	1.56969
1672.06538	1.62287
1670.13682	1.67460
1668.20825	1.74143
1666.27969	1.79675
1664.35112	1.84401
1662.42256	1.90369
1660.49399	1.97187
1658.56543	2.02418
1656.63687	2.06525
1654.70830	2.10344
1652.77974	2.16339
1650.85117	2.21863
1648.92261	2.23893
1646.99404	2.26665
1645.06548	2.29496
1643.13691	2.31065
1641.20835	2.31855
1639.27979	2.32610
1637.35122	2.33074
1635.42266	2.33100
1633.49409	2.32588
1631.56553	2.31372
1629.63696	2.29543
1627.70840	2.26306
1625.77983	2.22646
1623.85127	2.18361
1621.92271	2.13255
1619.99414	2.08665
1618.06558	2.04128
1616.13701	1.97627
1614.20845	1.90981
1612.27988	1.85991
1610.35132	1.80854
1608.42275	1.75271
1606.49419	1.69774
1604.56562	1.64766
1602.63706	1.59975
1600.70850	1.55281
1598.77993	1.50950
1596.85137	1.46893
1594.92280	1.42907
1592.99424	1.39016
1591.06567	1.35501
1589.13711	1.32257
1587.20854	1.29223
1585.27998	1.26394
1583.35142	1.23759
1581.42285	1.21385
1579.49429	1.19367
1577.56572	1.17539
1575.63716	1.15375
1573.70859	1.13548
1571.78003	1.12354
1569.85146	1.11112
1567.92290	1.09808
1565.99434	1.08896
1564.06577	1.08250
1562.13721	1.07778
1560.20864	1.07506
1558.28008	1.07459
1556.35151	1.07581
1554.42295	1.07612
1552.49438	1.07576
1550.56582	1.07389
1548.63726	1.06985
1546.70869	1.06360
1544.78013	1.05436
1542.85156	1.04166
1540.92300	1.02343
1538.99443	0.99695
1537.06587	0.97793
1535.13730	0.96432
1533.20874	0.94581
1531.28018	0.92620
1529.35161	0.91181
1527.42305	0.89795
1525.49448	0.88355
1523.56592	0.87116
1521.63735	0.85945
1519.70879	0.84804
1517.78022	0.83836
1515.85166	0.82777
1513.92310	0.81709
1511.99453	0.80712
1510.06597	0.79720
1508.13740	0.78719
1506.20884	0.77362
1504.28027	0.76310
1502.35171	0.75712
1500.42314	0.75137
1498.49458	0.74484
1496.56602	0.73751
1494.63745	0.73084
1492.70889	0.72555
1490.78032	0.72039
1488.85176	0.71479
1486.92319	0.71044
1484.99463	0.70743
1483.06606	0.70488
1481.13750	0.70250
1479.20894	0.70072
1477.28037	0.69987
1475.35181	0.69958
1473.42324	0.69960
1471.49468	0.69958
1469.56611	0.69878
1467.63755	0.69711
1465.70898	0.69514
1463.78042	0.69367
1461.85186	0.69292
1459.92329	0.69224
1457.99473	0.69129
1456.06616	0.69013
1454.13760	0.68855
1452.20903	0.68635
1450.28047	0.68349
1448.35190	0.68032
1446.42334	0.67726
1444.49478	0.67466
1442.56621	0.67222
1440.63765	0.66944
1438.70908	0.66636
1436.78052	0.66293
1434.85195	0.65960
1432.92339	0.65697
1430.99482	0.65508
1429.06626	0.65402
1427.13770	0.65355
1425.20913	0.65340
1423.28057	0.65360
1421.35200	0.65382
1419.42344	0.65377
1417.49487	0.65354
1415.56631	0.65294
1413.63774	0.65233
1411.70918	0.65205
1409.78062	0.65217
1407.85205	0.65258
1405.92349	0.65328
1403.99492	0.65420
1402.06636	0.65456
1400.13779	0.65386
1398.20923	0.65208
1396.28066	0.64940
1394.35210	0.64589
1392.42354	0.64207
1390.49497	0.63852
1388.56641	0.63492
1386.63784	0.63074
1384.70928	0.62623
1382.78071	0.62193
1380.85215	0.61789
1378.92358	0.61435
1376.99502	0.61161
1375.06646	0.60977
1373.13789	0.60868
1371.20933	0.60801
1369.28076	0.60747
1367.35220	0.60671
1365.42363	0.60540
1363.49507	0.60374
1361.56650	0.60213
1359.63794	0.60068
1357.70937	0.59934
1355.78081	0.59806
1353.85225	0.59689
1351.92368	0.59593
1349.99512	0.59516
1348.06655	0.59437
1346.13799	0.59344
1344.20942	0.59240
1342.28086	0.59131
1340.35229	0.59033
1338.42373	0.58951
1336.49517	0.58886
1334.56660	0.58844
1332.63804	0.58826
1330.70947	0.58826
1328.78091	0.58842
1326.85234	0.58877
1324.92378	0.58928
1322.99521	0.58987
1321.06665	0.59048
1319.13809	0.59098
1317.20952	0.59119
1315.28096	0.59112
1313.35239	0.59079
1311.42383	0.59007
1309.49526	0.58908
1307.56670	0.58818
1305.63813	0.58750
1303.70957	0.58691
1301.78101	0.58626
1299.85244	0.58530
1297.92388	0.58406
1295.99531	0.58282
1294.06675	0.58173
1292.13818	0.58054
1290.20962	0.57910
1288.28105	0.57776
1286.35249	0.57671
1284.42393	0.57561
1282.49536	0.57428
1280.56680	0.57289
1278.63823	0.57151
1276.70967	0.57017
1274.78110	0.56899
1272.85254	0.56809
1270.92397	0.56743
1268.99541	0.56680
1267.06685	0.56598
1265.13828	0.56514
1263.20972	0.56445
1261.28115	0.56364
1259.35259	0.56278
1257.42402	0.56217
1255.49546	0.56187
1253.56689	0.56181
1251.63833	0.56183
1249.70977	0.56183
1247.78120	0.56172
1245.85264	0.56133
1243.92407	0.56067
1241.99551	0.55986
1240.06694	0.55873
1238.13838	0.55706
1236.20981	0.55507
1234.28125	0.55304
1232.35269	0.55100
1230.42412	0.54896
1228.49556	0.54705
1226.56699	0.54523
1224.63843	0.54332
1222.70986	0.54146
1220.78130	0.53985
1218.85273	0.53845
1216.92417	0.53724
1214.99561	0.53619
1213.06704	0.53525
1211.13848	0.53449
1209.20991	0.53393
1207.28135	0.53335
1205.35278	0.53256
1203.42422	0.53168
1201.49565	0.53086
1199.56709	0.53010
1197.63853	0.52938
1195.70996	0.52863
1193.78140	0.52796
1191.85283	0.52745
1189.92427	0.52698
1187.99570	0.52654
1186.06714	0.52631
1184.13857	0.52626
1182.21001	0.52653
1180.28145	0.52738
1178.35288	0.52867
1176.42432	0.53010
1174.49575	0.53144
1172.56719	0.53252
1170.63862	0.53323
1168.71006	0.53370
1166.78149	0.53420
1164.85293	0.53481
1162.92437	0.53538
1160.99580	0.53568
1159.06724	0.53573
1157.13867	0.53546
1155.21011	0.53477
1153.28154	0.53367
1151.35298	0.53207
1149.42441	0.52981
1147.49585	0.52697
1145.56729	0.52400
1143.63872	0.52123
1141.71016	0.51869
1139.78159	0.51653
1137.85303	0.51498
1135.92446	0.51398
1133.99590	0.51356
1132.06733	0.51361
1130.13877	0.51388
1128.21021	0.51400
1126.28164	0.51376
1124.35308	0.51329
1122.42451	0.51279
1120.49595	0.51257
1118.56738	0.51280
1116.63882	0.51321
1114.71025	0.51364
1112.78169	0.51418
1110.85312	0.51489
1108.92456	0.51581
1106.99600	0.51695
1105.06743	0.51807
1103.13887	0.51892
1101.21030	0.51963
1099.28174	0.52071
1097.35317	0.52249
1095.42461	0.52498
1093.49604	0.52838
1091.56748	0.53312
1089.63892	0.53949
1087.71035	0.54733
1085.78179	0.55616
1083.85322	0.56527
1081.92466	0.57332
1079.99609	0.57885
1078.06753	0.58118
1076.13896	0.58041
1074.21040	0.57694
1072.28184	0.57145
1070.35327	0.56455
1068.42471	0.55703
1066.49614	0.54989
1064.56758	0.54354
1062.63901	0.53791
1060.71045	0.53316
1058.78188	0.52919
1056.85332	0.52552
1054.92476	0.52208
1052.99619	0.51921
1051.06763	0.51705
1049.13906	0.51560
1047.21050	0.51479
1045.28193	0.51459
1043.35337	0.51500
1041.42480	0.51581
1039.49624	0.51651
1037.56768	0.51676
1035.63911	0.51668
1033.71055	0.51616
1031.78198	0.51494
1029.85342	0.51303
1027.92485	0.51075
1025.99629	0.50854
1024.06772	0.50687
1022.13916	0.50594
1020.21060	0.50545
1018.28203	0.50504
1016.35347	0.50463
1014.42490	0.50412
1012.49634	0.50336
1010.56777	0.50264
1008.63921	0.50250
1006.71064	0.50292
1004.78208	0.50361
1002.85352	0.50484
1000.92495	0.50707
998.99639	0.51026
997.06782	0.51436
995.13926	0.51898
993.21069	0.52335
991.28213	0.52674
989.35356	0.52876
987.42500	0.52955
985.49644	0.52944
983.56787	0.52892
981.63931	0.52873
979.71074	0.52925
977.78218	0.53035
975.85361	0.53201
973.92505	0.53428
971.99648	0.53725
970.06792	0.54071
968.13936	0.54415
966.21079	0.54778
964.28223	0.55204
962.35366	0.55675
960.42510	0.56178
958.49653	0.56731
956.56797	0.57314
954.63940	0.57917
952.71084	0.58557
950.78228	0.59206
948.85371	0.59851
946.92515	0.60500
944.99658	0.61126
943.06802	0.61730
941.13945	0.62342
939.21089	0.62979
937.28232	0.63632
935.35376	0.64269
933.42520	0.64855
931.49663	0.65380
929.56807	0.65907
927.63950	0.66478
925.71094	0.67077
923.78237	0.67729
921.85381	0.68407
919.92524	0.69073
917.99668	0.69780
916.06812	0.70530
914.13955	0.71301
912.21099	0.72106
910.28242	0.72873
908.35386	0.73590
906.42529	0.74400
904.49673	0.75326
902.56816	0.76289
900.63960	0.77282
898.71104	0.78295
896.78247	0.79358
894.85391	0.80441
892.92534	0.81458
890.99678	0.82469
889.06821	0.83576
887.13965	0.84717
885.21108	0.85741
883.28252	0.86695
881.35396	0.87805
879.42539	0.89115
877.49683	0.90404
875.56826	0.91549
873.63970	0.92650
871.71113	0.93817
869.78257	0.95064
867.85400	0.96260
865.92544	0.97384
863.99687	0.98553
862.06831	0.99771
860.13975	1.01035
858.21118	1.02304
856.28262	1.03396
854.35405	1.04395
852.42549	1.05485
850.49692	1.06583
848.56836	1.07825
846.63979	1.09274
844.71123	1.10571
842.78267	1.11690
840.85410	1.12925
838.92554	1.14231
836.99697	1.15431
835.06841	1.16778
833.13984	1.18502
831.21128	1.20075
829.28271	1.21052
827.35415	1.21806
825.42559	1.22688
823.49702	1.23818
821.56846	1.25303
819.63989	1.27265
817.71133	1.28951
815.78276	1.29734
813.85420	1.31394
811.92563	1.34409
809.99707	1.37033
808.06851	1.39990
806.13994	1.44084
804.21138	1.45668
802.28281	1.43375
800.35425	1.42568
798.42568	1.45405
796.49712	1.49045
794.56855	1.53241
792.63999	1.57520
790.71143	1.62020
788.78286	1.75071
786.85430	2.02362
784.92573	2.43153
782.99717	4.69798
781.06860	4.68641
779.14004	2.18223
777.21147	1.81884
775.28291	1.66553
773.35435	1.77710
771.42578	4.62855
769.49722	4.61698
767.56865	4.60541
765.64009	4.59384
763.71152	4.58227
761.78296	1.81454
759.85439	1.59837
757.92583	2.18935
755.99727	4.53598
754.06870	2.27306
752.14014	1.53500
750.21157	1.43873
748.28301	1.34827
746.35444	1.07784
744.42588	0.93126
742.49731	0.95557
740.56875	1.07323
738.64019	1.03426
736.71162	0.81426
734.78306	0.66076
732.85449	0.57080
730.92593	0.49260
728.99736	0.39107
727.06880	0.28313
725.14023	0.17773
723.21167	0.04271
721.28311	-0.18883
719.35454	-0.41591
717.42598	-0.59623
715.49741	-1.13171
713.56885	-0.65102
711.64028	-0.03077
709.71172	0.09022
707.78315	0.06611
705.85459	0.07527
703.92603	0.12309
701.99746	0.16883
700.06890	0.21548
698.14033	0.28595
696.21177	0.35283
694.28320	0.31278
692.35464	0.24455
690.42607	0.30559
688.49751	0.49495
686.56895	0.62472
684.64038	0.57555
682.71182	0.42871
680.78325	0.33233
678.85469	0.35075
676.92612	0.40608
674.99756	0.41110
673.06899	0.38106
671.14043	0.36854
669.21187	0.38049
667.28330	0.31407
665.35474	0.20025
663.42617	0.17328
661.49761	0.21250
659.56904	0.24356
657.64048	0.27452
655.71191	0.30580
653.78335	0.27612
651.85479	0.22670
649.92622	0.22769
647.99766	0.24834
646.06909	0.25524
644.14053	0.27987
642.21196	0.31136
640.28340	0.30761
638.35483	0.27371
636.42627	0.19757
634.49771	0.15135
632.56914	0.22590
630.64058	0.35743
628.71201	0.45691
626.78345	0.46108
624.85488	0.34279
622.92632	0.22519
620.99775	0.18288
619.06919	0.17741
617.14062	0.21171
615.21206	0.28484
613.28350	0.27754
611.35493	0.22643
609.42637	0.26188
607.49780	0.34901
605.56924	0.38848
603.64067	0.39819
601.71211	0.42599
599.78354	0.46009
597.85498	0.46622
595.92642	0.42409
593.99785	0.35761
592.06929	0.30851
590.14072	0.30467
588.21216	0.32622
586.28359	0.32012
584.35503	0.31630
582.42646	0.34913
580.49790	0.32494
578.56934	0.24342
576.64077	0.22735
574.71221	0.28930
572.78364	0.32389
570.85508	0.28164
568.92651	0.22787
566.99795	0.20185
565.06938	0.19296
563.14082	0.20962
561.21226	0.24843
559.28369	0.26830
557.35513	0.25609
555.42656	0.25436
553.49800	0.26499
551.56943	0.22103
549.64087	0.15324
547.71230	0.14370
545.78374	0.16459
543.85518	0.16089
541.92661	0.14755
539.99805	0.16254
538.06948	0.19499
536.14092	0.20569
534.21235	0.22873
532.28379	0.29282
530.35522	0.32870
528.42666	0.29012
526.49810	0.23600
524.56953	0.18866
522.64097	0.16263
520.71240	0.16140
518.78384	0.14894
516.85527	0.14150
514.92671	0.16571
512.99814	0.18738
511.06958	0.18775
509.14102	0.15851
507.21245	0.12462
505.28389	0.13035
503.35532	0.16611
501.42676	0.20413
499.49819	0.21919
