3997.91411	0.07160
3995.98555	0.07237
3994.05698	0.07295
3992.12842	0.07311
3990.19985	0.07349
3988.27129	0.07401
3986.34272	0.07428
3984.41416	0.07456
3982.48560	0.07483
3980.55703	0.07491
3978.62847	0.07487
3976.69990	0.07508
3974.77134	0.07577
3972.84277	0.07633
3970.91421	0.07630
3968.98564	0.07603
3967.05708	0.07574
3965.12852	0.07572
3963.19995	0.07637
3961.27139	0.07717
3959.34282	0.07736
3957.41426	0.07715
3955.48569	0.07714
3953.55713	0.07738
3951.62856	0.07816
3949.70000	0.07952
3947.77144	0.08017
3945.84287	0.07974
3943.91431	0.07987
3941.98574	0.08038
3940.05718	0.07943
3938.12861	0.07797
3936.20005	0.07759
3934.27148	0.07844
3932.34292	0.08019
3930.41436	0.08108
3928.48579	0.07992
3926.55723	0.07906
3924.62866	0.08024
3922.70010	0.08123
3920.77153	0.08078
3918.84297	0.08088
3916.91440	0.08136
3914.98584	0.08008
3913.05728	0.07758
3911.12871	0.07597
3909.20015	0.07577
3907.27158	0.07746
3905.34302	0.08186
3903.41445	0.08720
3901.48589	0.08963
3899.55732	0.08858
3897.62876	0.08500
3895.70020	0.08103
3893.77163	0.08002
3891.84307	0.08225
3889.91450	0.08354
3887.98594	0.08222
3886.05737	0.08257
3884.12881	0.08451
3882.20024	0.08514
3880.27168	0.08546
3878.34312	0.08434
3876.41455	0.08239
3874.48599	0.08338
3872.55742	0.08679
3870.62886	0.09029
3868.70029	0.09201
3866.77173	0.09078
3864.84316	0.09049
3862.91460	0.09142
3860.98604	0.08938
3859.05747	0.08649
3857.12891	0.08684
3855.20034	0.09140
3853.27178	0.09950
3851.34321	0.10146
3849.41465	0.09407
3847.48608	0.08829
3845.55752	0.08686
3843.62896	0.08899
3841.70039	0.09323
3839.77183	0.09836
3837.84326	0.10250
3835.91470	0.10223
3833.98613	0.09884
3832.05757	0.09562
3830.12900	0.09355
3828.20044	0.09354
3826.27187	0.09531
3824.34331	0.09727
3822.41475	0.10057
3820.48618	0.10629
3818.55762	0.10839
3816.62905	0.10674
3814.70049	0.10441
3812.77192	0.10050
3810.84336	0.09779
3808.91479	0.09848
3806.98623	0.10243
3805.05767	0.10686
3803.12910	0.11059
3801.20054	0.11552
3799.27197	0.11721
3797.34341	0.11456
3795.41484	0.11202
3793.48628	0.10944
3791.55771	0.10764
3789.62915	0.10789
3787.70059	0.10980
3785.77202	0.11261
3783.84346	0.11500
3781.91489	0.11639
3779.98633	0.11854
3778.05776	0.12085
3776.12920	0.12075
3774.20063	0.12024
3772.27207	0.12203
3770.34351	0.12656
3768.41494	0.13129
3766.48638	0.13330
3764.55781	0.13404
3762.62925	0.13480
3760.70068	0.13719
3758.77212	0.14207
3756.84355	0.14601
3754.91499	0.14815
3752.98643	0.15309
3751.05786	0.16293
3749.12930	0.17104
3747.20073	0.17164
3745.27217	0.17190
3743.34360	0.17448
3741.41504	0.17569
3739.48647	0.17721
3737.55791	0.18281
3735.62935	0.19359
3733.70078	0.20375
3731.77222	0.20540
3729.84365	0.20385
3727.91509	0.20585
3725.98652	0.21220
3724.05796	0.21953
3722.12939	0.22500
3720.20083	0.22901
3718.27227	0.23221
3716.34370	0.23618
3714.41514	0.24329
3712.48657	0.25638
3710.55801	0.27487
3708.62944	0.28891
3706.70088	0.29640
3704.77231	0.30465
3702.84375	0.31740
3700.91519	0.33463
3698.98662	0.35166
3697.05806	0.36712
3695.12949	0.38480
3693.20093	0.40540
3691.27236	0.42968
3689.34380	0.46018
3687.41523	0.49212
3685.48667	0.51641
3683.55811	0.53829
3681.62954	0.56505
3679.70098	0.59756
3677.77241	0.63296
3675.84385	0.67514
3673.91528	0.72797
3671.98672	0.76887
3670.05815	0.80670
3668.12959	0.85659
3666.20103	0.89871
3664.27246	0.93447
3662.34390	0.97559
3660.41533	1.02177
3658.48677	1.06848
3656.55820	1.11844
3654.62964	1.17242
3652.70107	1.21814
3650.77251	1.26210
3648.84395	1.32339
3646.91538	1.38907
3644.98682	1.43088
3643.05825	1.46377
3641.12969	1.50080
3639.20112	1.54333
3637.27256	1.58690
3635.34399	1.63023
3633.41543	1.67444
3631.48687	1.71654
3629.55830	1.76038
3627.62974	1.81471
3625.70117	1.86009
3623.77261	1.89032
3621.84404	1.92211
3619.91548	1.96041
3617.98691	2.00580
3616.05835	2.04740
3614.12979	2.08170
3612.20122	2.11899
3610.27266	2.15826
3608.34409	2.19831
3606.41553	2.23878
3604.48696	2.27510
3602.55840	2.30930
3600.62983	2.34754
3598.70127	2.38761
3596.77271	2.42603
3594.84414	2.46569
3592.91558	2.50559
3590.98701	2.54199
3589.05845	2.57704
3587.12988	2.61961
3585.20132	2.66515
3583.27275	2.70299
3581.34419	2.73809
3579.41562	2.77643
3577.48706	2.81792
3575.55850	2.86015
3573.62993	2.90214
3571.70137	2.94208
3569.77280	2.98236
3567.84424	3.02884
3565.91567	3.08354
3563.98711	3.13137
3562.05854	3.16906
3560.12998	3.20742
3558.20142	3.24765
3556.27285	3.28831
3554.34429	3.33101
3552.41572	3.37891
3550.48716	3.42783
3548.55859	3.47350
3546.63003	3.51881
3544.70146	3.56551
3542.77290	3.60969
3540.84434	3.65194
3538.91577	3.69799
3536.98721	3.74751
3535.05864	3.79828
3533.13008	3.84577
3531.20151	3.89000
3529.27295	3.93595
3527.34438	3.98445
3525.41582	4.03344
3523.48726	4.08214
3521.55869	4.12989
3519.63013	4.17547
3517.70156	4.22016
3515.77300	4.26298
3513.84443	4.30442
3511.91587	4.34839
3509.98730	4.39575
3508.05874	4.44480
3506.13018	4.49558
3504.20161	4.54709
3502.27305	4.59521
3500.34448	4.63818
3498.41592	4.67963
3496.48735	4.72338
3494.55879	4.76888
3492.63022	4.81639
3490.70166	4.86928
3488.77310	4.92656
3486.84453	4.98019
3484.91597	5.02402
3482.98740	5.06268
3481.05884	5.10566
3479.13027	5.15420
3477.20171	5.20554
3475.27314	5.25890
3473.34458	5.31121
3471.41602	5.36069
3469.48745	5.40785
3467.55889	5.45236
3465.63032	5.49417
3463.70176	5.53900
3461.77319	5.59058
3459.84463	5.64131
3457.91606	5.68444
3455.98750	5.72776
3454.05894	5.77885
3452.13037	5.83798
3450.20181	5.89598
3448.27324	5.94672
3446.34468	6.00446
3444.41611	6.05931
3442.48755	6.09667
3440.55898	6.13600
3438.63042	6.18239
3436.70186	6.22322
3434.77329	6.26399
3432.84473	6.30883
3430.91616	6.35054
3428.98760	6.38850
3427.05903	6.43214
3425.13047	6.50050
3423.20190	6.57738
3421.27334	6.63294
3419.34478	6.66678
3417.41621	6.70142
3415.48765	6.75935
3413.55908	6.82274
3411.63052	6.85475
3409.70195	6.86823
3407.77339	6.91584
3405.84482	6.97363
3403.91626	6.99557
3401.98770	7.01345
3400.05913	7.07180
3398.13057	7.17263
3396.20200	7.27857
3394.27344	7.33260
3392.34487	7.32127
3390.41631	7.33037
3388.48774	7.38928
3386.55918	7.42083
3384.63062	7.41150
3382.70205	7.42526
3380.77349	7.45682
3378.84492	7.48036
3376.91636	7.50419
3374.98779	7.52596
3373.05923	7.56114
3371.13066	7.60675
3369.20210	7.64533
3367.27354	7.66590
3365.34497	7.69914
3363.41641	7.76223
3361.48784	7.82376
3359.55928	7.85632
3357.63071	7.83654
3355.70215	7.80572
3353.77358	7.80899
3351.84502	7.84993
3349.91646	7.91354
3347.98789	7.99096
3346.05933	8.03566
3344.13076	8.02110
3342.20220	7.97225
3340.27363	7.91865
3338.34507	7.91392
3336.41650	7.94486
3334.48794	7.98149
3332.55937	7.98187
3330.63081	7.94366
3328.70225	7.93182
3326.77368	7.99198
3324.84512	8.10352
3322.91655	8.16939
3320.98799	8.17748
3319.05942	8.14278
3317.13086	8.06569
3315.20229	8.03459
3313.27373	8.11904
3311.34517	8.21642
3309.41660	8.21103
3307.48804	8.13886
3305.55947	8.05723
3303.63091	8.01602
3301.70234	8.00988
3299.77378	8.01361
3297.84521	8.00577
3295.91665	8.00066
3293.98809	8.03938
3292.05952	8.09613
3290.13096	8.09872
3288.20239	8.05963
3286.27383	8.03674
3284.34526	7.99414
3282.41670	7.94241
3280.48813	7.95473
3278.55957	8.02618
3276.63101	8.11677
3274.70244	8.22603
3272.77388	8.27167
3270.84531	8.20196
3268.91675	8.17691
3266.98818	8.21959
3265.05962	8.20214
3263.13105	8.16943
3261.20249	8.18750
3259.27393	8.16479
3257.34536	8.09813
3255.41680	8.08424
3253.48823	8.11835
3251.55967	8.12021
3249.63110	8.11825
3247.70254	8.14314
3245.77397	8.10279
3243.84541	8.06694
3241.91685	8.13026
3239.98828	8.19397
3238.05972	8.22193
3236.13115	8.24566
3234.20259	8.18171
3232.27402	8.06592
3230.34546	8.01743
3228.41689	8.04020
3226.48833	8.08417
3224.55977	8.07612
3222.63120	8.04981
3220.70264	8.07544
3218.77407	8.09428
3216.84551	8.05744
3214.91694	8.03801
3212.98838	8.04806
3211.05981	7.97824
3209.13125	7.87013
3207.20269	7.84724
3205.27412	7.86208
3203.34556	7.79543
3201.41699	7.69177
3199.48843	7.65711
3197.55986	7.67824
3195.63130	7.68747
3193.70273	7.66235
3191.77417	7.62121
3189.84561	7.55744
3187.91704	7.45387
3185.98848	7.35807
3184.05991	7.31648
3182.13135	7.29575
3180.20278	7.24106
3178.27422	7.16725
3176.34565	7.12770
3174.41709	7.10791
3172.48853	7.06717
3170.55996	7.02727
3168.63140	6.98783
3166.70283	6.91814
3164.77427	6.84922
3162.84570	6.79831
3160.91714	6.72718
3158.98857	6.64127
3157.06001	6.57175
3155.13145	6.50973
3153.20288	6.44438
3151.27432	6.39169
3149.34575	6.34313
3147.41719	6.27115
3145.48862	6.19367
3143.56006	6.12691
3141.63149	6.05093
3139.70293	5.97010
3137.77437	5.90511
3135.84580	5.84177
3133.91724	5.76326
3131.98867	5.68490
3130.06011	5.62225
3128.13154	5.56361
3126.20298	5.49161
3124.27441	5.41482
3122.34585	5.34348
3120.41729	5.27208
3118.48872	5.19927
3116.56016	5.12538
3114.63159	5.04895
3112.70303	4.97576
3110.77446	4.91023
3108.84590	4.84636
3106.91733	4.77838
3104.98877	4.70873
3103.06021	4.63981
3101.13164	4.56969
3099.20308	4.49918
3097.27451	4.42898
3095.34595	4.35958
3093.41738	4.29455
3091.48882	4.23307
3089.56025	4.17182
3087.63169	4.10990
3085.70312	4.04644
3083.77456	3.98125
3081.84600	3.91692
3079.91743	3.85508
3077.98887	3.79342
3076.06030	3.72986
3074.13174	3.66622
3072.20317	3.60583
3070.27461	3.54917
3068.34604	3.49355
3066.41748	3.43688
3064.48892	3.37991
3062.56035	3.32363
3060.63179	3.26750
3058.70322	3.21215
3056.77466	3.15873
3054.84609	3.10577
3052.91753	3.05262
3050.98896	3.00104
3049.06040	2.95074
3047.13184	2.90012
3045.20327	2.84986
3043.27471	2.80098
3041.34614	2.75257
3039.41758	2.70427
3037.48901	2.65730
3035.56045	2.61245
3033.63188	2.56846
3031.70332	2.52346
3029.77476	2.47796
3027.84619	2.43354
3025.91763	2.39025
3023.98906	2.34828
3022.06050	2.30783
3020.13193	2.26752
3018.20337	2.22710
3016.27480	2.18790
3014.34624	2.14988
3012.41768	2.11194
3010.48911	2.07380
3008.56055	2.03645
3006.63198	2.00030
3004.70342	1.96449
3002.77485	1.92896
3000.84629	1.89462
2998.91772	1.86101
2996.98916	1.82694
2995.06060	1.79299
2993.13203	1.76013
2991.20347	1.72829
2989.27490	1.69717
2987.34634	1.66635
2985.41777	1.63577
2983.48921	1.60584
2981.56064	1.57669
2979.63208	1.54820
2977.70352	1.52020
2975.77495	1.49248
2973.84639	1.46510
2971.91782	1.43829
2969.98926	1.41186
2968.06069	1.38604
2966.13213	1.36172
2964.20356	1.33884
2962.27500	1.31632
2960.34644	1.29365
2958.41787	1.27144
2956.48931	1.25000
2954.56074	1.22852
2952.63218	1.20620
2950.70361	1.18352
2948.77505	1.16149
2946.84648	1.14007
2944.91792	1.11901
2942.98936	1.09900
2941.06079	1.08024
2939.13223	1.06236
2937.20366	1.04577
2935.27510	1.03045
2933.34653	1.01540
2931.41797	1.00068
2929.48940	0.98682
2927.56084	0.97309
2925.63228	0.95892
2923.70371	0.94414
2921.77515	0.92812
2919.84658	0.91061
2917.91802	0.89196
2915.98945	0.87257
2914.06089	0.85263
2912.13232	0.83276
2910.20376	0.81392
2908.27520	0.79633
2906.34663	0.78016
2904.41807	0.76539
2902.48950	0.75128
2900.56094	0.73759
2898.63237	0.72411
2896.70381	0.71067
2894.77524	0.69756
2892.84668	0.68474
2890.91812	0.67219
2888.98955	0.66023
2887.06099	0.64861
2885.13242	0.63685
2883.20386	0.62518
2881.27529	0.61416
2879.34673	0.60356
2877.41816	0.59323
2875.48960	0.58351
2873.56104	0.57452
2871.63247	0.56589
2869.70391	0.55702
2867.77534	0.54780
2865.84678	0.53871
2863.91821	0.53023
2861.98965	0.52266
2860.06108	0.51640
2858.13252	0.51145
2856.20396	0.50664
2854.27539	0.50074
2852.34683	0.49358
2850.41826	0.48497
2848.48970	0.47439
2846.56113	0.46258
2844.63257	0.45121
2842.70400	0.44114
2840.77544	0.43255
2838.84687	0.42498
2836.91831	0.41784
2834.98975	0.41100
2833.06118	0.40439
2831.13262	0.39803
2829.20405	0.39208
2827.27549	0.38638
2825.34692	0.38069
2823.41836	0.37501
2821.48979	0.36927
2819.56123	0.36343
2817.63267	0.35770
2815.70410	0.35224
2813.77554	0.34703
2811.84697	0.34194
2809.91841	0.33680
2807.98984	0.33169
2806.06128	0.32698
2804.13271	0.32249
2802.20415	0.31775
2800.27559	0.31298
2798.34702	0.30848
2796.41846	0.30407
2794.48989	0.29962
2792.56133	0.29534
2790.63276	0.29141
2788.70420	0.28759
2786.77563	0.28359
2784.84707	0.27938
2782.91851	0.27528
2780.98994	0.27158
2779.06138	0.26813
2777.13281	0.26463
2775.20425	0.26115
2773.27568	0.25783
2771.34712	0.25460
2769.41855	0.25139
2767.48999	0.24821
2765.56143	0.24514
2763.63286	0.24214
2761.70430	0.23923
2759.77573	0.23646
2757.84717	0.23372
2755.91860	0.23095
2753.99004	0.22822
2752.06147	0.22555
2750.13291	0.22289
2748.20435	0.22018
2746.27578	0.21758
2744.34722	0.21509
2742.41865	0.21265
2740.49009	0.21033
2738.56152	0.20811
2736.63296	0.20589
2734.70439	0.20364
2732.77583	0.20148
2730.84727	0.19953
2728.91870	0.19756
2726.99014	0.19545
2725.06157	0.19345
2723.13301	0.19168
2721.20444	0.18993
2719.27588	0.18815
2717.34731	0.18633
2715.41875	0.18447
2713.49019	0.18259
2711.56162	0.18080
2709.63306	0.17928
2707.70449	0.17788
2705.77593	0.17644
2703.84736	0.17492
2701.91880	0.17341
2699.99023	0.17198
2698.06167	0.17066
2696.13311	0.16942
2694.20454	0.16811
2692.27598	0.16679
2690.34741	0.16570
2688.41885	0.16473
2686.49028	0.16368
2684.56172	0.16273
2682.63315	0.16186
2680.70459	0.16084
2678.77603	0.15975
2676.84746	0.15868
2674.91890	0.15769
2672.99033	0.15683
2671.06177	0.15597
2669.13320	0.15509
2667.20464	0.15421
2665.27607	0.15339
2663.34751	0.15280
2661.41895	0.15229
2659.49038	0.15153
2657.56182	0.15073
2655.63325	0.15013
2653.70469	0.14962
2651.77612	0.14907
2649.84756	0.14854
2647.91899	0.14812
2645.99043	0.14762
2644.06187	0.14698
2642.13330	0.14645
2640.20474	0.14611
2638.27617	0.14578
2636.34761	0.14551
2634.41904	0.14534
2632.49048	0.14512
2630.56191	0.14492
2628.63335	0.14470
2626.70479	0.14432
2624.77622	0.14404
2622.84766	0.14389
2620.91909	0.14369
2618.99053	0.14356
2617.06196	0.14362
2615.13340	0.14371
2613.20483	0.14363
2611.27627	0.14336
2609.34771	0.14317
2607.41914	0.14325
2605.49058	0.14339
2603.56201	0.14345
2601.63345	0.14354
2599.70488	0.14374
2597.77632	0.14393
2595.84775	0.14410
2593.91919	0.14429
2591.99062	0.14447
2590.06206	0.14463
2588.13350	0.14483
2586.20493	0.14508
2584.27637	0.14545
2582.34780	0.14588
2580.41924	0.14626
2578.49067	0.14653
2576.56211	0.14683
2574.63354	0.14734
2572.70498	0.14790
2570.77642	0.14836
2568.84785	0.14873
2566.91929	0.14904
2564.99072	0.14942
2563.06216	0.14999
2561.13359	0.15061
2559.20503	0.15113
2557.27646	0.15155
2555.34790	0.15203
2553.41934	0.15270
2551.49077	0.15335
2549.56221	0.15390
2547.63364	0.15448
2545.70508	0.15511
2543.77651	0.15570
2541.84795	0.15631
2539.91938	0.15702
2537.99082	0.15782
2536.06226	0.15859
2534.13369	0.15926
2532.20513	0.16002
2530.27656	0.16101
2528.34800	0.16207
2526.41943	0.16293
2524.49087	0.16358
2522.56230	0.16434
2520.63374	0.16522
2518.70518	0.16592
2516.77661	0.16652
2514.84805	0.16728
2512.91948	0.16826
2510.99092	0.16928
2509.06235	0.17012
2507.13379	0.17081
2505.20522	0.17156
2503.27666	0.17244
2501.34810	0.17340
2499.41953	0.17432
2497.49097	0.17521
2495.56240	0.17622
2493.63384	0.17724
2491.70527	0.17808
2489.77671	0.17891
2487.84814	0.17983
2485.91958	0.18077
2483.99102	0.18167
2482.06245	0.18259
2480.13389	0.18360
2478.20532	0.18456
2476.27676	0.18545
2474.34819	0.18639
2472.41963	0.18739
2470.49106	0.18847
2468.56250	0.18957
2466.63394	0.19056
2464.70537	0.19147
2462.77681	0.19242
2460.84824	0.19345
2458.91968	0.19448
2456.99111	0.19543
2455.06255	0.19641
2453.13398	0.19743
2451.20542	0.19837
2449.27686	0.19936
2447.34829	0.20049
2445.41973	0.20155
2443.49116	0.20253
2441.56260	0.20356
2439.63403	0.20469
2437.70547	0.20588
2435.77690	0.20702
2433.84834	0.20809
2431.91978	0.20915
2429.99121	0.21022
2428.06265	0.21125
2426.13408	0.21222
2424.20552	0.21333
2422.27695	0.21467
2420.34839	0.21599
2418.41982	0.21717
2416.49126	0.21828
2414.56270	0.21933
2412.63413	0.22039
2410.70557	0.22152
2408.77700	0.22271
2406.84844	0.22399
2404.91987	0.22537
2402.99131	0.22667
2401.06274	0.22778
2399.13418	0.22889
2397.20562	0.23016
2395.27705	0.23148
2393.34849	0.23280
2391.41992	0.23417
2389.49136	0.23569
2387.56279	0.23774
2385.63423	0.24088
2383.70566	0.24553
2381.77710	0.25185
2379.84854	0.25969
2377.91997	0.26881
2375.99141	0.27925
2374.06284	0.29122
2372.13428	0.30457
2370.20571	0.31908
2368.27715	0.33426
2366.34858	0.34885
2364.42002	0.36116
2362.49146	0.37040
2360.56289	0.37622
2358.63433	0.37723
2356.70576	0.37254
2354.77720	0.36291
2352.84863	0.34983
2350.92007	0.33568
2348.99150	0.32646
2347.06294	0.32695
2345.13437	0.33757
2343.20581	0.35109
2341.27725	0.35811
2339.34868	0.35932
2337.42012	0.35851
2335.49155	0.35768
2333.56299	0.35740
2331.63442	0.35741
2329.70586	0.35637
2327.77729	0.35380
2325.84873	0.35081
2323.92017	0.34839
2321.99160	0.34587
2320.06304	0.34177
2318.13447	0.33669
2316.20591	0.33259
2314.27734	0.33038
2312.34878	0.32950
2310.42021	0.32858
2308.49165	0.32690
2306.56309	0.32491
2304.63452	0.32329
2302.70596	0.32246
2300.77739	0.32224
2298.84883	0.32226
2296.92026	0.32258
2294.99170	0.32311
2293.06313	0.32362
2291.13457	0.32414
2289.20601	0.32470
2287.27744	0.32526
2285.34888	0.32591
2283.42031	0.32697
2281.49175	0.32877
2279.56318	0.33113
2277.63462	0.33353
2275.70605	0.33576
2273.77749	0.33789
2271.84893	0.34001
2269.92036	0.34220
2267.99180	0.34440
2266.06323	0.34645
2264.13467	0.34838
2262.20610	0.35026
2260.27754	0.35211
2258.34897	0.35394
2256.42041	0.35579
2254.49185	0.35764
2252.56328	0.35947
2250.63472	0.36147
2248.70615	0.36359
2246.77759	0.36568
2244.84902	0.36774
2242.92046	0.36972
2240.99189	0.37172
2239.06333	0.37388
2237.13477	0.37615
2235.20620	0.37842
2233.27764	0.38065
2231.34907	0.38277
2229.42051	0.38483
2227.49194	0.38692
2225.56338	0.38904
2223.63481	0.39122
2221.70625	0.39351
2219.77769	0.39587
2217.84912	0.39811
2215.92056	0.40026
2213.99199	0.40244
2212.06343	0.40462
2210.13486	0.40674
2208.20630	0.40893
2206.27773	0.41111
2204.34917	0.41316
2202.42061	0.41513
2200.49204	0.41710
2198.56348	0.41906
2196.63491	0.42100
2194.70635	0.42290
2192.77778	0.42468
2190.84922	0.42649
2188.92065	0.42844
2186.99209	0.43042
2185.06353	0.43228
2183.13496	0.43403
2181.20640	0.43563
2179.27783	0.43719
2177.34927	0.43887
2175.42070	0.44055
2173.49214	0.44212
2171.56357	0.44356
2169.63501	0.44495
2167.70645	0.44634
2165.77788	0.44768
2163.84932	0.44887
2161.92075	0.44984
2159.99219	0.45076
2158.06362	0.45184
2156.13506	0.45295
2154.20649	0.45385
2152.27793	0.45461
2150.34937	0.45529
2148.42080	0.45589
2146.49224	0.45644
2144.56367	0.45687
2142.63511	0.45717
2140.70654	0.45742
2138.77798	0.45774
2136.84941	0.45808
2134.92085	0.45830
2132.99229	0.45831
2131.06372	0.45815
2129.13516	0.45782
2127.20659	0.45746
2125.27803	0.45722
2123.34946	0.45690
2121.42090	0.45639
2119.49233	0.45578
2117.56377	0.45507
2115.63521	0.45432
2113.70664	0.45357
2111.77808	0.45270
2109.84951	0.45173
2107.92095	0.45066
2105.99238	0.44937
2104.06382	0.44806
2102.13525	0.44689
2100.20669	0.44571
2098.27812	0.44439
2096.34956	0.44289
2094.42100	0.44123
2092.49243	0.43959
2090.56387	0.43797
2088.63530	0.43619
2086.70674	0.43436
2084.77817	0.43261
2082.84961	0.43077
2080.92104	0.42873
2078.99248	0.42665
2077.06392	0.42463
2075.13535	0.42260
2073.20679	0.42045
2071.27822	0.41817
2069.34966	0.41585
2067.42109	0.41366
2065.49253	0.41160
2063.56396	0.40929
2061.63540	0.40663
2059.70684	0.40396
2057.77827	0.40145
2055.84971	0.39898
2053.92114	0.39636
2051.99258	0.39362
2050.06401	0.39093
2048.13545	0.38834
2046.20688	0.38582
2044.27832	0.38334
2042.34976	0.38080
2040.42119	0.37808
2038.49263	0.37524
2036.56406	0.37241
2034.63550	0.36965
2032.70693	0.36688
2030.77837	0.36414
2028.84980	0.36140
2026.92124	0.35865
2024.99268	0.35588
2023.06411	0.35311
2021.13555	0.35045
2019.20698	0.34798
2017.27842	0.34543
2015.34985	0.34242
2013.42129	0.33924
2011.49272	0.33637
2009.56416	0.33373
2007.63560	0.33105
2005.70703	0.32833
2003.77847	0.32567
2001.84990	0.32309
1999.92134	0.32058
1997.99277	0.31804
1996.06421	0.31556
1994.13564	0.31343
1992.20708	0.31141
1990.27852	0.30888
1988.34995	0.30598
1986.42139	0.30323
1984.49282	0.30065
1982.56426	0.29820
1980.63569	0.29584
1978.70713	0.29358
1976.77856	0.29139
1974.85000	0.28925
1972.92144	0.28708
1970.99287	0.28504
1969.06431	0.28334
1967.13574	0.28172
1965.20718	0.27954
1963.27861	0.27707
1961.35005	0.27490
1959.42148	0.27299
1957.49292	0.27119
1955.56436	0.26952
1953.63579	0.26787
1951.70723	0.26612
1949.77866	0.26441
1947.85010	0.26291
1945.92153	0.26172
1943.99297	0.26087
1942.06440	0.25972
1940.13584	0.25771
1938.20728	0.25559
1936.27871	0.25402
1934.35015	0.25286
1932.42158	0.25174
1930.49302	0.25049
1928.56445	0.24928
1926.63589	0.24832
1924.70732	0.24789
1922.77876	0.24762
1920.85020	0.24680
1918.92163	0.24589
1916.99307	0.24490
1915.06450	0.24335
1913.13594	0.24205
1911.20737	0.24161
1909.27881	0.24137
1907.35024	0.24061
1905.42168	0.23955
1903.49312	0.23878
1901.56455	0.23824
1899.63599	0.23767
1897.70742	0.23724
1895.77886	0.23711
1893.85029	0.23687
1891.92173	0.23658
1889.99316	0.23679
1888.06460	0.23670
1886.13604	0.23595
1884.20747	0.23530
1882.27891	0.23490
1880.35034	0.23470
1878.42178	0.23465
1876.49321	0.23459
1874.56465	0.23456
1872.63608	0.23500
1870.70752	0.23644
1868.77896	0.23849
1866.85039	0.23882
1864.92183	0.23732
1862.99326	0.23620
1861.06470	0.23600
1859.13613	0.23633
1857.20757	0.23678
1855.27900	0.23722
1853.35044	0.23760
1851.42187	0.23819
1849.49331	0.23927
1847.56475	0.24087
1845.63618	0.24281
1843.70762	0.24432
1841.77905	0.24420
1839.85049	0.24361
1837.92192	0.24404
1835.99336	0.24495
1834.06479	0.24590
1832.13623	0.24757
1830.20767	0.25025
1828.27910	0.25201
1826.35054	0.25239
1824.42197	0.25313
1822.49341	0.25379
1820.56484	0.25438
1818.63628	0.25548
1816.70771	0.25700
1814.77915	0.25874
1812.85059	0.26103
1810.92202	0.26374
1808.99346	0.26587
1807.06489	0.26734
1805.13633	0.26897
1803.20776	0.27155
1801.27920	0.27494
1799.35063	0.27820
1797.42207	0.28056
1795.49351	0.28309
1793.56494	0.28684
1791.63638	0.29114
1789.70781	0.29348
1787.77925	0.29466
1785.85068	0.29733
1783.92212	0.30122
1781.99355	0.30556
1780.06499	0.31006
1778.13643	0.31425
1776.20786	0.31842
1774.27930	0.32394
1772.35073	0.33142
1770.42217	0.33778
1768.49360	0.34174
1766.56504	0.34562
1764.63647	0.35046
1762.70791	0.35698
1760.77935	0.36515
1758.85078	0.37229
1756.92222	0.37966
1754.99365	0.38792
1753.06509	0.39599
1751.13652	0.40661
1749.20796	0.41952
1747.27939	0.43043
1745.35083	0.43910
1743.42227	0.44851
1741.49370	0.45924
1739.56514	0.47160
1737.63657	0.48362
1735.70801	0.49511
1733.77944	0.51280
1731.85088	0.53127
1729.92231	0.54443
1727.99375	0.55840
1726.06519	0.57457
1724.13662	0.59306
1722.20806	0.61306
1720.27949	0.63230
1718.35093	0.65644
1716.42236	0.69001
1714.49380	0.71834
1712.56523	0.74025
1710.63667	0.76264
1708.70811	0.78799
1706.77954	0.81746
1704.85098	0.85206
1702.92241	0.88263
1700.99385	0.91353
1699.06528	0.95863
1697.13672	0.99848
1695.20815	1.03712
1693.27959	1.07400
1691.35103	1.10475
1689.42246	1.14119
1687.49390	1.17952
1685.56533	1.21730
1683.63677	1.27340
1681.70820	1.32759
1679.77964	1.36182
1677.85107	1.39553
1675.92251	1.43504
1673.99395	1.48364
1672.06538	1.52716
1670.13682	1.56984
1668.20825	1.62106
1666.27969	1.66012
1664.35112	1.69463
1662.42256	1.73831
1660.49399	1.78456
1658.56543	1.82032
1656.63687	1.85203
1654.70830	1.88507
1652.77974	1.93898
1650.85117	1.98866
1648.92261	2.00877
1646.99404	2.03617
1645.06548	2.06674
1643.13691	2.08614
1641.20835	2.09956
1639.27979	2.11345
1637.35122	2.12505
1635.42266	2.13018
1633.49409	2.12429
1631.56553	2.11201
1629.63696	2.09808
1627.70840	2.07640
1625.77983	2.05096
1623.85127	2.01752
1621.92271	1.97450
1619.99414	1.93523
1618.06558	1.89731
1616.13701	1.84263
1614.20845	1.78423
1612.27988	1.73878
1610.35132	1.69250
1608.42275	1.64241
1606.49419	1.59218
1604.56562	1.54526
1602.63706	1.49961
1600.70850	1.45428
1598.77993	1.41195
1596.85137	1.37229
1594.92280	1.33414
1592.99424	1.29716
1591.06567	1.26264
1589.13711	1.22980
1587.20854	1.19888
1585.27998	1.16985
1583.35142	1.14210
1581.42285	1.11629
1579.49429	1.09432
1577.56572	1.07484
1575.63716	1.04988
1573.70859	1.02565
1571.78003	1.00963
1569.85146	0.99344
1567.92290	0.97351
1565.99434	0.95615
1564.06577	0.94151
1562.13721	0.93029
1560.20864	0.92302
1558.28008	0.90861
1556.35151	0.88923
1554.42295	0.87581
1552.49438	0.86402
1550.56582	0.85339
1548.63726	0.84302
1546.70869	0.83427
1544.78013	0.82787
1542.85156	0.82298
1540.92300	0.81734
1538.99443	0.80441
1537.06587	0.79171
1535.13730	0.78454
1533.20874	0.77756
1531.28018	0.76909
1529.35161	0.76273
1527.42305	0.75798
1525.49448	0.75327
1523.56592	0.74928
1521.63735	0.74515
1519.70879	0.73839
1517.78022	0.73170
1515.85166	0.72512
1513.92310	0.71844
1511.99453	0.71387
1510.06597	0.71202
1508.13740	0.71230
1506.20884	0.70823
1504.28027	0.69862
1502.35171	0.69253
1500.42314	0.68914
1498.49458	0.68658
1496.56602	0.68302
1494.63745	0.67839
1492.70889	0.67510
1490.78032	0.67373
1488.85176	0.67182
1486.92319	0.66731
1484.99463	0.66233
1483.06606	0.65858
1481.13750	0.65570
1479.20894	0.65317
1477.28037	0.65163
1475.35181	0.65125
1473.42324	0.65066
1471.49468	0.64721
1469.56611	0.64225
1467.63755	0.63901
1465.70898	0.63735
1463.78042	0.63526
1461.85186	0.63268
1459.92329	0.63191
1457.99473	0.63300
1456.06616	0.63086
1454.13760	0.62507
1452.20903	0.62085
1450.28047	0.61828
1448.35190	0.61656
1446.42334	0.61451
1444.49478	0.61204
1442.56621	0.61011
1440.63765	0.60886
1438.70908	0.60841
1436.78052	0.60830
1434.85195	0.60681
1432.92339	0.60455
1430.99482	0.60293
1429.06626	0.60132
1427.13770	0.59937
1425.20913	0.59790
1423.28057	0.59677
1421.35200	0.59590
1419.42344	0.59567
1417.49487	0.59443
1415.56631	0.59143
1413.63774	0.58870
1411.70918	0.58690
1409.78062	0.58557
1407.85205	0.58442
1405.92349	0.58357
1403.99492	0.58234
1402.06636	0.58074
1400.13779	0.57989
1398.20923	0.57972
1396.28066	0.57919
1394.35210	0.57758
1392.42354	0.57510
1390.49497	0.57318
1388.56641	0.57243
1386.63784	0.57169
1384.70928	0.56994
1382.78071	0.56819
1380.85215	0.56710
1378.92358	0.56643
1376.99502	0.56598
1375.06646	0.56560
1373.13789	0.56448
1371.20933	0.56272
1369.28076	0.56140
1367.35220	0.56040
1365.42363	0.55961
1363.49507	0.55934
1361.56650	0.55876
1359.63794	0.55717
1357.70937	0.55557
1355.78081	0.55446
1353.85225	0.55349
1351.92368	0.55259
1349.99512	0.55188
1348.06655	0.55108
1346.13799	0.55003
1344.20942	0.54903
1342.28086	0.54860
1340.35229	0.54871
1338.42373	0.54823
1336.49517	0.54671
1334.56660	0.54515
1332.63804	0.54400
1330.70947	0.54304
1328.78091	0.54207
1326.85234	0.54107
1324.92378	0.54018
1322.99521	0.53951
1321.06665	0.53914
1319.13809	0.53877
1317.20952	0.53790
1315.28096	0.53692
1313.35239	0.53625
1311.42383	0.53550
1309.49526	0.53459
1307.56670	0.53377
1305.63813	0.53296
1303.70957	0.53203
1301.78101	0.53112
1299.85244	0.53022
1297.92388	0.52932
1295.99531	0.52858
1294.06675	0.52808
1292.13818	0.52772
1290.20962	0.52732
1288.28105	0.52679
1286.35249	0.52617
1284.42393	0.52572
1282.49536	0.52542
1280.56680	0.52509
1278.63823	0.52474
1276.70967	0.52441
1274.78110	0.52396
1272.85254	0.52341
1270.92397	0.52291
1268.99541	0.52253
1267.06685	0.52216
1265.13828	0.52165
1263.20972	0.52113
1261.28115	0.52080
1259.35259	0.52064
1257.42402	0.52047
1255.49546	0.52021
1253.56689	0.51996
1251.63833	0.51965
1249.70977	0.51930
1247.78120	0.51908
1245.85264	0.51892
1243.92407	0.51859
1241.99551	0.51817
1240.06694	0.51783
1238.13838	0.51756
1236.20981	0.51718
1234.28125	0.51655
1232.35269	0.51581
1230.42412	0.51508
1228.49556	0.51445
1226.56699	0.51401
1224.63843	0.51363
1222.70986	0.51305
1220.78130	0.51235
1218.85273	0.51170
1216.92417	0.51106
1214.99561	0.51049
1213.06704	0.51002
1211.13848	0.50948
1209.20991	0.50886
1207.28135	0.50830
1205.35278	0.50778
1203.42422	0.50713
1201.49565	0.50640
1199.56709	0.50593
1197.63853	0.50566
1195.70996	0.50526
1193.78140	0.50470
1191.85283	0.50427
1189.92427	0.50397
1187.99570	0.50365
1186.06714	0.50338
1184.13857	0.50331
1182.21001	0.50358
1180.28145	0.50404
1178.35288	0.50438
1176.42432	0.50473
1174.49575	0.50517
1172.56719	0.50559
1170.63862	0.50590
1168.71006	0.50618
1166.78149	0.50637
1164.85293	0.50643
1162.92437	0.50640
1160.99580	0.50619
1159.06724	0.50584
1157.13867	0.50540
1155.21011	0.50461
1153.28154	0.50344
1151.35298	0.50208
1149.42441	0.50032
1147.49585	0.49805
1145.56729	0.49564
1143.63872	0.49340
1141.71016	0.49111
1139.78159	0.48858
1137.85303	0.48624
1135.92446	0.48422
1133.99590	0.48227
1132.06733	0.48040
1130.13877	0.47873
1128.21021	0.47722
1126.28164	0.47569
1124.35308	0.47423
1122.42451	0.47308
1120.49595	0.47232
1118.56738	0.47200
1116.63882	0.47204
1114.71025	0.47213
1112.78169	0.47223
1110.85312	0.47251
1108.92456	0.47325
1106.99600	0.47428
1105.06743	0.47542
1103.13887	0.47691
1101.21030	0.47888
1099.28174	0.48108
1097.35317	0.48348
1095.42461	0.48635
1093.49604	0.48980
1091.56748	0.49371
1089.63892	0.49816
1087.71035	0.50336
1085.78179	0.50924
1083.85322	0.51550
1081.92466	0.52177
1079.99609	0.52735
1078.06753	0.53122
1076.13896	0.53260
1074.21040	0.53120
1072.28184	0.52741
1070.35327	0.52205
1068.42471	0.51590
1066.49614	0.50952
1064.56758	0.50340
1062.63901	0.49783
1060.71045	0.49269
1058.78188	0.48803
1056.85332	0.48407
1054.92476	0.48084
1052.99619	0.47815
1051.06763	0.47575
1049.13906	0.47342
1047.21050	0.47138
1045.28193	0.46986
1043.35337	0.46867
1041.42480	0.46764
1039.49624	0.46686
1037.56768	0.46636
1035.63911	0.46615
1033.71055	0.46625
1031.78198	0.46649
1029.85342	0.46677
1027.92485	0.46720
1025.99629	0.46772
1024.06772	0.46835
1022.13916	0.46908
1020.21060	0.46974
1018.28203	0.47040
1016.35347	0.47122
1014.42490	0.47229
1012.49634	0.47363
1010.56777	0.47521
1008.63921	0.47692
1006.71064	0.47873
1004.78208	0.48082
1002.85352	0.48325
1000.92495	0.48594
998.99639	0.48888
997.06782	0.49214
995.13926	0.49577
993.21069	0.49945
991.28213	0.50270
989.35356	0.50517
987.42500	0.50685
985.49644	0.50807
983.56787	0.50912
981.63931	0.51024
979.71074	0.51183
977.78218	0.51399
975.85361	0.51648
973.92505	0.51931
971.99648	0.52267
970.06792	0.52637
968.13936	0.53019
966.21079	0.53435
964.28223	0.53895
962.35366	0.54385
960.42510	0.54904
958.49653	0.55441
956.56797	0.55997
954.63940	0.56593
952.71084	0.57228
950.78228	0.57880
948.85371	0.58520
946.92515	0.59145
944.99658	0.59759
943.06802	0.60366
941.13945	0.60977
939.21089	0.61579
937.28232	0.62180
935.35376	0.62779
933.42520	0.63319
931.49663	0.63821
929.56807	0.64342
927.63950	0.64901
925.71094	0.65501
923.78237	0.66112
921.85381	0.66739
919.92524	0.67468
917.99668	0.68302
916.06812	0.69112
914.13955	0.69795
912.21099	0.70425
910.28242	0.71184
908.35386	0.72112
906.42529	0.73038
904.49673	0.73842
902.56816	0.74644
900.63960	0.75590
898.71104	0.76601
896.78247	0.77557
894.85391	0.78465
892.92534	0.79432
890.99678	0.80501
889.06821	0.81535
887.13965	0.82482
885.21108	0.83515
883.28252	0.84691
881.35396	0.85847
879.42539	0.87013
877.49683	0.88247
875.56826	0.89291
873.63970	0.90225
871.71113	0.91444
869.78257	0.92835
867.85400	0.94130
865.92544	0.95299
863.99687	0.96328
862.06831	0.97405
860.13975	0.98638
858.21118	0.99830
856.28262	1.00937
854.35405	1.02010
852.42549	1.03039
850.49692	1.04135
848.56836	1.05300
846.63979	1.06407
844.71123	1.07560
842.78267	1.08785
840.85410	1.09839
838.92554	1.10694
836.99697	1.11763
835.06841	1.13251
833.13984	1.14702
831.21128	1.15726
829.28271	1.16623
827.35415	1.17810
825.42559	1.19088
823.49702	1.20242
821.56846	1.21623
819.63989	1.23438
817.71133	1.24792
815.78276	1.24966
813.85420	1.25037
811.92563	1.25736
809.99707	1.26915
808.06851	1.28306
806.13994	1.29012
804.21138	1.29567
802.28281	1.31119
800.35425	1.32079
798.42568	1.31765
796.49712	1.32153
794.56855	1.33564
792.63999	1.34788
790.71143	1.35949
788.78286	1.37282
786.85430	1.36439
784.92573	1.34383
782.99717	1.34989
781.06860	1.36807
779.14004	1.35365
777.21147	1.33393
775.28291	1.35606
773.35435	1.39034
771.42578	1.36727
769.49722	1.31249
767.56865	1.29634
765.64009	1.30747
763.71152	1.34586
761.78296	1.44405
759.85439	1.47930
757.92583	1.38790
755.99727	1.35983
754.06870	1.41607
752.14014	1.53440
750.21157	1.76210
748.28301	1.82649
746.35444	1.39844
744.42588	1.21893
742.49731	1.17102
740.56875	1.06977
738.64019	1.00295
736.71162	1.04363
734.78306	1.12734
732.85449	1.06771
730.92593	0.87875
728.99736	0.71772
727.06880	0.64170
725.14023	0.65220
723.21167	0.61120
721.28311	0.52512
719.35454	0.55393
717.42598	0.70260
715.49741	0.59493
713.56885	0.38051
711.64028	0.28085
709.71172	0.27738
707.78315	0.33705
705.85459	0.42588
703.92603	0.54415
701.99746	0.76026
700.06890	1.12568
698.14033	0.74258
696.21177	0.46756
694.28320	0.37975
692.35464	0.40029
690.42607	0.39356
688.49751	0.33299
686.56895	0.38748
684.64038	0.52965
682.71182	0.59355
680.78325	0.57366
678.85469	0.53890
676.92612	0.53047
674.99756	0.46196
673.06899	0.36702
671.14043	0.34782
669.21187	0.37465
667.28330	0.38144
665.35474	0.38199
663.42617	0.36881
661.49761	0.32618
659.56904	0.26469
657.64048	0.26664
655.71191	0.38386
653.78335	0.50285
651.85479	0.45870
649.92622	0.41628
647.99766	0.39900
646.06909	0.35324
644.14053	0.29810
642.21196	0.26794
640.28340	0.28167
638.35483	0.29884
636.42627	0.29526
634.49771	0.34726
632.56914	0.46800
630.64058	0.51176
628.71201	0.53997
626.78345	0.58429
624.85488	0.41025
622.92632	0.27455
620.99775	0.25786
619.06919	0.24360
617.14062	0.20318
615.21206	0.20547
613.28350	0.21670
611.35493	0.19338
609.42637	0.16467
607.49780	0.18876
605.56924	0.26045
603.64067	0.33658
601.71211	0.37890
599.78354	0.39485
597.85498	0.40720
595.92642	0.43711
593.99785	0.49515
592.06929	0.49283
590.14072	0.40158
588.21216	0.34131
586.28359	0.34871
584.35503	0.33549
582.42646	0.30548
580.49790	0.35435
578.56934	0.40710
576.64077	0.29968
574.71221	0.20299
572.78364	0.21014
570.85508	0.29485
568.92651	0.30298
566.99795	0.22382
565.06938	0.20940
563.14082	0.26251
561.21226	0.33620
559.28369	0.38496
557.35513	0.34302
555.42656	0.31835
553.49800	0.36508
551.56943	0.36887
549.64087	0.33784
547.71230	0.34222
545.78374	0.34021
543.85518	0.32586
541.92661	0.33199
539.99805	0.31541
538.06948	0.29267
536.14092	0.27599
534.21235	0.24502
532.28379	0.26425
530.35522	0.32256
528.42666	0.29536
526.49810	0.21176
524.56953	0.14584
522.64097	0.11354
520.71240	0.14397
518.78384	0.20493
516.85527	0.21451
514.92671	0.18221
512.99814	0.18143
511.06958	0.20611
509.14102	0.22838
507.21245	0.23676
505.28389	0.23513
503.35532	0.26255
501.42676	0.32371
499.49819	0.38988
