3997.91411	0.06151
3995.98555	0.06154
3994.05698	0.06175
3992.12842	0.06212
3990.19985	0.06262
3988.27129	0.06312
3986.34272	0.06331
3984.41416	0.06328
3982.48560	0.06340
3980.55703	0.06373
3978.62847	0.06382
3976.69990	0.06377
3974.77134	0.06402
3972.84277	0.06442
3970.91421	0.06490
3968.98564	0.06563
3967.05708	0.06627
3965.12852	0.06644
3963.19995	0.06642
3961.27139	0.06650
3959.34282	0.06631
3957.41426	0.06588
3955.48569	0.06572
3953.55713	0.06588
3951.62856	0.06627
3949.70000	0.06677
3947.77144	0.06710
3945.84287	0.06688
3943.91431	0.06645
3941.98574	0.06660
3940.05718	0.06682
3938.12861	0.06660
3936.20005	0.06654
3934.27148	0.06673
3932.34292	0.06676
3930.41436	0.06644
3928.48579	0.06585
3926.55723	0.06548
3924.62866	0.06583
3922.70010	0.06629
3920.77153	0.06623
3918.84297	0.06619
3916.91440	0.06627
3914.98584	0.06600
3913.05728	0.06558
3911.12871	0.06550
3909.20015	0.06548
3907.27158	0.06534
3905.34302	0.06563
3903.41445	0.06642
3901.48589	0.06713
3899.55732	0.06732
3897.62876	0.06664
3895.70020	0.06567
3893.77163	0.06557
3891.84307	0.06632
3889.91450	0.06665
3887.98594	0.06619
3886.05737	0.06629
3884.12881	0.06699
3882.20024	0.06708
3880.27168	0.06699
3878.34312	0.06702
3876.41455	0.06712
3874.48599	0.06776
3872.55742	0.06836
3870.62886	0.06867
3868.70029	0.06908
3866.77173	0.06891
3864.84316	0.06884
3862.91460	0.06931
3860.98604	0.06929
3859.05747	0.06902
3857.12891	0.06912
3855.20034	0.06977
3853.27178	0.07158
3851.34321	0.07324
3849.41465	0.07236
3847.48608	0.07130
3845.55752	0.07136
3843.62896	0.07229
3841.70039	0.07355
3839.77183	0.07488
3837.84326	0.07604
3835.91470	0.07674
3833.98613	0.07711
3832.05757	0.07732
3830.12900	0.07754
3828.20044	0.07795
3826.27187	0.07868
3824.34331	0.07946
3822.41475	0.08042
3820.48618	0.08242
3818.55762	0.08427
3816.62905	0.08485
3814.70049	0.08491
3812.77192	0.08451
3810.84336	0.08434
3808.91479	0.08516
3806.98623	0.08715
3805.05767	0.08922
3803.12910	0.09047
3801.20054	0.09207
3799.27197	0.09353
3797.34341	0.09398
3795.41484	0.09464
3793.48628	0.09521
3791.55771	0.09559
3789.62915	0.09643
3787.70059	0.09768
3785.77202	0.09918
3783.84346	0.10087
3781.91489	0.10255
3779.98633	0.10440
3778.05776	0.10623
3776.12920	0.10710
3774.20063	0.10771
3772.27207	0.10917
3770.34351	0.11163
3768.41494	0.11420
3766.48638	0.11582
3764.55781	0.11748
3762.62925	0.11966
3760.70068	0.12197
3758.77212	0.12482
3756.84355	0.12772
3754.91499	0.12979
3752.98643	0.13197
3751.05786	0.13537
3749.12930	0.13917
3747.20073	0.14131
3745.27217	0.14311
3743.34360	0.14653
3741.41504	0.15002
3739.48647	0.15233
3737.55791	0.15540
3735.62935	0.16077
3733.70078	0.16726
3731.77222	0.17182
3729.84365	0.17512
3727.91509	0.17880
3725.98652	0.18411
3724.05796	0.19088
3722.12939	0.19742
3720.20083	0.20379
3718.27227	0.21082
3716.34370	0.21827
3714.41514	0.22568
3712.48657	0.23466
3710.55801	0.24760
3708.62944	0.26174
3706.70088	0.27343
3704.77231	0.28451
3702.84375	0.29746
3700.91519	0.31416
3698.98662	0.33239
3697.05806	0.34953
3695.12949	0.36754
3693.20093	0.38695
3691.27236	0.40828
3689.34380	0.43594
3687.41523	0.47030
3685.48667	0.50056
3683.55811	0.52655
3681.62954	0.55434
3679.70098	0.58524
3677.77241	0.61752
3675.84385	0.65641
3673.91528	0.70950
3671.98672	0.75293
3670.05815	0.79144
3668.12959	0.84410
3666.20103	0.89163
3664.27246	0.93116
3662.34390	0.97432
3660.41533	1.02146
3658.48677	1.06752
3656.55820	1.11581
3654.62964	1.16966
3652.70107	1.21535
3650.77251	1.25553
3648.84395	1.31178
3646.91538	1.38085
3644.98682	1.43065
3643.05825	1.46882
3641.12969	1.50866
3639.20112	1.55227
3637.27256	1.59540
3635.34399	1.63765
3633.41543	1.68075
3631.48687	1.72148
3629.55830	1.76246
3627.62974	1.81577
3625.70117	1.86600
3623.77261	1.90024
3621.84404	1.93336
3619.91548	1.97183
3617.98691	2.01816
3616.05835	2.06251
3614.12979	2.09904
3612.20122	2.13707
3610.27266	2.17653
3608.34409	2.21705
3606.41553	2.25949
3604.48696	2.29863
3602.55840	2.33395
3600.62983	2.37221
3598.70127	2.41312
3596.77271	2.45259
3594.84414	2.49343
3592.91558	2.53578
3590.98701	2.57468
3589.05845	2.61099
3587.12988	2.65533
3585.20132	2.70494
3583.27275	2.74627
3581.34419	2.78355
3579.41562	2.82487
3577.48706	2.86987
3575.55850	2.91387
3573.62993	2.95631
3571.70137	2.99655
3569.77280	3.03495
3567.84424	3.07664
3565.91567	3.13093
3563.98711	3.18510
3562.05854	3.22692
3560.12998	3.26752
3558.20142	3.31187
3556.27285	3.35622
3554.34429	3.39830
3552.41572	3.44335
3550.48716	3.49237
3548.55859	3.54015
3546.63003	3.58564
3544.70146	3.63388
3542.77290	3.68457
3540.84434	3.73246
3538.91577	3.77834
3536.98721	3.82479
3535.05864	3.87458
3533.13008	3.92432
3531.20151	3.97102
3529.27295	4.01836
3527.34438	4.06906
3525.41582	4.11727
3523.48726	4.16171
3521.55869	4.20916
3519.63013	4.25793
3517.70156	4.30697
3515.77300	4.35852
3513.84443	4.41031
3511.91587	4.45837
3509.98730	4.50439
3508.05874	4.55272
3506.13018	4.60109
3504.20161	4.64632
3502.27305	4.69467
3500.34448	4.74709
3498.41592	4.79281
3496.48735	4.83444
3494.55879	4.88204
3492.63022	4.93416
3490.70166	4.98585
3488.77310	5.03839
3486.84453	5.09125
3484.91597	5.14051
3482.98740	5.18615
3481.05884	5.23374
3479.13027	5.28452
3477.20171	5.33197
3475.27314	5.37571
3473.34458	5.42349
3471.41602	5.47698
3469.48745	5.53029
3467.55889	5.58370
3465.63032	5.63784
3463.70176	5.69200
3461.77319	5.74363
3459.84463	5.78610
3457.91606	5.82493
3455.98750	5.87328
3454.05894	5.93168
3452.13037	5.99389
3450.20181	6.05262
3448.27324	6.10131
3446.34468	6.15170
3444.41611	6.21082
3442.48755	6.26026
3440.55898	6.29473
3438.63042	6.33929
3436.70186	6.40050
3434.77329	6.46521
3432.84473	6.51994
3430.91616	6.55201
3428.98760	6.58138
3427.05903	6.63579
3425.13047	6.71469
3423.20190	6.78037
3421.27334	6.82059
3419.34478	6.86493
3417.41621	6.91823
3415.48765	6.96906
3413.55908	7.00806
3411.63052	7.03511
3409.70195	7.07068
3407.77339	7.13255
3405.84482	7.19627
3403.91626	7.23968
3401.98770	7.26046
3400.05913	7.29912
3398.13057	7.39383
3396.20200	7.47483
3394.27344	7.48603
3392.34487	7.48757
3390.41631	7.52724
3388.48774	7.58299
3386.55918	7.63307
3384.63062	7.64292
3382.70205	7.63533
3380.77349	7.66109
3378.84492	7.72168
3376.91636	7.83150
3374.98779	7.93520
3373.05923	7.95201
3371.13066	7.89742
3369.20210	7.87114
3367.27354	7.94602
3365.34497	8.06356
3363.41641	8.08804
3361.48784	8.04050
3359.55928	8.03752
3357.63071	8.06874
3355.70215	8.05332
3353.77358	7.98448
3351.84502	7.95683
3349.91646	8.00625
3347.98789	8.11407
3346.05933	8.21620
3344.13076	8.25791
3342.20220	8.23059
3340.27363	8.13945
3338.34507	8.09267
3336.41650	8.13634
3334.48794	8.25100
3332.55937	8.35300
3330.63081	8.32040
3328.70225	8.25000
3326.77368	8.28492
3324.84512	8.31469
3322.91655	8.26900
3320.98799	8.30373
3319.05942	8.35640
3317.13086	8.29542
3315.20229	8.23892
3313.27373	8.27246
3311.34517	8.29793
3309.41660	8.25152
3307.48804	8.18851
3305.55947	8.18513
3303.63091	8.28583
3301.70234	8.43468
3299.77378	8.50931
3297.84521	8.45615
3295.91665	8.42103
3293.98809	8.42715
3292.05952	8.37908
3290.13096	8.32464
3288.20239	8.34652
3286.27383	8.46878
3284.34526	8.59830
3282.41670	8.59230
3280.48813	8.47153
3278.55957	8.44659
3276.63101	8.55464
3274.70244	8.64341
3272.77388	8.64188
3270.84531	8.63865
3268.91675	8.76273
3266.98818	8.94042
3265.05962	9.02531
3263.13105	8.95418
3261.20249	8.76696
3259.27393	8.60346
3257.34536	8.50007
3255.41680	8.44150
3253.48823	8.48757
3251.55967	8.64934
3249.63110	8.76090
3247.70254	8.72046
3245.77397	8.60738
3243.84541	8.49285
3241.91685	8.38703
3239.98828	8.34533
3238.05972	8.46713
3236.13115	8.65507
3234.20259	8.69836
3232.27402	8.67479
3230.34546	8.66855
3228.41689	8.56549
3226.48833	8.37968
3224.55977	8.24057
3222.63120	8.17060
3220.70264	8.13879
3218.77407	8.14138
3216.84551	8.15512
3214.91694	8.16046
3212.98838	8.13669
3211.05981	8.05545
3209.13125	7.97190
3207.20269	7.94359
3205.27412	7.94896
3203.34556	7.94400
3201.41699	7.92616
3199.48843	7.92784
3197.55986	7.92671
3195.63130	7.87077
3193.70273	7.79942
3191.77417	7.74744
3189.84561	7.70405
3187.91704	7.67962
3185.98848	7.66221
3184.05991	7.60180
3182.13135	7.50589
3180.20278	7.45429
3178.27422	7.44949
3176.34565	7.41989
3174.41709	7.35511
3172.48853	7.28007
3170.55996	7.18131
3168.63140	7.06627
3166.70283	6.97918
3164.77427	6.92618
3162.84570	6.88135
3160.91714	6.82635
3158.98857	6.75354
3157.06001	6.66992
3155.13145	6.59261
3153.20288	6.52359
3151.27432	6.45666
3149.34575	6.39355
3147.41719	6.33915
3145.48862	6.28573
3143.56006	6.20852
3141.63149	6.11335
3139.70293	6.03466
3137.77437	5.97843
3135.84580	5.92481
3133.91724	5.86521
3131.98867	5.79439
3130.06011	5.70699
3128.13154	5.61575
3126.20298	5.53352
3124.27441	5.46279
3122.34585	5.39780
3120.41729	5.32891
3118.48872	5.25429
3116.56016	5.18041
3114.63159	5.10850
3112.70303	5.03197
3110.77446	4.95280
3108.84590	4.88167
3106.91733	4.82064
3104.98877	4.76134
3103.06021	4.69894
3101.13164	4.63242
3099.20308	4.55888
3097.27451	4.48140
3095.34595	4.41064
3093.41738	4.35009
3091.48882	4.29311
3089.56025	4.23535
3087.63169	4.17543
3085.70312	4.11231
3083.77456	4.04627
3081.84600	3.97917
3079.91743	3.91547
3077.98887	3.85783
3076.06030	3.80335
3074.13174	3.74733
3072.20317	3.68861
3070.27461	3.62959
3068.34604	3.57126
3066.41748	3.51353
3064.48892	3.45818
3062.56035	3.40496
3060.63179	3.35110
3058.70322	3.29511
3056.77466	3.23879
3054.84609	3.18490
3052.91753	3.13397
3050.98896	3.08445
3049.06040	3.03414
3047.13184	2.98289
3045.20327	2.93181
3043.27471	2.88143
3041.34614	2.83235
3039.41758	2.78495
3037.48901	2.73860
3035.56045	2.69284
3033.63188	2.64856
3031.70332	2.60473
3029.77476	2.55975
3027.84619	2.51537
3025.91763	2.47232
3023.98906	2.42929
3022.06050	2.38597
3020.13193	2.34342
3018.20337	2.30273
3016.27480	2.26282
3014.34624	2.22247
3012.41768	2.18250
3010.48911	2.14366
3008.56055	2.10596
3006.63198	2.06926
3004.70342	2.03358
3002.77485	1.99874
3000.84629	1.96423
2998.91772	1.93036
2996.98916	1.89768
2995.06060	1.86575
2993.13203	1.83409
2991.20347	1.80292
2989.27490	1.77269
2987.34634	1.74367
2985.41777	1.71564
2983.48921	1.68846
2981.56064	1.66151
2979.63208	1.63456
2977.70352	1.60819
2975.77495	1.58227
2973.84639	1.55678
2971.91782	1.53210
2969.98926	1.50805
2968.06069	1.48421
2966.13213	1.46022
2964.20356	1.43630
2962.27500	1.41251
2960.34644	1.38851
2958.41787	1.36440
2956.48931	1.34029
2954.56074	1.31641
2952.63218	1.29308
2950.70361	1.27007
2948.77505	1.24741
2946.84648	1.22524
2944.91792	1.20303
2942.98936	1.18112
2941.06079	1.16034
2939.13223	1.13996
2937.20366	1.11927
2935.27510	1.09854
2933.34653	1.07760
2931.41797	1.05677
2929.48940	1.03664
2927.56084	1.01684
2925.63228	0.99710
2923.70371	0.97824
2921.77515	0.96114
2919.84658	0.94517
2917.91802	0.92913
2915.98945	0.91310
2914.06089	0.89728
2912.13232	0.88137
2910.20376	0.86550
2908.27520	0.85022
2906.34663	0.83581
2904.41807	0.82161
2902.48950	0.80702
2900.56094	0.79256
2898.63237	0.77900
2896.70381	0.76635
2894.77524	0.75412
2892.84668	0.74212
2890.91812	0.73033
2888.98955	0.71856
2887.06099	0.70704
2885.13242	0.69622
2883.20386	0.68612
2881.27529	0.67655
2879.34673	0.66702
2877.41816	0.65720
2875.48960	0.64735
2873.56104	0.63756
2871.63247	0.62729
2869.70391	0.61619
2867.77534	0.60435
2865.84678	0.59214
2863.91821	0.57989
2861.98965	0.56777
2860.06108	0.55616
2858.13252	0.54516
2856.20396	0.53469
2854.27539	0.52499
2852.34683	0.51632
2850.41826	0.50841
2848.48970	0.50044
2846.56113	0.49234
2844.63257	0.48473
2842.70400	0.47770
2840.77544	0.47103
2838.84687	0.46480
2836.91831	0.45892
2834.98975	0.45299
2833.06118	0.44689
2831.13262	0.44063
2829.20405	0.43446
2827.27549	0.42864
2825.34692	0.42282
2823.41836	0.41678
2821.48979	0.41086
2819.56123	0.40515
2817.63267	0.39938
2815.70410	0.39359
2813.77554	0.38805
2811.84697	0.38264
2809.91841	0.37708
2807.98984	0.37159
2806.06128	0.36623
2804.13271	0.36089
2802.20415	0.35575
2800.27559	0.35071
2798.34702	0.34570
2796.41846	0.34094
2794.48989	0.33637
2792.56133	0.33172
2790.63276	0.32702
2788.70420	0.32249
2786.77563	0.31799
2784.84707	0.31345
2782.91851	0.30923
2780.98994	0.30518
2779.06138	0.30102
2777.13281	0.29682
2775.20425	0.29270
2773.27568	0.28877
2771.34712	0.28506
2769.41855	0.28139
2767.48999	0.27772
2765.56143	0.27409
2763.63286	0.27052
2761.70430	0.26710
2759.77573	0.26386
2757.84717	0.26067
2755.91860	0.25747
2753.99004	0.25428
2752.06147	0.25108
2750.13291	0.24801
2748.20435	0.24518
2746.27578	0.24238
2744.34722	0.23960
2742.41865	0.23681
2740.49009	0.23402
2738.56152	0.23127
2736.63296	0.22855
2734.70439	0.22603
2732.77583	0.22373
2730.84727	0.22137
2728.91870	0.21885
2726.99014	0.21637
2725.06157	0.21413
2723.13301	0.21208
2721.20444	0.20998
2719.27588	0.20781
2717.34731	0.20574
2715.41875	0.20382
2713.49019	0.20208
2711.56162	0.20037
2709.63306	0.19857
2707.70449	0.19676
2705.77593	0.19501
2703.84736	0.19325
2701.91880	0.19159
2699.99023	0.18998
2698.06167	0.18828
2696.13311	0.18665
2694.20454	0.18534
2692.27598	0.18420
2690.34741	0.18296
2688.41885	0.18152
2686.49028	0.18014
2684.56172	0.17903
2682.63315	0.17794
2680.70459	0.17665
2678.77603	0.17537
2676.84746	0.17429
2674.91890	0.17326
2672.99033	0.17216
2671.06177	0.17102
2669.13320	0.16993
2667.20464	0.16896
2665.27607	0.16804
2663.34751	0.16708
2661.41895	0.16618
2659.49038	0.16537
2657.56182	0.16458
2655.63325	0.16373
2653.70469	0.16277
2651.77612	0.16186
2649.84756	0.16121
2647.91899	0.16075
2645.99043	0.16013
2644.06187	0.15931
2642.13330	0.15863
2640.20474	0.15822
2638.27617	0.15775
2636.34761	0.15711
2634.41904	0.15657
2632.49048	0.15616
2630.56191	0.15574
2628.63335	0.15541
2626.70479	0.15521
2624.77622	0.15493
2622.84766	0.15444
2620.91909	0.15390
2618.99053	0.15347
2617.06196	0.15314
2615.13340	0.15298
2613.20483	0.15294
2611.27627	0.15284
2609.34771	0.15267
2607.41914	0.15250
2605.49058	0.15235
2603.56201	0.15221
2601.63345	0.15225
2599.70488	0.15242
2597.77632	0.15250
2595.84775	0.15240
2593.91919	0.15227
2591.99062	0.15228
2590.06206	0.15248
2588.13350	0.15269
2586.20493	0.15277
2584.27637	0.15281
2582.34780	0.15291
2580.41924	0.15305
2578.49067	0.15325
2576.56211	0.15353
2574.63354	0.15380
2572.70498	0.15412
2570.77642	0.15454
2568.84785	0.15486
2566.91929	0.15509
2564.99072	0.15543
2563.06216	0.15582
2561.13359	0.15606
2559.20503	0.15631
2557.27646	0.15677
2555.34790	0.15729
2553.41934	0.15778
2551.49077	0.15825
2549.56221	0.15868
2547.63364	0.15918
2545.70508	0.15972
2543.77651	0.16022
2541.84795	0.16073
2539.91938	0.16130
2537.99082	0.16191
2536.06226	0.16253
2534.13369	0.16316
2532.20513	0.16389
2530.27656	0.16467
2528.34800	0.16534
2526.41943	0.16599
2524.49087	0.16668
2522.56230	0.16739
2520.63374	0.16820
2518.70518	0.16907
2516.77661	0.16975
2514.84805	0.17023
2512.91948	0.17085
2510.99092	0.17164
2509.06235	0.17248
2507.13379	0.17338
2505.20522	0.17422
2503.27666	0.17493
2501.34810	0.17564
2499.41953	0.17644
2497.49097	0.17733
2495.56240	0.17817
2493.63384	0.17889
2491.70527	0.17962
2489.77671	0.18036
2487.84814	0.18100
2485.91958	0.18172
2483.99102	0.18272
2482.06245	0.18381
2480.13389	0.18473
2478.20532	0.18546
2476.27676	0.18615
2474.34819	0.18693
2472.41963	0.18772
2470.49106	0.18860
2468.56250	0.18960
2466.63394	0.19050
2464.70537	0.19130
2462.77681	0.19220
2460.84824	0.19324
2458.91968	0.19426
2456.99111	0.19516
2455.06255	0.19597
2453.13398	0.19671
2451.20542	0.19752
2449.27686	0.19848
2447.34829	0.19946
2445.41973	0.20033
2443.49116	0.20130
2441.56260	0.20244
2439.63403	0.20352
2437.70547	0.20450
2435.77690	0.20555
2433.84834	0.20660
2431.91978	0.20760
2429.99121	0.20871
2428.06265	0.20985
2426.13408	0.21082
2424.20552	0.21162
2422.27695	0.21246
2420.34839	0.21350
2418.41982	0.21462
2416.49126	0.21577
2414.56270	0.21701
2412.63413	0.21822
2410.70557	0.21928
2408.77700	0.22033
2406.84844	0.22150
2404.91987	0.22286
2402.99131	0.22417
2401.06274	0.22523
2399.13418	0.22617
2397.20562	0.22723
2395.27705	0.22843
2393.34849	0.22971
2391.41992	0.23101
2389.49136	0.23222
2387.56279	0.23329
2385.63423	0.23422
2383.70566	0.23512
2381.77710	0.23608
2379.84854	0.23690
2377.91997	0.23753
2375.99141	0.23813
2374.06284	0.23881
2372.13428	0.23939
2370.20571	0.23986
2368.27715	0.24043
2366.34858	0.24129
2364.42002	0.24273
2362.49146	0.24501
2360.56289	0.24739
2358.63433	0.24880
2356.70576	0.24931
2354.77720	0.25062
2352.84863	0.25361
2350.92007	0.25652
2348.99150	0.25809
2347.06294	0.25876
2345.13437	0.25930
2343.20581	0.26042
2341.27725	0.26242
2339.34868	0.26494
2337.42012	0.26685
2335.49155	0.26827
2333.56299	0.27005
2331.63442	0.27176
2329.70586	0.27324
2327.77729	0.27485
2325.84873	0.27640
2323.92017	0.27801
2321.99160	0.27997
2320.06304	0.28225
2318.13447	0.28454
2316.20591	0.28662
2314.27734	0.28862
2312.34878	0.29053
2310.42021	0.29236
2308.49165	0.29434
2306.56309	0.29648
2304.63452	0.29845
2302.70596	0.30026
2300.77739	0.30223
2298.84883	0.30434
2296.92026	0.30628
2294.99170	0.30811
2293.06313	0.31010
2291.13457	0.31219
2289.20601	0.31433
2287.27744	0.31651
2285.34888	0.31866
2283.42031	0.32073
2281.49175	0.32264
2279.56318	0.32450
2277.63462	0.32647
2275.70605	0.32852
2273.77749	0.33061
2271.84893	0.33279
2269.92036	0.33490
2267.99180	0.33692
2266.06323	0.33901
2264.13467	0.34111
2262.20610	0.34314
2260.27754	0.34527
2258.34897	0.34756
2256.42041	0.34980
2254.49185	0.35198
2252.56328	0.35414
2250.63472	0.35627
2248.70615	0.35849
2246.77759	0.36076
2244.84902	0.36302
2242.92046	0.36532
2240.99189	0.36762
2239.06333	0.36985
2237.13477	0.37203
2235.20620	0.37416
2233.27764	0.37630
2231.34907	0.37852
2229.42051	0.38081
2227.49194	0.38307
2225.56338	0.38522
2223.63481	0.38732
2221.70625	0.38940
2219.77769	0.39156
2217.84912	0.39384
2215.92056	0.39608
2213.99199	0.39822
2212.06343	0.40038
2210.13486	0.40258
2208.20630	0.40477
2206.27773	0.40688
2204.34917	0.40891
2202.42061	0.41101
2200.49204	0.41311
2198.56348	0.41503
2196.63491	0.41682
2194.70635	0.41868
2192.77778	0.42070
2190.84922	0.42275
2188.92065	0.42474
2186.99209	0.42659
2185.06353	0.42829
2183.13496	0.42989
2181.20640	0.43145
2179.27783	0.43307
2177.34927	0.43473
2175.42070	0.43635
2173.49214	0.43791
2171.56357	0.43925
2169.63501	0.44047
2167.70645	0.44180
2165.77788	0.44315
2163.84932	0.44446
2161.92075	0.44570
2159.99219	0.44673
2158.06362	0.44766
2156.13506	0.44864
2154.20649	0.44965
2152.27793	0.45058
2150.34937	0.45133
2148.42080	0.45196
2146.49224	0.45250
2144.56367	0.45286
2142.63511	0.45311
2140.70654	0.45340
2138.77798	0.45376
2136.84941	0.45401
2134.92085	0.45406
2132.99229	0.45405
2131.06372	0.45408
2129.13516	0.45393
2127.20659	0.45348
2125.27803	0.45297
2123.34946	0.45252
2121.42090	0.45200
2119.49233	0.45144
2117.56377	0.45086
2115.63521	0.45017
2113.70664	0.44937
2111.77808	0.44854
2109.84951	0.44759
2107.92095	0.44652
2105.99238	0.44541
2104.06382	0.44430
2102.13525	0.44311
2100.20669	0.44176
2098.27812	0.44033
2096.34956	0.43895
2094.42100	0.43748
2092.49243	0.43579
2090.56387	0.43402
2088.63530	0.43223
2086.70674	0.43041
2084.77817	0.42842
2082.84961	0.42644
2080.92104	0.42459
2078.99248	0.42272
2077.06392	0.42064
2075.13535	0.41845
2073.20679	0.41626
2071.27822	0.41403
2069.34966	0.41174
2067.42109	0.40938
2065.49253	0.40696
2063.56396	0.40448
2061.63540	0.40196
2059.70684	0.39946
2057.77827	0.39699
2055.84971	0.39453
2053.92114	0.39208
2051.99258	0.38958
2050.06401	0.38689
2048.13545	0.38417
2046.20688	0.38155
2044.27832	0.37890
2042.34976	0.37620
2040.42119	0.37353
2038.49263	0.37079
2036.56406	0.36795
2034.63550	0.36513
2032.70693	0.36237
2030.77837	0.35970
2028.84980	0.35700
2026.92124	0.35418
2024.99268	0.35132
2023.06411	0.34854
2021.13555	0.34583
2019.20698	0.34312
2017.27842	0.34036
2015.34985	0.33754
2013.42129	0.33475
2011.49272	0.33205
2009.56416	0.32943
2007.63560	0.32679
2005.70703	0.32412
2003.77847	0.32143
2001.84990	0.31869
1999.92134	0.31601
1997.99277	0.31351
1996.06421	0.31113
1994.13564	0.30875
1992.20708	0.30628
1990.27852	0.30363
1988.34995	0.30095
1986.42139	0.29839
1984.49282	0.29595
1982.56426	0.29360
1980.63569	0.29132
1978.70713	0.28912
1976.77856	0.28696
1974.85000	0.28478
1972.92144	0.28251
1970.99287	0.28025
1969.06431	0.27820
1967.13574	0.27630
1965.20718	0.27433
1963.27861	0.27237
1961.35005	0.27049
1959.42148	0.26867
1957.49292	0.26688
1955.56436	0.26511
1953.63579	0.26335
1951.70723	0.26157
1949.77866	0.25992
1947.85010	0.25840
1945.92153	0.25694
1943.99297	0.25552
1942.06440	0.25403
1940.13584	0.25240
1938.20728	0.25080
1936.27871	0.24940
1934.35015	0.24815
1932.42158	0.24696
1930.49302	0.24579
1928.56445	0.24474
1926.63589	0.24373
1924.70732	0.24275
1922.77876	0.24176
1920.85020	0.24074
1918.92163	0.23988
1916.99307	0.23909
1915.06450	0.23818
1913.13594	0.23729
1911.20737	0.23659
1909.27881	0.23590
1907.35024	0.23517
1905.42168	0.23450
1903.49312	0.23391
1901.56455	0.23332
1899.63599	0.23276
1897.70742	0.23232
1895.77886	0.23195
1893.85029	0.23165
1891.92173	0.23133
1889.99316	0.23109
1888.06460	0.23078
1886.13604	0.23042
1884.20747	0.23020
1882.27891	0.23005
1880.35034	0.22996
1878.42178	0.22995
1876.49321	0.23000
1874.56465	0.22999
1872.63608	0.23004
1870.70752	0.23033
1868.77896	0.23093
1866.85039	0.23122
1864.92183	0.23103
1862.99326	0.23097
1861.06470	0.23119
1859.13613	0.23157
1857.20757	0.23190
1855.27900	0.23225
1853.35044	0.23269
1851.42187	0.23332
1849.49331	0.23403
1847.56475	0.23475
1845.63618	0.23559
1843.70762	0.23658
1841.77905	0.23733
1839.85049	0.23773
1837.92192	0.23842
1835.99336	0.23939
1834.06479	0.24044
1832.13623	0.24150
1830.20767	0.24294
1828.27910	0.24444
1826.35054	0.24542
1824.42197	0.24657
1822.49341	0.24782
1820.56484	0.24905
1818.63628	0.25039
1816.70771	0.25196
1814.77915	0.25358
1812.85059	0.25536
1810.92202	0.25750
1808.99346	0.25969
1807.06489	0.26163
1805.13633	0.26345
1803.20776	0.26558
1801.27920	0.26808
1799.35063	0.27083
1797.42207	0.27327
1795.49351	0.27558
1793.56494	0.27832
1791.63638	0.28199
1789.70781	0.28555
1787.77925	0.28817
1785.85068	0.29119
1783.92212	0.29478
1781.99355	0.29865
1780.06499	0.30278
1778.13643	0.30713
1776.20786	0.31126
1774.27930	0.31558
1772.35073	0.32126
1770.42217	0.32749
1768.49360	0.33287
1766.56504	0.33798
1764.63647	0.34309
1762.70791	0.34872
1760.77935	0.35592
1758.85078	0.36274
1756.92222	0.36963
1754.99365	0.37718
1753.06509	0.38392
1751.13652	0.39186
1749.20796	0.40209
1747.27939	0.41245
1745.35083	0.42157
1743.42227	0.43103
1741.49370	0.44139
1739.56514	0.45374
1737.63657	0.46619
1735.70801	0.47715
1733.77944	0.49373
1731.85088	0.51334
1729.92231	0.52864
1727.99375	0.54424
1726.06519	0.56107
1724.13662	0.57942
1722.20806	0.59946
1720.27949	0.61816
1718.35093	0.63998
1716.42236	0.67206
1714.49380	0.70249
1712.56523	0.72698
1710.63667	0.75081
1708.70811	0.77674
1706.77954	0.80643
1704.85098	0.84196
1702.92241	0.87356
1700.99385	0.90470
1699.06528	0.95149
1697.13672	0.99541
1695.20815	1.04109
1693.27959	1.08568
1691.35103	1.12166
1689.42246	1.16336
1687.49390	1.20778
1685.56533	1.25107
1683.63677	1.31790
1681.70820	1.38740
1679.77964	1.43219
1677.85107	1.47534
1675.92251	1.52530
1673.99395	1.58663
1672.06538	1.64072
1670.13682	1.69399
1668.20825	1.76491
1666.27969	1.82424
1664.35112	1.87567
1662.42256	1.94184
1660.49399	2.01706
1658.56543	2.07469
1656.63687	2.12109
1654.70830	2.16405
1652.77974	2.22681
1650.85117	2.28194
1648.92261	2.29985
1646.99404	2.32319
1645.06548	2.34836
1643.13691	2.36496
1641.20835	2.37315
1639.27979	2.37974
1637.35122	2.38217
1635.42266	2.37787
1633.49409	2.36769
1631.56553	2.35257
1629.63696	2.33271
1627.70840	2.29956
1625.77983	2.26296
1623.85127	2.21957
1621.92271	2.16570
1619.99414	2.11522
1618.06558	2.06547
1616.13701	1.99759
1614.20845	1.92933
1612.27988	1.87731
1610.35132	1.82413
1608.42275	1.76685
1606.49419	1.70984
1604.56562	1.65703
1602.63706	1.60639
1600.70850	1.55783
1598.77993	1.51387
1596.85137	1.47284
1594.92280	1.43276
1592.99424	1.39358
1591.06567	1.35751
1589.13711	1.32446
1587.20854	1.29478
1585.27998	1.26781
1583.35142	1.24262
1581.42285	1.22004
1579.49429	1.20143
1577.56572	1.18545
1575.63716	1.16677
1573.70859	1.15051
1571.78003	1.14029
1569.85146	1.13110
1567.92290	1.12206
1565.99434	1.11619
1564.06577	1.11322
1562.13721	1.11192
1560.20864	1.11326
1558.28008	1.12195
1556.35151	1.13084
1554.42295	1.13503
1552.49438	1.13910
1550.56582	1.14149
1548.63726	1.14093
1546.70869	1.13699
1544.78013	1.12892
1542.85156	1.11636
1540.92300	1.09671
1538.99443	1.06524
1537.06587	1.04113
1535.13730	1.02404
1533.20874	1.00124
1531.28018	0.97692
1529.35161	0.95932
1527.42305	0.94300
1525.49448	0.92641
1523.56592	0.91262
1521.63735	0.89964
1519.70879	0.88644
1517.78022	0.87522
1515.85166	0.86209
1513.92310	0.84805
1511.99453	0.83560
1510.06597	0.82433
1508.13740	0.81348
1506.20884	0.79666
1504.28027	0.78191
1502.35171	0.77388
1500.42314	0.76718
1498.49458	0.76015
1496.56602	0.75165
1494.63745	0.74293
1492.70889	0.73627
1490.78032	0.73056
1488.85176	0.72404
1486.92319	0.71791
1484.99463	0.71326
1483.06606	0.70993
1481.13750	0.70751
1479.20894	0.70584
1477.28037	0.70519
1475.35181	0.70543
1473.42324	0.70611
1471.49468	0.70612
1469.56611	0.70453
1467.63755	0.70223
1465.70898	0.70032
1463.78042	0.69909
1461.85186	0.69847
1459.92329	0.69864
1457.99473	0.69961
1456.06616	0.69978
1454.13760	0.69755
1452.20903	0.69470
1450.28047	0.69193
1448.35190	0.68930
1446.42334	0.68639
1444.49478	0.68350
1442.56621	0.68087
1440.63765	0.67813
1438.70908	0.67525
1436.78052	0.67172
1434.85195	0.66744
1432.92339	0.66386
1430.99482	0.66158
1429.06626	0.66056
1427.13770	0.66040
1425.20913	0.66086
1423.28057	0.66184
1421.35200	0.66270
1419.42344	0.66329
1417.49487	0.66328
1415.56631	0.66241
1413.63774	0.66177
1411.70918	0.66200
1409.78062	0.66324
1407.85205	0.66520
1405.92349	0.66756
1403.99492	0.66979
1402.06636	0.67100
1400.13779	0.67107
1398.20923	0.66981
1396.28066	0.66699
1394.35210	0.66267
1392.42354	0.65765
1390.49497	0.65307
1388.56641	0.64851
1386.63784	0.64289
1384.70928	0.63665
1382.78071	0.63087
1380.85215	0.62559
1378.92358	0.62111
1376.99502	0.61782
1375.06646	0.61572
1373.13789	0.61441
1371.20933	0.61353
1369.28076	0.61267
1367.35220	0.61129
1365.42363	0.60947
1363.49507	0.60764
1361.56650	0.60601
1359.63794	0.60452
1357.70937	0.60314
1355.78081	0.60176
1353.85225	0.60055
1351.92368	0.59971
1349.99512	0.59910
1348.06655	0.59838
1346.13799	0.59741
1344.20942	0.59637
1342.28086	0.59548
1340.35229	0.59479
1338.42373	0.59416
1336.49517	0.59360
1334.56660	0.59329
1332.63804	0.59328
1330.70947	0.59361
1328.78091	0.59426
1326.85234	0.59516
1324.92378	0.59618
1322.99521	0.59724
1321.06665	0.59822
1319.13809	0.59908
1317.20952	0.59958
1315.28096	0.59960
1313.35239	0.59945
1311.42383	0.59915
1309.49526	0.59861
1307.56670	0.59806
1305.63813	0.59758
1303.70957	0.59711
1301.78101	0.59646
1299.85244	0.59553
1297.92388	0.59453
1295.99531	0.59344
1294.06675	0.59204
1292.13818	0.59053
1290.20962	0.58912
1288.28105	0.58772
1286.35249	0.58626
1284.42393	0.58482
1282.49536	0.58326
1280.56680	0.58152
1278.63823	0.57983
1276.70967	0.57824
1274.78110	0.57686
1272.85254	0.57591
1270.92397	0.57518
1268.99541	0.57444
1267.06685	0.57361
1265.13828	0.57266
1263.20972	0.57170
1261.28115	0.57078
1259.35259	0.56997
1257.42402	0.56938
1255.49546	0.56901
1253.56689	0.56883
1251.63833	0.56883
1249.70977	0.56894
1247.78120	0.56895
1245.85264	0.56866
1243.92407	0.56809
1241.99551	0.56726
1240.06694	0.56598
1238.13838	0.56418
1236.20981	0.56192
1234.28125	0.55929
1232.35269	0.55657
1230.42412	0.55397
1228.49556	0.55143
1226.56699	0.54905
1224.63843	0.54698
1222.70986	0.54521
1220.78130	0.54356
1218.85273	0.54189
1216.92417	0.54034
1214.99561	0.53911
1213.06704	0.53823
1211.13848	0.53747
1209.20991	0.53668
1207.28135	0.53595
1205.35278	0.53526
1203.42422	0.53444
1201.49565	0.53339
1199.56709	0.53229
1197.63853	0.53130
1195.70996	0.53036
1193.78140	0.52957
1191.85283	0.52911
1189.92427	0.52882
1187.99570	0.52859
1186.06714	0.52847
1184.13857	0.52856
1182.21001	0.52908
1180.28145	0.53012
1178.35288	0.53147
1176.42432	0.53306
1174.49575	0.53465
1172.56719	0.53571
1170.63862	0.53619
1168.71006	0.53640
1166.78149	0.53647
1164.85293	0.53633
1162.92437	0.53614
1160.99580	0.53608
1159.06724	0.53595
1157.13867	0.53546
1155.21011	0.53442
1153.28154	0.53282
1151.35298	0.53091
1149.42441	0.52872
1147.49585	0.52614
1145.56729	0.52321
1143.63872	0.52038
1141.71016	0.51804
1139.78159	0.51611
1137.85303	0.51459
1135.92446	0.51359
1133.99590	0.51314
1132.06733	0.51305
1130.13877	0.51291
1128.21021	0.51259
1126.28164	0.51209
1124.35308	0.51136
1122.42451	0.51073
1120.49595	0.51055
1118.56738	0.51087
1116.63882	0.51152
1114.71025	0.51226
1112.78169	0.51301
1110.85312	0.51382
1108.92456	0.51475
1106.99600	0.51574
1105.06743	0.51678
1103.13887	0.51790
1101.21030	0.51899
1099.28174	0.52014
1097.35317	0.52176
1095.42461	0.52430
1093.49604	0.52798
1091.56748	0.53270
1089.63892	0.53840
1087.71035	0.54530
1085.78179	0.55333
1083.85322	0.56154
1081.92466	0.56871
1079.99609	0.57376
1078.06753	0.57604
1076.13896	0.57569
1074.21040	0.57305
1072.28184	0.56838
1070.35327	0.56208
1068.42471	0.55485
1066.49614	0.54753
1064.56758	0.54081
1062.63901	0.53515
1060.71045	0.53060
1058.78188	0.52656
1056.85332	0.52256
1054.92476	0.51883
1052.99619	0.51564
1051.06763	0.51287
1049.13906	0.51070
1047.21050	0.50937
1045.28193	0.50864
1043.35337	0.50806
1041.42480	0.50756
1039.49624	0.50718
1037.56768	0.50679
1035.63911	0.50638
1033.71055	0.50596
1031.78198	0.50533
1029.85342	0.50425
1027.92485	0.50276
1025.99629	0.50126
1024.06772	0.50002
1022.13916	0.49925
1020.21060	0.49916
1018.28203	0.49924
1016.35347	0.49903
1014.42490	0.49889
1012.49634	0.49891
1010.56777	0.49876
1008.63921	0.49867
1006.71064	0.49919
1004.78208	0.50057
1002.85352	0.50260
1000.92495	0.50518
998.99639	0.50850
997.06782	0.51256
995.13926	0.51700
993.21069	0.52133
991.28213	0.52479
989.35356	0.52677
987.42500	0.52747
985.49644	0.52751
983.56787	0.52745
981.63931	0.52777
979.71074	0.52845
977.78218	0.52931
975.85361	0.53083
973.92505	0.53334
971.99648	0.53638
970.06792	0.53965
968.13936	0.54333
966.21079	0.54747
964.28223	0.55192
962.35366	0.55650
960.42510	0.56134
958.49653	0.56680
956.56797	0.57263
954.63940	0.57848
952.71084	0.58475
950.78228	0.59150
948.85371	0.59802
946.92515	0.60414
944.99658	0.61040
943.06802	0.61703
941.13945	0.62342
939.21089	0.62914
937.28232	0.63466
935.35376	0.64028
933.42520	0.64600
931.49663	0.65207
929.56807	0.65844
927.63950	0.66451
925.71094	0.66998
923.78237	0.67563
921.85381	0.68203
919.92524	0.68869
917.99668	0.69573
916.06812	0.70375
914.13955	0.71210
912.21099	0.72020
910.28242	0.72845
908.35386	0.73693
906.42529	0.74585
904.49673	0.75504
902.56816	0.76401
900.63960	0.77371
898.71104	0.78451
896.78247	0.79513
894.85391	0.80521
892.92534	0.81565
890.99678	0.82594
889.06821	0.83501
887.13965	0.84447
885.21108	0.85577
883.28252	0.86745
881.35396	0.87884
879.42539	0.89003
877.49683	0.90113
875.56826	0.91410
873.63970	0.92812
871.71113	0.94020
869.78257	0.95110
867.85400	0.96194
865.92544	0.97270
863.99687	0.98415
862.06831	0.99609
860.13975	1.00765
858.21118	1.01991
856.28262	1.03309
854.35405	1.04610
852.42549	1.05916
850.49692	1.07136
848.56836	1.08313
846.63979	1.09765
844.71123	1.11251
842.78267	1.12216
840.85410	1.12887
838.92554	1.13739
836.99697	1.14860
835.06841	1.16222
833.13984	1.17717
831.21128	1.19399
829.28271	1.21085
827.35415	1.22092
825.42559	1.22595
823.49702	1.23488
821.56846	1.25128
819.63989	1.27311
817.71133	1.28859
815.78276	1.29300
813.85420	1.30652
811.92563	1.33983
809.99707	1.37496
808.06851	1.39762
806.13994	1.41262
804.21138	1.42604
802.28281	1.44702
800.35425	1.46124
798.42568	1.45298
796.49712	1.45130
794.56855	1.46546
792.63999	1.50113
790.71143	1.59400
788.78286	1.71544
786.85430	1.75391
784.92573	1.70744
782.99717	1.74418
781.06860	1.89540
779.14004	2.01126
777.21147	1.99452
775.28291	2.39137
773.35435	2.59955
771.42578	1.70349
769.49722	1.46211
767.56865	1.37984
765.64009	1.38530
763.71152	1.47712
761.78296	1.43623
759.85439	1.28352
757.92583	1.23237
755.99727	1.20452
754.06870	1.16611
752.14014	1.14370
750.21157	1.13895
748.28301	1.08317
746.35444	1.01738
744.42588	0.99768
742.49731	1.00030
740.56875	0.96633
738.64019	0.85978
736.71162	0.72045
734.78306	0.64253
732.85449	0.61366
730.92593	0.49113
728.99736	0.35074
727.06880	0.28978
725.14023	0.10701
723.21167	-0.20873
721.28311	-0.76337
719.35454	-0.55053
717.42598	-0.25079
715.49741	-0.26736
713.56885	-0.18150
711.64028	-0.02412
709.71172	0.12287
707.78315	0.23197
705.85459	0.31168
703.92603	0.32877
701.99746	0.31318
700.06890	0.29434
698.14033	0.28543
696.21177	0.29177
694.28320	0.30546
692.35464	0.32553
690.42607	0.34412
688.49751	0.31810
686.56895	0.26992
684.64038	0.26294
682.71182	0.31712
680.78325	0.37251
678.85469	0.40108
676.92612	0.40066
674.99756	0.39290
673.06899	0.42626
671.14043	0.43033
669.21187	0.37496
667.28330	0.36498
665.35474	0.39898
663.42617	0.39864
661.49761	0.37155
659.56904	0.36730
657.64048	0.39866
655.71191	0.39256
653.78335	0.33521
651.85479	0.31942
649.92622	0.32556
647.99766	0.31167
646.06909	0.29390
644.14053	0.30194
642.21196	0.34738
640.28340	0.36894
638.35483	0.33457
636.42627	0.32146
634.49771	0.36270
632.56914	0.40597
630.64058	0.41801
628.71201	0.42691
626.78345	0.44067
624.85488	0.43444
622.92632	0.41834
620.99775	0.38956
619.06919	0.32739
617.14062	0.27813
615.21206	0.27068
613.28350	0.26459
611.35493	0.21878
609.42637	0.19025
607.49780	0.21929
605.56924	0.26483
603.64067	0.31119
601.71211	0.38282
599.78354	0.43438
597.85498	0.45519
595.92642	0.44352
593.99785	0.37373
592.06929	0.31649
590.14072	0.29500
588.21216	0.29633
586.28359	0.31193
584.35503	0.31663
582.42646	0.29665
580.49790	0.28077
578.56934	0.27908
576.64077	0.23516
574.71221	0.18474
572.78364	0.22374
570.85508	0.33174
568.92651	0.37756
566.99795	0.32961
565.06938	0.30380
563.14082	0.31918
561.21226	0.29871
559.28369	0.25985
557.35513	0.23755
555.42656	0.22355
553.49800	0.23170
551.56943	0.29716
549.64087	0.39273
547.71230	0.41257
545.78374	0.37820
543.85518	0.36297
541.92661	0.35131
539.99805	0.30912
538.06948	0.27386
536.14092	0.26734
534.21235	0.26352
532.28379	0.27869
530.35522	0.31722
528.42666	0.31955
526.49810	0.28966
524.56953	0.27766
522.64097	0.27256
520.71240	0.25580
518.78384	0.25219
516.85527	0.26848
514.92671	0.28961
512.99814	0.26672
511.06958	0.20283
509.14102	0.16392
507.21245	0.16815
505.28389	0.19674
503.35532	0.24318
501.42676	0.28959
499.49819	0.28340
