3997.91411	0.07764
3995.98555	0.07802
3994.05698	0.07846
3992.12842	0.07888
3990.19985	0.07911
3988.27129	0.07920
3986.34272	0.07940
3984.41416	0.07974
3982.48560	0.08007
3980.55703	0.08052
3978.62847	0.08116
3976.69990	0.08150
3974.77134	0.08124
3972.84277	0.08068
3970.91421	0.08032
3968.98564	0.08056
3967.05708	0.08106
3965.12852	0.08133
3963.19995	0.08147
3961.27139	0.08167
3959.34282	0.08184
3957.41426	0.08182
3955.48569	0.08191
3953.55713	0.08202
3951.62856	0.08164
3949.70000	0.08106
3947.77144	0.08082
3945.84287	0.08102
3943.91431	0.08156
3941.98574	0.08192
3940.05718	0.08154
3938.12861	0.08089
3936.20005	0.08063
3934.27148	0.08075
3932.34292	0.08075
3930.41436	0.08049
3928.48579	0.08065
3926.55723	0.08119
3924.62866	0.08153
3922.70010	0.08147
3920.77153	0.08117
3918.84297	0.08089
3916.91440	0.08076
3914.98584	0.08047
3913.05728	0.08003
3911.12871	0.07976
3909.20015	0.07961
3907.27158	0.07947
3905.34302	0.07932
3903.41445	0.07937
3901.48589	0.07977
3899.55732	0.07992
3897.62876	0.07961
3895.70020	0.07950
3893.77163	0.07960
3891.84307	0.07964
3889.91450	0.07978
3887.98594	0.07980
3886.05737	0.07972
3884.12881	0.07992
3882.20024	0.08037
3880.27168	0.08105
3878.34312	0.08137
3876.41455	0.08087
3874.48599	0.08051
3872.55742	0.08071
3870.62886	0.08108
3868.70029	0.08165
3866.77173	0.08182
3864.84316	0.08137
3862.91460	0.08140
3860.98604	0.08213
3859.05747	0.08268
3857.12891	0.08270
3855.20034	0.08232
3853.27178	0.08229
3851.34321	0.08356
3849.41465	0.08430
3847.48608	0.08437
3845.55752	0.08455
3843.62896	0.08477
3841.70039	0.08500
3839.77183	0.08574
3837.84326	0.08717
3835.91470	0.08834
3833.98613	0.08878
3832.05757	0.08907
3830.12900	0.08981
3828.20044	0.09104
3826.27187	0.09233
3824.34331	0.09305
3822.41475	0.09311
3820.48618	0.09362
3818.55762	0.09455
3816.62905	0.09528
3814.70049	0.09659
3812.77192	0.09788
3810.84336	0.09833
3808.91479	0.09835
3806.98623	0.09882
3805.05767	0.10025
3803.12910	0.10170
3801.20054	0.10317
3799.27197	0.10473
3797.34341	0.10585
3795.41484	0.10722
3793.48628	0.10852
3791.55771	0.10932
3789.62915	0.11040
3787.70059	0.11204
3785.77202	0.11382
3783.84346	0.11554
3781.91489	0.11698
3779.98633	0.11809
3778.05776	0.11960
3776.12920	0.12131
3774.20063	0.12262
3772.27207	0.12378
3770.34351	0.12547
3768.41494	0.12777
3766.48638	0.12972
3764.55781	0.13170
3762.62925	0.13386
3760.70068	0.13543
3758.77212	0.13686
3756.84355	0.13878
3754.91499	0.14100
3752.98643	0.14349
3751.05786	0.14646
3749.12930	0.14988
3747.20073	0.15233
3745.27217	0.15390
3743.34360	0.15654
3741.41504	0.15955
3739.48647	0.16168
3737.55791	0.16372
3735.62935	0.16628
3733.70078	0.16993
3731.77222	0.17452
3729.84365	0.17873
3727.91509	0.18243
3725.98652	0.18732
3724.05796	0.19391
3722.12939	0.20144
3720.20083	0.21023
3718.27227	0.21963
3716.34370	0.22846
3714.41514	0.23629
3712.48657	0.24444
3710.55801	0.25532
3708.62944	0.26797
3706.70088	0.27972
3704.77231	0.29126
3702.84375	0.30422
3700.91519	0.32075
3698.98662	0.33935
3697.05806	0.35719
3695.12949	0.37580
3693.20093	0.39550
3691.27236	0.41689
3689.34380	0.44440
3687.41523	0.47892
3685.48667	0.51046
3683.55811	0.53764
3681.62954	0.56579
3679.70098	0.59663
3677.77241	0.62868
3675.84385	0.66679
3673.91528	0.71945
3671.98672	0.76367
3670.05815	0.80181
3668.12959	0.85388
3666.20103	0.90337
3664.27246	0.94516
3662.34390	0.98906
3660.41533	1.03587
3658.48677	1.08144
3656.55820	1.12946
3654.62964	1.18336
3652.70107	1.22913
3650.77251	1.26808
3648.84395	1.32029
3646.91538	1.38631
3644.98682	1.43815
3643.05825	1.47877
3641.12969	1.51938
3639.20112	1.56302
3637.27256	1.60601
3635.34399	1.64764
3633.41543	1.68948
3631.48687	1.72853
3629.55830	1.76823
3627.62974	1.82110
3625.70117	1.87165
3623.77261	1.90660
3621.84404	1.93965
3619.91548	1.97676
3617.98691	2.02183
3616.05835	2.06679
3614.12979	2.10566
3612.20122	2.14643
3610.27266	2.18606
3608.34409	2.22324
3606.41553	2.26301
3604.48696	2.30250
3602.55840	2.33817
3600.62983	2.37564
3598.70127	2.41677
3596.77271	2.45703
3594.84414	2.49721
3592.91558	2.54002
3590.98701	2.58141
3589.05845	2.61828
3587.12988	2.66067
3585.20132	2.70856
3583.27275	2.75006
3581.34419	2.78932
3579.41562	2.83271
3577.48706	2.87748
3575.55850	2.91945
3573.62993	2.96052
3571.70137	3.00095
3569.77280	3.04065
3567.84424	3.08368
3565.91567	3.13608
3563.98711	3.18707
3562.05854	3.22960
3560.12998	3.27212
3558.20142	3.31854
3556.27285	3.36668
3554.34429	3.41031
3552.41572	3.45145
3550.48716	3.49571
3548.55859	3.54285
3546.63003	3.59126
3544.70146	3.64208
3542.77290	3.69305
3540.84434	3.74103
3538.91577	3.78572
3536.98721	3.82852
3535.05864	3.87572
3533.13008	3.92486
3531.20151	3.97097
3529.27295	4.01852
3527.34438	4.07095
3525.41582	4.12132
3523.48726	4.16738
3521.55869	4.21815
3519.63013	4.27108
3517.70156	4.31793
3515.77300	4.36252
3513.84443	4.41204
3511.91587	4.46132
3509.98730	4.50602
3508.05874	4.55307
3506.13018	4.60369
3504.20161	4.65351
3502.27305	4.70424
3500.34448	4.75485
3498.41592	4.80025
3496.48735	4.84560
3494.55879	4.89621
3492.63022	4.94821
3490.70166	4.99900
3488.77310	5.04797
3486.84453	5.09392
3484.91597	5.14230
3482.98740	5.19667
3481.05884	5.24740
3479.13027	5.29065
3477.20171	5.33929
3475.27314	5.39439
3473.34458	5.44460
3471.41602	5.49259
3469.48745	5.54089
3467.55889	5.57944
3465.63032	5.61717
3463.70176	5.66830
3461.77319	5.72506
3459.84463	5.78711
3457.91606	5.84821
3455.98750	5.89376
3454.05894	5.93390
3452.13037	5.98545
3450.20181	6.03815
3448.27324	6.08015
3446.34468	6.13085
3444.41611	6.19250
3442.48755	6.25366
3440.55898	6.31159
3438.63042	6.35440
3436.70186	6.38191
3434.77329	6.42115
3432.84473	6.48314
3430.91616	6.54199
3428.98760	6.59015
3427.05903	6.64952
3425.13047	6.72104
3423.20190	6.76579
3421.27334	6.79302
3419.34478	6.83784
3417.41621	6.89208
3415.48765	6.94753
3413.55908	7.00101
3411.63052	7.05233
3409.70195	7.10341
3407.77339	7.15479
3405.84482	7.19932
3403.91626	7.25759
3401.98770	7.31450
3400.05913	7.32913
3398.13057	7.34370
3396.20200	7.39443
3394.27344	7.46226
3392.34487	7.51447
3390.41631	7.53628
3388.48774	7.54875
3386.55918	7.60258
3384.63062	7.67073
3382.70205	7.71638
3380.77349	7.75445
3378.84492	7.77395
3376.91636	7.79244
3374.98779	7.82805
3373.05923	7.86243
3371.13066	7.84231
3369.20210	7.81122
3367.27354	7.83530
3365.34497	7.88871
3363.41641	7.95201
3361.48784	8.04449
3359.55928	8.14463
3357.63071	8.15004
3355.70215	8.07983
3353.77358	8.03092
3351.84502	8.04755
3349.91646	8.09757
3347.98789	8.11853
3346.05933	8.11370
3344.13076	8.09729
3342.20220	8.10629
3340.27363	8.18748
3338.34507	8.29583
3336.41650	8.32650
3334.48794	8.28151
3332.55937	8.23547
3330.63081	8.23977
3328.70225	8.25609
3326.77368	8.24176
3324.84512	8.25006
3322.91655	8.32891
3320.98799	8.41085
3319.05942	8.35857
3317.13086	8.24466
3315.20229	8.20588
3313.27373	8.27115
3311.34517	8.36007
3309.41660	8.39536
3307.48804	8.41374
3305.55947	8.40792
3303.63091	8.38214
3301.70234	8.34909
3299.77378	8.27172
3297.84521	8.20290
3295.91665	8.27198
3293.98809	8.39981
3292.05952	8.39458
3290.13096	8.32961
3288.20239	8.31892
3286.27383	8.33812
3284.34526	8.35188
3282.41670	8.37808
3280.48813	8.43196
3278.55957	8.52791
3276.63101	8.61983
3274.70244	8.63983
3272.77388	8.59748
3270.84531	8.52509
3268.91675	8.49939
3266.98818	8.54464
3265.05962	8.59016
3263.13105	8.55491
3261.20249	8.48171
3259.27393	8.46951
3257.34536	8.50569
3255.41680	8.54623
3253.48823	8.61237
3251.55967	8.64234
3249.63110	8.57641
3247.70254	8.52029
3245.77397	8.48988
3243.84541	8.47430
3241.91685	8.49270
3239.98828	8.48791
3238.05972	8.47584
3236.13115	8.49733
3234.20259	8.52256
3232.27402	8.51923
3230.34546	8.47581
3228.41689	8.48194
3226.48833	8.55816
3224.55977	8.52726
3222.63120	8.40962
3220.70264	8.36501
3218.77407	8.38857
3216.84551	8.39808
3214.91694	8.34118
3212.98838	8.25083
3211.05981	8.17504
3209.13125	8.12839
3207.20269	8.09244
3205.27412	8.02583
3203.34556	7.95951
3201.41699	7.94155
3199.48843	7.94239
3197.55986	7.91691
3195.63130	7.88950
3193.70273	7.89320
3191.77417	7.85854
3189.84561	7.74543
3187.91704	7.64301
3185.98848	7.59649
3184.05991	7.55309
3182.13135	7.48315
3180.20278	7.41346
3178.27422	7.35955
3176.34565	7.32233
3174.41709	7.28637
3172.48853	7.24683
3170.55996	7.19425
3168.63140	7.11365
3166.70283	7.04456
3164.77427	6.99837
3162.84570	6.93160
3160.91714	6.85136
3158.98857	6.78668
3157.06001	6.71390
3155.13145	6.63023
3153.20288	6.56995
3151.27432	6.52590
3149.34575	6.46320
3147.41719	6.37704
3145.48862	6.29430
3143.56006	6.22982
3141.63149	6.16546
3139.70293	6.09035
3137.77437	6.02052
3135.84580	5.95305
3133.91724	5.87331
3131.98867	5.78706
3130.06011	5.70807
3128.13154	5.63897
3126.20298	5.57519
3124.27441	5.51388
3122.34585	5.44598
3120.41729	5.37041
3118.48872	5.29398
3116.56016	5.21816
3114.63159	5.14363
3112.70303	5.06970
3110.77446	4.99697
3108.84590	4.92573
3106.91733	4.85460
3104.98877	4.78747
3103.06021	4.72572
3101.13164	4.65845
3099.20308	4.58403
3097.27451	4.51360
3095.34595	4.44915
3093.41738	4.38709
3091.48882	4.32452
3089.56025	4.25975
3087.63169	4.19544
3085.70312	4.13419
3083.77456	4.07360
3081.84600	4.01150
3079.91743	3.94782
3077.98887	3.88408
3076.06030	3.82395
3074.13174	3.76696
3072.20317	3.70972
3070.27461	3.65137
3068.34604	3.59270
3066.41748	3.53482
3064.48892	3.47767
3062.56035	3.42075
3060.63179	3.36400
3058.70322	3.30765
3056.77466	3.25372
3054.84609	3.20272
3052.91753	3.15160
3050.98896	3.09914
3049.06040	3.04685
3047.13184	2.99554
3045.20327	2.94494
3043.27471	2.89510
3041.34614	2.84664
3039.41758	2.79989
3037.48901	2.75382
3035.56045	2.70735
3033.63188	2.66111
3031.70332	2.61542
3029.77476	2.56983
3027.84619	2.52473
3025.91763	2.48081
3023.98906	2.43766
3022.06050	2.39469
3020.13193	2.35313
3018.20337	2.31330
3016.27480	2.27347
3014.34624	2.23308
3012.41768	2.19296
3010.48911	2.15365
3008.56055	2.11571
3006.63198	2.07990
3004.70342	2.04483
3002.77485	2.00864
3000.84629	1.97266
2998.91772	1.93829
2996.98916	1.90477
2995.06060	1.87170
2993.13203	1.83991
2991.20347	1.80959
2989.27490	1.77965
2987.34634	1.74977
2985.41777	1.72056
2983.48921	1.69184
2981.56064	1.66341
2979.63208	1.63588
2977.70352	1.60899
2975.77495	1.58195
2973.84639	1.55509
2971.91782	1.52929
2969.98926	1.50467
2968.06069	1.48026
2966.13213	1.45552
2964.20356	1.43097
2962.27500	1.40691
2960.34644	1.38311
2958.41787	1.35963
2956.48931	1.33672
2954.56074	1.31403
2952.63218	1.29081
2950.70361	1.26699
2948.77505	1.24344
2946.84648	1.22077
2944.91792	1.19869
2942.98936	1.17726
2941.06079	1.15701
2939.13223	1.13771
2937.20366	1.11840
2935.27510	1.09878
2933.34653	1.07936
2931.41797	1.06039
2929.48940	1.04181
2927.56084	1.02344
2925.63228	1.00495
2923.70371	0.98690
2921.77515	0.97006
2919.84658	0.95372
2917.91802	0.93676
2915.98945	0.91901
2914.06089	0.90161
2912.13232	0.88524
2910.20376	0.86895
2908.27520	0.85262
2906.34663	0.83726
2904.41807	0.82283
2902.48950	0.80856
2900.56094	0.79425
2898.63237	0.78028
2896.70381	0.76683
2894.77524	0.75398
2892.84668	0.74182
2890.91812	0.73006
2888.98955	0.71832
2887.06099	0.70669
2885.13242	0.69552
2883.20386	0.68500
2881.27529	0.67485
2879.34673	0.66490
2877.41816	0.65526
2875.48960	0.64574
2873.56104	0.63579
2871.63247	0.62521
2869.70391	0.61430
2867.77534	0.60321
2865.84678	0.59198
2863.91821	0.58075
2861.98965	0.56959
2860.06108	0.55869
2858.13252	0.54880
2856.20396	0.54003
2854.27539	0.53157
2852.34683	0.52317
2850.41826	0.51504
2848.48970	0.50693
2846.56113	0.49845
2844.63257	0.48982
2842.70400	0.48169
2840.77544	0.47431
2838.84687	0.46750
2836.91831	0.46115
2834.98975	0.45507
2833.06118	0.44895
2831.13262	0.44277
2829.20405	0.43670
2827.27549	0.43067
2825.34692	0.42454
2823.41836	0.41847
2821.48979	0.41256
2819.56123	0.40672
2817.63267	0.40094
2815.70410	0.39523
2813.77554	0.38963
2811.84697	0.38417
2809.91841	0.37874
2807.98984	0.37332
2806.06128	0.36798
2804.13271	0.36271
2802.20415	0.35759
2800.27559	0.35271
2798.34702	0.34795
2796.41846	0.34311
2794.48989	0.33818
2792.56133	0.33338
2790.63276	0.32886
2788.70420	0.32454
2786.77563	0.32030
2784.84707	0.31605
2782.91851	0.31181
2780.98994	0.30767
2779.06138	0.30365
2777.13281	0.29979
2775.20425	0.29605
2773.27568	0.29230
2771.34712	0.28856
2769.41855	0.28487
2767.48999	0.28112
2765.56143	0.27748
2763.63286	0.27421
2761.70430	0.27119
2759.77573	0.26805
2757.84717	0.26468
2755.91860	0.26132
2753.99004	0.25818
2752.06147	0.25513
2750.13291	0.25206
2748.20435	0.24909
2746.27578	0.24637
2744.34722	0.24381
2742.41865	0.24116
2740.49009	0.23847
2738.56152	0.23590
2736.63296	0.23331
2734.70439	0.23072
2732.77583	0.22827
2730.84727	0.22596
2728.91870	0.22371
2726.99014	0.22144
2725.06157	0.21923
2723.13301	0.21717
2721.20444	0.21520
2719.27588	0.21318
2717.34731	0.21102
2715.41875	0.20890
2713.49019	0.20695
2711.56162	0.20515
2709.63306	0.20353
2707.70449	0.20194
2705.77593	0.20018
2703.84736	0.19847
2701.91880	0.19699
2699.99023	0.19556
2698.06167	0.19409
2696.13311	0.19261
2694.20454	0.19114
2692.27598	0.18975
2690.34741	0.18854
2688.41885	0.18743
2686.49028	0.18622
2684.56172	0.18488
2682.63315	0.18362
2680.70459	0.18249
2678.77603	0.18132
2676.84746	0.18004
2674.91890	0.17885
2672.99033	0.17777
2671.06177	0.17674
2669.13320	0.17583
2667.20464	0.17494
2665.27607	0.17391
2663.34751	0.17287
2661.41895	0.17200
2659.49038	0.17126
2657.56182	0.17058
2655.63325	0.16982
2653.70469	0.16892
2651.77612	0.16804
2649.84756	0.16733
2647.91899	0.16672
2645.99043	0.16617
2644.06187	0.16570
2642.13330	0.16520
2640.20474	0.16464
2638.27617	0.16404
2636.34761	0.16355
2634.41904	0.16314
2632.49048	0.16273
2630.56191	0.16233
2628.63335	0.16199
2626.70479	0.16160
2624.77622	0.16119
2622.84766	0.16081
2620.91909	0.16048
2618.99053	0.16024
2617.06196	0.16010
2615.13340	0.16011
2613.20483	0.16012
2611.27627	0.15992
2609.34771	0.15951
2607.41914	0.15915
2605.49058	0.15910
2603.56201	0.15921
2601.63345	0.15929
2599.70488	0.15933
2597.77632	0.15935
2595.84775	0.15929
2593.91919	0.15920
2591.99062	0.15916
2590.06206	0.15919
2588.13350	0.15931
2586.20493	0.15946
2584.27637	0.15971
2582.34780	0.16013
2580.41924	0.16050
2578.49067	0.16069
2576.56211	0.16084
2574.63354	0.16114
2572.70498	0.16158
2570.77642	0.16200
2568.84785	0.16227
2566.91929	0.16246
2564.99072	0.16276
2563.06216	0.16318
2561.13359	0.16357
2559.20503	0.16394
2557.27646	0.16449
2555.34790	0.16521
2553.41934	0.16582
2551.49077	0.16628
2549.56221	0.16669
2547.63364	0.16708
2545.70508	0.16753
2543.77651	0.16807
2541.84795	0.16862
2539.91938	0.16927
2537.99082	0.17002
2536.06226	0.17071
2534.13369	0.17130
2532.20513	0.17192
2530.27656	0.17266
2528.34800	0.17347
2526.41943	0.17423
2524.49087	0.17493
2522.56230	0.17551
2520.63374	0.17615
2518.70518	0.17703
2516.77661	0.17790
2514.84805	0.17852
2512.91948	0.17910
2510.99092	0.17988
2509.06235	0.18065
2507.13379	0.18138
2505.20522	0.18227
2503.27666	0.18314
2501.34810	0.18387
2499.41953	0.18467
2497.49097	0.18556
2495.56240	0.18648
2493.63384	0.18735
2491.70527	0.18814
2489.77671	0.18900
2487.84814	0.18999
2485.91958	0.19099
2483.99102	0.19186
2482.06245	0.19260
2480.13389	0.19334
2478.20532	0.19422
2476.27676	0.19517
2474.34819	0.19603
2472.41963	0.19687
2470.49106	0.19781
2468.56250	0.19874
2466.63394	0.19955
2464.70537	0.20030
2462.77681	0.20116
2460.84824	0.20218
2458.91968	0.20318
2456.99111	0.20414
2455.06255	0.20507
2453.13398	0.20595
2451.20542	0.20690
2449.27686	0.20788
2447.34829	0.20876
2445.41973	0.20973
2443.49116	0.21086
2441.56260	0.21199
2439.63403	0.21294
2437.70547	0.21378
2435.77690	0.21470
2433.84834	0.21569
2431.91978	0.21677
2429.99121	0.21796
2428.06265	0.21906
2426.13408	0.22004
2424.20552	0.22117
2422.27695	0.22242
2420.34839	0.22358
2418.41982	0.22459
2416.49126	0.22554
2414.56270	0.22661
2412.63413	0.22779
2410.70557	0.22898
2408.77700	0.23022
2406.84844	0.23139
2404.91987	0.23239
2402.99131	0.23336
2401.06274	0.23446
2399.13418	0.23573
2397.20562	0.23706
2395.27705	0.23835
2393.34849	0.23960
2391.41992	0.24082
2389.49136	0.24188
2387.56279	0.24252
2385.63423	0.24229
2383.70566	0.24081
2381.77710	0.23802
2379.84854	0.23397
2377.91997	0.22880
2375.99141	0.22261
2374.06284	0.21523
2372.13428	0.20668
2370.20571	0.19735
2368.27715	0.18753
2366.34858	0.17766
2364.42002	0.16910
2362.49146	0.16361
2360.56289	0.16197
2358.63433	0.16451
2356.70576	0.17173
2354.77720	0.18304
2352.84863	0.19697
2350.92007	0.21116
2348.99150	0.22055
2347.06294	0.22198
2345.13437	0.21596
2343.20581	0.20794
2341.27725	0.20520
2339.34868	0.20745
2337.42012	0.21079
2335.49155	0.21390
2333.56299	0.21711
2331.63442	0.22069
2329.70586	0.22489
2327.77729	0.22964
2325.84873	0.23507
2323.92017	0.24114
2321.99160	0.24747
2320.06304	0.25402
2318.13447	0.26071
2316.20591	0.26698
2314.27734	0.27211
2312.34878	0.27613
2310.42021	0.27997
2308.49165	0.28456
2306.56309	0.28984
2304.63452	0.29480
2302.70596	0.29867
2300.77739	0.30173
2298.84883	0.30471
2296.92026	0.30794
2294.99170	0.31124
2293.06313	0.31447
2291.13457	0.31755
2289.20601	0.32051
2287.27744	0.32356
2285.34888	0.32671
2283.42031	0.32947
2281.49175	0.33154
2279.56318	0.33319
2277.63462	0.33476
2275.70605	0.33647
2273.77749	0.33845
2271.84893	0.34061
2269.92036	0.34267
2267.99180	0.34460
2266.06323	0.34662
2264.13467	0.34892
2262.20610	0.35145
2260.27754	0.35385
2258.34897	0.35608
2256.42041	0.35840
2254.49185	0.36082
2252.56328	0.36322
2250.63472	0.36576
2248.70615	0.36839
2246.77759	0.37079
2244.84902	0.37301
2242.92046	0.37528
2240.99189	0.37757
2239.06333	0.37979
2237.13477	0.38198
2235.20620	0.38420
2233.27764	0.38651
2231.34907	0.38879
2229.42051	0.39105
2227.49194	0.39337
2225.56338	0.39567
2223.63481	0.39786
2221.70625	0.40000
2219.77769	0.40217
2217.84912	0.40434
2215.92056	0.40644
2213.99199	0.40858
2212.06343	0.41082
2210.13486	0.41295
2208.20630	0.41492
2206.27773	0.41688
2204.34917	0.41900
2202.42061	0.42124
2200.49204	0.42340
2198.56348	0.42543
2196.63491	0.42741
2194.70635	0.42930
2192.77778	0.43111
2190.84922	0.43302
2188.92065	0.43502
2186.99209	0.43703
2185.06353	0.43892
2183.13496	0.44063
2181.20640	0.44220
2179.27783	0.44373
2177.34927	0.44525
2175.42070	0.44675
2173.49214	0.44826
2171.56357	0.44969
2169.63501	0.45097
2167.70645	0.45222
2165.77788	0.45349
2163.84932	0.45473
2161.92075	0.45590
2159.99219	0.45700
2158.06362	0.45803
2156.13506	0.45906
2154.20649	0.46001
2152.27793	0.46079
2150.34937	0.46143
2148.42080	0.46209
2146.49224	0.46271
2144.56367	0.46315
2142.63511	0.46353
2140.70654	0.46392
2138.77798	0.46426
2136.84941	0.46448
2134.92085	0.46457
2132.99229	0.46445
2131.06372	0.46425
2129.13516	0.46407
2127.20659	0.46385
2125.27803	0.46350
2123.34946	0.46296
2121.42090	0.46232
2119.49233	0.46166
2117.56377	0.46100
2115.63521	0.46024
2113.70664	0.45945
2111.77808	0.45867
2109.84951	0.45777
2107.92095	0.45673
2105.99238	0.45560
2104.06382	0.45441
2102.13525	0.45305
2100.20669	0.45153
2098.27812	0.45003
2096.34956	0.44866
2094.42100	0.44733
2092.49243	0.44580
2090.56387	0.44402
2088.63530	0.44218
2086.70674	0.44029
2084.77817	0.43818
2082.84961	0.43608
2080.92104	0.43415
2078.99248	0.43222
2077.06392	0.43015
2075.13535	0.42799
2073.20679	0.42577
2071.27822	0.42355
2069.34966	0.42131
2067.42109	0.41891
2065.49253	0.41639
2063.56396	0.41397
2061.63540	0.41167
2059.70684	0.40927
2057.77827	0.40675
2055.84971	0.40422
2053.92114	0.40165
2051.99258	0.39897
2050.06401	0.39623
2048.13545	0.39353
2046.20688	0.39085
2044.27832	0.38814
2042.34976	0.38539
2040.42119	0.38263
2038.49263	0.37994
2036.56406	0.37727
2034.63550	0.37451
2032.70693	0.37166
2030.77837	0.36881
2028.84980	0.36601
2026.92124	0.36332
2024.99268	0.36062
2023.06411	0.35773
2021.13555	0.35477
2019.20698	0.35192
2017.27842	0.34915
2015.34985	0.34640
2013.42129	0.34374
2011.49272	0.34116
2009.56416	0.33853
2007.63560	0.33573
2005.70703	0.33282
2003.77847	0.32996
2001.84990	0.32721
1999.92134	0.32454
1997.99277	0.32192
1996.06421	0.31938
1994.13564	0.31690
1992.20708	0.31440
1990.27852	0.31187
1988.34995	0.30941
1986.42139	0.30700
1984.49282	0.30462
1982.56426	0.30225
1980.63569	0.29987
1978.70713	0.29756
1976.77856	0.29531
1974.85000	0.29307
1972.92144	0.29082
1970.99287	0.28871
1969.06431	0.28671
1967.13574	0.28471
1965.20718	0.28269
1963.27861	0.28071
1961.35005	0.27875
1959.42148	0.27682
1957.49292	0.27496
1955.56436	0.27314
1953.63579	0.27137
1951.70723	0.26963
1949.77866	0.26793
1947.85010	0.26628
1945.92153	0.26478
1943.99297	0.26337
1942.06440	0.26191
1940.13584	0.26037
1938.20728	0.25888
1936.27871	0.25749
1934.35015	0.25620
1932.42158	0.25504
1930.49302	0.25392
1928.56445	0.25278
1926.63589	0.25166
1924.70732	0.25068
1922.77876	0.24967
1920.85020	0.24854
1918.92163	0.24747
1916.99307	0.24657
1915.06450	0.24578
1913.13594	0.24495
1911.20737	0.24415
1909.27881	0.24345
1907.35024	0.24293
1905.42168	0.24248
1903.49312	0.24194
1901.56455	0.24134
1899.63599	0.24082
1897.70742	0.24034
1895.77886	0.23981
1893.85029	0.23942
1891.92173	0.23912
1889.99316	0.23880
1888.06460	0.23858
1886.13604	0.23853
1884.20747	0.23849
1882.27891	0.23834
1880.35034	0.23810
1878.42178	0.23786
1876.49321	0.23776
1874.56465	0.23775
1872.63608	0.23776
1870.70752	0.23774
1868.77896	0.23786
1866.85039	0.23820
1864.92183	0.23849
1862.99326	0.23875
1861.06470	0.23905
1859.13613	0.23945
1857.20757	0.23980
1855.27900	0.24020
1853.35044	0.24072
1851.42187	0.24139
1849.49331	0.24202
1847.56475	0.24246
1845.63618	0.24283
1843.70762	0.24353
1841.77905	0.24458
1839.85049	0.24541
1837.92192	0.24623
1835.99336	0.24716
1834.06479	0.24813
1832.13623	0.24890
1830.20767	0.24977
1828.27910	0.25102
1826.35054	0.25233
1824.42197	0.25390
1822.49341	0.25555
1820.56484	0.25697
1818.63628	0.25828
1816.70771	0.25981
1814.77915	0.26144
1812.85059	0.26308
1810.92202	0.26492
1808.99346	0.26702
1807.06489	0.26921
1805.13633	0.27123
1803.20776	0.27328
1801.27920	0.27552
1799.35063	0.27826
1797.42207	0.28094
1795.49351	0.28329
1793.56494	0.28577
1791.63638	0.28918
1789.70781	0.29293
1787.77925	0.29594
1785.85068	0.29914
1783.92212	0.30273
1781.99355	0.30646
1780.06499	0.31046
1778.13643	0.31479
1776.20786	0.31882
1774.27930	0.32273
1772.35073	0.32796
1770.42217	0.33446
1768.49360	0.34043
1766.56504	0.34594
1764.63647	0.35133
1762.70791	0.35705
1760.77935	0.36434
1758.85078	0.37137
1756.92222	0.37851
1754.99365	0.38643
1753.06509	0.39350
1751.13652	0.40138
1749.20796	0.41129
1747.27939	0.42165
1745.35083	0.43104
1743.42227	0.44070
1741.49370	0.45125
1739.56514	0.46373
1737.63657	0.47618
1735.70801	0.48685
1733.77944	0.50270
1731.85088	0.52214
1729.92231	0.53796
1727.99375	0.55417
1726.06519	0.57164
1724.13662	0.59026
1722.20806	0.60996
1720.27949	0.62800
1718.35093	0.64888
1716.42236	0.68012
1714.49380	0.71112
1712.56523	0.73690
1710.63667	0.76155
1708.70811	0.78740
1706.77954	0.81635
1704.85098	0.85111
1702.92241	0.88251
1700.99385	0.91339
1699.06528	0.95902
1697.13672	1.00167
1695.20815	1.04627
1693.27959	1.09025
1691.35103	1.12578
1689.42246	1.16625
1687.49390	1.20856
1685.56533	1.24897
1683.63677	1.31160
1681.70820	1.37803
1679.77964	1.42133
1677.85107	1.46227
1675.92251	1.50863
1673.99395	1.56550
1672.06538	1.61698
1670.13682	1.66824
1668.20825	1.73493
1666.27969	1.79021
1664.35112	1.83748
1662.42256	1.89633
1660.49399	1.96334
1658.56543	2.01630
1656.63687	2.05807
1654.70830	2.09435
1652.77974	2.15189
1650.85117	2.21012
1648.92261	2.23054
1646.99404	2.25181
1645.06548	2.27661
1643.13691	2.29733
1641.20835	2.30900
1639.27979	2.31559
1637.35122	2.31719
1635.42266	2.31514
1633.49409	2.30762
1631.56553	2.29227
1629.63696	2.27374
1627.70840	2.24581
1625.77983	2.21203
1623.85127	2.16724
1621.92271	2.11393
1619.99414	2.06859
1618.06558	2.02472
1616.13701	1.96128
1614.20845	1.89589
1612.27988	1.84564
1610.35132	1.79372
1608.42275	1.73788
1606.49419	1.68286
1604.56562	1.63213
1602.63706	1.58349
1600.70850	1.53650
1598.77993	1.49345
1596.85137	1.45265
1594.92280	1.41250
1592.99424	1.37355
1591.06567	1.33832
1589.13711	1.30636
1587.20854	1.27718
1585.27998	1.24985
1583.35142	1.22377
1581.42285	1.19999
1579.49429	1.18018
1577.56572	1.16273
1575.63716	1.14213
1573.70859	1.12461
1571.78003	1.11325
1569.85146	1.10161
1567.92290	1.08949
1565.99434	1.08108
1564.06577	1.07503
1562.13721	1.07041
1560.20864	1.06759
1558.28008	1.06681
1556.35151	1.06821
1554.42295	1.06932
1552.49438	1.06988
1550.56582	1.06864
1548.63726	1.06493
1546.70869	1.05883
1544.78013	1.04955
1542.85156	1.03702
1540.92300	1.01958
1538.99443	0.99368
1537.06587	0.97445
1535.13730	0.96074
1533.20874	0.94252
1531.28018	0.92351
1529.35161	0.90976
1527.42305	0.89636
1525.49448	0.88215
1523.56592	0.87013
1521.63735	0.85920
1519.70879	0.84844
1517.78022	0.83893
1515.85166	0.82804
1513.92310	0.81685
1511.99453	0.80671
1510.06597	0.79689
1508.13740	0.78719
1506.20884	0.77421
1504.28027	0.76355
1502.35171	0.75705
1500.42314	0.75100
1498.49458	0.74452
1496.56602	0.73733
1494.63745	0.73057
1492.70889	0.72512
1490.78032	0.71981
1488.85176	0.71388
1486.92319	0.70887
1484.99463	0.70501
1483.06606	0.70173
1481.13750	0.69882
1479.20894	0.69655
1477.28037	0.69513
1475.35181	0.69416
1473.42324	0.69333
1471.49468	0.69223
1469.56611	0.69072
1467.63755	0.68884
1465.70898	0.68699
1463.78042	0.68571
1461.85186	0.68490
1459.92329	0.68433
1457.99473	0.68394
1456.06616	0.68300
1454.13760	0.68119
1452.20903	0.67922
1450.28047	0.67683
1448.35190	0.67418
1446.42334	0.67177
1444.49478	0.66966
1442.56621	0.66752
1440.63765	0.66515
1438.70908	0.66247
1436.78052	0.65910
1434.85195	0.65565
1432.92339	0.65306
1430.99482	0.65122
1429.06626	0.65017
1427.13770	0.64977
1425.20913	0.64968
1423.28057	0.64995
1421.35200	0.65030
1419.42344	0.65048
1417.49487	0.65029
1415.56631	0.64949
1413.63774	0.64859
1411.70918	0.64822
1409.78062	0.64878
1407.85205	0.64987
1405.92349	0.65096
1403.99492	0.65189
1402.06636	0.65221
1400.13779	0.65156
1398.20923	0.64989
1396.28066	0.64733
1394.35210	0.64385
1392.42354	0.63997
1390.49497	0.63640
1388.56641	0.63275
1386.63784	0.62855
1384.70928	0.62411
1382.78071	0.61984
1380.85215	0.61584
1378.92358	0.61238
1376.99502	0.60964
1375.06646	0.60769
1373.13789	0.60637
1371.20933	0.60537
1369.28076	0.60446
1367.35220	0.60337
1365.42363	0.60190
1363.49507	0.60029
1361.56650	0.59900
1359.63794	0.59787
1357.70937	0.59658
1355.78081	0.59519
1353.85225	0.59397
1351.92368	0.59295
1349.99512	0.59209
1348.06655	0.59130
1346.13799	0.59047
1344.20942	0.58959
1342.28086	0.58871
1340.35229	0.58794
1338.42373	0.58736
1336.49517	0.58689
1334.56660	0.58649
1332.63804	0.58627
1330.70947	0.58626
1328.78091	0.58642
1326.85234	0.58675
1324.92378	0.58721
1322.99521	0.58767
1321.06665	0.58813
1319.13809	0.58856
1317.20952	0.58874
1315.28096	0.58866
1313.35239	0.58836
1311.42383	0.58784
1309.49526	0.58722
1307.56670	0.58666
1305.63813	0.58614
1303.70957	0.58542
1301.78101	0.58452
1299.85244	0.58362
1297.92388	0.58257
1295.99531	0.58125
1294.06675	0.57991
1292.13818	0.57864
1290.20962	0.57742
1288.28105	0.57637
1286.35249	0.57547
1284.42393	0.57452
1282.49536	0.57332
1280.56680	0.57197
1278.63823	0.57057
1276.70967	0.56921
1274.78110	0.56805
1272.85254	0.56717
1270.92397	0.56652
1268.99541	0.56596
1267.06685	0.56533
1265.13828	0.56462
1263.20972	0.56394
1261.28115	0.56338
1259.35259	0.56287
1257.42402	0.56227
1255.49546	0.56184
1253.56689	0.56177
1251.63833	0.56176
1249.70977	0.56161
1247.78120	0.56136
1245.85264	0.56103
1243.92407	0.56052
1241.99551	0.55974
1240.06694	0.55864
1238.13838	0.55722
1236.20981	0.55542
1234.28125	0.55341
1232.35269	0.55145
1230.42412	0.54959
1228.49556	0.54772
1226.56699	0.54594
1224.63843	0.54438
1222.70986	0.54283
1220.78130	0.54124
1218.85273	0.53977
1216.92417	0.53849
1214.99561	0.53742
1213.06704	0.53653
1211.13848	0.53583
1209.20991	0.53530
1207.28135	0.53478
1205.35278	0.53396
1203.42422	0.53287
1201.49565	0.53188
1199.56709	0.53112
1197.63853	0.53032
1195.70996	0.52946
1193.78140	0.52881
1191.85283	0.52841
1189.92427	0.52804
1187.99570	0.52768
1186.06714	0.52751
1184.13857	0.52747
1182.21001	0.52760
1180.28145	0.52829
1178.35288	0.52959
1176.42432	0.53099
1174.49575	0.53213
1172.56719	0.53297
1170.63862	0.53337
1168.71006	0.53338
1166.78149	0.53335
1164.85293	0.53347
1162.92437	0.53355
1160.99580	0.53339
1159.06724	0.53312
1157.13867	0.53266
1155.21011	0.53174
1153.28154	0.53049
1151.35298	0.52895
1149.42441	0.52677
1147.49585	0.52418
1145.56729	0.52160
1143.63872	0.51904
1141.71016	0.51660
1139.78159	0.51463
1137.85303	0.51323
1135.92446	0.51220
1133.99590	0.51131
1132.06733	0.51047
1130.13877	0.50982
1128.21021	0.50922
1126.28164	0.50851
1124.35308	0.50780
1122.42451	0.50712
1120.49595	0.50668
1118.56738	0.50685
1116.63882	0.50733
1114.71025	0.50777
1112.78169	0.50833
1110.85312	0.50905
1108.92456	0.50992
1106.99600	0.51095
1105.06743	0.51199
1103.13887	0.51300
1101.21030	0.51411
1099.28174	0.51558
1097.35317	0.51768
1095.42461	0.52037
1093.49604	0.52374
1091.56748	0.52809
1089.63892	0.53369
1087.71035	0.54060
1085.78179	0.54838
1083.85322	0.55607
1081.92466	0.56291
1079.99609	0.56820
1078.06753	0.57121
1076.13896	0.57161
1074.21040	0.56925
1072.28184	0.56423
1070.35327	0.55754
1068.42471	0.55047
1066.49614	0.54361
1064.56758	0.53716
1062.63901	0.53160
1060.71045	0.52701
1058.78188	0.52283
1056.85332	0.51883
1054.92476	0.51511
1052.99619	0.51168
1051.06763	0.50887
1049.13906	0.50691
1047.21050	0.50549
1045.28193	0.50454
1043.35337	0.50413
1041.42480	0.50388
1039.49624	0.50349
1037.56768	0.50315
1035.63911	0.50293
1033.71055	0.50250
1031.78198	0.50167
1029.85342	0.50058
1027.92485	0.49955
1025.99629	0.49881
1024.06772	0.49832
1022.13916	0.49794
1020.21060	0.49771
1018.28203	0.49774
1016.35347	0.49786
1014.42490	0.49794
1012.49634	0.49803
1010.56777	0.49846
1008.63921	0.49919
1006.71064	0.50001
1004.78208	0.50102
1002.85352	0.50257
1000.92495	0.50505
998.99639	0.50861
997.06782	0.51281
995.13926	0.51707
993.21069	0.52103
991.28213	0.52431
989.35356	0.52631
987.42500	0.52702
985.49644	0.52724
983.56787	0.52768
981.63931	0.52856
979.71074	0.52982
977.78218	0.53143
975.85361	0.53347
973.92505	0.53585
971.99648	0.53858
970.06792	0.54172
968.13936	0.54540
966.21079	0.54970
964.28223	0.55420
962.35366	0.55868
960.42510	0.56355
958.49653	0.56905
956.56797	0.57515
954.63940	0.58152
952.71084	0.58785
950.78228	0.59412
948.85371	0.60040
946.92515	0.60673
944.99658	0.61293
943.06802	0.61879
941.13945	0.62461
939.21089	0.63066
937.28232	0.63673
935.35376	0.64266
933.42520	0.64857
931.49663	0.65472
929.56807	0.66123
927.63950	0.66736
925.71094	0.67297
923.78237	0.67920
921.85381	0.68584
919.92524	0.69201
917.99668	0.69831
916.06812	0.70570
914.13955	0.71401
912.21099	0.72223
910.28242	0.73036
908.35386	0.73950
906.42529	0.74935
904.49673	0.75818
902.56816	0.76609
900.63960	0.77466
898.71104	0.78426
896.78247	0.79450
894.85391	0.80513
892.92534	0.81603
890.99678	0.82645
889.06821	0.83652
887.13965	0.84768
885.21108	0.85955
883.28252	0.87093
881.35396	0.88284
879.42539	0.89577
877.49683	0.90761
875.56826	0.91760
873.63970	0.92730
871.71113	0.93808
869.78257	0.95004
867.85400	0.96304
865.92544	0.97595
863.99687	0.98813
862.06831	1.00074
860.13975	1.01204
858.21118	1.02070
856.28262	1.02993
854.35405	1.04228
852.42549	1.05644
850.49692	1.07051
848.56836	1.08496
846.63979	1.09886
844.71123	1.10971
842.78267	1.11886
840.85410	1.12993
838.92554	1.14192
836.99697	1.15132
835.06841	1.15928
833.13984	1.17142
831.21128	1.19165
829.28271	1.21456
827.35415	1.23029
825.42559	1.24062
823.49702	1.25488
821.56846	1.27174
819.63989	1.28269
817.71133	1.28936
815.78276	1.29927
813.85420	1.30874
811.92563	1.31685
809.99707	1.32969
808.06851	1.34528
806.13994	1.36386
804.21138	1.38705
802.28281	1.42669
800.35425	1.48655
798.42568	1.52860
796.49712	1.53881
794.56855	1.55499
792.63999	1.59193
790.71143	1.67757
788.78286	1.89479
786.85430	2.18796
784.92573	2.10719
782.99717	1.99778
781.06860	1.91189
779.14004	1.99056
777.21147	4.66327
775.28291	4.65170
773.35435	2.94109
771.42578	1.87882
769.49722	1.74057
767.56865	1.62397
765.64009	1.50538
763.71152	1.50095
761.78296	1.43450
759.85439	1.28544
757.92583	1.26363
755.99727	1.32806
754.06870	1.28644
752.14014	1.18880
750.21157	1.14566
748.28301	1.13283
746.35444	1.09023
744.42588	1.08393
742.49731	1.17267
740.56875	1.19517
738.64019	1.05698
736.71162	0.92541
734.78306	0.85329
732.85449	0.77601
730.92593	0.65903
728.99736	0.57937
727.06880	0.53555
725.14023	0.46636
723.21167	0.41183
721.28311	0.45424
719.35454	0.63182
717.42598	0.80097
715.49741	0.72588
713.56885	0.61419
711.64028	0.52418
709.71172	0.31134
707.78315	0.17562
705.85459	0.19266
703.92603	0.29294
701.99746	0.38485
700.06890	0.34056
698.14033	0.18781
696.21177	0.13396
694.28320	0.16205
692.35464	0.17023
690.42607	0.17679
688.49751	0.17826
686.56895	0.16758
684.64038	0.18396
682.71182	0.20762
680.78325	0.16782
678.85469	0.10382
676.92612	0.03893
674.99756	0.02369
673.06899	0.10707
671.14043	0.21625
669.21187	0.27945
667.28330	0.31164
665.35474	0.30783
663.42617	0.25568
661.49761	0.24136
659.56904	0.23899
657.64048	0.11982
655.71191	0.00249
653.78335	0.00927
651.85479	0.11648
649.92622	0.17318
647.99766	0.18911
646.06909	0.22913
644.14053	0.29828
642.21196	0.34856
640.28340	0.29086
638.35483	0.19337
636.42627	0.18429
634.49771	0.21883
632.56914	0.21768
630.64058	0.22196
628.71201	0.27848
626.78345	0.28559
624.85488	0.27773
622.92632	0.26860
620.99775	0.23610
619.06919	0.25265
617.14062	0.28637
615.21206	0.16059
613.28350	0.04424
611.35493	0.08402
609.42637	0.15496
607.49780	0.17623
605.56924	0.17932
603.64067	0.18581
601.71211	0.16667
599.78354	0.19033
597.85498	0.25486
595.92642	0.23866
593.99785	0.17182
592.06929	0.16970
590.14072	0.18770
588.21216	0.15246
586.28359	0.10705
584.35503	0.10816
582.42646	0.10391
580.49790	0.08122
578.56934	0.13050
576.64077	0.15967
574.71221	0.11829
572.78364	0.07568
570.85508	0.07098
568.92651	0.08990
566.99795	0.11358
565.06938	0.11942
563.14082	0.11301
561.21226	0.13710
559.28369	0.17769
557.35513	0.13528
555.42656	0.08293
553.49800	0.11972
551.56943	0.15313
549.64087	0.15441
547.71230	0.16600
545.78374	0.16588
543.85518	0.13094
541.92661	0.11849
539.99805	0.14143
538.06948	0.13626
536.14092	0.09939
534.21235	0.09198
532.28379	0.15699
530.35522	0.18486
528.42666	0.14528
526.49810	0.12393
524.56953	0.13462
522.64097	0.17148
520.71240	0.21630
518.78384	0.22898
516.85527	0.17189
514.92671	0.09745
512.99814	0.05012
511.06958	0.01119
509.14102	0.04352
507.21245	0.15295
505.28389	0.27265
503.35532	0.26421
501.42676	0.17214
499.49819	0.13310
