3997.91411	0.06677
3995.98555	0.06719
3994.05698	0.06722
3992.12842	0.06720
3990.19985	0.06779
3988.27129	0.06875
3986.34272	0.06947
3984.41416	0.06977
3982.48560	0.07000
3980.55703	0.07024
3978.62847	0.07022
3976.69990	0.07018
3974.77134	0.07038
3972.84277	0.07073
3970.91421	0.07113
3968.98564	0.07141
3967.05708	0.07137
3965.12852	0.07125
3963.19995	0.07144
3961.27139	0.07187
3959.34282	0.07222
3957.41426	0.07226
3955.48569	0.07202
3953.55713	0.07178
3951.62856	0.07194
3949.70000	0.07259
3947.77144	0.07304
3945.84287	0.07296
3943.91431	0.07296
3941.98574	0.07298
3940.05718	0.07246
3938.12861	0.07185
3936.20005	0.07166
3934.27148	0.07194
3932.34292	0.07280
3930.41436	0.07371
3928.48579	0.07372
3926.55723	0.07343
3924.62866	0.07379
3922.70010	0.07406
3920.77153	0.07353
3918.84297	0.07300
3916.91440	0.07279
3914.98584	0.07232
3913.05728	0.07168
3911.12871	0.07146
3909.20015	0.07161
3907.27158	0.07197
3905.34302	0.07304
3903.41445	0.07488
3901.48589	0.07603
3899.55732	0.07570
3897.62876	0.07454
3895.70020	0.07318
3893.77163	0.07260
3891.84307	0.07346
3889.91450	0.07448
3887.98594	0.07414
3886.05737	0.07379
3884.12881	0.07424
3882.20024	0.07478
3880.27168	0.07528
3878.34312	0.07493
3876.41455	0.07382
3874.48599	0.07389
3872.55742	0.07531
3870.62886	0.07705
3868.70029	0.07812
3866.77173	0.07781
3864.84316	0.07790
3862.91460	0.07879
3860.98604	0.07846
3859.05747	0.07720
3857.12891	0.07694
3855.20034	0.07874
3853.27178	0.08257
3851.34321	0.08448
3849.41465	0.08228
3847.48608	0.08006
3845.55752	0.07948
3843.62896	0.08057
3841.70039	0.08237
3839.77183	0.08426
3837.84326	0.08618
3835.91470	0.08667
3833.98613	0.08590
3832.05757	0.08550
3830.12900	0.08562
3828.20044	0.08595
3826.27187	0.08654
3824.34331	0.08723
3822.41475	0.08857
3820.48618	0.09145
3818.55762	0.09347
3816.62905	0.09336
3814.70049	0.09248
3812.77192	0.09122
3810.84336	0.09098
3808.91479	0.09242
3806.98623	0.09519
3805.05767	0.09764
3803.12910	0.09912
3801.20054	0.10127
3799.27197	0.10257
3797.34341	0.10214
3795.41484	0.10227
3793.48628	0.10266
3791.55771	0.10293
3789.62915	0.10377
3787.70059	0.10531
3785.77202	0.10748
3783.84346	0.10971
3781.91489	0.11106
3779.98633	0.11226
3778.05776	0.11402
3776.12920	0.11528
3774.20063	0.11622
3772.27207	0.11794
3770.34351	0.12090
3768.41494	0.12390
3766.48638	0.12532
3764.55781	0.12627
3762.62925	0.12762
3760.70068	0.12954
3758.77212	0.13229
3756.84355	0.13519
3754.91499	0.13788
3752.98643	0.14164
3751.05786	0.14754
3749.12930	0.15333
3747.20073	0.15553
3745.27217	0.15684
3743.34360	0.15963
3741.41504	0.16205
3739.48647	0.16387
3737.55791	0.16693
3735.62935	0.17226
3733.70078	0.17866
3731.77222	0.18263
3729.84365	0.18489
3727.91509	0.18816
3725.98652	0.19390
3724.05796	0.20091
3722.12939	0.20727
3720.20083	0.21366
3718.27227	0.22055
3716.34370	0.22768
3714.41514	0.23535
3712.48657	0.24556
3710.55801	0.25973
3708.62944	0.27320
3706.70088	0.28326
3704.77231	0.29335
3702.84375	0.30638
3700.91519	0.32386
3698.98662	0.34245
3697.05806	0.35960
3695.12949	0.37791
3693.20093	0.39781
3691.27236	0.42010
3689.34380	0.44916
3687.41523	0.48342
3685.48667	0.51207
3683.55811	0.53697
3681.62954	0.56487
3679.70098	0.59720
3677.77241	0.63160
3675.84385	0.67197
3673.91528	0.72484
3671.98672	0.76724
3670.05815	0.80513
3668.12959	0.85757
3666.20103	0.90494
3664.27246	0.94428
3662.34390	0.98714
3660.41533	1.03430
3658.48677	1.08131
3656.55820	1.13093
3654.62964	1.18530
3652.70107	1.23114
3650.77251	1.27197
3648.84395	1.32816
3646.91538	1.39549
3644.98682	1.44446
3643.05825	1.48273
3641.12969	1.52225
3639.20112	1.56564
3637.27256	1.60968
3635.34399	1.65313
3633.41543	1.69637
3631.48687	1.73663
3629.55830	1.77752
3627.62974	1.83038
3625.70117	1.87997
3623.77261	1.91400
3621.84404	1.94633
3619.91548	1.98405
3617.98691	2.03137
3616.05835	2.07748
3614.12979	2.11505
3612.20122	2.15328
3610.27266	2.19123
3608.34409	2.22936
3606.41553	2.27074
3604.48696	2.31037
3602.55840	2.34636
3600.62983	2.38494
3598.70127	2.42593
3596.77271	2.46479
3594.84414	2.50428
3592.91558	2.54607
3590.98701	2.58592
3589.05845	2.62361
3587.12988	2.66856
3585.20132	2.71738
3583.27275	2.75839
3581.34419	2.79616
3579.41562	2.83642
3577.48706	2.87929
3575.55850	2.92315
3573.62993	2.96679
3571.70137	3.00714
3569.77280	3.04594
3567.84424	3.08995
3565.91567	3.14460
3563.98711	3.19516
3562.05854	3.23482
3560.12998	3.27527
3558.20142	3.31862
3556.27285	3.36297
3554.34429	3.40823
3552.41572	3.45548
3550.48716	3.50298
3548.55859	3.54869
3546.63003	3.59390
3544.70146	3.64227
3542.77290	3.69257
3540.84434	3.74013
3538.91577	3.78436
3536.98721	3.82863
3535.05864	3.87716
3533.13008	3.92517
3531.20151	3.97129
3529.27295	4.02012
3527.34438	4.06966
3525.41582	4.11458
3523.48726	4.15985
3521.55869	4.21034
3519.63013	4.25847
3517.70156	4.30530
3515.77300	4.35662
3513.84443	4.40834
3511.91587	4.45761
3509.98730	4.50961
3508.05874	4.56294
3506.13018	4.60969
3504.20161	4.65336
3502.27305	4.70268
3500.34448	4.75443
3498.41592	4.79972
3496.48735	4.84133
3494.55879	4.88628
3492.63022	4.93590
3490.70166	4.98608
3488.77310	5.03405
3486.84453	5.08120
3484.91597	5.12949
3482.98740	5.18101
3481.05884	5.23447
3479.13027	5.28324
3477.20171	5.32780
3475.27314	5.37371
3473.34458	5.42175
3471.41602	5.47114
3469.48745	5.51888
3467.55889	5.56134
3465.63032	5.60492
3463.70176	5.65899
3461.77319	5.71778
3459.84463	5.77571
3457.91606	5.82891
3455.98750	5.87227
3454.05894	5.91480
3452.13037	5.96686
3450.20181	6.02491
3448.27324	6.07766
3446.34468	6.12455
3444.41611	6.17799
3442.48755	6.23790
3440.55898	6.29052
3438.63042	6.34120
3436.70186	6.38350
3434.77329	6.42016
3432.84473	6.48603
3430.91616	6.56391
3428.98760	6.61140
3427.05903	6.64128
3425.13047	6.68840
3423.20190	6.73548
3421.27334	6.76489
3419.34478	6.80758
3417.41621	6.87267
3415.48765	6.92745
3413.55908	6.96684
3411.63052	6.99879
3409.70195	7.01248
3407.77339	7.05340
3405.84482	7.14926
3403.91626	7.25821
3401.98770	7.31647
3400.05913	7.30556
3398.13057	7.28426
3396.20200	7.30852
3394.27344	7.36715
3392.34487	7.40436
3390.41631	7.43275
3388.48774	7.47082
3386.55918	7.51379
3384.63062	7.56164
3382.70205	7.62000
3380.77349	7.69148
3378.84492	7.74071
3376.91636	7.75774
3374.98779	7.76455
3373.05923	7.79578
3371.13066	7.84410
3369.20210	7.90477
3367.27354	7.99391
3365.34497	8.07276
3363.41641	8.07680
3361.48784	8.02586
3359.55928	8.00460
3357.63071	8.01228
3355.70215	8.00880
3353.77358	7.99021
3351.84502	7.96441
3349.91646	7.94270
3347.98789	7.94057
3346.05933	7.92585
3344.13076	7.93999
3342.20220	8.05326
3340.27363	8.17775
3338.34507	8.21723
3336.41650	8.19013
3334.48794	8.16180
3332.55937	8.17258
3330.63081	8.21773
3328.70225	8.20157
3326.77368	8.10054
3324.84512	8.03753
3322.91655	8.05992
3320.98799	8.11773
3319.05942	8.16721
3317.13086	8.18853
3315.20229	8.12001
3313.27373	8.03698
3311.34517	8.04164
3309.41660	8.13538
3307.48804	8.24779
3305.55947	8.25496
3303.63091	8.21226
3301.70234	8.20728
3299.77378	8.20663
3297.84521	8.21801
3295.91665	8.30463
3293.98809	8.36551
3292.05952	8.31819
3290.13096	8.29659
3288.20239	8.33140
3286.27383	8.34617
3284.34526	8.33184
3282.41670	8.30725
3280.48813	8.22084
3278.55957	8.11813
3276.63101	8.11004
3274.70244	8.18632
3272.77388	8.24953
3270.84531	8.31042
3268.91675	8.43910
3266.98818	8.53966
3265.05962	8.51584
3263.13105	8.43438
3261.20249	8.34552
3259.27393	8.20178
3257.34536	8.10725
3255.41680	8.20221
3253.48823	8.35683
3251.55967	8.36861
3249.63110	8.33967
3247.70254	8.41422
3245.77397	8.50979
3243.84541	8.49234
3241.91685	8.39287
3239.98828	8.35311
3238.05972	8.39809
3236.13115	8.39016
3234.20259	8.29014
3232.27402	8.23614
3230.34546	8.27831
3228.41689	8.32229
3226.48833	8.32863
3224.55977	8.29109
3222.63120	8.24743
3220.70264	8.29545
3218.77407	8.37129
3216.84551	8.35437
3214.91694	8.26601
3212.98838	8.16813
3211.05981	8.10838
3209.13125	8.08001
3207.20269	8.05026
3205.27412	8.01607
3203.34556	7.97643
3201.41699	7.92503
3199.48843	7.88007
3197.55986	7.84537
3195.63130	7.76752
3193.70273	7.67779
3191.77417	7.62004
3189.84561	7.56050
3187.91704	7.54860
3185.98848	7.60874
3184.05991	7.62829
3182.13135	7.55272
3180.20278	7.46101
3178.27422	7.40507
3176.34565	7.35717
3174.41709	7.28424
3172.48853	7.19672
3170.55996	7.11498
3168.63140	7.03504
3166.70283	6.96529
3164.77427	6.93177
3162.84570	6.90277
3160.91714	6.83746
3158.98857	6.74631
3157.06001	6.63510
3155.13145	6.52942
3153.20288	6.46145
3151.27432	6.42168
3149.34575	6.38172
3147.41719	6.32519
3145.48862	6.25381
3143.56006	6.17707
3141.63149	6.10351
3139.70293	6.02617
3137.77437	5.94787
3135.84580	5.88687
3133.91724	5.83306
3131.98867	5.76964
3130.06011	5.70017
3128.13154	5.62439
3126.20298	5.54936
3124.27441	5.47927
3122.34585	5.39570
3120.41729	5.30349
3118.48872	5.22470
3116.56016	5.15911
3114.63159	5.09980
3112.70303	5.03995
3110.77446	4.96779
3108.84590	4.88788
3106.91733	4.81667
3104.98877	4.75403
3103.06021	4.69129
3101.13164	4.62500
3099.20308	4.55355
3097.27451	4.47885
3095.34595	4.40698
3093.41738	4.33994
3091.48882	4.27627
3089.56025	4.21565
3087.63169	4.15622
3085.70312	4.09504
3083.77456	4.03041
3081.84600	3.96411
3079.91743	3.89982
3077.98887	3.83847
3076.06030	3.77851
3074.13174	3.71944
3072.20317	3.66149
3070.27461	3.60417
3068.34604	3.54686
3066.41748	3.48854
3064.48892	3.43020
3062.56035	3.37418
3060.63179	3.32041
3058.70322	3.26610
3056.77466	3.21039
3054.84609	3.15652
3052.91753	3.10557
3050.98896	3.05465
3049.06040	3.00293
3047.13184	2.95220
3045.20327	2.90244
3043.27471	2.85295
3041.34614	2.80401
3039.41758	2.75576
3037.48901	2.70846
3035.56045	2.66190
3033.63188	2.61623
3031.70332	2.57164
3029.77476	2.52712
3027.84619	2.48276
3025.91763	2.43938
3023.98906	2.39660
3022.06050	2.35434
3020.13193	2.31271
3018.20337	2.27116
3016.27480	2.23013
3014.34624	2.19068
3012.41768	2.15269
3010.48911	2.11521
3008.56055	2.07798
3006.63198	2.04141
3004.70342	2.00555
3002.77485	1.97026
3000.84629	1.93557
2998.91772	1.90156
2996.98916	1.86837
2995.06060	1.83574
2993.13203	1.80356
2991.20347	1.77210
2989.27490	1.74109
2987.34634	1.71046
2985.41777	1.68071
2983.48921	1.65175
2981.56064	1.62339
2979.63208	1.59559
2977.70352	1.56804
2975.77495	1.54078
2973.84639	1.51427
2971.91782	1.48840
2969.98926	1.46285
2968.06069	1.43799
2966.13213	1.41380
2964.20356	1.38943
2962.27500	1.36489
2960.34644	1.34091
2958.41787	1.31747
2956.48931	1.29387
2954.56074	1.27002
2952.63218	1.24635
2950.70361	1.22306
2948.77505	1.20053
2946.84648	1.17912
2944.91792	1.15826
2942.98936	1.13732
2941.06079	1.11681
2939.13223	1.09695
2937.20366	1.07733
2935.27510	1.05822
2933.34653	1.03966
2931.41797	1.02075
2929.48940	1.00148
2927.56084	0.98248
2925.63228	0.96415
2923.70371	0.94704
2921.77515	0.93070
2919.84658	0.91435
2917.91802	0.89795
2915.98945	0.88161
2914.06089	0.86522
2912.13232	0.84895
2910.20376	0.83336
2908.27520	0.81822
2906.34663	0.80329
2904.41807	0.78884
2902.48950	0.77494
2900.56094	0.76145
2898.63237	0.74812
2896.70381	0.73518
2894.77524	0.72307
2892.84668	0.71153
2890.91812	0.69993
2888.98955	0.68813
2887.06099	0.67646
2885.13242	0.66518
2883.20386	0.65445
2881.27529	0.64428
2879.34673	0.63441
2877.41816	0.62454
2875.48960	0.61459
2873.56104	0.60460
2871.63247	0.59451
2869.70391	0.58421
2867.77534	0.57374
2865.84678	0.56328
2863.91821	0.55277
2861.98965	0.54224
2860.06108	0.53199
2858.13252	0.52216
2856.20396	0.51279
2854.27539	0.50438
2852.34683	0.49691
2850.41826	0.48951
2848.48970	0.48171
2846.56113	0.47358
2844.63257	0.46546
2842.70400	0.45792
2840.77544	0.45102
2838.84687	0.44451
2836.91831	0.43843
2834.98975	0.43255
2833.06118	0.42656
2831.13262	0.42048
2829.20405	0.41446
2827.27549	0.40857
2825.34692	0.40283
2823.41836	0.39715
2821.48979	0.39131
2819.56123	0.38536
2817.63267	0.37957
2815.70410	0.37399
2813.77554	0.36856
2811.84697	0.36330
2809.91841	0.35794
2807.98984	0.35238
2806.06128	0.34710
2804.13271	0.34220
2802.20415	0.33739
2800.27559	0.33264
2798.34702	0.32802
2796.41846	0.32340
2794.48989	0.31885
2792.56133	0.31450
2790.63276	0.31019
2788.70420	0.30577
2786.77563	0.30132
2784.84707	0.29704
2782.91851	0.29296
2780.98994	0.28912
2779.06138	0.28549
2777.13281	0.28178
2775.20425	0.27804
2773.27568	0.27441
2771.34712	0.27084
2769.41855	0.26726
2767.48999	0.26370
2765.56143	0.26028
2763.63286	0.25703
2761.70430	0.25381
2759.77573	0.25053
2757.84717	0.24735
2755.91860	0.24428
2753.99004	0.24144
2752.06147	0.23874
2750.13291	0.23592
2748.20435	0.23308
2746.27578	0.23041
2744.34722	0.22798
2742.41865	0.22552
2740.49009	0.22275
2738.56152	0.21993
2736.63296	0.21747
2734.70439	0.21523
2732.77583	0.21302
2730.84727	0.21098
2728.91870	0.20905
2726.99014	0.20705
2725.06157	0.20490
2723.13301	0.20271
2721.20444	0.20063
2719.27588	0.19860
2717.34731	0.19665
2715.41875	0.19493
2713.49019	0.19331
2711.56162	0.19159
2709.63306	0.18980
2707.70449	0.18805
2705.77593	0.18654
2703.84736	0.18509
2701.91880	0.18346
2699.99023	0.18184
2698.06167	0.18024
2696.13311	0.17860
2694.20454	0.17725
2692.27598	0.17625
2690.34741	0.17527
2688.41885	0.17412
2686.49028	0.17274
2684.56172	0.17128
2682.63315	0.17003
2680.70459	0.16901
2678.77603	0.16807
2676.84746	0.16704
2674.91890	0.16597
2672.99033	0.16497
2671.06177	0.16406
2669.13320	0.16316
2667.20464	0.16223
2665.27607	0.16135
2663.34751	0.16046
2661.41895	0.15951
2659.49038	0.15863
2657.56182	0.15796
2655.63325	0.15739
2653.70469	0.15678
2651.77612	0.15604
2649.84756	0.15524
2647.91899	0.15455
2645.99043	0.15402
2644.06187	0.15358
2642.13330	0.15314
2640.20474	0.15263
2638.27617	0.15206
2636.34761	0.15149
2634.41904	0.15091
2632.49048	0.15039
2630.56191	0.15013
2628.63335	0.15002
2626.70479	0.14982
2624.77622	0.14961
2622.84766	0.14951
2620.91909	0.14939
2618.99053	0.14914
2617.06196	0.14877
2615.13340	0.14844
2613.20483	0.14832
2611.27627	0.14828
2609.34771	0.14829
2607.41914	0.14829
2605.49058	0.14827
2603.56201	0.14825
2601.63345	0.14824
2599.70488	0.14827
2597.77632	0.14836
2595.84775	0.14845
2593.91919	0.14850
2591.99062	0.14852
2590.06206	0.14856
2588.13350	0.14864
2586.20493	0.14883
2584.27637	0.14910
2582.34780	0.14936
2580.41924	0.14965
2578.49067	0.14996
2576.56211	0.15020
2574.63354	0.15056
2572.70498	0.15108
2570.77642	0.15152
2568.84785	0.15186
2566.91929	0.15219
2564.99072	0.15248
2563.06216	0.15288
2561.13359	0.15345
2559.20503	0.15397
2557.27646	0.15436
2555.34790	0.15479
2553.41934	0.15540
2551.49077	0.15605
2549.56221	0.15661
2547.63364	0.15710
2545.70508	0.15756
2543.77651	0.15804
2541.84795	0.15870
2539.91938	0.15949
2537.99082	0.16019
2536.06226	0.16080
2534.13369	0.16153
2532.20513	0.16244
2530.27656	0.16332
2528.34800	0.16397
2526.41943	0.16451
2524.49087	0.16517
2522.56230	0.16595
2520.63374	0.16679
2518.70518	0.16761
2516.77661	0.16838
2514.84805	0.16914
2512.91948	0.16988
2510.99092	0.17065
2509.06235	0.17147
2507.13379	0.17221
2505.20522	0.17296
2503.27666	0.17387
2501.34810	0.17477
2499.41953	0.17556
2497.49097	0.17635
2495.56240	0.17722
2493.63384	0.17816
2491.70527	0.17909
2489.77671	0.17998
2487.84814	0.18084
2485.91958	0.18173
2483.99102	0.18267
2482.06245	0.18358
2480.13389	0.18438
2478.20532	0.18515
2476.27676	0.18608
2474.34819	0.18707
2472.41963	0.18796
2470.49106	0.18885
2468.56250	0.18975
2466.63394	0.19058
2464.70537	0.19146
2462.77681	0.19249
2460.84824	0.19363
2458.91968	0.19477
2456.99111	0.19580
2455.06255	0.19677
2453.13398	0.19768
2451.20542	0.19854
2449.27686	0.19941
2447.34829	0.20040
2445.41973	0.20152
2443.49116	0.20268
2441.56260	0.20373
2439.63403	0.20466
2437.70547	0.20559
2435.77690	0.20653
2433.84834	0.20752
2431.91978	0.20862
2429.99121	0.20975
2428.06265	0.21072
2426.13408	0.21165
2424.20552	0.21273
2422.27695	0.21395
2420.34839	0.21514
2418.41982	0.21625
2416.49126	0.21733
2414.56270	0.21845
2412.63413	0.21968
2410.70557	0.22093
2408.77700	0.22205
2406.84844	0.22311
2404.91987	0.22429
2402.99131	0.22558
2401.06274	0.22682
2399.13418	0.22800
2397.20562	0.22921
2395.27705	0.23052
2393.34849	0.23185
2391.41992	0.23312
2389.49136	0.23440
2387.56279	0.23571
2385.63423	0.23689
2383.70566	0.23791
2381.77710	0.23897
2379.84854	0.24026
2377.91997	0.24168
2375.99141	0.24308
2374.06284	0.24454
2372.13428	0.24594
2370.20571	0.24696
2368.27715	0.24795
2366.34858	0.24961
2364.42002	0.25153
2362.49146	0.25327
2360.56289	0.25469
2358.63433	0.25599
2356.70576	0.25787
2354.77720	0.25986
2352.84863	0.26163
2350.92007	0.26314
2348.99150	0.26425
2347.06294	0.26522
2345.13437	0.26659
2343.20581	0.26854
2341.27725	0.27059
2339.34868	0.27262
2337.42012	0.27488
2335.49155	0.27708
2333.56299	0.27856
2331.63442	0.27959
2329.70586	0.28092
2327.77729	0.28238
2325.84873	0.28357
2323.92017	0.28507
2321.99160	0.28713
2320.06304	0.28906
2318.13447	0.29061
2316.20591	0.29208
2314.27734	0.29388
2312.34878	0.29592
2310.42021	0.29786
2308.49165	0.29958
2306.56309	0.30116
2304.63452	0.30285
2302.70596	0.30474
2300.77739	0.30668
2298.84883	0.30861
2296.92026	0.31056
2294.99170	0.31251
2293.06313	0.31445
2291.13457	0.31640
2289.20601	0.31826
2287.27744	0.32006
2285.34888	0.32195
2283.42031	0.32399
2281.49175	0.32607
2279.56318	0.32811
2277.63462	0.33013
2275.70605	0.33222
2273.77749	0.33432
2271.84893	0.33631
2269.92036	0.33829
2267.99180	0.34036
2266.06323	0.34237
2264.13467	0.34426
2262.20610	0.34631
2260.27754	0.34863
2258.34897	0.35097
2256.42041	0.35312
2254.49185	0.35517
2252.56328	0.35731
2250.63472	0.35957
2248.70615	0.36191
2246.77759	0.36425
2244.84902	0.36643
2242.92046	0.36846
2240.99189	0.37057
2239.06333	0.37280
2237.13477	0.37510
2235.20620	0.37740
2233.27764	0.37955
2231.34907	0.38165
2229.42051	0.38396
2227.49194	0.38636
2225.56338	0.38865
2223.63481	0.39082
2221.70625	0.39296
2219.77769	0.39518
2217.84912	0.39748
2215.92056	0.39974
2213.99199	0.40188
2212.06343	0.40400
2210.13486	0.40604
2208.20630	0.40803
2206.27773	0.41016
2204.34917	0.41242
2202.42061	0.41459
2200.49204	0.41666
2198.56348	0.41863
2196.63491	0.42047
2194.70635	0.42233
2192.77778	0.42429
2190.84922	0.42625
2188.92065	0.42805
2186.99209	0.42975
2185.06353	0.43149
2183.13496	0.43327
2181.20640	0.43498
2179.27783	0.43658
2177.34927	0.43816
2175.42070	0.43966
2173.49214	0.44105
2171.56357	0.44243
2169.63501	0.44400
2167.70645	0.44558
2165.77788	0.44687
2163.84932	0.44800
2161.92075	0.44916
2159.99219	0.45022
2158.06362	0.45120
2156.13506	0.45221
2154.20649	0.45316
2152.27793	0.45398
2150.34937	0.45475
2148.42080	0.45551
2146.49224	0.45616
2144.56367	0.45665
2142.63511	0.45712
2140.70654	0.45752
2138.77798	0.45778
2136.84941	0.45788
2134.92085	0.45788
2132.99229	0.45780
2131.06372	0.45761
2129.13516	0.45735
2127.20659	0.45714
2125.27803	0.45696
2123.34946	0.45664
2121.42090	0.45615
2119.49233	0.45558
2117.56377	0.45495
2115.63521	0.45422
2113.70664	0.45336
2111.77808	0.45243
2109.84951	0.45146
2107.92095	0.45047
2105.99238	0.44949
2104.06382	0.44847
2102.13525	0.44722
2100.20669	0.44579
2098.27812	0.44439
2096.34956	0.44298
2094.42100	0.44141
2092.49243	0.43970
2090.56387	0.43796
2088.63530	0.43618
2086.70674	0.43441
2084.77817	0.43265
2082.84961	0.43077
2080.92104	0.42882
2078.99248	0.42690
2077.06392	0.42487
2075.13535	0.42268
2073.20679	0.42043
2071.27822	0.41815
2069.34966	0.41590
2067.42109	0.41367
2065.49253	0.41136
2063.56396	0.40891
2061.63540	0.40642
2059.70684	0.40393
2057.77827	0.40142
2055.84971	0.39889
2053.92114	0.39639
2051.99258	0.39382
2050.06401	0.39114
2048.13545	0.38852
2046.20688	0.38597
2044.27832	0.38344
2042.34976	0.38080
2040.42119	0.37802
2038.49263	0.37526
2036.56406	0.37257
2034.63550	0.36981
2032.70693	0.36697
2030.77837	0.36420
2028.84980	0.36148
2026.92124	0.35869
2024.99268	0.35581
2023.06411	0.35297
2021.13555	0.35022
2019.20698	0.34756
2017.27842	0.34492
2015.34985	0.34218
2013.42129	0.33940
2011.49272	0.33665
2009.56416	0.33393
2007.63560	0.33115
2005.70703	0.32834
2003.77847	0.32566
2001.84990	0.32311
1999.92134	0.32054
1997.99277	0.31789
1996.06421	0.31526
1994.13564	0.31285
1992.20708	0.31057
1990.27852	0.30811
1988.34995	0.30556
1986.42139	0.30300
1984.49282	0.30048
1982.56426	0.29812
1980.63569	0.29587
1978.70713	0.29361
1976.77856	0.29134
1974.85000	0.28914
1972.92144	0.28694
1970.99287	0.28477
1969.06431	0.28277
1967.13574	0.28089
1965.20718	0.27885
1963.27861	0.27671
1961.35005	0.27468
1959.42148	0.27273
1957.49292	0.27085
1955.56436	0.26911
1953.63579	0.26745
1951.70723	0.26575
1949.77866	0.26410
1947.85010	0.26259
1945.92153	0.26123
1943.99297	0.26000
1942.06440	0.25867
1940.13584	0.25700
1938.20728	0.25525
1936.27871	0.25369
1934.35015	0.25232
1932.42158	0.25108
1930.49302	0.24988
1928.56445	0.24869
1926.63589	0.24766
1924.70732	0.24685
1922.77876	0.24607
1920.85020	0.24511
1918.92163	0.24417
1916.99307	0.24324
1915.06450	0.24219
1913.13594	0.24129
1911.20737	0.24071
1909.27881	0.24025
1907.35024	0.23966
1905.42168	0.23886
1903.49312	0.23803
1901.56455	0.23735
1899.63599	0.23678
1897.70742	0.23643
1895.77886	0.23626
1893.85029	0.23595
1891.92173	0.23545
1889.99316	0.23520
1888.06460	0.23504
1886.13604	0.23472
1884.20747	0.23440
1882.27891	0.23412
1880.35034	0.23391
1878.42178	0.23377
1876.49321	0.23371
1874.56465	0.23372
1872.63608	0.23393
1870.70752	0.23445
1868.77896	0.23526
1866.85039	0.23560
1864.92183	0.23531
1862.99326	0.23512
1861.06470	0.23527
1859.13613	0.23565
1857.20757	0.23602
1855.27900	0.23641
1853.35044	0.23682
1851.42187	0.23739
1849.49331	0.23814
1847.56475	0.23901
1845.63618	0.24009
1843.70762	0.24123
1841.77905	0.24182
1839.85049	0.24198
1837.92192	0.24253
1835.99336	0.24338
1834.06479	0.24441
1832.13623	0.24568
1830.20767	0.24738
1828.27910	0.24891
1826.35054	0.24992
1824.42197	0.25112
1822.49341	0.25224
1820.56484	0.25327
1818.63628	0.25455
1816.70771	0.25620
1814.77915	0.25792
1812.85059	0.25975
1810.92202	0.26183
1808.99346	0.26387
1807.06489	0.26575
1805.13633	0.26761
1803.20776	0.26984
1801.27920	0.27247
1799.35063	0.27531
1797.42207	0.27781
1795.49351	0.28030
1793.56494	0.28338
1791.63638	0.28726
1789.70781	0.29066
1787.77925	0.29302
1785.85068	0.29594
1783.92212	0.29954
1781.99355	0.30350
1780.06499	0.30778
1778.13643	0.31214
1776.20786	0.31628
1774.27930	0.32086
1772.35073	0.32699
1770.42217	0.33323
1768.49360	0.33818
1766.56504	0.34304
1764.63647	0.34822
1762.70791	0.35413
1760.77935	0.36166
1758.85078	0.36866
1756.92222	0.37568
1754.99365	0.38336
1753.06509	0.39036
1751.13652	0.39886
1749.20796	0.40966
1747.27939	0.42016
1745.35083	0.42930
1743.42227	0.43908
1741.49370	0.44993
1739.56514	0.46257
1737.63657	0.47503
1735.70801	0.48602
1733.77944	0.50274
1731.85088	0.52246
1729.92231	0.53772
1727.99375	0.55297
1726.06519	0.56936
1724.13662	0.58757
1722.20806	0.60757
1720.27949	0.62627
1718.35093	0.64817
1716.42236	0.68023
1714.49380	0.71073
1712.56523	0.73541
1710.63667	0.75920
1708.70811	0.78486
1706.77954	0.81426
1704.85098	0.84952
1702.92241	0.88105
1700.99385	0.91230
1699.06528	0.95841
1697.13672	1.00030
1695.20815	1.04319
1693.27959	1.08514
1691.35103	1.11913
1689.42246	1.15867
1687.49390	1.20055
1685.56533	1.24086
1683.63677	1.30273
1681.70820	1.36691
1679.77964	1.40801
1677.85107	1.44744
1675.92251	1.49331
1673.99395	1.54950
1672.06538	1.59838
1670.13682	1.64651
1668.20825	1.71069
1666.27969	1.76297
1664.35112	1.80628
1662.42256	1.86037
1660.49399	1.92158
1658.56543	1.96838
1656.63687	2.00544
1654.70830	2.04083
1652.77974	2.10018
1650.85117	2.15653
1648.92261	2.17601
1646.99404	2.20067
1645.06548	2.22829
1643.13691	2.24680
1641.20835	2.25836
1639.27979	2.26865
1637.35122	2.27522
1635.42266	2.27621
1633.49409	2.26932
1631.56553	2.25674
1629.63696	2.24144
1627.70840	2.21485
1625.77983	2.18314
1623.85127	2.14336
1621.92271	2.09366
1619.99414	2.04844
1618.06558	2.00463
1616.13701	1.94379
1614.20845	1.88204
1612.27988	1.83411
1610.35132	1.78360
1608.42275	1.72921
1606.49419	1.67576
1604.56562	1.62626
1602.63706	1.57848
1600.70850	1.53230
1598.77993	1.48999
1596.85137	1.44975
1594.92280	1.41020
1592.99424	1.37196
1591.06567	1.33698
1589.13711	1.30408
1587.20854	1.27308
1585.27998	1.24401
1583.35142	1.21672
1581.42285	1.19179
1579.49429	1.17044
1577.56572	1.15133
1575.63716	1.12803
1573.70859	1.10706
1571.78003	1.09326
1569.85146	1.07929
1567.92290	1.06393
1565.99434	1.05198
1564.06577	1.04219
1562.13721	1.03430
1560.20864	1.02908
1558.28008	1.02332
1556.35151	1.01761
1554.42295	1.01344
1552.49438	1.00950
1550.56582	1.00479
1548.63726	0.99834
1546.70869	0.99075
1544.78013	0.98193
1542.85156	0.97175
1540.92300	0.95819
1538.99443	0.93555
1537.06587	0.91767
1535.13730	0.90599
1533.20874	0.89164
1531.28018	0.87604
1529.35161	0.86404
1527.42305	0.85269
1525.49448	0.84127
1523.56592	0.83189
1521.63735	0.82313
1519.70879	0.81349
1517.78022	0.80484
1515.85166	0.79530
1513.92310	0.78541
1511.99453	0.77698
1510.06597	0.76972
1508.13740	0.76308
1506.20884	0.75268
1504.28027	0.74252
1502.35171	0.73651
1500.42314	0.73187
1498.49458	0.72754
1496.56602	0.72208
1494.63745	0.71580
1492.70889	0.71090
1490.78032	0.70734
1488.85176	0.70355
1486.92319	0.69923
1484.99463	0.69535
1483.06606	0.69245
1481.13750	0.69033
1479.20894	0.68868
1477.28037	0.68761
1475.35181	0.68719
1473.42324	0.68711
1471.49468	0.68584
1469.56611	0.68319
1467.63755	0.68074
1465.70898	0.67886
1463.78042	0.67713
1461.85186	0.67567
1459.92329	0.67502
1457.99473	0.67486
1456.06616	0.67315
1454.13760	0.66978
1452.20903	0.66656
1450.28047	0.66351
1448.35190	0.66079
1446.42334	0.65808
1444.49478	0.65534
1442.56621	0.65282
1440.63765	0.65037
1438.70908	0.64811
1436.78052	0.64568
1434.85195	0.64277
1432.92339	0.64026
1430.99482	0.63850
1429.06626	0.63709
1427.13770	0.63602
1425.20913	0.63563
1423.28057	0.63578
1421.35200	0.63582
1419.42344	0.63564
1417.49487	0.63477
1415.56631	0.63305
1413.63774	0.63156
1411.70918	0.63058
1409.78062	0.63009
1407.85205	0.63008
1405.92349	0.63037
1403.99492	0.63044
1402.06636	0.62988
1400.13779	0.62905
1398.20923	0.62796
1396.28066	0.62606
1394.35210	0.62307
1392.42354	0.61964
1390.49497	0.61663
1388.56641	0.61381
1386.63784	0.61050
1384.70928	0.60688
1382.78071	0.60357
1380.85215	0.60062
1378.92358	0.59807
1376.99502	0.59611
1375.06646	0.59481
1373.13789	0.59376
1371.20933	0.59278
1369.28076	0.59204
1367.35220	0.59129
1365.42363	0.59030
1363.49507	0.58919
1361.56650	0.58782
1359.63794	0.58625
1357.70937	0.58490
1355.78081	0.58377
1353.85225	0.58268
1351.92368	0.58163
1349.99512	0.58066
1348.06655	0.57975
1346.13799	0.57882
1344.20942	0.57790
1342.28086	0.57710
1340.35229	0.57647
1338.42373	0.57576
1336.49517	0.57483
1334.56660	0.57401
1332.63804	0.57347
1330.70947	0.57316
1328.78091	0.57305
1326.85234	0.57305
1324.92378	0.57306
1322.99521	0.57309
1321.06665	0.57318
1319.13809	0.57330
1317.20952	0.57325
1315.28096	0.57301
1313.35239	0.57263
1311.42383	0.57195
1309.49526	0.57104
1307.56670	0.57031
1305.63813	0.56969
1303.70957	0.56881
1301.78101	0.56780
1299.85244	0.56685
1297.92388	0.56590
1295.99531	0.56480
1294.06675	0.56364
1292.13818	0.56267
1290.20962	0.56176
1288.28105	0.56081
1286.35249	0.55993
1284.42393	0.55912
1282.49536	0.55824
1280.56680	0.55729
1278.63823	0.55617
1276.70967	0.55502
1274.78110	0.55411
1272.85254	0.55336
1270.92397	0.55268
1268.99541	0.55217
1267.06685	0.55165
1265.13828	0.55092
1263.20972	0.55015
1261.28115	0.54947
1259.35259	0.54881
1257.42402	0.54825
1255.49546	0.54798
1253.56689	0.54782
1251.63833	0.54763
1249.70977	0.54743
1247.78120	0.54713
1245.85264	0.54671
1243.92407	0.54627
1241.99551	0.54571
1240.06694	0.54487
1238.13838	0.54378
1236.20981	0.54237
1234.28125	0.54059
1232.35269	0.53873
1230.42412	0.53710
1228.49556	0.53574
1226.56699	0.53447
1224.63843	0.53306
1222.70986	0.53166
1220.78130	0.53054
1218.85273	0.52955
1216.92417	0.52853
1214.99561	0.52756
1213.06704	0.52670
1211.13848	0.52597
1209.20991	0.52543
1207.28135	0.52496
1205.35278	0.52430
1203.42422	0.52347
1201.49565	0.52266
1199.56709	0.52183
1197.63853	0.52099
1195.70996	0.52032
1193.78140	0.51974
1191.85283	0.51931
1189.92427	0.51911
1187.99570	0.51893
1186.06714	0.51859
1184.13857	0.51830
1182.21001	0.51835
1180.28145	0.51895
1178.35288	0.52008
1176.42432	0.52147
1174.49575	0.52270
1172.56719	0.52352
1170.63862	0.52391
1168.71006	0.52401
1166.78149	0.52416
1164.85293	0.52455
1162.92437	0.52493
1160.99580	0.52503
1159.06724	0.52484
1157.13867	0.52447
1155.21011	0.52382
1153.28154	0.52262
1151.35298	0.52083
1149.42441	0.51871
1147.49585	0.51641
1145.56729	0.51382
1143.63872	0.51112
1141.71016	0.50861
1139.78159	0.50641
1137.85303	0.50462
1135.92446	0.50337
1133.99590	0.50247
1132.06733	0.50163
1130.13877	0.50076
1128.21021	0.49995
1126.28164	0.49930
1124.35308	0.49876
1122.42451	0.49833
1120.49595	0.49798
1118.56738	0.49762
1116.63882	0.49729
1114.71025	0.49727
1112.78169	0.49765
1110.85312	0.49809
1108.92456	0.49853
1106.99600	0.49931
1105.06743	0.50046
1103.13887	0.50169
1101.21030	0.50286
1099.28174	0.50426
1097.35317	0.50628
1095.42461	0.50896
1093.49604	0.51239
1091.56748	0.51681
1089.63892	0.52240
1087.71035	0.52913
1085.78179	0.53662
1083.85322	0.54435
1081.92466	0.55158
1079.99609	0.55709
1078.06753	0.56011
1076.13896	0.56029
1074.21040	0.55727
1072.28184	0.55188
1070.35327	0.54533
1068.42471	0.53820
1066.49614	0.53127
1064.56758	0.52506
1062.63901	0.51960
1060.71045	0.51495
1058.78188	0.51101
1056.85332	0.50738
1054.92476	0.50391
1052.99619	0.50100
1051.06763	0.49883
1049.13906	0.49724
1047.21050	0.49619
1045.28193	0.49568
1043.35337	0.49553
1041.42480	0.49545
1039.49624	0.49510
1037.56768	0.49471
1035.63911	0.49461
1033.71055	0.49439
1031.78198	0.49369
1029.85342	0.49274
1027.92485	0.49178
1025.99629	0.49084
1024.06772	0.49015
1022.13916	0.48988
1020.21060	0.48997
1018.28203	0.49027
1016.35347	0.49064
1014.42490	0.49114
1012.49634	0.49164
1010.56777	0.49181
1008.63921	0.49192
1006.71064	0.49263
1004.78208	0.49407
1002.85352	0.49607
1000.92495	0.49860
998.99639	0.50175
997.06782	0.50567
995.13926	0.51004
993.21069	0.51411
991.28213	0.51739
989.35356	0.51971
987.42500	0.52116
985.49644	0.52195
983.56787	0.52231
981.63931	0.52266
979.71074	0.52360
977.78218	0.52533
975.85361	0.52758
973.92505	0.53008
971.99648	0.53295
970.06792	0.53636
968.13936	0.54016
966.21079	0.54422
964.28223	0.54866
962.35366	0.55358
960.42510	0.55870
958.49653	0.56387
956.56797	0.56939
954.63940	0.57543
952.71084	0.58178
950.78228	0.58819
948.85371	0.59466
946.92515	0.60098
944.99658	0.60680
943.06802	0.61239
941.13945	0.61853
939.21089	0.62533
937.28232	0.63192
935.35376	0.63766
933.42520	0.64316
931.49663	0.64899
929.56807	0.65478
927.63950	0.66033
925.71094	0.66608
923.78237	0.67256
921.85381	0.67967
919.92524	0.68687
917.99668	0.69390
916.06812	0.70059
914.13955	0.70731
912.21099	0.71499
910.28242	0.72371
908.35386	0.73233
906.42529	0.74015
904.49673	0.74828
902.56816	0.75799
900.63960	0.76840
898.71104	0.77803
896.78247	0.78733
894.85391	0.79684
892.92534	0.80632
890.99678	0.81588
889.06821	0.82657
887.13965	0.83871
885.21108	0.85062
883.28252	0.86198
881.35396	0.87364
879.42539	0.88497
877.49683	0.89595
875.56826	0.90714
873.63970	0.91725
871.71113	0.92668
869.78257	0.93883
867.85400	0.95340
865.92544	0.96652
863.99687	0.97804
862.06831	0.99033
860.13975	1.00240
858.21118	1.01270
856.28262	1.02229
854.35405	1.03254
852.42549	1.04366
850.49692	1.05524
848.56836	1.06757
846.63979	1.08008
844.71123	1.09134
842.78267	1.10228
840.85410	1.11598
838.92554	1.13181
836.99697	1.14358
835.06841	1.15109
833.13984	1.16186
831.21128	1.17653
829.28271	1.18978
827.35415	1.20159
825.42559	1.21389
823.49702	1.22543
821.56846	1.23401
819.63989	1.24298
817.71133	1.25696
815.78276	1.27233
813.85420	1.28553
811.92563	1.29658
809.99707	1.30551
808.06851	1.31439
806.13994	1.32367
804.21138	1.33152
802.28281	1.34141
800.35425	1.36876
798.42568	1.43094
796.49712	1.49804
794.56855	1.50620
792.63999	1.49541
790.71143	1.49964
788.78286	1.46863
786.85430	1.43723
784.92573	1.46568
782.99717	1.51551
781.06860	1.52864
779.14004	1.51973
777.21147	1.57595
775.28291	1.78412
773.35435	2.08359
771.42578	2.10022
769.49722	1.91038
767.56865	1.72830
765.64009	1.60302
763.71152	1.57753
761.78296	1.58869
759.85439	1.48398
757.92583	1.37986
755.99727	1.40861
754.06870	1.51582
752.14014	1.46164
750.21157	1.36437
748.28301	1.30583
746.35444	1.25107
744.42588	1.21528
742.49731	1.14144
740.56875	1.04097
738.64019	0.97318
736.71162	0.92718
734.78306	0.83077
732.85449	0.68163
730.92593	0.58846
728.99736	0.56703
727.06880	0.58179
725.14023	0.62831
723.21167	0.72500
721.28311	0.86658
719.35454	0.64592
717.42598	0.38605
715.49741	0.30348
713.56885	0.34785
711.64028	0.48489
709.71172	0.59627
707.78315	0.43796
705.85459	0.36397
703.92603	0.48211
701.99746	4.21198
700.06890	4.20041
698.14033	0.44815
696.21177	0.27926
694.28320	0.27990
692.35464	0.29462
690.42607	0.27260
688.49751	0.25750
686.56895	0.27694
684.64038	0.36933
682.71182	0.31481
680.78325	0.15388
678.85469	0.16595
676.92612	0.36628
674.99756	0.85203
673.06899	1.06369
671.14043	0.68432
669.21187	0.59064
667.28330	0.66794
665.35474	1.04726
663.42617	3.98056
661.49761	3.96899
659.56904	3.95741
657.64048	0.78156
655.71191	0.70563
653.78335	0.80301
651.85479	0.54832
649.92622	0.34549
647.99766	0.27344
646.06909	0.29028
644.14053	0.29505
642.21196	0.19723
640.28340	0.16660
638.35483	0.23148
636.42627	0.34309
634.49771	0.39796
632.56914	0.35020
630.64058	0.43401
628.71201	0.59822
626.78345	0.42434
624.85488	0.34617
622.92632	0.38698
620.99775	0.34770
619.06919	0.23045
617.14062	0.16970
615.21206	0.18698
613.28350	0.24699
611.35493	0.35391
609.42637	0.40328
607.49780	0.34142
605.56924	0.28286
603.64067	0.27404
601.71211	0.31244
599.78354	0.37565
597.85498	0.40828
595.92642	0.40607
593.99785	0.57419
592.06929	3.55242
590.14072	3.54084
588.21216	0.58675
586.28359	0.26844
584.35503	0.18733
582.42646	0.16650
580.49790	0.17637
578.56934	0.21213
576.64077	0.24102
574.71221	0.28907
572.78364	0.34093
570.85508	0.32051
568.92651	0.26512
566.99795	0.18927
565.06938	0.14402
563.14082	0.26424
561.21226	0.55629
559.28369	0.39767
557.35513	0.18643
555.42656	0.17781
553.49800	0.28591
551.56943	0.36722
549.64087	0.36807
547.71230	0.32976
545.78374	0.26965
543.85518	0.22423
541.92661	0.20450
539.99805	0.21528
538.06948	0.26849
536.14092	0.32485
534.21235	0.32065
532.28379	0.30739
530.35522	0.27096
528.42666	0.24270
526.49810	0.29909
524.56953	0.37788
522.64097	0.38680
520.71240	0.32398
518.78384	0.25181
516.85527	0.19807
514.92671	0.14990
512.99814	0.12667
511.06958	0.15504
509.14102	0.24118
507.21245	0.31595
505.28389	0.31821
503.35532	0.30617
501.42676	0.24493
499.49819	0.17139
