3997.91411	0.05455
3995.98555	0.05449
3994.05698	0.05487
3992.12842	0.05530
3990.19985	0.05550
3988.27129	0.05556
3986.34272	0.05554
3984.41416	0.05563
3982.48560	0.05595
3980.55703	0.05640
3978.62847	0.05664
3976.69990	0.05681
3974.77134	0.05742
3972.84277	0.05810
3970.91421	0.05837
3968.98564	0.05870
3967.05708	0.05913
3965.12852	0.05925
3963.19995	0.05939
3961.27139	0.05990
3959.34282	0.06019
3957.41426	0.05999
3955.48569	0.05974
3953.55713	0.05977
3951.62856	0.06013
3949.70000	0.06062
3947.77144	0.06070
3945.84287	0.06009
3943.91431	0.05959
3941.98574	0.06007
3940.05718	0.06062
3938.12861	0.06029
3936.20005	0.05975
3934.27148	0.05983
3932.34292	0.06048
3930.41436	0.06102
3928.48579	0.06077
3926.55723	0.06031
3924.62866	0.06052
3922.70010	0.06092
3920.77153	0.06090
3918.84297	0.06068
3916.91440	0.06047
3914.98584	0.06024
3913.05728	0.05979
3911.12871	0.05933
3909.20015	0.05903
3907.27158	0.05917
3905.34302	0.06020
3903.41445	0.06178
3901.48589	0.06253
3899.55732	0.06201
3897.62876	0.06082
3895.70020	0.05974
3893.77163	0.05969
3891.84307	0.06060
3889.91450	0.06110
3887.98594	0.06075
3886.05737	0.06101
3884.12881	0.06219
3882.20024	0.06289
3880.27168	0.06255
3878.34312	0.06174
3876.41455	0.06157
3874.48599	0.06237
3872.55742	0.06329
3870.62886	0.06391
3868.70029	0.06425
3866.77173	0.06413
3864.84316	0.06450
3862.91460	0.06503
3860.98604	0.06465
3859.05747	0.06412
3857.12891	0.06409
3855.20034	0.06471
3853.27178	0.06639
3851.34321	0.06799
3849.41465	0.06742
3847.48608	0.06658
3845.55752	0.06687
3843.62896	0.06817
3841.70039	0.06995
3839.77183	0.07172
3837.84326	0.07294
3835.91470	0.07331
3833.98613	0.07314
3832.05757	0.07264
3830.12900	0.07252
3828.20044	0.07319
3826.27187	0.07430
3824.34331	0.07536
3822.41475	0.07658
3820.48618	0.07867
3818.55762	0.08020
3816.62905	0.08070
3814.70049	0.08105
3812.77192	0.08095
3810.84336	0.08101
3808.91479	0.08191
3806.98623	0.08369
3805.05767	0.08532
3803.12910	0.08641
3801.20054	0.08821
3799.27197	0.08987
3797.34341	0.09041
3795.41484	0.09090
3793.48628	0.09117
3791.55771	0.09154
3789.62915	0.09257
3787.70059	0.09393
3785.77202	0.09542
3783.84346	0.09725
3781.91489	0.09924
3779.98633	0.10108
3778.05776	0.10282
3776.12920	0.10407
3774.20063	0.10499
3772.27207	0.10637
3770.34351	0.10876
3768.41494	0.11165
3766.48638	0.11384
3764.55781	0.11560
3762.62925	0.11726
3760.70068	0.11915
3758.77212	0.12207
3756.84355	0.12522
3754.91499	0.12743
3752.98643	0.12979
3751.05786	0.13366
3749.12930	0.13789
3747.20073	0.14014
3745.27217	0.14215
3743.34360	0.14544
3741.41504	0.14839
3739.48647	0.15059
3737.55791	0.15341
3735.62935	0.15801
3733.70078	0.16410
3731.77222	0.16842
3729.84365	0.17098
3727.91509	0.17414
3725.98652	0.17949
3724.05796	0.18653
3722.12939	0.19340
3720.20083	0.20035
3718.27227	0.20809
3716.34370	0.21622
3714.41514	0.22424
3712.48657	0.23392
3710.55801	0.24743
3708.62944	0.26098
3706.70088	0.27165
3704.77231	0.28234
3702.84375	0.29539
3700.91519	0.31234
3698.98662	0.33068
3697.05806	0.34815
3695.12949	0.36683
3693.20093	0.38670
3691.27236	0.40847
3689.34380	0.43710
3687.41523	0.47227
3685.48667	0.50281
3683.55811	0.52895
3681.62954	0.55694
3679.70098	0.58877
3677.77241	0.62267
3675.84385	0.66275
3673.91528	0.71589
3671.98672	0.75896
3670.05815	0.79734
3668.12959	0.84999
3666.20103	0.89791
3664.27246	0.93817
3662.34390	0.98158
3660.41533	1.02835
3658.48677	1.07427
3656.55820	1.12307
3654.62964	1.17773
3652.70107	1.22406
3650.77251	1.26437
3648.84395	1.31971
3646.91538	1.38770
3644.98682	1.43784
3643.05825	1.47660
3641.12969	1.51640
3639.20112	1.55973
3637.27256	1.60299
3635.34399	1.64565
3633.41543	1.68867
3631.48687	1.72871
3629.55830	1.76949
3627.62974	1.82310
3625.70117	1.87269
3623.77261	1.90566
3621.84404	1.93795
3619.91548	1.97667
3617.98691	2.02386
3616.05835	2.06914
3614.12979	2.10715
3612.20122	2.14611
3610.27266	2.18401
3608.34409	2.22242
3606.41553	2.26473
3604.48696	2.30351
3602.55840	2.33750
3600.62983	2.37611
3598.70127	2.41918
3596.77271	2.45974
3594.84414	2.50025
3592.91558	2.54205
3590.98701	2.57985
3589.05845	2.61444
3587.12988	2.65709
3585.20132	2.70548
3583.27275	2.74680
3581.34419	2.78518
3579.41562	2.82655
3577.48706	2.86958
3575.55850	2.91173
3573.62993	2.95369
3571.70137	2.99430
3569.77280	3.03418
3567.84424	3.07815
3565.91567	3.13276
3563.98711	3.18623
3562.05854	3.22945
3560.12998	3.27019
3558.20142	3.31084
3556.27285	3.35215
3554.34429	3.39505
3552.41572	3.44170
3550.48716	3.49072
3548.55859	3.53820
3546.63003	3.58427
3544.70146	3.63069
3542.77290	3.67730
3540.84434	3.72375
3538.91577	3.76910
3536.98721	3.81414
3535.05864	3.86366
3533.13008	3.91633
3531.20151	3.96799
3529.27295	4.01599
3527.34438	4.06148
3525.41582	4.10804
3523.48726	4.15657
3521.55869	4.20461
3519.63013	4.25008
3517.70156	4.29843
3515.77300	4.35057
3513.84443	4.40020
3511.91587	4.44691
3509.98730	4.49628
3508.05874	4.54630
3506.13018	4.59089
3504.20161	4.63063
3502.27305	4.67238
3500.34448	4.72343
3498.41592	4.77760
3496.48735	4.82878
3494.55879	4.87818
3492.63022	4.92446
3490.70166	4.96881
3488.77310	5.01353
3486.84453	5.05871
3484.91597	5.10761
3482.98740	5.16339
3481.05884	5.22354
3479.13027	5.27816
3477.20171	5.31964
3475.27314	5.35515
3473.34458	5.39880
3471.41602	5.44878
3469.48745	5.49795
3467.55889	5.54882
3465.63032	5.59867
3463.70176	5.64654
3461.77319	5.69637
3459.84463	5.75120
3457.91606	5.80518
3455.98750	5.85776
3454.05894	5.91591
3452.13037	5.97059
3450.20181	6.00459
3448.27324	6.02262
3446.34468	6.05799
3444.41611	6.11752
3442.48755	6.18490
3440.55898	6.25351
3438.63042	6.31903
3436.70186	6.37371
3434.77329	6.41352
3432.84473	6.45466
3430.91616	6.50805
3428.98760	6.56052
3427.05903	6.59723
3425.13047	6.64033
3423.20190	6.69652
3421.27334	6.74509
3419.34478	6.78508
3417.41621	6.82543
3415.48765	6.86965
3413.55908	6.90811
3411.63052	6.94002
3409.70195	6.97941
3407.77339	7.03284
3405.84482	7.07145
3403.91626	7.09854
3401.98770	7.14095
3400.05913	7.19830
3398.13057	7.25691
3396.20200	7.28231
3394.27344	7.29051
3392.34487	7.32692
3390.41631	7.39937
3388.48774	7.47202
3386.55918	7.52552
3384.63062	7.58349
3382.70205	7.65012
3380.77349	7.68188
3378.84492	7.69012
3376.91636	7.72732
3374.98779	7.74249
3373.05923	7.69688
3371.13066	7.65258
3369.20210	7.67151
3367.27354	7.71855
3365.34497	7.76021
3363.41641	7.81086
3361.48784	7.82836
3359.55928	7.81226
3357.63071	7.82850
3355.70215	7.84453
3353.77358	7.79946
3351.84502	7.79570
3349.91646	7.87196
3347.98789	7.93300
3346.05933	7.91484
3344.13076	7.87146
3342.20220	7.87405
3340.27363	7.90690
3338.34507	7.93325
3336.41650	7.89601
3334.48794	7.87722
3332.55937	7.94826
3330.63081	8.00297
3328.70225	7.99721
3326.77368	7.99327
3324.84512	8.01000
3322.91655	8.00107
3320.98799	7.96438
3319.05942	7.94338
3317.13086	7.94759
3315.20229	7.94486
3313.27373	7.96504
3311.34517	8.03673
3309.41660	8.09041
3307.48804	8.09555
3305.55947	8.11051
3303.63091	8.15326
3301.70234	8.15189
3299.77378	8.11560
3297.84521	8.13008
3295.91665	8.18505
3293.98809	8.15766
3292.05952	8.03013
3290.13096	7.94337
3288.20239	7.95669
3286.27383	8.02313
3284.34526	8.10956
3282.41670	8.18300
3280.48813	8.19524
3278.55957	8.19454
3276.63101	8.20501
3274.70244	8.19868
3272.77388	8.13631
3270.84531	8.03639
3268.91675	8.04422
3266.98818	8.14851
3265.05962	8.15298
3263.13105	8.06135
3261.20249	8.02940
3259.27393	8.07742
3257.34536	8.16715
3255.41680	8.24142
3253.48823	8.25671
3251.55967	8.25486
3249.63110	8.23881
3247.70254	8.17158
3245.77397	8.09862
3243.84541	8.09404
3241.91685	8.12799
3239.98828	8.13257
3238.05972	8.11839
3236.13115	8.14672
3234.20259	8.20378
3232.27402	8.18474
3230.34546	8.05388
3228.41689	7.91713
3226.48833	7.90165
3224.55977	7.98290
3222.63120	8.03983
3220.70264	8.03314
3218.77407	7.98600
3216.84551	7.93808
3214.91694	7.92690
3212.98838	7.93424
3211.05981	7.92787
3209.13125	7.90406
3207.20269	7.87322
3205.27412	7.86684
3203.34556	7.86273
3201.41699	7.81043
3199.48843	7.74162
3197.55986	7.70410
3195.63130	7.69487
3193.70273	7.68063
3191.77417	7.63181
3189.84561	7.56379
3187.91704	7.53139
3185.98848	7.52269
3184.05991	7.47015
3182.13135	7.39989
3180.20278	7.35235
3178.27422	7.30974
3176.34565	7.27009
3174.41709	7.22852
3172.48853	7.17870
3170.55996	7.10932
3168.63140	7.01514
3166.70283	6.93192
3164.77427	6.86889
3162.84570	6.81110
3160.91714	6.76572
3158.98857	6.71831
3157.06001	6.64030
3155.13145	6.54973
3153.20288	6.48006
3151.27432	6.43169
3149.34575	6.37846
3147.41719	6.30873
3145.48862	6.23522
3143.56006	6.17214
3141.63149	6.11424
3139.70293	6.03675
3137.77437	5.94310
3135.84580	5.85902
3133.91724	5.79342
3131.98867	5.73490
3130.06011	5.66936
3128.13154	5.59418
3126.20298	5.51340
3124.27441	5.43509
3122.34585	5.36208
3120.41729	5.29049
3118.48872	5.21781
3116.56016	5.14610
3114.63159	5.07411
3112.70303	5.00081
3110.77446	4.93281
3108.84590	4.86938
3106.91733	4.80284
3104.98877	4.73259
3103.06021	4.66262
3101.13164	4.59109
3099.20308	4.52151
3097.27451	4.46101
3095.34595	4.40053
3093.41738	4.33229
3091.48882	4.26433
3089.56025	4.19952
3087.63169	4.13377
3085.70312	4.07062
3083.77456	4.01112
3081.84600	3.94945
3079.91743	3.88487
3077.98887	3.82057
3076.06030	3.75823
3074.13174	3.69775
3072.20317	3.63822
3070.27461	3.57997
3068.34604	3.52435
3066.41748	3.46965
3064.48892	3.41208
3062.56035	3.35211
3060.63179	3.29413
3058.70322	3.24025
3056.77466	3.18824
3054.84609	3.13533
3052.91753	3.08250
3050.98896	3.03168
3049.06040	2.98132
3047.13184	2.93055
3045.20327	2.88083
3043.27471	2.83181
3041.34614	2.78285
3039.41758	2.73498
3037.48901	2.68872
3035.56045	2.64316
3033.63188	2.59707
3031.70332	2.55011
3029.77476	2.50384
3027.84619	2.45977
3025.91763	2.41745
3023.98906	2.37606
3022.06050	2.33486
3020.13193	2.29322
3018.20337	2.25169
3016.27480	2.21115
3014.34624	2.17158
3012.41768	2.13249
3010.48911	2.09353
3008.56055	2.05551
3006.63198	2.01952
3004.70342	1.98498
3002.77485	1.95009
3000.84629	1.91460
2998.91772	1.87996
2996.98916	1.84678
2995.06060	1.81433
2993.13203	1.78203
2991.20347	1.74984
2989.27490	1.71830
2987.34634	1.68800
2985.41777	1.65834
2983.48921	1.62843
2981.56064	1.59854
2979.63208	1.56944
2977.70352	1.54141
2975.77495	1.51395
2973.84639	1.48650
2971.91782	1.45911
2969.98926	1.43206
2968.06069	1.40540
2966.13213	1.37945
2964.20356	1.35436
2962.27500	1.32971
2960.34644	1.30528
2958.41787	1.28100
2956.48931	1.25693
2954.56074	1.23338
2952.63218	1.21048
2950.70361	1.18801
2948.77505	1.16575
2946.84648	1.14360
2944.91792	1.12144
2942.98936	1.09947
2941.06079	1.07779
2939.13223	1.05644
2937.20366	1.03552
2935.27510	1.01483
2933.34653	0.99410
2931.41797	0.97322
2929.48940	0.95262
2927.56084	0.93303
2925.63228	0.91445
2923.70371	0.89673
2921.77515	0.88044
2919.84658	0.86571
2917.91802	0.85185
2915.98945	0.83820
2914.06089	0.82418
2912.13232	0.80958
2910.20376	0.79517
2908.27520	0.78154
2906.34663	0.76827
2904.41807	0.75473
2902.48950	0.74118
2900.56094	0.72802
2898.63237	0.71536
2896.70381	0.70339
2894.77524	0.69201
2892.84668	0.68060
2890.91812	0.66900
2888.98955	0.65754
2887.06099	0.64642
2885.13242	0.63559
2883.20386	0.62500
2881.27529	0.61459
2879.34673	0.60421
2877.41816	0.59398
2875.48960	0.58419
2873.56104	0.57453
2871.63247	0.56440
2869.70391	0.55397
2867.77534	0.54351
2865.84678	0.53293
2863.91821	0.52217
2861.98965	0.51119
2860.06108	0.50028
2858.13252	0.48987
2856.20396	0.48018
2854.27539	0.47147
2852.34683	0.46407
2850.41826	0.45750
2848.48970	0.45083
2846.56113	0.44412
2844.63257	0.43785
2842.70400	0.43195
2840.77544	0.42624
2838.84687	0.42058
2836.91831	0.41506
2834.98975	0.40978
2833.06118	0.40435
2831.13262	0.39860
2829.20405	0.39288
2827.27549	0.38727
2825.34692	0.38155
2823.41836	0.37578
2821.48979	0.37016
2819.56123	0.36468
2817.63267	0.35922
2815.70410	0.35387
2813.77554	0.34868
2811.84697	0.34352
2809.91841	0.33833
2807.98984	0.33320
2806.06128	0.32818
2804.13271	0.32338
2802.20415	0.31870
2800.27559	0.31392
2798.34702	0.30928
2796.41846	0.30485
2794.48989	0.30041
2792.56133	0.29607
2790.63276	0.29197
2788.70420	0.28785
2786.77563	0.28362
2784.84707	0.27955
2782.91851	0.27573
2780.98994	0.27193
2779.06138	0.26822
2777.13281	0.26454
2775.20425	0.26075
2773.27568	0.25714
2771.34712	0.25385
2769.41855	0.25064
2767.48999	0.24740
2765.56143	0.24418
2763.63286	0.24097
2761.70430	0.23773
2759.77573	0.23462
2757.84717	0.23173
2755.91860	0.22891
2753.99004	0.22603
2752.06147	0.22310
2750.13291	0.22025
2748.20435	0.21751
2746.27578	0.21484
2744.34722	0.21216
2742.41865	0.20958
2740.49009	0.20733
2738.56152	0.20515
2736.63296	0.20268
2734.70439	0.20023
2732.77583	0.19819
2730.84727	0.19622
2728.91870	0.19397
2726.99014	0.19175
2725.06157	0.18975
2723.13301	0.18783
2721.20444	0.18581
2719.27588	0.18383
2717.34731	0.18209
2715.41875	0.18036
2713.49019	0.17854
2711.56162	0.17689
2709.63306	0.17536
2707.70449	0.17378
2705.77593	0.17220
2703.84736	0.17070
2701.91880	0.16923
2699.99023	0.16772
2698.06167	0.16621
2696.13311	0.16482
2694.20454	0.16359
2692.27598	0.16243
2690.34741	0.16134
2688.41885	0.16030
2686.49028	0.15921
2684.56172	0.15801
2682.63315	0.15679
2680.70459	0.15570
2678.77603	0.15473
2676.84746	0.15374
2674.91890	0.15274
2672.99033	0.15172
2671.06177	0.15080
2669.13320	0.15001
2667.20464	0.14921
2665.27607	0.14839
2663.34751	0.14755
2661.41895	0.14674
2659.49038	0.14601
2657.56182	0.14532
2655.63325	0.14470
2653.70469	0.14410
2651.77612	0.14341
2649.84756	0.14275
2647.91899	0.14225
2645.99043	0.14181
2644.06187	0.14137
2642.13330	0.14101
2640.20474	0.14071
2638.27617	0.14038
2636.34761	0.13998
2634.41904	0.13948
2632.49048	0.13892
2630.56191	0.13849
2628.63335	0.13837
2626.70479	0.13842
2624.77622	0.13843
2622.84766	0.13824
2620.91909	0.13789
2618.99053	0.13755
2617.06196	0.13730
2615.13340	0.13717
2613.20483	0.13712
2611.27627	0.13716
2609.34771	0.13726
2607.41914	0.13732
2605.49058	0.13733
2603.56201	0.13738
2601.63345	0.13750
2599.70488	0.13764
2597.77632	0.13772
2595.84775	0.13781
2593.91919	0.13801
2591.99062	0.13825
2590.06206	0.13837
2588.13350	0.13838
2586.20493	0.13853
2584.27637	0.13889
2582.34780	0.13926
2580.41924	0.13955
2578.49067	0.13980
2576.56211	0.14010
2574.63354	0.14044
2572.70498	0.14084
2570.77642	0.14138
2568.84785	0.14194
2566.91929	0.14240
2564.99072	0.14285
2563.06216	0.14337
2561.13359	0.14387
2559.20503	0.14430
2557.27646	0.14481
2555.34790	0.14538
2553.41934	0.14609
2551.49077	0.14696
2549.56221	0.14764
2547.63364	0.14803
2545.70508	0.14848
2543.77651	0.14908
2541.84795	0.14971
2539.91938	0.15039
2537.99082	0.15119
2536.06226	0.15196
2534.13369	0.15257
2532.20513	0.15323
2530.27656	0.15402
2528.34800	0.15481
2526.41943	0.15566
2524.49087	0.15659
2522.56230	0.15740
2520.63374	0.15809
2518.70518	0.15888
2516.77661	0.15972
2514.84805	0.16046
2512.91948	0.16133
2510.99092	0.16235
2509.06235	0.16325
2507.13379	0.16397
2505.20522	0.16466
2503.27666	0.16548
2501.34810	0.16646
2499.41953	0.16744
2497.49097	0.16832
2495.56240	0.16915
2493.63384	0.16999
2491.70527	0.17085
2489.77671	0.17174
2487.84814	0.17262
2485.91958	0.17356
2483.99102	0.17458
2482.06245	0.17558
2480.13389	0.17653
2478.20532	0.17741
2476.27676	0.17820
2474.34819	0.17901
2472.41963	0.17987
2470.49106	0.18084
2468.56250	0.18195
2466.63394	0.18302
2464.70537	0.18399
2462.77681	0.18491
2460.84824	0.18581
2458.91968	0.18679
2456.99111	0.18792
2455.06255	0.18906
2453.13398	0.19015
2451.20542	0.19119
2449.27686	0.19219
2447.34829	0.19320
2445.41973	0.19414
2443.49116	0.19508
2441.56260	0.19613
2439.63403	0.19732
2437.70547	0.19857
2435.77690	0.19974
2433.84834	0.20078
2431.91978	0.20181
2429.99121	0.20295
2428.06265	0.20412
2426.13408	0.20517
2424.20552	0.20610
2422.27695	0.20710
2420.34839	0.20822
2418.41982	0.20940
2416.49126	0.21056
2414.56270	0.21168
2412.63413	0.21283
2410.70557	0.21410
2408.77700	0.21547
2406.84844	0.21687
2404.91987	0.21821
2402.99131	0.21941
2401.06274	0.22048
2399.13418	0.22149
2397.20562	0.22256
2395.27705	0.22379
2393.34849	0.22514
2391.41992	0.22649
2389.49136	0.22768
2387.56279	0.22856
2385.63423	0.22896
2383.70566	0.22886
2381.77710	0.22820
2379.84854	0.22699
2377.91997	0.22543
2375.99141	0.22372
2374.06284	0.22178
2372.13428	0.21913
2370.20571	0.21560
2368.27715	0.21182
2366.34858	0.20875
2364.42002	0.20683
2362.49146	0.20619
2360.56289	0.20704
2358.63433	0.20907
2356.70576	0.21199
2354.77720	0.21688
2352.84863	0.22429
2350.92007	0.23190
2348.99150	0.23660
2347.06294	0.23749
2345.13437	0.23543
2343.20581	0.23325
2341.27725	0.23364
2339.34868	0.23578
2337.42012	0.23826
2335.49155	0.24085
2333.56299	0.24352
2331.63442	0.24594
2329.70586	0.24827
2327.77729	0.25091
2325.84873	0.25381
2323.92017	0.25706
2321.99160	0.26064
2320.06304	0.26439
2318.13447	0.26819
2316.20591	0.27179
2314.27734	0.27501
2312.34878	0.27774
2310.42021	0.28029
2308.49165	0.28315
2306.56309	0.28631
2304.63452	0.28938
2302.70596	0.29218
2300.77739	0.29479
2298.84883	0.29729
2296.92026	0.29984
2294.99170	0.30248
2293.06313	0.30507
2291.13457	0.30759
2289.20601	0.31020
2287.27744	0.31285
2285.34888	0.31538
2283.42031	0.31768
2281.49175	0.31968
2279.56318	0.32153
2277.63462	0.32344
2275.70605	0.32543
2273.77749	0.32755
2271.84893	0.32977
2269.92036	0.33187
2267.99180	0.33390
2266.06323	0.33608
2264.13467	0.33837
2262.20610	0.34067
2260.27754	0.34288
2258.34897	0.34498
2256.42041	0.34712
2254.49185	0.34943
2252.56328	0.35183
2250.63472	0.35416
2248.70615	0.35640
2246.77759	0.35857
2244.84902	0.36067
2242.92046	0.36292
2240.99189	0.36536
2239.06333	0.36777
2237.13477	0.37006
2235.20620	0.37233
2233.27764	0.37465
2231.34907	0.37696
2229.42051	0.37922
2227.49194	0.38140
2225.56338	0.38353
2223.63481	0.38568
2221.70625	0.38787
2219.77769	0.39011
2217.84912	0.39247
2215.92056	0.39484
2213.99199	0.39709
2212.06343	0.39923
2210.13486	0.40141
2208.20630	0.40357
2206.27773	0.40562
2204.34917	0.40763
2202.42061	0.40964
2200.49204	0.41160
2198.56348	0.41355
2196.63491	0.41553
2194.70635	0.41754
2192.77778	0.41957
2190.84922	0.42163
2188.92065	0.42356
2186.99209	0.42530
2185.06353	0.42700
2183.13496	0.42870
2181.20640	0.43037
2179.27783	0.43198
2177.34927	0.43357
2175.42070	0.43522
2173.49214	0.43683
2171.56357	0.43831
2169.63501	0.43974
2167.70645	0.44110
2165.77788	0.44237
2163.84932	0.44357
2161.92075	0.44471
2159.99219	0.44578
2158.06362	0.44683
2156.13506	0.44790
2154.20649	0.44891
2152.27793	0.44983
2150.34937	0.45068
2148.42080	0.45136
2146.49224	0.45174
2144.56367	0.45208
2142.63511	0.45253
2140.70654	0.45291
2138.77798	0.45312
2136.84941	0.45324
2134.92085	0.45331
2132.99229	0.45341
2131.06372	0.45348
2129.13516	0.45325
2127.20659	0.45286
2125.27803	0.45253
2123.34946	0.45213
2121.42090	0.45157
2119.49233	0.45099
2117.56377	0.45047
2115.63521	0.44991
2113.70664	0.44913
2111.77808	0.44820
2109.84951	0.44727
2107.92095	0.44621
2105.99238	0.44497
2104.06382	0.44375
2102.13525	0.44261
2100.20669	0.44143
2098.27812	0.44010
2096.34956	0.43861
2094.42100	0.43702
2092.49243	0.43543
2090.56387	0.43382
2088.63530	0.43208
2086.70674	0.43018
2084.77817	0.42815
2082.84961	0.42624
2080.92104	0.42454
2078.99248	0.42270
2077.06392	0.42055
2075.13535	0.41837
2073.20679	0.41627
2071.27822	0.41402
2069.34966	0.41169
2067.42109	0.40937
2065.49253	0.40699
2063.56396	0.40456
2061.63540	0.40214
2059.70684	0.39971
2057.77827	0.39728
2055.84971	0.39485
2053.92114	0.39232
2051.99258	0.38965
2050.06401	0.38695
2048.13545	0.38433
2046.20688	0.38164
2044.27832	0.37886
2042.34976	0.37614
2040.42119	0.37351
2038.49263	0.37076
2036.56406	0.36787
2034.63550	0.36509
2032.70693	0.36246
2030.77837	0.35981
2028.84980	0.35705
2026.92124	0.35425
2024.99268	0.35152
2023.06411	0.34882
2021.13555	0.34606
2019.20698	0.34331
2017.27842	0.34052
2015.34985	0.33762
2013.42129	0.33479
2011.49272	0.33202
2009.56416	0.32928
2007.63560	0.32658
2005.70703	0.32387
2003.77847	0.32112
2001.84990	0.31847
1999.92134	0.31596
1997.99277	0.31347
1996.06421	0.31095
1994.13564	0.30850
1992.20708	0.30609
1990.27852	0.30353
1988.34995	0.30097
1986.42139	0.29847
1984.49282	0.29599
1982.56426	0.29354
1980.63569	0.29112
1978.70713	0.28874
1976.77856	0.28644
1974.85000	0.28426
1972.92144	0.28218
1970.99287	0.28018
1969.06431	0.27821
1967.13574	0.27626
1965.20718	0.27425
1963.27861	0.27221
1961.35005	0.27023
1959.42148	0.26834
1957.49292	0.26651
1955.56436	0.26471
1953.63579	0.26295
1951.70723	0.26120
1949.77866	0.25956
1947.85010	0.25801
1945.92153	0.25662
1943.99297	0.25547
1942.06440	0.25418
1940.13584	0.25245
1938.20728	0.25071
1936.27871	0.24921
1934.35015	0.24787
1932.42158	0.24668
1930.49302	0.24554
1928.56445	0.24439
1926.63589	0.24329
1924.70732	0.24238
1922.77876	0.24157
1920.85020	0.24068
1918.92163	0.23979
1916.99307	0.23889
1915.06450	0.23791
1913.13594	0.23698
1911.20737	0.23630
1909.27881	0.23565
1907.35024	0.23488
1905.42168	0.23414
1903.49312	0.23348
1901.56455	0.23282
1899.63599	0.23225
1897.70742	0.23187
1895.77886	0.23160
1893.85029	0.23132
1891.92173	0.23096
1889.99316	0.23074
1888.06460	0.23048
1886.13604	0.23012
1884.20747	0.22984
1882.27891	0.22963
1880.35034	0.22948
1878.42178	0.22941
1876.49321	0.22942
1874.56465	0.22945
1872.63608	0.22962
1870.70752	0.23008
1868.77896	0.23088
1866.85039	0.23125
1864.92183	0.23093
1862.99326	0.23074
1861.06470	0.23088
1859.13613	0.23123
1857.20757	0.23157
1855.27900	0.23194
1853.35044	0.23238
1851.42187	0.23297
1849.49331	0.23367
1847.56475	0.23450
1845.63618	0.23551
1843.70762	0.23656
1841.77905	0.23720
1839.85049	0.23755
1837.92192	0.23832
1835.99336	0.23930
1834.06479	0.24024
1832.13623	0.24128
1830.20767	0.24287
1828.27910	0.24453
1826.35054	0.24557
1824.42197	0.24663
1822.49341	0.24777
1820.56484	0.24896
1818.63628	0.25026
1816.70771	0.25180
1814.77915	0.25343
1812.85059	0.25530
1810.92202	0.25756
1808.99346	0.25974
1807.06489	0.26163
1805.13633	0.26348
1803.20776	0.26572
1801.27920	0.26843
1799.35063	0.27140
1797.42207	0.27390
1795.49351	0.27617
1793.56494	0.27897
1791.63638	0.28271
1789.70781	0.28617
1787.77925	0.28862
1785.85068	0.29163
1783.92212	0.29536
1781.99355	0.29936
1780.06499	0.30353
1778.13643	0.30776
1776.20786	0.31180
1774.27930	0.31631
1772.35073	0.32245
1770.42217	0.32885
1768.49360	0.33403
1766.56504	0.33898
1764.63647	0.34400
1762.70791	0.34967
1760.77935	0.35716
1758.85078	0.36423
1756.92222	0.37103
1754.99365	0.37828
1753.06509	0.38499
1751.13652	0.39327
1749.20796	0.40387
1747.27939	0.41424
1745.35083	0.42324
1743.42227	0.43281
1741.49370	0.44350
1739.56514	0.45613
1737.63657	0.46868
1735.70801	0.47962
1733.77944	0.49615
1731.85088	0.51600
1729.92231	0.53165
1727.99375	0.54746
1726.06519	0.56453
1724.13662	0.58314
1722.20806	0.60318
1720.27949	0.62176
1718.35093	0.64353
1716.42236	0.67567
1714.49380	0.70642
1712.56523	0.73128
1710.63667	0.75519
1708.70811	0.78088
1706.77954	0.81028
1704.85098	0.84541
1702.92241	0.87635
1700.99385	0.90670
1699.06528	0.95235
1697.13672	0.99446
1695.20815	1.03720
1693.27959	1.07845
1691.35103	1.11130
1689.42246	1.14909
1687.49390	1.18901
1685.56533	1.22750
1683.63677	1.28676
1681.70820	1.34849
1679.77964	1.38797
1677.85107	1.42538
1675.92251	1.46854
1673.99395	1.52206
1672.06538	1.56956
1670.13682	1.61588
1668.20825	1.67611
1666.27969	1.72527
1664.35112	1.76662
1662.42256	1.81782
1660.49399	1.87546
1658.56543	1.92054
1656.63687	1.95672
1654.70830	1.98868
1652.77974	2.03908
1650.85117	2.09180
1648.92261	2.11405
1646.99404	2.14082
1645.06548	2.17079
1643.13691	2.19155
1641.20835	2.20436
1639.27979	2.21553
1637.35122	2.22308
1635.42266	2.22406
1633.49409	2.21672
1631.56553	2.20416
1629.63696	2.18883
1627.70840	2.16295
1625.77983	2.13276
1623.85127	2.09456
1621.92271	2.04682
1619.99414	2.00444
1618.06558	1.96331
1616.13701	1.90379
1614.20845	1.84210
1612.27988	1.79468
1610.35132	1.74548
1608.42275	1.69228
1606.49419	1.63952
1604.56562	1.59040
1602.63706	1.54227
1600.70850	1.49483
1598.77993	1.45161
1596.85137	1.41136
1594.92280	1.37194
1592.99424	1.33370
1591.06567	1.29887
1589.13711	1.26644
1587.20854	1.23626
1585.27998	1.20807
1583.35142	1.18131
1581.42285	1.15663
1579.49429	1.13538
1577.56572	1.11615
1575.63716	1.09272
1573.70859	1.07197
1571.78003	1.05838
1569.85146	1.04387
1567.92290	1.02737
1565.99434	1.01485
1564.06577	1.00475
1562.13721	0.99611
1560.20864	0.98931
1558.28008	0.98057
1556.35151	0.97294
1554.42295	0.96750
1552.49438	0.96182
1550.56582	0.95561
1548.63726	0.94829
1546.70869	0.94067
1544.78013	0.93207
1542.85156	0.92147
1540.92300	0.90783
1538.99443	0.88865
1537.06587	0.87452
1535.13730	0.86482
1533.20874	0.85211
1531.28018	0.83836
1529.35161	0.82829
1527.42305	0.81902
1525.49448	0.80961
1523.56592	0.80126
1521.63735	0.79265
1519.70879	0.78369
1517.78022	0.77628
1515.85166	0.76807
1513.92310	0.75962
1511.99453	0.75261
1510.06597	0.74661
1508.13740	0.74094
1506.20884	0.73168
1504.28027	0.72288
1502.35171	0.71765
1500.42314	0.71321
1498.49458	0.70874
1496.56602	0.70356
1494.63745	0.69802
1492.70889	0.69344
1490.78032	0.68953
1488.85176	0.68520
1486.92319	0.68099
1484.99463	0.67740
1483.06606	0.67420
1481.13750	0.67119
1479.20894	0.66856
1477.28037	0.66661
1475.35181	0.66512
1473.42324	0.66356
1471.49468	0.66064
1469.56611	0.65701
1467.63755	0.65402
1465.70898	0.65184
1463.78042	0.65019
1461.85186	0.64868
1459.92329	0.64749
1457.99473	0.64651
1456.06616	0.64504
1454.13760	0.64284
1452.20903	0.64061
1450.28047	0.63850
1448.35190	0.63651
1446.42334	0.63441
1444.49478	0.63230
1442.56621	0.63035
1440.63765	0.62849
1438.70908	0.62683
1436.78052	0.62516
1434.85195	0.62306
1432.92339	0.62095
1430.99482	0.61929
1429.06626	0.61798
1427.13770	0.61698
1425.20913	0.61645
1423.28057	0.61618
1421.35200	0.61577
1419.42344	0.61534
1417.49487	0.61460
1415.56631	0.61305
1413.63774	0.61153
1411.70918	0.61052
1409.78062	0.61003
1407.85205	0.60997
1405.92349	0.61010
1403.99492	0.60994
1402.06636	0.60928
1400.13779	0.60845
1398.20923	0.60743
1396.28066	0.60584
1394.35210	0.60340
1392.42354	0.60049
1390.49497	0.59782
1388.56641	0.59533
1386.63784	0.59246
1384.70928	0.58933
1382.78071	0.58656
1380.85215	0.58406
1378.92358	0.58179
1376.99502	0.58003
1375.06646	0.57880
1373.13789	0.57771
1371.20933	0.57660
1369.28076	0.57558
1367.35220	0.57448
1365.42363	0.57325
1363.49507	0.57212
1361.56650	0.57103
1359.63794	0.56986
1357.70937	0.56884
1355.78081	0.56799
1353.85225	0.56714
1351.92368	0.56619
1349.99512	0.56531
1348.06655	0.56448
1346.13799	0.56357
1344.20942	0.56264
1342.28086	0.56194
1340.35229	0.56151
1338.42373	0.56101
1336.49517	0.56025
1334.56660	0.55947
1332.63804	0.55881
1330.70947	0.55827
1328.78091	0.55783
1326.85234	0.55744
1324.92378	0.55717
1322.99521	0.55714
1321.06665	0.55722
1319.13809	0.55708
1317.20952	0.55657
1315.28096	0.55599
1313.35239	0.55545
1311.42383	0.55485
1309.49526	0.55422
1307.56670	0.55356
1305.63813	0.55284
1303.70957	0.55212
1301.78101	0.55136
1299.85244	0.55047
1297.92388	0.54958
1295.99531	0.54870
1294.06675	0.54762
1292.13818	0.54643
1290.20962	0.54541
1288.28105	0.54455
1286.35249	0.54372
1284.42393	0.54306
1282.49536	0.54253
1280.56680	0.54185
1278.63823	0.54091
1276.70967	0.53984
1274.78110	0.53891
1272.85254	0.53835
1270.92397	0.53799
1268.99541	0.53744
1267.06685	0.53663
1265.13828	0.53585
1263.20972	0.53526
1261.28115	0.53474
1259.35259	0.53413
1257.42402	0.53349
1255.49546	0.53299
1253.56689	0.53284
1251.63833	0.53292
1249.70977	0.53291
1247.78120	0.53275
1245.85264	0.53259
1243.92407	0.53242
1241.99551	0.53196
1240.06694	0.53106
1238.13838	0.52992
1236.20981	0.52880
1234.28125	0.52775
1232.35269	0.52663
1230.42412	0.52529
1228.49556	0.52394
1226.56699	0.52278
1224.63843	0.52172
1222.70986	0.52073
1220.78130	0.51991
1218.85273	0.51914
1216.92417	0.51832
1214.99561	0.51754
1213.06704	0.51682
1211.13848	0.51615
1209.20991	0.51544
1207.28135	0.51463
1205.35278	0.51385
1203.42422	0.51316
1201.49565	0.51252
1199.56709	0.51190
1197.63853	0.51133
1195.70996	0.51081
1193.78140	0.51034
1191.85283	0.50989
1189.92427	0.50948
1187.99570	0.50909
1186.06714	0.50868
1184.13857	0.50838
1182.21001	0.50839
1180.28145	0.50871
1178.35288	0.50930
1176.42432	0.51006
1174.49575	0.51081
1172.56719	0.51127
1170.63862	0.51138
1168.71006	0.51134
1166.78149	0.51129
1164.85293	0.51128
1162.92437	0.51129
1160.99580	0.51111
1159.06724	0.51062
1157.13867	0.50993
1155.21011	0.50900
1153.28154	0.50765
1151.35298	0.50594
1149.42441	0.50403
1147.49585	0.50190
1145.56729	0.49954
1143.63872	0.49717
1141.71016	0.49506
1139.78159	0.49318
1137.85303	0.49130
1135.92446	0.48957
1133.99590	0.48831
1132.06733	0.48724
1130.13877	0.48596
1128.21021	0.48467
1126.28164	0.48346
1124.35308	0.48219
1122.42451	0.48098
1120.49595	0.48006
1118.56738	0.47951
1116.63882	0.47934
1114.71025	0.47939
1112.78169	0.47966
1110.85312	0.48025
1108.92456	0.48103
1106.99600	0.48193
1105.06743	0.48299
1103.13887	0.48421
1101.21030	0.48565
1099.28174	0.48744
1097.35317	0.48979
1095.42461	0.49280
1093.49604	0.49632
1091.56748	0.50049
1089.63892	0.50558
1087.71035	0.51138
1085.78179	0.51751
1083.85322	0.52388
1081.92466	0.53019
1079.99609	0.53559
1078.06753	0.53919
1076.13896	0.54031
1074.21040	0.53855
1072.28184	0.53418
1070.35327	0.52801
1068.42471	0.52104
1066.49614	0.51434
1064.56758	0.50835
1062.63901	0.50286
1060.71045	0.49786
1058.78188	0.49350
1056.85332	0.48971
1054.92476	0.48630
1052.99619	0.48319
1051.06763	0.48063
1049.13906	0.47877
1047.21050	0.47724
1045.28193	0.47578
1043.35337	0.47459
1041.42480	0.47378
1039.49624	0.47316
1037.56768	0.47254
1035.63911	0.47197
1033.71055	0.47165
1031.78198	0.47163
1029.85342	0.47164
1027.92485	0.47149
1025.99629	0.47139
1024.06772	0.47151
1022.13916	0.47190
1020.21060	0.47262
1018.28203	0.47359
1016.35347	0.47469
1014.42490	0.47586
1012.49634	0.47700
1010.56777	0.47831
1008.63921	0.47993
1006.71064	0.48158
1004.78208	0.48318
1002.85352	0.48516
1000.92495	0.48785
998.99639	0.49124
997.06782	0.49513
995.13926	0.49923
993.21069	0.50319
991.28213	0.50667
989.35356	0.50936
987.42500	0.51103
985.49644	0.51202
983.56787	0.51298
981.63931	0.51410
979.71074	0.51541
977.78218	0.51706
975.85361	0.51925
973.92505	0.52202
971.99648	0.52528
970.06792	0.52900
968.13936	0.53299
966.21079	0.53714
964.28223	0.54169
962.35366	0.54655
960.42510	0.55155
958.49653	0.55696
956.56797	0.56289
954.63940	0.56901
952.71084	0.57521
950.78228	0.58169
948.85371	0.58836
946.92515	0.59487
944.99658	0.60109
943.06802	0.60702
941.13945	0.61251
939.21089	0.61775
937.28232	0.62320
935.35376	0.62914
933.42520	0.63533
931.49663	0.64134
929.56807	0.64718
927.63950	0.65275
925.71094	0.65790
923.78237	0.66348
921.85381	0.67040
919.92524	0.67799
917.99668	0.68496
916.06812	0.69156
914.13955	0.69850
912.21099	0.70573
910.28242	0.71328
908.35386	0.72130
906.42529	0.73003
904.49673	0.73905
902.56816	0.74811
900.63960	0.75787
898.71104	0.76810
896.78247	0.77815
894.85391	0.78733
892.92534	0.79567
890.99678	0.80477
889.06821	0.81542
887.13965	0.82700
885.21108	0.83850
883.28252	0.84968
881.35396	0.86157
879.42539	0.87362
877.49683	0.88473
875.56826	0.89569
873.63970	0.90690
871.71113	0.91818
869.78257	0.92882
867.85400	0.93919
865.92544	0.95120
863.99687	0.96400
862.06831	0.97548
860.13975	0.98618
858.21118	0.99868
856.28262	1.01283
854.35405	1.02546
852.42549	1.03623
850.49692	1.04646
848.56836	1.05686
846.63979	1.06788
844.71123	1.07825
842.78267	1.08832
840.85410	1.09938
838.92554	1.11044
836.99697	1.12328
835.06841	1.13837
833.13984	1.15068
831.21128	1.15766
829.28271	1.16307
827.35415	1.17010
825.42559	1.17583
823.49702	1.18401
821.56846	1.20129
819.63989	1.21833
817.71133	1.22410
815.78276	1.22705
813.85420	1.23444
811.92563	1.24357
809.99707	1.25511
808.06851	1.25651
806.13994	1.23980
804.21138	1.23036
802.28281	1.24408
800.35425	1.26501
798.42568	1.27987
796.49712	1.28680
794.56855	1.27708
792.63999	1.26488
790.71143	1.27045
788.78286	1.27968
786.85430	1.29067
784.92573	1.31942
782.99717	1.33442
781.06860	1.32478
779.14004	1.30613
777.21147	1.27748
775.28291	1.24962
773.35435	1.21002
771.42578	1.17547
769.49722	1.17355
767.56865	1.15866
765.64009	1.08902
763.71152	1.02971
761.78296	1.01806
759.85439	1.03407
757.92583	1.03849
755.99727	1.00438
754.06870	0.98328
752.14014	0.99526
750.21157	1.00084
748.28301	0.97703
746.35444	0.93151
744.42588	0.89335
742.49731	0.88945
740.56875	0.91430
738.64019	0.88363
736.71162	0.78553
734.78306	0.69650
732.85449	0.58555
730.92593	0.43542
728.99736	0.29021
727.06880	0.16668
725.14023	0.01921
723.21167	-0.19893
721.28311	-0.70401
719.35454	-0.45100
717.42598	-0.12566
715.49741	-0.23130
713.56885	-0.20241
711.64028	-0.02575
709.71172	0.15930
707.78315	0.26508
705.85459	0.25251
703.92603	0.21152
701.99746	0.21957
700.06890	0.27702
698.14033	0.37563
696.21177	0.40485
694.28320	0.32741
692.35464	0.29281
690.42607	0.35899
688.49751	0.44448
686.56895	0.43245
684.64038	0.38404
682.71182	0.33391
680.78325	0.31252
678.85469	0.34321
676.92612	0.32883
674.99756	0.25821
673.06899	0.21203
671.14043	0.20332
669.21187	0.23409
667.28330	0.29994
665.35474	0.35556
663.42617	0.42314
661.49761	0.46723
659.56904	0.36669
657.64048	0.28865
655.71191	0.28527
653.78335	0.29173
651.85479	0.31971
649.92622	0.34509
647.99766	0.28833
646.06909	0.20750
644.14053	0.20994
642.21196	0.26998
640.28340	0.27597
638.35483	0.22959
636.42627	0.23008
634.49771	0.30271
632.56914	0.36224
630.64058	0.30526
628.71201	0.23084
626.78345	0.24969
624.85488	0.29396
622.92632	0.29045
620.99775	0.27180
619.06919	0.27433
617.14062	0.30154
615.21206	0.30856
613.28350	0.26831
611.35493	0.24022
609.42637	0.23628
607.49780	0.22600
605.56924	0.22539
603.64067	0.27062
601.71211	0.33172
599.78354	0.33571
597.85498	0.26256
595.92642	0.17927
593.99785	0.15881
592.06929	0.19762
590.14072	0.23367
588.21216	0.26495
586.28359	0.31830
584.35503	0.34808
582.42646	0.33019
580.49790	0.30330
578.56934	0.28733
576.64077	0.25719
574.71221	0.21293
572.78364	0.21631
570.85508	0.27674
568.92651	0.32874
566.99795	0.32467
565.06938	0.26997
563.14082	0.20016
561.21226	0.16959
559.28369	0.19774
557.35513	0.24221
555.42656	0.23842
553.49800	0.20596
551.56943	0.19078
549.64087	0.19209
547.71230	0.18704
545.78374	0.17111
543.85518	0.15999
541.92661	0.17145
539.99805	0.21770
538.06948	0.28424
536.14092	0.28221
534.21235	0.21360
532.28379	0.15970
530.35522	0.14598
528.42666	0.18087
526.49810	0.24599
524.56953	0.27931
522.64097	0.25445
520.71240	0.20761
518.78384	0.18502
516.85527	0.20234
514.92671	0.24686
512.99814	0.26112
511.06958	0.22157
509.14102	0.19778
507.21245	0.21256
505.28389	0.22283
503.35532	0.22405
501.42676	0.22847
499.49819	0.20366
