3997.91411	0.05402
3995.98555	0.05456
3994.05698	0.05535
3992.12842	0.05582
3990.19985	0.05577
3988.27129	0.05574
3986.34272	0.05603
3984.41416	0.05634
3982.48560	0.05647
3980.55703	0.05668
3978.62847	0.05719
3976.69990	0.05788
3974.77134	0.05849
3972.84277	0.05869
3970.91421	0.05836
3968.98564	0.05805
3967.05708	0.05813
3965.12852	0.05844
3963.19995	0.05894
3961.27139	0.05930
3959.34282	0.05923
3957.41426	0.05916
3955.48569	0.05951
3953.55713	0.05999
3951.62856	0.06020
3949.70000	0.06021
3947.77144	0.06029
3945.84287	0.06044
3943.91431	0.06091
3941.98574	0.06138
3940.05718	0.06078
3938.12861	0.05967
3936.20005	0.05922
3934.27148	0.05966
3932.34292	0.06070
3930.41436	0.06155
3928.48579	0.06160
3926.55723	0.06124
3924.62866	0.06128
3922.70010	0.06137
3920.77153	0.06103
3918.84297	0.06105
3916.91440	0.06148
3914.98584	0.06104
3913.05728	0.05972
3911.12871	0.05859
3909.20015	0.05814
3907.27158	0.05871
3905.34302	0.06047
3903.41445	0.06299
3901.48589	0.06479
3899.55732	0.06476
3897.62876	0.06318
3895.70020	0.06111
3893.77163	0.06027
3891.84307	0.06140
3889.91450	0.06241
3887.98594	0.06167
3886.05737	0.06180
3884.12881	0.06338
3882.20024	0.06414
3880.27168	0.06435
3878.34312	0.06375
3876.41455	0.06225
3874.48599	0.06232
3872.55742	0.06431
3870.62886	0.06662
3868.70029	0.06820
3866.77173	0.06769
3864.84316	0.06687
3862.91460	0.06742
3860.98604	0.06738
3859.05747	0.06636
3857.12891	0.06623
3855.20034	0.06774
3853.27178	0.07107
3851.34321	0.07291
3849.41465	0.07027
3847.48608	0.06769
3845.55752	0.06734
3843.62896	0.06888
3841.70039	0.07089
3839.77183	0.07306
3837.84326	0.07586
3835.91470	0.07701
3833.98613	0.07574
3832.05757	0.07436
3830.12900	0.07387
3828.20044	0.07437
3826.27187	0.07568
3824.34331	0.07686
3822.41475	0.07819
3820.48618	0.08111
3818.55762	0.08283
3816.62905	0.08248
3814.70049	0.08225
3812.77192	0.08144
3810.84336	0.08057
3808.91479	0.08100
3806.98623	0.08328
3805.05767	0.08608
3803.12910	0.08818
3801.20054	0.09101
3799.27197	0.09298
3797.34341	0.09275
3795.41484	0.09245
3793.48628	0.09190
3791.55771	0.09148
3789.62915	0.09232
3787.70059	0.09431
3785.77202	0.09687
3783.84346	0.09935
3781.91489	0.10086
3779.98633	0.10210
3778.05776	0.10371
3776.12920	0.10468
3774.20063	0.10536
3772.27207	0.10676
3770.34351	0.10937
3768.41494	0.11265
3766.48638	0.11507
3764.55781	0.11691
3762.62925	0.11859
3760.70068	0.12065
3758.77212	0.12388
3756.84355	0.12696
3754.91499	0.12901
3752.98643	0.13206
3751.05786	0.13792
3749.12930	0.14375
3747.20073	0.14532
3745.27217	0.14660
3743.34360	0.15013
3741.41504	0.15230
3739.48647	0.15309
3737.55791	0.15579
3735.62935	0.16154
3733.70078	0.16793
3731.77222	0.17110
3729.84365	0.17241
3727.91509	0.17499
3725.98652	0.18046
3724.05796	0.18772
3722.12939	0.19494
3720.20083	0.20234
3718.27227	0.20975
3716.34370	0.21710
3714.41514	0.22497
3712.48657	0.23524
3710.55801	0.24938
3708.62944	0.26260
3706.70088	0.27230
3704.77231	0.28213
3702.84375	0.29490
3700.91519	0.31216
3698.98662	0.33067
3697.05806	0.34800
3695.12949	0.36679
3693.20093	0.38705
3691.27236	0.40930
3689.34380	0.43837
3687.41523	0.47312
3685.48667	0.50234
3683.55811	0.52752
3681.62954	0.55518
3679.70098	0.58704
3677.77241	0.62166
3675.84385	0.66338
3673.91528	0.71771
3671.98672	0.76057
3670.05815	0.79846
3668.12959	0.85047
3666.20103	0.89734
3664.27246	0.93643
3662.34390	0.97941
3660.41533	1.02679
3658.48677	1.07354
3656.55820	1.12286
3654.62964	1.17747
3652.70107	1.22348
3650.77251	1.26441
3648.84395	1.32103
3646.91538	1.38876
3644.98682	1.43811
3643.05825	1.47620
3641.12969	1.51456
3639.20112	1.55646
3637.27256	1.59978
3635.34399	1.64366
3633.41543	1.68780
3631.48687	1.72821
3629.55830	1.76929
3627.62974	1.82422
3625.70117	1.87507
3623.77261	1.90903
3621.84404	1.94178
3619.91548	1.97916
3617.98691	2.02397
3616.05835	2.06792
3614.12979	2.10626
3612.20122	2.14746
3610.27266	2.18745
3608.34409	2.22511
3606.41553	2.26549
3604.48696	2.30512
3602.55840	2.34147
3600.62983	2.38021
3598.70127	2.42265
3596.77271	2.46465
3594.84414	2.50611
3592.91558	2.54773
3590.98701	2.58636
3589.05845	2.62213
3587.12988	2.66493
3585.20132	2.71257
3583.27275	2.75366
3581.34419	2.79171
3579.41562	2.83187
3577.48706	2.87447
3575.55850	2.91807
3573.62993	2.96150
3571.70137	3.00299
3569.77280	3.04408
3567.84424	3.09006
3565.91567	3.14655
3563.98711	3.19860
3562.05854	3.23835
3560.12998	3.27783
3558.20142	3.32095
3556.27285	3.36653
3554.34429	3.41281
3552.41572	3.46036
3550.48716	3.50872
3548.55859	3.55559
3546.63003	3.60263
3544.70146	3.65372
3542.77290	3.70207
3540.84434	3.74475
3538.91577	3.78988
3536.98721	3.83837
3535.05864	3.88782
3533.13008	3.93466
3531.20151	3.98032
3529.27295	4.02973
3527.34438	4.08208
3525.41582	4.13157
3523.48726	4.17742
3521.55869	4.22444
3519.63013	4.27465
3517.70156	4.32717
3515.77300	4.37690
3513.84443	4.42355
3511.91587	4.47265
3509.98730	4.52257
3508.05874	4.56757
3506.13018	4.61196
3504.20161	4.66037
3502.27305	4.70945
3500.34448	4.75752
3498.41592	4.80495
3496.48735	4.85211
3494.55879	4.89952
3492.63022	4.94817
3490.70166	4.99830
3488.77310	5.04885
3486.84453	5.09882
3484.91597	5.15242
3482.98740	5.20996
3481.05884	5.26012
3479.13027	5.29986
3477.20171	5.34308
3475.27314	5.39939
3473.34458	5.45779
3471.41602	5.49717
3469.48745	5.52029
3467.55889	5.55514
3465.63032	5.61208
3463.70176	5.67188
3461.77319	5.72290
3459.84463	5.77150
3457.91606	5.82036
3455.98750	5.87663
3454.05894	5.93938
3452.13037	5.99050
3450.20181	6.02915
3448.27324	6.07747
3446.34468	6.14507
3444.41611	6.21074
3442.48755	6.26555
3440.55898	6.31115
3438.63042	6.35208
3436.70186	6.39808
3434.77329	6.45034
3432.84473	6.50876
3430.91616	6.55270
3428.98760	6.57387
3427.05903	6.60787
3425.13047	6.67645
3423.20190	6.74705
3421.27334	6.79910
3419.34478	6.85488
3417.41621	6.92044
3415.48765	6.96772
3413.55908	6.98508
3411.63052	6.98910
3409.70195	7.00048
3407.77339	7.03928
3405.84482	7.08235
3403.91626	7.13113
3401.98770	7.20448
3400.05913	7.27816
3398.13057	7.34771
3396.20200	7.41129
3394.27344	7.43050
3392.34487	7.41962
3390.41631	7.46550
3388.48774	7.54491
3386.55918	7.57846
3384.63062	7.57465
3382.70205	7.58905
3380.77349	7.64331
3378.84492	7.69562
3376.91636	7.72541
3374.98779	7.75632
3373.05923	7.79079
3371.13066	7.79154
3369.20210	7.79169
3367.27354	7.82976
3365.34497	7.85981
3363.41641	7.85163
3361.48784	7.84587
3359.55928	7.85645
3357.63071	7.87151
3355.70215	7.92067
3353.77358	7.97490
3351.84502	8.01099
3349.91646	8.05945
3347.98789	8.12746
3346.05933	8.16368
3344.13076	8.15901
3342.20220	8.15284
3340.27363	8.12153
3338.34507	8.09253
3336.41650	8.08720
3334.48794	8.09822
3332.55937	8.13012
3330.63081	8.14958
3328.70225	8.09296
3326.77368	8.03372
3324.84512	8.10440
3322.91655	8.21328
3320.98799	8.20272
3319.05942	8.15999
3317.13086	8.21001
3315.20229	8.25899
3313.27373	8.21542
3311.34517	8.17941
3309.41660	8.20190
3307.48804	8.21068
3305.55947	8.19997
3303.63091	8.21870
3301.70234	8.23146
3299.77378	8.24634
3297.84521	8.28803
3295.91665	8.34414
3293.98809	8.39757
3292.05952	8.38437
3290.13096	8.29087
3288.20239	8.22624
3286.27383	8.27052
3284.34526	8.39987
3282.41670	8.50289
3280.48813	8.46018
3278.55957	8.34140
3276.63101	8.24868
3274.70244	8.22600
3272.77388	8.29312
3270.84531	8.39859
3268.91675	8.45892
3266.98818	8.47388
3265.05962	8.46196
3263.13105	8.37086
3261.20249	8.28610
3259.27393	8.30008
3257.34536	8.38384
3255.41680	8.49892
3253.48823	8.58427
3251.55967	8.53124
3249.63110	8.40912
3247.70254	8.39870
3245.77397	8.44151
3243.84541	8.37865
3241.91685	8.26569
3239.98828	8.24992
3238.05972	8.30449
3236.13115	8.31554
3234.20259	8.32147
3232.27402	8.32954
3230.34546	8.27433
3228.41689	8.19454
3226.48833	8.12708
3224.55977	8.07875
3222.63120	8.08036
3220.70264	8.10081
3218.77407	8.10067
3216.84551	8.11918
3214.91694	8.13383
3212.98838	8.07742
3211.05981	8.01446
3209.13125	8.00077
3207.20269	7.99505
3205.27412	7.98731
3203.34556	7.96718
3201.41699	7.92136
3199.48843	7.88575
3197.55986	7.87519
3195.63130	7.84320
3193.70273	7.75717
3191.77417	7.66757
3189.84561	7.62441
3187.91704	7.60535
3185.98848	7.54007
3184.05991	7.42965
3182.13135	7.37044
3180.20278	7.37550
3178.27422	7.33727
3176.34565	7.23250
3174.41709	7.14925
3172.48853	7.10731
3170.55996	7.06889
3168.63140	7.01984
3166.70283	6.96010
3164.77427	6.89333
3162.84570	6.83454
3160.91714	6.78157
3158.98857	6.71856
3157.06001	6.65553
3155.13145	6.59642
3153.20288	6.53122
3151.27432	6.46897
3149.34575	6.40281
3147.41719	6.32479
3145.48862	6.25005
3143.56006	6.18105
3141.63149	6.10401
3139.70293	6.02009
3137.77437	5.95159
3135.84580	5.89943
3133.91724	5.84120
3131.98867	5.76418
3130.06011	5.67779
3128.13154	5.59560
3126.20298	5.51976
3124.27441	5.44797
3122.34585	5.37763
3120.41729	5.30987
3118.48872	5.23679
3116.56016	5.15456
3114.63159	5.07668
3112.70303	5.01041
3110.77446	4.95128
3108.84590	4.88835
3106.91733	4.81567
3104.98877	4.74033
3103.06021	4.67083
3101.13164	4.60727
3099.20308	4.54396
3097.27451	4.47640
3095.34595	4.40842
3093.41738	4.34452
3091.48882	4.28070
3089.56025	4.21423
3087.63169	4.14769
3085.70312	4.08603
3083.77456	4.02943
3081.84600	3.97092
3079.91743	3.90849
3077.98887	3.84637
3076.06030	3.78583
3074.13174	3.72559
3072.20317	3.66573
3070.27461	3.60704
3068.34604	3.54993
3066.41748	3.49485
3064.48892	3.44096
3062.56035	3.38543
3060.63179	3.32899
3058.70322	3.27532
3056.77466	3.22422
3054.84609	3.17281
3052.91753	3.11976
3050.98896	3.06635
3049.06040	3.01374
3047.13184	2.96205
3045.20327	2.91215
3043.27471	2.86376
3041.34614	2.81556
3039.41758	2.76818
3037.48901	2.72200
3035.56045	2.67647
3033.63188	2.63189
3031.70332	2.58748
3029.77476	2.54257
3027.84619	2.49847
3025.91763	2.45570
3023.98906	2.41331
3022.06050	2.37126
3020.13193	2.32939
3018.20337	2.28714
3016.27480	2.24546
3014.34624	2.20557
3012.41768	2.16728
3010.48911	2.12920
3008.56055	2.09093
3006.63198	2.05384
3004.70342	2.01835
3002.77485	1.98373
3000.84629	1.94962
2998.91772	1.91619
2996.98916	1.88370
2995.06060	1.85198
2993.13203	1.82068
2991.20347	1.78986
2989.27490	1.75973
2987.34634	1.73017
2985.41777	1.70106
2983.48921	1.67266
2981.56064	1.64538
2979.63208	1.61908
2977.70352	1.59309
2975.77495	1.56715
2973.84639	1.54151
2971.91782	1.51636
2969.98926	1.49176
2968.06069	1.46748
2966.13213	1.44297
2964.20356	1.41828
2962.27500	1.39413
2960.34644	1.37024
2958.41787	1.34580
2956.48931	1.32119
2954.56074	1.29694
2952.63218	1.27300
2950.70361	1.24952
2948.77505	1.22659
2946.84648	1.20386
2944.91792	1.18088
2942.98936	1.15812
2941.06079	1.13679
2939.13223	1.11643
2937.20366	1.09544
2935.27510	1.07393
2933.34653	1.05255
2931.41797	1.03085
2929.48940	1.00914
2927.56084	0.98847
2925.63228	0.96849
2923.70371	0.94885
2921.77515	0.93047
2919.84658	0.91336
2917.91802	0.89678
2915.98945	0.88098
2914.06089	0.86636
2912.13232	0.85263
2910.20376	0.83911
2908.27520	0.82538
2906.34663	0.81149
2904.41807	0.79751
2902.48950	0.78372
2900.56094	0.77062
2898.63237	0.75811
2896.70381	0.74560
2894.77524	0.73311
2892.84668	0.72108
2890.91812	0.70953
2888.98955	0.69835
2887.06099	0.68763
2885.13242	0.67740
2883.20386	0.66761
2881.27529	0.65803
2879.34673	0.64858
2877.41816	0.63948
2875.48960	0.63023
2873.56104	0.61999
2871.63247	0.60881
2869.70391	0.59721
2867.77534	0.58546
2865.84678	0.57342
2863.91821	0.56099
2861.98965	0.54836
2860.06108	0.53584
2858.13252	0.52382
2856.20396	0.51235
2854.27539	0.50134
2852.34683	0.49120
2850.41826	0.48248
2848.48970	0.47538
2846.56113	0.46974
2844.63257	0.46489
2842.70400	0.46024
2840.77544	0.45537
2838.84687	0.44999
2836.91831	0.44444
2834.98975	0.43898
2833.06118	0.43323
2831.13262	0.42717
2829.20405	0.42127
2827.27549	0.41566
2825.34692	0.41002
2823.41836	0.40421
2821.48979	0.39832
2819.56123	0.39252
2817.63267	0.38696
2815.70410	0.38161
2813.77554	0.37626
2811.84697	0.37087
2809.91841	0.36544
2807.98984	0.35997
2806.06128	0.35459
2804.13271	0.34938
2802.20415	0.34423
2800.27559	0.33910
2798.34702	0.33410
2796.41846	0.32932
2794.48989	0.32469
2792.56133	0.32015
2790.63276	0.31574
2788.70420	0.31133
2786.77563	0.30688
2784.84707	0.30251
2782.91851	0.29831
2780.98994	0.29426
2779.06138	0.29028
2777.13281	0.28635
2775.20425	0.28255
2773.27568	0.27881
2771.34712	0.27511
2769.41855	0.27140
2767.48999	0.26765
2765.56143	0.26405
2763.63286	0.26066
2761.70430	0.25734
2759.77573	0.25406
2757.84717	0.25078
2755.91860	0.24752
2753.99004	0.24435
2752.06147	0.24128
2750.13291	0.23829
2748.20435	0.23542
2746.27578	0.23265
2744.34722	0.22993
2742.41865	0.22724
2740.49009	0.22454
2738.56152	0.22190
2736.63296	0.21932
2734.70439	0.21670
2732.77583	0.21414
2730.84727	0.21179
2728.91870	0.20960
2726.99014	0.20745
2725.06157	0.20523
2723.13301	0.20291
2721.20444	0.20071
2719.27588	0.19875
2717.34731	0.19686
2715.41875	0.19492
2713.49019	0.19310
2711.56162	0.19136
2709.63306	0.18954
2707.70449	0.18776
2705.77593	0.18607
2703.84736	0.18445
2701.91880	0.18297
2699.99023	0.18161
2698.06167	0.18018
2696.13311	0.17866
2694.20454	0.17722
2692.27598	0.17592
2690.34741	0.17472
2688.41885	0.17353
2686.49028	0.17232
2684.56172	0.17101
2682.63315	0.16971
2680.70459	0.16857
2678.77603	0.16752
2676.84746	0.16647
2674.91890	0.16541
2672.99033	0.16438
2671.06177	0.16337
2669.13320	0.16236
2667.20464	0.16136
2665.27607	0.16039
2663.34751	0.15948
2661.41895	0.15864
2659.49038	0.15788
2657.56182	0.15716
2655.63325	0.15643
2653.70469	0.15578
2651.77612	0.15519
2649.84756	0.15456
2647.91899	0.15390
2645.99043	0.15326
2644.06187	0.15269
2642.13330	0.15225
2640.20474	0.15183
2638.27617	0.15128
2636.34761	0.15066
2634.41904	0.15012
2632.49048	0.14967
2630.56191	0.14932
2628.63335	0.14907
2626.70479	0.14872
2624.77622	0.14832
2622.84766	0.14807
2620.91909	0.14788
2618.99053	0.14762
2617.06196	0.14728
2615.13340	0.14701
2613.20483	0.14692
2611.27627	0.14684
2609.34771	0.14663
2607.41914	0.14636
2605.49058	0.14620
2603.56201	0.14612
2601.63345	0.14613
2599.70488	0.14623
2597.77632	0.14629
2595.84775	0.14628
2593.91919	0.14638
2591.99062	0.14657
2590.06206	0.14669
2588.13350	0.14679
2586.20493	0.14690
2584.27637	0.14703
2582.34780	0.14720
2580.41924	0.14745
2578.49067	0.14780
2576.56211	0.14814
2574.63354	0.14833
2572.70498	0.14855
2570.77642	0.14887
2568.84785	0.14915
2566.91929	0.14956
2564.99072	0.15007
2563.06216	0.15050
2561.13359	0.15093
2559.20503	0.15146
2557.27646	0.15195
2555.34790	0.15237
2553.41934	0.15287
2551.49077	0.15341
2549.56221	0.15383
2547.63364	0.15424
2545.70508	0.15480
2543.77651	0.15543
2541.84795	0.15603
2539.91938	0.15663
2537.99082	0.15728
2536.06226	0.15791
2534.13369	0.15859
2532.20513	0.15931
2530.27656	0.16005
2528.34800	0.16088
2526.41943	0.16170
2524.49087	0.16224
2522.56230	0.16265
2520.63374	0.16329
2518.70518	0.16416
2516.77661	0.16505
2514.84805	0.16588
2512.91948	0.16662
2510.99092	0.16735
2509.06235	0.16804
2507.13379	0.16873
2505.20522	0.16950
2503.27666	0.17037
2501.34810	0.17131
2499.41953	0.17221
2497.49097	0.17300
2495.56240	0.17375
2493.63384	0.17451
2491.70527	0.17531
2489.77671	0.17626
2487.84814	0.17726
2485.91958	0.17812
2483.99102	0.17895
2482.06245	0.17990
2480.13389	0.18081
2478.20532	0.18162
2476.27676	0.18245
2474.34819	0.18325
2472.41963	0.18404
2470.49106	0.18493
2468.56250	0.18592
2466.63394	0.18689
2464.70537	0.18779
2462.77681	0.18867
2460.84824	0.18955
2458.91968	0.19046
2456.99111	0.19140
2455.06255	0.19230
2453.13398	0.19321
2451.20542	0.19424
2449.27686	0.19521
2447.34829	0.19604
2445.41973	0.19699
2443.49116	0.19817
2441.56260	0.19933
2439.63403	0.20032
2437.70547	0.20134
2435.77690	0.20241
2433.84834	0.20337
2431.91978	0.20438
2429.99121	0.20555
2428.06265	0.20674
2426.13408	0.20788
2424.20552	0.20889
2422.27695	0.20985
2420.34839	0.21091
2418.41982	0.21200
2416.49126	0.21302
2414.56270	0.21409
2412.63413	0.21525
2410.70557	0.21640
2408.77700	0.21758
2406.84844	0.21878
2404.91987	0.21994
2402.99131	0.22107
2401.06274	0.22223
2399.13418	0.22342
2397.20562	0.22464
2395.27705	0.22590
2393.34849	0.22716
2391.41992	0.22847
2389.49136	0.22977
2387.56279	0.23073
2385.63423	0.23120
2383.70566	0.23122
2381.77710	0.23064
2379.84854	0.22919
2377.91997	0.22700
2375.99141	0.22441
2374.06284	0.22139
2372.13428	0.21763
2370.20571	0.21315
2368.27715	0.20839
2366.34858	0.20407
2364.42002	0.20090
2362.49146	0.19933
2360.56289	0.19932
2358.63433	0.20110
2356.70576	0.20542
2354.77720	0.21213
2352.84863	0.22068
2350.92007	0.22937
2348.99150	0.23470
2347.06294	0.23539
2345.13437	0.23253
2343.20581	0.22908
2341.27725	0.22851
2339.34868	0.23093
2337.42012	0.23384
2335.49155	0.23617
2333.56299	0.23878
2331.63442	0.24202
2329.70586	0.24533
2327.77729	0.24854
2325.84873	0.25195
2323.92017	0.25560
2321.99160	0.25955
2320.06304	0.26388
2318.13447	0.26836
2316.20591	0.27247
2314.27734	0.27598
2312.34878	0.27905
2310.42021	0.28189
2308.49165	0.28481
2306.56309	0.28813
2304.63452	0.29156
2302.70596	0.29447
2300.77739	0.29689
2298.84883	0.29927
2296.92026	0.30174
2294.99170	0.30422
2293.06313	0.30668
2291.13457	0.30902
2289.20601	0.31138
2287.27744	0.31385
2285.34888	0.31626
2283.42031	0.31853
2281.49175	0.32068
2279.56318	0.32263
2277.63462	0.32447
2275.70605	0.32640
2273.77749	0.32848
2271.84893	0.33062
2269.92036	0.33271
2267.99180	0.33476
2266.06323	0.33684
2264.13467	0.33905
2262.20610	0.34140
2260.27754	0.34372
2258.34897	0.34597
2256.42041	0.34826
2254.49185	0.35062
2252.56328	0.35290
2250.63472	0.35509
2248.70615	0.35727
2246.77759	0.35951
2244.84902	0.36177
2242.92046	0.36396
2240.99189	0.36611
2239.06333	0.36833
2237.13477	0.37061
2235.20620	0.37287
2233.27764	0.37510
2231.34907	0.37729
2229.42051	0.37951
2227.49194	0.38186
2225.56338	0.38420
2223.63481	0.38642
2221.70625	0.38861
2219.77769	0.39078
2217.84912	0.39287
2215.92056	0.39497
2213.99199	0.39717
2212.06343	0.39939
2210.13486	0.40150
2208.20630	0.40356
2206.27773	0.40565
2204.34917	0.40775
2202.42061	0.40983
2200.49204	0.41191
2198.56348	0.41400
2196.63491	0.41600
2194.70635	0.41790
2192.77778	0.41976
2190.84922	0.42158
2188.92065	0.42336
2186.99209	0.42523
2185.06353	0.42712
2183.13496	0.42893
2181.20640	0.43068
2179.27783	0.43234
2177.34927	0.43385
2175.42070	0.43523
2173.49214	0.43657
2171.56357	0.43799
2169.63501	0.43947
2167.70645	0.44088
2165.77788	0.44218
2163.84932	0.44337
2161.92075	0.44442
2159.99219	0.44540
2158.06362	0.44636
2156.13506	0.44726
2154.20649	0.44816
2152.27793	0.44908
2150.34937	0.44987
2148.42080	0.45053
2146.49224	0.45110
2144.56367	0.45153
2142.63511	0.45201
2140.70654	0.45253
2138.77798	0.45291
2136.84941	0.45304
2134.92085	0.45291
2132.99229	0.45265
2131.06372	0.45251
2129.13516	0.45248
2127.20659	0.45237
2125.27803	0.45206
2123.34946	0.45151
2121.42090	0.45094
2119.49233	0.45053
2117.56377	0.45005
2115.63521	0.44923
2113.70664	0.44825
2111.77808	0.44742
2109.84951	0.44661
2107.92095	0.44560
2105.99238	0.44444
2104.06382	0.44320
2102.13525	0.44192
2100.20669	0.44065
2098.27812	0.43934
2096.34956	0.43793
2094.42100	0.43642
2092.49243	0.43481
2090.56387	0.43319
2088.63530	0.43147
2086.70674	0.42953
2084.77817	0.42744
2082.84961	0.42548
2080.92104	0.42364
2078.99248	0.42171
2077.06392	0.41967
2075.13535	0.41756
2073.20679	0.41529
2071.27822	0.41299
2069.34966	0.41079
2067.42109	0.40857
2065.49253	0.40622
2063.56396	0.40375
2061.63540	0.40119
2059.70684	0.39854
2057.77827	0.39596
2055.84971	0.39351
2053.92114	0.39104
2051.99258	0.38846
2050.06401	0.38586
2048.13545	0.38328
2046.20688	0.38063
2044.27832	0.37793
2042.34976	0.37525
2040.42119	0.37255
2038.49263	0.36977
2036.56406	0.36696
2034.63550	0.36422
2032.70693	0.36153
2030.77837	0.35882
2028.84980	0.35600
2026.92124	0.35318
2024.99268	0.35040
2023.06411	0.34761
2021.13555	0.34485
2019.20698	0.34217
2017.27842	0.33953
2015.34985	0.33680
2013.42129	0.33404
2011.49272	0.33134
2009.56416	0.32866
2007.63560	0.32592
2005.70703	0.32314
2003.77847	0.32038
2001.84990	0.31769
1999.92134	0.31507
1997.99277	0.31247
1996.06421	0.30995
1994.13564	0.30763
1992.20708	0.30543
1990.27852	0.30299
1988.34995	0.30033
1986.42139	0.29772
1984.49282	0.29523
1982.56426	0.29282
1980.63569	0.29043
1978.70713	0.28809
1976.77856	0.28584
1974.85000	0.28363
1972.92144	0.28142
1970.99287	0.27931
1969.06431	0.27746
1967.13574	0.27578
1965.20718	0.27389
1963.27861	0.27175
1961.35005	0.26963
1959.42148	0.26767
1957.49292	0.26592
1955.56436	0.26419
1953.63579	0.26236
1951.70723	0.26054
1949.77866	0.25887
1947.85010	0.25737
1945.92153	0.25610
1943.99297	0.25502
1942.06440	0.25373
1940.13584	0.25196
1938.20728	0.25021
1936.27871	0.24878
1934.35015	0.24752
1932.42158	0.24632
1930.49302	0.24517
1928.56445	0.24408
1926.63589	0.24307
1924.70732	0.24227
1922.77876	0.24160
1920.85020	0.24067
1918.92163	0.23973
1916.99307	0.23891
1915.06450	0.23789
1913.13594	0.23686
1911.20737	0.23624
1909.27881	0.23579
1907.35024	0.23520
1905.42168	0.23448
1903.49312	0.23378
1901.56455	0.23310
1899.63599	0.23258
1897.70742	0.23229
1895.77886	0.23207
1893.85029	0.23181
1891.92173	0.23153
1889.99316	0.23140
1888.06460	0.23116
1886.13604	0.23071
1884.20747	0.23037
1882.27891	0.23015
1880.35034	0.22996
1878.42178	0.22985
1876.49321	0.22987
1874.56465	0.22995
1872.63608	0.23023
1870.70752	0.23090
1868.77896	0.23183
1866.85039	0.23209
1864.92183	0.23156
1862.99326	0.23125
1861.06470	0.23142
1859.13613	0.23178
1857.20757	0.23207
1855.27900	0.23247
1853.35044	0.23297
1851.42187	0.23355
1849.49331	0.23428
1847.56475	0.23517
1845.63618	0.23619
1843.70762	0.23726
1841.77905	0.23785
1839.85049	0.23810
1837.92192	0.23881
1835.99336	0.23978
1834.06479	0.24068
1832.13623	0.24178
1830.20767	0.24359
1828.27910	0.24536
1826.35054	0.24638
1824.42197	0.24749
1822.49341	0.24858
1820.56484	0.24963
1818.63628	0.25089
1816.70771	0.25243
1814.77915	0.25404
1812.85059	0.25588
1810.92202	0.25810
1808.99346	0.26022
1807.06489	0.26197
1805.13633	0.26370
1803.20776	0.26605
1801.27920	0.26897
1799.35063	0.27198
1797.42207	0.27446
1795.49351	0.27682
1793.56494	0.27975
1791.63638	0.28353
1789.70781	0.28674
1787.77925	0.28893
1785.85068	0.29182
1783.92212	0.29551
1781.99355	0.29953
1780.06499	0.30381
1778.13643	0.30809
1776.20786	0.31210
1774.27930	0.31664
1772.35073	0.32288
1770.42217	0.32940
1768.49360	0.33451
1766.56504	0.33922
1764.63647	0.34416
1762.70791	0.34985
1760.77935	0.35705
1758.85078	0.36365
1756.92222	0.37031
1754.99365	0.37749
1753.06509	0.38395
1751.13652	0.39187
1749.20796	0.40191
1747.27939	0.41157
1745.35083	0.41996
1743.42227	0.42903
1741.49370	0.43928
1739.56514	0.45176
1737.63657	0.46447
1735.70801	0.47594
1733.77944	0.49345
1731.85088	0.51363
1729.92231	0.52877
1727.99375	0.54412
1726.06519	0.56117
1724.13662	0.58013
1722.20806	0.60056
1720.27949	0.61955
1718.35093	0.64217
1716.42236	0.67503
1714.49380	0.70539
1712.56523	0.72978
1710.63667	0.75364
1708.70811	0.77958
1706.77954	0.80935
1704.85098	0.84500
1702.92241	0.87690
1700.99385	0.90882
1699.06528	0.95622
1697.13672	0.99960
1695.20815	1.04421
1693.27959	1.08821
1691.35103	1.12459
1689.42246	1.16728
1687.49390	1.21234
1685.56533	1.25571
1683.63677	1.32242
1681.70820	1.39156
1679.77964	1.43598
1677.85107	1.47847
1675.92251	1.52771
1673.99395	1.58913
1672.06538	1.64410
1670.13682	1.69808
1668.20825	1.76913
1666.27969	1.82833
1664.35112	1.87937
1662.42256	1.94356
1660.49399	2.01639
1658.56543	2.07457
1656.63687	2.12238
1654.70830	2.16506
1652.77974	2.22702
1650.85117	2.28406
1648.92261	2.30277
1646.99404	2.32491
1645.06548	2.34811
1643.13691	2.36307
1641.20835	2.37049
1639.27979	2.37726
1637.35122	2.37943
1635.42266	2.37408
1633.49409	2.36492
1631.56553	2.35179
1629.63696	2.33392
1627.70840	2.30270
1625.77983	2.26584
1623.85127	2.21954
1621.92271	2.16396
1619.99414	2.11534
1618.06558	2.06810
1616.13701	2.00161
1614.20845	1.93390
1612.27988	1.88141
1610.35132	1.82696
1608.42275	1.76892
1606.49419	1.71250
1604.56562	1.66111
1602.63706	1.61187
1600.70850	1.56386
1598.77993	1.51939
1596.85137	1.47741
1594.92280	1.43696
1592.99424	1.39846
1591.06567	1.36335
1589.13711	1.33050
1587.20854	1.30027
1585.27998	1.27287
1583.35142	1.24786
1581.42285	1.22564
1579.49429	1.20724
1577.56572	1.19150
1575.63716	1.17290
1573.70859	1.15605
1571.78003	1.14547
1569.85146	1.13663
1567.92290	1.12812
1565.99434	1.12222
1564.06577	1.11873
1562.13721	1.11701
1560.20864	1.11858
1558.28008	1.12720
1556.35151	1.13484
1554.42295	1.13858
1552.49438	1.14273
1550.56582	1.14534
1548.63726	1.14484
1546.70869	1.14081
1544.78013	1.13275
1542.85156	1.12044
1540.92300	1.10123
1538.99443	1.06938
1537.06587	1.04426
1535.13730	1.02716
1533.20874	1.00496
1531.28018	0.98090
1529.35161	0.96338
1527.42305	0.94732
1525.49448	0.93080
1523.56592	0.91680
1521.63735	0.90402
1519.70879	0.89152
1517.78022	0.88091
1515.85166	0.86818
1513.92310	0.85406
1511.99453	0.84127
1510.06597	0.82977
1508.13740	0.81905
1506.20884	0.80263
1504.28027	0.78723
1502.35171	0.77832
1500.42314	0.77113
1498.49458	0.76396
1496.56602	0.75544
1494.63745	0.74638
1492.70889	0.73938
1490.78032	0.73379
1488.85176	0.72748
1486.92319	0.72091
1484.99463	0.71558
1483.06606	0.71171
1481.13750	0.70891
1479.20894	0.70701
1477.28037	0.70622
1475.35181	0.70650
1473.42324	0.70730
1471.49468	0.70658
1469.56611	0.70377
1467.63755	0.70098
1465.70898	0.69902
1463.78042	0.69759
1461.85186	0.69677
1459.92329	0.69694
1457.99473	0.69799
1456.06616	0.69795
1454.13760	0.69538
1452.20903	0.69255
1450.28047	0.68995
1448.35190	0.68732
1446.42334	0.68430
1444.49478	0.68118
1442.56621	0.67820
1440.63765	0.67530
1438.70908	0.67255
1436.78052	0.66911
1434.85195	0.66471
1432.92339	0.66115
1430.99482	0.65909
1429.06626	0.65812
1427.13770	0.65779
1425.20913	0.65820
1423.28057	0.65928
1421.35200	0.66035
1419.42344	0.66142
1417.49487	0.66185
1415.56631	0.66092
1413.63774	0.66016
1411.70918	0.66056
1409.78062	0.66206
1407.85205	0.66413
1405.92349	0.66658
1403.99492	0.66882
1402.06636	0.66967
1400.13779	0.66927
1398.20923	0.66793
1396.28066	0.66537
1394.35210	0.66108
1392.42354	0.65576
1390.49497	0.65077
1388.56641	0.64592
1386.63784	0.64024
1384.70928	0.63388
1382.78071	0.62777
1380.85215	0.62219
1378.92358	0.61751
1376.99502	0.61409
1375.06646	0.61183
1373.13789	0.61021
1371.20933	0.60901
1369.28076	0.60810
1367.35220	0.60697
1365.42363	0.60553
1363.49507	0.60416
1361.56650	0.60264
1359.63794	0.60078
1357.70937	0.59911
1355.78081	0.59785
1353.85225	0.59689
1351.92368	0.59612
1349.99512	0.59551
1348.06655	0.59489
1346.13799	0.59414
1344.20942	0.59338
1342.28086	0.59287
1340.35229	0.59271
1338.42373	0.59238
1336.49517	0.59164
1334.56660	0.59105
1332.63804	0.59097
1330.70947	0.59134
1328.78091	0.59203
1326.85234	0.59303
1324.92378	0.59420
1322.99521	0.59533
1321.06665	0.59640
1319.13809	0.59746
1317.20952	0.59816
1315.28096	0.59834
1313.35239	0.59818
1311.42383	0.59775
1309.49526	0.59720
1307.56670	0.59672
1305.63813	0.59636
1303.70957	0.59589
1301.78101	0.59527
1299.85244	0.59445
1297.92388	0.59337
1295.99531	0.59212
1294.06675	0.59079
1292.13818	0.58943
1290.20962	0.58818
1288.28105	0.58697
1286.35249	0.58555
1284.42393	0.58392
1282.49536	0.58222
1280.56680	0.58053
1278.63823	0.57882
1276.70967	0.57707
1274.78110	0.57562
1272.85254	0.57484
1270.92397	0.57430
1268.99541	0.57351
1267.06685	0.57262
1265.13828	0.57184
1263.20972	0.57101
1261.28115	0.57008
1259.35259	0.56922
1257.42402	0.56855
1255.49546	0.56829
1253.56689	0.56836
1251.63833	0.56854
1249.70977	0.56887
1247.78120	0.56916
1245.85264	0.56912
1243.92407	0.56862
1241.99551	0.56764
1240.06694	0.56610
1238.13838	0.56405
1236.20981	0.56171
1234.28125	0.55928
1232.35269	0.55684
1230.42412	0.55442
1228.49556	0.55210
1226.56699	0.54991
1224.63843	0.54793
1222.70986	0.54612
1220.78130	0.54441
1218.85273	0.54284
1216.92417	0.54147
1214.99561	0.54024
1213.06704	0.53918
1211.13848	0.53834
1209.20991	0.53758
1207.28135	0.53669
1205.35278	0.53558
1203.42422	0.53442
1201.49565	0.53343
1199.56709	0.53267
1197.63853	0.53204
1195.70996	0.53152
1193.78140	0.53117
1191.85283	0.53094
1189.92427	0.53080
1187.99570	0.53070
1186.06714	0.53058
1184.13857	0.53054
1182.21001	0.53099
1180.28145	0.53210
1178.35288	0.53349
1176.42432	0.53475
1174.49575	0.53573
1172.56719	0.53631
1170.63862	0.53636
1168.71006	0.53590
1166.78149	0.53519
1164.85293	0.53448
1162.92437	0.53386
1160.99580	0.53317
1159.06724	0.53223
1157.13867	0.53116
1155.21011	0.53008
1153.28154	0.52890
1151.35298	0.52749
1149.42441	0.52553
1147.49585	0.52299
1145.56729	0.52033
1143.63872	0.51794
1141.71016	0.51590
1139.78159	0.51419
1137.85303	0.51281
1135.92446	0.51183
1133.99590	0.51129
1132.06733	0.51098
1130.13877	0.51050
1128.21021	0.50955
1126.28164	0.50829
1124.35308	0.50721
1122.42451	0.50638
1120.49595	0.50569
1118.56738	0.50524
1116.63882	0.50506
1114.71025	0.50512
1112.78169	0.50533
1110.85312	0.50556
1108.92456	0.50599
1106.99600	0.50676
1105.06743	0.50793
1103.13887	0.50943
1101.21030	0.51105
1099.28174	0.51292
1097.35317	0.51542
1095.42461	0.51868
1093.49604	0.52249
1091.56748	0.52648
1089.63892	0.53077
1087.71035	0.53596
1085.78179	0.54217
1083.85322	0.54882
1081.92466	0.55513
1079.99609	0.56035
1078.06753	0.56359
1076.13896	0.56418
1074.21040	0.56204
1072.28184	0.55763
1070.35327	0.55157
1068.42471	0.54482
1066.49614	0.53803
1064.56758	0.53152
1062.63901	0.52578
1060.71045	0.52087
1058.78188	0.51636
1056.85332	0.51210
1054.92476	0.50826
1052.99619	0.50493
1051.06763	0.50196
1049.13906	0.49932
1047.21050	0.49731
1045.28193	0.49579
1043.35337	0.49429
1041.42480	0.49281
1039.49624	0.49155
1037.56768	0.49051
1035.63911	0.48971
1033.71055	0.48905
1031.78198	0.48836
1029.85342	0.48774
1027.92485	0.48732
1025.99629	0.48695
1024.06772	0.48682
1022.13916	0.48731
1020.21060	0.48824
1018.28203	0.48900
1016.35347	0.48934
1014.42490	0.48960
1012.49634	0.49027
1010.56777	0.49143
1008.63921	0.49275
1006.71064	0.49404
1004.78208	0.49565
1002.85352	0.49789
1000.92495	0.50062
998.99639	0.50376
997.06782	0.50745
995.13926	0.51173
993.21069	0.51605
991.28213	0.51954
989.35356	0.52184
987.42500	0.52327
985.49644	0.52425
983.56787	0.52496
981.63931	0.52572
979.71074	0.52693
977.78218	0.52869
975.85361	0.53098
973.92505	0.53365
971.99648	0.53648
970.06792	0.53969
968.13936	0.54338
966.21079	0.54724
964.28223	0.55128
962.35366	0.55586
960.42510	0.56115
958.49653	0.56695
956.56797	0.57310
954.63940	0.57925
952.71084	0.58534
950.78228	0.59172
948.85371	0.59805
946.92515	0.60416
944.99658	0.61062
943.06802	0.61744
941.13945	0.62403
939.21089	0.63016
937.28232	0.63603
935.35376	0.64166
933.42520	0.64702
931.49663	0.65226
929.56807	0.65775
927.63950	0.66383
925.71094	0.67016
923.78237	0.67626
921.85381	0.68219
919.92524	0.68873
917.99668	0.69657
916.06812	0.70486
914.13955	0.71256
912.21099	0.72029
910.28242	0.72850
908.35386	0.73690
906.42529	0.74555
904.49673	0.75409
902.56816	0.76222
900.63960	0.77092
898.71104	0.78076
896.78247	0.79085
894.85391	0.80070
892.92534	0.81110
890.99678	0.82190
889.06821	0.83199
887.13965	0.84189
885.21108	0.85331
883.28252	0.86593
881.35396	0.87832
879.42539	0.89069
877.49683	0.90289
875.56826	0.91430
873.63970	0.92535
871.71113	0.93609
869.78257	0.94729
867.85400	0.95911
865.92544	0.97111
863.99687	0.98402
862.06831	0.99610
860.13975	1.00526
858.21118	1.01332
856.28262	1.02306
854.35405	1.03506
852.42549	1.04723
850.49692	1.05945
848.56836	1.07249
846.63979	1.08531
844.71123	1.09933
842.78267	1.11418
840.85410	1.12594
838.92554	1.13636
836.99697	1.15001
835.06841	1.16290
833.13984	1.17087
831.21128	1.17770
829.28271	1.18339
827.35415	1.18659
825.42559	1.19291
823.49702	1.20464
821.56846	1.21983
819.63989	1.24029
817.71133	1.26112
815.78276	1.27705
813.85420	1.28912
811.92563	1.29606
809.99707	1.30308
808.06851	1.31413
806.13994	1.33068
804.21138	1.35255
802.28281	1.36710
800.35425	1.36374
798.42568	1.35462
796.49712	1.35814
794.56855	1.38157
792.63999	1.41330
790.71143	1.41145
788.78286	1.38342
786.85430	1.37090
784.92573	1.35356
782.99717	1.32562
781.06860	1.31533
779.14004	1.29365
777.21147	1.25021
775.28291	1.22357
773.35435	1.23908
771.42578	1.30577
769.49722	1.39555
767.56865	1.46249
765.64009	1.45430
763.71152	1.37988
761.78296	1.32600
759.85439	1.34892
757.92583	1.42292
755.99727	1.41049
754.06870	1.27932
752.14014	1.15653
750.21157	1.06851
748.28301	1.03491
746.35444	1.06783
744.42588	1.10052
742.49731	1.08978
740.56875	1.08523
738.64019	1.07514
736.71162	1.07416
734.78306	1.07316
732.85449	0.91650
730.92593	0.77475
728.99736	0.84443
727.06880	1.01365
725.14023	0.85894
723.21167	0.71492
721.28311	0.64274
719.35454	0.59564
717.42598	0.49411
715.49741	0.31845
713.56885	0.18731
711.64028	0.18036
709.71172	0.27305
707.78315	0.45568
705.85459	0.51084
703.92603	0.35874
701.99746	0.29290
700.06890	0.31521
698.14033	0.32751
696.21177	0.31613
694.28320	0.27524
692.35464	0.23259
690.42607	0.24700
688.49751	0.29791
686.56895	0.33072
684.64038	0.28661
682.71182	0.20096
680.78325	0.13220
678.85469	0.09783
676.92612	0.07735
674.99756	0.08354
673.06899	0.18886
671.14043	0.35227
669.21187	0.40548
667.28330	0.27171
665.35474	0.16270
663.42617	0.12567
661.49761	0.14510
659.56904	0.23685
657.64048	0.28538
655.71191	0.19419
653.78335	0.13867
651.85479	0.22307
649.92622	0.29079
647.99766	0.25459
646.06909	0.22809
644.14053	0.28417
642.21196	0.35777
640.28340	0.25937
638.35483	0.11994
636.42627	0.09462
634.49771	0.14641
632.56914	0.15998
630.64058	0.09122
628.71201	0.07396
626.78345	0.12714
624.85488	0.19147
622.92632	0.21858
620.99775	0.20071
619.06919	0.19833
617.14062	0.19989
615.21206	0.14676
613.28350	0.10517
611.35493	0.14203
609.42637	0.18823
607.49780	0.21773
605.56924	0.23676
603.64067	0.21742
601.71211	0.18216
599.78354	0.20281
597.85498	0.25830
595.92642	0.30890
593.99785	0.35689
592.06929	0.33462
590.14072	0.24535
588.21216	0.19969
586.28359	0.18421
584.35503	0.15063
582.42646	0.10143
580.49790	0.09290
578.56934	0.19083
576.64077	0.23653
574.71221	0.18379
572.78364	0.14450
570.85508	0.13364
568.92651	0.12336
566.99795	0.13376
565.06938	0.15312
563.14082	0.11704
561.21226	0.05639
559.28369	0.04542
557.35513	0.05973
555.42656	0.10000
553.49800	0.18399
551.56943	0.20869
549.64087	0.18684
547.71230	0.17086
545.78374	0.17928
543.85518	0.22053
541.92661	0.34589
539.99805	0.52771
538.06948	0.34597
536.14092	0.15104
534.21235	0.07721
532.28379	0.09251
530.35522	0.10554
528.42666	0.10627
526.49810	0.13053
524.56953	0.16622
522.64097	0.18037
520.71240	0.21168
518.78384	0.23515
516.85527	0.14961
514.92671	0.06651
512.99814	0.07839
511.06958	0.13768
509.14102	0.22484
507.21245	0.33732
505.28389	0.41481
503.35532	0.38013
501.42676	0.26903
499.49819	0.18264
