3997.91411	0.06820
3995.98555	0.06882
3994.05698	0.06948
3992.12842	0.07006
3990.19985	0.07045
3988.27129	0.07073
3986.34272	0.07103
3984.41416	0.07147
3982.48560	0.07180
3980.55703	0.07184
3978.62847	0.07178
3976.69990	0.07178
3974.77134	0.07192
3972.84277	0.07223
3970.91421	0.07252
3968.98564	0.07260
3967.05708	0.07254
3965.12852	0.07247
3963.19995	0.07281
3961.27139	0.07325
3959.34282	0.07304
3957.41426	0.07262
3955.48569	0.07281
3953.55713	0.07317
3951.62856	0.07311
3949.70000	0.07323
3947.77144	0.07394
3945.84287	0.07459
3943.91431	0.07488
3941.98574	0.07474
3940.05718	0.07404
3938.12861	0.07348
3936.20005	0.07344
3934.27148	0.07400
3932.34292	0.07509
3930.41436	0.07545
3928.48579	0.07474
3926.55723	0.07446
3924.62866	0.07503
3922.70010	0.07537
3920.77153	0.07492
3918.84297	0.07446
3916.91440	0.07436
3914.98584	0.07398
3913.05728	0.07326
3911.12871	0.07274
3909.20015	0.07278
3907.27158	0.07368
3905.34302	0.07563
3903.41445	0.07790
3901.48589	0.07894
3899.55732	0.07835
3897.62876	0.07659
3895.70020	0.07490
3893.77163	0.07465
3891.84307	0.07570
3889.91450	0.07604
3887.98594	0.07510
3886.05737	0.07511
3884.12881	0.07637
3882.20024	0.07712
3880.27168	0.07717
3878.34312	0.07648
3876.41455	0.07569
3874.48599	0.07642
3872.55742	0.07848
3870.62886	0.08061
3868.70029	0.08148
3866.77173	0.08043
3864.84316	0.07996
3862.91460	0.08063
3860.98604	0.08041
3859.05747	0.07962
3857.12891	0.07976
3855.20034	0.08158
3853.27178	0.08540
3851.34321	0.08719
3849.41465	0.08430
3847.48608	0.08136
3845.55752	0.08035
3843.62896	0.08169
3841.70039	0.08436
3839.77183	0.08682
3837.84326	0.08853
3835.91470	0.08884
3833.98613	0.08835
3832.05757	0.08786
3830.12900	0.08728
3828.20044	0.08720
3826.27187	0.08837
3824.34331	0.09010
3822.41475	0.09186
3820.48618	0.09438
3818.55762	0.09577
3816.62905	0.09563
3814.70049	0.09538
3812.77192	0.09446
3810.84336	0.09382
3808.91479	0.09464
3806.98623	0.09700
3805.05767	0.09921
3803.12910	0.10079
3801.20054	0.10345
3799.27197	0.10536
3797.34341	0.10523
3795.41484	0.10486
3793.48628	0.10440
3791.55771	0.10445
3789.62915	0.10526
3787.70059	0.10644
3785.77202	0.10843
3783.84346	0.11072
3781.91489	0.11197
3779.98633	0.11320
3778.05776	0.11512
3776.12920	0.11625
3774.20063	0.11703
3772.27207	0.11870
3770.34351	0.12168
3768.41494	0.12501
3766.48638	0.12701
3764.55781	0.12856
3762.62925	0.13040
3760.70068	0.13284
3758.77212	0.13620
3756.84355	0.13933
3754.91499	0.14174
3752.98643	0.14488
3751.05786	0.15035
3749.12930	0.15626
3747.20073	0.15841
3745.27217	0.15945
3743.34360	0.16200
3741.41504	0.16458
3739.48647	0.16666
3737.55791	0.17018
3735.62935	0.17682
3733.70078	0.18434
3731.77222	0.18762
3729.84365	0.18848
3727.91509	0.19055
3725.98652	0.19548
3724.05796	0.20262
3722.12939	0.21004
3720.20083	0.21720
3718.27227	0.22434
3716.34370	0.23210
3714.41514	0.24054
3712.48657	0.25098
3710.55801	0.26521
3708.62944	0.27886
3706.70088	0.28897
3704.77231	0.29898
3702.84375	0.31182
3700.91519	0.32955
3698.98662	0.34877
3697.05806	0.36624
3695.12949	0.38485
3693.20093	0.40512
3691.27236	0.42792
3689.34380	0.45813
3687.41523	0.49343
3685.48667	0.52270
3683.55811	0.54820
3681.62954	0.57623
3679.70098	0.60836
3677.77241	0.64280
3675.84385	0.68397
3673.91528	0.73888
3671.98672	0.78291
3670.05815	0.82164
3668.12959	0.87454
3666.20103	0.92192
3664.27246	0.96136
3662.34390	1.00438
3660.41533	1.05140
3658.48677	1.09802
3656.55820	1.14780
3654.62964	1.20328
3652.70107	1.24967
3650.77251	1.29048
3648.84395	1.34820
3646.91538	1.41804
3644.98682	1.46676
3643.05825	1.50360
3641.12969	1.54227
3639.20112	1.58568
3637.27256	1.62935
3635.34399	1.67150
3633.41543	1.71393
3631.48687	1.75471
3629.55830	1.79695
3627.62974	1.85087
3625.70117	1.89945
3623.77261	1.93190
3621.84404	1.96401
3619.91548	2.00301
3617.98691	2.05076
3616.05835	2.09432
3614.12979	2.12977
3612.20122	2.16893
3610.27266	2.20913
3608.34409	2.24857
3606.41553	2.28941
3604.48696	2.32700
3602.55840	2.36082
3600.62983	2.39807
3598.70127	2.43923
3596.77271	2.47868
3594.84414	2.51837
3592.91558	2.56058
3590.98701	2.60017
3589.05845	2.63628
3587.12988	2.68000
3585.20132	2.72828
3583.27275	2.76748
3581.34419	2.80308
3579.41562	2.84346
3577.48706	2.88834
3575.55850	2.93146
3573.62993	2.97199
3571.70137	3.01189
3569.77280	3.05228
3567.84424	3.09639
3565.91567	3.14972
3563.98711	3.20057
3562.05854	3.24151
3560.12998	3.28133
3558.20142	3.32273
3556.27285	3.36657
3554.34429	3.41212
3552.41572	3.45960
3550.48716	3.50831
3548.55859	3.55426
3546.63003	3.59606
3544.70146	3.63877
3542.77290	3.68432
3540.84434	3.72988
3538.91577	3.77656
3536.98721	3.82515
3535.05864	3.87497
3533.13008	3.92321
3531.20151	3.97083
3529.27295	4.02009
3527.34438	4.06941
3525.41582	4.11508
3523.48726	4.15983
3521.55869	4.20955
3519.63013	4.26090
3517.70156	4.30958
3515.77300	4.35396
3513.84443	4.39823
3511.91587	4.44814
3509.98730	4.50100
3508.05874	4.55114
3506.13018	4.59667
3504.20161	4.63980
3502.27305	4.68527
3500.34448	4.73371
3498.41592	4.78053
3496.48735	4.82454
3494.55879	4.86706
3492.63022	4.91457
3490.70166	4.97160
3488.77310	5.02930
3486.84453	5.07806
3484.91597	5.12057
3482.98740	5.16612
3481.05884	5.21854
3479.13027	5.27098
3477.20171	5.31993
3475.27314	5.36851
3473.34458	5.42008
3471.41602	5.47349
3469.48745	5.52053
3467.55889	5.55946
3465.63032	5.59870
3463.70176	5.64819
3461.77319	5.70264
3459.84463	5.75870
3457.91606	5.81964
3455.98750	5.86720
3454.05894	5.90263
3452.13037	5.96112
3450.20181	6.03604
3448.27324	6.09124
3446.34468	6.13705
3444.41611	6.19718
3442.48755	6.25988
3440.55898	6.30202
3438.63042	6.32938
3436.70186	6.36108
3434.77329	6.40121
3432.84473	6.45004
3430.91616	6.51255
3428.98760	6.58309
3427.05903	6.64147
3425.13047	6.68747
3423.20190	6.72749
3421.27334	6.78221
3419.34478	6.85422
3417.41621	6.90401
3415.48765	6.93313
3413.55908	6.97297
3411.63052	7.01753
3409.70195	7.05621
3407.77339	7.12117
3405.84482	7.21153
3403.91626	7.29479
3401.98770	7.35913
3400.05913	7.39383
3398.13057	7.37701
3396.20200	7.36050
3394.27344	7.39467
3392.34487	7.42130
3390.41631	7.44327
3388.48774	7.50486
3386.55918	7.58120
3384.63062	7.63232
3382.70205	7.68216
3380.77349	7.72552
3378.84492	7.73824
3376.91636	7.76177
3374.98779	7.80198
3373.05923	7.86348
3371.13066	7.91766
3369.20210	7.92497
3367.27354	7.88886
3365.34497	7.86869
3363.41641	7.90691
3361.48784	7.96329
3359.55928	8.00115
3357.63071	7.99788
3355.70215	7.97091
3353.77358	7.98815
3351.84502	8.07691
3349.91646	8.12975
3347.98789	8.13919
3346.05933	8.15490
3344.13076	8.12226
3342.20220	8.07969
3340.27363	8.10248
3338.34507	8.14652
3336.41650	8.09955
3334.48794	8.04912
3332.55937	8.09428
3330.63081	8.18255
3328.70225	8.24708
3326.77368	8.28540
3324.84512	8.28365
3322.91655	8.23507
3320.98799	8.20833
3319.05942	8.17336
3317.13086	8.15122
3315.20229	8.18665
3313.27373	8.21439
3311.34517	8.17022
3309.41660	8.10415
3307.48804	8.13845
3305.55947	8.25767
3303.63091	8.30674
3301.70234	8.25376
3299.77378	8.24468
3297.84521	8.29960
3295.91665	8.31833
3293.98809	8.28239
3292.05952	8.29207
3290.13096	8.31494
3288.20239	8.31402
3286.27383	8.44732
3284.34526	8.57784
3282.41670	8.47277
3280.48813	8.35752
3278.55957	8.38894
3276.63101	8.43294
3274.70244	8.40287
3272.77388	8.38791
3270.84531	8.49022
3268.91675	8.71506
3266.98818	8.85943
3265.05962	8.79072
3263.13105	8.64392
3261.20249	8.57775
3259.27393	8.57161
3257.34536	8.50918
3255.41680	8.40016
3253.48823	8.32835
3251.55967	8.28237
3249.63110	8.19143
3247.70254	8.11629
3245.77397	8.12247
3243.84541	8.20789
3241.91685	8.29646
3239.98828	8.33824
3238.05972	8.40519
3236.13115	8.42132
3234.20259	8.29076
3232.27402	8.18742
3230.34546	8.23474
3228.41689	8.29167
3226.48833	8.26130
3224.55977	8.24170
3222.63120	8.21889
3220.70264	8.13568
3218.77407	8.03559
3216.84551	7.99544
3214.91694	8.03191
3212.98838	8.03436
3211.05981	7.93718
3209.13125	7.88052
3207.20269	7.92527
3205.27412	7.96353
3203.34556	7.96980
3201.41699	7.97034
3199.48843	7.91116
3197.55986	7.77604
3195.63130	7.65301
3193.70273	7.60547
3191.77417	7.59246
3189.84561	7.58688
3187.91704	7.57007
3185.98848	7.51370
3184.05991	7.44625
3182.13135	7.40376
3180.20278	7.39396
3178.27422	7.36690
3176.34565	7.28094
3174.41709	7.16263
3172.48853	7.06038
3170.55996	6.99580
3168.63140	6.94331
3166.70283	6.88129
3164.77427	6.81255
3162.84570	6.75848
3160.91714	6.73706
3158.98857	6.70909
3157.06001	6.62729
3155.13145	6.51829
3153.20288	6.42085
3151.27432	6.34011
3149.34575	6.26719
3147.41719	6.19679
3145.48862	6.13177
3143.56006	6.07057
3141.63149	6.01228
3139.70293	5.94678
3137.77437	5.85590
3135.84580	5.75330
3133.91724	5.67232
3131.98867	5.60788
3130.06011	5.53709
3128.13154	5.46660
3126.20298	5.40332
3124.27441	5.33490
3122.34585	5.25711
3120.41729	5.18073
3118.48872	5.10759
3116.56016	5.03444
3114.63159	4.95891
3112.70303	4.88134
3110.77446	4.80900
3108.84590	4.74201
3106.91733	4.67515
3104.98877	4.60478
3103.06021	4.53354
3101.13164	4.46656
3099.20308	4.40236
3097.27451	4.33665
3095.34595	4.26561
3093.41738	4.19228
3091.48882	4.12481
3089.56025	4.06265
3087.63169	3.99830
3085.70312	3.93103
3083.77456	3.86578
3081.84600	3.80242
3079.91743	3.73859
3077.98887	3.67623
3076.06030	3.61637
3074.13174	3.55742
3072.20317	3.49869
3070.27461	3.44004
3068.34604	3.38143
3066.41748	3.32264
3064.48892	3.26424
3062.56035	3.20731
3060.63179	3.15263
3058.70322	3.09926
3056.77466	3.04478
3054.84609	2.99074
3052.91753	2.93938
3050.98896	2.88899
3049.06040	2.83891
3047.13184	2.78970
3045.20327	2.74062
3043.27471	2.69190
3041.34614	2.64391
3039.41758	2.59638
3037.48901	2.55038
3035.56045	2.50566
3033.63188	2.46061
3031.70332	2.41552
3029.77476	2.37131
3027.84619	2.32811
3025.91763	2.28595
3023.98906	2.24475
3022.06050	2.20399
3020.13193	2.16361
3018.20337	2.12381
3016.27480	2.08426
3014.34624	2.04522
3012.41768	2.00717
3010.48911	1.96997
3008.56055	1.93358
3006.63198	1.89805
3004.70342	1.86319
3002.77485	1.82884
3000.84629	1.79480
2998.91772	1.76100
2996.98916	1.72806
2995.06060	1.69620
2993.13203	1.66456
2991.20347	1.63291
2989.27490	1.60156
2987.34634	1.57054
2985.41777	1.54043
2983.48921	1.51146
2981.56064	1.48294
2979.63208	1.45496
2977.70352	1.42751
2975.77495	1.39972
2973.84639	1.37155
2971.91782	1.34403
2969.98926	1.31789
2968.06069	1.29266
2966.13213	1.26762
2964.20356	1.24291
2962.27500	1.21910
2960.34644	1.19608
2958.41787	1.17342
2956.48931	1.15092
2954.56074	1.12850
2952.63218	1.10631
2950.70361	1.08469
2948.77505	1.06379
2946.84648	1.04323
2944.91792	1.02277
2942.98936	1.00260
2941.06079	0.98282
2939.13223	0.96345
2937.20366	0.94430
2935.27510	0.92538
2933.34653	0.90722
2931.41797	0.88962
2929.48940	0.87199
2927.56084	0.85461
2925.63228	0.83811
2923.70371	0.82271
2921.77515	0.80787
2919.84658	0.79300
2917.91802	0.77809
2915.98945	0.76339
2914.06089	0.74879
2912.13232	0.73425
2910.20376	0.72040
2908.27520	0.70743
2906.34663	0.69459
2904.41807	0.68142
2902.48950	0.66859
2900.56094	0.65662
2898.63237	0.64506
2896.70381	0.63336
2894.77524	0.62171
2892.84668	0.61055
2890.91812	0.59970
2888.98955	0.58884
2887.06099	0.57810
2885.13242	0.56758
2883.20386	0.55721
2881.27529	0.54735
2879.34673	0.53784
2877.41816	0.52804
2875.48960	0.51825
2873.56104	0.50898
2871.63247	0.49992
2869.70391	0.49081
2867.77534	0.48183
2865.84678	0.47311
2863.91821	0.46446
2861.98965	0.45574
2860.06108	0.44711
2858.13252	0.43892
2856.20396	0.43108
2854.27539	0.42339
2852.34683	0.41616
2850.41826	0.40938
2848.48970	0.40267
2846.56113	0.39606
2844.63257	0.38979
2842.70400	0.38383
2840.77544	0.37803
2838.84687	0.37230
2836.91831	0.36677
2834.98975	0.36155
2833.06118	0.35649
2831.13262	0.35131
2829.20405	0.34593
2827.27549	0.34048
2825.34692	0.33514
2823.41836	0.32999
2821.48979	0.32510
2819.56123	0.32030
2817.63267	0.31532
2815.70410	0.31026
2813.77554	0.30541
2811.84697	0.30089
2809.91841	0.29643
2807.98984	0.29179
2806.06128	0.28718
2804.13271	0.28278
2802.20415	0.27866
2800.27559	0.27480
2798.34702	0.27100
2796.41846	0.26724
2794.48989	0.26349
2792.56133	0.25952
2790.63276	0.25557
2788.70420	0.25191
2786.77563	0.24838
2784.84707	0.24495
2782.91851	0.24159
2780.98994	0.23820
2779.06138	0.23488
2777.13281	0.23168
2775.20425	0.22853
2773.27568	0.22540
2771.34712	0.22242
2769.41855	0.21964
2767.48999	0.21685
2765.56143	0.21401
2763.63286	0.21122
2761.70430	0.20854
2759.77573	0.20587
2757.84717	0.20325
2755.91860	0.20084
2753.99004	0.19857
2752.06147	0.19621
2750.13291	0.19374
2748.20435	0.19140
2746.27578	0.18919
2744.34722	0.18691
2742.41865	0.18463
2740.49009	0.18259
2738.56152	0.18072
2736.63296	0.17891
2734.70439	0.17708
2732.77583	0.17521
2730.84727	0.17339
2728.91870	0.17162
2726.99014	0.16989
2725.06157	0.16822
2723.13301	0.16655
2721.20444	0.16487
2719.27588	0.16323
2717.34731	0.16180
2715.41875	0.16044
2713.49019	0.15896
2711.56162	0.15757
2709.63306	0.15642
2707.70449	0.15521
2705.77593	0.15382
2703.84736	0.15250
2701.91880	0.15127
2699.99023	0.14996
2698.06167	0.14862
2696.13311	0.14741
2694.20454	0.14636
2692.27598	0.14530
2690.34741	0.14411
2688.41885	0.14304
2686.49028	0.14231
2684.56172	0.14162
2682.63315	0.14072
2680.70459	0.13983
2678.77603	0.13913
2676.84746	0.13836
2674.91890	0.13742
2672.99033	0.13660
2671.06177	0.13587
2669.13320	0.13505
2667.20464	0.13437
2665.27607	0.13398
2663.34751	0.13355
2661.41895	0.13284
2659.49038	0.13207
2657.56182	0.13155
2655.63325	0.13129
2653.70469	0.13099
2651.77612	0.13049
2649.84756	0.12998
2647.91899	0.12958
2645.99043	0.12919
2644.06187	0.12880
2642.13330	0.12845
2640.20474	0.12816
2638.27617	0.12792
2636.34761	0.12770
2634.41904	0.12750
2632.49048	0.12731
2630.56191	0.12711
2628.63335	0.12708
2626.70479	0.12722
2624.77622	0.12714
2622.84766	0.12686
2620.91909	0.12668
2618.99053	0.12663
2617.06196	0.12658
2615.13340	0.12659
2613.20483	0.12664
2611.27627	0.12660
2609.34771	0.12659
2607.41914	0.12673
2605.49058	0.12693
2603.56201	0.12703
2601.63345	0.12702
2599.70488	0.12696
2597.77632	0.12699
2595.84775	0.12723
2593.91919	0.12766
2591.99062	0.12813
2590.06206	0.12848
2588.13350	0.12872
2586.20493	0.12910
2584.27637	0.12957
2582.34780	0.12986
2580.41924	0.13000
2578.49067	0.13024
2576.56211	0.13075
2574.63354	0.13142
2572.70498	0.13198
2570.77642	0.13236
2568.84785	0.13267
2566.91929	0.13303
2564.99072	0.13348
2563.06216	0.13400
2561.13359	0.13455
2559.20503	0.13515
2557.27646	0.13577
2555.34790	0.13635
2553.41934	0.13689
2551.49077	0.13755
2549.56221	0.13832
2547.63364	0.13896
2545.70508	0.13953
2543.77651	0.14022
2541.84795	0.14094
2539.91938	0.14164
2537.99082	0.14226
2536.06226	0.14277
2534.13369	0.14339
2532.20513	0.14421
2530.27656	0.14502
2528.34800	0.14578
2526.41943	0.14653
2524.49087	0.14720
2522.56230	0.14790
2520.63374	0.14876
2518.70518	0.14970
2516.77661	0.15056
2514.84805	0.15137
2512.91948	0.15222
2510.99092	0.15303
2509.06235	0.15384
2507.13379	0.15468
2505.20522	0.15542
2503.27666	0.15614
2501.34810	0.15700
2499.41953	0.15804
2497.49097	0.15905
2495.56240	0.15991
2493.63384	0.16073
2491.70527	0.16159
2489.77671	0.16246
2487.84814	0.16337
2485.91958	0.16438
2483.99102	0.16536
2482.06245	0.16631
2480.13389	0.16726
2478.20532	0.16819
2476.27676	0.16907
2474.34819	0.16995
2472.41963	0.17091
2470.49106	0.17199
2468.56250	0.17305
2466.63394	0.17403
2464.70537	0.17502
2462.77681	0.17603
2460.84824	0.17699
2458.91968	0.17793
2456.99111	0.17899
2455.06255	0.18008
2453.13398	0.18112
2451.20542	0.18212
2449.27686	0.18304
2447.34829	0.18396
2445.41973	0.18504
2443.49116	0.18629
2441.56260	0.18757
2439.63403	0.18869
2437.70547	0.18963
2435.77690	0.19060
2433.84834	0.19166
2431.91978	0.19279
2429.99121	0.19390
2428.06265	0.19487
2426.13408	0.19589
2424.20552	0.19711
2422.27695	0.19831
2420.34839	0.19938
2418.41982	0.20049
2416.49126	0.20165
2414.56270	0.20275
2412.63413	0.20392
2410.70557	0.20525
2408.77700	0.20660
2406.84844	0.20785
2404.91987	0.20911
2402.99131	0.21034
2401.06274	0.21147
2399.13418	0.21269
2397.20562	0.21414
2395.27705	0.21561
2393.34849	0.21700
2391.41992	0.21832
2389.49136	0.21963
2387.56279	0.22092
2385.63423	0.22217
2383.70566	0.22332
2381.77710	0.22442
2379.84854	0.22556
2377.91997	0.22687
2375.99141	0.22851
2374.06284	0.23045
2372.13428	0.23258
2370.20571	0.23481
2368.27715	0.23699
2366.34858	0.23998
2364.42002	0.24397
2362.49146	0.24652
2360.56289	0.24756
2358.63433	0.25016
2356.70576	0.25331
2354.77720	0.25342
2352.84863	0.25200
2350.92007	0.25148
2348.99150	0.25151
2347.06294	0.25188
2345.13437	0.25351
2343.20581	0.25674
2341.27725	0.25930
2339.34868	0.26034
2337.42012	0.26128
2335.49155	0.26285
2333.56299	0.26491
2331.63442	0.26708
2329.70586	0.26893
2327.77729	0.27045
2325.84873	0.27171
2323.92017	0.27286
2321.99160	0.27447
2320.06304	0.27648
2318.13447	0.27824
2316.20591	0.27966
2314.27734	0.28116
2312.34878	0.28289
2310.42021	0.28477
2308.49165	0.28674
2306.56309	0.28861
2304.63452	0.29023
2302.70596	0.29178
2300.77739	0.29346
2298.84883	0.29530
2296.92026	0.29717
2294.99170	0.29894
2293.06313	0.30076
2291.13457	0.30275
2289.20601	0.30479
2287.27744	0.30674
2285.34888	0.30869
2283.42031	0.31075
2281.49175	0.31281
2279.56318	0.31473
2277.63462	0.31660
2275.70605	0.31859
2273.77749	0.32070
2271.84893	0.32290
2269.92036	0.32502
2267.99180	0.32704
2266.06323	0.32911
2264.13467	0.33118
2262.20610	0.33320
2260.27754	0.33522
2258.34897	0.33738
2256.42041	0.33972
2254.49185	0.34211
2252.56328	0.34442
2250.63472	0.34670
2248.70615	0.34899
2246.77759	0.35116
2244.84902	0.35321
2242.92046	0.35532
2240.99189	0.35756
2239.06333	0.35974
2237.13477	0.36187
2235.20620	0.36418
2233.27764	0.36661
2231.34907	0.36888
2229.42051	0.37099
2227.49194	0.37316
2225.56338	0.37540
2223.63481	0.37763
2221.70625	0.37991
2219.77769	0.38225
2217.84912	0.38450
2215.92056	0.38662
2213.99199	0.38871
2212.06343	0.39090
2210.13486	0.39314
2208.20630	0.39533
2206.27773	0.39745
2204.34917	0.39957
2202.42061	0.40169
2200.49204	0.40367
2198.56348	0.40559
2196.63491	0.40759
2194.70635	0.40956
2192.77778	0.41150
2190.84922	0.41351
2188.92065	0.41552
2186.99209	0.41746
2185.06353	0.41938
2183.13496	0.42124
2181.20640	0.42290
2179.27783	0.42446
2177.34927	0.42618
2175.42070	0.42789
2173.49214	0.42945
2171.56357	0.43096
2169.63501	0.43238
2167.70645	0.43369
2165.77788	0.43496
2163.84932	0.43618
2161.92075	0.43731
2159.99219	0.43843
2158.06362	0.43952
2156.13506	0.44054
2154.20649	0.44153
2152.27793	0.44252
2150.34937	0.44342
2148.42080	0.44409
2146.49224	0.44466
2144.56367	0.44523
2142.63511	0.44575
2140.70654	0.44614
2138.77798	0.44642
2136.84941	0.44668
2134.92085	0.44694
2132.99229	0.44708
2131.06372	0.44704
2129.13516	0.44693
2127.20659	0.44681
2125.27803	0.44658
2123.34946	0.44624
2121.42090	0.44586
2119.49233	0.44539
2117.56377	0.44485
2115.63521	0.44423
2113.70664	0.44350
2111.77808	0.44273
2109.84951	0.44197
2107.92095	0.44108
2105.99238	0.44003
2104.06382	0.43897
2102.13525	0.43788
2100.20669	0.43665
2098.27812	0.43524
2096.34956	0.43376
2094.42100	0.43231
2092.49243	0.43088
2090.56387	0.42936
2088.63530	0.42772
2086.70674	0.42607
2084.77817	0.42445
2082.84961	0.42277
2080.92104	0.42093
2078.99248	0.41896
2077.06392	0.41692
2075.13535	0.41483
2073.20679	0.41273
2071.27822	0.41069
2069.34966	0.40868
2067.42109	0.40654
2065.49253	0.40430
2063.56396	0.40201
2061.63540	0.39955
2059.70684	0.39706
2057.77827	0.39473
2055.84971	0.39237
2053.92114	0.38977
2051.99258	0.38710
2050.06401	0.38455
2048.13545	0.38205
2046.20688	0.37950
2044.27832	0.37701
2042.34976	0.37448
2040.42119	0.37182
2038.49263	0.36912
2036.56406	0.36636
2034.63550	0.36354
2032.70693	0.36082
2030.77837	0.35832
2028.84980	0.35588
2026.92124	0.35337
2024.99268	0.35073
2023.06411	0.34798
2021.13555	0.34516
2019.20698	0.34248
2017.27842	0.33991
2015.34985	0.33712
2013.42129	0.33417
2011.49272	0.33140
2009.56416	0.32884
2007.63560	0.32631
2005.70703	0.32364
2003.77847	0.32082
2001.84990	0.31807
1999.92134	0.31552
1997.99277	0.31307
1996.06421	0.31066
1994.13564	0.30846
1992.20708	0.30632
1990.27852	0.30382
1988.34995	0.30114
1986.42139	0.29856
1984.49282	0.29605
1982.56426	0.29360
1980.63569	0.29119
1978.70713	0.28881
1976.77856	0.28656
1974.85000	0.28443
1972.92144	0.28229
1970.99287	0.28013
1969.06431	0.27816
1967.13574	0.27638
1965.20718	0.27443
1963.27861	0.27229
1961.35005	0.27026
1959.42148	0.26836
1957.49292	0.26651
1955.56436	0.26473
1953.63579	0.26300
1951.70723	0.26129
1949.77866	0.25956
1947.85010	0.25790
1945.92153	0.25650
1943.99297	0.25541
1942.06440	0.25413
1940.13584	0.25234
1938.20728	0.25056
1936.27871	0.24910
1934.35015	0.24783
1932.42158	0.24666
1930.49302	0.24552
1928.56445	0.24434
1926.63589	0.24318
1924.70732	0.24231
1922.77876	0.24163
1920.85020	0.24072
1918.92163	0.23975
1916.99307	0.23882
1915.06450	0.23772
1913.13594	0.23664
1911.20737	0.23589
1909.27881	0.23535
1907.35024	0.23472
1905.42168	0.23387
1903.49312	0.23308
1901.56455	0.23251
1899.63599	0.23204
1897.70742	0.23166
1895.77886	0.23143
1893.85029	0.23119
1891.92173	0.23083
1889.99316	0.23059
1888.06460	0.23025
1886.13604	0.22982
1884.20747	0.22953
1882.27891	0.22926
1880.35034	0.22904
1878.42178	0.22896
1876.49321	0.22891
1874.56465	0.22882
1872.63608	0.22900
1870.70752	0.22971
1868.77896	0.23086
1866.85039	0.23136
1864.92183	0.23086
1862.99326	0.23037
1861.06470	0.23030
1859.13613	0.23059
1857.20757	0.23096
1855.27900	0.23134
1853.35044	0.23171
1851.42187	0.23218
1849.49331	0.23286
1847.56475	0.23379
1845.63618	0.23503
1843.70762	0.23626
1841.77905	0.23663
1839.85049	0.23663
1837.92192	0.23731
1835.99336	0.23825
1834.06479	0.23908
1832.13623	0.24018
1830.20767	0.24205
1828.27910	0.24374
1826.35054	0.24462
1824.42197	0.24565
1822.49341	0.24664
1820.56484	0.24753
1818.63628	0.24868
1816.70771	0.25026
1814.77915	0.25203
1812.85059	0.25406
1810.92202	0.25631
1808.99346	0.25824
1807.06489	0.25984
1805.13633	0.26160
1803.20776	0.26400
1801.27920	0.26684
1799.35063	0.26973
1797.42207	0.27217
1795.49351	0.27468
1793.56494	0.27787
1791.63638	0.28175
1789.70781	0.28487
1787.77925	0.28706
1785.85068	0.28999
1783.92212	0.29365
1781.99355	0.29771
1780.06499	0.30196
1778.13643	0.30608
1776.20786	0.31009
1774.27930	0.31492
1772.35073	0.32143
1770.42217	0.32763
1768.49360	0.33225
1766.56504	0.33687
1764.63647	0.34201
1762.70791	0.34801
1760.77935	0.35554
1758.85078	0.36248
1756.92222	0.36957
1754.99365	0.37729
1753.06509	0.38428
1751.13652	0.39285
1749.20796	0.40381
1747.27939	0.41436
1745.35083	0.42327
1743.42227	0.43265
1741.49370	0.44309
1739.56514	0.45550
1737.63657	0.46806
1735.70801	0.47924
1733.77944	0.49605
1731.85088	0.51563
1729.92231	0.53060
1727.99375	0.54554
1726.06519	0.56167
1724.13662	0.57981
1722.20806	0.59988
1720.27949	0.61857
1718.35093	0.64053
1716.42236	0.67292
1714.49380	0.70314
1712.56523	0.72694
1710.63667	0.74992
1708.70811	0.77484
1706.77954	0.80345
1704.85098	0.83781
1702.92241	0.86851
1700.99385	0.89873
1699.06528	0.94318
1697.13672	0.98330
1695.20815	1.02371
1693.27959	1.06242
1691.35103	1.09360
1689.42246	1.12981
1687.49390	1.16765
1685.56533	1.20391
1683.63677	1.25992
1681.70820	1.31698
1679.77964	1.35296
1677.85107	1.38767
1675.92251	1.42811
1673.99395	1.47799
1672.06538	1.52174
1670.13682	1.56439
1668.20825	1.61836
1666.27969	1.66004
1664.35112	1.69463
1662.42256	1.73805
1660.49399	1.78652
1658.56543	1.82466
1656.63687	1.85654
1654.70830	1.88748
1652.77974	1.93975
1650.85117	1.99117
1648.92261	2.01210
1646.99404	2.04032
1645.06548	2.07443
1643.13691	2.09774
1641.20835	2.11260
1639.27979	2.12518
1637.35122	2.13462
1635.42266	2.13955
1633.49409	2.13595
1631.56553	2.12563
1629.63696	2.11253
1627.70840	2.09034
1625.77983	2.06424
1623.85127	2.03090
1621.92271	1.98817
1619.99414	1.94893
1618.06558	1.91003
1616.13701	1.85277
1614.20845	1.79303
1612.27988	1.74746
1610.35132	1.69973
1608.42275	1.64765
1606.49419	1.59600
1604.56562	1.54807
1602.63706	1.50165
1600.70850	1.45573
1598.77993	1.41289
1596.85137	1.37255
1594.92280	1.33322
1592.99424	1.29467
1591.06567	1.25897
1589.13711	1.22538
1587.20854	1.19365
1585.27998	1.16387
1583.35142	1.13557
1581.42285	1.10928
1579.49429	1.08669
1577.56572	1.06618
1575.63716	1.03997
1573.70859	1.01584
1571.78003	0.99985
1569.85146	0.98251
1567.92290	0.96203
1565.99434	0.94519
1564.06577	0.93064
1562.13721	0.91883
1560.20864	0.90963
1558.28008	0.89189
1556.35151	0.87312
1554.42295	0.86160
1552.49438	0.85074
1550.56582	0.84015
1548.63726	0.82952
1546.70869	0.82066
1544.78013	0.81355
1542.85156	0.80687
1540.92300	0.79891
1538.99443	0.78592
1537.06587	0.77550
1535.13730	0.76939
1533.20874	0.76264
1531.28018	0.75482
1529.35161	0.74882
1527.42305	0.74364
1525.49448	0.73828
1523.56592	0.73327
1521.63735	0.72813
1519.70879	0.72198
1517.78022	0.71648
1515.85166	0.71075
1513.92310	0.70499
1511.99453	0.70070
1510.06597	0.69772
1508.13740	0.69561
1506.20884	0.69041
1504.28027	0.68325
1502.35171	0.67893
1500.42314	0.67605
1498.49458	0.67354
1496.56602	0.67027
1494.63745	0.66629
1492.70889	0.66316
1490.78032	0.66102
1488.85176	0.65839
1486.92319	0.65465
1484.99463	0.65095
1483.06606	0.64778
1481.13750	0.64483
1479.20894	0.64207
1477.28037	0.63990
1475.35181	0.63827
1473.42324	0.63648
1471.49468	0.63290
1469.56611	0.62875
1467.63755	0.62586
1465.70898	0.62370
1463.78042	0.62130
1461.85186	0.61906
1459.92329	0.61791
1457.99473	0.61727
1456.06616	0.61481
1454.13760	0.61133
1452.20903	0.60885
1450.28047	0.60686
1448.35190	0.60508
1446.42334	0.60324
1444.49478	0.60145
1442.56621	0.59993
1440.63765	0.59862
1438.70908	0.59773
1436.78052	0.59688
1434.85195	0.59518
1432.92339	0.59325
1430.99482	0.59178
1429.06626	0.59040
1427.13770	0.58895
1425.20913	0.58771
1423.28057	0.58647
1421.35200	0.58523
1419.42344	0.58423
1417.49487	0.58275
1415.56631	0.58062
1413.63774	0.57880
1411.70918	0.57743
1409.78062	0.57607
1407.85205	0.57467
1405.92349	0.57355
1403.99492	0.57250
1402.06636	0.57120
1400.13779	0.57008
1398.20923	0.56917
1396.28066	0.56808
1394.35210	0.56661
1392.42354	0.56497
1390.49497	0.56375
1388.56641	0.56291
1386.63784	0.56170
1384.70928	0.55994
1382.78071	0.55843
1380.85215	0.55743
1378.92358	0.55656
1376.99502	0.55577
1375.06646	0.55526
1373.13789	0.55443
1371.20933	0.55309
1369.28076	0.55198
1367.35220	0.55105
1365.42363	0.55012
1363.49507	0.54943
1361.56650	0.54857
1359.63794	0.54738
1357.70937	0.54643
1355.78081	0.54570
1353.85225	0.54498
1351.92368	0.54421
1349.99512	0.54339
1348.06655	0.54246
1346.13799	0.54142
1344.20942	0.54045
1342.28086	0.53981
1340.35229	0.53940
1338.42373	0.53869
1336.49517	0.53762
1334.56660	0.53654
1332.63804	0.53555
1330.70947	0.53462
1328.78091	0.53372
1326.85234	0.53281
1324.92378	0.53189
1322.99521	0.53099
1321.06665	0.53022
1319.13809	0.52959
1317.20952	0.52876
1315.28096	0.52769
1313.35239	0.52667
1311.42383	0.52578
1309.49526	0.52500
1307.56670	0.52423
1305.63813	0.52342
1303.70957	0.52256
1301.78101	0.52169
1299.85244	0.52082
1297.92388	0.51995
1295.99531	0.51910
1294.06675	0.51831
1292.13818	0.51757
1290.20962	0.51684
1288.28105	0.51613
1286.35249	0.51537
1284.42393	0.51462
1282.49536	0.51392
1280.56680	0.51326
1278.63823	0.51257
1276.70967	0.51182
1274.78110	0.51116
1272.85254	0.51061
1270.92397	0.50998
1268.99541	0.50918
1267.06685	0.50829
1265.13828	0.50744
1263.20972	0.50665
1261.28115	0.50590
1259.35259	0.50531
1257.42402	0.50478
1255.49546	0.50408
1253.56689	0.50343
1251.63833	0.50299
1249.70977	0.50256
1247.78120	0.50196
1245.85264	0.50139
1243.92407	0.50089
1241.99551	0.50035
1240.06694	0.49967
1238.13838	0.49880
1236.20981	0.49787
1234.28125	0.49699
1232.35269	0.49614
1230.42412	0.49530
1228.49556	0.49444
1226.56699	0.49358
1224.63843	0.49281
1222.70986	0.49208
1220.78130	0.49139
1218.85273	0.49068
1216.92417	0.48993
1214.99561	0.48918
1213.06704	0.48835
1211.13848	0.48738
1209.20991	0.48642
1207.28135	0.48546
1205.35278	0.48446
1203.42422	0.48358
1201.49565	0.48279
1199.56709	0.48194
1197.63853	0.48109
1195.70996	0.48023
1193.78140	0.47931
1191.85283	0.47836
1189.92427	0.47739
1187.99570	0.47641
1186.06714	0.47544
1184.13857	0.47454
1182.21001	0.47372
1180.28145	0.47285
1178.35288	0.47191
1176.42432	0.47109
1174.49575	0.47028
1172.56719	0.46922
1170.63862	0.46809
1168.71006	0.46711
1166.78149	0.46629
1164.85293	0.46550
1162.92437	0.46463
1160.99580	0.46368
1159.06724	0.46273
1157.13867	0.46178
1155.21011	0.46101
1153.28154	0.46053
1151.35298	0.46002
1149.42441	0.45920
1147.49585	0.45830
1145.56729	0.45749
1143.63872	0.45671
1141.71016	0.45590
1139.78159	0.45505
1137.85303	0.45428
1135.92446	0.45358
1133.99590	0.45287
1132.06733	0.45221
1130.13877	0.45162
1128.21021	0.45100
1126.28164	0.45025
1124.35308	0.44946
1122.42451	0.44883
1120.49595	0.44814
1118.56738	0.44727
1116.63882	0.44665
1114.71025	0.44636
1112.78169	0.44602
1110.85312	0.44541
1108.92456	0.44483
1106.99600	0.44462
1105.06743	0.44453
1103.13887	0.44436
1101.21030	0.44413
1099.28174	0.44363
1097.35317	0.44306
1095.42461	0.44286
1093.49604	0.44285
1091.56748	0.44275
1089.63892	0.44248
1087.71035	0.44207
1085.78179	0.44166
1083.85322	0.44141
1081.92466	0.44136
1079.99609	0.44140
1078.06753	0.44114
1076.13896	0.44060
1074.21040	0.44043
1072.28184	0.44069
1070.35327	0.44098
1068.42471	0.44126
1066.49614	0.44142
1064.56758	0.44143
1062.63901	0.44152
1060.71045	0.44173
1058.78188	0.44195
1056.85332	0.44221
1054.92476	0.44246
1052.99619	0.44268
1051.06763	0.44296
1049.13906	0.44327
1047.21050	0.44354
1045.28193	0.44388
1043.35337	0.44438
1041.42480	0.44501
1039.49624	0.44565
1037.56768	0.44614
1035.63911	0.44654
1033.71055	0.44723
1031.78198	0.44838
1029.85342	0.44950
1027.92485	0.45024
1025.99629	0.45104
1024.06772	0.45228
1022.13916	0.45368
1020.21060	0.45487
1018.28203	0.45587
1016.35347	0.45702
1014.42490	0.45837
1012.49634	0.45974
1010.56777	0.46111
1008.63921	0.46255
1006.71064	0.46416
1004.78208	0.46601
1002.85352	0.46794
1000.92495	0.46976
998.99639	0.47155
997.06782	0.47354
995.13926	0.47570
993.21069	0.47789
991.28213	0.48022
989.35356	0.48267
987.42500	0.48506
985.49644	0.48749
983.56787	0.49013
981.63931	0.49298
979.71074	0.49596
977.78218	0.49897
975.85361	0.50194
973.92505	0.50498
971.99648	0.50818
970.06792	0.51143
968.13936	0.51481
966.21079	0.51858
964.28223	0.52255
962.35366	0.52636
960.42510	0.53019
958.49653	0.53447
956.56797	0.53896
954.63940	0.54333
952.71084	0.54795
950.78228	0.55294
948.85371	0.55796
946.92515	0.56298
944.99658	0.56813
943.06802	0.57333
941.13945	0.57879
939.21089	0.58457
937.28232	0.59074
935.35376	0.59759
933.42520	0.60457
931.49663	0.61099
929.56807	0.61735
927.63950	0.62417
925.71094	0.63133
923.78237	0.63848
921.85381	0.64586
919.92524	0.65395
917.99668	0.66205
916.06812	0.66929
914.13955	0.67647
912.21099	0.68459
910.28242	0.69344
908.35386	0.70245
906.42529	0.71098
904.49673	0.71961
902.56816	0.73006
900.63960	0.74100
898.71104	0.75012
896.78247	0.75859
894.85391	0.76798
892.92534	0.77827
890.99678	0.78861
889.06821	0.79789
887.13965	0.80681
885.21108	0.81711
883.28252	0.82841
881.35396	0.83928
879.42539	0.85008
877.49683	0.86171
875.56826	0.87389
873.63970	0.88572
871.71113	0.89697
869.78257	0.90819
867.85400	0.91977
865.92544	0.93185
863.99687	0.94428
862.06831	0.95588
860.13975	0.96619
858.21118	0.97688
856.28262	0.98869
854.35405	1.00050
852.42549	1.01206
850.49692	1.02423
848.56836	1.03728
846.63979	1.04982
844.71123	1.06037
842.78267	1.07025
840.85410	1.08263
838.92554	1.09702
836.99697	1.11010
835.06841	1.12181
833.13984	1.13388
831.21128	1.14569
829.28271	1.15753
827.35415	1.17032
825.42559	1.18154
823.49702	1.19037
821.56846	1.19965
819.63989	1.21563
817.71133	1.23747
815.78276	1.25223
813.85420	1.26350
811.92563	1.28655
809.99707	1.30686
808.06851	1.31300
806.13994	1.33220
804.21138	1.36440
802.28281	1.38709
800.35425	1.39903
798.42568	1.39774
796.49712	1.38184
794.56855	1.36136
792.63999	1.35799
790.71143	1.38674
788.78286	1.44971
786.85430	1.54318
784.92573	1.61614
782.99717	1.60794
781.06860	1.57019
779.14004	1.53032
777.21147	1.48351
775.28291	1.47533
773.35435	1.53717
771.42578	1.61067
769.49722	1.53575
767.56865	1.50352
765.64009	1.64667
763.71152	1.78097
761.78296	1.69546
759.85439	1.61591
757.92583	1.47752
755.99727	1.37466
754.06870	1.31134
752.14014	1.23499
750.21157	1.18915
748.28301	1.20509
746.35444	1.20987
744.42588	1.13625
742.49731	1.10415
740.56875	1.18015
738.64019	1.31934
736.71162	1.44795
734.78306	1.15479
732.85449	0.73598
730.92593	0.52043
728.99736	0.50211
727.06880	0.53895
725.14023	0.40329
723.21167	0.21954
721.28311	0.00120
719.35454	-0.43947
717.42598	-0.43830
715.49741	-0.43735
713.56885	-0.28082
711.64028	-0.13491
709.71172	0.06834
707.78315	0.24148
705.85459	0.35419
703.92603	0.46989
701.99746	0.46772
700.06890	0.37096
698.14033	0.30919
696.21177	0.31609
694.28320	0.35595
692.35464	0.34639
690.42607	0.27398
688.49751	0.21198
686.56895	0.23255
684.64038	0.31278
682.71182	0.36843
680.78325	0.42769
678.85469	0.49054
676.92612	0.38285
674.99756	0.30432
673.06899	0.26771
671.14043	0.20771
669.21187	0.20126
667.28330	0.24533
665.35474	0.29538
663.42617	0.34050
661.49761	0.35097
659.56904	0.32656
657.64048	0.31934
655.71191	0.35384
653.78335	0.36245
651.85479	0.35488
649.92622	0.35217
647.99766	0.29662
646.06909	0.23134
644.14053	0.21077
642.21196	0.21756
640.28340	0.19145
638.35483	0.16543
636.42627	0.22633
634.49771	0.31397
632.56914	0.29517
630.64058	0.32928
628.71201	0.45490
626.78345	0.37634
624.85488	0.23047
622.92632	0.15676
620.99775	0.14894
619.06919	0.18394
617.14062	0.30832
615.21206	0.45646
613.28350	0.36786
611.35493	0.22999
609.42637	0.20915
607.49780	0.28861
605.56924	0.32762
603.64067	0.27775
601.71211	0.27507
599.78354	0.30776
597.85498	0.36475
595.92642	0.43328
593.99785	0.45551
592.06929	0.38863
590.14072	0.28082
588.21216	0.22074
586.28359	0.24855
584.35503	0.32802
582.42646	0.40398
580.49790	0.37404
578.56934	0.26366
576.64077	0.19851
574.71221	0.20677
572.78364	0.25881
570.85508	0.35023
568.92651	0.35917
566.99795	0.24440
565.06938	0.18211
563.14082	0.19347
561.21226	0.25647
559.28369	0.35291
557.35513	0.42675
555.42656	0.36259
553.49800	0.23800
551.56943	0.17998
549.64087	0.19402
547.71230	0.26527
545.78374	0.35858
543.85518	0.34510
541.92661	0.25916
539.99805	0.19816
538.06948	0.17247
536.14092	0.19222
534.21235	0.24581
532.28379	0.23619
530.35522	0.14690
528.42666	0.09961
526.49810	0.17292
524.56953	0.27712
522.64097	0.31317
520.71240	0.35861
518.78384	0.45515
516.85527	0.48226
514.92671	0.40432
512.99814	0.32842
511.06958	0.27693
509.14102	0.22545
507.21245	0.18652
505.28389	0.20544
503.35532	0.25278
501.42676	0.25974
499.49819	0.21454
