3997.91411	0.06913
3995.98555	0.06891
3994.05698	0.06863
3992.12842	0.06897
3990.19985	0.06968
3988.27129	0.06994
3986.34272	0.06985
3984.41416	0.07015
3982.48560	0.07083
3980.55703	0.07117
3978.62847	0.07124
3976.69990	0.07160
3974.77134	0.07202
3972.84277	0.07222
3970.91421	0.07230
3968.98564	0.07231
3967.05708	0.07235
3965.12852	0.07256
3963.19995	0.07295
3961.27139	0.07324
3959.34282	0.07327
3957.41426	0.07334
3955.48569	0.07341
3953.55713	0.07334
3951.62856	0.07331
3949.70000	0.07329
3947.77144	0.07318
3945.84287	0.07312
3943.91431	0.07329
3941.98574	0.07357
3940.05718	0.07362
3938.12861	0.07347
3936.20005	0.07327
3934.27148	0.07310
3932.34292	0.07318
3930.41436	0.07346
3928.48579	0.07353
3926.55723	0.07352
3924.62866	0.07382
3922.70010	0.07410
3920.77153	0.07411
3918.84297	0.07423
3916.91440	0.07441
3914.98584	0.07418
3913.05728	0.07357
3911.12871	0.07301
3909.20015	0.07242
3907.27158	0.07202
3905.34302	0.07251
3903.41445	0.07404
3901.48589	0.07543
3899.55732	0.07548
3897.62876	0.07446
3895.70020	0.07312
3893.77163	0.07242
3891.84307	0.07281
3889.91450	0.07352
3887.98594	0.07367
3886.05737	0.07399
3884.12881	0.07462
3882.20024	0.07472
3880.27168	0.07451
3878.34312	0.07434
3876.41455	0.07414
3874.48599	0.07433
3872.55742	0.07500
3870.62886	0.07584
3868.70029	0.07661
3866.77173	0.07684
3864.84316	0.07698
3862.91460	0.07725
3860.98604	0.07696
3859.05747	0.07649
3857.12891	0.07679
3855.20034	0.07798
3853.27178	0.07958
3851.34321	0.08030
3849.41465	0.07940
3847.48608	0.07839
3845.55752	0.07820
3843.62896	0.07914
3841.70039	0.08067
3839.77183	0.08215
3837.84326	0.08373
3835.91470	0.08451
3833.98613	0.08403
3832.05757	0.08391
3830.12900	0.08478
3828.20044	0.08551
3826.27187	0.08577
3824.34331	0.08602
3822.41475	0.08676
3820.48618	0.08883
3818.55762	0.09070
3816.62905	0.09100
3814.70049	0.09118
3812.77192	0.09154
3810.84336	0.09188
3808.91479	0.09221
3806.98623	0.09297
3805.05767	0.09460
3803.12910	0.09672
3801.20054	0.09946
3799.27197	0.10164
3797.34341	0.10201
3795.41484	0.10212
3793.48628	0.10245
3791.55771	0.10291
3789.62915	0.10371
3787.70059	0.10499
3785.77202	0.10669
3783.84346	0.10848
3781.91489	0.11000
3779.98633	0.11138
3778.05776	0.11302
3776.12920	0.11462
3774.20063	0.11604
3772.27207	0.11758
3770.34351	0.11951
3768.41494	0.12168
3766.48638	0.12358
3764.55781	0.12557
3762.62925	0.12757
3760.70068	0.12972
3758.77212	0.13261
3756.84355	0.13527
3754.91499	0.13695
3752.98643	0.13907
3751.05786	0.14291
3749.12930	0.14772
3747.20073	0.15077
3745.27217	0.15319
3743.34360	0.15733
3741.41504	0.16150
3739.48647	0.16474
3737.55791	0.16901
3735.62935	0.17535
3733.70078	0.18238
3731.77222	0.18748
3729.84365	0.19160
3727.91509	0.19603
3725.98652	0.20175
3724.05796	0.20847
3722.12939	0.21463
3720.20083	0.22039
3718.27227	0.22622
3716.34370	0.23228
3714.41514	0.23901
3712.48657	0.24832
3710.55801	0.26262
3708.62944	0.27800
3706.70088	0.28986
3704.77231	0.30085
3702.84375	0.31380
3700.91519	0.33051
3698.98662	0.34889
3697.05806	0.36630
3695.12949	0.38428
3693.20093	0.40304
3691.27236	0.42354
3689.34380	0.45043
3687.41523	0.48430
3685.48667	0.51520
3683.55811	0.54202
3681.62954	0.56989
3679.70098	0.60065
3677.77241	0.63301
3675.84385	0.67166
3673.91528	0.72424
3671.98672	0.76741
3670.05815	0.80546
3668.12959	0.85891
3666.20103	0.90888
3664.27246	0.94992
3662.34390	0.99293
3660.41533	1.03941
3658.48677	1.08547
3656.55820	1.13440
3654.62964	1.18928
3652.70107	1.23590
3650.77251	1.27607
3648.84395	1.33070
3646.91538	1.39924
3644.98682	1.45106
3643.05825	1.49080
3641.12969	1.53115
3639.20112	1.57571
3637.27256	1.62075
3635.34399	1.66532
3633.41543	1.71067
3631.48687	1.75228
3629.55830	1.79233
3627.62974	1.84514
3625.70117	1.89645
3623.77261	1.93094
3621.84404	1.96279
3619.91548	1.99920
3617.98691	2.04480
3616.05835	2.09021
3614.12979	2.12812
3612.20122	2.16691
3610.27266	2.20472
3608.34409	2.24273
3606.41553	2.28537
3604.48696	2.32715
3602.55840	2.36505
3600.62983	2.40459
3598.70127	2.44578
3596.77271	2.48539
3594.84414	2.52569
3592.91558	2.56641
3590.98701	2.60422
3589.05845	2.63976
3587.12988	2.68194
3585.20132	2.72944
3583.27275	2.77110
3581.34419	2.80892
3579.41562	2.84828
3577.48706	2.89071
3575.55850	2.93502
3573.62993	2.98040
3571.70137	3.02273
3569.77280	3.06156
3567.84424	3.10414
3565.91567	3.15709
3563.98711	3.20731
3562.05854	3.24801
3560.12998	3.28905
3558.20142	3.33210
3556.27285	3.37415
3554.34429	3.41603
3552.41572	3.46330
3550.48716	3.51360
3548.55859	3.56003
3546.63003	3.60285
3544.70146	3.64824
3542.77290	3.69837
3540.84434	3.74625
3538.91577	3.78959
3536.98721	3.83379
3535.05864	3.88420
3533.13008	3.93654
3531.20151	3.98648
3529.27295	4.03487
3527.34438	4.08063
3525.41582	4.12314
3523.48726	4.16760
3521.55869	4.21808
3519.63013	4.27048
3517.70156	4.32040
3515.77300	4.36703
3513.84443	4.41449
3511.91587	4.46389
3509.98730	4.51079
3508.05874	4.55873
3506.13018	4.61136
3504.20161	4.66133
3502.27305	4.70567
3500.34448	4.74953
3498.41592	4.79590
3496.48735	4.84442
3494.55879	4.89275
3492.63022	4.93839
3490.70166	4.98477
3488.77310	5.03505
3486.84453	5.08525
3484.91597	5.13614
3482.98740	5.19091
3481.05884	5.24598
3479.13027	5.29528
3477.20171	5.34190
3475.27314	5.38990
3473.34458	5.43489
3471.41602	5.47616
3469.48745	5.51981
3467.55889	5.56772
3465.63032	5.61086
3463.70176	5.65314
3461.77319	5.71095
3459.84463	5.78068
3457.91606	5.84382
3455.98750	5.89838
3454.05894	5.94478
3452.13037	5.98835
3450.20181	6.04106
3448.27324	6.08386
3446.34468	6.10964
3444.41611	6.14020
3442.48755	6.18810
3440.55898	6.24498
3438.63042	6.29437
3436.70186	6.33579
3434.77329	6.38215
3432.84473	6.43463
3430.91616	6.47469
3428.98760	6.51171
3427.05903	6.57235
3425.13047	6.64266
3423.20190	6.69330
3421.27334	6.74285
3419.34478	6.80117
3417.41621	6.85160
3415.48765	6.89841
3413.55908	6.93851
3411.63052	6.96809
3409.70195	6.98835
3407.77339	7.01561
3405.84482	7.06145
3403.91626	7.11836
3401.98770	7.16938
3400.05913	7.20868
3398.13057	7.25295
3396.20200	7.33720
3394.27344	7.44023
3392.34487	7.45150
3390.41631	7.41317
3388.48774	7.43575
3386.55918	7.49439
3384.63062	7.54364
3382.70205	7.58660
3380.77349	7.61146
3378.84492	7.63955
3376.91636	7.69396
3374.98779	7.72828
3373.05923	7.74046
3371.13066	7.73512
3369.20210	7.72906
3367.27354	7.73598
3365.34497	7.74500
3363.41641	7.76387
3361.48784	7.80091
3359.55928	7.85977
3357.63071	7.90292
3355.70215	7.92952
3353.77358	7.98518
3351.84502	8.03837
3349.91646	8.02979
3347.98789	8.03260
3346.05933	8.05892
3344.13076	8.07085
3342.20220	8.10874
3340.27363	8.12875
3338.34507	8.08458
3336.41650	8.00008
3334.48794	7.96202
3332.55937	8.00364
3330.63081	8.05854
3328.70225	8.10561
3326.77368	8.17409
3324.84512	8.19245
3322.91655	8.13696
3320.98799	8.14189
3319.05942	8.18691
3317.13086	8.19550
3315.20229	8.17870
3313.27373	8.15527
3311.34517	8.14054
3309.41660	8.14992
3307.48804	8.16988
3305.55947	8.15763
3303.63091	8.13710
3301.70234	8.16735
3299.77378	8.25230
3297.84521	8.28703
3295.91665	8.24577
3293.98809	8.22186
3292.05952	8.24221
3290.13096	8.25540
3288.20239	8.23613
3286.27383	8.19366
3284.34526	8.12449
3282.41670	8.10108
3280.48813	8.13195
3278.55957	8.15701
3276.63101	8.17760
3274.70244	8.22837
3272.77388	8.28375
3270.84531	8.23730
3268.91675	8.09686
3266.98818	7.96505
3265.05962	7.91110
3263.13105	7.96170
3261.20249	8.06786
3259.27393	8.16199
3257.34536	8.26261
3255.41680	8.32243
3253.48823	8.28144
3251.55967	8.25324
3249.63110	8.27794
3247.70254	8.20075
3245.77397	8.05055
3243.84541	8.05607
3241.91685	8.17220
3239.98828	8.22157
3238.05972	8.20907
3236.13115	8.18583
3234.20259	8.15920
3232.27402	8.11783
3230.34546	8.10650
3228.41689	8.13419
3226.48833	8.16309
3224.55977	8.22630
3222.63120	8.29579
3220.70264	8.23825
3218.77407	8.13070
3216.84551	8.12068
3214.91694	8.15231
3212.98838	8.15870
3211.05981	8.11185
3209.13125	7.99675
3207.20269	7.90016
3205.27412	7.87705
3203.34556	7.85849
3201.41699	7.75000
3199.48843	7.62129
3197.55986	7.60134
3195.63130	7.65729
3193.70273	7.66560
3191.77417	7.58508
3189.84561	7.47779
3187.91704	7.41243
3185.98848	7.39211
3184.05991	7.37685
3182.13135	7.31515
3180.20278	7.20260
3178.27422	7.09985
3176.34565	7.04143
3174.41709	7.01276
3172.48853	6.99348
3170.55996	6.95486
3168.63140	6.89432
3166.70283	6.83350
3164.77427	6.75935
3162.84570	6.67114
3160.91714	6.59331
3158.98857	6.53241
3157.06001	6.48316
3155.13145	6.43884
3153.20288	6.38085
3151.27432	6.30461
3149.34575	6.23118
3147.41719	6.15920
3145.48862	6.08570
3143.56006	6.02691
3141.63149	5.96643
3139.70293	5.89042
3137.77437	5.82601
3135.84580	5.76681
3133.91724	5.68896
3131.98867	5.60742
3130.06011	5.54012
3128.13154	5.48173
3126.20298	5.41420
3124.27441	5.33631
3122.34585	5.26091
3120.41729	5.18765
3118.48872	5.11764
3116.56016	5.05437
3114.63159	4.98675
3112.70303	4.91217
3110.77446	4.83898
3108.84590	4.76780
3106.91733	4.70075
3104.98877	4.63951
3103.06021	4.58048
3101.13164	4.51915
3099.20308	4.45518
3097.27451	4.39266
3095.34595	4.32916
3093.41738	4.26169
3091.48882	4.19452
3089.56025	4.12969
3087.63169	4.06591
3085.70312	4.00427
3083.77456	3.94503
3081.84600	3.88554
3079.91743	3.82533
3077.98887	3.76656
3076.06030	3.70914
3074.13174	3.65223
3072.20317	3.59674
3070.27461	3.54222
3068.34604	3.48733
3066.41748	3.43223
3064.48892	3.37722
3062.56035	3.32271
3060.63179	3.26978
3058.70322	3.21827
3056.77466	3.16701
3054.84609	3.11567
3052.91753	3.06485
3050.98896	3.01487
3049.06040	2.96545
3047.13184	2.91617
3045.20327	2.86688
3043.27471	2.81843
3041.34614	2.77136
3039.41758	2.72548
3037.48901	2.68074
3035.56045	2.63640
3033.63188	2.59197
3031.70332	2.54799
3029.77476	2.50494
3027.84619	2.46251
3025.91763	2.41996
3023.98906	2.37761
3022.06050	2.33629
3020.13193	2.29599
3018.20337	2.25621
3016.27480	2.21677
3014.34624	2.17794
3012.41768	2.13926
3010.48911	2.10085
3008.56055	2.06445
3006.63198	2.03008
3004.70342	1.99581
3002.77485	1.96088
3000.84629	1.92637
2998.91772	1.89313
2996.98916	1.86122
2995.06060	1.83039
2993.13203	1.80008
2991.20347	1.77011
2989.27490	1.74067
2987.34634	1.71234
2985.41777	1.68523
2983.48921	1.65835
2981.56064	1.63138
2979.63208	1.60513
2977.70352	1.57980
2975.77495	1.55514
2973.84639	1.53111
2971.91782	1.50775
2969.98926	1.48484
2968.06069	1.46182
2966.13213	1.43880
2964.20356	1.41641
2962.27500	1.39432
2960.34644	1.37142
2958.41787	1.34751
2956.48931	1.32365
2954.56074	1.30036
2952.63218	1.27728
2950.70361	1.25474
2948.77505	1.23311
2946.84648	1.21169
2944.91792	1.19027
2942.98936	1.16961
2941.06079	1.14990
2939.13223	1.13071
2937.20366	1.11148
2935.27510	1.09186
2933.34653	1.07232
2931.41797	1.05335
2929.48940	1.03475
2927.56084	1.01620
2925.63228	0.99766
2923.70371	0.97937
2921.77515	0.96154
2919.84658	0.94357
2917.91802	0.92536
2915.98945	0.90822
2914.06089	0.89201
2912.13232	0.87557
2910.20376	0.85936
2908.27520	0.84396
2906.34663	0.82906
2904.41807	0.81435
2902.48950	0.79974
2900.56094	0.78552
2898.63237	0.77184
2896.70381	0.75856
2894.77524	0.74579
2892.84668	0.73351
2890.91812	0.72154
2888.98955	0.71006
2887.06099	0.69922
2885.13242	0.68898
2883.20386	0.67923
2881.27529	0.66973
2879.34673	0.66002
2877.41816	0.65011
2875.48960	0.64047
2873.56104	0.63097
2871.63247	0.62093
2869.70391	0.61014
2867.77534	0.59902
2865.84678	0.58754
2863.91821	0.57572
2861.98965	0.56415
2860.06108	0.55312
2858.13252	0.54285
2856.20396	0.53348
2854.27539	0.52460
2852.34683	0.51558
2850.41826	0.50644
2848.48970	0.49764
2846.56113	0.48938
2844.63257	0.48151
2842.70400	0.47401
2840.77544	0.46709
2838.84687	0.46060
2836.91831	0.45436
2834.98975	0.44841
2833.06118	0.44256
2831.13262	0.43660
2829.20405	0.43057
2827.27549	0.42459
2825.34692	0.41864
2823.41836	0.41266
2821.48979	0.40672
2819.56123	0.40099
2817.63267	0.39536
2815.70410	0.38972
2813.77554	0.38425
2811.84697	0.37908
2809.91841	0.37386
2807.98984	0.36831
2806.06128	0.36271
2804.13271	0.35744
2802.20415	0.35252
2800.27559	0.34763
2798.34702	0.34276
2796.41846	0.33806
2794.48989	0.33334
2792.56133	0.32858
2790.63276	0.32405
2788.70420	0.31975
2786.77563	0.31534
2784.84707	0.31091
2782.91851	0.30675
2780.98994	0.30271
2779.06138	0.29860
2777.13281	0.29447
2775.20425	0.29043
2773.27568	0.28660
2771.34712	0.28299
2769.41855	0.27939
2767.48999	0.27564
2765.56143	0.27195
2763.63286	0.26856
2761.70430	0.26523
2759.77573	0.26183
2757.84717	0.25864
2755.91860	0.25572
2753.99004	0.25283
2752.06147	0.24979
2750.13291	0.24665
2748.20435	0.24360
2746.27578	0.24072
2744.34722	0.23795
2742.41865	0.23526
2740.49009	0.23268
2738.56152	0.23030
2736.63296	0.22783
2734.70439	0.22510
2732.77583	0.22239
2730.84727	0.21999
2728.91870	0.21777
2726.99014	0.21558
2725.06157	0.21342
2723.13301	0.21132
2721.20444	0.20931
2719.27588	0.20736
2717.34731	0.20533
2715.41875	0.20319
2713.49019	0.20118
2711.56162	0.19939
2709.63306	0.19774
2707.70449	0.19603
2705.77593	0.19429
2703.84736	0.19266
2701.91880	0.19113
2699.99023	0.18962
2698.06167	0.18811
2696.13311	0.18669
2694.20454	0.18535
2692.27598	0.18397
2690.34741	0.18256
2688.41885	0.18130
2686.49028	0.18009
2684.56172	0.17877
2682.63315	0.17748
2680.70459	0.17628
2678.77603	0.17521
2676.84746	0.17416
2674.91890	0.17301
2672.99033	0.17188
2671.06177	0.17094
2669.13320	0.17004
2667.20464	0.16904
2665.27607	0.16808
2663.34751	0.16733
2661.41895	0.16662
2659.49038	0.16564
2657.56182	0.16457
2655.63325	0.16362
2653.70469	0.16281
2651.77612	0.16216
2649.84756	0.16165
2647.91899	0.16111
2645.99043	0.16052
2644.06187	0.15978
2642.13330	0.15904
2640.20474	0.15858
2638.27617	0.15820
2636.34761	0.15759
2634.41904	0.15690
2632.49048	0.15643
2630.56191	0.15609
2628.63335	0.15570
2626.70479	0.15534
2624.77622	0.15503
2622.84766	0.15483
2620.91909	0.15469
2618.99053	0.15438
2617.06196	0.15398
2615.13340	0.15372
2613.20483	0.15354
2611.27627	0.15343
2609.34771	0.15336
2607.41914	0.15316
2605.49058	0.15290
2603.56201	0.15270
2601.63345	0.15256
2599.70488	0.15247
2597.77632	0.15238
2595.84775	0.15231
2593.91919	0.15238
2591.99062	0.15247
2590.06206	0.15250
2588.13350	0.15264
2586.20493	0.15290
2584.27637	0.15314
2582.34780	0.15330
2580.41924	0.15345
2578.49067	0.15365
2576.56211	0.15383
2574.63354	0.15397
2572.70498	0.15413
2570.77642	0.15440
2568.84785	0.15472
2566.91929	0.15504
2564.99072	0.15543
2563.06216	0.15584
2561.13359	0.15616
2559.20503	0.15642
2557.27646	0.15674
2555.34790	0.15728
2553.41934	0.15782
2551.49077	0.15824
2549.56221	0.15882
2547.63364	0.15947
2545.70508	0.15988
2543.77651	0.16016
2541.84795	0.16068
2539.91938	0.16137
2537.99082	0.16202
2536.06226	0.16259
2534.13369	0.16312
2532.20513	0.16363
2530.27656	0.16420
2528.34800	0.16484
2526.41943	0.16550
2524.49087	0.16618
2522.56230	0.16688
2520.63374	0.16759
2518.70518	0.16826
2516.77661	0.16889
2514.84805	0.16957
2512.91948	0.17037
2510.99092	0.17122
2509.06235	0.17196
2507.13379	0.17259
2505.20522	0.17335
2503.27666	0.17425
2501.34810	0.17501
2499.41953	0.17569
2497.49097	0.17635
2495.56240	0.17701
2493.63384	0.17775
2491.70527	0.17856
2489.77671	0.17941
2487.84814	0.18030
2485.91958	0.18102
2483.99102	0.18168
2482.06245	0.18258
2480.13389	0.18359
2478.20532	0.18442
2476.27676	0.18522
2474.34819	0.18609
2472.41963	0.18690
2470.49106	0.18768
2468.56250	0.18856
2466.63394	0.18943
2464.70537	0.19021
2462.77681	0.19100
2460.84824	0.19189
2458.91968	0.19287
2456.99111	0.19388
2455.06255	0.19477
2453.13398	0.19558
2451.20542	0.19652
2449.27686	0.19754
2447.34829	0.19849
2445.41973	0.19935
2443.49116	0.20024
2441.56260	0.20118
2439.63403	0.20211
2437.70547	0.20300
2435.77690	0.20394
2433.84834	0.20499
2431.91978	0.20601
2429.99121	0.20697
2428.06265	0.20790
2426.13408	0.20881
2424.20552	0.20977
2422.27695	0.21087
2420.34839	0.21201
2418.41982	0.21320
2416.49126	0.21449
2414.56270	0.21564
2412.63413	0.21666
2410.70557	0.21773
2408.77700	0.21883
2406.84844	0.21992
2404.91987	0.22099
2402.99131	0.22204
2401.06274	0.22312
2399.13418	0.22428
2397.20562	0.22545
2395.27705	0.22655
2393.34849	0.22757
2391.41992	0.22871
2389.49136	0.23028
2387.56279	0.23247
2385.63423	0.23540
2383.70566	0.23941
2381.77710	0.24451
2379.84854	0.25051
2377.91997	0.25753
2375.99141	0.26572
2374.06284	0.27522
2372.13428	0.28631
2370.20571	0.29865
2368.27715	0.31142
2366.34858	0.32384
2364.42002	0.33474
2362.49146	0.34312
2360.56289	0.34774
2358.63433	0.34737
2356.70576	0.34308
2354.77720	0.33561
2352.84863	0.32477
2350.92007	0.31330
2348.99150	0.30700
2347.06294	0.30832
2345.13437	0.31733
2343.20581	0.32915
2341.27725	0.33479
2339.34868	0.33477
2337.42012	0.33360
2335.49155	0.33338
2333.56299	0.33385
2331.63442	0.33424
2329.70586	0.33430
2327.77729	0.33364
2325.84873	0.33196
2323.92017	0.32968
2321.99160	0.32674
2320.06304	0.32361
2318.13447	0.32098
2316.20591	0.31851
2314.27734	0.31669
2312.34878	0.31623
2310.42021	0.31629
2308.49165	0.31573
2306.56309	0.31444
2304.63452	0.31311
2302.70596	0.31267
2300.77739	0.31313
2298.84883	0.31377
2296.92026	0.31440
2294.99170	0.31505
2293.06313	0.31566
2291.13457	0.31620
2289.20601	0.31673
2287.27744	0.31727
2285.34888	0.31795
2283.42031	0.31917
2281.49175	0.32096
2279.56318	0.32307
2277.63462	0.32532
2275.70605	0.32762
2273.77749	0.32989
2271.84893	0.33217
2269.92036	0.33433
2267.99180	0.33630
2266.06323	0.33819
2264.13467	0.34003
2262.20610	0.34178
2260.27754	0.34356
2258.34897	0.34549
2256.42041	0.34749
2254.49185	0.34944
2252.56328	0.35121
2250.63472	0.35296
2248.70615	0.35494
2246.77759	0.35708
2244.84902	0.35920
2242.92046	0.36131
2240.99189	0.36338
2239.06333	0.36550
2237.13477	0.36768
2235.20620	0.36984
2233.27764	0.37194
2231.34907	0.37403
2229.42051	0.37616
2227.49194	0.37837
2225.56338	0.38060
2223.63481	0.38280
2221.70625	0.38501
2219.77769	0.38716
2217.84912	0.38928
2215.92056	0.39137
2213.99199	0.39341
2212.06343	0.39543
2210.13486	0.39747
2208.20630	0.39956
2206.27773	0.40168
2204.34917	0.40372
2202.42061	0.40569
2200.49204	0.40773
2198.56348	0.40982
2196.63491	0.41183
2194.70635	0.41377
2192.77778	0.41574
2190.84922	0.41767
2188.92065	0.41948
2186.99209	0.42120
2185.06353	0.42292
2183.13496	0.42468
2181.20640	0.42638
2179.27783	0.42793
2177.34927	0.42946
2175.42070	0.43095
2173.49214	0.43237
2171.56357	0.43377
2169.63501	0.43511
2167.70645	0.43639
2165.77788	0.43772
2163.84932	0.43901
2161.92075	0.44020
2159.99219	0.44136
2158.06362	0.44238
2156.13506	0.44329
2154.20649	0.44427
2152.27793	0.44521
2150.34937	0.44595
2148.42080	0.44661
2146.49224	0.44721
2144.56367	0.44773
2142.63511	0.44824
2140.70654	0.44854
2138.77798	0.44863
2136.84941	0.44874
2134.92085	0.44895
2132.99229	0.44912
2131.06372	0.44915
2129.13516	0.44907
2127.20659	0.44889
2125.27803	0.44867
2123.34946	0.44843
2121.42090	0.44800
2119.49233	0.44733
2117.56377	0.44666
2115.63521	0.44602
2113.70664	0.44533
2111.77808	0.44458
2109.84951	0.44367
2107.92095	0.44264
2105.99238	0.44165
2104.06382	0.44067
2102.13525	0.43957
2100.20669	0.43833
2098.27812	0.43705
2096.34956	0.43566
2094.42100	0.43406
2092.49243	0.43239
2090.56387	0.43079
2088.63530	0.42913
2086.70674	0.42754
2084.77817	0.42600
2082.84961	0.42423
2080.92104	0.42213
2078.99248	0.42003
2077.06392	0.41813
2075.13535	0.41620
2073.20679	0.41413
2071.27822	0.41197
2069.34966	0.40975
2067.42109	0.40747
2065.49253	0.40516
2063.56396	0.40281
2061.63540	0.40051
2059.70684	0.39829
2057.77827	0.39600
2055.84971	0.39350
2053.92114	0.39089
2051.99258	0.38837
2050.06401	0.38588
2048.13545	0.38332
2046.20688	0.38072
2044.27832	0.37812
2042.34976	0.37548
2040.42119	0.37281
2038.49263	0.37019
2036.56406	0.36765
2034.63550	0.36508
2032.70693	0.36237
2030.77837	0.35958
2028.84980	0.35678
2026.92124	0.35399
2024.99268	0.35123
2023.06411	0.34856
2021.13555	0.34595
2019.20698	0.34331
2017.27842	0.34056
2015.34985	0.33783
2013.42129	0.33523
2011.49272	0.33263
2009.56416	0.33000
2007.63560	0.32735
2005.70703	0.32466
2003.77847	0.32194
2001.84990	0.31921
1999.92134	0.31658
1997.99277	0.31407
1996.06421	0.31159
1994.13564	0.30911
1992.20708	0.30667
1990.27852	0.30421
1988.34995	0.30183
1986.42139	0.29950
1984.49282	0.29709
1982.56426	0.29468
1980.63569	0.29232
1978.70713	0.29004
1976.77856	0.28780
1974.85000	0.28563
1972.92144	0.28358
1970.99287	0.28160
1969.06431	0.27953
1967.13574	0.27742
1965.20718	0.27540
1963.27861	0.27346
1961.35005	0.27154
1959.42148	0.26961
1957.49292	0.26772
1955.56436	0.26596
1953.63579	0.26433
1951.70723	0.26272
1949.77866	0.26108
1947.85010	0.25943
1945.92153	0.25784
1943.99297	0.25643
1942.06440	0.25506
1940.13584	0.25357
1938.20728	0.25214
1936.27871	0.25079
1934.35015	0.24938
1932.42158	0.24804
1930.49302	0.24681
1928.56445	0.24567
1926.63589	0.24462
1924.70732	0.24371
1922.77876	0.24280
1920.85020	0.24174
1918.92163	0.24076
1916.99307	0.23990
1915.06450	0.23897
1913.13594	0.23804
1911.20737	0.23733
1909.27881	0.23674
1907.35024	0.23613
1905.42168	0.23542
1903.49312	0.23470
1901.56455	0.23409
1899.63599	0.23358
1897.70742	0.23320
1895.77886	0.23282
1893.85029	0.23242
1891.92173	0.23205
1889.99316	0.23185
1888.06460	0.23167
1886.13604	0.23138
1884.20747	0.23105
1882.27891	0.23076
1880.35034	0.23064
1878.42178	0.23059
1876.49321	0.23058
1874.56465	0.23059
1872.63608	0.23070
1870.70752	0.23093
1868.77896	0.23139
1866.85039	0.23161
1864.92183	0.23135
1862.99326	0.23121
1861.06470	0.23144
1859.13613	0.23183
1857.20757	0.23216
1855.27900	0.23266
1853.35044	0.23324
1851.42187	0.23374
1849.49331	0.23420
1847.56475	0.23485
1845.63618	0.23576
1843.70762	0.23678
1841.77905	0.23744
1839.85049	0.23777
1837.92192	0.23842
1835.99336	0.23930
1834.06479	0.24028
1832.13623	0.24129
1830.20767	0.24263
1828.27910	0.24406
1826.35054	0.24517
1824.42197	0.24648
1822.49341	0.24774
1820.56484	0.24884
1818.63628	0.25006
1816.70771	0.25160
1814.77915	0.25328
1812.85059	0.25512
1810.92202	0.25714
1808.99346	0.25915
1807.06489	0.26098
1805.13633	0.26272
1803.20776	0.26486
1801.27920	0.26740
1799.35063	0.27016
1797.42207	0.27258
1795.49351	0.27490
1793.56494	0.27764
1791.63638	0.28114
1789.70781	0.28442
1787.77925	0.28694
1785.85068	0.29009
1783.92212	0.29389
1781.99355	0.29782
1780.06499	0.30180
1778.13643	0.30583
1776.20786	0.30958
1774.27930	0.31369
1772.35073	0.31954
1770.42217	0.32595
1768.49360	0.33111
1766.56504	0.33603
1764.63647	0.34123
1762.70791	0.34696
1760.77935	0.35419
1758.85078	0.36107
1756.92222	0.36812
1754.99365	0.37589
1753.06509	0.38286
1751.13652	0.39096
1749.20796	0.40127
1747.27939	0.41175
1745.35083	0.42101
1743.42227	0.43058
1741.49370	0.44087
1739.56514	0.45304
1737.63657	0.46533
1735.70801	0.47598
1733.77944	0.49186
1731.85088	0.51109
1729.92231	0.52648
1727.99375	0.54205
1726.06519	0.55859
1724.13662	0.57642
1722.20806	0.59579
1720.27949	0.61392
1718.35093	0.63520
1716.42236	0.66670
1714.49380	0.69688
1712.56523	0.72140
1710.63667	0.74522
1708.70811	0.77097
1706.77954	0.80023
1704.85098	0.83532
1702.92241	0.86672
1700.99385	0.89784
1699.06528	0.94478
1697.13672	0.98861
1695.20815	1.03385
1693.27959	1.07798
1691.35103	1.11403
1689.42246	1.15633
1687.49390	1.20140
1685.56533	1.24464
1683.63677	1.31164
1681.70820	1.38231
1679.77964	1.42764
1677.85107	1.47033
1675.92251	1.51924
1673.99395	1.58033
1672.06538	1.63593
1670.13682	1.69168
1668.20825	1.76423
1666.27969	1.82338
1664.35112	1.87425
1662.42256	1.94035
1660.49399	2.01628
1658.56543	2.07401
1656.63687	2.11845
1654.70830	2.15795
1652.77974	2.21914
1650.85117	2.27758
1648.92261	2.29739
1646.99404	2.32173
1645.06548	2.34889
1643.13691	2.36560
1641.20835	2.37324
1639.27979	2.38057
1637.35122	2.38484
1635.42266	2.38287
1633.49409	2.37381
1631.56553	2.35762
1629.63696	2.33717
1627.70840	2.30475
1625.77983	2.26764
1623.85127	2.22253
1621.92271	2.16756
1619.99414	2.11789
1618.06558	2.06975
1616.13701	2.00214
1614.20845	1.93390
1612.27988	1.88241
1610.35132	1.82860
1608.42275	1.77019
1606.49419	1.71321
1604.56562	1.66123
1602.63706	1.61135
1600.70850	1.56295
1598.77993	1.51856
1596.85137	1.47697
1594.92280	1.43650
1592.99424	1.39733
1591.06567	1.36181
1589.13711	1.32897
1587.20854	1.29866
1585.27998	1.27103
1583.35142	1.24557
1581.42285	1.22249
1579.49429	1.20316
1577.56572	1.18665
1575.63716	1.16785
1573.70859	1.15182
1571.78003	1.14158
1569.85146	1.13172
1567.92290	1.12175
1565.99434	1.11563
1564.06577	1.11268
1562.13721	1.11137
1560.20864	1.11273
1558.28008	1.12057
1556.35151	1.12806
1554.42295	1.13199
1552.49438	1.13611
1550.56582	1.13831
1548.63726	1.13747
1546.70869	1.13358
1544.78013	1.12592
1542.85156	1.11395
1540.92300	1.09443
1538.99443	1.06202
1537.06587	1.03772
1535.13730	1.02119
1533.20874	0.99889
1531.28018	0.97459
1529.35161	0.95690
1527.42305	0.94048
1525.49448	0.92368
1523.56592	0.90962
1521.63735	0.89642
1519.70879	0.88322
1517.78022	0.87224
1515.85166	0.85923
1513.92310	0.84491
1511.99453	0.83214
1510.06597	0.82079
1508.13740	0.80990
1506.20884	0.79259
1504.28027	0.77770
1502.35171	0.76971
1500.42314	0.76274
1498.49458	0.75529
1496.56602	0.74668
1494.63745	0.73807
1492.70889	0.73149
1490.78032	0.72587
1488.85176	0.71943
1486.92319	0.71344
1484.99463	0.70890
1483.06606	0.70553
1481.13750	0.70309
1479.20894	0.70143
1477.28037	0.70076
1475.35181	0.70121
1473.42324	0.70244
1471.49468	0.70300
1469.56611	0.70188
1467.63755	0.69998
1465.70898	0.69824
1463.78042	0.69692
1461.85186	0.69607
1459.92329	0.69596
1457.99473	0.69667
1456.06616	0.69679
1454.13760	0.69468
1452.20903	0.69183
1450.28047	0.68887
1448.35190	0.68595
1446.42334	0.68297
1444.49478	0.68004
1442.56621	0.67705
1440.63765	0.67384
1438.70908	0.67058
1436.78052	0.66653
1434.85195	0.66184
1432.92339	0.65841
1430.99482	0.65626
1429.06626	0.65505
1427.13770	0.65475
1425.20913	0.65525
1423.28057	0.65640
1421.35200	0.65757
1419.42344	0.65856
1417.49487	0.65905
1415.56631	0.65843
1413.63774	0.65775
1411.70918	0.65792
1409.78062	0.65924
1407.85205	0.66113
1405.92349	0.66324
1403.99492	0.66534
1402.06636	0.66640
1400.13779	0.66616
1398.20923	0.66483
1396.28066	0.66237
1394.35210	0.65834
1392.42354	0.65325
1390.49497	0.64846
1388.56641	0.64382
1386.63784	0.63842
1384.70928	0.63245
1382.78071	0.62669
1380.85215	0.62131
1378.92358	0.61662
1376.99502	0.61305
1375.06646	0.61061
1373.13789	0.60903
1371.20933	0.60810
1369.28076	0.60742
1367.35220	0.60632
1365.42363	0.60467
1363.49507	0.60294
1361.56650	0.60127
1359.63794	0.59952
1357.70937	0.59793
1355.78081	0.59674
1353.85225	0.59590
1351.92368	0.59511
1349.99512	0.59428
1348.06655	0.59348
1346.13799	0.59265
1344.20942	0.59189
1342.28086	0.59134
1340.35229	0.59094
1338.42373	0.59048
1336.49517	0.58995
1334.56660	0.58963
1332.63804	0.58965
1330.70947	0.58988
1328.78091	0.59038
1326.85234	0.59126
1324.92378	0.59241
1322.99521	0.59361
1321.06665	0.59468
1319.13809	0.59557
1317.20952	0.59620
1315.28096	0.59644
1313.35239	0.59627
1311.42383	0.59582
1309.49526	0.59530
1307.56670	0.59485
1305.63813	0.59444
1303.70957	0.59401
1301.78101	0.59338
1299.85244	0.59243
1297.92388	0.59133
1295.99531	0.59015
1294.06675	0.58899
1292.13818	0.58787
1290.20962	0.58661
1288.28105	0.58508
1286.35249	0.58345
1284.42393	0.58197
1282.49536	0.58067
1280.56680	0.57933
1278.63823	0.57782
1276.70967	0.57625
1274.78110	0.57484
1272.85254	0.57381
1270.92397	0.57308
1268.99541	0.57229
1267.06685	0.57144
1265.13828	0.57056
1263.20972	0.56961
1261.28115	0.56866
1259.35259	0.56779
1257.42402	0.56706
1255.49546	0.56664
1253.56689	0.56657
1251.63833	0.56672
1249.70977	0.56694
1247.78120	0.56707
1245.85264	0.56685
1243.92407	0.56609
1241.99551	0.56497
1240.06694	0.56367
1238.13838	0.56190
1236.20981	0.55947
1234.28125	0.55669
1232.35269	0.55392
1230.42412	0.55138
1228.49556	0.54913
1226.56699	0.54709
1224.63843	0.54523
1222.70986	0.54345
1220.78130	0.54159
1218.85273	0.53980
1216.92417	0.53834
1214.99561	0.53716
1213.06704	0.53614
1211.13848	0.53536
1209.20991	0.53473
1207.28135	0.53398
1205.35278	0.53310
1203.42422	0.53211
1201.49565	0.53104
1199.56709	0.53010
1197.63853	0.52935
1195.70996	0.52871
1193.78140	0.52822
1191.85283	0.52782
1189.92427	0.52740
1187.99570	0.52697
1186.06714	0.52668
1184.13857	0.52684
1182.21001	0.52746
1180.28145	0.52842
1178.35288	0.52982
1176.42432	0.53161
1174.49575	0.53323
1172.56719	0.53417
1170.63862	0.53448
1168.71006	0.53438
1166.78149	0.53403
1164.85293	0.53361
1162.92437	0.53331
1160.99580	0.53302
1159.06724	0.53243
1157.13867	0.53143
1155.21011	0.53021
1153.28154	0.52890
1151.35298	0.52724
1149.42441	0.52501
1147.49585	0.52238
1145.56729	0.51960
1143.63872	0.51685
1141.71016	0.51445
1139.78159	0.51256
1137.85303	0.51109
1135.92446	0.51013
1133.99590	0.50976
1132.06733	0.50965
1130.13877	0.50949
1128.21021	0.50923
1126.28164	0.50869
1124.35308	0.50769
1122.42451	0.50669
1120.49595	0.50633
1118.56738	0.50665
1116.63882	0.50709
1114.71025	0.50716
1112.78169	0.50714
1110.85312	0.50762
1108.92456	0.50855
1106.99600	0.50956
1105.06743	0.51059
1103.13887	0.51171
1101.21030	0.51294
1099.28174	0.51440
1097.35317	0.51640
1095.42461	0.51916
1093.49604	0.52274
1091.56748	0.52722
1089.63892	0.53261
1087.71035	0.53894
1085.78179	0.54605
1083.85322	0.55336
1081.92466	0.55998
1079.99609	0.56511
1078.06753	0.56806
1076.13896	0.56819
1074.21040	0.56532
1072.28184	0.56008
1070.35327	0.55363
1068.42471	0.54663
1066.49614	0.53956
1064.56758	0.53301
1062.63901	0.52729
1060.71045	0.52227
1058.78188	0.51780
1056.85332	0.51400
1054.92476	0.51082
1052.99619	0.50770
1051.06763	0.50468
1049.13906	0.50243
1047.21050	0.50111
1045.28193	0.50017
1043.35337	0.49920
1041.42480	0.49837
1039.49624	0.49778
1037.56768	0.49722
1035.63911	0.49653
1033.71055	0.49568
1031.78198	0.49482
1029.85342	0.49401
1027.92485	0.49326
1025.99629	0.49256
1024.06772	0.49188
1022.13916	0.49137
1020.21060	0.49105
1018.28203	0.49093
1016.35347	0.49102
1014.42490	0.49126
1012.49634	0.49175
1010.56777	0.49248
1008.63921	0.49315
1006.71064	0.49385
1004.78208	0.49501
1002.85352	0.49685
1000.92495	0.49939
998.99639	0.50260
997.06782	0.50646
995.13926	0.51080
993.21069	0.51507
991.28213	0.51846
989.35356	0.52067
987.42500	0.52190
985.49644	0.52236
983.56787	0.52243
981.63931	0.52283
979.71074	0.52392
977.78218	0.52541
975.85361	0.52737
973.92505	0.52983
971.99648	0.53251
970.06792	0.53559
968.13936	0.53915
966.21079	0.54289
964.28223	0.54711
962.35366	0.55196
960.42510	0.55698
958.49653	0.56202
956.56797	0.56740
954.63940	0.57343
952.71084	0.57998
950.78228	0.58638
948.85371	0.59231
946.92515	0.59835
944.99658	0.60479
943.06802	0.61117
941.13945	0.61728
939.21089	0.62301
937.28232	0.62847
935.35376	0.63408
933.42520	0.64002
931.49663	0.64588
929.56807	0.65122
927.63950	0.65636
925.71094	0.66211
923.78237	0.66853
921.85381	0.67474
919.92524	0.68078
917.99668	0.68736
916.06812	0.69418
914.13955	0.70146
912.21099	0.70967
910.28242	0.71773
908.35386	0.72499
906.42529	0.73286
904.49673	0.74226
902.56816	0.75215
900.63960	0.76146
898.71104	0.77064
896.78247	0.78080
894.85391	0.79215
892.92534	0.80290
890.99678	0.81208
889.06821	0.82172
887.13965	0.83294
885.21108	0.84484
883.28252	0.85655
881.35396	0.86750
879.42539	0.87817
877.49683	0.88884
875.56826	0.89935
873.63970	0.91078
871.71113	0.92342
869.78257	0.93483
867.85400	0.94425
865.92544	0.95434
863.99687	0.96624
862.06831	0.97885
860.13975	0.99134
858.21118	1.00296
856.28262	1.01298
854.35405	1.02365
852.42549	1.03661
850.49692	1.04894
848.56836	1.05942
846.63979	1.07025
844.71123	1.08258
842.78267	1.09435
840.85410	1.10451
838.92554	1.11535
836.99697	1.12757
835.06841	1.13908
833.13984	1.14800
831.21128	1.15639
829.28271	1.16837
827.35415	1.18446
825.42559	1.20216
823.49702	1.21647
821.56846	1.22305
819.63989	1.22619
817.71133	1.23580
815.78276	1.25564
813.85420	1.27684
811.92563	1.29138
809.99707	1.30156
808.06851	1.30736
806.13994	1.31315
804.21138	1.32381
802.28281	1.34122
800.35425	1.37412
798.42568	1.41377
796.49712	1.41715
794.56855	1.38774
792.63999	1.39520
790.71143	1.44923
788.78286	1.47271
786.85430	1.44429
784.92573	1.43654
782.99717	1.48180
781.06860	1.53146
779.14004	1.53487
777.21147	1.58883
775.28291	1.73884
773.35435	1.81186
771.42578	1.92019
769.49722	2.87920
767.56865	2.40791
765.64009	1.60691
763.71152	1.37708
761.78296	1.38326
759.85439	1.55276
757.92583	1.64815
755.99727	1.52656
754.06870	1.36973
752.14014	1.23220
750.21157	1.17637
748.28301	1.18848
746.35444	1.15595
744.42588	1.11017
742.49731	1.09715
740.56875	1.03049
738.64019	1.00872
736.71162	1.09954
734.78306	1.04813
732.85449	0.85263
730.92593	0.78792
728.99736	0.79342
727.06880	0.53045
725.14023	0.26493
723.21167	0.16479
721.28311	0.19547
719.35454	0.34633
717.42598	0.45944
715.49741	0.29429
713.56885	0.13654
711.64028	0.13824
709.71172	0.09577
707.78315	-0.00185
705.85459	0.05014
703.92603	0.11724
701.99746	0.24367
700.06890	0.79072
698.14033	4.18884
696.21177	4.17727
694.28320	4.16570
692.35464	0.84339
690.42607	0.52376
688.49751	0.53779
686.56895	0.65898
684.64038	0.54107
682.71182	0.39704
680.78325	0.39554
678.85469	0.38767
676.92612	0.27978
674.99756	0.21530
673.06899	0.25159
671.14043	0.30932
669.21187	0.37190
667.28330	0.45538
665.35474	0.41208
663.42617	0.29207
661.49761	0.28211
659.56904	0.51768
657.64048	0.89541
655.71191	0.50757
653.78335	0.27648
651.85479	0.24981
649.92622	0.33845
647.99766	0.41158
646.06909	0.37197
644.14053	0.29427
642.21196	0.24900
640.28340	0.24227
638.35483	0.27703
636.42627	0.30959
634.49771	0.31943
632.56914	0.42959
630.64058	0.49928
628.71201	0.34121
626.78345	0.30657
624.85488	0.40683
622.92632	0.45906
620.99775	0.41796
619.06919	0.50335
617.14062	1.09935
615.21206	3.69127
613.28350	0.65848
611.35493	0.40710
609.42637	0.35408
607.49780	0.48258
605.56924	0.90584
603.64067	1.11382
601.71211	0.70364
599.78354	0.44825
597.85498	0.34364
595.92642	0.45367
593.99785	0.68178
592.06929	0.41705
590.14072	0.16998
588.21216	0.11809
586.28359	0.16505
584.35503	0.24569
582.42646	0.34134
580.49790	0.44616
578.56934	0.47067
576.64077	0.40854
574.71221	0.33706
572.78364	0.30038
570.85508	0.30449
568.92651	0.32194
566.99795	0.33285
565.06938	0.31647
563.14082	0.28093
561.21226	0.26950
559.28369	0.26658
557.35513	0.21188
555.42656	0.16340
553.49800	0.16990
551.56943	0.18334
549.64087	0.17580
547.71230	0.19159
545.78374	0.24435
543.85518	0.29063
541.92661	0.27338
539.99805	0.22239
538.06948	0.22053
536.14092	0.31487
534.21235	0.39816
532.28379	0.32528
530.35522	0.25098
528.42666	0.21834
526.49810	0.20260
524.56953	0.19567
522.64097	0.19127
520.71240	0.20484
518.78384	0.25003
516.85527	0.31578
514.92671	0.35190
512.99814	0.33794
511.06958	0.34412
509.14102	0.31670
507.21245	0.23886
505.28389	0.18833
503.35532	0.17949
501.42676	0.16586
499.49819	0.12886
