3997.91411	0.03888
3995.98555	0.03896
3994.05698	0.03953
3992.12842	0.04011
3990.19985	0.04037
3988.27129	0.04066
3986.34272	0.04086
3984.41416	0.04080
3982.48560	0.04096
3980.55703	0.04141
3978.62847	0.04183
3976.69990	0.04223
3974.77134	0.04262
3972.84277	0.04291
3970.91421	0.04315
3968.98564	0.04318
3967.05708	0.04304
3965.12852	0.04312
3963.19995	0.04356
3961.27139	0.04400
3959.34282	0.04392
3957.41426	0.04361
3955.48569	0.04361
3953.55713	0.04368
3951.62856	0.04383
3949.70000	0.04440
3947.77144	0.04506
3945.84287	0.04524
3943.91431	0.04496
3941.98574	0.04463
3940.05718	0.04455
3938.12861	0.04464
3936.20005	0.04468
3934.27148	0.04480
3932.34292	0.04528
3930.41436	0.04573
3928.48579	0.04570
3926.55723	0.04568
3924.62866	0.04583
3922.70010	0.04541
3920.77153	0.04461
3918.84297	0.04434
3916.91440	0.04480
3914.98584	0.04538
3913.05728	0.04540
3911.12871	0.04506
3909.20015	0.04474
3907.27158	0.04490
3905.34302	0.04569
3903.41445	0.04631
3901.48589	0.04604
3899.55732	0.04560
3897.62876	0.04526
3895.70020	0.04476
3893.77163	0.04453
3891.84307	0.04495
3889.91450	0.04565
3887.98594	0.04562
3886.05737	0.04531
3884.12881	0.04559
3882.20024	0.04606
3880.27168	0.04659
3878.34312	0.04681
3876.41455	0.04611
3874.48599	0.04564
3872.55742	0.04608
3870.62886	0.04723
3868.70029	0.04877
3866.77173	0.04925
3864.84316	0.04897
3862.91460	0.04890
3860.98604	0.04880
3859.05747	0.04888
3857.12891	0.04937
3855.20034	0.04988
3853.27178	0.05080
3851.34321	0.05236
3849.41465	0.05245
3847.48608	0.05200
3845.55752	0.05216
3843.62896	0.05292
3841.70039	0.05391
3839.77183	0.05499
3837.84326	0.05623
3835.91470	0.05716
3833.98613	0.05734
3832.05757	0.05714
3830.12900	0.05716
3828.20044	0.05773
3826.27187	0.05905
3824.34331	0.06031
3822.41475	0.06099
3820.48618	0.06235
3818.55762	0.06361
3816.62905	0.06374
3814.70049	0.06422
3812.77192	0.06480
3810.84336	0.06493
3808.91479	0.06520
3806.98623	0.06636
3805.05767	0.06847
3803.12910	0.07045
3801.20054	0.07239
3799.27197	0.07420
3797.34341	0.07517
3795.41484	0.07586
3793.48628	0.07616
3791.55771	0.07642
3789.62915	0.07731
3787.70059	0.07854
3785.77202	0.08008
3783.84346	0.08201
3781.91489	0.08357
3779.98633	0.08494
3778.05776	0.08699
3776.12920	0.08875
3774.20063	0.08962
3772.27207	0.09061
3770.34351	0.09259
3768.41494	0.09507
3766.48638	0.09689
3764.55781	0.09871
3762.62925	0.10085
3760.70068	0.10308
3758.77212	0.10591
3756.84355	0.10885
3754.91499	0.11084
3752.98643	0.11251
3751.05786	0.11552
3749.12930	0.12025
3747.20073	0.12341
3745.27217	0.12502
3743.34360	0.12820
3741.41504	0.13266
3739.48647	0.13621
3737.55791	0.13974
3735.62935	0.14496
3733.70078	0.15186
3731.77222	0.15696
3729.84365	0.16030
3727.91509	0.16401
3725.98652	0.16931
3724.05796	0.17615
3722.12939	0.18338
3720.20083	0.19054
3718.27227	0.19736
3716.34370	0.20422
3714.41514	0.21143
3712.48657	0.22024
3710.55801	0.23301
3708.62944	0.24722
3706.70088	0.25897
3704.77231	0.27020
3702.84375	0.28359
3700.91519	0.30092
3698.98662	0.31934
3697.05806	0.33655
3695.12949	0.35500
3693.20093	0.37451
3691.27236	0.39563
3689.34380	0.42340
3687.41523	0.45798
3685.48667	0.48855
3683.55811	0.51464
3681.62954	0.54208
3679.70098	0.57301
3677.77241	0.60592
3675.84385	0.64496
3673.91528	0.69806
3671.98672	0.74184
3670.05815	0.77985
3668.12959	0.83253
3666.20103	0.88187
3664.27246	0.92296
3662.34390	0.96661
3660.41533	1.01363
3658.48677	1.05926
3656.55820	1.10703
3654.62964	1.16103
3652.70107	1.20700
3650.77251	1.24611
3648.84395	1.30062
3646.91538	1.37142
3644.98682	1.42426
3643.05825	1.46258
3641.12969	1.50047
3639.20112	1.54342
3637.27256	1.58855
3635.34399	1.63278
3633.41543	1.67572
3631.48687	1.71457
3629.55830	1.75302
3627.62974	1.80532
3625.70117	1.85730
3623.77261	1.89260
3621.84404	1.92482
3619.91548	1.96116
3617.98691	2.00673
3616.05835	2.05250
3614.12979	2.08954
3612.20122	2.12659
3610.27266	2.16467
3608.34409	2.20455
3606.41553	2.24790
3604.48696	2.28784
3602.55840	2.32185
3600.62983	2.35775
3598.70127	2.39859
3596.77271	2.43978
3594.84414	2.48022
3592.91558	2.52082
3590.98701	2.55883
3589.05845	2.59281
3587.12988	2.63340
3585.20132	2.68209
3583.27275	2.72439
3581.34419	2.76155
3579.41562	2.80101
3577.48706	2.84329
3575.55850	2.88653
3573.62993	2.93107
3571.70137	2.97316
3569.77280	3.01125
3567.84424	3.04972
3565.91567	3.09617
3563.98711	3.14342
3562.05854	3.18394
3560.12998	3.22582
3558.20142	3.27190
3556.27285	3.31891
3554.34429	3.36440
3552.41572	3.40989
3550.48716	3.45438
3548.55859	3.49625
3546.63003	3.53835
3544.70146	3.58638
3542.77290	3.63637
3540.84434	3.68089
3538.91577	3.72491
3536.98721	3.77185
3535.05864	3.81935
3533.13008	3.86528
3531.20151	3.91193
3529.27295	3.95776
3527.34438	4.00062
3525.41582	4.04551
3523.48726	4.09319
3521.55869	4.14040
3519.63013	4.18874
3517.70156	4.24051
3515.77300	4.28978
3513.84443	4.33249
3511.91587	4.37403
3509.98730	4.41936
3508.05874	4.46586
3506.13018	4.50746
3504.20161	4.54606
3502.27305	4.58990
3500.34448	4.63896
3498.41592	4.68686
3496.48735	4.73370
3494.55879	4.78020
3492.63022	4.82195
3490.70166	4.86049
3488.77310	4.90732
3486.84453	4.96106
3484.91597	5.01236
3482.98740	5.06303
3481.05884	5.10924
3479.13027	5.14758
3477.20171	5.18834
3475.27314	5.23470
3473.34458	5.28581
3471.41602	5.33481
3469.48745	5.37260
3467.55889	5.40853
3465.63032	5.44611
3463.70176	5.48299
3461.77319	5.52626
3459.84463	5.57795
3457.91606	5.62701
3455.98750	5.66737
3454.05894	5.70993
3452.13037	5.76021
3450.20181	5.80772
3448.27324	5.84727
3446.34468	5.88903
3444.41611	5.93240
3442.48755	5.97518
3440.55898	6.02481
3438.63042	6.06956
3436.70186	6.09576
3434.77329	6.13200
3432.84473	6.19336
3430.91616	6.23702
3428.98760	6.25060
3427.05903	6.26946
3425.13047	6.30767
3423.20190	6.35167
3421.27334	6.39840
3419.34478	6.45076
3417.41621	6.49985
3415.48765	6.52460
3413.55908	6.53225
3411.63052	6.56424
3409.70195	6.61345
3407.77339	6.65309
3405.84482	6.69282
3403.91626	6.74211
3401.98770	6.77519
3400.05913	6.79200
3398.13057	6.81331
3396.20200	6.83644
3394.27344	6.85520
3392.34487	6.85611
3390.41631	6.86699
3388.48774	6.89835
3386.55918	6.92529
3384.63062	6.96039
3382.70205	7.00522
3380.77349	7.02127
3378.84492	7.02547
3376.91636	7.04948
3374.98779	7.06975
3373.05923	7.09152
3371.13066	7.11967
3369.20210	7.15445
3367.27354	7.17732
3365.34497	7.16295
3363.41641	7.13863
3361.48784	7.13563
3359.55928	7.15307
3357.63071	7.17948
3355.70215	7.23574
3353.77358	7.29477
3351.84502	7.29666
3349.91646	7.25296
3347.98789	7.22195
3346.05933	7.23368
3344.13076	7.27718
3342.20220	7.28506
3340.27363	7.23121
3338.34507	7.20310
3336.41650	7.21721
3334.48794	7.24387
3332.55937	7.25800
3330.63081	7.26977
3328.70225	7.31208
3326.77368	7.32839
3324.84512	7.27827
3322.91655	7.20520
3320.98799	7.15950
3319.05942	7.15982
3317.13086	7.18797
3315.20229	7.21704
3313.27373	7.26398
3311.34517	7.31083
3309.41660	7.30746
3307.48804	7.28667
3305.55947	7.28920
3303.63091	7.30290
3301.70234	7.30488
3299.77378	7.29475
3297.84521	7.28756
3295.91665	7.30780
3293.98809	7.30429
3292.05952	7.23897
3290.13096	7.20415
3288.20239	7.24010
3286.27383	7.27896
3284.34526	7.27787
3282.41670	7.25096
3280.48813	7.21672
3278.55957	7.22026
3276.63101	7.25133
3274.70244	7.26935
3272.77388	7.26569
3270.84531	7.21069
3268.91675	7.16464
3266.98818	7.21038
3265.05962	7.28133
3263.13105	7.27720
3261.20249	7.23601
3259.27393	7.20468
3257.34536	7.19398
3255.41680	7.19832
3253.48823	7.19644
3251.55967	7.21792
3249.63110	7.25201
3247.70254	7.24450
3245.77397	7.21438
3243.84541	7.19301
3241.91685	7.19044
3239.98828	7.22369
3238.05972	7.25330
3236.13115	7.23482
3234.20259	7.20713
3232.27402	7.20573
3230.34546	7.20810
3228.41689	7.17591
3226.48833	7.13730
3224.55977	7.15806
3222.63120	7.20842
3220.70264	7.18121
3218.77407	7.08369
3216.84551	7.00711
3214.91694	6.98716
3212.98838	7.01847
3211.05981	7.05681
3209.13125	7.06411
3207.20269	7.05743
3205.27412	7.05134
3203.34556	7.05102
3201.41699	7.04713
3199.48843	7.00766
3197.55986	6.95196
3195.63130	6.92646
3193.70273	6.91913
3191.77417	6.88862
3189.84561	6.84509
3187.91704	6.81902
3185.98848	6.79506
3184.05991	6.75291
3182.13135	6.71898
3180.20278	6.71447
3178.27422	6.69613
3176.34565	6.64149
3174.41709	6.59325
3172.48853	6.56045
3170.55996	6.52027
3168.63140	6.47896
3166.70283	6.44530
3164.77427	6.40295
3162.84570	6.34268
3160.91714	6.27560
3158.98857	6.21989
3157.06001	6.18374
3155.13145	6.15467
3153.20288	6.11217
3151.27432	6.04916
3149.34575	5.96945
3147.41719	5.89259
3145.48862	5.84246
3143.56006	5.79895
3141.63149	5.73842
3139.70293	5.68408
3137.77437	5.64318
3135.84580	5.59099
3133.91724	5.52250
3131.98867	5.45033
3130.06011	5.38599
3128.13154	5.32832
3126.20298	5.26507
3124.27441	5.19787
3122.34585	5.13440
3120.41729	5.07348
3118.48872	5.00913
3116.56016	4.94031
3114.63159	4.87499
3112.70303	4.81736
3110.77446	4.76074
3108.84590	4.69507
3106.91733	4.62388
3104.98877	4.55936
3103.06021	4.49916
3101.13164	4.43558
3099.20308	4.37152
3097.27451	4.30969
3095.34595	4.24796
3093.41738	4.18540
3091.48882	4.12317
3089.56025	4.06126
3087.63169	3.99784
3085.70312	3.93539
3083.77456	3.87821
3081.84600	3.82291
3079.91743	3.76398
3077.98887	3.70350
3076.06030	3.64545
3074.13174	3.58975
3072.20317	3.53463
3070.27461	3.47878
3068.34604	3.42210
3066.41748	3.36611
3064.48892	3.31299
3062.56035	3.26186
3060.63179	3.21023
3058.70322	3.15788
3056.77466	3.10506
3054.84609	3.05205
3052.91753	3.00133
3050.98896	2.95344
3049.06040	2.90458
3047.13184	2.85429
3045.20327	2.80530
3043.27471	2.75805
3041.34614	2.71201
3039.41758	2.66662
3037.48901	2.62130
3035.56045	2.57590
3033.63188	2.53102
3031.70332	2.48711
3029.77476	2.44412
3027.84619	2.40251
3025.91763	2.36187
3023.98906	2.32082
3022.06050	2.27951
3020.13193	2.23910
3018.20337	2.19957
3016.27480	2.16063
3014.34624	2.12265
3012.41768	2.08495
3010.48911	2.04713
3008.56055	2.01045
3006.63198	1.97547
3004.70342	1.94152
3002.77485	1.90775
3000.84629	1.87410
2998.91772	1.84105
2996.98916	1.80870
2995.06060	1.77697
2993.13203	1.74575
2991.20347	1.71503
2989.27490	1.68500
2987.34634	1.65574
2985.41777	1.62705
2983.48921	1.59898
2981.56064	1.57142
2979.63208	1.54445
2977.70352	1.51830
2975.77495	1.49253
2973.84639	1.46686
2971.91782	1.44157
2969.98926	1.41691
2968.06069	1.39287
2966.13213	1.36907
2964.20356	1.34543
2962.27500	1.32201
2960.34644	1.29860
2958.41787	1.27520
2956.48931	1.25194
2954.56074	1.22889
2952.63218	1.20639
2950.70361	1.18459
2948.77505	1.16320
2946.84648	1.14228
2944.91792	1.12177
2942.98936	1.10131
2941.06079	1.08102
2939.13223	1.06116
2937.20366	1.04156
2935.27510	1.02229
2933.34653	1.00375
2931.41797	0.98574
2929.48940	0.96775
2927.56084	0.94975
2925.63228	0.93209
2923.70371	0.91460
2921.77515	0.89703
2919.84658	0.88019
2917.91802	0.86437
2915.98945	0.84873
2914.06089	0.83307
2912.13232	0.81793
2910.20376	0.80325
2908.27520	0.78851
2906.34663	0.77399
2904.41807	0.76037
2902.48950	0.74738
2900.56094	0.73423
2898.63237	0.72080
2896.70381	0.70797
2894.77524	0.69595
2892.84668	0.68408
2890.91812	0.67237
2888.98955	0.66117
2887.06099	0.65025
2885.13242	0.63941
2883.20386	0.62895
2881.27529	0.61908
2879.34673	0.60963
2877.41816	0.60024
2875.48960	0.59054
2873.56104	0.58036
2871.63247	0.57007
2869.70391	0.55990
2867.77534	0.54969
2865.84678	0.53941
2863.91821	0.52908
2861.98965	0.51863
2860.06108	0.50843
2858.13252	0.49896
2856.20396	0.49007
2854.27539	0.48130
2852.34683	0.47256
2850.41826	0.46422
2848.48970	0.45652
2846.56113	0.44927
2844.63257	0.44204
2842.70400	0.43489
2840.77544	0.42834
2838.84687	0.42254
2836.91831	0.41687
2834.98975	0.41094
2833.06118	0.40501
2831.13262	0.39928
2829.20405	0.39356
2827.27549	0.38774
2825.34692	0.38184
2823.41836	0.37585
2821.48979	0.36989
2819.56123	0.36420
2817.63267	0.35859
2815.70410	0.35298
2813.77554	0.34760
2811.84697	0.34236
2809.91841	0.33722
2807.98984	0.33232
2806.06128	0.32745
2804.13271	0.32242
2802.20415	0.31740
2800.27559	0.31246
2798.34702	0.30764
2796.41846	0.30314
2794.48989	0.29891
2792.56133	0.29459
2790.63276	0.29026
2788.70420	0.28607
2786.77563	0.28179
2784.84707	0.27743
2782.91851	0.27341
2780.98994	0.26976
2779.06138	0.26620
2777.13281	0.26259
2775.20425	0.25887
2773.27568	0.25518
2771.34712	0.25179
2769.41855	0.24860
2767.48999	0.24524
2765.56143	0.24171
2763.63286	0.23827
2761.70430	0.23512
2759.77573	0.23221
2757.84717	0.22932
2755.91860	0.22629
2753.99004	0.22325
2752.06147	0.22044
2750.13291	0.21782
2748.20435	0.21518
2746.27578	0.21246
2744.34722	0.20979
2742.41865	0.20722
2740.49009	0.20471
2738.56152	0.20224
2736.63296	0.19976
2734.70439	0.19731
2732.77583	0.19492
2730.84727	0.19261
2728.91870	0.19046
2726.99014	0.18846
2725.06157	0.18647
2723.13301	0.18445
2721.20444	0.18248
2719.27588	0.18055
2717.34731	0.17861
2715.41875	0.17669
2713.49019	0.17492
2711.56162	0.17326
2709.63306	0.17145
2707.70449	0.16967
2705.77593	0.16822
2703.84736	0.16692
2701.91880	0.16557
2699.99023	0.16425
2698.06167	0.16290
2696.13311	0.16137
2694.20454	0.15985
2692.27598	0.15856
2690.34741	0.15729
2688.41885	0.15594
2686.49028	0.15476
2684.56172	0.15378
2682.63315	0.15266
2680.70459	0.15139
2678.77603	0.15019
2676.84746	0.14916
2674.91890	0.14823
2672.99033	0.14720
2671.06177	0.14610
2669.13320	0.14511
2667.20464	0.14413
2665.27607	0.14315
2663.34751	0.14240
2661.41895	0.14164
2659.49038	0.14078
2657.56182	0.14011
2655.63325	0.13954
2653.70469	0.13887
2651.77612	0.13822
2649.84756	0.13769
2647.91899	0.13706
2645.99043	0.13628
2644.06187	0.13564
2642.13330	0.13517
2640.20474	0.13476
2638.27617	0.13434
2636.34761	0.13388
2634.41904	0.13331
2632.49048	0.13275
2630.56191	0.13237
2628.63335	0.13213
2626.70479	0.13186
2624.77622	0.13156
2622.84766	0.13126
2620.91909	0.13105
2618.99053	0.13093
2617.06196	0.13073
2615.13340	0.13046
2613.20483	0.13035
2611.27627	0.13035
2609.34771	0.13029
2607.41914	0.13017
2605.49058	0.13005
2603.56201	0.13005
2601.63345	0.13011
2599.70488	0.13018
2597.77632	0.13032
2595.84775	0.13047
2593.91919	0.13051
2591.99062	0.13053
2590.06206	0.13060
2588.13350	0.13070
2586.20493	0.13082
2584.27637	0.13102
2582.34780	0.13126
2580.41924	0.13151
2578.49067	0.13179
2576.56211	0.13211
2574.63354	0.13243
2572.70498	0.13280
2570.77642	0.13320
2568.84785	0.13357
2566.91929	0.13385
2564.99072	0.13407
2563.06216	0.13440
2561.13359	0.13498
2559.20503	0.13565
2557.27646	0.13617
2555.34790	0.13660
2553.41934	0.13711
2551.49077	0.13768
2549.56221	0.13819
2547.63364	0.13866
2545.70508	0.13924
2543.77651	0.13995
2541.84795	0.14065
2539.91938	0.14130
2537.99082	0.14195
2536.06226	0.14256
2534.13369	0.14312
2532.20513	0.14377
2530.27656	0.14445
2528.34800	0.14512
2526.41943	0.14580
2524.49087	0.14644
2522.56230	0.14715
2520.63374	0.14801
2518.70518	0.14886
2516.77661	0.14955
2514.84805	0.15019
2512.91948	0.15093
2510.99092	0.15178
2509.06235	0.15263
2507.13379	0.15346
2505.20522	0.15422
2503.27666	0.15492
2501.34810	0.15565
2499.41953	0.15655
2497.49097	0.15755
2495.56240	0.15850
2493.63384	0.15937
2491.70527	0.16017
2489.77671	0.16094
2487.84814	0.16179
2485.91958	0.16268
2483.99102	0.16354
2482.06245	0.16447
2480.13389	0.16544
2478.20532	0.16624
2476.27676	0.16689
2474.34819	0.16772
2472.41963	0.16876
2470.49106	0.16971
2468.56250	0.17046
2466.63394	0.17126
2464.70537	0.17233
2462.77681	0.17346
2460.84824	0.17437
2458.91968	0.17522
2456.99111	0.17621
2455.06255	0.17717
2453.13398	0.17807
2451.20542	0.17913
2449.27686	0.18035
2447.34829	0.18147
2445.41973	0.18235
2443.49116	0.18327
2441.56260	0.18440
2439.63403	0.18548
2437.70547	0.18635
2435.77690	0.18718
2433.84834	0.18809
2431.91978	0.18910
2429.99121	0.19020
2428.06265	0.19132
2426.13408	0.19243
2424.20552	0.19355
2422.27695	0.19468
2420.34839	0.19574
2418.41982	0.19671
2416.49126	0.19773
2414.56270	0.19885
2412.63413	0.20006
2410.70557	0.20126
2408.77700	0.20239
2406.84844	0.20361
2404.91987	0.20493
2402.99131	0.20614
2401.06274	0.20728
2399.13418	0.20845
2397.20562	0.20962
2395.27705	0.21074
2393.34849	0.21192
2391.41992	0.21322
2389.49136	0.21458
2387.56279	0.21602
2385.63423	0.21765
2383.70566	0.21958
2381.77710	0.22187
2379.84854	0.22442
2377.91997	0.22699
2375.99141	0.22971
2374.06284	0.23295
2372.13428	0.23652
2370.20571	0.24001
2368.27715	0.24312
2366.34858	0.24539
2364.42002	0.24561
2362.49146	0.24447
2360.56289	0.24556
2358.63433	0.24956
2356.70576	0.25373
2354.77720	0.25576
2352.84863	0.25641
2350.92007	0.25667
2348.99150	0.25676
2347.06294	0.25740
2345.13437	0.25945
2343.20581	0.26235
2341.27725	0.26423
2339.34868	0.26576
2337.42012	0.26796
2335.49155	0.26998
2333.56299	0.27176
2331.63442	0.27384
2329.70586	0.27511
2327.77729	0.27551
2325.84873	0.27626
2323.92017	0.27725
2321.99160	0.27807
2320.06304	0.27898
2318.13447	0.27988
2316.20591	0.28049
2314.27734	0.28107
2312.34878	0.28205
2310.42021	0.28325
2308.49165	0.28434
2306.56309	0.28535
2304.63452	0.28623
2302.70596	0.28725
2300.77739	0.28876
2298.84883	0.29049
2296.92026	0.29212
2294.99170	0.29355
2293.06313	0.29488
2291.13457	0.29628
2289.20601	0.29792
2287.27744	0.29974
2285.34888	0.30147
2283.42031	0.30303
2281.49175	0.30476
2279.56318	0.30684
2277.63462	0.30912
2275.70605	0.31143
2273.77749	0.31368
2271.84893	0.31587
2269.92036	0.31796
2267.99180	0.31991
2266.06323	0.32180
2264.13467	0.32375
2262.20610	0.32575
2260.27754	0.32775
2258.34897	0.32977
2256.42041	0.33186
2254.49185	0.33403
2252.56328	0.33615
2250.63472	0.33820
2248.70615	0.34028
2246.77759	0.34231
2244.84902	0.34431
2242.92046	0.34635
2240.99189	0.34851
2239.06333	0.35079
2237.13477	0.35301
2235.20620	0.35510
2233.27764	0.35724
2231.34907	0.35951
2229.42051	0.36181
2227.49194	0.36403
2225.56338	0.36617
2223.63481	0.36829
2221.70625	0.37043
2219.77769	0.37258
2217.84912	0.37475
2215.92056	0.37698
2213.99199	0.37915
2212.06343	0.38118
2210.13486	0.38322
2208.20630	0.38526
2206.27773	0.38723
2204.34917	0.38924
2202.42061	0.39141
2200.49204	0.39356
2198.56348	0.39546
2196.63491	0.39726
2194.70635	0.39919
2192.77778	0.40127
2190.84922	0.40331
2188.92065	0.40507
2186.99209	0.40663
2185.06353	0.40840
2183.13496	0.41035
2181.20640	0.41217
2179.27783	0.41376
2177.34927	0.41523
2175.42070	0.41672
2173.49214	0.41826
2171.56357	0.41971
2169.63501	0.42106
2167.70645	0.42239
2165.77788	0.42366
2163.84932	0.42489
2161.92075	0.42611
2159.99219	0.42732
2158.06362	0.42845
2156.13506	0.42941
2154.20649	0.43027
2152.27793	0.43110
2150.34937	0.43188
2148.42080	0.43260
2146.49224	0.43327
2144.56367	0.43388
2142.63511	0.43441
2140.70654	0.43480
2138.77798	0.43499
2136.84941	0.43502
2134.92085	0.43507
2132.99229	0.43512
2131.06372	0.43509
2129.13516	0.43507
2127.20659	0.43503
2125.27803	0.43483
2123.34946	0.43438
2121.42090	0.43388
2119.49233	0.43350
2117.56377	0.43307
2115.63521	0.43252
2113.70664	0.43189
2111.77808	0.43113
2109.84951	0.43026
2107.92095	0.42930
2105.99238	0.42823
2104.06382	0.42710
2102.13525	0.42582
2100.20669	0.42444
2098.27812	0.42313
2096.34956	0.42188
2094.42100	0.42053
2092.49243	0.41912
2090.56387	0.41766
2088.63530	0.41606
2086.70674	0.41432
2084.77817	0.41248
2082.84961	0.41064
2080.92104	0.40886
2078.99248	0.40698
2077.06392	0.40497
2075.13535	0.40293
2073.20679	0.40080
2071.27822	0.39857
2069.34966	0.39640
2067.42109	0.39428
2065.49253	0.39212
2063.56396	0.38982
2061.63540	0.38745
2059.70684	0.38505
2057.77827	0.38264
2055.84971	0.38025
2053.92114	0.37785
2051.99258	0.37538
2050.06401	0.37281
2048.13545	0.37023
2046.20688	0.36763
2044.27832	0.36502
2042.34976	0.36243
2040.42119	0.35977
2038.49263	0.35710
2036.56406	0.35457
2034.63550	0.35203
2032.70693	0.34939
2030.77837	0.34673
2028.84980	0.34397
2026.92124	0.34119
2024.99268	0.33845
2023.06411	0.33571
2021.13555	0.33308
2019.20698	0.33060
2017.27842	0.32810
2015.34985	0.32536
2013.42129	0.32252
2011.49272	0.31975
2009.56416	0.31710
2007.63560	0.31453
2005.70703	0.31195
2003.77847	0.30929
2001.84990	0.30663
1999.92134	0.30405
1997.99277	0.30150
1996.06421	0.29896
1994.13564	0.29655
1992.20708	0.29421
1990.27852	0.29180
1988.34995	0.28942
1986.42139	0.28699
1984.49282	0.28448
1982.56426	0.28205
1980.63569	0.27976
1978.70713	0.27751
1976.77856	0.27522
1974.85000	0.27301
1972.92144	0.27096
1970.99287	0.26904
1969.06431	0.26715
1967.13574	0.26520
1965.20718	0.26312
1963.27861	0.26106
1961.35005	0.25915
1959.42148	0.25729
1957.49292	0.25543
1955.56436	0.25360
1953.63579	0.25195
1951.70723	0.25037
1949.77866	0.24867
1947.85010	0.24696
1945.92153	0.24549
1943.99297	0.24419
1942.06440	0.24282
1940.13584	0.24120
1938.20728	0.23962
1936.27871	0.23830
1934.35015	0.23712
1932.42158	0.23599
1930.49302	0.23480
1928.56445	0.23358
1926.63589	0.23249
1924.70732	0.23165
1922.77876	0.23086
1920.85020	0.22991
1918.92163	0.22900
1916.99307	0.22812
1915.06450	0.22714
1913.13594	0.22624
1911.20737	0.22559
1909.27881	0.22503
1907.35024	0.22436
1905.42168	0.22359
1903.49312	0.22291
1901.56455	0.22232
1899.63599	0.22177
1897.70742	0.22131
1895.77886	0.22099
1893.85029	0.22075
1891.92173	0.22050
1889.99316	0.22036
1888.06460	0.22008
1886.13604	0.21967
1884.20747	0.21941
1882.27891	0.21925
1880.35034	0.21910
1878.42178	0.21897
1876.49321	0.21890
1874.56465	0.21883
1872.63608	0.21894
1870.70752	0.21935
1868.77896	0.22012
1866.85039	0.22059
1864.92183	0.22038
1862.99326	0.22018
1861.06470	0.22029
1859.13613	0.22056
1857.20757	0.22081
1855.27900	0.22123
1853.35044	0.22174
1851.42187	0.22226
1849.49331	0.22286
1847.56475	0.22371
1845.63618	0.22477
1843.70762	0.22579
1841.77905	0.22633
1839.85049	0.22659
1837.92192	0.22729
1835.99336	0.22818
1834.06479	0.22907
1832.13623	0.23017
1830.20767	0.23175
1828.27910	0.23323
1826.35054	0.23417
1824.42197	0.23536
1822.49341	0.23659
1820.56484	0.23774
1818.63628	0.23906
1816.70771	0.24068
1814.77915	0.24232
1812.85059	0.24407
1810.92202	0.24610
1808.99346	0.24814
1807.06489	0.25007
1805.13633	0.25203
1803.20776	0.25437
1801.27920	0.25699
1799.35063	0.25970
1797.42207	0.26208
1795.49351	0.26442
1793.56494	0.26724
1791.63638	0.27096
1789.70781	0.27440
1787.77925	0.27677
1785.85068	0.27968
1783.92212	0.28339
1781.99355	0.28738
1780.06499	0.29148
1778.13643	0.29564
1776.20786	0.29958
1774.27930	0.30391
1772.35073	0.30992
1770.42217	0.31632
1768.49360	0.32141
1766.56504	0.32634
1764.63647	0.33154
1762.70791	0.33733
1760.77935	0.34468
1758.85078	0.35152
1756.92222	0.35850
1754.99365	0.36626
1753.06509	0.37324
1751.13652	0.38155
1749.20796	0.39225
1747.27939	0.40285
1745.35083	0.41191
1743.42227	0.42127
1741.49370	0.43147
1739.56514	0.44356
1737.63657	0.45582
1735.70801	0.46639
1733.77944	0.48224
1731.85088	0.50176
1729.92231	0.51737
1727.99375	0.53295
1726.06519	0.54955
1724.13662	0.56764
1722.20806	0.58724
1720.27949	0.60524
1718.35093	0.62612
1716.42236	0.65766
1714.49380	0.68838
1712.56523	0.71307
1710.63667	0.73656
1708.70811	0.76169
1706.77954	0.79041
1704.85098	0.82512
1702.92241	0.85593
1700.99385	0.88576
1699.06528	0.93079
1697.13672	0.97303
1695.20815	1.01662
1693.27959	1.05933
1691.35103	1.09385
1689.42246	1.13345
1687.49390	1.17453
1685.56533	1.21248
1683.63677	1.27229
1681.70820	1.33815
1679.77964	1.38098
1677.85107	1.41998
1675.92251	1.46368
1673.99395	1.51868
1672.06538	1.56897
1670.13682	1.61819
1668.20825	1.68175
1666.27969	1.73369
1664.35112	1.77691
1662.42256	1.83049
1660.49399	1.89190
1658.56543	1.94003
1656.63687	1.97655
1654.70830	2.00562
1652.77974	2.05488
1650.85117	2.11464
1648.92261	2.13864
1646.99404	2.16069
1645.06548	2.18848
1643.13691	2.21048
1641.20835	2.22225
1639.27979	2.23039
1637.35122	2.23230
1635.42266	2.22741
1633.49409	2.22397
1631.56553	2.21697
1629.63696	2.20186
1627.70840	2.17284
1625.77983	2.14000
1623.85127	2.10085
1621.92271	2.05343
1619.99414	2.01072
1618.06558	1.96684
1616.13701	1.90406
1614.20845	1.84272
1612.27988	1.79626
1610.35132	1.74613
1608.42275	1.69183
1606.49419	1.63920
1604.56562	1.59053
1602.63706	1.54330
1600.70850	1.49727
1598.77993	1.45450
1596.85137	1.41374
1594.92280	1.37411
1592.99424	1.33593
1591.06567	1.30124
1589.13711	1.26905
1587.20854	1.23860
1585.27998	1.21015
1583.35142	1.18378
1581.42285	1.15966
1579.49429	1.13888
1577.56572	1.11990
1575.63716	1.09700
1573.70859	1.07763
1571.78003	1.06519
1569.85146	1.05178
1567.92290	1.03696
1565.99434	1.02613
1564.06577	1.01785
1562.13721	1.01096
1560.20864	1.00472
1558.28008	0.99764
1556.35151	0.99547
1554.42295	0.99462
1552.49438	0.99257
1550.56582	0.98880
1548.63726	0.98292
1546.70869	0.97588
1544.78013	0.96693
1542.85156	0.95502
1540.92300	0.93849
1538.99443	0.91614
1537.06587	0.90110
1535.13730	0.89033
1533.20874	0.87517
1531.28018	0.85893
1529.35161	0.84727
1527.42305	0.83616
1525.49448	0.82446
1523.56592	0.81444
1521.63735	0.80482
1519.70879	0.79484
1517.78022	0.78631
1515.85166	0.77678
1513.92310	0.76702
1511.99453	0.75858
1510.06597	0.75070
1508.13740	0.74256
1506.20884	0.73066
1504.28027	0.72162
1502.35171	0.71671
1500.42314	0.71199
1498.49458	0.70660
1496.56602	0.70020
1494.63745	0.69403
1492.70889	0.68939
1490.78032	0.68534
1488.85176	0.68054
1486.92319	0.67582
1484.99463	0.67195
1483.06606	0.66893
1481.13750	0.66654
1479.20894	0.66461
1477.28037	0.66324
1475.35181	0.66230
1473.42324	0.66151
1471.49468	0.66026
1469.56611	0.65842
1467.63755	0.65629
1465.70898	0.65414
1463.78042	0.65233
1461.85186	0.65117
1459.92329	0.65038
1457.99473	0.64932
1456.06616	0.64770
1454.13760	0.64612
1452.20903	0.64450
1450.28047	0.64237
1448.35190	0.63977
1446.42334	0.63713
1444.49478	0.63482
1442.56621	0.63263
1440.63765	0.63040
1438.70908	0.62814
1436.78052	0.62535
1434.85195	0.62230
1432.92339	0.61989
1430.99482	0.61810
1429.06626	0.61688
1427.13770	0.61624
1425.20913	0.61606
1423.28057	0.61611
1421.35200	0.61594
1419.42344	0.61559
1417.49487	0.61513
1415.56631	0.61413
1413.63774	0.61303
1411.70918	0.61236
1409.78062	0.61225
1407.85205	0.61254
1405.92349	0.61313
1403.99492	0.61370
1402.06636	0.61355
1400.13779	0.61269
1398.20923	0.61124
1396.28066	0.60931
1394.35210	0.60670
1392.42354	0.60332
1390.49497	0.59999
1388.56641	0.59695
1386.63784	0.59361
1384.70928	0.58991
1382.78071	0.58639
1380.85215	0.58324
1378.92358	0.58056
1376.99502	0.57846
1375.06646	0.57696
1373.13789	0.57594
1371.20933	0.57522
1369.28076	0.57443
1367.35220	0.57326
1365.42363	0.57191
1363.49507	0.57069
1361.56650	0.56945
1359.63794	0.56818
1357.70937	0.56709
1355.78081	0.56604
1353.85225	0.56498
1351.92368	0.56406
1349.99512	0.56328
1348.06655	0.56254
1346.13799	0.56175
1344.20942	0.56088
1342.28086	0.56000
1340.35229	0.55930
1338.42373	0.55866
1336.49517	0.55803
1334.56660	0.55750
1332.63804	0.55710
1330.70947	0.55686
1328.78091	0.55671
1326.85234	0.55669
1324.92378	0.55687
1322.99521	0.55718
1321.06665	0.55748
1319.13809	0.55772
1317.20952	0.55777
1315.28096	0.55750
1313.35239	0.55697
1311.42383	0.55627
1309.49526	0.55550
1307.56670	0.55473
1305.63813	0.55399
1303.70957	0.55330
1301.78101	0.55255
1299.85244	0.55170
1297.92388	0.55084
1295.99531	0.54993
1294.06675	0.54897
1292.13818	0.54794
1290.20962	0.54687
1288.28105	0.54599
1286.35249	0.54531
1284.42393	0.54457
1282.49536	0.54357
1280.56680	0.54241
1278.63823	0.54129
1276.70967	0.54027
1274.78110	0.53941
1272.85254	0.53874
1270.92397	0.53821
1268.99541	0.53774
1267.06685	0.53718
1265.13828	0.53648
1263.20972	0.53579
1261.28115	0.53511
1259.35259	0.53434
1257.42402	0.53371
1255.49546	0.53351
1253.56689	0.53359
1251.63833	0.53359
1249.70977	0.53345
1247.78120	0.53328
1245.85264	0.53307
1243.92407	0.53267
1241.99551	0.53204
1240.06694	0.53109
1238.13838	0.52981
1236.20981	0.52832
1234.28125	0.52680
1232.35269	0.52534
1230.42412	0.52389
1228.49556	0.52227
1226.56699	0.52058
1224.63843	0.51920
1222.70986	0.51807
1220.78130	0.51683
1218.85273	0.51547
1216.92417	0.51430
1214.99561	0.51341
1213.06704	0.51268
1211.13848	0.51201
1209.20991	0.51128
1207.28135	0.51062
1205.35278	0.51000
1203.42422	0.50921
1201.49565	0.50840
1199.56709	0.50773
1197.63853	0.50713
1195.70996	0.50653
1193.78140	0.50600
1191.85283	0.50561
1189.92427	0.50536
1187.99570	0.50511
1186.06714	0.50486
1184.13857	0.50473
1182.21001	0.50483
1180.28145	0.50530
1178.35288	0.50622
1176.42432	0.50733
1174.49575	0.50825
1172.56719	0.50895
1170.63862	0.50949
1168.71006	0.50985
1166.78149	0.51004
1164.85293	0.51009
1162.92437	0.50999
1160.99580	0.50987
1159.06724	0.50978
1157.13867	0.50952
1155.21011	0.50893
1153.28154	0.50788
1151.35298	0.50634
1149.42441	0.50440
1147.49585	0.50206
1145.56729	0.49955
1143.63872	0.49711
1141.71016	0.49477
1139.78159	0.49266
1137.85303	0.49091
1135.92446	0.48962
1133.99590	0.48872
1132.06733	0.48805
1130.13877	0.48749
1128.21021	0.48686
1126.28164	0.48608
1124.35308	0.48519
1122.42451	0.48441
1120.49595	0.48408
1118.56738	0.48415
1116.63882	0.48432
1114.71025	0.48446
1112.78169	0.48464
1110.85312	0.48501
1108.92456	0.48569
1106.99600	0.48666
1105.06743	0.48775
1103.13887	0.48896
1101.21030	0.49043
1099.28174	0.49221
1097.35317	0.49437
1095.42461	0.49712
1093.49604	0.50064
1091.56748	0.50509
1089.63892	0.51066
1087.71035	0.51708
1085.78179	0.52399
1083.85322	0.53133
1081.92466	0.53845
1079.99609	0.54398
1078.06753	0.54687
1076.13896	0.54695
1074.21040	0.54445
1072.28184	0.53978
1070.35327	0.53358
1068.42471	0.52665
1066.49614	0.51979
1064.56758	0.51363
1062.63901	0.50834
1060.71045	0.50363
1058.78188	0.49940
1056.85332	0.49562
1054.92476	0.49224
1052.99619	0.48948
1051.06763	0.48728
1049.13906	0.48550
1047.21050	0.48408
1045.28193	0.48291
1043.35337	0.48185
1041.42480	0.48102
1039.49624	0.48055
1037.56768	0.48045
1035.63911	0.48052
1033.71055	0.48027
1031.78198	0.47961
1029.85342	0.47883
1027.92485	0.47800
1025.99629	0.47698
1024.06772	0.47617
1022.13916	0.47604
1020.21060	0.47630
1018.28203	0.47648
1016.35347	0.47669
1014.42490	0.47716
1012.49634	0.47774
1010.56777	0.47829
1008.63921	0.47890
1006.71064	0.47981
1004.78208	0.48108
1002.85352	0.48285
1000.92495	0.48531
998.99639	0.48853
997.06782	0.49249
995.13926	0.49687
993.21069	0.50103
991.28213	0.50427
989.35356	0.50634
987.42500	0.50752
985.49644	0.50806
983.56787	0.50822
981.63931	0.50856
979.71074	0.50945
977.78218	0.51071
975.85361	0.51238
973.92505	0.51471
971.99648	0.51748
970.06792	0.52044
968.13936	0.52380
966.21079	0.52788
964.28223	0.53247
962.35366	0.53719
960.42510	0.54221
958.49653	0.54758
956.56797	0.55314
954.63940	0.55891
952.71084	0.56479
950.78228	0.57052
948.85371	0.57627
946.92515	0.58212
944.99658	0.58785
943.06802	0.59326
941.13945	0.59838
939.21089	0.60364
937.28232	0.60907
935.35376	0.61442
933.42520	0.61982
931.49663	0.62524
929.56807	0.63040
927.63950	0.63551
925.71094	0.64067
923.78237	0.64580
921.85381	0.65156
919.92524	0.65809
917.99668	0.66467
916.06812	0.67099
914.13955	0.67729
912.21099	0.68408
910.28242	0.69155
908.35386	0.69903
906.42529	0.70619
904.49673	0.71320
902.56816	0.72037
900.63960	0.72894
898.71104	0.73927
896.78247	0.74937
894.85391	0.75777
892.92534	0.76589
890.99678	0.77544
889.06821	0.78561
887.13965	0.79523
885.21108	0.80476
883.28252	0.81522
881.35396	0.82661
879.42539	0.83738
877.49683	0.84760
875.56826	0.85900
873.63970	0.87036
871.71113	0.88020
869.78257	0.88985
867.85400	0.90051
865.92544	0.91216
863.99687	0.92350
862.06831	0.93327
860.13975	0.94218
858.21118	0.95168
856.28262	0.96207
854.35405	0.97333
852.42549	0.98423
850.49692	0.99427
848.56836	1.00531
846.63979	1.01629
844.71123	1.02477
842.78267	1.03277
840.85410	1.04279
838.92554	1.05157
836.99697	1.05648
835.06841	1.05948
833.13984	1.06279
831.21128	1.06787
829.28271	1.07318
827.35415	1.07709
825.42559	1.07916
823.49702	1.07775
821.56846	1.07498
819.63989	1.07598
817.71133	1.08093
815.78276	1.08481
813.85420	1.08366
811.92563	1.07860
809.99707	1.07020
808.06851	1.05924
806.13994	1.05760
804.21138	1.06715
802.28281	1.06554
800.35425	1.04414
798.42568	1.02159
796.49712	1.00300
794.56855	0.98193
792.63999	0.96267
790.71143	0.94582
788.78286	0.92684
786.85430	0.90479
784.92573	0.88213
782.99717	0.86259
781.06860	0.85118
779.14004	0.84534
777.21147	0.83516
775.28291	0.81907
773.35435	0.79233
771.42578	0.75248
769.49722	0.71798
767.56865	0.70801
765.64009	0.71143
763.71152	0.69863
761.78296	0.66764
759.85439	0.63371
757.92583	0.60856
755.99727	0.59905
754.06870	0.58324
752.14014	0.53654
750.21157	0.48155
748.28301	0.44658
746.35444	0.43281
744.42588	0.42029
742.49731	0.38443
740.56875	0.32754
738.64019	0.26388
736.71162	0.19328
734.78306	0.11741
732.85449	0.04292
730.92593	-0.02250
728.99736	-0.08154
727.06880	-0.16541
725.14023	-0.29525
723.21167	-0.42426
721.28311	-0.50598
719.35454	-0.54466
717.42598	-0.61788
715.49741	-0.71289
713.56885	-0.64364
711.64028	-0.55316
709.71172	-0.57515
707.78315	-0.58933
705.85459	-0.53590
703.92603	-0.47022
701.99746	-0.44594
700.06890	-0.47470
698.14033	-0.47890
696.21177	-0.45948
694.28320	-0.46272
692.35464	-0.44858
690.42607	-0.38911
688.49751	-0.34848
686.56895	-0.32566
684.64038	-0.29825
682.71182	-0.29174
680.78325	-0.31577
678.85469	-0.35076
676.92612	-0.37237
674.99756	-0.39015
673.06899	-0.41569
671.14043	-0.40273
669.21187	-0.34639
667.28330	-0.31088
665.35474	-0.31367
663.42617	-0.34113
661.49761	-0.37941
659.56904	-0.40196
657.64048	-0.41038
655.71191	-0.43785
653.78335	-0.45165
651.85479	-0.40493
649.92622	-0.38236
647.99766	-0.41006
646.06909	-0.38839
644.14053	-0.32254
642.21196	-0.31038
640.28340	-0.36600
638.35483	-0.42315
636.42627	-0.43862
634.49771	-0.41714
632.56914	-0.36324
630.64058	-0.32028
628.71201	-0.31987
626.78345	-0.33337
624.85488	-0.35164
622.92632	-0.36600
620.99775	-0.36210
619.06919	-0.35784
617.14062	-0.37353
615.21206	-0.40694
613.28350	-0.41128
611.35493	-0.38717
609.42637	-0.36101
607.49780	-0.33524
605.56924	-0.31590
603.64067	-0.29965
601.71211	-0.28146
599.78354	-0.27016
597.85498	-0.27512
595.92642	-0.29164
593.99785	-0.31774
592.06929	-0.34762
590.14072	-0.35849
588.21216	-0.34559
586.28359	-0.31907
584.35503	-0.29822
582.42646	-0.29183
580.49790	-0.29702
578.56934	-0.33440
576.64077	-0.37702
574.71221	-0.36350
572.78364	-0.33983
570.85508	-0.32230
568.92651	-0.29556
566.99795	-0.29069
565.06938	-0.31160
563.14082	-0.33521
561.21226	-0.35849
559.28369	-0.35057
557.35513	-0.30188
555.42656	-0.27526
553.49800	-0.28252
551.56943	-0.29109
549.64087	-0.27453
547.71230	-0.25447
545.78374	-0.24264
543.85518	-0.23212
541.92661	-0.23911
539.99805	-0.26154
538.06948	-0.26897
536.14092	-0.25743
534.21235	-0.24470
532.28379	-0.22898
530.35522	-0.22294
528.42666	-0.24540
526.49810	-0.26178
524.56953	-0.24551
522.64097	-0.24873
520.71240	-0.29033
518.78384	-0.29885
516.85527	-0.26878
514.92671	-0.25723
512.99814	-0.26167
511.06958	-0.26203
509.14102	-0.25376
507.21245	-0.24165
505.28389	-0.22846
503.35532	-0.22895
501.42676	-0.24124
499.49819	-0.24113
