3997.91411	0.06352
3995.98555	0.06460
3994.05698	0.06569
3992.12842	0.06599
3990.19985	0.06565
3988.27129	0.06539
3986.34272	0.06572
3984.41416	0.06624
3982.48560	0.06624
3980.55703	0.06596
3978.62847	0.06616
3976.69990	0.06686
3974.77134	0.06743
3972.84277	0.06760
3970.91421	0.06770
3968.98564	0.06794
3967.05708	0.06807
3965.12852	0.06812
3963.19995	0.06843
3961.27139	0.06881
3959.34282	0.06910
3957.41426	0.06938
3955.48569	0.06931
3953.55713	0.06896
3951.62856	0.06925
3949.70000	0.07020
3947.77144	0.07071
3945.84287	0.07047
3943.91431	0.07032
3941.98574	0.07024
3940.05718	0.06952
3938.12861	0.06883
3936.20005	0.06893
3934.27148	0.06977
3932.34292	0.07113
3930.41436	0.07210
3928.48579	0.07155
3926.55723	0.07048
3924.62866	0.07044
3922.70010	0.07085
3920.77153	0.07081
3918.84297	0.07087
3916.91440	0.07104
3914.98584	0.07029
3913.05728	0.06896
3911.12871	0.06806
3909.20015	0.06776
3907.27158	0.06840
3905.34302	0.07046
3903.41445	0.07306
3901.48589	0.07401
3899.55732	0.07345
3897.62876	0.07243
3895.70020	0.07107
3893.77163	0.07033
3891.84307	0.07090
3889.91450	0.07165
3887.98594	0.07165
3886.05737	0.07200
3884.12881	0.07225
3882.20024	0.07187
3880.27168	0.07217
3878.34312	0.07218
3876.41455	0.07128
3874.48599	0.07159
3872.55742	0.07353
3870.62886	0.07555
3868.70029	0.07638
3866.77173	0.07579
3864.84316	0.07586
3862.91460	0.07675
3860.98604	0.07645
3859.05747	0.07563
3857.12891	0.07579
3855.20034	0.07729
3853.27178	0.08019
3851.34321	0.08180
3849.41465	0.07981
3847.48608	0.07771
3845.55752	0.07745
3843.62896	0.07909
3841.70039	0.08162
3839.77183	0.08377
3837.84326	0.08476
3835.91470	0.08429
3833.98613	0.08337
3832.05757	0.08304
3830.12900	0.08347
3828.20044	0.08440
3826.27187	0.08569
3824.34331	0.08701
3822.41475	0.08906
3820.48618	0.09233
3818.55762	0.09366
3816.62905	0.09292
3814.70049	0.09203
3812.77192	0.09083
3810.84336	0.09006
3808.91479	0.09073
3806.98623	0.09322
3805.05767	0.09581
3803.12910	0.09739
3801.20054	0.09961
3799.27197	0.10139
3797.34341	0.10138
3795.41484	0.10100
3793.48628	0.10062
3791.55771	0.10073
3789.62915	0.10166
3787.70059	0.10317
3785.77202	0.10527
3783.84346	0.10747
3781.91489	0.10909
3779.98633	0.11062
3778.05776	0.11224
3776.12920	0.11321
3774.20063	0.11419
3772.27207	0.11623
3770.34351	0.11933
3768.41494	0.12243
3766.48638	0.12457
3764.55781	0.12610
3762.62925	0.12718
3760.70068	0.12913
3758.77212	0.13269
3756.84355	0.13577
3754.91499	0.13781
3752.98643	0.14107
3751.05786	0.14666
3749.12930	0.15232
3747.20073	0.15489
3745.27217	0.15700
3743.34360	0.16060
3741.41504	0.16339
3739.48647	0.16585
3737.55791	0.17049
3735.62935	0.17812
3733.70078	0.18607
3731.77222	0.19010
3729.84365	0.19220
3727.91509	0.19565
3725.98652	0.20160
3724.05796	0.20868
3722.12939	0.21471
3720.20083	0.21992
3718.27227	0.22528
3716.34370	0.23122
3714.41514	0.23794
3712.48657	0.24771
3710.55801	0.26299
3708.62944	0.27825
3706.70088	0.28904
3704.77231	0.29944
3702.84375	0.31251
3700.91519	0.32932
3698.98662	0.34715
3697.05806	0.36394
3695.12949	0.38194
3693.20093	0.40181
3691.27236	0.42437
3689.34380	0.45323
3687.41523	0.48691
3685.48667	0.51574
3683.55811	0.54085
3681.62954	0.56817
3679.70098	0.59983
3677.77241	0.63444
3675.84385	0.67551
3673.91528	0.72819
3671.98672	0.76981
3670.05815	0.80754
3668.12959	0.86022
3666.20103	0.90811
3664.27246	0.94790
3662.34390	0.99080
3660.41533	1.03764
3658.48677	1.08405
3656.55820	1.13341
3654.62964	1.18902
3652.70107	1.23671
3650.77251	1.27883
3648.84395	1.33624
3646.91538	1.40444
3644.98682	1.45343
3643.05825	1.49189
3641.12969	1.53211
3639.20112	1.57630
3637.27256	1.62065
3635.34399	1.66467
3633.41543	1.70985
3631.48687	1.75220
3629.55830	1.79413
3627.62974	1.84731
3625.70117	1.89620
3623.77261	1.92983
3621.84404	1.96292
3619.91548	2.00166
3617.98691	2.04862
3616.05835	2.09217
3614.12979	2.12699
3612.20122	2.16438
3610.27266	2.20408
3608.34409	2.24535
3606.41553	2.28888
3604.48696	2.32873
3602.55840	2.36489
3600.62983	2.40446
3598.70127	2.44662
3596.77271	2.48612
3594.84414	2.52464
3592.91558	2.56395
3590.98701	2.60150
3589.05845	2.63782
3587.12988	2.68247
3585.20132	2.73115
3583.27275	2.77175
3581.34419	2.80947
3579.41562	2.84964
3577.48706	2.89205
3575.55850	2.93527
3573.62993	2.97847
3571.70137	3.01986
3569.77280	3.06011
3567.84424	3.10274
3565.91567	3.15440
3563.98711	3.20545
3562.05854	3.24758
3560.12998	3.28936
3558.20142	3.33409
3556.27285	3.37841
3554.34429	3.41947
3552.41572	3.46395
3550.48716	3.51343
3548.55859	3.56061
3546.63003	3.60609
3544.70146	3.65586
3542.77290	3.70696
3540.84434	3.75228
3538.91577	3.79371
3536.98721	3.83754
3535.05864	3.88696
3533.13008	3.93594
3531.20151	3.98212
3529.27295	4.02906
3527.34438	4.07806
3525.41582	4.12703
3523.48726	4.17471
3521.55869	4.22226
3519.63013	4.26888
3517.70156	4.31436
3515.77300	4.36014
3513.84443	4.40858
3511.91587	4.45797
3509.98730	4.50805
3508.05874	4.56077
3506.13018	4.61170
3504.20161	4.65749
3502.27305	4.70173
3500.34448	4.74446
3498.41592	4.78408
3496.48735	4.82934
3494.55879	4.88195
3492.63022	4.93149
3490.70166	4.97466
3488.77310	5.02071
3486.84453	5.07770
3484.91597	5.13798
3482.98740	5.18881
3481.05884	5.23114
3479.13027	5.27642
3477.20171	5.32739
3475.27314	5.37744
3473.34458	5.42424
3471.41602	5.46471
3469.48745	5.49815
3467.55889	5.53541
3465.63032	5.58975
3463.70176	5.65915
3461.77319	5.72281
3459.84463	5.77076
3457.91606	5.80792
3455.98750	5.84615
3454.05894	5.89123
3452.13037	5.93976
3450.20181	5.99651
3448.27324	6.05091
3446.34468	6.09731
3444.41611	6.14967
3442.48755	6.20697
3440.55898	6.26569
3438.63042	6.32173
3436.70186	6.35694
3434.77329	6.38040
3432.84473	6.42057
3430.91616	6.48174
3428.98760	6.55778
3427.05903	6.62619
3425.13047	6.65723
3423.20190	6.65830
3421.27334	6.68637
3419.34478	6.75156
3417.41621	6.79460
3415.48765	6.81241
3413.55908	6.84506
3411.63052	6.89918
3409.70195	6.96412
3407.77339	7.03534
3405.84482	7.07782
3403.91626	7.08297
3401.98770	7.10941
3400.05913	7.17841
3398.13057	7.22912
3396.20200	7.23604
3394.27344	7.26209
3392.34487	7.31970
3390.41631	7.36491
3388.48774	7.38889
3386.55918	7.41249
3384.63062	7.44220
3382.70205	7.47825
3380.77349	7.49709
3378.84492	7.51973
3376.91636	7.58528
3374.98779	7.64283
3373.05923	7.66242
3371.13066	7.66976
3369.20210	7.69774
3367.27354	7.74114
3365.34497	7.80461
3363.41641	7.87813
3361.48784	7.90477
3359.55928	7.86814
3357.63071	7.78039
3355.70215	7.72457
3353.77358	7.75726
3351.84502	7.85955
3349.91646	7.94439
3347.98789	7.95726
3346.05933	7.96357
3344.13076	7.98501
3342.20220	7.99496
3340.27363	7.99195
3338.34507	7.99165
3336.41650	7.99137
3334.48794	7.97055
3332.55937	7.91943
3330.63081	7.90400
3328.70225	7.94552
3326.77368	7.95064
3324.84512	7.92480
3322.91655	7.96539
3320.98799	8.05074
3319.05942	8.08481
3317.13086	8.07984
3315.20229	8.07942
3313.27373	8.10411
3311.34517	8.13157
3309.41660	8.08300
3307.48804	7.97094
3305.55947	7.92363
3303.63091	7.99568
3301.70234	8.07027
3299.77378	8.06079
3297.84521	8.05942
3295.91665	8.11214
3293.98809	8.13321
3292.05952	8.12316
3290.13096	8.10683
3288.20239	8.06505
3286.27383	8.03834
3284.34526	8.03698
3282.41670	8.04911
3280.48813	8.06517
3278.55957	8.07648
3276.63101	8.08492
3274.70244	8.13798
3272.77388	8.23406
3270.84531	8.28473
3268.91675	8.28769
3266.98818	8.26219
3265.05962	8.19063
3263.13105	8.12040
3261.20249	8.13953
3259.27393	8.20588
3257.34536	8.21425
3255.41680	8.18642
3253.48823	8.20310
3251.55967	8.26361
3249.63110	8.28487
3247.70254	8.25139
3245.77397	8.20388
3243.84541	8.22464
3241.91685	8.30205
3239.98828	8.23730
3238.05972	8.09346
3236.13115	8.04703
3234.20259	8.02376
3232.27402	8.01182
3230.34546	8.06989
3228.41689	8.09640
3226.48833	8.01744
3224.55977	7.92597
3222.63120	7.93815
3220.70264	8.01232
3218.77407	8.01936
3216.84551	7.96236
3214.91694	7.90872
3212.98838	7.88396
3211.05981	7.86383
3209.13125	7.83555
3207.20269	7.82273
3205.27412	7.81647
3203.34556	7.79520
3201.41699	7.76843
3199.48843	7.73704
3197.55986	7.67637
3195.63130	7.59408
3193.70273	7.54299
3191.77417	7.53724
3189.84561	7.51903
3187.91704	7.45663
3185.98848	7.38904
3184.05991	7.32770
3182.13135	7.25814
3180.20278	7.19885
3178.27422	7.16348
3176.34565	7.13117
3174.41709	7.07699
3172.48853	7.01638
3170.55996	6.96764
3168.63140	6.90303
3166.70283	6.80430
3164.77427	6.71767
3162.84570	6.67118
3160.91714	6.62864
3158.98857	6.57949
3157.06001	6.52735
3155.13145	6.45233
3153.20288	6.37289
3151.27432	6.32218
3149.34575	6.27916
3147.41719	6.20339
3145.48862	6.10917
3143.56006	6.03439
3141.63149	5.97556
3139.70293	5.90939
3137.77437	5.83588
3135.84580	5.75514
3133.91724	5.66878
3131.98867	5.59920
3130.06011	5.54976
3128.13154	5.49228
3126.20298	5.41490
3124.27441	5.33559
3122.34585	5.26227
3120.41729	5.19082
3118.48872	5.12672
3116.56016	5.06467
3114.63159	4.98638
3112.70303	4.90156
3110.77446	4.83134
3108.84590	4.77103
3106.91733	4.70934
3104.98877	4.64506
3103.06021	4.58126
3101.13164	4.51737
3099.20308	4.45235
3097.27451	4.38925
3095.34595	4.32611
3093.41738	4.25964
3091.48882	4.19447
3089.56025	4.13425
3087.63169	4.07480
3085.70312	4.01290
3083.77456	3.94948
3081.84600	3.88592
3079.91743	3.82417
3077.98887	3.76509
3076.06030	3.70671
3074.13174	3.64869
3072.20317	3.59348
3070.27461	3.54169
3068.34604	3.49009
3066.41748	3.43520
3064.48892	3.37883
3062.56035	3.32402
3060.63179	3.26987
3058.70322	3.21587
3056.77466	3.16364
3054.84609	3.11406
3052.91753	3.06525
3050.98896	3.01493
3049.06040	2.96426
3047.13184	2.91489
3045.20327	2.86611
3043.27471	2.81753
3041.34614	2.76964
3039.41758	2.72247
3037.48901	2.67577
3035.56045	2.63036
3033.63188	2.58711
3031.70332	2.54438
3029.77476	2.50093
3027.84619	2.45805
3025.91763	2.41622
3023.98906	2.37468
3022.06050	2.33359
3020.13193	2.29302
3018.20337	2.25268
3016.27480	2.21305
3014.34624	2.17408
3012.41768	2.13530
3010.48911	2.09739
3008.56055	2.06079
3006.63198	2.02478
3004.70342	1.98909
3002.77485	1.95456
3000.84629	1.92163
2998.91772	1.88926
2996.98916	1.85696
2995.06060	1.82571
2993.13203	1.79559
2991.20347	1.76560
2989.27490	1.73568
2987.34634	1.70668
2985.41777	1.67900
2983.48921	1.65205
2981.56064	1.62523
2979.63208	1.59921
2977.70352	1.57440
2975.77495	1.54992
2973.84639	1.52558
2971.91782	1.50191
2969.98926	1.47867
2968.06069	1.45562
2966.13213	1.43269
2964.20356	1.40968
2962.27500	1.38717
2960.34644	1.36518
2958.41787	1.34275
2956.48931	1.31993
2954.56074	1.29671
2952.63218	1.27300
2950.70361	1.24998
2948.77505	1.22800
2946.84648	1.20639
2944.91792	1.18535
2942.98936	1.16526
2941.06079	1.14577
2939.13223	1.12623
2937.20366	1.10671
2935.27510	1.08767
2933.34653	1.06868
2931.41797	1.04947
2929.48940	1.03067
2927.56084	1.01236
2925.63228	0.99394
2923.70371	0.97504
2921.77515	0.95643
2919.84658	0.93923
2917.91802	0.92287
2915.98945	0.90612
2914.06089	0.88883
2912.13232	0.87179
2910.20376	0.85575
2908.27520	0.84058
2906.34663	0.82581
2904.41807	0.81107
2902.48950	0.79633
2900.56094	0.78209
2898.63237	0.76869
2896.70381	0.75587
2894.77524	0.74348
2892.84668	0.73133
2890.91812	0.71927
2888.98955	0.70757
2887.06099	0.69658
2885.13242	0.68635
2883.20386	0.67639
2881.27529	0.66642
2879.34673	0.65699
2877.41816	0.64805
2875.48960	0.63896
2873.56104	0.62968
2871.63247	0.62005
2869.70391	0.60944
2867.77534	0.59771
2865.84678	0.58541
2863.91821	0.57333
2861.98965	0.56210
2860.06108	0.55165
2858.13252	0.54150
2856.20396	0.53161
2854.27539	0.52219
2852.34683	0.51318
2850.41826	0.50455
2848.48970	0.49622
2846.56113	0.48818
2844.63257	0.48050
2842.70400	0.47326
2840.77544	0.46656
2838.84687	0.46040
2836.91831	0.45452
2834.98975	0.44856
2833.06118	0.44243
2831.13262	0.43636
2829.20405	0.43029
2827.27549	0.42408
2825.34692	0.41788
2823.41836	0.41187
2821.48979	0.40620
2819.56123	0.40064
2817.63267	0.39474
2815.70410	0.38876
2813.77554	0.38310
2811.84697	0.37772
2809.91841	0.37249
2807.98984	0.36738
2806.06128	0.36218
2804.13271	0.35680
2802.20415	0.35167
2800.27559	0.34703
2798.34702	0.34247
2796.41846	0.33763
2794.48989	0.33274
2792.56133	0.32812
2790.63276	0.32368
2788.70420	0.31920
2786.77563	0.31473
2784.84707	0.31053
2782.91851	0.30652
2780.98994	0.30235
2779.06138	0.29811
2777.13281	0.29414
2775.20425	0.29036
2773.27568	0.28655
2771.34712	0.28270
2769.41855	0.27888
2767.48999	0.27519
2765.56143	0.27170
2763.63286	0.26841
2761.70430	0.26525
2759.77573	0.26212
2757.84717	0.25902
2755.91860	0.25583
2753.99004	0.25256
2752.06147	0.24949
2750.13291	0.24659
2748.20435	0.24367
2746.27578	0.24079
2744.34722	0.23804
2742.41865	0.23537
2740.49009	0.23271
2738.56152	0.23003
2736.63296	0.22746
2734.70439	0.22501
2732.77583	0.22254
2730.84727	0.22015
2728.91870	0.21788
2726.99014	0.21545
2725.06157	0.21292
2723.13301	0.21077
2721.20444	0.20888
2719.27588	0.20691
2717.34731	0.20490
2715.41875	0.20297
2713.49019	0.20109
2711.56162	0.19923
2709.63306	0.19752
2707.70449	0.19596
2705.77593	0.19439
2703.84736	0.19274
2701.91880	0.19108
2699.99023	0.18953
2698.06167	0.18813
2696.13311	0.18682
2694.20454	0.18547
2692.27598	0.18401
2690.34741	0.18260
2688.41885	0.18129
2686.49028	0.17999
2684.56172	0.17880
2682.63315	0.17770
2680.70459	0.17652
2678.77603	0.17528
2676.84746	0.17410
2674.91890	0.17307
2672.99033	0.17206
2671.06177	0.17097
2669.13320	0.16984
2667.20464	0.16882
2665.27607	0.16801
2663.34751	0.16733
2661.41895	0.16665
2659.49038	0.16584
2657.56182	0.16486
2655.63325	0.16382
2653.70469	0.16294
2651.77612	0.16215
2649.84756	0.16144
2647.91899	0.16085
2645.99043	0.16025
2644.06187	0.15970
2642.13330	0.15937
2640.20474	0.15892
2638.27617	0.15815
2636.34761	0.15745
2634.41904	0.15703
2632.49048	0.15667
2630.56191	0.15627
2628.63335	0.15580
2626.70479	0.15528
2624.77622	0.15485
2622.84766	0.15458
2620.91909	0.15432
2618.99053	0.15406
2617.06196	0.15384
2615.13340	0.15366
2613.20483	0.15341
2611.27627	0.15318
2609.34771	0.15308
2607.41914	0.15294
2605.49058	0.15262
2603.56201	0.15236
2601.63345	0.15236
2599.70488	0.15240
2597.77632	0.15246
2595.84775	0.15258
2593.91919	0.15257
2591.99062	0.15243
2590.06206	0.15236
2588.13350	0.15234
2586.20493	0.15247
2584.27637	0.15285
2582.34780	0.15321
2580.41924	0.15337
2578.49067	0.15347
2576.56211	0.15368
2574.63354	0.15395
2572.70498	0.15422
2570.77642	0.15449
2568.84785	0.15483
2566.91929	0.15529
2564.99072	0.15569
2563.06216	0.15595
2561.13359	0.15625
2559.20503	0.15665
2557.27646	0.15707
2555.34790	0.15745
2553.41934	0.15788
2551.49077	0.15838
2549.56221	0.15888
2547.63364	0.15933
2545.70508	0.15974
2543.77651	0.16024
2541.84795	0.16096
2539.91938	0.16167
2537.99082	0.16223
2536.06226	0.16277
2534.13369	0.16339
2532.20513	0.16396
2530.27656	0.16443
2528.34800	0.16501
2526.41943	0.16572
2524.49087	0.16637
2522.56230	0.16697
2520.63374	0.16761
2518.70518	0.16844
2516.77661	0.16931
2514.84805	0.16999
2512.91948	0.17063
2510.99092	0.17137
2509.06235	0.17218
2507.13379	0.17301
2505.20522	0.17371
2503.27666	0.17428
2501.34810	0.17492
2499.41953	0.17578
2497.49097	0.17670
2495.56240	0.17745
2493.63384	0.17814
2491.70527	0.17885
2489.77671	0.17962
2487.84814	0.18045
2485.91958	0.18126
2483.99102	0.18204
2482.06245	0.18287
2480.13389	0.18377
2478.20532	0.18466
2476.27676	0.18546
2474.34819	0.18632
2472.41963	0.18727
2470.49106	0.18818
2468.56250	0.18898
2466.63394	0.18978
2464.70537	0.19061
2462.77681	0.19155
2460.84824	0.19258
2458.91968	0.19352
2456.99111	0.19431
2455.06255	0.19505
2453.13398	0.19583
2451.20542	0.19671
2449.27686	0.19769
2447.34829	0.19868
2445.41973	0.19972
2443.49116	0.20080
2441.56260	0.20178
2439.63403	0.20271
2437.70547	0.20370
2435.77690	0.20471
2433.84834	0.20570
2431.91978	0.20666
2429.99121	0.20753
2428.06265	0.20843
2426.13408	0.20960
2424.20552	0.21088
2422.27695	0.21199
2420.34839	0.21298
2418.41982	0.21405
2416.49126	0.21520
2414.56270	0.21635
2412.63413	0.21739
2410.70557	0.21834
2408.77700	0.21942
2406.84844	0.22066
2404.91987	0.22195
2402.99131	0.22312
2401.06274	0.22422
2399.13418	0.22539
2397.20562	0.22656
2395.27705	0.22769
2393.34849	0.22890
2391.41992	0.23026
2389.49136	0.23171
2387.56279	0.23348
2385.63423	0.23599
2383.70566	0.23946
2381.77710	0.24402
2379.84854	0.24964
2377.91997	0.25607
2375.99141	0.26322
2374.06284	0.27132
2372.13428	0.28035
2370.20571	0.29010
2368.27715	0.30073
2366.34858	0.31153
2364.42002	0.32041
2362.49146	0.32662
2360.56289	0.33052
2358.63433	0.33177
2356.70576	0.32977
2354.77720	0.32392
2352.84863	0.31545
2350.92007	0.30685
2348.99150	0.30169
2347.06294	0.30226
2345.13437	0.30909
2343.20581	0.31857
2341.27725	0.32391
2339.34868	0.32480
2337.42012	0.32493
2335.49155	0.32572
2333.56299	0.32620
2331.63442	0.32641
2329.70586	0.32669
2327.77729	0.32635
2325.84873	0.32495
2323.92017	0.32312
2321.99160	0.32125
2320.06304	0.31909
2318.13447	0.31681
2316.20591	0.31502
2314.27734	0.31407
2312.34878	0.31380
2310.42021	0.31374
2308.49165	0.31337
2306.56309	0.31257
2304.63452	0.31203
2302.70596	0.31219
2300.77739	0.31270
2298.84883	0.31325
2296.92026	0.31393
2294.99170	0.31463
2293.06313	0.31530
2291.13457	0.31608
2289.20601	0.31693
2287.27744	0.31782
2285.34888	0.31890
2283.42031	0.32024
2281.49175	0.32195
2279.56318	0.32408
2277.63462	0.32642
2275.70605	0.32865
2273.77749	0.33065
2271.84893	0.33262
2269.92036	0.33468
2267.99180	0.33674
2266.06323	0.33880
2264.13467	0.34079
2262.20610	0.34265
2260.27754	0.34449
2258.34897	0.34643
2256.42041	0.34840
2254.49185	0.35032
2252.56328	0.35221
2250.63472	0.35414
2248.70615	0.35616
2246.77759	0.35823
2244.84902	0.36029
2242.92046	0.36234
2240.99189	0.36444
2239.06333	0.36663
2237.13477	0.36879
2235.20620	0.37094
2233.27764	0.37321
2231.34907	0.37553
2229.42051	0.37777
2227.49194	0.37995
2225.56338	0.38212
2223.63481	0.38422
2221.70625	0.38624
2219.77769	0.38834
2217.84912	0.39047
2215.92056	0.39265
2213.99199	0.39495
2212.06343	0.39729
2210.13486	0.39935
2208.20630	0.40114
2206.27773	0.40306
2204.34917	0.40513
2202.42061	0.40720
2200.49204	0.40922
2198.56348	0.41117
2196.63491	0.41304
2194.70635	0.41492
2192.77778	0.41686
2190.84922	0.41876
2188.92065	0.42053
2186.99209	0.42231
2185.06353	0.42418
2183.13496	0.42591
2181.20640	0.42745
2179.27783	0.42898
2177.34927	0.43060
2175.42070	0.43220
2173.49214	0.43378
2171.56357	0.43525
2169.63501	0.43652
2167.70645	0.43769
2165.77788	0.43895
2163.84932	0.44022
2161.92075	0.44130
2159.99219	0.44228
2158.06362	0.44334
2156.13506	0.44441
2154.20649	0.44536
2152.27793	0.44624
2150.34937	0.44709
2148.42080	0.44780
2146.49224	0.44824
2144.56367	0.44858
2142.63511	0.44898
2140.70654	0.44939
2138.77798	0.44975
2136.84941	0.44991
2134.92085	0.44994
2132.99229	0.45002
2131.06372	0.45003
2129.13516	0.44987
2127.20659	0.44970
2125.27803	0.44951
2123.34946	0.44915
2121.42090	0.44871
2119.49233	0.44821
2117.56377	0.44766
2115.63521	0.44720
2113.70664	0.44667
2111.77808	0.44575
2109.84951	0.44457
2107.92095	0.44353
2105.99238	0.44263
2104.06382	0.44168
2102.13525	0.44057
2100.20669	0.43926
2098.27812	0.43777
2096.34956	0.43631
2094.42100	0.43489
2092.49243	0.43344
2090.56387	0.43193
2088.63530	0.43029
2086.70674	0.42860
2084.77817	0.42683
2082.84961	0.42490
2080.92104	0.42290
2078.99248	0.42104
2077.06392	0.41914
2075.13535	0.41699
2073.20679	0.41477
2071.27822	0.41271
2069.34966	0.41070
2067.42109	0.40864
2065.49253	0.40644
2063.56396	0.40403
2061.63540	0.40159
2059.70684	0.39919
2057.77827	0.39672
2055.84971	0.39424
2053.92114	0.39183
2051.99258	0.38938
2050.06401	0.38679
2048.13545	0.38419
2046.20688	0.38159
2044.27832	0.37893
2042.34976	0.37620
2040.42119	0.37356
2038.49263	0.37097
2036.56406	0.36833
2034.63550	0.36566
2032.70693	0.36289
2030.77837	0.36006
2028.84980	0.35730
2026.92124	0.35470
2024.99268	0.35211
2023.06411	0.34947
2021.13555	0.34684
2019.20698	0.34433
2017.27842	0.34179
2015.34985	0.33895
2013.42129	0.33602
2011.49272	0.33328
2009.56416	0.33073
2007.63560	0.32817
2005.70703	0.32550
2003.77847	0.32281
2001.84990	0.32019
1999.92134	0.31760
1997.99277	0.31494
1996.06421	0.31232
1994.13564	0.31002
1992.20708	0.30789
1990.27852	0.30549
1988.34995	0.30285
1986.42139	0.30021
1984.49282	0.29766
1982.56426	0.29533
1980.63569	0.29319
1978.70713	0.29106
1976.77856	0.28887
1974.85000	0.28666
1972.92144	0.28445
1970.99287	0.28234
1969.06431	0.28044
1967.13574	0.27857
1965.20718	0.27649
1963.27861	0.27443
1961.35005	0.27251
1959.42148	0.27056
1957.49292	0.26871
1955.56436	0.26695
1953.63579	0.26515
1951.70723	0.26344
1949.77866	0.26190
1947.85010	0.26040
1945.92153	0.25897
1943.99297	0.25778
1942.06440	0.25647
1940.13584	0.25472
1938.20728	0.25307
1936.27871	0.25178
1934.35015	0.25049
1932.42158	0.24909
1930.49302	0.24777
1928.56445	0.24658
1926.63589	0.24555
1924.70732	0.24484
1922.77876	0.24418
1920.85020	0.24320
1918.92163	0.24226
1916.99307	0.24133
1915.06450	0.24014
1913.13594	0.23910
1911.20737	0.23853
1909.27881	0.23803
1907.35024	0.23729
1905.42168	0.23644
1903.49312	0.23574
1901.56455	0.23512
1899.63599	0.23451
1897.70742	0.23414
1895.77886	0.23403
1893.85029	0.23388
1891.92173	0.23362
1889.99316	0.23349
1888.06460	0.23325
1886.13604	0.23279
1884.20747	0.23237
1882.27891	0.23199
1880.35034	0.23166
1878.42178	0.23150
1876.49321	0.23159
1874.56465	0.23171
1872.63608	0.23192
1870.70752	0.23255
1868.77896	0.23352
1866.85039	0.23368
1864.92183	0.23300
1862.99326	0.23265
1861.06470	0.23289
1859.13613	0.23338
1857.20757	0.23375
1855.27900	0.23409
1853.35044	0.23449
1851.42187	0.23502
1849.49331	0.23575
1847.56475	0.23672
1845.63618	0.23786
1843.70762	0.23894
1841.77905	0.23933
1839.85049	0.23943
1837.92192	0.24015
1835.99336	0.24112
1834.06479	0.24203
1832.13623	0.24322
1830.20767	0.24499
1828.27910	0.24647
1826.35054	0.24730
1824.42197	0.24839
1822.49341	0.24942
1820.56484	0.25042
1818.63628	0.25174
1816.70771	0.25331
1814.77915	0.25488
1812.85059	0.25676
1810.92202	0.25898
1808.99346	0.26091
1807.06489	0.26255
1805.13633	0.26431
1803.20776	0.26654
1801.27920	0.26929
1799.35063	0.27233
1797.42207	0.27486
1795.49351	0.27724
1793.56494	0.28028
1791.63638	0.28409
1789.70781	0.28719
1787.77925	0.28930
1785.85068	0.29213
1783.92212	0.29573
1781.99355	0.29976
1780.06499	0.30396
1778.13643	0.30809
1776.20786	0.31212
1774.27930	0.31683
1772.35073	0.32309
1770.42217	0.32913
1768.49360	0.33387
1766.56504	0.33859
1764.63647	0.34360
1762.70791	0.34938
1760.77935	0.35682
1758.85078	0.36376
1756.92222	0.37074
1754.99365	0.37833
1753.06509	0.38532
1751.13652	0.39400
1749.20796	0.40500
1747.27939	0.41538
1745.35083	0.42410
1743.42227	0.43321
1741.49370	0.44330
1739.56514	0.45541
1737.63657	0.46765
1735.70801	0.47858
1733.77944	0.49521
1731.85088	0.51450
1729.92231	0.52926
1727.99375	0.54422
1726.06519	0.56063
1724.13662	0.57872
1722.20806	0.59826
1720.27949	0.61657
1718.35093	0.63849
1716.42236	0.67058
1714.49380	0.70044
1712.56523	0.72427
1710.63667	0.74752
1708.70811	0.77297
1706.77954	0.80244
1704.85098	0.83797
1702.92241	0.86972
1700.99385	0.90135
1699.06528	0.94856
1697.13672	0.99211
1695.20815	1.03692
1693.27959	1.08068
1691.35103	1.11675
1689.42246	1.15930
1687.49390	1.20459
1685.56533	1.24859
1683.63677	1.31636
1681.70820	1.38614
1679.77964	1.43067
1677.85107	1.47354
1675.92251	1.52380
1673.99395	1.58615
1672.06538	1.64121
1670.13682	1.69539
1668.20825	1.76676
1666.27969	1.82589
1664.35112	1.87708
1662.42256	1.94295
1660.49399	2.01832
1658.56543	2.07753
1656.63687	2.12515
1654.70830	2.16779
1652.77974	2.23037
1650.85117	2.28735
1648.92261	2.30596
1646.99404	2.32822
1645.06548	2.35304
1643.13691	2.37069
1641.20835	2.37953
1639.27979	2.38546
1637.35122	2.38703
1635.42266	2.38232
1633.49409	2.37199
1631.56553	2.35800
1629.63696	2.34143
1627.70840	2.31200
1625.77983	2.27501
1623.85127	2.22752
1621.92271	2.17057
1619.99414	2.12126
1618.06558	2.07406
1616.13701	2.00629
1614.20845	1.93667
1612.27988	1.88397
1610.35132	1.83016
1608.42275	1.77258
1606.49419	1.71575
1604.56562	1.66335
1602.63706	1.61370
1600.70850	1.56597
1598.77993	1.52189
1596.85137	1.48042
1594.92280	1.44012
1592.99424	1.40105
1591.06567	1.36561
1589.13711	1.33282
1587.20854	1.30222
1585.27998	1.27405
1583.35142	1.24837
1581.42285	1.22571
1579.49429	1.20714
1577.56572	1.19147
1575.63716	1.17321
1573.70859	1.15686
1571.78003	1.14635
1569.85146	1.13687
1567.92290	1.12730
1565.99434	1.12073
1564.06577	1.11718
1562.13721	1.11586
1560.20864	1.11776
1558.28008	1.12666
1556.35151	1.13487
1554.42295	1.13870
1552.49438	1.14257
1550.56582	1.14483
1548.63726	1.14414
1546.70869	1.14025
1544.78013	1.13261
1542.85156	1.12064
1540.92300	1.10103
1538.99443	1.06850
1537.06587	1.04361
1535.13730	1.02651
1533.20874	1.00384
1531.28018	0.97933
1529.35161	0.96149
1527.42305	0.94494
1525.49448	0.92805
1523.56592	0.91419
1521.63735	0.90129
1519.70879	0.88782
1517.78022	0.87626
1515.85166	0.86267
1513.92310	0.84799
1511.99453	0.83540
1510.06597	0.82453
1508.13740	0.81433
1506.20884	0.79747
1504.28027	0.78147
1502.35171	0.77251
1500.42314	0.76530
1498.49458	0.75819
1496.56602	0.75001
1494.63745	0.74139
1492.70889	0.73469
1490.78032	0.72932
1488.85176	0.72323
1486.92319	0.71694
1484.99463	0.71190
1483.06606	0.70844
1481.13750	0.70618
1479.20894	0.70473
1477.28037	0.70438
1475.35181	0.70541
1473.42324	0.70736
1471.49468	0.70795
1469.56611	0.70614
1467.63755	0.70382
1465.70898	0.70203
1463.78042	0.70077
1461.85186	0.70020
1459.92329	0.70068
1457.99473	0.70210
1456.06616	0.70219
1454.13760	0.69938
1452.20903	0.69614
1450.28047	0.69305
1448.35190	0.68994
1446.42334	0.68650
1444.49478	0.68317
1442.56621	0.68021
1440.63765	0.67726
1438.70908	0.67422
1436.78052	0.67031
1434.85195	0.66563
1432.92339	0.66204
1430.99482	0.65972
1429.06626	0.65842
1427.13770	0.65817
1425.20913	0.65883
1423.28057	0.65998
1421.35200	0.66107
1419.42344	0.66220
1417.49487	0.66252
1415.56631	0.66143
1413.63774	0.66056
1411.70918	0.66075
1409.78062	0.66189
1407.85205	0.66359
1405.92349	0.66594
1403.99492	0.66840
1402.06636	0.66947
1400.13779	0.66922
1398.20923	0.66801
1396.28066	0.66540
1394.35210	0.66099
1392.42354	0.65565
1390.49497	0.65079
1388.56641	0.64621
1386.63784	0.64077
1384.70928	0.63456
1382.78071	0.62867
1380.85215	0.62337
1378.92358	0.61892
1376.99502	0.61567
1375.06646	0.61351
1373.13789	0.61184
1371.20933	0.61063
1369.28076	0.60979
1367.35220	0.60869
1365.42363	0.60721
1363.49507	0.60579
1361.56650	0.60439
1359.63794	0.60274
1357.70937	0.60105
1355.78081	0.59952
1353.85225	0.59834
1351.92368	0.59758
1349.99512	0.59699
1348.06655	0.59635
1346.13799	0.59562
1344.20942	0.59479
1342.28086	0.59392
1340.35229	0.59337
1338.42373	0.59306
1336.49517	0.59260
1334.56660	0.59212
1332.63804	0.59207
1330.70947	0.59251
1328.78091	0.59317
1326.85234	0.59395
1324.92378	0.59491
1322.99521	0.59600
1321.06665	0.59710
1319.13809	0.59814
1317.20952	0.59883
1315.28096	0.59899
1313.35239	0.59893
1311.42383	0.59877
1309.49526	0.59840
1307.56670	0.59787
1305.63813	0.59735
1303.70957	0.59677
1301.78101	0.59606
1299.85244	0.59521
1297.92388	0.59419
1295.99531	0.59301
1294.06675	0.59179
1292.13818	0.59056
1290.20962	0.58920
1288.28105	0.58765
1286.35249	0.58608
1284.42393	0.58466
1282.49536	0.58323
1280.56680	0.58154
1278.63823	0.57977
1276.70967	0.57825
1274.78110	0.57696
1272.85254	0.57582
1270.92397	0.57481
1268.99541	0.57396
1267.06685	0.57326
1265.13828	0.57253
1263.20972	0.57166
1261.28115	0.57067
1259.35259	0.56965
1257.42402	0.56873
1255.49546	0.56813
1253.56689	0.56807
1251.63833	0.56825
1249.70977	0.56831
1247.78120	0.56821
1245.85264	0.56798
1243.92407	0.56749
1241.99551	0.56651
1240.06694	0.56501
1238.13838	0.56306
1236.20981	0.56074
1234.28125	0.55809
1232.35269	0.55527
1230.42412	0.55260
1228.49556	0.55034
1226.56699	0.54838
1224.63843	0.54650
1222.70986	0.54468
1220.78130	0.54293
1218.85273	0.54128
1216.92417	0.53986
1214.99561	0.53871
1213.06704	0.53774
1211.13848	0.53691
1209.20991	0.53625
1207.28135	0.53567
1205.35278	0.53499
1203.42422	0.53407
1201.49565	0.53293
1199.56709	0.53186
1197.63853	0.53110
1195.70996	0.53046
1193.78140	0.52981
1191.85283	0.52918
1189.92427	0.52855
1187.99570	0.52813
1186.06714	0.52807
1184.13857	0.52837
1182.21001	0.52905
1180.28145	0.53016
1178.35288	0.53166
1176.42432	0.53331
1174.49575	0.53475
1172.56719	0.53582
1170.63862	0.53635
1168.71006	0.53636
1166.78149	0.53618
1164.85293	0.53604
1162.92437	0.53591
1160.99580	0.53565
1159.06724	0.53521
1157.13867	0.53468
1155.21011	0.53386
1153.28154	0.53248
1151.35298	0.53052
1149.42441	0.52807
1147.49585	0.52530
1145.56729	0.52248
1143.63872	0.51982
1141.71016	0.51756
1139.78159	0.51573
1137.85303	0.51435
1135.92446	0.51349
1133.99590	0.51305
1132.06733	0.51277
1130.13877	0.51253
1128.21021	0.51233
1126.28164	0.51203
1124.35308	0.51153
1122.42451	0.51101
1120.49595	0.51069
1118.56738	0.51062
1116.63882	0.51085
1114.71025	0.51119
1112.78169	0.51147
1110.85312	0.51196
1108.92456	0.51273
1106.99600	0.51346
1105.06743	0.51422
1103.13887	0.51512
1101.21030	0.51619
1099.28174	0.51773
1097.35317	0.51994
1095.42461	0.52270
1093.49604	0.52599
1091.56748	0.52998
1089.63892	0.53494
1087.71035	0.54120
1085.78179	0.54868
1083.85322	0.55641
1081.92466	0.56321
1079.99609	0.56830
1078.06753	0.57090
1076.13896	0.57056
1074.21040	0.56767
1072.28184	0.56276
1070.35327	0.55628
1068.42471	0.54907
1066.49614	0.54200
1064.56758	0.53568
1062.63901	0.53049
1060.71045	0.52590
1058.78188	0.52137
1056.85332	0.51723
1054.92476	0.51366
1052.99619	0.51040
1051.06763	0.50765
1049.13906	0.50554
1047.21050	0.50379
1045.28193	0.50256
1043.35337	0.50201
1041.42480	0.50171
1039.49624	0.50133
1037.56768	0.50095
1035.63911	0.50059
1033.71055	0.50003
1031.78198	0.49925
1029.85342	0.49812
1027.92485	0.49666
1025.99629	0.49557
1024.06772	0.49511
1022.13916	0.49491
1020.21060	0.49493
1018.28203	0.49512
1016.35347	0.49518
1014.42490	0.49510
1012.49634	0.49518
1010.56777	0.49559
1008.63921	0.49616
1006.71064	0.49679
1004.78208	0.49789
1002.85352	0.49981
1000.92495	0.50242
998.99639	0.50570
997.06782	0.50972
995.13926	0.51410
993.21069	0.51823
991.28213	0.52155
989.35356	0.52379
987.42500	0.52509
985.49644	0.52569
983.56787	0.52572
981.63931	0.52560
979.71074	0.52614
977.78218	0.52744
975.85361	0.52922
973.92505	0.53151
971.99648	0.53428
970.06792	0.53751
968.13936	0.54127
966.21079	0.54529
964.28223	0.54932
962.35366	0.55373
960.42510	0.55874
958.49653	0.56407
956.56797	0.56964
954.63940	0.57546
952.71084	0.58153
950.78228	0.58804
948.85371	0.59471
946.92515	0.60099
944.99658	0.60688
943.06802	0.61249
941.13945	0.61817
939.21089	0.62423
937.28232	0.63050
935.35376	0.63638
933.42520	0.64147
931.49663	0.64641
929.56807	0.65187
927.63950	0.65758
925.71094	0.66347
923.78237	0.66981
921.85381	0.67650
919.92524	0.68323
917.99668	0.68962
916.06812	0.69581
914.13955	0.70295
912.21099	0.71146
910.28242	0.72018
908.35386	0.72807
906.42529	0.73536
904.49673	0.74305
902.56816	0.75175
900.63960	0.76136
898.71104	0.77192
896.78247	0.78245
894.85391	0.79108
892.92534	0.79907
890.99678	0.80863
889.06821	0.81915
887.13965	0.83019
885.21108	0.84184
883.28252	0.85338
881.35396	0.86412
879.42539	0.87513
877.49683	0.88705
875.56826	0.89859
873.63970	0.90959
871.71113	0.92099
869.78257	0.93265
867.85400	0.94355
865.92544	0.95405
863.99687	0.96491
862.06831	0.97606
860.13975	0.98787
858.21118	1.00043
856.28262	1.01329
854.35405	1.02551
852.42549	1.03644
850.49692	1.04641
848.56836	1.05619
846.63979	1.06699
844.71123	1.07844
842.78267	1.08928
840.85410	1.10093
838.92554	1.11466
836.99697	1.12684
835.06841	1.13570
833.13984	1.14702
831.21128	1.16039
829.28271	1.16863
827.35415	1.17628
825.42559	1.19033
823.49702	1.20150
821.56846	1.20452
819.63989	1.21457
817.71133	1.23586
815.78276	1.25184
813.85420	1.25443
811.92563	1.25810
809.99707	1.27121
808.06851	1.28390
806.13994	1.29450
804.21138	1.29854
802.28281	1.29138
800.35425	1.29199
798.42568	1.30928
796.49712	1.33183
794.56855	1.35592
792.63999	1.35940
790.71143	1.32559
788.78286	1.30665
786.85430	1.32091
784.92573	1.32252
782.99717	1.28741
781.06860	1.25304
779.14004	1.26141
777.21147	1.30252
775.28291	1.32782
773.35435	1.33910
771.42578	1.36872
769.49722	1.38117
767.56865	1.34285
765.64009	1.29259
763.71152	1.26069
761.78296	1.26449
759.85439	1.32491
757.92583	1.40620
755.99727	1.42846
754.06870	1.38506
752.14014	1.24816
750.21157	1.10055
748.28301	1.07175
746.35444	1.18708
744.42588	1.17948
742.49731	0.94541
740.56875	0.79440
738.64019	0.73826
736.71162	0.73054
734.78306	0.72352
732.85449	0.70222
730.92593	0.71817
728.99736	0.68917
727.06880	0.46732
725.14023	0.31313
723.21167	0.36230
721.28311	0.51342
719.35454	0.59590
717.42598	0.46101
715.49741	0.36276
713.56885	0.42498
711.64028	0.27372
709.71172	0.17372
707.78315	0.13439
705.85459	0.08641
703.92603	0.05230
701.99746	0.12331
700.06890	0.29668
698.14033	0.30234
696.21177	0.32979
694.28320	0.44185
692.35464	0.42951
690.42607	0.32841
688.49751	0.38650
686.56895	0.62840
684.64038	0.73882
682.71182	0.44624
680.78325	0.31627
678.85469	0.36582
676.92612	0.49063
674.99756	0.38452
673.06899	0.20135
671.14043	0.20393
669.21187	0.28429
667.28330	0.26661
665.35474	0.26995
663.42617	0.33249
661.49761	0.42216
659.56904	0.46589
657.64048	0.40408
655.71191	0.27163
653.78335	0.12651
651.85479	0.06223
649.92622	0.11164
647.99766	0.18025
646.06909	0.18473
644.14053	0.16643
642.21196	0.15835
640.28340	0.12137
638.35483	0.07994
636.42627	0.12271
634.49771	0.23838
632.56914	0.26880
630.64058	0.25593
628.71201	0.30960
626.78345	0.39020
624.85488	0.36732
622.92632	0.27043
620.99775	0.22673
619.06919	0.22041
617.14062	0.22749
615.21206	0.24378
613.28350	0.22655
611.35493	0.18536
609.42637	0.16259
607.49780	0.16772
605.56924	0.19113
603.64067	0.20348
601.71211	0.20975
599.78354	0.21151
597.85498	0.20861
595.92642	0.22462
593.99785	0.22113
592.06929	0.21072
590.14072	0.24284
588.21216	0.28412
586.28359	0.29364
584.35503	0.28984
582.42646	0.28524
580.49790	0.27687
578.56934	0.24078
576.64077	0.19697
574.71221	0.20595
572.78364	0.24147
570.85508	0.26095
568.92651	0.27755
566.99795	0.23531
565.06938	0.20416
563.14082	0.20515
561.21226	0.18289
559.28369	0.17561
557.35513	0.18547
555.42656	0.18254
553.49800	0.19929
551.56943	0.21597
549.64087	0.21692
547.71230	0.25207
545.78374	0.32156
543.85518	0.34627
541.92661	0.34536
539.99805	0.34456
538.06948	0.34197
536.14092	0.35081
534.21235	0.31524
532.28379	0.27593
530.35522	0.33273
528.42666	0.44399
526.49810	0.49277
524.56953	0.51759
522.64097	0.44214
520.71240	0.34756
518.78384	0.33398
516.85527	0.33616
514.92671	0.30482
512.99814	0.26222
511.06958	0.21432
509.14102	0.17993
507.21245	0.14669
505.28389	0.13675
503.35532	0.22498
501.42676	0.33921
499.49819	0.32879
