3997.91411	0.06694
3995.98555	0.06739
3994.05698	0.06778
3992.12842	0.06798
3990.19985	0.06818
3988.27129	0.06831
3986.34272	0.06831
3984.41416	0.06856
3982.48560	0.06883
3980.55703	0.06897
3978.62847	0.06943
3976.69990	0.07006
3974.77134	0.07034
3972.84277	0.07055
3970.91421	0.07089
3968.98564	0.07094
3967.05708	0.07068
3965.12852	0.07076
3963.19995	0.07143
3961.27139	0.07186
3959.34282	0.07167
3957.41426	0.07157
3955.48569	0.07150
3953.55713	0.07123
3951.62856	0.07141
3949.70000	0.07208
3947.77144	0.07251
3945.84287	0.07227
3943.91431	0.07188
3941.98574	0.07188
3940.05718	0.07193
3938.12861	0.07191
3936.20005	0.07211
3934.27148	0.07247
3932.34292	0.07282
3930.41436	0.07275
3928.48579	0.07225
3926.55723	0.07206
3924.62866	0.07236
3922.70010	0.07242
3920.77153	0.07206
3918.84297	0.07211
3916.91440	0.07246
3914.98584	0.07210
3913.05728	0.07109
3911.12871	0.07058
3909.20015	0.07079
3907.27158	0.07109
3905.34302	0.07166
3903.41445	0.07279
3901.48589	0.07348
3899.55732	0.07331
3897.62876	0.07261
3895.70020	0.07187
3893.77163	0.07169
3891.84307	0.07214
3889.91450	0.07264
3887.98594	0.07268
3886.05737	0.07290
3884.12881	0.07324
3882.20024	0.07309
3880.27168	0.07319
3878.34312	0.07333
3876.41455	0.07294
3874.48599	0.07319
3872.55742	0.07439
3870.62886	0.07536
3868.70029	0.07574
3866.77173	0.07572
3864.84316	0.07599
3862.91460	0.07647
3860.98604	0.07610
3859.05747	0.07573
3857.12891	0.07626
3855.20034	0.07728
3853.27178	0.07900
3851.34321	0.08062
3849.41465	0.07975
3847.48608	0.07847
3845.55752	0.07835
3843.62896	0.07939
3841.70039	0.08106
3839.77183	0.08283
3837.84326	0.08411
3835.91470	0.08403
3833.98613	0.08322
3832.05757	0.08286
3830.12900	0.08297
3828.20044	0.08352
3826.27187	0.08483
3824.34331	0.08639
3822.41475	0.08766
3820.48618	0.08910
3818.55762	0.08980
3816.62905	0.08977
3814.70049	0.09011
3812.77192	0.09039
3810.84336	0.09056
3808.91479	0.09124
3806.98623	0.09275
3805.05767	0.09449
3803.12910	0.09579
3801.20054	0.09750
3799.27197	0.09908
3797.34341	0.09978
3795.41484	0.10055
3793.48628	0.10114
3791.55771	0.10139
3789.62915	0.10194
3787.70059	0.10327
3785.77202	0.10549
3783.84346	0.10777
3781.91489	0.10916
3779.98633	0.11056
3778.05776	0.11271
3776.12920	0.11422
3774.20063	0.11504
3772.27207	0.11644
3770.34351	0.11894
3768.41494	0.12177
3766.48638	0.12348
3764.55781	0.12473
3762.62925	0.12637
3760.70068	0.12848
3758.77212	0.13110
3756.84355	0.13374
3754.91499	0.13613
3752.98643	0.13896
3751.05786	0.14325
3749.12930	0.14821
3747.20073	0.15102
3745.27217	0.15351
3743.34360	0.15762
3741.41504	0.16065
3739.48647	0.16258
3737.55791	0.16601
3735.62935	0.17214
3733.70078	0.17987
3731.77222	0.18572
3729.84365	0.18920
3727.91509	0.19247
3725.98652	0.19776
3724.05796	0.20472
3722.12939	0.21128
3720.20083	0.21715
3718.27227	0.22289
3716.34370	0.22922
3714.41514	0.23636
3712.48657	0.24585
3710.55801	0.26036
3708.62944	0.27577
3706.70088	0.28684
3704.77231	0.29690
3702.84375	0.30961
3700.91519	0.32651
3698.98662	0.34463
3697.05806	0.36178
3695.12949	0.38001
3693.20093	0.39946
3691.27236	0.42122
3689.34380	0.44947
3687.41523	0.48325
3685.48667	0.51257
3683.55811	0.53801
3681.62954	0.56543
3679.70098	0.59630
3677.77241	0.62881
3675.84385	0.66773
3673.91528	0.72080
3671.98672	0.76397
3670.05815	0.80220
3668.12959	0.85560
3666.20103	0.90398
3664.27246	0.94359
3662.34390	0.98648
3660.41533	1.03328
3658.48677	1.07912
3656.55820	1.12786
3654.62964	1.18299
3652.70107	1.22951
3650.77251	1.26968
3648.84395	1.32546
3646.91538	1.39479
3644.98682	1.44608
3643.05825	1.48546
3641.12969	1.52585
3639.20112	1.57033
3637.27256	1.61445
3635.34399	1.65713
3633.41543	1.70063
3631.48687	1.74192
3629.55830	1.78330
3627.62974	1.83752
3625.70117	1.88845
3623.77261	1.92147
3621.84404	1.95247
3619.91548	1.98957
3617.98691	2.03609
3616.05835	2.08145
3614.12979	2.11971
3612.20122	2.15976
3610.27266	2.19950
3608.34409	2.23955
3606.41553	2.28240
3604.48696	2.32177
3602.55840	2.35679
3600.62983	2.39456
3598.70127	2.43538
3596.77271	2.47480
3594.84414	2.51466
3592.91558	2.55505
3590.98701	2.59188
3589.05845	2.62767
3587.12988	2.67351
3585.20132	2.72359
3583.27275	2.76374
3581.34419	2.80057
3579.41562	2.84157
3577.48706	2.88585
3575.55850	2.92950
3573.62993	2.97209
3571.70137	3.01268
3569.77280	3.05205
3567.84424	3.09473
3565.91567	3.14620
3563.98711	3.19538
3562.05854	3.23756
3560.12998	3.28195
3558.20142	3.32862
3556.27285	3.37356
3554.34429	3.41485
3552.41572	3.45823
3550.48716	3.50570
3548.55859	3.55089
3546.63003	3.59413
3544.70146	3.64260
3542.77290	3.69419
3540.84434	3.74251
3538.91577	3.78798
3536.98721	3.83313
3535.05864	3.88261
3533.13008	3.93150
3531.20151	3.97506
3529.27295	4.02013
3527.34438	4.06996
3525.41582	4.11772
3523.48726	4.16170
3521.55869	4.20698
3519.63013	4.25520
3517.70156	4.30589
3515.77300	4.35382
3513.84443	4.39899
3511.91587	4.44690
3509.98730	4.49643
3508.05874	4.54524
3506.13018	4.59319
3504.20161	4.63962
3502.27305	4.68547
3500.34448	4.73250
3498.41592	4.78099
3496.48735	4.82876
3494.55879	4.87412
3492.63022	4.92246
3490.70166	4.97628
3488.77310	5.02837
3486.84453	5.07561
3484.91597	5.12085
3482.98740	5.16406
3481.05884	5.20919
3479.13027	5.26050
3477.20171	5.31535
3475.27314	5.36747
3473.34458	5.41260
3471.41602	5.45401
3469.48745	5.49803
3467.55889	5.54953
3465.63032	5.60360
3463.70176	5.65487
3461.77319	5.70831
3459.84463	5.76601
3457.91606	5.82024
3455.98750	5.86469
3454.05894	5.90114
3452.13037	5.94624
3450.20181	6.00684
3448.27324	6.06396
3446.34468	6.10946
3444.41611	6.14853
3442.48755	6.19212
3440.55898	6.22731
3438.63042	6.25387
3436.70186	6.31544
3434.77329	6.40279
3432.84473	6.46727
3430.91616	6.51379
3428.98760	6.56738
3427.05903	6.62508
3425.13047	6.68558
3423.20190	6.74253
3421.27334	6.77883
3419.34478	6.79377
3417.41621	6.83364
3415.48765	6.90528
3413.55908	6.95895
3411.63052	7.01056
3409.70195	7.07005
3407.77339	7.11720
3405.84482	7.15314
3403.91626	7.17572
3401.98770	7.18651
3400.05913	7.20313
3398.13057	7.23148
3396.20200	7.28742
3394.27344	7.38228
3392.34487	7.45156
3390.41631	7.46735
3388.48774	7.47977
3386.55918	7.52490
3384.63062	7.57260
3382.70205	7.61335
3380.77349	7.66195
3378.84492	7.69663
3376.91636	7.71205
3374.98779	7.69460
3373.05923	7.69209
3371.13066	7.72341
3369.20210	7.73212
3367.27354	7.72408
3365.34497	7.77007
3363.41641	7.84205
3361.48784	7.86258
3359.55928	7.87402
3357.63071	7.86583
3355.70215	7.82486
3353.77358	7.82618
3351.84502	7.90228
3349.91646	7.99287
3347.98789	8.07534
3346.05933	8.15710
3344.13076	8.15749
3342.20220	8.09315
3340.27363	8.03604
3338.34507	7.95854
3336.41650	7.88914
3334.48794	7.95324
3332.55937	8.09140
3330.63081	8.12280
3328.70225	8.10359
3326.77368	8.11617
3324.84512	8.10878
3322.91655	8.16232
3320.98799	8.32000
3319.05942	8.31459
3317.13086	8.14495
3315.20229	8.07635
3313.27373	8.11628
3311.34517	8.14003
3309.41660	8.12154
3307.48804	8.10210
3305.55947	8.09193
3303.63091	8.12355
3301.70234	8.17896
3299.77378	8.16136
3297.84521	8.08927
3295.91665	8.09802
3293.98809	8.15687
3292.05952	8.13714
3290.13096	8.08177
3288.20239	8.10058
3286.27383	8.13198
3284.34526	8.05398
3282.41670	7.98118
3280.48813	7.99624
3278.55957	8.06421
3276.63101	8.18927
3274.70244	8.29842
3272.77388	8.26469
3270.84531	8.15519
3268.91675	8.15857
3266.98818	8.25425
3265.05962	8.23107
3263.13105	8.17030
3261.20249	8.22448
3259.27393	8.26371
3257.34536	8.22085
3255.41680	8.12117
3253.48823	8.06453
3251.55967	8.17921
3249.63110	8.35348
3247.70254	8.42616
3245.77397	8.43945
3243.84541	8.44415
3241.91685	8.34934
3239.98828	8.14665
3238.05972	8.01409
3236.13115	8.02811
3234.20259	8.06760
3232.27402	8.05227
3230.34546	8.07038
3228.41689	8.10968
3226.48833	8.09947
3224.55977	8.06633
3222.63120	7.99424
3220.70264	7.89580
3218.77407	7.84805
3216.84551	7.85374
3214.91694	7.89564
3212.98838	7.93957
3211.05981	7.92597
3209.13125	7.89568
3207.20269	7.89144
3205.27412	7.85959
3203.34556	7.77929
3201.41699	7.71017
3199.48843	7.67431
3197.55986	7.64820
3195.63130	7.60811
3193.70273	7.52828
3191.77417	7.44390
3189.84561	7.40179
3187.91704	7.37636
3185.98848	7.35020
3184.05991	7.33442
3182.13135	7.30391
3180.20278	7.22206
3178.27422	7.10393
3176.34565	7.01746
3174.41709	6.99238
3172.48853	6.98204
3170.55996	6.95023
3168.63140	6.90654
3166.70283	6.84110
3164.77427	6.76420
3162.84570	6.69710
3160.91714	6.61721
3158.98857	6.53902
3157.06001	6.49801
3155.13145	6.47288
3153.20288	6.41679
3151.27432	6.32719
3149.34575	6.23336
3147.41719	6.15450
3145.48862	6.09175
3143.56006	6.02711
3141.63149	5.95680
3139.70293	5.89196
3137.77437	5.82916
3135.84580	5.76412
3133.91724	5.69848
3131.98867	5.62359
3130.06011	5.53883
3128.13154	5.45706
3126.20298	5.38592
3124.27441	5.32383
3122.34585	5.25772
3120.41729	5.18468
3118.48872	5.11484
3116.56016	5.04991
3114.63159	4.98373
3112.70303	4.91518
3110.77446	4.84974
3108.84590	4.78697
3106.91733	4.71769
3104.98877	4.64215
3103.06021	4.57345
3101.13164	4.51070
3099.20308	4.44898
3097.27451	4.39036
3095.34595	4.32665
3093.41738	4.25687
3091.48882	4.19290
3089.56025	4.13587
3087.63169	4.07789
3085.70312	4.01800
3083.77456	3.96023
3081.84600	3.90151
3079.91743	3.83809
3077.98887	3.77535
3076.06030	3.71665
3074.13174	3.65901
3072.20317	3.60199
3070.27461	3.54705
3068.34604	3.49260
3066.41748	3.43664
3064.48892	3.38167
3062.56035	3.32939
3060.63179	3.27780
3058.70322	3.22565
3056.77466	3.17272
3054.84609	3.12056
3052.91753	3.07080
3050.98896	3.02119
3049.06040	2.97030
3047.13184	2.92118
3045.20327	2.87417
3043.27471	2.82651
3041.34614	2.77885
3039.41758	2.73233
3037.48901	2.68574
3035.56045	2.63938
3033.63188	2.59462
3031.70332	2.55084
3029.77476	2.50808
3027.84619	2.46663
3025.91763	2.42490
3023.98906	2.38306
3022.06050	2.34225
3020.13193	2.30154
3018.20337	2.26068
3016.27480	2.22047
3014.34624	2.18122
3012.41768	2.14293
3010.48911	2.10550
3008.56055	2.06935
3006.63198	2.03450
3004.70342	1.99986
3002.77485	1.96527
3000.84629	1.93128
2998.91772	1.89827
2996.98916	1.86665
2995.06060	1.83589
2993.13203	1.80527
2991.20347	1.77519
2989.27490	1.74620
2987.34634	1.71824
2985.41777	1.69078
2983.48921	1.66362
2981.56064	1.63697
2979.63208	1.61092
2977.70352	1.58562
2975.77495	1.56119
2973.84639	1.53728
2971.91782	1.51368
2969.98926	1.49067
2968.06069	1.46813
2966.13213	1.44564
2964.20356	1.42300
2962.27500	1.40021
2960.34644	1.37774
2958.41787	1.35559
2956.48931	1.33279
2954.56074	1.30919
2952.63218	1.28576
2950.70361	1.26302
2948.77505	1.24083
2946.84648	1.21937
2944.91792	1.19886
2942.98936	1.17896
2941.06079	1.15942
2939.13223	1.14025
2937.20366	1.12135
2935.27510	1.10250
2933.34653	1.08314
2931.41797	1.06345
2929.48940	1.04454
2927.56084	1.02612
2925.63228	1.00752
2923.70371	0.98930
2921.77515	0.97153
2919.84658	0.95403
2917.91802	0.93685
2915.98945	0.91959
2914.06089	0.90229
2912.13232	0.88558
2910.20376	0.86958
2908.27520	0.85431
2906.34663	0.83974
2904.41807	0.82530
2902.48950	0.81096
2900.56094	0.79720
2898.63237	0.78384
2896.70381	0.77055
2894.77524	0.75745
2892.84668	0.74473
2890.91812	0.73250
2888.98955	0.72109
2887.06099	0.71063
2885.13242	0.70070
2883.20386	0.69067
2881.27529	0.68065
2879.34673	0.67099
2877.41816	0.66158
2875.48960	0.65211
2873.56104	0.64233
2871.63247	0.63213
2869.70391	0.62134
2867.77534	0.60991
2865.84678	0.59810
2863.91821	0.58622
2861.98965	0.57471
2860.06108	0.56380
2858.13252	0.55345
2856.20396	0.54358
2854.27539	0.53407
2852.34683	0.52494
2850.41826	0.51599
2848.48970	0.50702
2846.56113	0.49845
2844.63257	0.49071
2842.70400	0.48352
2840.77544	0.47634
2838.84687	0.46931
2836.91831	0.46285
2834.98975	0.45681
2833.06118	0.45076
2831.13262	0.44451
2829.20405	0.43826
2827.27549	0.43233
2825.34692	0.42658
2823.41836	0.42069
2821.48979	0.41474
2819.56123	0.40884
2817.63267	0.40288
2815.70410	0.39694
2813.77554	0.39118
2811.84697	0.38571
2809.91841	0.38037
2807.98984	0.37495
2806.06128	0.36955
2804.13271	0.36422
2802.20415	0.35893
2800.27559	0.35395
2798.34702	0.34932
2796.41846	0.34466
2794.48989	0.33990
2792.56133	0.33521
2790.63276	0.33056
2788.70420	0.32593
2786.77563	0.32141
2784.84707	0.31707
2782.91851	0.31294
2780.98994	0.30902
2779.06138	0.30516
2777.13281	0.30124
2775.20425	0.29718
2773.27568	0.29310
2771.34712	0.28922
2769.41855	0.28556
2767.48999	0.28193
2765.56143	0.27826
2763.63286	0.27460
2761.70430	0.27104
2759.77573	0.26774
2757.84717	0.26467
2755.91860	0.26166
2753.99004	0.25859
2752.06147	0.25550
2750.13291	0.25249
2748.20435	0.24950
2746.27578	0.24649
2744.34722	0.24354
2742.41865	0.24060
2740.49009	0.23776
2738.56152	0.23507
2736.63296	0.23250
2734.70439	0.23005
2732.77583	0.22765
2730.84727	0.22533
2728.91870	0.22312
2726.99014	0.22093
2725.06157	0.21863
2723.13301	0.21629
2721.20444	0.21410
2719.27588	0.21204
2717.34731	0.20999
2715.41875	0.20800
2713.49019	0.20621
2711.56162	0.20445
2709.63306	0.20259
2707.70449	0.20074
2705.77593	0.19902
2703.84736	0.19743
2701.91880	0.19583
2699.99023	0.19414
2698.06167	0.19256
2696.13311	0.19112
2694.20454	0.18973
2692.27598	0.18846
2690.34741	0.18732
2688.41885	0.18609
2686.49028	0.18464
2684.56172	0.18312
2682.63315	0.18165
2680.70459	0.18034
2678.77603	0.17929
2676.84746	0.17828
2674.91890	0.17714
2672.99033	0.17597
2671.06177	0.17484
2669.13320	0.17374
2667.20464	0.17270
2665.27607	0.17166
2663.34751	0.17064
2661.41895	0.16978
2659.49038	0.16890
2657.56182	0.16793
2655.63325	0.16709
2653.70469	0.16643
2651.77612	0.16572
2649.84756	0.16486
2647.91899	0.16404
2645.99043	0.16344
2644.06187	0.16296
2642.13330	0.16243
2640.20474	0.16175
2638.27617	0.16099
2636.34761	0.16027
2634.41904	0.15971
2632.49048	0.15936
2630.56191	0.15905
2628.63335	0.15860
2626.70479	0.15806
2624.77622	0.15752
2622.84766	0.15704
2620.91909	0.15669
2618.99053	0.15647
2617.06196	0.15630
2615.13340	0.15612
2613.20483	0.15584
2611.27627	0.15552
2609.34771	0.15525
2607.41914	0.15512
2605.49058	0.15504
2603.56201	0.15497
2601.63345	0.15495
2599.70488	0.15486
2597.77632	0.15465
2595.84775	0.15458
2593.91919	0.15467
2591.99062	0.15472
2590.06206	0.15470
2588.13350	0.15477
2586.20493	0.15500
2584.27637	0.15531
2582.34780	0.15549
2580.41924	0.15553
2578.49067	0.15561
2576.56211	0.15575
2574.63354	0.15596
2572.70498	0.15626
2570.77642	0.15656
2568.84785	0.15681
2566.91929	0.15706
2564.99072	0.15742
2563.06216	0.15795
2561.13359	0.15852
2559.20503	0.15895
2557.27646	0.15923
2555.34790	0.15955
2553.41934	0.16003
2551.49077	0.16050
2549.56221	0.16081
2547.63364	0.16113
2545.70508	0.16153
2543.77651	0.16200
2541.84795	0.16255
2539.91938	0.16312
2537.99082	0.16371
2536.06226	0.16434
2534.13369	0.16500
2532.20513	0.16562
2530.27656	0.16616
2528.34800	0.16673
2526.41943	0.16737
2524.49087	0.16801
2522.56230	0.16865
2520.63374	0.16935
2518.70518	0.17014
2516.77661	0.17090
2514.84805	0.17152
2512.91948	0.17212
2510.99092	0.17281
2509.06235	0.17362
2507.13379	0.17443
2505.20522	0.17518
2503.27666	0.17598
2501.34810	0.17681
2499.41953	0.17752
2497.49097	0.17812
2495.56240	0.17884
2493.63384	0.17958
2491.70527	0.18011
2489.77671	0.18066
2487.84814	0.18153
2485.91958	0.18261
2483.99102	0.18361
2482.06245	0.18439
2480.13389	0.18498
2478.20532	0.18553
2476.27676	0.18620
2474.34819	0.18702
2472.41963	0.18794
2470.49106	0.18893
2468.56250	0.18989
2466.63394	0.19067
2464.70537	0.19142
2462.77681	0.19229
2460.84824	0.19311
2458.91968	0.19383
2456.99111	0.19463
2455.06255	0.19554
2453.13398	0.19644
2451.20542	0.19733
2449.27686	0.19831
2447.34829	0.19937
2445.41973	0.20037
2443.49116	0.20134
2441.56260	0.20225
2439.63403	0.20315
2437.70547	0.20414
2435.77690	0.20506
2433.84834	0.20600
2431.91978	0.20710
2429.99121	0.20824
2428.06265	0.20926
2426.13408	0.21020
2424.20552	0.21119
2422.27695	0.21223
2420.34839	0.21318
2418.41982	0.21412
2416.49126	0.21519
2414.56270	0.21628
2412.63413	0.21735
2410.70557	0.21843
2408.77700	0.21955
2406.84844	0.22069
2404.91987	0.22185
2402.99131	0.22298
2401.06274	0.22403
2399.13418	0.22512
2397.20562	0.22635
2395.27705	0.22765
2393.34849	0.22892
2391.41992	0.23013
2389.49136	0.23137
2387.56279	0.23294
2385.63423	0.23525
2383.70566	0.23850
2381.77710	0.24260
2379.84854	0.24744
2377.91997	0.25298
2375.99141	0.25939
2374.06284	0.26694
2372.13428	0.27543
2370.20571	0.28427
2368.27715	0.29269
2366.34858	0.30011
2364.42002	0.30648
2362.49146	0.31252
2360.56289	0.31842
2358.63433	0.32116
2356.70576	0.31799
2354.77720	0.31150
2352.84863	0.30481
2350.92007	0.29804
2348.99150	0.29379
2347.06294	0.29422
2345.13437	0.30007
2343.20581	0.30904
2341.27725	0.31492
2339.34868	0.31698
2337.42012	0.31804
2335.49155	0.31865
2333.56299	0.31831
2331.63442	0.31811
2329.70586	0.31882
2327.77729	0.31922
2325.84873	0.31813
2323.92017	0.31639
2321.99160	0.31483
2320.06304	0.31311
2318.13447	0.31130
2316.20591	0.30988
2314.27734	0.30916
2312.34878	0.30931
2310.42021	0.30983
2308.49165	0.30982
2306.56309	0.30919
2304.63452	0.30868
2302.70596	0.30891
2300.77739	0.30973
2298.84883	0.31059
2296.92026	0.31145
2294.99170	0.31251
2293.06313	0.31358
2291.13457	0.31446
2289.20601	0.31534
2287.27744	0.31640
2285.34888	0.31757
2283.42031	0.31896
2281.49175	0.32083
2279.56318	0.32306
2277.63462	0.32522
2275.70605	0.32720
2273.77749	0.32927
2271.84893	0.33140
2269.92036	0.33347
2267.99180	0.33542
2266.06323	0.33727
2264.13467	0.33914
2262.20610	0.34107
2260.27754	0.34308
2258.34897	0.34513
2256.42041	0.34710
2254.49185	0.34905
2252.56328	0.35109
2250.63472	0.35313
2248.70615	0.35518
2246.77759	0.35718
2244.84902	0.35912
2242.92046	0.36115
2240.99189	0.36325
2239.06333	0.36528
2237.13477	0.36731
2235.20620	0.36946
2233.27764	0.37166
2231.34907	0.37386
2229.42051	0.37605
2227.49194	0.37816
2225.56338	0.38024
2223.63481	0.38237
2221.70625	0.38457
2219.77769	0.38684
2217.84912	0.38904
2215.92056	0.39113
2213.99199	0.39330
2212.06343	0.39549
2210.13486	0.39754
2208.20630	0.39957
2206.27773	0.40159
2204.34917	0.40346
2202.42061	0.40534
2200.49204	0.40746
2198.56348	0.40966
2196.63491	0.41167
2194.70635	0.41347
2192.77778	0.41517
2190.84922	0.41691
2188.92065	0.41878
2186.99209	0.42070
2185.06353	0.42245
2183.13496	0.42402
2181.20640	0.42552
2179.27783	0.42709
2177.34927	0.42882
2175.42070	0.43058
2173.49214	0.43222
2171.56357	0.43369
2169.63501	0.43502
2167.70645	0.43634
2165.77788	0.43755
2163.84932	0.43861
2161.92075	0.43964
2159.99219	0.44075
2158.06362	0.44184
2156.13506	0.44285
2154.20649	0.44377
2152.27793	0.44464
2150.34937	0.44537
2148.42080	0.44596
2146.49224	0.44655
2144.56367	0.44707
2142.63511	0.44741
2140.70654	0.44767
2138.77798	0.44800
2136.84941	0.44828
2134.92085	0.44836
2132.99229	0.44835
2131.06372	0.44839
2129.13516	0.44845
2127.20659	0.44837
2125.27803	0.44809
2123.34946	0.44764
2121.42090	0.44715
2119.49233	0.44664
2117.56377	0.44604
2115.63521	0.44539
2113.70664	0.44476
2111.77808	0.44406
2109.84951	0.44322
2107.92095	0.44215
2105.99238	0.44093
2104.06382	0.43976
2102.13525	0.43867
2100.20669	0.43755
2098.27812	0.43628
2096.34956	0.43484
2094.42100	0.43331
2092.49243	0.43176
2090.56387	0.43017
2088.63530	0.42854
2086.70674	0.42692
2084.77817	0.42523
2082.84961	0.42337
2080.92104	0.42135
2078.99248	0.41927
2077.06392	0.41728
2075.13535	0.41534
2073.20679	0.41328
2071.27822	0.41111
2069.34966	0.40890
2067.42109	0.40662
2065.49253	0.40440
2063.56396	0.40216
2061.63540	0.39985
2059.70684	0.39747
2057.77827	0.39497
2055.84971	0.39238
2053.92114	0.38983
2051.99258	0.38741
2050.06401	0.38503
2048.13545	0.38255
2046.20688	0.37994
2044.27832	0.37732
2042.34976	0.37468
2040.42119	0.37200
2038.49263	0.36931
2036.56406	0.36665
2034.63550	0.36392
2032.70693	0.36115
2030.77837	0.35852
2028.84980	0.35591
2026.92124	0.35324
2024.99268	0.35055
2023.06411	0.34790
2021.13555	0.34527
2019.20698	0.34269
2017.27842	0.34006
2015.34985	0.33726
2013.42129	0.33451
2011.49272	0.33185
2009.56416	0.32911
2007.63560	0.32634
2005.70703	0.32364
2003.77847	0.32094
2001.84990	0.31829
1999.92134	0.31572
1997.99277	0.31311
1996.06421	0.31055
1994.13564	0.30820
1992.20708	0.30586
1990.27852	0.30332
1988.34995	0.30081
1986.42139	0.29844
1984.49282	0.29611
1982.56426	0.29387
1980.63569	0.29166
1978.70713	0.28939
1976.77856	0.28711
1974.85000	0.28487
1972.92144	0.28271
1970.99287	0.28069
1969.06431	0.27874
1967.13574	0.27678
1965.20718	0.27469
1963.27861	0.27259
1961.35005	0.27064
1959.42148	0.26885
1957.49292	0.26709
1955.56436	0.26532
1953.63579	0.26361
1951.70723	0.26194
1949.77866	0.26033
1947.85010	0.25880
1945.92153	0.25736
1943.99297	0.25600
1942.06440	0.25460
1940.13584	0.25301
1938.20728	0.25139
1936.27871	0.24985
1934.35015	0.24842
1932.42158	0.24722
1930.49302	0.24617
1928.56445	0.24520
1926.63589	0.24424
1924.70732	0.24330
1922.77876	0.24237
1920.85020	0.24142
1918.92163	0.24049
1916.99307	0.23957
1915.06450	0.23863
1913.13594	0.23778
1911.20737	0.23712
1909.27881	0.23653
1907.35024	0.23575
1905.42168	0.23478
1903.49312	0.23400
1901.56455	0.23353
1899.63599	0.23312
1897.70742	0.23277
1895.77886	0.23252
1893.85029	0.23220
1891.92173	0.23172
1889.99316	0.23148
1888.06460	0.23138
1886.13604	0.23106
1884.20747	0.23068
1882.27891	0.23044
1880.35034	0.23028
1878.42178	0.23009
1876.49321	0.23002
1874.56465	0.23012
1872.63608	0.23036
1870.70752	0.23071
1868.77896	0.23130
1866.85039	0.23156
1864.92183	0.23124
1862.99326	0.23105
1861.06470	0.23122
1859.13613	0.23164
1857.20757	0.23209
1855.27900	0.23253
1853.35044	0.23290
1851.42187	0.23339
1849.49331	0.23404
1847.56475	0.23481
1845.63618	0.23575
1843.70762	0.23684
1841.77905	0.23754
1839.85049	0.23784
1837.92192	0.23845
1835.99336	0.23927
1834.06479	0.24013
1832.13623	0.24112
1830.20767	0.24262
1828.27910	0.24412
1826.35054	0.24510
1824.42197	0.24631
1822.49341	0.24752
1820.56484	0.24865
1818.63628	0.25002
1816.70771	0.25166
1814.77915	0.25321
1812.85059	0.25492
1810.92202	0.25706
1808.99346	0.25915
1807.06489	0.26090
1805.13633	0.26259
1803.20776	0.26474
1801.27920	0.26739
1799.35063	0.27035
1797.42207	0.27296
1795.49351	0.27542
1793.56494	0.27827
1791.63638	0.28167
1789.70781	0.28463
1787.77925	0.28690
1785.85068	0.28998
1783.92212	0.29379
1781.99355	0.29780
1780.06499	0.30192
1778.13643	0.30615
1776.20786	0.31013
1774.27930	0.31437
1772.35073	0.32011
1770.42217	0.32628
1768.49360	0.33141
1766.56504	0.33628
1764.63647	0.34135
1762.70791	0.34712
1760.77935	0.35451
1758.85078	0.36139
1756.92222	0.36829
1754.99365	0.37590
1753.06509	0.38284
1751.13652	0.39114
1749.20796	0.40165
1747.27939	0.41195
1745.35083	0.42089
1743.42227	0.43031
1741.49370	0.44060
1739.56514	0.45272
1737.63657	0.46503
1735.70801	0.47586
1733.77944	0.49203
1731.85088	0.51139
1729.92231	0.52653
1727.99375	0.54166
1726.06519	0.55798
1724.13662	0.57600
1722.20806	0.59561
1720.27949	0.61378
1718.35093	0.63514
1716.42236	0.66690
1714.49380	0.69700
1712.56523	0.72102
1710.63667	0.74417
1708.70811	0.76929
1706.77954	0.79833
1704.85098	0.83366
1702.92241	0.86533
1700.99385	0.89652
1699.06528	0.94295
1697.13672	0.98601
1695.20815	1.03125
1693.27959	1.07556
1691.35103	1.11129
1689.42246	1.15300
1687.49390	1.19755
1685.56533	1.24052
1683.63677	1.30725
1681.70820	1.37709
1679.77964	1.42155
1677.85107	1.46363
1675.92251	1.51218
1673.99395	1.57312
1672.06538	1.62829
1670.13682	1.68269
1668.20825	1.75338
1666.27969	1.81197
1664.35112	1.86311
1662.42256	1.92859
1660.49399	2.00325
1658.56543	2.06176
1656.63687	2.10891
1654.70830	2.15180
1652.77974	2.21672
1650.85117	2.27550
1648.92261	2.29495
1646.99404	2.31820
1645.06548	2.34029
1643.13691	2.35506
1641.20835	2.36362
1639.27979	2.36937
1637.35122	2.37004
1635.42266	2.36546
1633.49409	2.35480
1631.56553	2.33832
1629.63696	2.31837
1627.70840	2.28621
1625.77983	2.24845
1623.85127	2.20081
1621.92271	2.14361
1619.99414	2.09523
1618.06558	2.04888
1616.13701	1.98154
1614.20845	1.91372
1612.27988	1.86249
1610.35132	1.80860
1608.42275	1.75030
1606.49419	1.69293
1604.56562	1.63971
1602.63706	1.58916
1600.70850	1.54105
1598.77993	1.49627
1596.85137	1.45385
1594.92280	1.41378
1592.99424	1.37604
1591.06567	1.34158
1589.13711	1.30932
1587.20854	1.27971
1585.27998	1.25324
1583.35142	1.22929
1581.42285	1.20790
1579.49429	1.19032
1577.56572	1.17542
1575.63716	1.15765
1573.70859	1.14209
1571.78003	1.13259
1569.85146	1.12402
1567.92290	1.11537
1565.99434	1.10962
1564.06577	1.10659
1562.13721	1.10550
1560.20864	1.10724
1558.28008	1.11552
1556.35151	1.12396
1554.42295	1.12841
1552.49438	1.13285
1550.56582	1.13597
1548.63726	1.13613
1546.70869	1.13247
1544.78013	1.12469
1542.85156	1.11292
1540.92300	1.09347
1538.99443	1.06048
1537.06587	1.03585
1535.13730	1.01911
1533.20874	0.99654
1531.28018	0.97213
1529.35161	0.95466
1527.42305	0.93857
1525.49448	0.92187
1523.56592	0.90783
1521.63735	0.89478
1519.70879	0.88152
1517.78022	0.86996
1515.85166	0.85599
1513.92310	0.84141
1511.99453	0.82913
1510.06597	0.81805
1508.13740	0.80696
1506.20884	0.78948
1504.28027	0.77459
1502.35171	0.76661
1500.42314	0.75970
1498.49458	0.75223
1496.56602	0.74339
1494.63745	0.73440
1492.70889	0.72745
1490.78032	0.72147
1488.85176	0.71468
1486.92319	0.70828
1484.99463	0.70332
1483.06606	0.69971
1481.13750	0.69701
1479.20894	0.69508
1477.28037	0.69433
1475.35181	0.69474
1473.42324	0.69578
1471.49468	0.69596
1469.56611	0.69460
1467.63755	0.69286
1465.70898	0.69158
1463.78042	0.69078
1461.85186	0.69048
1459.92329	0.69101
1457.99473	0.69260
1456.06616	0.69375
1454.13760	0.69205
1452.20903	0.68937
1450.28047	0.68677
1448.35190	0.68429
1446.42334	0.68155
1444.49478	0.67883
1442.56621	0.67630
1440.63765	0.67365
1438.70908	0.67078
1436.78052	0.66687
1434.85195	0.66234
1432.92339	0.65920
1430.99482	0.65728
1429.06626	0.65622
1427.13770	0.65610
1425.20913	0.65683
1423.28057	0.65808
1421.35200	0.65927
1419.42344	0.66033
1417.49487	0.66067
1415.56631	0.65988
1413.63774	0.65927
1411.70918	0.65952
1409.78062	0.66083
1407.85205	0.66289
1405.92349	0.66523
1403.99492	0.66728
1402.06636	0.66829
1400.13779	0.66812
1398.20923	0.66667
1396.28066	0.66391
1394.35210	0.65972
1392.42354	0.65475
1390.49497	0.65014
1388.56641	0.64550
1386.63784	0.64002
1384.70928	0.63413
1382.78071	0.62858
1380.85215	0.62342
1378.92358	0.61895
1376.99502	0.61561
1375.06646	0.61341
1373.13789	0.61189
1371.20933	0.61084
1369.28076	0.61013
1367.35220	0.60915
1365.42363	0.60775
1363.49507	0.60621
1361.56650	0.60445
1359.63794	0.60258
1357.70937	0.60100
1355.78081	0.59969
1353.85225	0.59860
1351.92368	0.59769
1349.99512	0.59694
1348.06655	0.59618
1346.13799	0.59530
1344.20942	0.59443
1342.28086	0.59383
1340.35229	0.59347
1338.42373	0.59295
1336.49517	0.59226
1334.56660	0.59174
1332.63804	0.59159
1330.70947	0.59184
1328.78091	0.59252
1326.85234	0.59354
1324.92378	0.59474
1322.99521	0.59597
1321.06665	0.59717
1319.13809	0.59827
1317.20952	0.59901
1315.28096	0.59913
1313.35239	0.59874
1311.42383	0.59823
1309.49526	0.59770
1307.56670	0.59706
1305.63813	0.59652
1303.70957	0.59617
1301.78101	0.59566
1299.85244	0.59478
1297.92388	0.59361
1295.99531	0.59231
1294.06675	0.59105
1292.13818	0.58971
1290.20962	0.58814
1288.28105	0.58658
1286.35249	0.58525
1284.42393	0.58401
1282.49536	0.58260
1280.56680	0.58104
1278.63823	0.57948
1276.70967	0.57803
1274.78110	0.57670
1272.85254	0.57560
1270.92397	0.57479
1268.99541	0.57406
1267.06685	0.57316
1265.13828	0.57216
1263.20972	0.57125
1261.28115	0.57050
1259.35259	0.56983
1257.42402	0.56911
1255.49546	0.56857
1253.56689	0.56841
1251.63833	0.56839
1249.70977	0.56827
1247.78120	0.56811
1245.85264	0.56791
1243.92407	0.56738
1241.99551	0.56639
1240.06694	0.56492
1238.13838	0.56293
1236.20981	0.56061
1234.28125	0.55815
1232.35269	0.55556
1230.42412	0.55299
1228.49556	0.55063
1226.56699	0.54834
1224.63843	0.54598
1222.70986	0.54378
1220.78130	0.54190
1218.85273	0.54021
1216.92417	0.53868
1214.99561	0.53748
1213.06704	0.53653
1211.13848	0.53570
1209.20991	0.53505
1207.28135	0.53451
1205.35278	0.53385
1203.42422	0.53295
1201.49565	0.53192
1199.56709	0.53093
1197.63853	0.53003
1195.70996	0.52908
1193.78140	0.52811
1191.85283	0.52735
1189.92427	0.52693
1187.99570	0.52670
1186.06714	0.52658
1184.13857	0.52662
1182.21001	0.52693
1180.28145	0.52781
1178.35288	0.52933
1176.42432	0.53101
1174.49575	0.53249
1172.56719	0.53363
1170.63862	0.53422
1168.71006	0.53422
1166.78149	0.53400
1164.85293	0.53403
1162.92437	0.53431
1160.99580	0.53455
1159.06724	0.53446
1157.13867	0.53390
1155.21011	0.53309
1153.28154	0.53213
1151.35298	0.53057
1149.42441	0.52817
1147.49585	0.52542
1145.56729	0.52267
1143.63872	0.52003
1141.71016	0.51769
1139.78159	0.51598
1137.85303	0.51489
1135.92446	0.51418
1133.99590	0.51397
1132.06733	0.51432
1130.13877	0.51471
1128.21021	0.51483
1126.28164	0.51466
1124.35308	0.51432
1122.42451	0.51415
1120.49595	0.51436
1118.56738	0.51491
1116.63882	0.51557
1114.71025	0.51619
1112.78169	0.51691
1110.85312	0.51794
1108.92456	0.51916
1106.99600	0.52027
1105.06743	0.52115
1103.13887	0.52202
1101.21030	0.52314
1099.28174	0.52441
1097.35317	0.52589
1095.42461	0.52811
1093.49604	0.53158
1091.56748	0.53657
1089.63892	0.54305
1087.71035	0.55083
1085.78179	0.55942
1083.85322	0.56783
1081.92466	0.57507
1079.99609	0.58041
1078.06753	0.58310
1076.13896	0.58260
1074.21040	0.57906
1072.28184	0.57340
1070.35327	0.56653
1068.42471	0.55903
1066.49614	0.55166
1064.56758	0.54519
1062.63901	0.53978
1060.71045	0.53511
1058.78188	0.53099
1056.85332	0.52728
1054.92476	0.52374
1052.99619	0.52047
1051.06763	0.51790
1049.13906	0.51615
1047.21050	0.51510
1045.28193	0.51460
1043.35337	0.51444
1041.42480	0.51439
1039.49624	0.51431
1037.56768	0.51430
1035.63911	0.51421
1033.71055	0.51377
1031.78198	0.51282
1029.85342	0.51130
1027.92485	0.50929
1025.99629	0.50699
1024.06772	0.50504
1022.13916	0.50385
1020.21060	0.50324
1018.28203	0.50292
1016.35347	0.50264
1014.42490	0.50230
1012.49634	0.50183
1010.56777	0.50123
1008.63921	0.50076
1006.71064	0.50075
1004.78208	0.50136
1002.85352	0.50277
1000.92495	0.50517
998.99639	0.50855
997.06782	0.51262
995.13926	0.51700
993.21069	0.52119
991.28213	0.52450
989.35356	0.52641
987.42500	0.52712
985.49644	0.52709
983.56787	0.52655
981.63931	0.52609
979.71074	0.52654
977.78218	0.52785
975.85361	0.52942
973.92505	0.53144
971.99648	0.53429
970.06792	0.53750
968.13936	0.54074
966.21079	0.54435
964.28223	0.54846
962.35366	0.55304
960.42510	0.55796
958.49653	0.56306
956.56797	0.56856
954.63940	0.57448
952.71084	0.58051
950.78228	0.58662
948.85371	0.59297
946.92515	0.59967
944.99658	0.60640
943.06802	0.61259
941.13945	0.61821
939.21089	0.62387
937.28232	0.62959
935.35376	0.63477
933.42520	0.63967
931.49663	0.64501
929.56807	0.65100
927.63950	0.65737
925.71094	0.66373
923.78237	0.67012
921.85381	0.67656
919.92524	0.68294
917.99668	0.68975
916.06812	0.69693
914.13955	0.70404
912.21099	0.71145
910.28242	0.71910
908.35386	0.72694
906.42529	0.73582
904.49673	0.74553
902.56816	0.75450
900.63960	0.76284
898.71104	0.77196
896.78247	0.78187
894.85391	0.79189
892.92534	0.80218
890.99678	0.81282
889.06821	0.82340
887.13965	0.83403
885.21108	0.84483
883.28252	0.85602
881.35396	0.86741
879.42539	0.87771
877.49683	0.88705
875.56826	0.89688
873.63970	0.90846
871.71113	0.92232
869.78257	0.93629
867.85400	0.94775
865.92544	0.95784
863.99687	0.96876
862.06831	0.97948
860.13975	0.98883
858.21118	0.99880
856.28262	1.01021
854.35405	1.02216
852.42549	1.03447
850.49692	1.04716
848.56836	1.06103
846.63979	1.07546
844.71123	1.08721
842.78267	1.09469
840.85410	1.10265
838.92554	1.11561
836.99697	1.12994
835.06841	1.14226
833.13984	1.15331
831.21128	1.16373
829.28271	1.17537
827.35415	1.18980
825.42559	1.20402
823.49702	1.21405
821.56846	1.22336
819.63989	1.23291
817.71133	1.23774
815.78276	1.24292
813.85420	1.25509
811.92563	1.27142
809.99707	1.28707
808.06851	1.30400
806.13994	1.33095
804.21138	1.36469
802.28281	1.38890
800.35425	1.40054
798.42568	1.40958
796.49712	1.41753
794.56855	1.41111
792.63999	1.38282
790.71143	1.34787
788.78286	1.32844
786.85430	1.35050
784.92573	1.41588
782.99717	1.50453
781.06860	1.60929
779.14004	1.58718
777.21147	1.43489
775.28291	1.36231
773.35435	1.38342
771.42578	1.43081
769.49722	1.56311
767.56865	2.11907
765.64009	4.59384
763.71152	2.11338
761.78296	1.77991
759.85439	1.73396
757.92583	1.66107
755.99727	1.39570
754.06870	1.16224
752.14014	1.11339
750.21157	1.26717
748.28301	1.49522
746.35444	1.63858
744.42588	1.81334
742.49731	1.81528
740.56875	1.82806
738.64019	1.34792
736.71162	0.97209
734.78306	0.81102
732.85449	0.73058
730.92593	0.60103
728.99736	0.48482
727.06880	0.42744
725.14023	0.36792
723.21167	0.30384
721.28311	0.21021
719.35454	0.02915
717.42598	-0.09942
715.49741	-0.06001
713.56885	-0.03919
711.64028	-0.09500
709.71172	-0.14148
707.78315	-0.01832
705.85459	0.26046
703.92603	0.35203
701.99746	0.31826
700.06890	0.31283
698.14033	0.32771
696.21177	0.36476
694.28320	0.37287
692.35464	0.36662
690.42607	0.54319
688.49751	0.78867
686.56895	0.96250
684.64038	1.08957
682.71182	0.62952
680.78325	0.46199
678.85469	0.51929
676.92612	0.89725
674.99756	4.04999
673.06899	0.69962
671.14043	0.35686
669.21187	0.27789
667.28330	0.28551
665.35474	0.32638
663.42617	0.31981
661.49761	0.25884
659.56904	0.29675
657.64048	0.60631
655.71191	1.18836
653.78335	0.56719
651.85479	0.34045
649.92622	0.26427
647.99766	0.28566
646.06909	0.35131
644.14053	0.38029
642.21196	0.33709
640.28340	0.29653
638.35483	0.27246
636.42627	0.27884
634.49771	0.40842
632.56914	0.70657
630.64058	1.45223
628.71201	1.17713
626.78345	0.61580
624.85488	0.32700
622.92632	0.20639
620.99775	0.20947
619.06919	0.30969
617.14062	0.43681
615.21206	0.44093
613.28350	0.43508
611.35493	0.42420
609.42637	0.34763
607.49780	0.31328
605.56924	0.32393
603.64067	0.29670
601.71211	0.25812
599.78354	0.23266
597.85498	0.17491
595.92642	0.13889
593.99785	0.15498
592.06929	0.19375
590.14072	0.26173
588.21216	0.35175
586.28359	0.48376
584.35503	0.60669
582.42646	0.43607
580.49790	0.33122
578.56934	0.35510
576.64077	0.45628
574.71221	0.54691
572.78364	0.55310
570.85508	0.50898
568.92651	0.42823
566.99795	0.36734
565.06938	0.33986
563.14082	0.26852
561.21226	0.20032
559.28369	0.18885
557.35513	0.26013
555.42656	0.35988
553.49800	0.37751
551.56943	0.35767
549.64087	0.35133
547.71230	0.38373
545.78374	0.40515
543.85518	0.37155
541.92661	0.42589
539.99805	0.63346
538.06948	0.63113
536.14092	0.42984
534.21235	0.35056
532.28379	0.27785
530.35522	0.20987
528.42666	0.15238
526.49810	0.10846
524.56953	0.10996
522.64097	0.15534
520.71240	0.22095
518.78384	0.26869
516.85527	0.27746
514.92671	0.30542
512.99814	0.38244
511.06958	0.38311
509.14102	0.28644
507.21245	0.22315
505.28389	0.19483
503.35532	0.17419
501.42676	0.16945
499.49819	0.17061
