3997.91411	0.06672
3995.98555	0.06710
3994.05698	0.06707
3992.12842	0.06700
3990.19985	0.06725
3988.27129	0.06779
3986.34272	0.06838
3984.41416	0.06882
3982.48560	0.06914
3980.55703	0.06935
3978.62847	0.06941
3976.69990	0.06963
3974.77134	0.06997
3972.84277	0.07006
3970.91421	0.07006
3968.98564	0.07022
3967.05708	0.07053
3965.12852	0.07067
3963.19995	0.07055
3961.27139	0.07061
3959.34282	0.07068
3957.41426	0.07031
3955.48569	0.07020
3953.55713	0.07085
3951.62856	0.07132
3949.70000	0.07084
3947.77144	0.07022
3945.84287	0.07026
3943.91431	0.07042
3941.98574	0.07036
3940.05718	0.07056
3938.12861	0.07095
3936.20005	0.07108
3934.27148	0.07099
3932.34292	0.07095
3930.41436	0.07077
3928.48579	0.07031
3926.55723	0.06985
3924.62866	0.06970
3922.70010	0.06971
3920.77153	0.06953
3918.84297	0.06947
3916.91440	0.06965
3914.98584	0.06964
3913.05728	0.06955
3911.12871	0.06954
3909.20015	0.06933
3907.27158	0.06875
3905.34302	0.06798
3903.41445	0.06762
3901.48589	0.06793
3899.55732	0.06861
3897.62876	0.06948
3895.70020	0.07000
3893.77163	0.06976
3891.84307	0.06945
3889.91450	0.06971
3887.98594	0.06948
3886.05737	0.06847
3884.12881	0.06786
3882.20024	0.06803
3880.27168	0.06862
3878.34312	0.06977
3876.41455	0.07029
3874.48599	0.06962
3872.55742	0.06887
3870.62886	0.06892
3868.70029	0.06947
3866.77173	0.06982
3864.84316	0.06950
3862.91460	0.06916
3860.98604	0.07023
3859.05747	0.07183
3857.12891	0.07206
3855.20034	0.07095
3853.27178	0.06985
3851.34321	0.07106
3849.41465	0.07333
3847.48608	0.07459
3845.55752	0.07503
3843.62896	0.07513
3841.70039	0.07530
3839.77183	0.07538
3837.84326	0.07553
3835.91470	0.07658
3833.98613	0.07762
3832.05757	0.07807
3830.12900	0.07900
3828.20044	0.08007
3826.27187	0.08062
3824.34331	0.08096
3822.41475	0.08099
3820.48618	0.08111
3818.55762	0.08211
3816.62905	0.08358
3814.70049	0.08589
3812.77192	0.08812
3810.84336	0.08890
3808.91479	0.08906
3806.98623	0.08977
3805.05767	0.09110
3803.12910	0.09174
3801.20054	0.09198
3799.27197	0.09336
3797.34341	0.09536
3795.41484	0.09733
3793.48628	0.09898
3791.55771	0.10016
3789.62915	0.10122
3787.70059	0.10224
3785.77202	0.10344
3783.84346	0.10511
3781.91489	0.10691
3779.98633	0.10843
3778.05776	0.11029
3776.12920	0.11231
3774.20063	0.11364
3772.27207	0.11447
3770.34351	0.11563
3768.41494	0.11773
3766.48638	0.11995
3764.55781	0.12183
3762.62925	0.12343
3760.70068	0.12468
3758.77212	0.12636
3756.84355	0.12894
3754.91499	0.13125
3752.98643	0.13269
3751.05786	0.13434
3749.12930	0.13784
3747.20073	0.14147
3745.27217	0.14399
3743.34360	0.14765
3741.41504	0.15196
3739.48647	0.15443
3737.55791	0.15596
3735.62935	0.15851
3733.70078	0.16330
3731.77222	0.16903
3729.84365	0.17435
3727.91509	0.17913
3725.98652	0.18445
3724.05796	0.19104
3722.12939	0.19819
3720.20083	0.20582
3718.27227	0.21409
3716.34370	0.22244
3714.41514	0.23010
3712.48657	0.23814
3710.55801	0.24983
3708.62944	0.26433
3706.70088	0.27709
3704.77231	0.28884
3702.84375	0.30184
3700.91519	0.31825
3698.98662	0.33672
3697.05806	0.35473
3695.12949	0.37379
3693.20093	0.39357
3691.27236	0.41388
3689.34380	0.43989
3687.41523	0.47435
3685.48667	0.50670
3683.55811	0.53453
3681.62954	0.56322
3679.70098	0.59443
3677.77241	0.62634
3675.84385	0.66356
3673.91528	0.71548
3671.98672	0.75973
3670.05815	0.79855
3668.12959	0.85261
3666.20103	0.90369
3664.27246	0.94583
3662.34390	0.98974
3660.41533	1.03659
3658.48677	1.08208
3656.55820	1.12983
3654.62964	1.18390
3652.70107	1.22970
3650.77251	1.26795
3648.84395	1.32095
3646.91538	1.39121
3644.98682	1.44563
3643.05825	1.48636
3641.12969	1.52677
3639.20112	1.57149
3637.27256	1.61684
3635.34399	1.65999
3633.41543	1.70152
3631.48687	1.73998
3629.55830	1.77929
3627.62974	1.83228
3625.70117	1.88408
3623.77261	1.92015
3621.84404	1.95386
3619.91548	1.99109
3617.98691	2.03650
3616.05835	2.08136
3614.12979	2.11867
3612.20122	2.15886
3610.27266	2.19981
3608.34409	2.23921
3606.41553	2.28137
3604.48696	2.32119
3602.55840	2.35553
3600.62983	2.39275
3598.70127	2.43402
3596.77271	2.47356
3594.84414	2.51367
3592.91558	2.55585
3590.98701	2.59581
3589.05845	2.63276
3587.12988	2.67540
3585.20132	2.72331
3583.27275	2.76636
3581.34419	2.80647
3579.41562	2.84858
3577.48706	2.89220
3575.55850	2.93553
3573.62993	2.97927
3571.70137	3.02020
3569.77280	3.05732
3567.84424	3.09645
3565.91567	3.14757
3563.98711	3.20052
3562.05854	3.24316
3560.12998	3.28478
3558.20142	3.32953
3556.27285	3.37479
3554.34429	3.41861
3552.41572	3.46319
3550.48716	3.51061
3548.55859	3.55852
3546.63003	3.60310
3544.70146	3.64789
3542.77290	3.69624
3540.84434	3.74502
3538.91577	3.79295
3536.98721	3.84046
3535.05864	3.88964
3533.13008	3.93835
3531.20151	3.98584
3529.27295	4.03356
3527.34438	4.08093
3525.41582	4.12679
3523.48726	4.17218
3521.55869	4.21945
3519.63013	4.26780
3517.70156	4.31607
3515.77300	4.36304
3513.84443	4.41097
3511.91587	4.46014
3509.98730	4.50845
3508.05874	4.55978
3506.13018	4.61291
3504.20161	4.66050
3502.27305	4.70493
3500.34448	4.75003
3498.41592	4.79490
3496.48735	4.84357
3494.55879	4.89203
3492.63022	4.93440
3490.70166	4.98221
3488.77310	5.03770
3486.84453	5.08727
3484.91597	5.13122
3482.98740	5.17374
3481.05884	5.21770
3479.13027	5.27014
3477.20171	5.32573
3475.27314	5.37503
3473.34458	5.41863
3471.41602	5.46648
3469.48745	5.52024
3467.55889	5.56593
3465.63032	5.60641
3463.70176	5.66002
3461.77319	5.71960
3459.84463	5.77329
3457.91606	5.82585
3455.98750	5.87691
3454.05894	5.91873
3452.13037	5.95401
3450.20181	5.99503
3448.27324	6.04456
3446.34468	6.10190
3444.41611	6.15938
3442.48755	6.20584
3440.55898	6.24172
3438.63042	6.27813
3436.70186	6.32538
3434.77329	6.38190
3432.84473	6.43252
3430.91616	6.47122
3428.98760	6.51354
3427.05903	6.57393
3425.13047	6.65568
3423.20190	6.73092
3421.27334	6.78504
3419.34478	6.82450
3417.41621	6.84701
3415.48765	6.87001
3413.55908	6.91340
3411.63052	6.96249
3409.70195	6.99959
3407.77339	7.04862
3405.84482	7.08601
3403.91626	7.09254
3401.98770	7.11145
3400.05913	7.15096
3398.13057	7.19748
3396.20200	7.25820
3394.27344	7.32144
3392.34487	7.36980
3390.41631	7.42203
3388.48774	7.44916
3386.55918	7.45205
3384.63062	7.47767
3382.70205	7.50749
3380.77349	7.50109
3378.84492	7.51034
3376.91636	7.58934
3374.98779	7.65509
3373.05923	7.67869
3371.13066	7.73145
3369.20210	7.80886
3367.27354	7.83514
3365.34497	7.83001
3363.41641	7.85022
3361.48784	7.86445
3359.55928	7.84204
3357.63071	7.80827
3355.70215	7.85842
3353.77358	7.98388
3351.84502	8.05312
3349.91646	8.01990
3347.98789	7.95345
3346.05933	7.91265
3344.13076	7.93853
3342.20220	8.01007
3340.27363	8.02283
3338.34507	8.01234
3336.41650	8.04688
3334.48794	8.07843
3332.55937	8.07990
3330.63081	8.06494
3328.70225	8.01977
3326.77368	7.98523
3324.84512	7.99704
3322.91655	8.01292
3320.98799	8.03209
3319.05942	8.07457
3317.13086	8.12362
3315.20229	8.13466
3313.27373	8.11539
3311.34517	8.07386
3309.41660	8.04168
3307.48804	8.08603
3305.55947	8.17372
3303.63091	8.22725
3301.70234	8.21712
3299.77378	8.19933
3297.84521	8.18430
3295.91665	8.14010
3293.98809	8.06576
3292.05952	7.98372
3290.13096	7.97107
3288.20239	8.05450
3286.27383	8.16577
3284.34526	8.22391
3282.41670	8.20405
3280.48813	8.17619
3278.55957	8.19851
3276.63101	8.16857
3274.70244	8.11547
3272.77388	8.16386
3270.84531	8.22027
3268.91675	8.20728
3266.98818	8.18314
3265.05962	8.19797
3263.13105	8.23419
3261.20249	8.20960
3259.27393	8.13372
3257.34536	8.11913
3255.41680	8.16834
3253.48823	8.19040
3251.55967	8.17818
3249.63110	8.18073
3247.70254	8.19974
3245.77397	8.18242
3243.84541	8.11369
3241.91685	8.07396
3239.98828	8.11814
3238.05972	8.14720
3236.13115	8.09432
3234.20259	8.06450
3232.27402	8.09155
3230.34546	8.09002
3228.41689	8.05103
3226.48833	8.03350
3224.55977	8.02559
3222.63120	8.02115
3220.70264	8.00824
3218.77407	7.93648
3216.84551	7.84599
3214.91694	7.81852
3212.98838	7.82306
3211.05981	7.81722
3209.13125	7.84415
3207.20269	7.85625
3205.27412	7.81418
3203.34556	7.78499
3201.41699	7.73940
3199.48843	7.64917
3197.55986	7.58077
3195.63130	7.54646
3193.70273	7.49988
3191.77417	7.41614
3189.84561	7.33974
3187.91704	7.34565
3185.98848	7.39876
3184.05991	7.38029
3182.13135	7.29590
3180.20278	7.22194
3178.27422	7.15258
3176.34565	7.08704
3174.41709	7.05661
3172.48853	7.02606
3170.55996	6.95850
3168.63140	6.89351
3166.70283	6.83017
3164.77427	6.73482
3162.84570	6.64749
3160.91714	6.60224
3158.98857	6.55578
3157.06001	6.48420
3155.13145	6.43680
3153.20288	6.41202
3151.27432	6.35063
3149.34575	6.25278
3147.41719	6.15250
3145.48862	6.07379
3143.56006	6.02311
3141.63149	5.97058
3139.70293	5.89883
3137.77437	5.82174
3135.84580	5.73914
3133.91724	5.66070
3131.98867	5.60390
3130.06011	5.55345
3128.13154	5.48939
3126.20298	5.41229
3124.27441	5.33191
3122.34585	5.25333
3120.41729	5.17649
3118.48872	5.10902
3116.56016	5.05293
3114.63159	4.99391
3112.70303	4.92682
3110.77446	4.85748
3108.84590	4.78722
3106.91733	4.71577
3104.98877	4.64512
3103.06021	4.57883
3101.13164	4.51461
3099.20308	4.45003
3097.27451	4.38789
3095.34595	4.32908
3093.41738	4.26965
3091.48882	4.20627
3089.56025	4.14203
3087.63169	4.07986
3085.70312	4.01941
3083.77456	3.95958
3081.84600	3.89939
3079.91743	3.83907
3077.98887	3.77962
3076.06030	3.72122
3074.13174	3.66376
3072.20317	3.60810
3070.27461	3.55387
3068.34604	3.49985
3066.41748	3.44570
3064.48892	3.39124
3062.56035	3.33658
3060.63179	3.28256
3058.70322	3.22954
3056.77466	3.17709
3054.84609	3.12545
3052.91753	3.07503
3050.98896	3.02547
3049.06040	2.97616
3047.13184	2.92722
3045.20327	2.87882
3043.27471	2.83069
3041.34614	2.78320
3039.41758	2.73659
3037.48901	2.69032
3035.56045	2.64528
3033.63188	2.60134
3031.70332	2.55633
3029.77476	2.51112
3027.84619	2.46785
3025.91763	2.42617
3023.98906	2.38508
3022.06050	2.34395
3020.13193	2.30286
3018.20337	2.26285
3016.27480	2.22468
3014.34624	2.18744
3012.41768	2.14975
3010.48911	2.11138
3008.56055	2.07374
3006.63198	2.03786
3004.70342	2.00307
3002.77485	1.96873
3000.84629	1.93508
2998.91772	1.90211
2996.98916	1.86962
2995.06060	1.83816
2993.13203	1.80786
2991.20347	1.77826
2989.27490	1.74941
2987.34634	1.72090
2985.41777	1.69274
2983.48921	1.66575
2981.56064	1.63971
2979.63208	1.61394
2977.70352	1.58858
2975.77495	1.56414
2973.84639	1.54039
2971.91782	1.51708
2969.98926	1.49445
2968.06069	1.47171
2966.13213	1.44836
2964.20356	1.42542
2962.27500	1.40328
2960.34644	1.38114
2958.41787	1.35842
2956.48931	1.33510
2954.56074	1.31201
2952.63218	1.28946
2950.70361	1.26670
2948.77505	1.24357
2946.84648	1.22097
2944.91792	1.19971
2942.98936	1.17968
2941.06079	1.16038
2939.13223	1.14143
2937.20366	1.12259
2935.27510	1.10385
2933.34653	1.08491
2931.41797	1.06556
2929.48940	1.04633
2927.56084	1.02753
2925.63228	1.00915
2923.70371	0.99113
2921.77515	0.97315
2919.84658	0.95550
2917.91802	0.93834
2915.98945	0.92122
2914.06089	0.90430
2912.13232	0.88785
2910.20376	0.87167
2908.27520	0.85604
2906.34663	0.84105
2904.41807	0.82623
2902.48950	0.81189
2900.56094	0.79828
2898.63237	0.78467
2896.70381	0.77085
2894.77524	0.75770
2892.84668	0.74537
2890.91812	0.73324
2888.98955	0.72149
2887.06099	0.71060
2885.13242	0.70042
2883.20386	0.69069
2881.27529	0.68120
2879.34673	0.67162
2877.41816	0.66207
2875.48960	0.65272
2873.56104	0.64316
2871.63247	0.63293
2869.70391	0.62206
2867.77534	0.61075
2865.84678	0.59898
2863.91821	0.58694
2861.98965	0.57523
2860.06108	0.56428
2858.13252	0.55394
2856.20396	0.54396
2854.27539	0.53423
2852.34683	0.52475
2850.41826	0.51570
2848.48970	0.50698
2846.56113	0.49855
2844.63257	0.49075
2842.70400	0.48354
2840.77544	0.47670
2838.84687	0.47016
2836.91831	0.46385
2834.98975	0.45774
2833.06118	0.45172
2831.13262	0.44552
2829.20405	0.43914
2827.27549	0.43295
2825.34692	0.42690
2823.41836	0.42070
2821.48979	0.41454
2819.56123	0.40865
2817.63267	0.40293
2815.70410	0.39732
2813.77554	0.39189
2811.84697	0.38639
2809.91841	0.38060
2807.98984	0.37491
2806.06128	0.36961
2804.13271	0.36450
2802.20415	0.35943
2800.27559	0.35446
2798.34702	0.34968
2796.41846	0.34498
2794.48989	0.34010
2792.56133	0.33509
2790.63276	0.33029
2788.70420	0.32585
2786.77563	0.32150
2784.84707	0.31704
2782.91851	0.31274
2780.98994	0.30866
2779.06138	0.30459
2777.13281	0.30060
2775.20425	0.29674
2773.27568	0.29292
2771.34712	0.28910
2769.41855	0.28535
2767.48999	0.28176
2765.56143	0.27826
2763.63286	0.27474
2761.70430	0.27128
2759.77573	0.26799
2757.84717	0.26478
2755.91860	0.26158
2753.99004	0.25847
2752.06147	0.25548
2750.13291	0.25259
2748.20435	0.24964
2746.27578	0.24660
2744.34722	0.24363
2742.41865	0.24084
2740.49009	0.23821
2738.56152	0.23569
2736.63296	0.23320
2734.70439	0.23070
2732.77583	0.22813
2730.84727	0.22553
2728.91870	0.22306
2726.99014	0.22082
2725.06157	0.21865
2723.13301	0.21648
2721.20444	0.21434
2719.27588	0.21230
2717.34731	0.21038
2715.41875	0.20844
2713.49019	0.20644
2711.56162	0.20444
2709.63306	0.20252
2707.70449	0.20070
2705.77593	0.19894
2703.84736	0.19708
2701.91880	0.19535
2699.99023	0.19395
2698.06167	0.19264
2696.13311	0.19124
2694.20454	0.18985
2692.27598	0.18848
2690.34741	0.18707
2688.41885	0.18561
2686.49028	0.18426
2684.56172	0.18316
2682.63315	0.18205
2680.70459	0.18076
2678.77603	0.17945
2676.84746	0.17824
2674.91890	0.17717
2672.99033	0.17615
2671.06177	0.17502
2669.13320	0.17391
2667.20464	0.17298
2665.27607	0.17215
2663.34751	0.17116
2661.41895	0.16998
2659.49038	0.16894
2657.56182	0.16825
2655.63325	0.16761
2653.70469	0.16677
2651.77612	0.16580
2649.84756	0.16489
2647.91899	0.16415
2645.99043	0.16353
2644.06187	0.16294
2642.13330	0.16243
2640.20474	0.16200
2638.27617	0.16150
2636.34761	0.16081
2634.41904	0.16009
2632.49048	0.15969
2630.56191	0.15945
2628.63335	0.15896
2626.70479	0.15836
2624.77622	0.15801
2622.84766	0.15784
2620.91909	0.15749
2618.99053	0.15696
2617.06196	0.15658
2615.13340	0.15636
2613.20483	0.15613
2611.27627	0.15587
2609.34771	0.15566
2607.41914	0.15551
2605.49058	0.15533
2603.56201	0.15510
2601.63345	0.15494
2599.70488	0.15486
2597.77632	0.15481
2595.84775	0.15479
2593.91919	0.15485
2591.99062	0.15498
2590.06206	0.15499
2588.13350	0.15483
2586.20493	0.15484
2584.27637	0.15517
2582.34780	0.15552
2580.41924	0.15564
2578.49067	0.15566
2576.56211	0.15585
2574.63354	0.15622
2572.70498	0.15661
2570.77642	0.15691
2568.84785	0.15710
2566.91929	0.15726
2564.99072	0.15747
2563.06216	0.15768
2561.13359	0.15796
2559.20503	0.15838
2557.27646	0.15887
2555.34790	0.15936
2553.41934	0.15979
2551.49077	0.16021
2549.56221	0.16070
2547.63364	0.16122
2545.70508	0.16172
2543.77651	0.16228
2541.84795	0.16292
2539.91938	0.16351
2537.99082	0.16404
2536.06226	0.16457
2534.13369	0.16501
2532.20513	0.16536
2530.27656	0.16581
2528.34800	0.16651
2526.41943	0.16730
2524.49087	0.16797
2522.56230	0.16859
2520.63374	0.16933
2518.70518	0.17014
2516.77661	0.17091
2514.84805	0.17156
2512.91948	0.17205
2510.99092	0.17252
2509.06235	0.17322
2507.13379	0.17405
2505.20522	0.17480
2503.27666	0.17553
2501.34810	0.17641
2499.41953	0.17738
2497.49097	0.17816
2495.56240	0.17880
2493.63384	0.17957
2491.70527	0.18044
2489.77671	0.18120
2487.84814	0.18192
2485.91958	0.18267
2483.99102	0.18335
2482.06245	0.18399
2480.13389	0.18477
2478.20532	0.18576
2476.27676	0.18678
2474.34819	0.18756
2472.41963	0.18820
2470.49106	0.18893
2468.56250	0.18980
2466.63394	0.19067
2464.70537	0.19151
2462.77681	0.19239
2460.84824	0.19333
2458.91968	0.19424
2456.99111	0.19513
2455.06255	0.19607
2453.13398	0.19703
2451.20542	0.19799
2449.27686	0.19884
2447.34829	0.19967
2445.41973	0.20066
2443.49116	0.20177
2441.56260	0.20278
2439.63403	0.20362
2437.70547	0.20434
2435.77690	0.20513
2433.84834	0.20615
2431.91978	0.20730
2429.99121	0.20840
2428.06265	0.20940
2426.13408	0.21026
2424.20552	0.21107
2422.27695	0.21201
2420.34839	0.21308
2418.41982	0.21414
2416.49126	0.21523
2414.56270	0.21639
2412.63413	0.21754
2410.70557	0.21871
2408.77700	0.21990
2406.84844	0.22092
2404.91987	0.22187
2402.99131	0.22294
2401.06274	0.22410
2399.13418	0.22529
2397.20562	0.22644
2395.27705	0.22758
2393.34849	0.22880
2391.41992	0.23003
2389.49136	0.23116
2387.56279	0.23209
2385.63423	0.23270
2383.70566	0.23295
2381.77710	0.23276
2379.84854	0.23216
2377.91997	0.23135
2375.99141	0.23033
2374.06284	0.22882
2372.13428	0.22650
2370.20571	0.22343
2368.27715	0.21992
2366.34858	0.21650
2364.42002	0.21363
2362.49146	0.21223
2360.56289	0.21353
2358.63433	0.21690
2356.70576	0.22141
2354.77720	0.22703
2352.84863	0.23341
2350.92007	0.23916
2348.99150	0.24272
2347.06294	0.24371
2345.13437	0.24250
2343.20581	0.24058
2341.27725	0.24035
2339.34868	0.24194
2337.42012	0.24411
2335.49155	0.24655
2333.56299	0.24910
2331.63442	0.25184
2329.70586	0.25486
2327.77729	0.25761
2325.84873	0.26024
2323.92017	0.26319
2321.99160	0.26613
2320.06304	0.26928
2318.13447	0.27302
2316.20591	0.27650
2314.27734	0.27908
2312.34878	0.28125
2310.42021	0.28363
2308.49165	0.28638
2306.56309	0.28934
2304.63452	0.29206
2302.70596	0.29423
2300.77739	0.29634
2298.84883	0.29871
2296.92026	0.30101
2294.99170	0.30317
2293.06313	0.30549
2291.13457	0.30797
2289.20601	0.31040
2287.27744	0.31266
2285.34888	0.31483
2283.42031	0.31694
2281.49175	0.31888
2279.56318	0.32078
2277.63462	0.32274
2275.70605	0.32462
2273.77749	0.32647
2271.84893	0.32846
2269.92036	0.33062
2267.99180	0.33281
2266.06323	0.33491
2264.13467	0.33699
2262.20610	0.33915
2260.27754	0.34136
2258.34897	0.34360
2256.42041	0.34574
2254.49185	0.34772
2252.56328	0.34972
2250.63472	0.35186
2248.70615	0.35408
2246.77759	0.35631
2244.84902	0.35851
2242.92046	0.36071
2240.99189	0.36297
2239.06333	0.36520
2237.13477	0.36727
2235.20620	0.36934
2233.27764	0.37157
2231.34907	0.37385
2229.42051	0.37611
2227.49194	0.37829
2225.56338	0.38035
2223.63481	0.38244
2221.70625	0.38463
2219.77769	0.38686
2217.84912	0.38901
2215.92056	0.39112
2213.99199	0.39338
2212.06343	0.39568
2210.13486	0.39781
2208.20630	0.39991
2206.27773	0.40202
2204.34917	0.40399
2202.42061	0.40580
2200.49204	0.40764
2198.56348	0.40971
2196.63491	0.41186
2194.70635	0.41383
2192.77778	0.41554
2190.84922	0.41717
2188.92065	0.41894
2186.99209	0.42080
2185.06353	0.42257
2183.13496	0.42425
2181.20640	0.42592
2179.27783	0.42753
2177.34927	0.42912
2175.42070	0.43079
2173.49214	0.43242
2171.56357	0.43383
2169.63501	0.43512
2167.70645	0.43640
2165.77788	0.43765
2163.84932	0.43891
2161.92075	0.44005
2159.99219	0.44113
2158.06362	0.44229
2156.13506	0.44346
2154.20649	0.44446
2152.27793	0.44528
2150.34937	0.44590
2148.42080	0.44636
2146.49224	0.44688
2144.56367	0.44755
2142.63511	0.44818
2140.70654	0.44861
2138.77798	0.44884
2136.84941	0.44894
2134.92085	0.44906
2132.99229	0.44915
2131.06372	0.44909
2129.13516	0.44893
2127.20659	0.44873
2125.27803	0.44847
2123.34946	0.44819
2121.42090	0.44785
2119.49233	0.44746
2117.56377	0.44698
2115.63521	0.44630
2113.70664	0.44550
2111.77808	0.44462
2109.84951	0.44370
2107.92095	0.44282
2105.99238	0.44180
2104.06382	0.44060
2102.13525	0.43934
2100.20669	0.43809
2098.27812	0.43680
2096.34956	0.43545
2094.42100	0.43400
2092.49243	0.43243
2090.56387	0.43078
2088.63530	0.42910
2086.70674	0.42734
2084.77817	0.42551
2082.84961	0.42368
2080.92104	0.42180
2078.99248	0.41986
2077.06392	0.41792
2075.13535	0.41596
2073.20679	0.41395
2071.27822	0.41190
2069.34966	0.40978
2067.42109	0.40759
2065.49253	0.40538
2063.56396	0.40303
2061.63540	0.40056
2059.70684	0.39810
2057.77827	0.39574
2055.84971	0.39341
2053.92114	0.39094
2051.99258	0.38842
2050.06401	0.38587
2048.13545	0.38326
2046.20688	0.38062
2044.27832	0.37800
2042.34976	0.37535
2040.42119	0.37269
2038.49263	0.37010
2036.56406	0.36753
2034.63550	0.36490
2032.70693	0.36215
2030.77837	0.35928
2028.84980	0.35648
2026.92124	0.35382
2024.99268	0.35113
2023.06411	0.34843
2021.13555	0.34576
2019.20698	0.34308
2017.27842	0.34035
2015.34985	0.33750
2013.42129	0.33466
2011.49272	0.33194
2009.56416	0.32939
2007.63560	0.32695
2005.70703	0.32449
2003.77847	0.32187
2001.84990	0.31918
1999.92134	0.31655
1997.99277	0.31395
1996.06421	0.31139
1994.13564	0.30892
1992.20708	0.30644
1990.27852	0.30391
1988.34995	0.30144
1986.42139	0.29903
1984.49282	0.29672
1982.56426	0.29447
1980.63569	0.29219
1978.70713	0.28995
1976.77856	0.28776
1974.85000	0.28555
1972.92144	0.28334
1970.99287	0.28124
1969.06431	0.27922
1967.13574	0.27718
1965.20718	0.27521
1963.27861	0.27336
1961.35005	0.27155
1959.42148	0.26972
1957.49292	0.26777
1955.56436	0.26575
1953.63579	0.26391
1951.70723	0.26220
1949.77866	0.26054
1947.85010	0.25895
1945.92153	0.25742
1943.99297	0.25591
1942.06440	0.25445
1940.13584	0.25305
1938.20728	0.25164
1936.27871	0.25029
1934.35015	0.24905
1932.42158	0.24785
1930.49302	0.24666
1928.56445	0.24557
1926.63589	0.24446
1924.70732	0.24330
1922.77876	0.24222
1920.85020	0.24127
1918.92163	0.24031
1916.99307	0.23933
1915.06450	0.23853
1913.13594	0.23782
1911.20737	0.23710
1909.27881	0.23635
1907.35024	0.23576
1905.42168	0.23525
1903.49312	0.23468
1901.56455	0.23410
1899.63599	0.23359
1897.70742	0.23311
1895.77886	0.23255
1893.85029	0.23204
1891.92173	0.23157
1889.99316	0.23124
1888.06460	0.23108
1886.13604	0.23097
1884.20747	0.23082
1882.27891	0.23064
1880.35034	0.23048
1878.42178	0.23039
1876.49321	0.23038
1874.56465	0.23034
1872.63608	0.23031
1870.70752	0.23017
1868.77896	0.23015
1866.85039	0.23047
1864.92183	0.23085
1862.99326	0.23115
1861.06470	0.23144
1859.13613	0.23183
1857.20757	0.23221
1855.27900	0.23267
1853.35044	0.23314
1851.42187	0.23361
1849.49331	0.23400
1847.56475	0.23432
1845.63618	0.23464
1843.70762	0.23532
1841.77905	0.23651
1839.85049	0.23751
1837.92192	0.23835
1835.99336	0.23913
1834.06479	0.23995
1832.13623	0.24071
1830.20767	0.24168
1828.27910	0.24296
1826.35054	0.24419
1824.42197	0.24567
1822.49341	0.24727
1820.56484	0.24874
1818.63628	0.25009
1816.70771	0.25157
1814.77915	0.25310
1812.85059	0.25466
1810.92202	0.25649
1808.99346	0.25860
1807.06489	0.26071
1805.13633	0.26260
1803.20776	0.26454
1801.27920	0.26672
1799.35063	0.26941
1797.42207	0.27203
1795.49351	0.27434
1793.56494	0.27670
1791.63638	0.28001
1789.70781	0.28385
1787.77925	0.28690
1785.85068	0.29000
1783.92212	0.29341
1781.99355	0.29701
1780.06499	0.30096
1778.13643	0.30526
1776.20786	0.30916
1774.27930	0.31290
1772.35073	0.31803
1770.42217	0.32435
1768.49360	0.33020
1766.56504	0.33576
1764.63647	0.34106
1762.70791	0.34648
1760.77935	0.35358
1758.85078	0.36060
1756.92222	0.36762
1754.99365	0.37527
1753.06509	0.38197
1751.13652	0.38953
1749.20796	0.39941
1747.27939	0.40993
1745.35083	0.41932
1743.42227	0.42895
1741.49370	0.43936
1739.56514	0.45159
1737.63657	0.46397
1735.70801	0.47448
1733.77944	0.48995
1731.85088	0.50955
1729.92231	0.52582
1727.99375	0.54193
1726.06519	0.55863
1724.13662	0.57638
1722.20806	0.59560
1720.27949	0.61325
1718.35093	0.63333
1716.42236	0.66367
1714.49380	0.69429
1712.56523	0.71981
1710.63667	0.74406
1708.70811	0.76954
1706.77954	0.79814
1704.85098	0.83278
1702.92241	0.86418
1700.99385	0.89507
1699.06528	0.94142
1697.13672	0.98523
1695.20815	1.03152
1693.27959	1.07692
1691.35103	1.11324
1689.42246	1.15492
1687.49390	1.19900
1685.56533	1.24116
1683.63677	1.30761
1681.70820	1.37880
1679.77964	1.42428
1677.85107	1.46659
1675.92251	1.51495
1673.99395	1.57544
1672.06538	1.63030
1670.13682	1.68512
1668.20825	1.75767
1666.27969	1.81766
1664.35112	1.86833
1662.42256	1.93303
1660.49399	2.00822
1658.56543	2.06779
1656.63687	2.11604
1654.70830	2.15865
1652.77974	2.21778
1650.85117	2.27407
1648.92261	2.29500
1646.99404	2.31751
1645.06548	2.34208
1643.13691	2.36085
1641.20835	2.37063
1639.27979	2.37675
1637.35122	2.37794
1635.42266	2.37185
1633.49409	2.35948
1631.56553	2.34381
1629.63696	2.32454
1627.70840	2.29157
1625.77983	2.25280
1623.85127	2.20638
1621.92271	2.15198
1619.99414	2.10414
1618.06558	2.05614
1616.13701	1.98681
1614.20845	1.91782
1612.27988	1.86604
1610.35132	1.81162
1608.42275	1.75272
1606.49419	1.69544
1604.56562	1.64311
1602.63706	1.59265
1600.70850	1.54374
1598.77993	1.49950
1596.85137	1.45834
1594.92280	1.41811
1592.99424	1.37914
1591.06567	1.34384
1589.13711	1.31184
1587.20854	1.28306
1585.27998	1.25667
1583.35142	1.23192
1581.42285	1.20964
1579.49429	1.19105
1577.56572	1.17469
1575.63716	1.15612
1573.70859	1.14125
1571.78003	1.13192
1569.85146	1.12293
1567.92290	1.11458
1565.99434	1.10932
1564.06577	1.10631
1562.13721	1.10469
1560.20864	1.10493
1558.28008	1.11201
1556.35151	1.12196
1554.42295	1.12790
1552.49438	1.13338
1550.56582	1.13660
1548.63726	1.13645
1546.70869	1.13270
1544.78013	1.12421
1542.85156	1.11085
1540.92300	1.09009
1538.99443	1.05842
1537.06587	1.03616
1535.13730	1.02037
1533.20874	0.99786
1531.28018	0.97363
1529.35161	0.95606
1527.42305	0.93897
1525.49448	0.92095
1523.56592	0.90604
1521.63735	0.89298
1519.70879	0.88080
1517.78022	0.87005
1515.85166	0.85668
1513.92310	0.84262
1511.99453	0.83023
1510.06597	0.81846
1508.13740	0.80622
1506.20884	0.78830
1504.28027	0.77456
1502.35171	0.76714
1500.42314	0.76007
1498.49458	0.75215
1496.56602	0.74306
1494.63745	0.73450
1492.70889	0.72784
1490.78032	0.72138
1488.85176	0.71404
1486.92319	0.70813
1484.99463	0.70393
1483.06606	0.70043
1481.13750	0.69740
1479.20894	0.69535
1477.28037	0.69453
1475.35181	0.69430
1473.42324	0.69440
1471.49468	0.69472
1469.56611	0.69434
1467.63755	0.69292
1465.70898	0.69123
1463.78042	0.69028
1461.85186	0.69032
1459.92329	0.69055
1457.99473	0.69078
1456.06616	0.69105
1454.13760	0.69028
1452.20903	0.68863
1450.28047	0.68648
1448.35190	0.68412
1446.42334	0.68165
1444.49478	0.67921
1442.56621	0.67662
1440.63765	0.67371
1438.70908	0.67052
1436.78052	0.66646
1434.85195	0.66213
1432.92339	0.65901
1430.99482	0.65695
1429.06626	0.65590
1427.13770	0.65572
1425.20913	0.65619
1423.28057	0.65733
1421.35200	0.65837
1419.42344	0.65890
1417.49487	0.65922
1415.56631	0.65909
1413.63774	0.65898
1411.70918	0.65950
1409.78062	0.66092
1407.85205	0.66297
1405.92349	0.66528
1403.99492	0.66738
1402.06636	0.66834
1400.13779	0.66795
1398.20923	0.66627
1396.28066	0.66350
1394.35210	0.65976
1392.42354	0.65535
1390.49497	0.65087
1388.56641	0.64601
1386.63784	0.64031
1384.70928	0.63442
1382.78071	0.62890
1380.85215	0.62368
1378.92358	0.61916
1376.99502	0.61565
1375.06646	0.61316
1373.13789	0.61172
1371.20933	0.61105
1369.28076	0.61042
1367.35220	0.60925
1365.42363	0.60754
1363.49507	0.60556
1361.56650	0.60365
1359.63794	0.60211
1357.70937	0.60079
1355.78081	0.59958
1353.85225	0.59855
1351.92368	0.59763
1349.99512	0.59683
1348.06655	0.59609
1346.13799	0.59522
1344.20942	0.59435
1342.28086	0.59355
1340.35229	0.59274
1338.42373	0.59213
1336.49517	0.59189
1334.56660	0.59189
1332.63804	0.59205
1330.70947	0.59232
1328.78091	0.59277
1326.85234	0.59357
1324.92378	0.59465
1322.99521	0.59586
1321.06665	0.59691
1319.13809	0.59780
1317.20952	0.59854
1315.28096	0.59881
1313.35239	0.59847
1311.42383	0.59796
1309.49526	0.59748
1307.56670	0.59707
1305.63813	0.59684
1303.70957	0.59655
1301.78101	0.59588
1299.85244	0.59485
1297.92388	0.59368
1295.99531	0.59248
1294.06675	0.59134
1292.13818	0.59019
1290.20962	0.58887
1288.28105	0.58737
1286.35249	0.58586
1284.42393	0.58440
1282.49536	0.58288
1280.56680	0.58142
1278.63823	0.58005
1276.70967	0.57865
1274.78110	0.57727
1272.85254	0.57617
1270.92397	0.57542
1268.99541	0.57475
1267.06685	0.57393
1265.13828	0.57302
1263.20972	0.57219
1261.28115	0.57140
1259.35259	0.57059
1257.42402	0.56972
1255.49546	0.56899
1253.56689	0.56873
1251.63833	0.56888
1249.70977	0.56915
1247.78120	0.56929
1245.85264	0.56906
1243.92407	0.56832
1241.99551	0.56725
1240.06694	0.56589
1238.13838	0.56401
1236.20981	0.56157
1234.28125	0.55882
1232.35269	0.55610
1230.42412	0.55361
1228.49556	0.55127
1226.56699	0.54901
1224.63843	0.54689
1222.70986	0.54481
1220.78130	0.54279
1218.85273	0.54099
1216.92417	0.53951
1214.99561	0.53827
1213.06704	0.53721
1211.13848	0.53636
1209.20991	0.53567
1207.28135	0.53510
1205.35278	0.53442
1203.42422	0.53349
1201.49565	0.53250
1199.56709	0.53154
1197.63853	0.53054
1195.70996	0.52959
1193.78140	0.52886
1191.85283	0.52832
1189.92427	0.52784
1187.99570	0.52742
1186.06714	0.52716
1184.13857	0.52721
1182.21001	0.52775
1180.28145	0.52882
1178.35288	0.53029
1176.42432	0.53198
1174.49575	0.53359
1172.56719	0.53473
1170.63862	0.53513
1168.71006	0.53505
1166.78149	0.53488
1164.85293	0.53480
1162.92437	0.53483
1160.99580	0.53484
1159.06724	0.53467
1157.13867	0.53424
1155.21011	0.53347
1153.28154	0.53230
1151.35298	0.53070
1149.42441	0.52856
1147.49585	0.52593
1145.56729	0.52315
1143.63872	0.52057
1141.71016	0.51830
1139.78159	0.51647
1137.85303	0.51532
1135.92446	0.51475
1133.99590	0.51460
1132.06733	0.51468
1130.13877	0.51476
1128.21021	0.51468
1126.28164	0.51442
1124.35308	0.51411
1122.42451	0.51387
1120.49595	0.51397
1118.56738	0.51448
1116.63882	0.51520
1114.71025	0.51599
1112.78169	0.51677
1110.85312	0.51745
1108.92456	0.51816
1106.99600	0.51919
1105.06743	0.52054
1103.13887	0.52172
1101.21030	0.52260
1099.28174	0.52370
1097.35317	0.52556
1095.42461	0.52828
1093.49604	0.53170
1091.56748	0.53617
1089.63892	0.54217
1087.71035	0.54957
1085.78179	0.55782
1083.85322	0.56613
1081.92466	0.57359
1079.99609	0.57904
1078.06753	0.58161
1076.13896	0.58119
1074.21040	0.57796
1072.28184	0.57248
1070.35327	0.56566
1068.42471	0.55824
1066.49614	0.55100
1064.56758	0.54460
1062.63901	0.53911
1060.71045	0.53427
1058.78188	0.52988
1056.85332	0.52581
1054.92476	0.52228
1052.99619	0.51935
1051.06763	0.51689
1049.13906	0.51507
1047.21050	0.51409
1045.28193	0.51371
1043.35337	0.51341
1041.42480	0.51288
1039.49624	0.51237
1037.56768	0.51216
1035.63911	0.51198
1033.71055	0.51145
1031.78198	0.51039
1029.85342	0.50882
1027.92485	0.50696
1025.99629	0.50514
1024.06772	0.50369
1022.13916	0.50285
1020.21060	0.50239
1018.28203	0.50196
1016.35347	0.50155
1014.42490	0.50122
1012.49634	0.50091
1010.56777	0.50061
1008.63921	0.50056
1006.71064	0.50105
1004.78208	0.50199
1002.85352	0.50340
1000.92495	0.50557
998.99639	0.50872
997.06782	0.51285
995.13926	0.51734
993.21069	0.52149
991.28213	0.52465
989.35356	0.52647
987.42500	0.52737
985.49644	0.52770
983.56787	0.52753
981.63931	0.52719
979.71074	0.52723
977.78218	0.52815
975.85361	0.53000
973.92505	0.53240
971.99648	0.53503
970.06792	0.53785
968.13936	0.54108
966.21079	0.54499
964.28223	0.54950
962.35366	0.55416
960.42510	0.55880
958.49653	0.56393
956.56797	0.56960
954.63940	0.57541
952.71084	0.58135
950.78228	0.58757
948.85371	0.59381
946.92515	0.59992
944.99658	0.60598
943.06802	0.61199
941.13945	0.61792
939.21089	0.62388
937.28232	0.62993
935.35376	0.63599
933.42520	0.64181
931.49663	0.64727
929.56807	0.65272
927.63950	0.65857
925.71094	0.66476
923.78237	0.67085
921.85381	0.67653
919.92524	0.68199
917.99668	0.68818
916.06812	0.69566
914.13955	0.70360
912.21099	0.71135
910.28242	0.71949
908.35386	0.72804
906.42529	0.73633
904.49673	0.74464
902.56816	0.75378
900.63960	0.76365
898.71104	0.77362
896.78247	0.78335
894.85391	0.79292
892.92534	0.80244
890.99678	0.81193
889.06821	0.82226
887.13965	0.83376
885.21108	0.84520
883.28252	0.85613
881.35396	0.86729
879.42539	0.87875
877.49683	0.88973
875.56826	0.89942
873.63970	0.90872
871.71113	0.91948
869.78257	0.93073
867.85400	0.94174
865.92544	0.95438
863.99687	0.96772
862.06831	0.97949
860.13975	0.99112
858.21118	1.00429
856.28262	1.01674
854.35405	1.02648
852.42549	1.03606
850.49692	1.04810
848.56836	1.06041
846.63979	1.07054
844.71123	1.07999
842.78267	1.09082
840.85410	1.10345
838.92554	1.11647
836.99697	1.12935
835.06841	1.14278
833.13984	1.15496
831.21128	1.16450
829.28271	1.17375
827.35415	1.18521
825.42559	1.19841
823.49702	1.20697
821.56846	1.20855
819.63989	1.21614
817.71133	1.23528
815.78276	1.25934
813.85420	1.28677
811.92563	1.31036
809.99707	1.31796
808.06851	1.32191
806.13994	1.33841
804.21138	1.35138
802.28281	1.34832
800.35425	1.33981
798.42568	1.34845
796.49712	1.38458
794.56855	1.39210
792.63999	1.34620
790.71143	1.32886
788.78286	1.36312
786.85430	1.40118
784.92573	1.43673
782.99717	1.45792
781.06860	1.43786
779.14004	1.43253
777.21147	1.48249
775.28291	1.54907
773.35435	1.55352
771.42578	1.55829
769.49722	1.60102
767.56865	1.63521
765.64009	1.59502
763.71152	1.46679
761.78296	1.31329
759.85439	1.21658
757.92583	1.18066
755.99727	1.19730
754.06870	1.23731
752.14014	1.27467
750.21157	1.29010
748.28301	1.26014
746.35444	1.19181
744.42588	1.13051
742.49731	1.07358
740.56875	1.01692
738.64019	1.03865
736.71162	1.08724
734.78306	0.90274
732.85449	0.73851
730.92593	0.72071
728.99736	0.65613
727.06880	0.44430
725.14023	0.25525
723.21167	0.14315
721.28311	0.10644
719.35454	0.08681
717.42598	-0.00885
715.49741	-0.05974
713.56885	-0.00350
711.64028	0.02608
709.71172	-0.12022
707.78315	-0.24916
705.85459	-0.08263
703.92603	0.21207
701.99746	0.28655
700.06890	0.27956
698.14033	0.30310
696.21177	0.29348
694.28320	0.23786
692.35464	0.14533
690.42607	0.10209
688.49751	0.13996
686.56895	0.13365
684.64038	0.05628
682.71182	0.01018
680.78325	0.06338
678.85469	0.16051
676.92612	0.22797
674.99756	0.31389
673.06899	0.57530
671.14043	0.76046
669.21187	0.57831
667.28330	0.46510
665.35474	0.39371
663.42617	0.32360
661.49761	0.32141
659.56904	0.33867
657.64048	0.29201
655.71191	0.22724
653.78335	0.18763
651.85479	0.18615
649.92622	0.21023
647.99766	0.20015
646.06909	0.17721
644.14053	0.19154
642.21196	0.21461
640.28340	0.20141
638.35483	0.17455
636.42627	0.15781
634.49771	0.12488
632.56914	0.14224
630.64058	0.28814
628.71201	0.42314
626.78345	0.31445
624.85488	0.17307
622.92632	0.20467
620.99775	0.32930
619.06919	0.39558
617.14062	0.37435
615.21206	0.30018
613.28350	0.24414
611.35493	0.22758
609.42637	0.20935
607.49780	0.18134
605.56924	0.18955
603.64067	0.22830
601.71211	0.17725
599.78354	0.14451
597.85498	0.20400
595.92642	0.27535
593.99785	0.30239
592.06929	0.27737
590.14072	0.18426
588.21216	0.09177
586.28359	0.08101
584.35503	0.22196
582.42646	0.36719
580.49790	0.31466
578.56934	0.25717
576.64077	0.24016
574.71221	0.19644
572.78364	0.16937
570.85508	0.20139
568.92651	0.26011
566.99795	0.29045
565.06938	0.32131
563.14082	0.31161
561.21226	0.26710
559.28369	0.25082
557.35513	0.22209
555.42656	0.19408
553.49800	0.24979
551.56943	0.34085
549.64087	0.30629
547.71230	0.24754
545.78374	0.25187
543.85518	0.27077
541.92661	0.23891
539.99805	0.22649
538.06948	0.27618
536.14092	0.27786
534.21235	0.22696
532.28379	0.18073
530.35522	0.17255
528.42666	0.22104
526.49810	0.26056
524.56953	0.22836
522.64097	0.17239
520.71240	0.14682
518.78384	0.19195
516.85527	0.23199
514.92671	0.22636
512.99814	0.19618
511.06958	0.18234
509.14102	0.19229
507.21245	0.17726
505.28389	0.13732
503.35532	0.13747
501.42676	0.19058
499.49819	0.25616
