3997.91411	0.06597
3995.98555	0.06633
3994.05698	0.06698
3992.12842	0.06747
3990.19985	0.06770
3988.27129	0.06761
3986.34272	0.06759
3984.41416	0.06780
3982.48560	0.06786
3980.55703	0.06786
3978.62847	0.06799
3976.69990	0.06842
3974.77134	0.06929
3972.84277	0.07008
3970.91421	0.07026
3968.98564	0.07006
3967.05708	0.06979
3965.12852	0.06954
3963.19995	0.06953
3961.27139	0.06985
3959.34282	0.07027
3957.41426	0.07039
3955.48569	0.07013
3953.55713	0.06993
3951.62856	0.07042
3949.70000	0.07128
3947.77144	0.07154
3945.84287	0.07125
3943.91431	0.07124
3941.98574	0.07149
3940.05718	0.07131
3938.12861	0.07085
3936.20005	0.07058
3934.27148	0.07067
3932.34292	0.07131
3930.41436	0.07207
3928.48579	0.07189
3926.55723	0.07113
3924.62866	0.07097
3922.70010	0.07102
3920.77153	0.07057
3918.84297	0.07037
3916.91440	0.07085
3914.98584	0.07106
3913.05728	0.07036
3911.12871	0.06948
3909.20015	0.06947
3907.27158	0.07053
3905.34302	0.07212
3903.41445	0.07386
3901.48589	0.07486
3899.55732	0.07440
3897.62876	0.07286
3895.70020	0.07141
3893.77163	0.07117
3891.84307	0.07179
3889.91450	0.07196
3887.98594	0.07172
3886.05737	0.07238
3884.12881	0.07359
3882.20024	0.07416
3880.27168	0.07426
3878.34312	0.07347
3876.41455	0.07255
3874.48599	0.07309
3872.55742	0.07448
3870.62886	0.07536
3868.70029	0.07563
3866.77173	0.07562
3864.84316	0.07595
3862.91460	0.07633
3860.98604	0.07587
3859.05747	0.07526
3857.12891	0.07554
3855.20034	0.07687
3853.27178	0.07912
3851.34321	0.08077
3849.41465	0.07991
3847.48608	0.07854
3845.55752	0.07811
3843.62896	0.07894
3841.70039	0.08072
3839.77183	0.08262
3837.84326	0.08388
3835.91470	0.08415
3833.98613	0.08391
3832.05757	0.08377
3830.12900	0.08405
3828.20044	0.08461
3826.27187	0.08538
3824.34331	0.08634
3822.41475	0.08769
3820.48618	0.08954
3818.55762	0.09017
3816.62905	0.09016
3814.70049	0.09075
3812.77192	0.09083
3810.84336	0.09081
3808.91479	0.09176
3806.98623	0.09375
3805.05767	0.09566
3803.12910	0.09714
3801.20054	0.09940
3799.27197	0.10115
3797.34341	0.10114
3795.41484	0.10077
3793.48628	0.10049
3791.55771	0.10077
3789.62915	0.10198
3787.70059	0.10388
3785.77202	0.10620
3783.84346	0.10841
3781.91489	0.10993
3779.98633	0.11156
3778.05776	0.11338
3776.12920	0.11414
3774.20063	0.11464
3772.27207	0.11607
3770.34351	0.11863
3768.41494	0.12165
3766.48638	0.12379
3764.55781	0.12548
3762.62925	0.12718
3760.70068	0.12924
3758.77212	0.13232
3756.84355	0.13564
3754.91499	0.13809
3752.98643	0.14083
3751.05786	0.14525
3749.12930	0.14960
3747.20073	0.15136
3745.27217	0.15307
3743.34360	0.15657
3741.41504	0.15952
3739.48647	0.16121
3737.55791	0.16401
3735.62935	0.16942
3733.70078	0.17569
3731.77222	0.17927
3729.84365	0.18160
3727.91509	0.18499
3725.98652	0.19036
3724.05796	0.19723
3722.12939	0.20469
3720.20083	0.21238
3718.27227	0.21981
3716.34370	0.22768
3714.41514	0.23632
3712.48657	0.24640
3710.55801	0.25949
3708.62944	0.27279
3706.70088	0.28338
3704.77231	0.29382
3702.84375	0.30662
3700.91519	0.32359
3698.98662	0.34220
3697.05806	0.35961
3695.12949	0.37817
3693.20093	0.39836
3691.27236	0.42081
3689.34380	0.44998
3687.41523	0.48494
3685.48667	0.51522
3683.55811	0.54155
3681.62954	0.56970
3679.70098	0.60133
3677.77241	0.63491
3675.84385	0.67493
3673.91528	0.72865
3671.98672	0.77199
3670.05815	0.81036
3668.12959	0.86360
3666.20103	0.91174
3664.27246	0.95190
3662.34390	0.99569
3660.41533	1.04311
3658.48677	1.08957
3656.55820	1.13908
3654.62964	1.19458
3652.70107	1.24098
3650.77251	1.28128
3648.84395	1.33775
3646.91538	1.40728
3644.98682	1.45736
3643.05825	1.49515
3641.12969	1.53433
3639.20112	1.57862
3637.27256	1.62393
3635.34399	1.66817
3633.41543	1.71163
3631.48687	1.75099
3629.55830	1.79046
3627.62974	1.84310
3625.70117	1.89336
3623.77261	1.92780
3621.84404	1.96104
3619.91548	1.99985
3617.98691	2.04676
3616.05835	2.09138
3614.12979	2.12866
3612.20122	2.16796
3610.27266	2.20715
3608.34409	2.24596
3606.41553	2.28728
3604.48696	2.32582
3602.55840	2.36085
3600.62983	2.40017
3598.70127	2.44285
3596.77271	2.48225
3594.84414	2.52116
3592.91558	2.56150
3590.98701	2.59911
3589.05845	2.63449
3587.12988	2.67796
3585.20132	2.72707
3583.27275	2.76864
3581.34419	2.80632
3579.41562	2.84702
3577.48706	2.89104
3575.55850	2.93539
3573.62993	2.97934
3571.70137	3.02145
3569.77280	3.06268
3567.84424	3.10736
3565.91567	3.15883
3563.98711	3.20606
3562.05854	3.24625
3560.12998	3.28742
3558.20142	3.33107
3556.27285	3.37717
3554.34429	3.42302
3552.41572	3.46820
3550.48716	3.51264
3548.55859	3.55670
3546.63003	3.60252
3544.70146	3.65150
3542.77290	3.70107
3540.84434	3.74803
3538.91577	3.79320
3536.98721	3.83729
3535.05864	3.88294
3533.13008	3.93217
3531.20151	3.98356
3529.27295	4.03234
3527.34438	4.07820
3525.41582	4.12419
3523.48726	4.17031
3521.55869	4.21715
3519.63013	4.26566
3517.70156	4.31821
3515.77300	4.36861
3513.84443	4.40905
3511.91587	4.44724
3509.98730	4.49619
3508.05874	4.55284
3506.13018	4.60194
3504.20161	4.64562
3502.27305	4.69855
3500.34448	4.75767
3498.41592	4.80777
3496.48735	4.85134
3494.55879	4.89811
3492.63022	4.94638
3490.70166	4.99232
3488.77310	5.03572
3486.84453	5.07776
3484.91597	5.12050
3482.98740	5.16681
3481.05884	5.22240
3479.13027	5.28135
3477.20171	5.33100
3475.27314	5.37275
3473.34458	5.41891
3471.41602	5.47213
3469.48745	5.52342
3467.55889	5.57023
3465.63032	5.61086
3463.70176	5.65022
3461.77319	5.69485
3459.84463	5.74191
3457.91606	5.79110
3455.98750	5.84126
3454.05894	5.88776
3452.13037	5.94168
3450.20181	6.00745
3448.27324	6.06755
3446.34468	6.12032
3444.41611	6.16940
3442.48755	6.21774
3440.55898	6.26586
3438.63042	6.30739
3436.70186	6.34165
3434.77329	6.38539
3432.84473	6.44671
3430.91616	6.50721
3428.98760	6.56754
3427.05903	6.61701
3425.13047	6.65312
3423.20190	6.70575
3421.27334	6.78102
3419.34478	6.85508
3417.41621	6.90688
3415.48765	6.93594
3413.55908	6.95327
3411.63052	6.97367
3409.70195	6.98999
3407.77339	7.01704
3405.84482	7.08118
3403.91626	7.15779
3401.98770	7.20749
3400.05913	7.24327
3398.13057	7.28032
3396.20200	7.30589
3394.27344	7.31304
3392.34487	7.32993
3390.41631	7.41965
3388.48774	7.51787
3386.55918	7.53651
3384.63062	7.55648
3382.70205	7.63714
3380.77349	7.71501
3378.84492	7.74713
3376.91636	7.75189
3374.98779	7.75955
3373.05923	7.79921
3371.13066	7.81706
3369.20210	7.78741
3367.27354	7.75191
3365.34497	7.75525
3363.41641	7.77847
3361.48784	7.81285
3359.55928	7.91787
3357.63071	8.02204
3355.70215	8.04045
3353.77358	8.02514
3351.84502	8.06719
3349.91646	8.13778
3347.98789	8.13573
3346.05933	8.07132
3344.13076	7.99867
3342.20220	7.96845
3340.27363	8.01813
3338.34507	8.09889
3336.41650	8.11338
3334.48794	8.12113
3332.55937	8.16859
3330.63081	8.21397
3328.70225	8.24880
3326.77368	8.25076
3324.84512	8.19917
3322.91655	8.13735
3320.98799	8.12845
3319.05942	8.12658
3317.13086	8.13863
3315.20229	8.22512
3313.27373	8.30692
3311.34517	8.24281
3309.41660	8.12906
3307.48804	8.14201
3305.55947	8.20474
3303.63091	8.21580
3301.70234	8.21970
3299.77378	8.23429
3297.84521	8.28200
3295.91665	8.36563
3293.98809	8.36930
3292.05952	8.32421
3290.13096	8.32980
3288.20239	8.33283
3286.27383	8.31558
3284.34526	8.27669
3282.41670	8.26752
3280.48813	8.34626
3278.55957	8.39077
3276.63101	8.31090
3274.70244	8.23022
3272.77388	8.20196
3270.84531	8.18354
3268.91675	8.17211
3266.98818	8.18212
3265.05962	8.23230
3263.13105	8.21997
3261.20249	8.11598
3259.27393	8.10254
3257.34536	8.17377
3255.41680	8.20612
3253.48823	8.23694
3251.55967	8.25167
3249.63110	8.20819
3247.70254	8.14534
3245.77397	8.06839
3243.84541	8.07166
3241.91685	8.19609
3239.98828	8.24767
3238.05972	8.14850
3236.13115	8.09850
3234.20259	8.17037
3232.27402	8.23908
3230.34546	8.22595
3228.41689	8.14879
3226.48833	8.01382
3224.55977	7.89203
3222.63120	7.85298
3220.70264	7.86977
3218.77407	7.88532
3216.84551	7.87819
3214.91694	7.89048
3212.98838	7.91425
3211.05981	7.91512
3209.13125	7.91875
3207.20269	7.91416
3205.27412	7.90243
3203.34556	7.91079
3201.41699	7.91942
3199.48843	7.87620
3197.55986	7.77884
3195.63130	7.67345
3193.70273	7.57808
3191.77417	7.51351
3189.84561	7.51625
3187.91704	7.54503
3185.98848	7.52425
3184.05991	7.49028
3182.13135	7.45564
3180.20278	7.37708
3178.27422	7.28531
3176.34565	7.20010
3174.41709	7.10971
3172.48853	7.01889
3170.55996	6.93004
3168.63140	6.85675
3166.70283	6.80417
3164.77427	6.75349
3162.84570	6.70500
3160.91714	6.66324
3158.98857	6.60085
3157.06001	6.51756
3155.13145	6.45172
3153.20288	6.39540
3151.27432	6.33200
3149.34575	6.27217
3147.41719	6.21198
3145.48862	6.14713
3143.56006	6.07637
3141.63149	6.00225
3139.70293	5.92742
3137.77437	5.85299
3135.84580	5.78201
3133.91724	5.71513
3131.98867	5.65758
3130.06011	5.59860
3128.13154	5.52021
3126.20298	5.43291
3124.27441	5.35577
3122.34585	5.28843
3120.41729	5.22088
3118.48872	5.15043
3116.56016	5.08145
3114.63159	5.01528
3112.70303	4.95113
3110.77446	4.88530
3108.84590	4.81325
3106.91733	4.73883
3104.98877	4.66596
3103.06021	4.59701
3101.13164	4.53347
3099.20308	4.46981
3097.27451	4.40169
3095.34595	4.33176
3093.41738	4.26515
3091.48882	4.20324
3089.56025	4.14191
3087.63169	4.07847
3085.70312	4.01327
3083.77456	3.94795
3081.84600	3.88546
3079.91743	3.82477
3077.98887	3.76337
3076.06030	3.70212
3074.13174	3.64292
3072.20317	3.58595
3070.27461	3.52884
3068.34604	3.47113
3066.41748	3.41469
3064.48892	3.36025
3062.56035	3.30701
3060.63179	3.25372
3058.70322	3.20022
3056.77466	3.14697
3054.84609	3.09421
3052.91753	3.04171
3050.98896	2.98981
3049.06040	2.93890
3047.13184	2.88856
3045.20327	2.83915
3043.27471	2.79071
3041.34614	2.74250
3039.41758	2.69534
3037.48901	2.65017
3035.56045	2.60569
3033.63188	2.56061
3031.70332	2.51534
3029.77476	2.47091
3027.84619	2.42841
3025.91763	2.38746
3023.98906	2.34624
3022.06050	2.30432
3020.13193	2.26279
3018.20337	2.22229
3016.27480	2.18276
3014.34624	2.14445
3012.41768	2.10736
3010.48911	2.07065
3008.56055	2.03373
3006.63198	1.99699
3004.70342	1.96109
3002.77485	1.92628
3000.84629	1.89249
2998.91772	1.85955
2996.98916	1.82742
2995.06060	1.79580
2993.13203	1.76424
2991.20347	1.73276
2989.27490	1.70194
2987.34634	1.67226
2985.41777	1.64328
2983.48921	1.61454
2981.56064	1.58628
2979.63208	1.55859
2977.70352	1.53115
2975.77495	1.50399
2973.84639	1.47780
2971.91782	1.45258
2969.98926	1.42756
2968.06069	1.40262
2966.13213	1.37797
2964.20356	1.35370
2962.27500	1.32976
2960.34644	1.30580
2958.41787	1.28185
2956.48931	1.25863
2954.56074	1.23656
2952.63218	1.21488
2950.70361	1.19295
2948.77505	1.17115
2946.84648	1.14986
2944.91792	1.12932
2942.98936	1.10946
2941.06079	1.08971
2939.13223	1.06966
2937.20366	1.04964
2935.27510	1.03031
2933.34653	1.01191
2931.41797	0.99417
2929.48940	0.97643
2927.56084	0.95850
2925.63228	0.94100
2923.70371	0.92406
2921.77515	0.90726
2919.84658	0.89099
2917.91802	0.87551
2915.98945	0.86021
2914.06089	0.84478
2912.13232	0.82940
2910.20376	0.81451
2908.27520	0.80040
2906.34663	0.78645
2904.41807	0.77241
2902.48950	0.75884
2900.56094	0.74581
2898.63237	0.73310
2896.70381	0.72078
2894.77524	0.70895
2892.84668	0.69731
2890.91812	0.68547
2888.98955	0.67366
2887.06099	0.66239
2885.13242	0.65169
2883.20386	0.64135
2881.27529	0.63130
2879.34673	0.62137
2877.41816	0.61148
2875.48960	0.60156
2873.56104	0.59149
2871.63247	0.58154
2869.70391	0.57177
2867.77534	0.56183
2865.84678	0.55151
2863.91821	0.54089
2861.98965	0.53037
2860.06108	0.52063
2858.13252	0.51177
2856.20396	0.50309
2854.27539	0.49440
2852.34683	0.48605
2850.41826	0.47793
2848.48970	0.47000
2846.56113	0.46246
2844.63257	0.45514
2842.70400	0.44802
2840.77544	0.44156
2838.84687	0.43563
2836.91831	0.42963
2834.98975	0.42357
2833.06118	0.41764
2831.13262	0.41171
2829.20405	0.40588
2827.27549	0.40014
2825.34692	0.39433
2823.41836	0.38850
2821.48979	0.38265
2819.56123	0.37682
2817.63267	0.37122
2815.70410	0.36585
2813.77554	0.36061
2811.84697	0.35540
2809.91841	0.35015
2807.98984	0.34498
2806.06128	0.33993
2804.13271	0.33491
2802.20415	0.33009
2800.27559	0.32545
2798.34702	0.32077
2796.41846	0.31617
2794.48989	0.31170
2792.56133	0.30738
2790.63276	0.30326
2788.70420	0.29913
2786.77563	0.29486
2784.84707	0.29061
2782.91851	0.28646
2780.98994	0.28251
2779.06138	0.27891
2777.13281	0.27545
2775.20425	0.27190
2773.27568	0.26839
2771.34712	0.26495
2769.41855	0.26148
2767.48999	0.25797
2765.56143	0.25440
2763.63286	0.25097
2761.70430	0.24800
2759.77573	0.24515
2757.84717	0.24210
2755.91860	0.23911
2753.99004	0.23629
2752.06147	0.23357
2750.13291	0.23088
2748.20435	0.22815
2746.27578	0.22544
2744.34722	0.22283
2742.41865	0.22040
2740.49009	0.21812
2738.56152	0.21580
2736.63296	0.21332
2734.70439	0.21086
2732.77583	0.20861
2730.84727	0.20657
2728.91870	0.20450
2726.99014	0.20230
2725.06157	0.20016
2723.13301	0.19819
2721.20444	0.19636
2719.27588	0.19456
2717.34731	0.19265
2715.41875	0.19058
2713.49019	0.18857
2711.56162	0.18687
2709.63306	0.18535
2707.70449	0.18380
2705.77593	0.18223
2703.84736	0.18069
2701.91880	0.17912
2699.99023	0.17764
2698.06167	0.17635
2696.13311	0.17506
2694.20454	0.17369
2692.27598	0.17236
2690.34741	0.17101
2688.41885	0.16963
2686.49028	0.16836
2684.56172	0.16714
2682.63315	0.16583
2680.70459	0.16452
2678.77603	0.16343
2676.84746	0.16253
2674.91890	0.16165
2672.99033	0.16068
2671.06177	0.15966
2669.13320	0.15867
2667.20464	0.15780
2665.27607	0.15699
2663.34751	0.15609
2661.41895	0.15502
2659.49038	0.15395
2657.56182	0.15316
2655.63325	0.15257
2653.70469	0.15198
2651.77612	0.15136
2649.84756	0.15073
2647.91899	0.15007
2645.99043	0.14955
2644.06187	0.14920
2642.13330	0.14882
2640.20474	0.14830
2638.27617	0.14774
2636.34761	0.14729
2634.41904	0.14698
2632.49048	0.14660
2630.56191	0.14602
2628.63335	0.14540
2626.70479	0.14512
2624.77622	0.14501
2622.84766	0.14467
2620.91909	0.14431
2618.99053	0.14415
2617.06196	0.14405
2615.13340	0.14397
2613.20483	0.14381
2611.27627	0.14351
2609.34771	0.14325
2607.41914	0.14321
2605.49058	0.14332
2603.56201	0.14343
2601.63345	0.14354
2599.70488	0.14362
2597.77632	0.14365
2595.84775	0.14367
2593.91919	0.14379
2591.99062	0.14403
2590.06206	0.14419
2588.13350	0.14427
2586.20493	0.14442
2584.27637	0.14463
2582.34780	0.14480
2580.41924	0.14493
2578.49067	0.14519
2576.56211	0.14560
2574.63354	0.14605
2572.70498	0.14643
2570.77642	0.14675
2568.84785	0.14710
2566.91929	0.14745
2564.99072	0.14779
2563.06216	0.14820
2561.13359	0.14868
2559.20503	0.14917
2557.27646	0.14970
2555.34790	0.15027
2553.41934	0.15086
2551.49077	0.15143
2549.56221	0.15203
2547.63364	0.15258
2545.70508	0.15302
2543.77651	0.15353
2541.84795	0.15422
2539.91938	0.15483
2537.99082	0.15535
2536.06226	0.15599
2534.13369	0.15676
2532.20513	0.15751
2530.27656	0.15809
2528.34800	0.15860
2526.41943	0.15931
2524.49087	0.16022
2522.56230	0.16111
2520.63374	0.16192
2518.70518	0.16266
2516.77661	0.16336
2514.84805	0.16405
2512.91948	0.16480
2510.99092	0.16563
2509.06235	0.16644
2507.13379	0.16718
2505.20522	0.16792
2503.27666	0.16870
2501.34810	0.16956
2499.41953	0.17044
2497.49097	0.17127
2495.56240	0.17201
2493.63384	0.17278
2491.70527	0.17360
2489.77671	0.17444
2487.84814	0.17531
2485.91958	0.17621
2483.99102	0.17714
2482.06245	0.17809
2480.13389	0.17901
2478.20532	0.17989
2476.27676	0.18082
2474.34819	0.18178
2472.41963	0.18270
2470.49106	0.18367
2468.56250	0.18460
2466.63394	0.18542
2464.70537	0.18625
2462.77681	0.18709
2460.84824	0.18790
2458.91968	0.18879
2456.99111	0.18980
2455.06255	0.19077
2453.13398	0.19166
2451.20542	0.19260
2449.27686	0.19367
2447.34829	0.19473
2445.41973	0.19570
2443.49116	0.19672
2441.56260	0.19775
2439.63403	0.19874
2437.70547	0.19977
2435.77690	0.20080
2433.84834	0.20182
2431.91978	0.20278
2429.99121	0.20366
2428.06265	0.20462
2426.13408	0.20571
2424.20552	0.20685
2422.27695	0.20795
2420.34839	0.20897
2418.41982	0.21007
2416.49126	0.21130
2414.56270	0.21245
2412.63413	0.21356
2410.70557	0.21476
2408.77700	0.21595
2406.84844	0.21711
2404.91987	0.21831
2402.99131	0.21950
2401.06274	0.22067
2399.13418	0.22178
2397.20562	0.22282
2395.27705	0.22403
2393.34849	0.22544
2391.41992	0.22682
2389.49136	0.22801
2387.56279	0.22901
2385.63423	0.22991
2383.70566	0.23077
2381.77710	0.23135
2379.84854	0.23149
2377.91997	0.23117
2375.99141	0.23042
2374.06284	0.22955
2372.13428	0.22866
2370.20571	0.22740
2368.27715	0.22563
2366.34858	0.22386
2364.42002	0.22268
2362.49146	0.22269
2360.56289	0.22449
2358.63433	0.22713
2356.70576	0.22933
2354.77720	0.23272
2352.84863	0.23837
2350.92007	0.24387
2348.99150	0.24687
2347.06294	0.24726
2345.13437	0.24594
2343.20581	0.24482
2341.27725	0.24590
2339.34868	0.24831
2337.42012	0.25026
2335.49155	0.25171
2333.56299	0.25351
2331.63442	0.25625
2329.70586	0.25929
2327.77729	0.26215
2325.84873	0.26492
2323.92017	0.26752
2321.99160	0.27024
2320.06304	0.27309
2318.13447	0.27600
2316.20591	0.27890
2314.27734	0.28147
2312.34878	0.28356
2310.42021	0.28543
2308.49165	0.28741
2306.56309	0.28966
2304.63452	0.29200
2302.70596	0.29412
2300.77739	0.29617
2298.84883	0.29835
2296.92026	0.30058
2294.99170	0.30278
2293.06313	0.30489
2291.13457	0.30691
2289.20601	0.30899
2287.27744	0.31118
2285.34888	0.31350
2283.42031	0.31583
2281.49175	0.31789
2279.56318	0.31973
2277.63462	0.32152
2275.70605	0.32340
2273.77749	0.32538
2271.84893	0.32753
2269.92036	0.32972
2267.99180	0.33165
2266.06323	0.33349
2264.13467	0.33554
2262.20610	0.33775
2260.27754	0.34001
2258.34897	0.34234
2256.42041	0.34463
2254.49185	0.34673
2252.56328	0.34872
2250.63472	0.35086
2248.70615	0.35319
2246.77759	0.35548
2244.84902	0.35762
2242.92046	0.35975
2240.99189	0.36199
2239.06333	0.36424
2237.13477	0.36634
2235.20620	0.36837
2233.27764	0.37053
2231.34907	0.37283
2229.42051	0.37515
2227.49194	0.37743
2225.56338	0.37966
2223.63481	0.38186
2221.70625	0.38406
2219.77769	0.38624
2217.84912	0.38841
2215.92056	0.39064
2213.99199	0.39289
2212.06343	0.39499
2210.13486	0.39694
2208.20630	0.39889
2206.27773	0.40099
2204.34917	0.40319
2202.42061	0.40532
2200.49204	0.40735
2198.56348	0.40926
2196.63491	0.41112
2194.70635	0.41312
2192.77778	0.41521
2190.84922	0.41713
2188.92065	0.41876
2186.99209	0.42036
2185.06353	0.42216
2183.13496	0.42404
2181.20640	0.42581
2179.27783	0.42740
2177.34927	0.42888
2175.42070	0.43034
2173.49214	0.43191
2171.56357	0.43360
2169.63501	0.43515
2167.70645	0.43650
2165.77788	0.43782
2163.84932	0.43911
2161.92075	0.44022
2159.99219	0.44127
2158.06362	0.44228
2156.13506	0.44322
2154.20649	0.44415
2152.27793	0.44503
2150.34937	0.44578
2148.42080	0.44646
2146.49224	0.44700
2144.56367	0.44738
2142.63511	0.44780
2140.70654	0.44833
2138.77798	0.44878
2136.84941	0.44909
2134.92085	0.44931
2132.99229	0.44940
2131.06372	0.44934
2129.13516	0.44913
2127.20659	0.44888
2125.27803	0.44869
2123.34946	0.44846
2121.42090	0.44814
2119.49233	0.44773
2117.56377	0.44718
2115.63521	0.44648
2113.70664	0.44573
2111.77808	0.44492
2109.84951	0.44400
2107.92095	0.44307
2105.99238	0.44214
2104.06382	0.44118
2102.13525	0.44009
2100.20669	0.43882
2098.27812	0.43741
2096.34956	0.43594
2094.42100	0.43439
2092.49243	0.43288
2090.56387	0.43148
2088.63530	0.42990
2086.70674	0.42811
2084.77817	0.42630
2082.84961	0.42455
2080.92104	0.42269
2078.99248	0.42071
2077.06392	0.41870
2075.13535	0.41669
2073.20679	0.41465
2071.27822	0.41245
2069.34966	0.41015
2067.42109	0.40797
2065.49253	0.40587
2063.56396	0.40360
2061.63540	0.40117
2059.70684	0.39876
2057.77827	0.39636
2055.84971	0.39388
2053.92114	0.39137
2051.99258	0.38893
2050.06401	0.38647
2048.13545	0.38392
2046.20688	0.38134
2044.27832	0.37880
2042.34976	0.37623
2040.42119	0.37359
2038.49263	0.37095
2036.56406	0.36827
2034.63550	0.36548
2032.70693	0.36269
2030.77837	0.36008
2028.84980	0.35752
2026.92124	0.35483
2024.99268	0.35199
2023.06411	0.34920
2021.13555	0.34668
2019.20698	0.34431
2017.27842	0.34174
2015.34985	0.33880
2013.42129	0.33587
2011.49272	0.33313
2009.56416	0.33043
2007.63560	0.32774
2005.70703	0.32512
2003.77847	0.32250
2001.84990	0.31978
1999.92134	0.31708
1997.99277	0.31453
1996.06421	0.31213
1994.13564	0.30978
1992.20708	0.30742
1990.27852	0.30494
1988.34995	0.30243
1986.42139	0.29999
1984.49282	0.29766
1982.56426	0.29532
1980.63569	0.29294
1978.70713	0.29056
1976.77856	0.28822
1974.85000	0.28595
1972.92144	0.28382
1970.99287	0.28185
1969.06431	0.28008
1967.13574	0.27829
1965.20718	0.27620
1963.27861	0.27399
1961.35005	0.27193
1959.42148	0.27003
1957.49292	0.26816
1955.56436	0.26625
1953.63579	0.26441
1951.70723	0.26270
1949.77866	0.26115
1947.85010	0.25970
1945.92153	0.25831
1943.99297	0.25697
1942.06440	0.25560
1940.13584	0.25397
1938.20728	0.25226
1936.27871	0.25080
1934.35015	0.24958
1932.42158	0.24846
1930.49302	0.24728
1928.56445	0.24609
1926.63589	0.24498
1924.70732	0.24408
1922.77876	0.24328
1920.85020	0.24235
1918.92163	0.24142
1916.99307	0.24047
1915.06450	0.23930
1913.13594	0.23822
1911.20737	0.23755
1909.27881	0.23702
1907.35024	0.23630
1905.42168	0.23551
1903.49312	0.23489
1901.56455	0.23437
1899.63599	0.23388
1897.70742	0.23344
1895.77886	0.23304
1893.85029	0.23266
1891.92173	0.23235
1889.99316	0.23222
1888.06460	0.23196
1886.13604	0.23157
1884.20747	0.23135
1882.27891	0.23118
1880.35034	0.23097
1878.42178	0.23079
1876.49321	0.23075
1874.56465	0.23075
1872.63608	0.23085
1870.70752	0.23123
1868.77896	0.23200
1866.85039	0.23236
1864.92183	0.23214
1862.99326	0.23205
1861.06470	0.23219
1859.13613	0.23244
1857.20757	0.23275
1855.27900	0.23316
1853.35044	0.23349
1851.42187	0.23389
1849.49331	0.23460
1847.56475	0.23560
1845.63618	0.23672
1843.70762	0.23774
1841.77905	0.23820
1839.85049	0.23837
1837.92192	0.23905
1835.99336	0.24003
1834.06479	0.24100
1832.13623	0.24209
1830.20767	0.24365
1828.27910	0.24516
1826.35054	0.24616
1824.42197	0.24731
1822.49341	0.24843
1820.56484	0.24950
1818.63628	0.25078
1816.70771	0.25236
1814.77915	0.25396
1812.85059	0.25575
1810.92202	0.25792
1808.99346	0.26002
1807.06489	0.26182
1805.13633	0.26354
1803.20776	0.26569
1801.27920	0.26837
1799.35063	0.27134
1797.42207	0.27384
1795.49351	0.27616
1793.56494	0.27906
1791.63638	0.28288
1789.70781	0.28621
1787.77925	0.28844
1785.85068	0.29132
1783.92212	0.29499
1781.99355	0.29904
1780.06499	0.30328
1778.13643	0.30747
1776.20786	0.31139
1774.27930	0.31577
1772.35073	0.32178
1770.42217	0.32811
1768.49360	0.33322
1766.56504	0.33813
1764.63647	0.34326
1762.70791	0.34902
1760.77935	0.35644
1758.85078	0.36346
1756.92222	0.37061
1754.99365	0.37847
1753.06509	0.38560
1751.13652	0.39413
1749.20796	0.40482
1747.27939	0.41511
1745.35083	0.42400
1743.42227	0.43342
1741.49370	0.44385
1739.56514	0.45621
1737.63657	0.46858
1735.70801	0.47935
1733.77944	0.49565
1731.85088	0.51525
1729.92231	0.53053
1727.99375	0.54575
1726.06519	0.56219
1724.13662	0.58040
1722.20806	0.60013
1720.27949	0.61834
1718.35093	0.63989
1716.42236	0.67192
1714.49380	0.70209
1712.56523	0.72629
1710.63667	0.74982
1708.70811	0.77519
1706.77954	0.80393
1704.85098	0.83830
1702.92241	0.86916
1700.99385	0.89992
1699.06528	0.94575
1697.13672	0.98749
1695.20815	1.02962
1693.27959	1.07039
1691.35103	1.10348
1689.42246	1.14180
1687.49390	1.18218
1685.56533	1.22108
1683.63677	1.28141
1681.70820	1.34441
1679.77964	1.38465
1677.85107	1.42240
1675.92251	1.46583
1673.99395	1.52012
1672.06538	1.56827
1670.13682	1.61527
1668.20825	1.67604
1666.27969	1.72409
1664.35112	1.76410
1662.42256	1.81556
1660.49399	1.87404
1658.56543	1.91895
1656.63687	1.95496
1654.70830	1.98818
1652.77974	2.04202
1650.85117	2.09630
1648.92261	2.11809
1646.99404	2.14553
1645.06548	2.17843
1643.13691	2.20052
1641.20835	2.21239
1639.27979	2.22214
1637.35122	2.23015
1635.42266	2.23518
1633.49409	2.23077
1631.56553	2.21791
1629.63696	2.20191
1627.70840	2.17531
1625.77983	2.14496
1623.85127	2.10820
1621.92271	2.06149
1619.99414	2.01821
1618.06558	1.97576
1616.13701	1.91444
1614.20845	1.85092
1612.27988	1.80295
1610.35132	1.75358
1608.42275	1.70013
1606.49419	1.64725
1604.56562	1.59837
1602.63706	1.55113
1600.70850	1.50444
1598.77993	1.46072
1596.85137	1.41950
1594.92280	1.37939
1592.99424	1.34017
1591.06567	1.30397
1589.13711	1.26990
1587.20854	1.23792
1585.27998	1.20836
1583.35142	1.18067
1581.42285	1.15509
1579.49429	1.13285
1577.56572	1.11235
1575.63716	1.08732
1573.70859	1.06564
1571.78003	1.05159
1569.85146	1.03647
1567.92290	1.01922
1565.99434	1.00585
1564.06577	0.99503
1562.13721	0.98643
1560.20864	0.98012
1558.28008	0.96992
1556.35151	0.95972
1554.42295	0.95344
1552.49438	0.94735
1550.56582	0.94065
1548.63726	0.93304
1546.70869	0.92553
1544.78013	0.91748
1542.85156	0.90796
1540.92300	0.89553
1538.99443	0.87653
1537.06587	0.86188
1535.13730	0.85206
1533.20874	0.83984
1531.28018	0.82678
1529.35161	0.81729
1527.42305	0.80845
1525.49448	0.79920
1523.56592	0.79133
1521.63735	0.78354
1519.70879	0.77466
1517.78022	0.76714
1515.85166	0.75914
1513.92310	0.75079
1511.99453	0.74383
1510.06597	0.73822
1508.13740	0.73352
1506.20884	0.72501
1504.28027	0.71592
1502.35171	0.71075
1500.42314	0.70674
1498.49458	0.70267
1496.56602	0.69779
1494.63745	0.69273
1492.70889	0.68893
1490.78032	0.68611
1488.85176	0.68283
1486.92319	0.67884
1484.99463	0.67520
1483.06606	0.67238
1481.13750	0.67017
1479.20894	0.66832
1477.28037	0.66695
1475.35181	0.66622
1473.42324	0.66586
1471.49468	0.66427
1469.56611	0.66150
1467.63755	0.65906
1465.70898	0.65715
1463.78042	0.65553
1461.85186	0.65420
1459.92329	0.65340
1457.99473	0.65287
1456.06616	0.65093
1454.13760	0.64769
1452.20903	0.64495
1450.28047	0.64261
1448.35190	0.64049
1446.42334	0.63820
1444.49478	0.63579
1442.56621	0.63354
1440.63765	0.63152
1438.70908	0.62990
1436.78052	0.62818
1434.85195	0.62559
1432.92339	0.62296
1430.99482	0.62098
1429.06626	0.61937
1427.13770	0.61803
1425.20913	0.61707
1423.28057	0.61643
1421.35200	0.61598
1419.42344	0.61555
1417.49487	0.61428
1415.56631	0.61224
1413.63774	0.61069
1411.70918	0.60972
1409.78062	0.60900
1407.85205	0.60850
1405.92349	0.60828
1403.99492	0.60784
1402.06636	0.60693
1400.13779	0.60611
1398.20923	0.60521
1396.28066	0.60365
1394.35210	0.60130
1392.42354	0.59853
1390.49497	0.59609
1388.56641	0.59409
1386.63784	0.59192
1384.70928	0.58928
1382.78071	0.58670
1380.85215	0.58453
1378.92358	0.58284
1376.99502	0.58156
1375.06646	0.58065
1373.13789	0.57977
1371.20933	0.57881
1369.28076	0.57797
1367.35220	0.57702
1365.42363	0.57586
1363.49507	0.57489
1361.56650	0.57394
1359.63794	0.57255
1357.70937	0.57113
1355.78081	0.56996
1353.85225	0.56886
1351.92368	0.56779
1349.99512	0.56692
1348.06655	0.56610
1346.13799	0.56518
1344.20942	0.56422
1342.28086	0.56336
1340.35229	0.56275
1338.42373	0.56207
1336.49517	0.56105
1334.56660	0.56004
1332.63804	0.55937
1330.70947	0.55891
1328.78091	0.55842
1326.85234	0.55796
1324.92378	0.55768
1322.99521	0.55746
1321.06665	0.55725
1319.13809	0.55713
1317.20952	0.55692
1315.28096	0.55647
1313.35239	0.55585
1311.42383	0.55505
1309.49526	0.55407
1307.56670	0.55317
1305.63813	0.55245
1303.70957	0.55182
1301.78101	0.55123
1299.85244	0.55055
1297.92388	0.54971
1295.99531	0.54886
1294.06675	0.54799
1292.13818	0.54708
1290.20962	0.54626
1288.28105	0.54551
1286.35249	0.54474
1284.42393	0.54401
1282.49536	0.54328
1280.56680	0.54250
1278.63823	0.54171
1276.70967	0.54095
1274.78110	0.54021
1272.85254	0.53955
1270.92397	0.53906
1268.99541	0.53857
1267.06685	0.53789
1265.13828	0.53722
1263.20972	0.53671
1261.28115	0.53633
1259.35259	0.53594
1257.42402	0.53548
1255.49546	0.53510
1253.56689	0.53494
1251.63833	0.53486
1249.70977	0.53465
1247.78120	0.53425
1245.85264	0.53381
1243.92407	0.53329
1241.99551	0.53259
1240.06694	0.53178
1238.13838	0.53082
1236.20981	0.52975
1234.28125	0.52870
1232.35269	0.52760
1230.42412	0.52634
1228.49556	0.52499
1226.56699	0.52363
1224.63843	0.52235
1222.70986	0.52126
1220.78130	0.52042
1218.85273	0.51966
1216.92417	0.51876
1214.99561	0.51781
1213.06704	0.51699
1211.13848	0.51642
1209.20991	0.51599
1207.28135	0.51551
1205.35278	0.51490
1203.42422	0.51418
1201.49565	0.51338
1199.56709	0.51259
1197.63853	0.51197
1195.70996	0.51148
1193.78140	0.51097
1191.85283	0.51029
1189.92427	0.50957
1187.99570	0.50907
1186.06714	0.50891
1184.13857	0.50908
1182.21001	0.50945
1180.28145	0.50993
1178.35288	0.51058
1176.42432	0.51141
1174.49575	0.51236
1172.56719	0.51335
1170.63862	0.51417
1168.71006	0.51474
1166.78149	0.51528
1164.85293	0.51598
1162.92437	0.51682
1160.99580	0.51757
1159.06724	0.51790
1157.13867	0.51764
1155.21011	0.51701
1153.28154	0.51610
1151.35298	0.51461
1149.42441	0.51244
1147.49585	0.50984
1145.56729	0.50718
1143.63872	0.50469
1141.71016	0.50228
1139.78159	0.50002
1137.85303	0.49819
1135.92446	0.49667
1133.99590	0.49534
1132.06733	0.49436
1130.13877	0.49360
1128.21021	0.49284
1126.28164	0.49217
1124.35308	0.49166
1122.42451	0.49135
1120.49595	0.49140
1118.56738	0.49171
1116.63882	0.49207
1114.71025	0.49267
1112.78169	0.49366
1110.85312	0.49480
1108.92456	0.49577
1106.99600	0.49658
1105.06743	0.49744
1103.13887	0.49852
1101.21030	0.49984
1099.28174	0.50122
1097.35317	0.50271
1095.42461	0.50495
1093.49604	0.50858
1091.56748	0.51358
1089.63892	0.51983
1087.71035	0.52729
1085.78179	0.53570
1083.85322	0.54444
1081.92466	0.55243
1079.99609	0.55835
1078.06753	0.56130
1076.13896	0.56122
1074.21040	0.55820
1072.28184	0.55283
1070.35327	0.54629
1068.42471	0.53926
1066.49614	0.53231
1064.56758	0.52612
1062.63901	0.52074
1060.71045	0.51613
1058.78188	0.51214
1056.85332	0.50845
1054.92476	0.50494
1052.99619	0.50188
1051.06763	0.49972
1049.13906	0.49856
1047.21050	0.49799
1045.28193	0.49767
1043.35337	0.49769
1041.42480	0.49804
1039.49624	0.49854
1037.56768	0.49907
1035.63911	0.49941
1033.71055	0.49920
1031.78198	0.49831
1029.85342	0.49708
1027.92485	0.49566
1025.99629	0.49412
1024.06772	0.49290
1022.13916	0.49224
1020.21060	0.49196
1018.28203	0.49181
1016.35347	0.49149
1014.42490	0.49103
1012.49634	0.49071
1010.56777	0.49068
1008.63921	0.49095
1006.71064	0.49143
1004.78208	0.49219
1002.85352	0.49351
1000.92495	0.49582
998.99639	0.49920
997.06782	0.50309
995.13926	0.50707
993.21069	0.51093
991.28213	0.51415
989.35356	0.51626
987.42500	0.51719
985.49644	0.51732
983.56787	0.51719
981.63931	0.51729
979.71074	0.51800
977.78218	0.51943
975.85361	0.52141
973.92505	0.52381
971.99648	0.52654
970.06792	0.52974
968.13936	0.53349
966.21079	0.53755
964.28223	0.54175
962.35366	0.54625
960.42510	0.55122
958.49653	0.55655
956.56797	0.56200
954.63940	0.56769
952.71084	0.57382
950.78228	0.58001
948.85371	0.58601
946.92515	0.59217
944.99658	0.59845
943.06802	0.60464
941.13945	0.61091
939.21089	0.61688
937.28232	0.62238
935.35376	0.62780
933.42520	0.63337
931.49663	0.63900
929.56807	0.64446
927.63950	0.64979
925.71094	0.65555
923.78237	0.66207
921.85381	0.66848
919.92524	0.67439
917.99668	0.68109
916.06812	0.68887
914.13955	0.69663
912.21099	0.70418
910.28242	0.71194
908.35386	0.72025
906.42529	0.72907
904.49673	0.73782
902.56816	0.74615
900.63960	0.75422
898.71104	0.76277
896.78247	0.77260
894.85391	0.78257
892.92534	0.79162
890.99678	0.80116
889.06821	0.81271
887.13965	0.82566
885.21108	0.83757
883.28252	0.84734
881.35396	0.85677
879.42539	0.86700
877.49683	0.87703
875.56826	0.88749
873.63970	0.89966
871.71113	0.91180
869.78257	0.92390
867.85400	0.93753
865.92544	0.95031
863.99687	0.96079
862.06831	0.97074
860.13975	0.98084
858.21118	0.99191
856.28262	1.00369
854.35405	1.01414
852.42549	1.02396
850.49692	1.03580
848.56836	1.04886
846.63979	1.06043
844.71123	1.07152
842.78267	1.08442
840.85410	1.09797
838.92554	1.10941
836.99697	1.11890
835.06841	1.12914
833.13984	1.14355
831.21128	1.16205
829.28271	1.17830
827.35415	1.18750
825.42559	1.19255
823.49702	1.20102
821.56846	1.21367
819.63989	1.22656
817.71133	1.24001
815.78276	1.25073
813.85420	1.25622
811.92563	1.26703
809.99707	1.28527
808.06851	1.29665
806.13994	1.30199
804.21138	1.31426
802.28281	1.33935
800.35425	1.36472
798.42568	1.37768
796.49712	1.39992
794.56855	1.43557
792.63999	1.43959
790.71143	1.43428
788.78286	1.50575
786.85430	1.59152
784.92573	1.52952
782.99717	1.46352
781.06860	1.45398
779.14004	1.45677
777.21147	1.51639
775.28291	1.67318
773.35435	1.98954
771.42578	3.84010
769.49722	1.95480
767.56865	1.51251
765.64009	1.35496
763.71152	1.36313
761.78296	1.42693
759.85439	1.41256
757.92583	1.37840
755.99727	1.34870
754.06870	1.34825
752.14014	1.46668
750.21157	1.64368
748.28301	1.58566
746.35444	1.73439
744.42588	4.46656
742.49731	1.76206
740.56875	1.09760
738.64019	0.92039
736.71162	0.94659
734.78306	1.06515
732.85449	0.96158
730.92593	0.68554
728.99736	0.49222
727.06880	0.45534
725.14023	0.62468
723.21167	0.97271
721.28311	0.41899
719.35454	0.14364
717.42598	0.14672
715.49741	0.24584
713.56885	0.38153
711.64028	0.59331
709.71172	0.87599
707.78315	0.93168
705.85459	0.92344
703.92603	1.94978
701.99746	1.03457
700.06890	0.50123
698.14033	0.37214
696.21177	0.38163
694.28320	0.39589
692.35464	0.38284
690.42607	0.40530
688.49751	0.35552
686.56895	0.23079
684.64038	0.22302
682.71182	0.39840
680.78325	0.55635
678.85469	0.50781
676.92612	0.51414
674.99756	0.52221
673.06899	0.48279
671.14043	0.48953
669.21187	0.49196
667.28330	0.47967
665.35474	0.48106
663.42617	0.39107
661.49761	0.29081
659.56904	0.30062
657.64048	0.38308
655.71191	0.46039
653.78335	0.52935
651.85479	0.62623
649.92622	0.55870
647.99766	0.31964
646.06909	0.19603
644.14053	0.22964
642.21196	0.36156
640.28340	0.38811
638.35483	0.37072
636.42627	0.44222
634.49771	0.43955
632.56914	0.36927
630.64058	0.46442
628.71201	3.77227
626.78345	3.76070
624.85488	3.74913
622.92632	0.82128
620.99775	0.55444
619.06919	0.62836
617.14062	1.73456
615.21206	1.61621
613.28350	0.61666
611.35493	0.43212
609.42637	0.32206
607.49780	0.25034
605.56924	0.21249
603.64067	0.17580
601.71211	0.13576
599.78354	0.13634
597.85498	0.17603
595.92642	0.22645
593.99785	0.27135
592.06929	0.28076
590.14072	0.31057
588.21216	0.44736
586.28359	0.67698
584.35503	0.65920
582.42646	0.52243
580.49790	0.44064
578.56934	0.39533
576.64077	0.36764
574.71221	0.32082
572.78364	0.31294
570.85508	0.37946
568.92651	0.43426
566.99795	0.33265
565.06938	0.23794
563.14082	0.27643
561.21226	0.41571
559.28369	0.51617
557.35513	0.43384
555.42656	0.36955
553.49800	0.41476
551.56943	0.49737
549.64087	0.45882
547.71230	0.37142
545.78374	0.32267
543.85518	0.30020
541.92661	0.29201
539.99805	0.34017
538.06948	0.41837
536.14092	0.41211
534.21235	0.37587
532.28379	0.32133
530.35522	0.24230
528.42666	0.21649
526.49810	0.26510
524.56953	0.30083
522.64097	0.27174
520.71240	0.24896
518.78384	0.23637
516.85527	0.19757
514.92671	0.19235
512.99814	0.23823
511.06958	0.27872
509.14102	0.30791
507.21245	0.36318
505.28389	0.43076
503.35532	0.39922
501.42676	0.33698
499.49819	0.29768
