3997.91411	0.06825
3995.98555	0.06823
3994.05698	0.06860
3992.12842	0.06907
3990.19985	0.06940
3988.27129	0.06992
3986.34272	0.07048
3984.41416	0.07066
3982.48560	0.07062
3980.55703	0.07049
3978.62847	0.07015
3976.69990	0.07002
3974.77134	0.07066
3972.84277	0.07168
3970.91421	0.07217
3968.98564	0.07191
3967.05708	0.07153
3965.12852	0.07176
3963.19995	0.07248
3961.27139	0.07288
3959.34282	0.07268
3957.41426	0.07240
3955.48569	0.07221
3953.55713	0.07194
3951.62856	0.07196
3949.70000	0.07232
3947.77144	0.07246
3945.84287	0.07246
3943.91431	0.07278
3941.98574	0.07330
3940.05718	0.07343
3938.12861	0.07314
3936.20005	0.07275
3934.27148	0.07249
3932.34292	0.07287
3930.41436	0.07348
3928.48579	0.07326
3926.55723	0.07309
3924.62866	0.07367
3922.70010	0.07384
3920.77153	0.07319
3918.84297	0.07260
3916.91440	0.07250
3914.98584	0.07252
3913.05728	0.07224
3911.12871	0.07213
3909.20015	0.07248
3907.27158	0.07304
3905.34302	0.07342
3903.41445	0.07309
3901.48589	0.07230
3899.55732	0.07205
3897.62876	0.07201
3895.70020	0.07165
3893.77163	0.07126
3891.84307	0.07146
3889.91450	0.07215
3887.98594	0.07226
3886.05737	0.07227
3884.12881	0.07278
3882.20024	0.07310
3880.27168	0.07335
3878.34312	0.07353
3876.41455	0.07308
3874.48599	0.07274
3872.55742	0.07320
3870.62886	0.07424
3868.70029	0.07519
3866.77173	0.07534
3864.84316	0.07547
3862.91460	0.07572
3860.98604	0.07550
3859.05747	0.07564
3857.12891	0.07633
3855.20034	0.07711
3853.27178	0.07811
3851.34321	0.07909
3849.41465	0.07910
3847.48608	0.07881
3845.55752	0.07879
3843.62896	0.07920
3841.70039	0.07976
3839.77183	0.08038
3837.84326	0.08174
3835.91470	0.08322
3833.98613	0.08348
3832.05757	0.08325
3830.12900	0.08352
3828.20044	0.08412
3826.27187	0.08496
3824.34331	0.08603
3822.41475	0.08721
3820.48618	0.08896
3818.55762	0.08998
3816.62905	0.08994
3814.70049	0.09060
3812.77192	0.09141
3810.84336	0.09171
3808.91479	0.09216
3806.98623	0.09319
3805.05767	0.09475
3803.12910	0.09656
3801.20054	0.09868
3799.27197	0.10030
3797.34341	0.10094
3795.41484	0.10159
3793.48628	0.10223
3791.55771	0.10288
3789.62915	0.10377
3787.70059	0.10494
3785.77202	0.10651
3783.84346	0.10822
3781.91489	0.10975
3779.98633	0.11119
3778.05776	0.11281
3776.12920	0.11449
3774.20063	0.11587
3772.27207	0.11702
3770.34351	0.11873
3768.41494	0.12108
3766.48638	0.12307
3764.55781	0.12515
3762.62925	0.12731
3760.70068	0.12917
3758.77212	0.13146
3756.84355	0.13407
3754.91499	0.13633
3752.98643	0.13861
3751.05786	0.14194
3749.12930	0.14621
3747.20073	0.14890
3745.27217	0.15082
3743.34360	0.15414
3741.41504	0.15709
3739.48647	0.15859
3737.55791	0.16045
3735.62935	0.16420
3733.70078	0.16991
3731.77222	0.17474
3729.84365	0.17817
3727.91509	0.18144
3725.98652	0.18595
3724.05796	0.19245
3722.12939	0.20018
3720.20083	0.20869
3718.27227	0.21734
3716.34370	0.22548
3714.41514	0.23311
3712.48657	0.24191
3710.55801	0.25429
3708.62944	0.26777
3706.70088	0.27907
3704.77231	0.29005
3702.84375	0.30330
3700.91519	0.32091
3698.98662	0.34002
3697.05806	0.35777
3695.12949	0.37652
3693.20093	0.39623
3691.27236	0.41736
3689.34380	0.44561
3687.41523	0.48167
3685.48667	0.51314
3683.55811	0.53970
3681.62954	0.56796
3679.70098	0.59955
3677.77241	0.63246
3675.84385	0.67122
3673.91528	0.72406
3671.98672	0.76766
3670.05815	0.80611
3668.12959	0.85937
3666.20103	0.90840
3664.27246	0.94941
3662.34390	0.99360
3660.41533	1.04124
3658.48677	1.08750
3656.55820	1.13592
3654.62964	1.19029
3652.70107	1.23701
3650.77251	1.27769
3648.84395	1.33247
3646.91538	1.40038
3644.98682	1.45185
3643.05825	1.49147
3641.12969	1.53112
3639.20112	1.57431
3637.27256	1.61785
3635.34399	1.66049
3633.41543	1.70303
3631.48687	1.74194
3629.55830	1.78078
3627.62974	1.83488
3625.70117	1.88855
3623.77261	1.92432
3621.84404	1.95713
3619.91548	1.99435
3617.98691	2.03966
3616.05835	2.08413
3614.12979	2.12189
3612.20122	2.16151
3610.27266	2.20045
3608.34409	2.23883
3606.41553	2.27965
3604.48696	2.31730
3602.55840	2.35140
3600.62983	2.38952
3598.70127	2.43171
3596.77271	2.47247
3594.84414	2.51369
3592.91558	2.55709
3590.98701	2.59714
3589.05845	2.63359
3587.12988	2.67787
3585.20132	2.72614
3583.27275	2.76597
3581.34419	2.80417
3579.41562	2.84599
3577.48706	2.88818
3575.55850	2.92855
3573.62993	2.97073
3571.70137	3.01390
3569.77280	3.05464
3567.84424	3.09599
3565.91567	3.14685
3563.98711	3.19746
3562.05854	3.23944
3560.12998	3.28209
3558.20142	3.32693
3556.27285	3.37149
3554.34429	3.41474
3552.41572	3.46018
3550.48716	3.50914
3548.55859	3.55505
3546.63003	3.59695
3544.70146	3.64200
3542.77290	3.68885
3540.84434	3.73452
3538.91577	3.78215
3536.98721	3.83222
3535.05864	3.88449
3533.13008	3.93378
3531.20151	3.97687
3529.27295	4.01836
3527.34438	4.06497
3525.41582	4.11315
3523.48726	4.15816
3521.55869	4.20714
3519.63013	4.26023
3517.70156	4.31158
3515.77300	4.36074
3513.84443	4.40950
3511.91587	4.45747
3509.98730	4.50580
3508.05874	4.55432
3506.13018	4.60065
3504.20161	4.64708
3502.27305	4.69431
3500.34448	4.74041
3498.41592	4.78700
3496.48735	4.83609
3494.55879	4.88567
3492.63022	4.93387
3490.70166	4.98156
3488.77310	5.02791
3486.84453	5.07153
3484.91597	5.11612
3482.98740	5.16663
3481.05884	5.22322
3479.13027	5.27816
3477.20171	5.32592
3475.27314	5.37281
3473.34458	5.42179
3471.41602	5.46173
3469.48745	5.49567
3467.55889	5.53866
3465.63032	5.58397
3463.70176	5.63227
3461.77319	5.69243
3459.84463	5.75079
3457.91606	5.79572
3455.98750	5.84069
3454.05894	5.89378
3452.13037	5.94317
3450.20181	5.98596
3448.27324	6.03310
3446.34468	6.09185
3444.41611	6.15192
3442.48755	6.21624
3440.55898	6.27945
3438.63042	6.30959
3436.70186	6.32163
3434.77329	6.35505
3432.84473	6.41134
3430.91616	6.47234
3428.98760	6.52236
3427.05903	6.55742
3425.13047	6.59316
3423.20190	6.63726
3421.27334	6.70514
3419.34478	6.79736
3417.41621	6.88642
3415.48765	6.95092
3413.55908	6.98693
3411.63052	7.03393
3409.70195	7.09163
3407.77339	7.12976
3405.84482	7.14631
3403.91626	7.14326
3401.98770	7.15942
3400.05913	7.23133
3398.13057	7.29309
3396.20200	7.29356
3394.27344	7.28712
3392.34487	7.31739
3390.41631	7.41062
3388.48774	7.50567
3386.55918	7.52897
3384.63062	7.52368
3382.70205	7.54375
3380.77349	7.60562
3378.84492	7.68978
3376.91636	7.75129
3374.98779	7.77231
3373.05923	7.78649
3371.13066	7.79639
3369.20210	7.77940
3367.27354	7.73488
3365.34497	7.69923
3363.41641	7.68355
3361.48784	7.70516
3359.55928	7.78811
3357.63071	7.89338
3355.70215	7.99055
3353.77358	8.00809
3351.84502	7.93852
3349.91646	7.90044
3347.98789	7.94909
3346.05933	7.99775
3344.13076	7.97662
3342.20220	7.96159
3340.27363	8.00836
3338.34507	8.07830
3336.41650	8.08749
3334.48794	8.08988
3332.55937	8.16637
3330.63081	8.25239
3328.70225	8.22588
3326.77368	8.11819
3324.84512	8.07230
3322.91655	8.11015
3320.98799	8.20037
3319.05942	8.26268
3317.13086	8.20225
3315.20229	8.16250
3313.27373	8.30389
3311.34517	8.41985
3309.41660	8.30725
3307.48804	8.13523
3305.55947	8.02454
3303.63091	8.04159
3301.70234	8.11171
3299.77378	8.07333
3297.84521	8.02072
3295.91665	8.09947
3293.98809	8.20748
3292.05952	8.19173
3290.13096	8.08606
3288.20239	8.02288
3286.27383	8.07692
3284.34526	8.16105
3282.41670	8.18365
3280.48813	8.16318
3278.55957	8.14954
3276.63101	8.15317
3274.70244	8.13215
3272.77388	8.10983
3270.84531	8.10245
3268.91675	8.06083
3266.98818	8.05237
3265.05962	8.11460
3263.13105	8.16572
3261.20249	8.22018
3259.27393	8.29871
3257.34536	8.33446
3255.41680	8.28055
3253.48823	8.25049
3251.55967	8.31509
3249.63110	8.31833
3247.70254	8.25439
3245.77397	8.23320
3243.84541	8.21195
3241.91685	8.20558
3239.98828	8.25362
3238.05972	8.28402
3236.13115	8.28987
3234.20259	8.23957
3232.27402	8.11450
3230.34546	8.01566
3228.41689	7.98445
3226.48833	8.03982
3224.55977	8.12178
3222.63120	8.15223
3220.70264	8.14763
3218.77407	8.08429
3216.84551	8.02364
3214.91694	8.06006
3212.98838	8.12558
3211.05981	8.11237
3209.13125	8.02158
3207.20269	7.92600
3205.27412	7.86790
3203.34556	7.81893
3201.41699	7.76015
3199.48843	7.71973
3197.55986	7.70764
3195.63130	7.67296
3193.70273	7.59440
3191.77417	7.51337
3189.84561	7.45713
3187.91704	7.39923
3185.98848	7.31403
3184.05991	7.26900
3182.13135	7.29734
3180.20278	7.29876
3178.27422	7.22278
3176.34565	7.15258
3174.41709	7.11532
3172.48853	7.05305
3170.55996	6.94754
3168.63140	6.84490
3166.70283	6.78640
3164.77427	6.76585
3162.84570	6.74080
3160.91714	6.68118
3158.98857	6.60495
3157.06001	6.52922
3155.13145	6.45704
3153.20288	6.40238
3151.27432	6.35408
3149.34575	6.27567
3147.41719	6.18104
3145.48862	6.11423
3143.56006	6.06271
3141.63149	5.99486
3139.70293	5.92121
3137.77437	5.85634
3135.84580	5.78827
3133.91724	5.70602
3131.98867	5.61701
3130.06011	5.53917
3128.13154	5.47916
3126.20298	5.42443
3124.27441	5.36134
3122.34585	5.28547
3120.41729	5.20616
3118.48872	5.13283
3116.56016	5.06149
3114.63159	4.98782
3112.70303	4.91908
3110.77446	4.85770
3108.84590	4.79293
3106.91733	4.72330
3104.98877	4.65375
3103.06021	4.58500
3101.13164	4.51793
3099.20308	4.45076
3097.27451	4.38242
3095.34595	4.31832
3093.41738	4.25840
3091.48882	4.19523
3089.56025	4.12913
3087.63169	4.06416
3085.70312	4.00192
3083.77456	3.94227
3081.84600	3.88232
3079.91743	3.82068
3077.98887	3.75928
3076.06030	3.69920
3074.13174	3.63880
3072.20317	3.57773
3070.27461	3.51887
3068.34604	3.46422
3066.41748	3.41019
3064.48892	3.35376
3062.56035	3.29819
3060.63179	3.24538
3058.70322	3.19275
3056.77466	3.13894
3054.84609	3.08626
3052.91753	3.03591
3050.98896	2.98590
3049.06040	2.93536
3047.13184	2.88517
3045.20327	2.83601
3043.27471	2.78779
3041.34614	2.74012
3039.41758	2.69381
3037.48901	2.64900
3035.56045	2.60364
3033.63188	2.55773
3031.70332	2.51322
3029.77476	2.46987
3027.84619	2.42708
3025.91763	2.38490
3023.98906	2.34286
3022.06050	2.30127
3020.13193	2.26071
3018.20337	2.22102
3016.27480	2.18212
3014.34624	2.14384
3012.41768	2.10625
3010.48911	2.06976
3008.56055	2.03373
3006.63198	1.99783
3004.70342	1.96292
3002.77485	1.92854
3000.84629	1.89392
2998.91772	1.85971
2996.98916	1.82666
2995.06060	1.79478
2993.13203	1.76350
2991.20347	1.73251
2989.27490	1.70189
2987.34634	1.67176
2985.41777	1.64223
2983.48921	1.61333
2981.56064	1.58543
2979.63208	1.55867
2977.70352	1.53208
2975.77495	1.50518
2973.84639	1.47874
2971.91782	1.45325
2969.98926	1.42814
2968.06069	1.40289
2966.13213	1.37798
2964.20356	1.35390
2962.27500	1.33025
2960.34644	1.30664
2958.41787	1.28357
2956.48931	1.26107
2954.56074	1.23824
2952.63218	1.21534
2950.70361	1.19348
2948.77505	1.17257
2946.84648	1.15202
2944.91792	1.13154
2942.98936	1.11078
2941.06079	1.09041
2939.13223	1.07103
2937.20366	1.05213
2935.27510	1.03362
2933.34653	1.01542
2931.41797	0.99693
2929.48940	0.97833
2927.56084	0.96023
2925.63228	0.94261
2923.70371	0.92532
2921.77515	0.90867
2919.84658	0.89295
2917.91802	0.87746
2915.98945	0.86176
2914.06089	0.84655
2912.13232	0.83191
2910.20376	0.81690
2908.27520	0.80165
2906.34663	0.78721
2904.41807	0.77372
2902.48950	0.76078
2900.56094	0.74808
2898.63237	0.73527
2896.70381	0.72255
2894.77524	0.71036
2892.84668	0.69855
2890.91812	0.68705
2888.98955	0.67605
2887.06099	0.66538
2885.13242	0.65478
2883.20386	0.64421
2881.27529	0.63375
2879.34673	0.62362
2877.41816	0.61385
2875.48960	0.60416
2873.56104	0.59427
2871.63247	0.58420
2869.70391	0.57419
2867.77534	0.56426
2865.84678	0.55413
2863.91821	0.54381
2861.98965	0.53363
2860.06108	0.52391
2858.13252	0.51490
2856.20396	0.50630
2854.27539	0.49763
2852.34683	0.48904
2850.41826	0.48091
2848.48970	0.47310
2846.56113	0.46534
2844.63257	0.45785
2842.70400	0.45093
2840.77544	0.44444
2838.84687	0.43835
2836.91831	0.43275
2834.98975	0.42710
2833.06118	0.42101
2831.13262	0.41478
2829.20405	0.40879
2827.27549	0.40302
2825.34692	0.39719
2823.41836	0.39124
2821.48979	0.38532
2819.56123	0.37960
2817.63267	0.37418
2815.70410	0.36889
2813.77554	0.36353
2811.84697	0.35821
2809.91841	0.35315
2807.98984	0.34820
2806.06128	0.34309
2804.13271	0.33790
2802.20415	0.33299
2800.27559	0.32835
2798.34702	0.32365
2796.41846	0.31908
2794.48989	0.31483
2792.56133	0.31049
2790.63276	0.30606
2788.70420	0.30190
2786.77563	0.29782
2784.84707	0.29364
2782.91851	0.28966
2780.98994	0.28587
2779.06138	0.28216
2777.13281	0.27853
2775.20425	0.27488
2773.27568	0.27121
2771.34712	0.26774
2769.41855	0.26439
2767.48999	0.26089
2765.56143	0.25744
2763.63286	0.25428
2761.70430	0.25130
2759.77573	0.24827
2757.84717	0.24515
2755.91860	0.24209
2753.99004	0.23922
2752.06147	0.23642
2750.13291	0.23362
2748.20435	0.23088
2746.27578	0.22828
2744.34722	0.22577
2742.41865	0.22321
2740.49009	0.22075
2738.56152	0.21845
2736.63296	0.21610
2734.70439	0.21364
2732.77583	0.21121
2730.84727	0.20895
2728.91870	0.20696
2726.99014	0.20517
2725.06157	0.20326
2723.13301	0.20109
2721.20444	0.19890
2719.27588	0.19688
2717.34731	0.19502
2715.41875	0.19323
2713.49019	0.19154
2711.56162	0.18991
2709.63306	0.18823
2707.70449	0.18652
2705.77593	0.18495
2703.84736	0.18355
2701.91880	0.18211
2699.99023	0.18060
2698.06167	0.17910
2696.13311	0.17759
2694.20454	0.17607
2692.27598	0.17469
2690.34741	0.17345
2688.41885	0.17219
2686.49028	0.17098
2684.56172	0.16985
2682.63315	0.16866
2680.70459	0.16751
2678.77603	0.16655
2676.84746	0.16554
2674.91890	0.16435
2672.99033	0.16313
2671.06177	0.16199
2669.13320	0.16108
2667.20464	0.16040
2665.27607	0.15965
2663.34751	0.15861
2661.41895	0.15746
2659.49038	0.15659
2657.56182	0.15600
2655.63325	0.15537
2653.70469	0.15467
2651.77612	0.15405
2649.84756	0.15347
2647.91899	0.15285
2645.99043	0.15228
2644.06187	0.15173
2642.13330	0.15110
2640.20474	0.15046
2638.27617	0.14990
2636.34761	0.14948
2634.41904	0.14908
2632.49048	0.14865
2630.56191	0.14827
2628.63335	0.14794
2626.70479	0.14765
2624.77622	0.14735
2622.84766	0.14702
2620.91909	0.14679
2618.99053	0.14665
2617.06196	0.14645
2615.13340	0.14626
2613.20483	0.14619
2611.27627	0.14615
2609.34771	0.14603
2607.41914	0.14581
2605.49058	0.14569
2603.56201	0.14577
2601.63345	0.14581
2599.70488	0.14572
2597.77632	0.14569
2595.84775	0.14584
2593.91919	0.14601
2591.99062	0.14611
2590.06206	0.14625
2588.13350	0.14641
2586.20493	0.14661
2584.27637	0.14696
2582.34780	0.14734
2580.41924	0.14757
2578.49067	0.14765
2576.56211	0.14773
2574.63354	0.14798
2572.70498	0.14840
2570.77642	0.14887
2568.84785	0.14923
2566.91929	0.14955
2564.99072	0.14996
2563.06216	0.15047
2561.13359	0.15096
2559.20503	0.15131
2557.27646	0.15164
2555.34790	0.15220
2553.41934	0.15299
2551.49077	0.15366
2549.56221	0.15403
2547.63364	0.15440
2545.70508	0.15501
2543.77651	0.15563
2541.84795	0.15616
2539.91938	0.15681
2537.99082	0.15760
2536.06226	0.15830
2534.13369	0.15887
2532.20513	0.15952
2530.27656	0.16024
2528.34800	0.16086
2526.41943	0.16144
2524.49087	0.16209
2522.56230	0.16283
2520.63374	0.16370
2518.70518	0.16453
2516.77661	0.16525
2514.84805	0.16600
2512.91948	0.16682
2510.99092	0.16757
2509.06235	0.16818
2507.13379	0.16884
2505.20522	0.16966
2503.27666	0.17056
2501.34810	0.17142
2499.41953	0.17240
2497.49097	0.17345
2495.56240	0.17438
2493.63384	0.17520
2491.70527	0.17595
2489.77671	0.17672
2487.84814	0.17761
2485.91958	0.17843
2483.99102	0.17915
2482.06245	0.17999
2480.13389	0.18095
2478.20532	0.18188
2476.27676	0.18272
2474.34819	0.18355
2472.41963	0.18448
2470.49106	0.18541
2468.56250	0.18625
2466.63394	0.18714
2464.70537	0.18821
2462.77681	0.18921
2460.84824	0.19002
2458.91968	0.19087
2456.99111	0.19185
2455.06255	0.19279
2453.13398	0.19373
2451.20542	0.19478
2449.27686	0.19586
2447.34829	0.19684
2445.41973	0.19778
2443.49116	0.19882
2441.56260	0.19992
2439.63403	0.20090
2437.70547	0.20176
2435.77690	0.20262
2433.84834	0.20364
2431.91978	0.20476
2429.99121	0.20588
2428.06265	0.20697
2426.13408	0.20798
2424.20552	0.20899
2422.27695	0.21014
2420.34839	0.21130
2418.41982	0.21236
2416.49126	0.21345
2414.56270	0.21453
2412.63413	0.21559
2410.70557	0.21668
2408.77700	0.21780
2406.84844	0.21900
2404.91987	0.22030
2402.99131	0.22157
2401.06274	0.22277
2399.13418	0.22387
2397.20562	0.22491
2395.27705	0.22606
2393.34849	0.22730
2391.41992	0.22854
2389.49136	0.22966
2387.56279	0.23050
2385.63423	0.23078
2383.70566	0.23024
2381.77710	0.22889
2379.84854	0.22694
2377.91997	0.22454
2375.99141	0.22162
2374.06284	0.21797
2372.13428	0.21320
2370.20571	0.20752
2368.27715	0.20190
2366.34858	0.19640
2364.42002	0.19016
2362.49146	0.18526
2360.56289	0.18474
2358.63433	0.18821
2356.70576	0.19537
2354.77720	0.20424
2352.84863	0.21377
2350.92007	0.22340
2348.99150	0.22935
2347.06294	0.23028
2345.13437	0.22728
2343.20581	0.22345
2341.27725	0.22240
2339.34868	0.22370
2337.42012	0.22557
2335.49155	0.22750
2333.56299	0.23031
2331.63442	0.23405
2329.70586	0.23738
2327.77729	0.24048
2325.84873	0.24455
2323.92017	0.24938
2321.99160	0.25430
2320.06304	0.25894
2318.13447	0.26297
2316.20591	0.26639
2314.27734	0.26953
2312.34878	0.27271
2310.42021	0.27599
2308.49165	0.27931
2306.56309	0.28289
2304.63452	0.28654
2302.70596	0.28973
2300.77739	0.29243
2298.84883	0.29493
2296.92026	0.29744
2294.99170	0.30013
2293.06313	0.30291
2291.13457	0.30563
2289.20601	0.30837
2287.27744	0.31111
2285.34888	0.31364
2283.42031	0.31580
2281.49175	0.31774
2279.56318	0.31968
2277.63462	0.32163
2275.70605	0.32352
2273.77749	0.32549
2271.84893	0.32762
2269.92036	0.32979
2267.99180	0.33192
2266.06323	0.33404
2264.13467	0.33613
2262.20610	0.33828
2260.27754	0.34052
2258.34897	0.34278
2256.42041	0.34501
2254.49185	0.34735
2252.56328	0.34972
2250.63472	0.35198
2248.70615	0.35415
2246.77759	0.35634
2244.84902	0.35858
2242.92046	0.36078
2240.99189	0.36298
2239.06333	0.36521
2237.13477	0.36735
2235.20620	0.36945
2233.27764	0.37163
2231.34907	0.37387
2229.42051	0.37611
2227.49194	0.37830
2225.56338	0.38044
2223.63481	0.38261
2221.70625	0.38489
2219.77769	0.38720
2217.84912	0.38940
2215.92056	0.39149
2213.99199	0.39349
2212.06343	0.39554
2210.13486	0.39769
2208.20630	0.39985
2206.27773	0.40196
2204.34917	0.40396
2202.42061	0.40590
2200.49204	0.40790
2198.56348	0.40986
2196.63491	0.41175
2194.70635	0.41372
2192.77778	0.41578
2190.84922	0.41773
2188.92065	0.41950
2186.99209	0.42125
2185.06353	0.42308
2183.13496	0.42492
2181.20640	0.42670
2179.27783	0.42833
2177.34927	0.42976
2175.42070	0.43114
2173.49214	0.43267
2171.56357	0.43414
2169.63501	0.43547
2167.70645	0.43686
2165.77788	0.43826
2163.84932	0.43949
2161.92075	0.44055
2159.99219	0.44161
2158.06362	0.44268
2156.13506	0.44367
2154.20649	0.44450
2152.27793	0.44534
2150.34937	0.44625
2148.42080	0.44705
2146.49224	0.44759
2144.56367	0.44795
2142.63511	0.44832
2140.70654	0.44875
2138.77798	0.44915
2136.84941	0.44951
2134.92085	0.44974
2132.99229	0.44970
2131.06372	0.44965
2129.13516	0.44971
2127.20659	0.44966
2125.27803	0.44936
2123.34946	0.44878
2121.42090	0.44819
2119.49233	0.44770
2117.56377	0.44713
2115.63521	0.44644
2113.70664	0.44573
2111.77808	0.44499
2109.84951	0.44421
2107.92095	0.44334
2105.99238	0.44236
2104.06382	0.44124
2102.13525	0.43992
2100.20669	0.43856
2098.27812	0.43737
2096.34956	0.43619
2094.42100	0.43476
2092.49243	0.43326
2090.56387	0.43170
2088.63530	0.42996
2086.70674	0.42821
2084.77817	0.42652
2082.84961	0.42480
2080.92104	0.42295
2078.99248	0.42096
2077.06392	0.41894
2075.13535	0.41687
2073.20679	0.41476
2071.27822	0.41264
2069.34966	0.41053
2067.42109	0.40836
2065.49253	0.40612
2063.56396	0.40375
2061.63540	0.40132
2059.70684	0.39883
2057.77827	0.39638
2055.84971	0.39413
2053.92114	0.39187
2051.99258	0.38935
2050.06401	0.38670
2048.13545	0.38415
2046.20688	0.38157
2044.27832	0.37892
2042.34976	0.37633
2040.42119	0.37366
2038.49263	0.37091
2036.56406	0.36827
2034.63550	0.36569
2032.70693	0.36304
2030.77837	0.36037
2028.84980	0.35770
2026.92124	0.35500
2024.99268	0.35224
2023.06411	0.34952
2021.13555	0.34691
2019.20698	0.34440
2017.27842	0.34184
2015.34985	0.33906
2013.42129	0.33622
2011.49272	0.33341
2009.56416	0.33067
2007.63560	0.32796
2005.70703	0.32535
2003.77847	0.32283
2001.84990	0.32023
1999.92134	0.31757
1997.99277	0.31498
1996.06421	0.31252
1994.13564	0.31004
1992.20708	0.30748
1990.27852	0.30491
1988.34995	0.30244
1986.42139	0.30002
1984.49282	0.29761
1982.56426	0.29520
1980.63569	0.29283
1978.70713	0.29058
1976.77856	0.28838
1974.85000	0.28626
1972.92144	0.28426
1970.99287	0.28229
1969.06431	0.28027
1967.13574	0.27825
1965.20718	0.27621
1963.27861	0.27416
1961.35005	0.27219
1959.42148	0.27027
1957.49292	0.26838
1955.56436	0.26657
1953.63579	0.26490
1951.70723	0.26323
1949.77866	0.26153
1947.85010	0.25992
1945.92153	0.25841
1943.99297	0.25696
1942.06440	0.25548
1940.13584	0.25389
1938.20728	0.25235
1936.27871	0.25100
1934.35015	0.24985
1932.42158	0.24873
1930.49302	0.24753
1928.56445	0.24631
1926.63589	0.24514
1924.70732	0.24417
1922.77876	0.24338
1920.85020	0.24251
1918.92163	0.24157
1916.99307	0.24057
1915.06450	0.23953
1913.13594	0.23859
1911.20737	0.23786
1909.27881	0.23721
1907.35024	0.23657
1905.42168	0.23589
1903.49312	0.23525
1901.56455	0.23466
1899.63599	0.23412
1897.70742	0.23369
1895.77886	0.23333
1893.85029	0.23299
1891.92173	0.23259
1889.99316	0.23229
1888.06460	0.23204
1886.13604	0.23179
1884.20747	0.23156
1882.27891	0.23131
1880.35034	0.23113
1878.42178	0.23114
1876.49321	0.23124
1874.56465	0.23127
1872.63608	0.23130
1870.70752	0.23140
1868.77896	0.23177
1866.85039	0.23211
1864.92183	0.23209
1862.99326	0.23204
1861.06470	0.23221
1859.13613	0.23262
1857.20757	0.23301
1855.27900	0.23338
1853.35044	0.23380
1851.42187	0.23431
1849.49331	0.23479
1847.56475	0.23531
1845.63618	0.23608
1843.70762	0.23715
1841.77905	0.23800
1839.85049	0.23849
1837.92192	0.23926
1835.99336	0.24015
1834.06479	0.24099
1832.13623	0.24191
1830.20767	0.24317
1828.27910	0.24451
1826.35054	0.24553
1824.42197	0.24675
1822.49341	0.24813
1820.56484	0.24951
1818.63628	0.25087
1816.70771	0.25244
1814.77915	0.25403
1812.85059	0.25561
1810.92202	0.25752
1808.99346	0.25968
1807.06489	0.26173
1805.13633	0.26360
1803.20776	0.26574
1801.27920	0.26819
1799.35063	0.27089
1797.42207	0.27336
1795.49351	0.27582
1793.56494	0.27866
1791.63638	0.28228
1789.70781	0.28578
1787.77925	0.28837
1785.85068	0.29133
1783.92212	0.29490
1781.99355	0.29883
1780.06499	0.30296
1778.13643	0.30722
1776.20786	0.31123
1774.27930	0.31545
1772.35073	0.32109
1770.42217	0.32732
1768.49360	0.33258
1766.56504	0.33764
1764.63647	0.34291
1762.70791	0.34877
1760.77935	0.35624
1758.85078	0.36322
1756.92222	0.37025
1754.99365	0.37797
1753.06509	0.38485
1751.13652	0.39296
1749.20796	0.40332
1747.27939	0.41371
1745.35083	0.42295
1743.42227	0.43268
1741.49370	0.44314
1739.56514	0.45536
1737.63657	0.46775
1735.70801	0.47860
1733.77944	0.49478
1731.85088	0.51439
1729.92231	0.53014
1727.99375	0.54587
1726.06519	0.56242
1724.13662	0.58045
1722.20806	0.60009
1720.27949	0.61823
1718.35093	0.63924
1716.42236	0.67047
1714.49380	0.70075
1712.56523	0.72555
1710.63667	0.74935
1708.70811	0.77464
1706.77954	0.80340
1704.85098	0.83815
1702.92241	0.86907
1700.99385	0.89906
1699.06528	0.94390
1697.13672	0.98579
1695.20815	1.02920
1693.27959	1.07126
1691.35103	1.10477
1689.42246	1.14314
1687.49390	1.18359
1685.56533	1.22233
1683.63677	1.28210
1681.70820	1.34506
1679.77964	1.38594
1677.85107	1.42435
1675.92251	1.46795
1673.99395	1.52213
1672.06538	1.57069
1670.13682	1.61780
1668.20825	1.67771
1666.27969	1.72594
1664.35112	1.76702
1662.42256	1.81888
1660.49399	1.87716
1658.56543	1.92200
1656.63687	1.95773
1654.70830	1.99105
1652.77974	2.04603
1650.85117	2.09920
1648.92261	2.11984
1646.99404	2.14835
1645.06548	2.18091
1643.13691	2.20082
1641.20835	2.21233
1639.27979	2.22292
1637.35122	2.23096
1635.42266	2.23435
1633.49409	2.22866
1631.56553	2.21521
1629.63696	2.19860
1627.70840	2.17221
1625.77983	2.14217
1623.85127	2.10485
1621.92271	2.05818
1619.99414	2.01576
1618.06558	1.97382
1616.13701	1.91319
1614.20845	1.85079
1612.27988	1.80322
1610.35132	1.75336
1608.42275	1.69883
1606.49419	1.64509
1604.56562	1.59579
1602.63706	1.54784
1600.70850	1.50070
1598.77993	1.45759
1596.85137	1.41704
1594.92280	1.37733
1592.99424	1.33872
1591.06567	1.30307
1589.13711	1.26929
1587.20854	1.23740
1585.27998	1.20773
1583.35142	1.17984
1581.42285	1.15400
1579.49429	1.13166
1577.56572	1.11148
1575.63716	1.08674
1573.70859	1.06472
1571.78003	1.05031
1569.85146	1.03519
1567.92290	1.01808
1565.99434	1.00477
1564.06577	0.99407
1562.13721	0.98546
1560.20864	0.97860
1558.28008	0.96775
1556.35151	0.95841
1554.42295	0.95310
1552.49438	0.94760
1550.56582	0.94105
1548.63726	0.93326
1546.70869	0.92558
1544.78013	0.91735
1542.85156	0.90756
1540.92300	0.89483
1538.99443	0.87596
1537.06587	0.86203
1535.13730	0.85284
1533.20874	0.84099
1531.28018	0.82800
1529.35161	0.81844
1527.42305	0.80934
1525.49448	0.79958
1523.56592	0.79114
1521.63735	0.78303
1519.70879	0.77461
1517.78022	0.76742
1515.85166	0.75919
1513.92310	0.75089
1511.99453	0.74411
1510.06597	0.73805
1508.13740	0.73216
1506.20884	0.72322
1504.28027	0.71530
1502.35171	0.71080
1500.42314	0.70681
1498.49458	0.70246
1496.56602	0.69747
1494.63745	0.69263
1492.70889	0.68880
1490.78032	0.68542
1488.85176	0.68150
1486.92319	0.67762
1484.99463	0.67455
1483.06606	0.67215
1481.13750	0.66997
1479.20894	0.66798
1477.28037	0.66651
1475.35181	0.66539
1473.42324	0.66439
1471.49468	0.66295
1469.56611	0.66104
1467.63755	0.65899
1465.70898	0.65694
1463.78042	0.65505
1461.85186	0.65353
1459.92329	0.65227
1457.99473	0.65079
1456.06616	0.64876
1454.13760	0.64661
1452.20903	0.64448
1450.28047	0.64218
1448.35190	0.63991
1446.42334	0.63774
1444.49478	0.63561
1442.56621	0.63346
1440.63765	0.63133
1438.70908	0.62934
1436.78052	0.62698
1434.85195	0.62412
1432.92339	0.62171
1430.99482	0.61990
1429.06626	0.61845
1427.13770	0.61732
1425.20913	0.61641
1423.28057	0.61563
1421.35200	0.61498
1419.42344	0.61436
1417.49487	0.61331
1415.56631	0.61175
1413.63774	0.61033
1411.70918	0.60932
1409.78062	0.60870
1407.85205	0.60830
1405.92349	0.60809
1403.99492	0.60783
1402.06636	0.60715
1400.13779	0.60606
1398.20923	0.60454
1396.28066	0.60276
1394.35210	0.60075
1392.42354	0.59833
1390.49497	0.59588
1388.56641	0.59363
1386.63784	0.59129
1384.70928	0.58869
1382.78071	0.58615
1380.85215	0.58392
1378.92358	0.58208
1376.99502	0.58066
1375.06646	0.57968
1373.13789	0.57892
1371.20933	0.57819
1369.28076	0.57746
1367.35220	0.57656
1365.42363	0.57543
1363.49507	0.57425
1361.56650	0.57304
1359.63794	0.57185
1357.70937	0.57078
1355.78081	0.56968
1353.85225	0.56848
1351.92368	0.56728
1349.99512	0.56628
1348.06655	0.56542
1346.13799	0.56455
1344.20942	0.56367
1342.28086	0.56278
1340.35229	0.56193
1338.42373	0.56118
1336.49517	0.56044
1334.56660	0.55969
1332.63804	0.55908
1330.70947	0.55865
1328.78091	0.55816
1326.85234	0.55753
1324.92378	0.55710
1322.99521	0.55700
1321.06665	0.55701
1319.13809	0.55692
1317.20952	0.55665
1315.28096	0.55616
1313.35239	0.55550
1311.42383	0.55477
1309.49526	0.55403
1307.56670	0.55332
1305.63813	0.55256
1303.70957	0.55165
1301.78101	0.55075
1299.85244	0.54993
1297.92388	0.54915
1295.99531	0.54844
1294.06675	0.54774
1292.13818	0.54694
1290.20962	0.54609
1288.28105	0.54532
1286.35249	0.54470
1284.42393	0.54409
1282.49536	0.54327
1280.56680	0.54233
1278.63823	0.54154
1276.70967	0.54083
1274.78110	0.54012
1272.85254	0.53945
1270.92397	0.53890
1268.99541	0.53837
1267.06685	0.53776
1265.13828	0.53709
1263.20972	0.53658
1261.28115	0.53622
1259.35259	0.53573
1257.42402	0.53517
1255.49546	0.53488
1253.56689	0.53474
1251.63833	0.53450
1249.70977	0.53425
1247.78120	0.53411
1245.85264	0.53393
1243.92407	0.53348
1241.99551	0.53274
1240.06694	0.53194
1238.13838	0.53117
1236.20981	0.53022
1234.28125	0.52898
1232.35269	0.52763
1230.42412	0.52637
1228.49556	0.52520
1226.56699	0.52399
1224.63843	0.52276
1222.70986	0.52168
1220.78130	0.52059
1218.85273	0.51943
1216.92417	0.51848
1214.99561	0.51777
1213.06704	0.51716
1211.13848	0.51657
1209.20991	0.51591
1207.28135	0.51520
1205.35278	0.51455
1203.42422	0.51402
1201.49565	0.51341
1199.56709	0.51269
1197.63853	0.51203
1195.70996	0.51133
1193.78140	0.51059
1191.85283	0.50996
1189.92427	0.50950
1187.99570	0.50916
1186.06714	0.50893
1184.13857	0.50885
1182.21001	0.50908
1180.28145	0.50973
1178.35288	0.51061
1176.42432	0.51151
1174.49575	0.51238
1172.56719	0.51322
1170.63862	0.51403
1168.71006	0.51477
1166.78149	0.51540
1164.85293	0.51610
1162.92437	0.51690
1160.99580	0.51750
1159.06724	0.51773
1157.13867	0.51767
1155.21011	0.51724
1153.28154	0.51611
1151.35298	0.51426
1149.42441	0.51215
1147.49585	0.51007
1145.56729	0.50785
1143.63872	0.50538
1141.71016	0.50291
1139.78159	0.50060
1137.85303	0.49857
1135.92446	0.49706
1133.99590	0.49608
1132.06733	0.49524
1130.13877	0.49441
1128.21021	0.49363
1126.28164	0.49287
1124.35308	0.49217
1122.42451	0.49171
1120.49595	0.49171
1118.56738	0.49212
1116.63882	0.49259
1114.71025	0.49319
1112.78169	0.49429
1110.85312	0.49551
1108.92456	0.49645
1106.99600	0.49729
1105.06743	0.49817
1103.13887	0.49922
1101.21030	0.50045
1099.28174	0.50164
1097.35317	0.50301
1095.42461	0.50525
1093.49604	0.50882
1091.56748	0.51383
1089.63892	0.52022
1087.71035	0.52790
1085.78179	0.53662
1083.85322	0.54558
1081.92466	0.55350
1079.99609	0.55912
1078.06753	0.56173
1076.13896	0.56152
1074.21040	0.55885
1072.28184	0.55384
1070.35327	0.54712
1068.42471	0.53968
1066.49614	0.53264
1064.56758	0.52666
1062.63901	0.52147
1060.71045	0.51670
1058.78188	0.51254
1056.85332	0.50904
1054.92476	0.50588
1052.99619	0.50310
1051.06763	0.50094
1049.13906	0.49930
1047.21050	0.49810
1045.28193	0.49760
1043.35337	0.49784
1041.42480	0.49843
1039.49624	0.49888
1037.56768	0.49915
1035.63911	0.49928
1033.71055	0.49901
1031.78198	0.49811
1029.85342	0.49679
1027.92485	0.49551
1025.99629	0.49419
1024.06772	0.49275
1022.13916	0.49174
1020.21060	0.49143
1018.28203	0.49134
1016.35347	0.49117
1014.42490	0.49104
1012.49634	0.49096
1010.56777	0.49077
1008.63921	0.49064
1006.71064	0.49116
1004.78208	0.49240
1002.85352	0.49404
1000.92495	0.49621
998.99639	0.49918
997.06782	0.50300
995.13926	0.50741
993.21069	0.51158
991.28213	0.51473
989.35356	0.51663
987.42500	0.51741
985.49644	0.51746
983.56787	0.51719
981.63931	0.51698
979.71074	0.51746
977.78218	0.51885
975.85361	0.52095
973.92505	0.52356
971.99648	0.52641
970.06792	0.52946
968.13936	0.53296
966.21079	0.53691
964.28223	0.54113
962.35366	0.54559
960.42510	0.55043
958.49653	0.55570
956.56797	0.56132
954.63940	0.56729
952.71084	0.57345
950.78228	0.57963
948.85371	0.58576
946.92515	0.59180
944.99658	0.59771
943.06802	0.60382
941.13945	0.61015
939.21089	0.61606
937.28232	0.62160
935.35376	0.62701
933.42520	0.63221
931.49663	0.63769
929.56807	0.64362
927.63950	0.64929
925.71094	0.65481
923.78237	0.66104
921.85381	0.66780
919.92524	0.67466
917.99668	0.68144
916.06812	0.68809
914.13955	0.69536
912.21099	0.70342
910.28242	0.71135
908.35386	0.71884
906.42529	0.72681
904.49673	0.73574
902.56816	0.74480
900.63960	0.75316
898.71104	0.76126
896.78247	0.77076
894.85391	0.78184
892.92534	0.79282
890.99678	0.80313
889.06821	0.81368
887.13965	0.82448
885.21108	0.83511
883.28252	0.84619
881.35396	0.85703
879.42539	0.86663
877.49683	0.87588
875.56826	0.88647
873.63970	0.89924
871.71113	0.91255
869.78257	0.92435
867.85400	0.93500
865.92544	0.94538
863.99687	0.95644
862.06831	0.96885
860.13975	0.98164
858.21118	0.99374
856.28262	1.00368
854.35405	1.01192
852.42549	1.02120
850.49692	1.03210
848.56836	1.04469
846.63979	1.05844
844.71123	1.07099
842.78267	1.08223
840.85410	1.09375
838.92554	1.10471
836.99697	1.11382
835.06841	1.12355
833.13984	1.13643
831.21128	1.14879
829.28271	1.15845
827.35415	1.16940
825.42559	1.18207
823.49702	1.19414
821.56846	1.20310
819.63989	1.20925
817.71133	1.21665
815.78276	1.22775
813.85420	1.24092
811.92563	1.25422
809.99707	1.26974
808.06851	1.28690
806.13994	1.30503
804.21138	1.32270
802.28281	1.33875
800.35425	1.36102
798.42568	1.40452
796.49712	1.45528
794.56855	1.45588
792.63999	1.43473
790.71143	1.46068
788.78286	1.51540
786.85430	1.54872
784.92573	1.56673
782.99717	1.56303
781.06860	1.49269
779.14004	1.42045
777.21147	1.42668
775.28291	1.52893
773.35435	1.65233
771.42578	1.58675
769.49722	1.44894
767.56865	1.41084
765.64009	1.42396
763.71152	1.37281
761.78296	1.33241
759.85439	1.39817
757.92583	1.52912
755.99727	1.73850
754.06870	1.99266
752.14014	1.59215
750.21157	1.35177
748.28301	1.22393
746.35444	1.24335
744.42588	1.51138
742.49731	1.51927
740.56875	1.14868
738.64019	0.97463
736.71162	0.89691
734.78306	0.81244
732.85449	0.68573
730.92593	0.60103
728.99736	0.61690
727.06880	0.58614
725.14023	0.32527
723.21167	0.06499
721.28311	-0.08338
719.35454	-0.14183
717.42598	-0.20094
715.49741	-0.23770
713.56885	-0.02204
711.64028	0.25913
709.71172	0.19967
707.78315	0.04509
705.85459	-0.02071
703.92603	-0.04742
701.99746	-0.04541
700.06890	-0.02756
698.14033	0.03789
696.21177	0.14785
694.28320	0.25467
692.35464	0.23255
690.42607	0.19065
688.49751	0.16125
686.56895	0.12468
684.64038	0.14217
682.71182	0.19780
680.78325	0.24924
678.85469	0.21480
676.92612	0.10320
674.99756	0.05162
673.06899	0.05565
671.14043	0.08201
669.21187	0.10553
667.28330	0.09379
665.35474	0.08583
663.42617	0.09776
661.49761	0.11021
659.56904	0.15936
657.64048	0.23588
655.71191	0.21457
653.78335	0.12958
651.85479	0.15472
649.92622	0.22289
647.99766	0.16004
646.06909	0.07834
644.14053	0.08354
642.21196	0.06173
640.28340	-0.00611
638.35483	-0.01740
636.42627	0.07332
634.49771	0.20237
632.56914	0.31330
630.64058	0.35916
628.71201	0.30685
626.78345	0.25602
624.85488	0.31976
622.92632	0.46973
620.99775	0.31763
619.06919	0.14324
617.14062	0.06283
615.21206	0.02261
613.28350	0.01706
611.35493	0.03837
609.42637	0.06553
607.49780	0.10181
605.56924	0.13888
603.64067	0.16181
601.71211	0.18107
599.78354	0.17776
597.85498	0.14501
595.92642	0.13743
593.99785	0.13428
592.06929	0.12267
590.14072	0.18537
588.21216	0.23851
586.28359	0.15387
584.35503	0.13165
582.42646	0.21314
580.49790	0.24738
578.56934	0.14754
576.64077	0.04391
574.71221	0.03232
572.78364	0.06201
570.85508	0.10227
568.92651	0.17695
566.99795	0.21520
565.06938	0.17834
563.14082	0.13140
561.21226	0.06413
559.28369	0.05328
557.35513	0.16092
555.42656	0.26177
553.49800	0.24154
551.56943	0.15427
549.64087	0.14296
547.71230	0.25313
545.78374	0.36641
543.85518	0.29615
541.92661	0.22727
539.99805	0.20555
538.06948	0.24084
536.14092	0.37260
534.21235	0.46248
532.28379	0.29791
530.35522	0.16936
528.42666	0.13575
526.49810	0.18201
524.56953	0.21808
522.64097	0.18452
520.71240	0.12489
518.78384	0.07427
516.85527	0.04759
514.92671	0.03018
512.99814	0.03521
511.06958	0.06780
509.14102	0.09920
507.21245	0.13230
505.28389	0.18491
503.35532	0.22585
501.42676	0.23709
499.49819	0.24561
