3997.91411	0.06474
3995.98555	0.06485
3994.05698	0.06535
3992.12842	0.06611
3990.19985	0.06681
3988.27129	0.06711
3986.34272	0.06715
3984.41416	0.06711
3982.48560	0.06686
3980.55703	0.06673
3978.62847	0.06714
3976.69990	0.06809
3974.77134	0.06892
3972.84277	0.06887
3970.91421	0.06834
3968.98564	0.06807
3967.05708	0.06824
3965.12852	0.06851
3963.19995	0.06871
3961.27139	0.06938
3959.34282	0.07025
3957.41426	0.07037
3955.48569	0.07005
3953.55713	0.06990
3951.62856	0.07007
3949.70000	0.07070
3947.77144	0.07131
3945.84287	0.07124
3943.91431	0.07099
3941.98574	0.07092
3940.05718	0.07034
3938.12861	0.06944
3936.20005	0.06916
3934.27148	0.06990
3932.34292	0.07126
3930.41436	0.07216
3928.48579	0.07174
3926.55723	0.07086
3924.62866	0.07076
3922.70010	0.07100
3920.77153	0.07071
3918.84297	0.07053
3916.91440	0.07093
3914.98584	0.07087
3913.05728	0.06962
3911.12871	0.06842
3909.20015	0.06833
3907.27158	0.06937
3905.34302	0.07128
3903.41445	0.07335
3901.48589	0.07437
3899.55732	0.07412
3897.62876	0.07287
3895.70020	0.07125
3893.77163	0.07049
3891.84307	0.07084
3889.91450	0.07113
3887.98594	0.07065
3886.05737	0.07098
3884.12881	0.07237
3882.20024	0.07315
3880.27168	0.07339
3878.34312	0.07288
3876.41455	0.07211
3874.48599	0.07277
3872.55742	0.07425
3870.62886	0.07525
3868.70029	0.07562
3866.77173	0.07540
3864.84316	0.07562
3862.91460	0.07612
3860.98604	0.07538
3859.05747	0.07446
3857.12891	0.07496
3855.20034	0.07679
3853.27178	0.07961
3851.34321	0.08123
3849.41465	0.07950
3847.48608	0.07735
3845.55752	0.07679
3843.62896	0.07814
3841.70039	0.08021
3839.77183	0.08201
3837.84326	0.08386
3835.91470	0.08484
3833.98613	0.08427
3832.05757	0.08361
3830.12900	0.08358
3828.20044	0.08399
3826.27187	0.08472
3824.34331	0.08558
3822.41475	0.08710
3820.48618	0.08980
3818.55762	0.09123
3816.62905	0.09107
3814.70049	0.09068
3812.77192	0.08970
3810.84336	0.08937
3808.91479	0.09070
3806.98623	0.09334
3805.05767	0.09567
3803.12910	0.09728
3801.20054	0.09968
3799.27197	0.10154
3797.34341	0.10152
3795.41484	0.10096
3793.48628	0.10019
3791.55771	0.10000
3789.62915	0.10086
3787.70059	0.10236
3785.77202	0.10439
3783.84346	0.10663
3781.91489	0.10838
3779.98633	0.11016
3778.05776	0.11202
3776.12920	0.11275
3774.20063	0.11333
3772.27207	0.11499
3770.34351	0.11770
3768.41494	0.12059
3766.48638	0.12256
3764.55781	0.12419
3762.62925	0.12594
3760.70068	0.12809
3758.77212	0.13114
3756.84355	0.13406
3754.91499	0.13609
3752.98643	0.13883
3751.05786	0.14398
3749.12930	0.14953
3747.20073	0.15177
3745.27217	0.15367
3743.34360	0.15795
3741.41504	0.16186
3739.48647	0.16455
3737.55791	0.16905
3735.62935	0.17689
3733.70078	0.18497
3731.77222	0.18898
3729.84365	0.19154
3727.91509	0.19531
3725.98652	0.20100
3724.05796	0.20763
3722.12939	0.21390
3720.20083	0.21990
3718.27227	0.22549
3716.34370	0.23115
3714.41514	0.23786
3712.48657	0.24793
3710.55801	0.26335
3708.62944	0.27864
3706.70088	0.28951
3704.77231	0.29989
3702.84375	0.31294
3700.91519	0.33025
3698.98662	0.34895
3697.05806	0.36624
3695.12949	0.38427
3693.20093	0.40347
3691.27236	0.42491
3689.34380	0.45327
3687.41523	0.48719
3685.48667	0.51597
3683.55811	0.54073
3681.62954	0.56776
3679.70098	0.59918
3677.77241	0.63307
3675.84385	0.67308
3673.91528	0.72608
3671.98672	0.76899
3670.05815	0.80756
3668.12959	0.86067
3666.20103	0.90809
3664.27246	0.94727
3662.34390	0.99036
3660.41533	1.03799
3658.48677	1.08467
3656.55820	1.13367
3654.62964	1.18911
3652.70107	1.23634
3650.77251	1.27746
3648.84395	1.33421
3646.91538	1.40324
3644.98682	1.45247
3643.05825	1.48977
3641.12969	1.52915
3639.20112	1.57416
3637.27256	1.62041
3635.34399	1.66516
3633.41543	1.70895
3631.48687	1.75016
3629.55830	1.79319
3627.62974	1.84856
3625.70117	1.89818
3623.77261	1.93110
3621.84404	1.96220
3619.91548	1.99764
3617.98691	2.04222
3616.05835	2.08722
3614.12979	2.12571
3612.20122	2.16510
3610.27266	2.20328
3608.34409	2.24230
3606.41553	2.28541
3604.48696	2.32511
3602.55840	2.35925
3600.62983	2.39625
3598.70127	2.43841
3596.77271	2.48033
3594.84414	2.52170
3592.91558	2.56325
3590.98701	2.60133
3589.05845	2.63558
3587.12988	2.67611
3585.20132	2.72216
3583.27275	2.76237
3581.34419	2.80091
3579.41562	2.84291
3577.48706	2.88617
3575.55850	2.92937
3573.62993	2.97392
3571.70137	3.01664
3569.77280	3.05648
3567.84424	3.09893
3565.91567	3.15088
3563.98711	3.20027
3562.05854	3.24093
3560.12998	3.28303
3558.20142	3.32795
3556.27285	3.37117
3554.34429	3.41123
3552.41572	3.45440
3550.48716	3.50101
3548.55859	3.54588
3546.63003	3.59277
3544.70146	3.64645
3542.77290	3.69787
3540.84434	3.74153
3538.91577	3.78415
3536.98721	3.82909
3535.05864	3.87774
3533.13008	3.92664
3531.20151	3.97251
3529.27295	4.01845
3527.34438	4.06960
3525.41582	4.12190
3523.48726	4.16968
3521.55869	4.21635
3519.63013	4.26241
3517.70156	4.30602
3515.77300	4.34814
3513.84443	4.39425
3511.91587	4.44861
3509.98730	4.50974
3508.05874	4.56773
3506.13018	4.61409
3504.20161	4.65458
3502.27305	4.69776
3500.34448	4.74328
3498.41592	4.78511
3496.48735	4.82746
3494.55879	4.87835
3492.63022	4.93255
3490.70166	4.98082
3488.77310	5.02876
3486.84453	5.07894
3484.91597	5.12353
3482.98740	5.16648
3481.05884	5.21388
3479.13027	5.26123
3477.20171	5.30662
3475.27314	5.35992
3473.34458	5.41906
3471.41602	5.46736
3469.48745	5.50453
3467.55889	5.53770
3465.63032	5.58229
3463.70176	5.64911
3461.77319	5.70990
3459.84463	5.74861
3457.91606	5.79145
3455.98750	5.85292
3454.05894	5.91829
3452.13037	5.97599
3450.20181	6.02145
3448.27324	6.06254
3446.34468	6.12251
3444.41611	6.18239
3442.48755	6.21583
3440.55898	6.24497
3438.63042	6.28919
3436.70186	6.33842
3434.77329	6.38468
3432.84473	6.43865
3430.91616	6.50329
3428.98760	6.55419
3427.05903	6.58559
3425.13047	6.62816
3423.20190	6.67326
3421.27334	6.71648
3419.34478	6.79066
3417.41621	6.88317
3415.48765	6.93492
3413.55908	6.94857
3411.63052	6.97129
3409.70195	7.00055
3407.77339	7.03510
3405.84482	7.07386
3403.91626	7.11224
3401.98770	7.16256
3400.05913	7.25009
3398.13057	7.35370
3396.20200	7.39142
3394.27344	7.36133
3392.34487	7.32219
3390.41631	7.30629
3388.48774	7.33060
3386.55918	7.40798
3384.63062	7.49875
3382.70205	7.57995
3380.77349	7.65504
3378.84492	7.70524
3376.91636	7.73484
3374.98779	7.72606
3373.05923	7.71524
3371.13066	7.73713
3369.20210	7.76020
3367.27354	7.77439
3365.34497	7.78353
3363.41641	7.77564
3361.48784	7.81327
3359.55928	7.90126
3357.63071	7.93311
3355.70215	7.92684
3353.77358	7.92367
3351.84502	7.93545
3349.91646	7.94773
3347.98789	7.95004
3346.05933	7.97743
3344.13076	8.02701
3342.20220	8.05607
3340.27363	8.05135
3338.34507	8.02370
3336.41650	7.96545
3334.48794	7.95240
3332.55937	7.97251
3330.63081	7.98635
3328.70225	8.04136
3326.77368	8.10508
3324.84512	8.11985
3322.91655	8.08210
3320.98799	8.04048
3319.05942	8.03092
3317.13086	8.07599
3315.20229	8.14358
3313.27373	8.19095
3311.34517	8.19094
3309.41660	8.12601
3307.48804	8.07743
3305.55947	8.08507
3303.63091	8.11977
3301.70234	8.15386
3299.77378	8.17235
3297.84521	8.18939
3295.91665	8.19966
3293.98809	8.14702
3292.05952	8.09939
3290.13096	8.13670
3288.20239	8.17121
3286.27383	8.13236
3284.34526	8.10169
3282.41670	8.18194
3280.48813	8.29862
3278.55957	8.31754
3276.63101	8.31363
3274.70244	8.36888
3272.77388	8.31958
3270.84531	8.17678
3268.91675	8.17853
3266.98818	8.25253
3265.05962	8.23882
3263.13105	8.22043
3261.20249	8.23948
3259.27393	8.20746
3257.34536	8.14115
3255.41680	8.10151
3253.48823	8.12420
3251.55967	8.25498
3249.63110	8.40366
3247.70254	8.47954
3245.77397	8.49995
3243.84541	8.42391
3241.91685	8.30086
3239.98828	8.22050
3238.05972	8.15643
3236.13115	8.12270
3234.20259	8.14577
3232.27402	8.16031
3230.34546	8.14700
3228.41689	8.14019
3226.48833	8.12753
3224.55977	8.04058
3222.63120	7.89841
3220.70264	7.84171
3218.77407	7.90749
3216.84551	7.97524
3214.91694	7.98231
3212.98838	7.98489
3211.05981	7.98130
3209.13125	7.93779
3207.20269	7.86556
3205.27412	7.77302
3203.34556	7.70918
3201.41699	7.71142
3199.48843	7.69315
3197.55986	7.61932
3195.63130	7.56785
3193.70273	7.55427
3191.77417	7.53690
3189.84561	7.50807
3187.91704	7.50043
3185.98848	7.46800
3184.05991	7.36150
3182.13135	7.26659
3180.20278	7.20462
3178.27422	7.13519
3176.34565	7.10254
3174.41709	7.10543
3172.48853	7.08263
3170.55996	7.04153
3168.63140	6.98908
3166.70283	6.90415
3164.77427	6.82139
3162.84570	6.75698
3160.91714	6.67144
3158.98857	6.57191
3157.06001	6.48951
3155.13145	6.43146
3153.20288	6.38905
3151.27432	6.33365
3149.34575	6.25625
3147.41719	6.17840
3145.48862	6.11088
3143.56006	6.04717
3141.63149	5.97957
3139.70293	5.91390
3137.77437	5.85380
3135.84580	5.78548
3133.91724	5.71002
3131.98867	5.64072
3130.06011	5.57875
3128.13154	5.51531
3126.20298	5.44512
3124.27441	5.37071
3122.34585	5.29318
3120.41729	5.21563
3118.48872	5.13925
3116.56016	5.06465
3114.63159	4.99353
3112.70303	4.92347
3110.77446	4.85415
3108.84590	4.78810
3106.91733	4.72374
3104.98877	4.65740
3103.06021	4.59229
3101.13164	4.52998
3099.20308	4.46625
3097.27451	4.39987
3095.34595	4.33312
3093.41738	4.26719
3091.48882	4.20122
3089.56025	4.13614
3087.63169	4.07317
3085.70312	4.01163
3083.77456	3.95011
3081.84600	3.88856
3079.91743	3.82839
3077.98887	3.76978
3076.06030	3.71126
3074.13174	3.65283
3072.20317	3.59586
3070.27461	3.53963
3068.34604	3.48211
3066.41748	3.42393
3064.48892	3.36781
3062.56035	3.31300
3060.63179	3.25806
3058.70322	3.20471
3056.77466	3.15365
3054.84609	3.10404
3052.91753	3.05439
3050.98896	3.00344
3049.06040	2.95164
3047.13184	2.90072
3045.20327	2.85157
3043.27471	2.80380
3041.34614	2.75648
3039.41758	2.70904
3037.48901	2.66210
3035.56045	2.61659
3033.63188	2.57260
3031.70332	2.52914
3029.77476	2.48542
3027.84619	2.44197
3025.91763	2.39919
3023.98906	2.35656
3022.06050	2.31439
3020.13193	2.27356
3018.20337	2.23374
3016.27480	2.19484
3014.34624	2.15741
3012.41768	2.12092
3010.48911	2.08408
3008.56055	2.04652
3006.63198	2.00933
3004.70342	1.97386
3002.77485	1.94006
3000.84629	1.90655
2998.91772	1.87294
2996.98916	1.84011
2995.06060	1.80814
2993.13203	1.77646
2991.20347	1.74542
2989.27490	1.71557
2987.34634	1.68647
2985.41777	1.65747
2983.48921	1.62872
2981.56064	1.60072
2979.63208	1.57366
2977.70352	1.54720
2975.77495	1.52095
2973.84639	1.49517
2971.91782	1.47018
2969.98926	1.44552
2968.06069	1.42083
2966.13213	1.39666
2964.20356	1.37344
2962.27500	1.35036
2960.34644	1.32657
2958.41787	1.30278
2956.48931	1.27974
2954.56074	1.25688
2952.63218	1.23387
2950.70361	1.21134
2948.77505	1.18942
2946.84648	1.16761
2944.91792	1.14616
2942.98936	1.12597
2941.06079	1.10695
2939.13223	1.08796
2937.20366	1.06839
2935.27510	1.04870
2933.34653	1.02964
2931.41797	1.01106
2929.48940	0.99253
2927.56084	0.97421
2925.63228	0.95627
2923.70371	0.93867
2921.77515	0.92149
2919.84658	0.90474
2917.91802	0.88833
2915.98945	0.87228
2914.06089	0.85667
2912.13232	0.84135
2910.20376	0.82607
2908.27520	0.81088
2906.34663	0.79628
2904.41807	0.78237
2902.48950	0.76879
2900.56094	0.75537
2898.63237	0.74242
2896.70381	0.72996
2894.77524	0.71772
2892.84668	0.70576
2890.91812	0.69407
2888.98955	0.68255
2887.06099	0.67139
2885.13242	0.66056
2883.20386	0.65010
2881.27529	0.63999
2879.34673	0.63016
2877.41816	0.62062
2875.48960	0.61106
2873.56104	0.60113
2871.63247	0.59092
2869.70391	0.58061
2867.77534	0.57019
2865.84678	0.55962
2863.91821	0.54887
2861.98965	0.53812
2860.06108	0.52781
2858.13252	0.51834
2856.20396	0.50962
2854.27539	0.50121
2852.34683	0.49270
2850.41826	0.48407
2848.48970	0.47575
2846.56113	0.46784
2844.63257	0.46023
2842.70400	0.45330
2840.77544	0.44712
2838.84687	0.44117
2836.91831	0.43514
2834.98975	0.42911
2833.06118	0.42321
2831.13262	0.41744
2829.20405	0.41168
2827.27549	0.40571
2825.34692	0.39962
2823.41836	0.39369
2821.48979	0.38785
2819.56123	0.38204
2817.63267	0.37646
2815.70410	0.37111
2813.77554	0.36573
2811.84697	0.36026
2809.91841	0.35495
2807.98984	0.34986
2806.06128	0.34480
2804.13271	0.33991
2802.20415	0.33534
2800.27559	0.33073
2798.34702	0.32585
2796.41846	0.32102
2794.48989	0.31654
2792.56133	0.31234
2790.63276	0.30824
2788.70420	0.30406
2786.77563	0.29970
2784.84707	0.29539
2782.91851	0.29141
2780.98994	0.28760
2779.06138	0.28379
2777.13281	0.28000
2775.20425	0.27624
2773.27568	0.27256
2771.34712	0.26895
2769.41855	0.26536
2767.48999	0.26178
2765.56143	0.25834
2763.63286	0.25510
2761.70430	0.25194
2759.77573	0.24883
2757.84717	0.24581
2755.91860	0.24288
2753.99004	0.24001
2752.06147	0.23710
2750.13291	0.23419
2748.20435	0.23137
2746.27578	0.22859
2744.34722	0.22585
2742.41865	0.22327
2740.49009	0.22092
2738.56152	0.21854
2736.63296	0.21599
2734.70439	0.21350
2732.77583	0.21119
2730.84727	0.20895
2728.91870	0.20676
2726.99014	0.20463
2725.06157	0.20255
2723.13301	0.20050
2721.20444	0.19855
2719.27588	0.19661
2717.34731	0.19464
2715.41875	0.19264
2713.49019	0.19072
2711.56162	0.18905
2709.63306	0.18752
2707.70449	0.18592
2705.77593	0.18429
2703.84736	0.18276
2701.91880	0.18128
2699.99023	0.17989
2698.06167	0.17859
2696.13311	0.17719
2694.20454	0.17569
2692.27598	0.17430
2690.34741	0.17307
2688.41885	0.17187
2686.49028	0.17064
2684.56172	0.16937
2682.63315	0.16806
2680.70459	0.16684
2678.77603	0.16586
2676.84746	0.16499
2674.91890	0.16400
2672.99033	0.16283
2671.06177	0.16172
2669.13320	0.16082
2667.20464	0.16001
2665.27607	0.15921
2663.34751	0.15837
2661.41895	0.15734
2659.49038	0.15624
2657.56182	0.15544
2655.63325	0.15491
2653.70469	0.15430
2651.77612	0.15352
2649.84756	0.15287
2647.91899	0.15250
2645.99043	0.15219
2644.06187	0.15169
2642.13330	0.15106
2640.20474	0.15046
2638.27617	0.14990
2636.34761	0.14933
2634.41904	0.14885
2632.49048	0.14852
2630.56191	0.14817
2628.63335	0.14775
2626.70479	0.14747
2624.77622	0.14718
2622.84766	0.14673
2620.91909	0.14641
2618.99053	0.14633
2617.06196	0.14624
2615.13340	0.14610
2613.20483	0.14595
2611.27627	0.14573
2609.34771	0.14550
2607.41914	0.14538
2605.49058	0.14535
2603.56201	0.14537
2601.63345	0.14545
2599.70488	0.14552
2597.77632	0.14553
2595.84775	0.14552
2593.91919	0.14558
2591.99062	0.14572
2590.06206	0.14583
2588.13350	0.14594
2586.20493	0.14613
2584.27637	0.14632
2582.34780	0.14646
2580.41924	0.14670
2578.49067	0.14712
2576.56211	0.14753
2574.63354	0.14780
2572.70498	0.14799
2570.77642	0.14822
2568.84785	0.14856
2566.91929	0.14905
2564.99072	0.14951
2563.06216	0.14980
2561.13359	0.15013
2559.20503	0.15066
2557.27646	0.15122
2555.34790	0.15173
2553.41934	0.15221
2551.49077	0.15263
2549.56221	0.15308
2547.63364	0.15366
2545.70508	0.15431
2543.77651	0.15492
2541.84795	0.15550
2539.91938	0.15602
2537.99082	0.15655
2536.06226	0.15725
2534.13369	0.15801
2532.20513	0.15870
2530.27656	0.15931
2528.34800	0.15991
2526.41943	0.16060
2524.49087	0.16143
2522.56230	0.16229
2520.63374	0.16304
2518.70518	0.16369
2516.77661	0.16434
2514.84805	0.16509
2512.91948	0.16598
2510.99092	0.16688
2509.06235	0.16766
2507.13379	0.16834
2505.20522	0.16898
2503.27666	0.16970
2501.34810	0.17052
2499.41953	0.17134
2497.49097	0.17215
2495.56240	0.17296
2493.63384	0.17375
2491.70527	0.17455
2489.77671	0.17545
2487.84814	0.17637
2485.91958	0.17714
2483.99102	0.17784
2482.06245	0.17866
2480.13389	0.17961
2478.20532	0.18066
2476.27676	0.18174
2474.34819	0.18269
2472.41963	0.18350
2470.49106	0.18431
2468.56250	0.18522
2466.63394	0.18621
2464.70537	0.18716
2462.77681	0.18800
2460.84824	0.18880
2458.91968	0.18959
2456.99111	0.19038
2455.06255	0.19138
2453.13398	0.19256
2451.20542	0.19365
2449.27686	0.19467
2447.34829	0.19571
2445.41973	0.19671
2443.49116	0.19771
2441.56260	0.19868
2439.63403	0.19957
2437.70547	0.20044
2435.77690	0.20133
2433.84834	0.20223
2431.91978	0.20314
2429.99121	0.20419
2428.06265	0.20540
2426.13408	0.20653
2424.20552	0.20754
2422.27695	0.20851
2420.34839	0.20948
2418.41982	0.21063
2416.49126	0.21191
2414.56270	0.21307
2412.63413	0.21416
2410.70557	0.21534
2408.77700	0.21653
2406.84844	0.21771
2404.91987	0.21890
2402.99131	0.22004
2401.06274	0.22119
2399.13418	0.22233
2397.20562	0.22341
2395.27705	0.22459
2393.34849	0.22601
2391.41992	0.22751
2389.49136	0.22904
2387.56279	0.23080
2385.63423	0.23332
2383.70566	0.23714
2381.77710	0.24224
2379.84854	0.24825
2377.91997	0.25522
2375.99141	0.26326
2374.06284	0.27237
2372.13428	0.28276
2370.20571	0.29434
2368.27715	0.30588
2366.34858	0.31682
2364.42002	0.32707
2362.49146	0.33624
2360.56289	0.34295
2358.63433	0.34371
2356.70576	0.33839
2354.77720	0.33040
2352.84863	0.32073
2350.92007	0.31070
2348.99150	0.30509
2347.06294	0.30603
2345.13437	0.31361
2343.20581	0.32465
2341.27725	0.33152
2339.34868	0.33282
2337.42012	0.33239
2335.49155	0.33207
2333.56299	0.33165
2331.63442	0.33168
2329.70586	0.33220
2327.77729	0.33211
2325.84873	0.33053
2323.92017	0.32798
2321.99160	0.32529
2320.06304	0.32238
2318.13447	0.31933
2316.20591	0.31673
2314.27734	0.31507
2312.34878	0.31452
2310.42021	0.31449
2308.49165	0.31391
2306.56309	0.31268
2304.63452	0.31157
2302.70596	0.31126
2300.77739	0.31177
2298.84883	0.31254
2296.92026	0.31328
2294.99170	0.31396
2293.06313	0.31457
2291.13457	0.31510
2289.20601	0.31567
2287.27744	0.31633
2285.34888	0.31714
2283.42031	0.31833
2281.49175	0.32010
2279.56318	0.32231
2277.63462	0.32458
2275.70605	0.32674
2273.77749	0.32888
2271.84893	0.33108
2269.92036	0.33329
2267.99180	0.33543
2266.06323	0.33742
2264.13467	0.33930
2262.20610	0.34117
2260.27754	0.34298
2258.34897	0.34477
2256.42041	0.34673
2254.49185	0.34878
2252.56328	0.35072
2250.63472	0.35261
2248.70615	0.35456
2246.77759	0.35656
2244.84902	0.35859
2242.92046	0.36064
2240.99189	0.36270
2239.06333	0.36476
2237.13477	0.36683
2235.20620	0.36901
2233.27764	0.37121
2231.34907	0.37339
2229.42051	0.37572
2227.49194	0.37808
2225.56338	0.38021
2223.63481	0.38218
2221.70625	0.38423
2219.77769	0.38642
2217.84912	0.38864
2215.92056	0.39086
2213.99199	0.39309
2212.06343	0.39527
2210.13486	0.39737
2208.20630	0.39949
2206.27773	0.40161
2204.34917	0.40354
2202.42061	0.40531
2200.49204	0.40723
2198.56348	0.40930
2196.63491	0.41125
2194.70635	0.41312
2192.77778	0.41512
2190.84922	0.41717
2188.92065	0.41911
2186.99209	0.42099
2185.06353	0.42275
2183.13496	0.42440
2181.20640	0.42605
2179.27783	0.42771
2177.34927	0.42933
2175.42070	0.43091
2173.49214	0.43244
2171.56357	0.43396
2169.63501	0.43538
2167.70645	0.43664
2165.77788	0.43794
2163.84932	0.43922
2161.92075	0.44031
2159.99219	0.44133
2158.06362	0.44234
2156.13506	0.44327
2154.20649	0.44405
2152.27793	0.44475
2150.34937	0.44550
2148.42080	0.44632
2146.49224	0.44706
2144.56367	0.44758
2142.63511	0.44808
2140.70654	0.44860
2138.77798	0.44893
2136.84941	0.44906
2134.92085	0.44918
2132.99229	0.44930
2131.06372	0.44937
2129.13516	0.44923
2127.20659	0.44892
2125.27803	0.44864
2123.34946	0.44836
2121.42090	0.44790
2119.49233	0.44728
2117.56377	0.44668
2115.63521	0.44611
2113.70664	0.44542
2111.77808	0.44458
2109.84951	0.44371
2107.92095	0.44279
2105.99238	0.44176
2104.06382	0.44068
2102.13525	0.43951
2100.20669	0.43827
2098.27812	0.43701
2096.34956	0.43566
2094.42100	0.43413
2092.49243	0.43255
2090.56387	0.43107
2088.63530	0.42947
2086.70674	0.42771
2084.77817	0.42591
2082.84961	0.42411
2080.92104	0.42221
2078.99248	0.42029
2077.06392	0.41832
2075.13535	0.41630
2073.20679	0.41425
2071.27822	0.41210
2069.34966	0.40990
2067.42109	0.40779
2065.49253	0.40566
2063.56396	0.40334
2061.63540	0.40089
2059.70684	0.39831
2057.77827	0.39566
2055.84971	0.39316
2053.92114	0.39073
2051.99258	0.38834
2050.06401	0.38590
2048.13545	0.38333
2046.20688	0.38070
2044.27832	0.37812
2042.34976	0.37556
2040.42119	0.37292
2038.49263	0.37019
2036.56406	0.36744
2034.63550	0.36476
2032.70693	0.36219
2030.77837	0.35960
2028.84980	0.35683
2026.92124	0.35395
2024.99268	0.35114
2023.06411	0.34847
2021.13555	0.34589
2019.20698	0.34340
2017.27842	0.34081
2015.34985	0.33792
2013.42129	0.33501
2011.49272	0.33232
2009.56416	0.32976
2007.63560	0.32717
2005.70703	0.32447
2003.77847	0.32171
2001.84990	0.31898
1999.92134	0.31631
1997.99277	0.31382
1996.06421	0.31142
1994.13564	0.30895
1992.20708	0.30645
1990.27852	0.30399
1988.34995	0.30166
1986.42139	0.29929
1984.49282	0.29684
1982.56426	0.29441
1980.63569	0.29199
1978.70713	0.28964
1976.77856	0.28738
1974.85000	0.28518
1972.92144	0.28306
1970.99287	0.28106
1969.06431	0.27920
1967.13574	0.27734
1965.20718	0.27525
1963.27861	0.27305
1961.35005	0.27104
1959.42148	0.26922
1957.49292	0.26746
1955.56436	0.26567
1953.63579	0.26388
1951.70723	0.26212
1949.77866	0.26050
1947.85010	0.25905
1945.92153	0.25774
1943.99297	0.25651
1942.06440	0.25509
1940.13584	0.25328
1938.20728	0.25147
1936.27871	0.25000
1934.35015	0.24879
1932.42158	0.24764
1930.49302	0.24648
1928.56445	0.24540
1926.63589	0.24437
1924.70732	0.24354
1922.77876	0.24288
1920.85020	0.24199
1918.92163	0.24099
1916.99307	0.23994
1915.06450	0.23871
1913.13594	0.23761
1911.20737	0.23701
1909.27881	0.23658
1907.35024	0.23589
1905.42168	0.23501
1903.49312	0.23426
1901.56455	0.23370
1899.63599	0.23323
1897.70742	0.23280
1895.77886	0.23244
1893.85029	0.23207
1891.92173	0.23170
1889.99316	0.23158
1888.06460	0.23139
1886.13604	0.23100
1884.20747	0.23074
1882.27891	0.23055
1880.35034	0.23030
1878.42178	0.23007
1876.49321	0.22996
1874.56465	0.22994
1872.63608	0.23016
1870.70752	0.23080
1868.77896	0.23186
1866.85039	0.23229
1864.92183	0.23184
1862.99326	0.23147
1861.06470	0.23152
1859.13613	0.23185
1857.20757	0.23216
1855.27900	0.23245
1853.35044	0.23277
1851.42187	0.23326
1849.49331	0.23398
1847.56475	0.23496
1845.63618	0.23619
1843.70762	0.23744
1841.77905	0.23796
1839.85049	0.23802
1837.92192	0.23863
1835.99336	0.23956
1834.06479	0.24044
1832.13623	0.24159
1830.20767	0.24342
1828.27910	0.24502
1826.35054	0.24588
1824.42197	0.24697
1822.49341	0.24802
1820.56484	0.24901
1818.63628	0.25024
1816.70771	0.25179
1814.77915	0.25334
1812.85059	0.25514
1810.92202	0.25737
1808.99346	0.25950
1807.06489	0.26134
1805.13633	0.26320
1803.20776	0.26550
1801.27920	0.26819
1799.35063	0.27102
1797.42207	0.27337
1795.49351	0.27565
1793.56494	0.27862
1791.63638	0.28248
1789.70781	0.28569
1787.77925	0.28783
1785.85068	0.29072
1783.92212	0.29447
1781.99355	0.29860
1780.06499	0.30290
1778.13643	0.30708
1776.20786	0.31106
1774.27930	0.31565
1772.35073	0.32185
1770.42217	0.32807
1768.49360	0.33287
1766.56504	0.33756
1764.63647	0.34269
1762.70791	0.34863
1760.77935	0.35602
1758.85078	0.36274
1756.92222	0.36965
1754.99365	0.37738
1753.06509	0.38452
1751.13652	0.39323
1749.20796	0.40410
1747.27939	0.41447
1745.35083	0.42339
1743.42227	0.43284
1741.49370	0.44329
1739.56514	0.45563
1737.63657	0.46789
1735.70801	0.47869
1733.77944	0.49537
1731.85088	0.51512
1729.92231	0.53022
1727.99375	0.54531
1726.06519	0.56156
1724.13662	0.57954
1722.20806	0.59927
1720.27949	0.61774
1718.35093	0.63957
1716.42236	0.67170
1714.49380	0.70170
1712.56523	0.72565
1710.63667	0.74910
1708.70811	0.77474
1706.77954	0.80400
1704.85098	0.83873
1702.92241	0.86971
1700.99385	0.90081
1699.06528	0.94740
1697.13672	0.98984
1695.20815	1.03268
1693.27959	1.07424
1691.35103	1.10818
1689.42246	1.14783
1687.49390	1.18986
1685.56533	1.23056
1683.63677	1.29324
1681.70820	1.35782
1679.77964	1.39911
1677.85107	1.43895
1675.92251	1.48513
1673.99395	1.54208
1672.06538	1.59260
1670.13682	1.64220
1668.20825	1.70642
1666.27969	1.75857
1664.35112	1.80331
1662.42256	1.85976
1660.49399	1.92263
1658.56543	1.97077
1656.63687	2.00941
1654.70830	2.04547
1652.77974	2.10319
1650.85117	2.15830
1648.92261	2.18000
1646.99404	2.20803
1645.06548	2.23616
1643.13691	2.25362
1641.20835	2.26520
1639.27979	2.27586
1637.35122	2.28339
1635.42266	2.28673
1633.49409	2.28117
1631.56553	2.26680
1629.63696	2.24897
1627.70840	2.22164
1625.77983	2.18993
1623.85127	2.14871
1621.92271	2.09783
1619.99414	2.05280
1618.06558	2.00922
1616.13701	1.94661
1614.20845	1.88139
1612.27988	1.83146
1610.35132	1.78006
1608.42275	1.72459
1606.49419	1.67008
1604.56562	1.62020
1602.63706	1.57268
1600.70850	1.52653
1598.77993	1.48351
1596.85137	1.44247
1594.92280	1.40223
1592.99424	1.36301
1591.06567	1.32696
1589.13711	1.29323
1587.20854	1.26185
1585.27998	1.23287
1583.35142	1.20564
1581.42285	1.18079
1579.49429	1.15977
1577.56572	1.14099
1575.63716	1.11803
1573.70859	1.09759
1571.78003	1.08458
1569.85146	1.07165
1567.92290	1.05693
1565.99434	1.04544
1564.06577	1.03673
1562.13721	1.03030
1560.20864	1.02660
1558.28008	1.02266
1556.35151	1.01817
1554.42295	1.01475
1552.49438	1.01154
1550.56582	1.00730
1548.63726	1.00108
1546.70869	0.99404
1544.78013	0.98605
1542.85156	0.97611
1540.92300	0.96159
1538.99443	0.93773
1537.06587	0.91961
1535.13730	0.90786
1533.20874	0.89265
1531.28018	0.87555
1529.35161	0.86300
1527.42305	0.85170
1525.49448	0.83999
1523.56592	0.83027
1521.63735	0.82135
1519.70879	0.81138
1517.78022	0.80236
1515.85166	0.79217
1513.92310	0.78165
1511.99453	0.77296
1510.06597	0.76566
1508.13740	0.75909
1506.20884	0.74813
1504.28027	0.73718
1502.35171	0.73079
1500.42314	0.72569
1498.49458	0.72064
1496.56602	0.71447
1494.63745	0.70794
1492.70889	0.70310
1490.78032	0.69949
1488.85176	0.69537
1486.92319	0.69080
1484.99463	0.68692
1483.06606	0.68408
1481.13750	0.68193
1479.20894	0.68024
1477.28037	0.67940
1475.35181	0.67937
1473.42324	0.67948
1471.49468	0.67847
1469.56611	0.67609
1467.63755	0.67351
1465.70898	0.67148
1463.78042	0.66999
1461.85186	0.66886
1459.92329	0.66843
1457.99473	0.66839
1456.06616	0.66664
1454.13760	0.66337
1452.20903	0.66044
1450.28047	0.65761
1448.35190	0.65472
1446.42334	0.65169
1444.49478	0.64889
1442.56621	0.64644
1440.63765	0.64404
1438.70908	0.64182
1436.78052	0.63943
1434.85195	0.63634
1432.92339	0.63347
1430.99482	0.63132
1429.06626	0.62978
1427.13770	0.62900
1425.20913	0.62886
1423.28057	0.62889
1421.35200	0.62877
1419.42344	0.62870
1417.49487	0.62805
1415.56631	0.62638
1413.63774	0.62497
1411.70918	0.62435
1409.78062	0.62431
1407.85205	0.62466
1405.92349	0.62533
1403.99492	0.62578
1402.06636	0.62541
1400.13779	0.62460
1398.20923	0.62337
1396.28066	0.62136
1394.35210	0.61846
1392.42354	0.61508
1390.49497	0.61200
1388.56641	0.60909
1386.63784	0.60557
1384.70928	0.60163
1382.78071	0.59808
1380.85215	0.59499
1378.92358	0.59241
1376.99502	0.59051
1375.06646	0.58915
1373.13789	0.58785
1371.20933	0.58653
1369.28076	0.58547
1367.35220	0.58435
1365.42363	0.58310
1363.49507	0.58188
1361.56650	0.58058
1359.63794	0.57911
1357.70937	0.57779
1355.78081	0.57667
1353.85225	0.57560
1351.92368	0.57464
1349.99512	0.57394
1348.06655	0.57333
1346.13799	0.57253
1344.20942	0.57170
1342.28086	0.57111
1340.35229	0.57075
1338.42373	0.57009
1336.49517	0.56896
1334.56660	0.56792
1332.63804	0.56732
1330.70947	0.56715
1328.78091	0.56716
1326.85234	0.56729
1324.92378	0.56752
1322.99521	0.56778
1321.06665	0.56806
1319.13809	0.56833
1317.20952	0.56834
1315.28096	0.56802
1313.35239	0.56756
1311.42383	0.56700
1309.49526	0.56625
1307.56670	0.56546
1305.63813	0.56473
1303.70957	0.56400
1301.78101	0.56327
1299.85244	0.56253
1297.92388	0.56173
1295.99531	0.56086
1294.06675	0.55982
1292.13818	0.55872
1290.20962	0.55779
1288.28105	0.55698
1286.35249	0.55607
1284.42393	0.55512
1282.49536	0.55421
1280.56680	0.55329
1278.63823	0.55230
1276.70967	0.55132
1274.78110	0.55032
1272.85254	0.54932
1270.92397	0.54851
1268.99541	0.54795
1267.06685	0.54750
1265.13828	0.54693
1263.20972	0.54627
1261.28115	0.54564
1259.35259	0.54500
1257.42402	0.54433
1255.49546	0.54385
1253.56689	0.54369
1251.63833	0.54363
1249.70977	0.54355
1247.78120	0.54344
1245.85264	0.54327
1243.92407	0.54294
1241.99551	0.54222
1240.06694	0.54110
1238.13838	0.53983
1236.20981	0.53847
1234.28125	0.53693
1232.35269	0.53521
1230.42412	0.53346
1228.49556	0.53190
1226.56699	0.53044
1224.63843	0.52896
1222.70986	0.52754
1220.78130	0.52632
1218.85273	0.52529
1216.92417	0.52430
1214.99561	0.52335
1213.06704	0.52265
1211.13848	0.52216
1209.20991	0.52164
1207.28135	0.52103
1205.35278	0.52028
1203.42422	0.51942
1201.49565	0.51854
1199.56709	0.51781
1197.63853	0.51729
1195.70996	0.51678
1193.78140	0.51616
1191.85283	0.51553
1189.92427	0.51512
1187.99570	0.51498
1186.06714	0.51483
1184.13857	0.51471
1182.21001	0.51496
1180.28145	0.51564
1178.35288	0.51662
1176.42432	0.51781
1174.49575	0.51895
1172.56719	0.51994
1170.63862	0.52072
1168.71006	0.52122
1166.78149	0.52155
1164.85293	0.52173
1162.92437	0.52177
1160.99580	0.52178
1159.06724	0.52166
1157.13867	0.52130
1155.21011	0.52069
1153.28154	0.51958
1151.35298	0.51774
1149.42441	0.51534
1147.49585	0.51266
1145.56729	0.51001
1143.63872	0.50745
1141.71016	0.50493
1139.78159	0.50271
1137.85303	0.50099
1135.92446	0.49978
1133.99590	0.49896
1132.06733	0.49808
1130.13877	0.49710
1128.21021	0.49631
1126.28164	0.49552
1124.35308	0.49457
1122.42451	0.49386
1120.49595	0.49351
1118.56738	0.49332
1116.63882	0.49335
1114.71025	0.49373
1112.78169	0.49429
1110.85312	0.49492
1108.92456	0.49568
1106.99600	0.49663
1105.06743	0.49769
1103.13887	0.49879
1101.21030	0.50012
1099.28174	0.50183
1097.35317	0.50398
1095.42461	0.50672
1093.49604	0.51025
1091.56748	0.51490
1089.63892	0.52073
1087.71035	0.52741
1085.78179	0.53460
1083.85322	0.54203
1081.92466	0.54902
1079.99609	0.55441
1078.06753	0.55740
1076.13896	0.55784
1074.21040	0.55573
1072.28184	0.55130
1070.35327	0.54522
1068.42471	0.53815
1066.49614	0.53086
1064.56758	0.52426
1062.63901	0.51867
1060.71045	0.51370
1058.78188	0.50917
1056.85332	0.50514
1054.92476	0.50151
1052.99619	0.49830
1051.06763	0.49583
1049.13906	0.49424
1047.21050	0.49322
1045.28193	0.49232
1043.35337	0.49162
1041.42480	0.49118
1039.49624	0.49077
1037.56768	0.49037
1035.63911	0.49004
1033.71055	0.48968
1031.78198	0.48916
1029.85342	0.48835
1027.92485	0.48724
1025.99629	0.48625
1024.06772	0.48572
1022.13916	0.48560
1020.21060	0.48583
1018.28203	0.48613
1016.35347	0.48628
1014.42490	0.48646
1012.49634	0.48690
1010.56777	0.48750
1008.63921	0.48819
1006.71064	0.48901
1004.78208	0.49018
1002.85352	0.49192
1000.92495	0.49432
998.99639	0.49741
997.06782	0.50122
995.13926	0.50548
993.21069	0.50958
991.28213	0.51281
989.35356	0.51484
987.42500	0.51591
985.49644	0.51657
983.56787	0.51710
981.63931	0.51767
979.71074	0.51858
977.78218	0.52001
975.85361	0.52198
973.92505	0.52455
971.99648	0.52756
970.06792	0.53072
968.13936	0.53412
966.21079	0.53804
964.28223	0.54241
962.35366	0.54708
960.42510	0.55207
958.49653	0.55736
956.56797	0.56291
954.63940	0.56891
952.71084	0.57517
950.78228	0.58128
948.85371	0.58721
946.92515	0.59317
944.99658	0.59935
943.06802	0.60569
941.13945	0.61170
939.21089	0.61725
937.28232	0.62288
935.35376	0.62892
933.42520	0.63496
931.49663	0.64048
929.56807	0.64582
927.63950	0.65150
925.71094	0.65743
923.78237	0.66342
921.85381	0.66962
919.92524	0.67621
917.99668	0.68330
916.06812	0.69069
914.13955	0.69783
912.21099	0.70469
910.28242	0.71208
908.35386	0.72034
906.42529	0.72858
904.49673	0.73692
902.56816	0.74644
900.63960	0.75639
898.71104	0.76548
896.78247	0.77418
894.85391	0.78397
892.92534	0.79405
890.99678	0.80310
889.06821	0.81307
887.13965	0.82469
885.21108	0.83654
883.28252	0.84857
881.35396	0.86035
879.42539	0.87123
877.49683	0.88203
875.56826	0.89309
873.63970	0.90368
871.71113	0.91332
869.78257	0.92339
867.85400	0.93572
865.92544	0.94859
863.99687	0.96021
862.06831	0.97159
860.13975	0.98270
858.21118	0.99331
856.28262	1.00461
854.35405	1.01745
852.42549	1.03042
850.49692	1.04235
848.56836	1.05369
846.63979	1.06531
844.71123	1.07808
842.78267	1.09002
840.85410	1.10000
838.92554	1.10905
836.99697	1.11738
835.06841	1.12555
833.13984	1.13535
831.21128	1.14976
829.28271	1.16800
827.35415	1.18510
825.42559	1.19860
823.49702	1.20892
821.56846	1.21424
819.63989	1.21617
817.71133	1.22508
815.78276	1.24565
813.85420	1.26772
811.92563	1.27989
809.99707	1.28195
808.06851	1.28306
806.13994	1.29496
804.21138	1.31692
802.28281	1.33761
800.35425	1.34365
798.42568	1.33107
796.49712	1.31137
794.56855	1.30244
792.63999	1.32691
790.71143	1.38078
788.78286	1.43799
786.85430	1.47281
784.92573	1.43971
782.99717	1.38136
781.06860	1.38016
779.14004	1.43061
777.21147	1.47383
775.28291	1.47860
773.35435	1.47854
771.42578	1.53582
769.49722	1.59486
767.56865	1.50971
765.64009	1.40545
763.71152	1.34601
761.78296	1.28596
759.85439	1.28028
757.92583	1.36508
755.99727	1.43693
754.06870	1.37953
752.14014	1.25177
750.21157	1.22151
748.28301	1.47275
746.35444	4.47813
744.42588	4.46656
742.49731	1.43764
740.56875	1.39391
738.64019	1.87737
736.71162	1.60879
734.78306	1.11935
732.85449	0.97673
730.92593	0.88031
728.99736	0.69628
727.06880	0.58384
725.14023	0.50732
723.21167	0.28923
721.28311	0.08736
719.35454	0.04088
717.42598	0.11445
715.49741	0.27399
713.56885	0.48683
711.64028	0.42980
709.71172	0.25922
707.78315	0.25217
705.85459	0.54624
703.92603	1.49913
701.99746	0.81308
700.06890	0.58498
698.14033	0.59638
696.21177	0.43256
694.28320	0.26643
692.35464	0.24370
690.42607	0.32171
688.49751	0.45407
686.56895	0.59298
684.64038	0.43426
682.71182	0.31175
680.78325	0.39954
678.85469	0.78076
676.92612	1.11209
674.99756	0.65778
673.06899	0.47871
671.14043	0.43043
669.21187	0.49029
667.28330	0.66371
665.35474	0.71177
663.42617	0.63489
661.49761	0.63986
659.56904	0.54270
657.64048	0.48409
655.71191	0.52922
653.78335	0.51344
651.85479	0.43185
649.92622	0.37264
647.99766	0.32365
646.06909	0.33418
644.14053	0.44601
642.21196	0.52996
640.28340	0.39833
638.35483	0.29875
636.42627	0.30014
634.49771	0.33667
632.56914	0.38844
630.64058	0.50345
628.71201	0.48793
626.78345	0.37318
624.85488	0.34345
622.92632	0.32635
620.99775	0.27082
619.06919	0.29190
617.14062	0.38312
615.21206	0.36102
613.28350	0.28836
611.35493	0.28135
609.42637	0.30697
607.49780	0.30375
605.56924	0.27463
603.64067	0.23598
601.71211	0.23837
599.78354	0.43625
597.85498	1.45179
595.92642	0.76540
593.99785	0.42834
592.06929	0.34869
590.14072	0.34132
588.21216	0.30807
586.28359	0.30108
584.35503	0.51834
582.42646	3.49456
580.49790	0.64007
578.56934	0.44915
576.64077	0.43057
574.71221	0.47693
572.78364	0.50530
570.85508	0.41992
568.92651	0.37284
566.99795	0.47927
565.06938	1.65044
563.14082	3.37884
561.21226	0.57418
559.28369	0.44930
557.35513	0.40650
555.42656	0.36297
553.49800	0.37984
551.56943	0.41958
549.64087	0.39439
547.71230	0.37150
545.78374	0.37005
543.85518	0.34311
541.92661	0.29879
539.99805	0.29023
538.06948	0.33309
536.14092	0.43076
534.21235	0.64623
532.28379	0.65062
530.35522	0.40663
528.42666	0.31970
526.49810	0.38489
524.56953	0.46874
522.64097	0.40408
520.71240	0.32360
518.78384	0.33771
516.85527	0.41432
514.92671	0.43257
512.99814	0.39907
511.06958	0.40463
509.14102	0.47433
507.21245	0.50898
505.28389	0.39041
503.35532	0.25728
501.42676	0.19162
499.49819	0.17735
