3997.91411	0.06665
3995.98555	0.06687
3994.05698	0.06722
3992.12842	0.06777
3990.19985	0.06838
3988.27129	0.06881
3986.34272	0.06913
3984.41416	0.06944
3982.48560	0.06944
3980.55703	0.06926
3978.62847	0.06936
3976.69990	0.06967
3974.77134	0.07005
3972.84277	0.07032
3970.91421	0.07024
3968.98564	0.07001
3967.05708	0.07003
3965.12852	0.07029
3963.19995	0.07045
3961.27139	0.07045
3959.34282	0.07063
3957.41426	0.07087
3955.48569	0.07100
3953.55713	0.07138
3951.62856	0.07172
3949.70000	0.07135
3947.77144	0.07039
3945.84287	0.06964
3943.91431	0.06960
3941.98574	0.07017
3940.05718	0.07083
3938.12861	0.07101
3936.20005	0.07078
3934.27148	0.07049
3932.34292	0.07039
3930.41436	0.07054
3928.48579	0.07062
3926.55723	0.07030
3924.62866	0.07003
3922.70010	0.07034
3920.77153	0.07064
3918.84297	0.07036
3916.91440	0.07000
3914.98584	0.07005
3913.05728	0.07044
3911.12871	0.07086
3909.20015	0.07077
3907.27158	0.06997
3905.34302	0.06892
3903.41445	0.06814
3901.48589	0.06797
3899.55732	0.06852
3897.62876	0.06939
3895.70020	0.06977
3893.77163	0.06967
3891.84307	0.06976
3889.91450	0.07020
3887.98594	0.06995
3886.05737	0.06911
3884.12881	0.06917
3882.20024	0.06980
3880.27168	0.06996
3878.34312	0.06997
3876.41455	0.06978
3874.48599	0.06964
3872.55742	0.06995
3870.62886	0.07023
3868.70029	0.07032
3866.77173	0.07057
3864.84316	0.07109
3862.91460	0.07198
3860.98604	0.07276
3859.05747	0.07276
3857.12891	0.07223
3855.20034	0.07151
3853.27178	0.07117
3851.34321	0.07245
3849.41465	0.07408
3847.48608	0.07495
3845.55752	0.07518
3843.62896	0.07505
3841.70039	0.07495
3839.77183	0.07506
3837.84326	0.07573
3835.91470	0.07715
3833.98613	0.07867
3832.05757	0.07963
3830.12900	0.08000
3828.20044	0.08005
3826.27187	0.08027
3824.34331	0.08069
3822.41475	0.08081
3820.48618	0.08132
3818.55762	0.08260
3816.62905	0.08376
3814.70049	0.08555
3812.77192	0.08771
3810.84336	0.08882
3808.91479	0.08895
3806.98623	0.08923
3805.05767	0.09030
3803.12910	0.09109
3801.20054	0.09215
3799.27197	0.09439
3797.34341	0.09619
3795.41484	0.09759
3793.48628	0.09889
3791.55771	0.09995
3789.62915	0.10122
3787.70059	0.10275
3785.77202	0.10415
3783.84346	0.10534
3781.91489	0.10638
3779.98633	0.10765
3778.05776	0.10978
3776.12920	0.11202
3774.20063	0.11362
3772.27207	0.11479
3770.34351	0.11591
3768.41494	0.11762
3766.48638	0.11975
3764.55781	0.12201
3762.62925	0.12399
3760.70068	0.12524
3758.77212	0.12678
3756.84355	0.12944
3754.91499	0.13167
3752.98643	0.13247
3751.05786	0.13311
3749.12930	0.13601
3747.20073	0.13965
3745.27217	0.14190
3743.34360	0.14440
3741.41504	0.14745
3739.48647	0.14932
3737.55791	0.15065
3735.62935	0.15274
3733.70078	0.15634
3731.77222	0.16121
3729.84365	0.16589
3727.91509	0.16950
3725.98652	0.17371
3724.05796	0.18015
3722.12939	0.18806
3720.20083	0.19707
3718.27227	0.20740
3716.34370	0.21799
3714.41514	0.22673
3712.48657	0.23384
3710.55801	0.24309
3708.62944	0.25618
3706.70088	0.26910
3704.77231	0.28054
3702.84375	0.29268
3700.91519	0.30906
3698.98662	0.32845
3697.05806	0.34702
3695.12949	0.36604
3693.20093	0.38563
3691.27236	0.40624
3689.34380	0.43375
3687.41523	0.46986
3685.48667	0.50246
3683.55811	0.53017
3681.62954	0.55880
3679.70098	0.58967
3677.77241	0.62101
3675.84385	0.65838
3673.91528	0.71160
3671.98672	0.75617
3670.05815	0.79426
3668.12959	0.84779
3666.20103	0.89882
3664.27246	0.94113
3662.34390	0.98524
3660.41533	1.03229
3658.48677	1.07813
3656.55820	1.12636
3654.62964	1.18068
3652.70107	1.22610
3650.77251	1.26349
3648.84395	1.31532
3646.91538	1.38468
3644.98682	1.43863
3643.05825	1.47885
3641.12969	1.51851
3639.20112	1.56202
3637.27256	1.60605
3635.34399	1.64866
3633.41543	1.69031
3631.48687	1.72835
3629.55830	1.76646
3627.62974	1.81871
3625.70117	1.87043
3623.77261	1.90570
3621.84404	1.93915
3619.91548	1.97777
3617.98691	2.02401
3616.05835	2.06898
3614.12979	2.10825
3612.20122	2.14895
3610.27266	2.18725
3608.34409	2.22512
3606.41553	2.26794
3604.48696	2.30911
3602.55840	2.34421
3600.62983	2.38010
3598.70127	2.42037
3596.77271	2.46141
3594.84414	2.50305
3592.91558	2.54608
3590.98701	2.58611
3589.05845	2.62236
3587.12988	2.66527
3585.20132	2.71462
3583.27275	2.75823
3581.34419	2.79664
3579.41562	2.83515
3577.48706	2.87635
3575.55850	2.92015
3573.62993	2.96592
3571.70137	3.00932
3569.77280	3.04816
3567.84424	3.08687
3565.91567	3.13562
3563.98711	3.18759
3562.05854	3.23155
3560.12998	3.27371
3558.20142	3.31696
3556.27285	3.36134
3554.34429	3.40729
3552.41572	3.45588
3550.48716	3.50475
3548.55859	3.55072
3546.63003	3.59383
3544.70146	3.63716
3542.77290	3.68364
3540.84434	3.73264
3538.91577	3.78068
3536.98721	3.82680
3535.05864	3.87649
3533.13008	3.92728
3531.20151	3.97318
3529.27295	4.01599
3527.34438	4.06134
3525.41582	4.10915
3523.48726	4.15638
3521.55869	4.20669
3519.63013	4.26060
3517.70156	4.31174
3515.77300	4.35531
3513.84443	4.39575
3511.91587	4.43910
3509.98730	4.48598
3508.05874	4.53602
3506.13018	4.58668
3504.20161	4.63384
3502.27305	4.68109
3500.34448	4.73313
3498.41592	4.78377
3496.48735	4.83032
3494.55879	4.87787
3492.63022	4.92859
3490.70166	4.97883
3488.77310	5.02388
3486.84453	5.06677
3484.91597	5.11207
3482.98740	5.15612
3481.05884	5.20079
3479.13027	5.24882
3477.20171	5.29769
3475.27314	5.34778
3473.34458	5.40136
3471.41602	5.45999
3469.48745	5.51469
3467.55889	5.55557
3465.63032	5.59256
3463.70176	5.63945
3461.77319	5.69342
3459.84463	5.75055
3457.91606	5.80102
3455.98750	5.84348
3454.05894	5.89150
3452.13037	5.93993
3450.20181	5.98321
3448.27324	6.02773
3446.34468	6.07881
3444.41611	6.13032
3442.48755	6.18061
3440.55898	6.23907
3438.63042	6.29764
3436.70186	6.33789
3434.77329	6.37394
3432.84473	6.42201
3430.91616	6.46530
3428.98760	6.51335
3427.05903	6.58352
3425.13047	6.65585
3423.20190	6.70987
3421.27334	6.75943
3419.34478	6.80119
3417.41621	6.81144
3415.48765	6.81342
3413.55908	6.85254
3411.63052	6.93209
3409.70195	6.99796
3407.77339	7.02559
3405.84482	7.04021
3403.91626	7.08551
3401.98770	7.15108
3400.05913	7.17484
3398.13057	7.16625
3396.20200	7.17400
3394.27344	7.21220
3392.34487	7.27881
3390.41631	7.37730
3388.48774	7.46063
3386.55918	7.49504
3384.63062	7.49805
3382.70205	7.48928
3380.77349	7.47724
3378.84492	7.47649
3376.91636	7.52360
3374.98779	7.59893
3373.05923	7.65777
3371.13066	7.69249
3369.20210	7.73122
3367.27354	7.78578
3365.34497	7.85665
3363.41641	7.90505
3361.48784	7.88530
3359.55928	7.86507
3357.63071	7.88167
3355.70215	7.89357
3353.77358	7.90687
3351.84502	7.97467
3349.91646	8.03580
3347.98789	8.06288
3346.05933	8.10665
3344.13076	8.09659
3342.20220	8.02329
3340.27363	7.98240
3338.34507	7.99157
3336.41650	7.99832
3334.48794	8.00305
3332.55937	8.01982
3330.63081	8.04422
3328.70225	8.04826
3326.77368	8.01863
3324.84512	7.96872
3322.91655	7.92574
3320.98799	7.96200
3319.05942	8.05161
3317.13086	8.09671
3315.20229	8.07294
3313.27373	8.09509
3311.34517	8.17091
3309.41660	8.09118
3307.48804	7.95290
3305.55947	8.00571
3303.63091	8.15142
3301.70234	8.16900
3299.77378	8.17313
3297.84521	8.21278
3295.91665	8.14998
3293.98809	8.08677
3292.05952	8.12137
3290.13096	8.14135
3288.20239	8.13602
3286.27383	8.19618
3284.34526	8.24420
3282.41670	8.19512
3280.48813	8.09364
3278.55957	7.99372
3276.63101	7.98593
3274.70244	8.12421
3272.77388	8.21927
3270.84531	8.14905
3268.91675	8.16648
3266.98818	8.34186
3265.05962	8.38271
3263.13105	8.24008
3261.20249	8.19480
3259.27393	8.25335
3257.34536	8.28373
3255.41680	8.26519
3253.48823	8.24627
3251.55967	8.24778
3249.63110	8.23777
3247.70254	8.22434
3245.77397	8.19379
3243.84541	8.10483
3241.91685	8.03342
3239.98828	8.07296
3238.05972	8.14146
3236.13115	8.13403
3234.20259	8.13596
3232.27402	8.18433
3230.34546	8.15913
3228.41689	8.09752
3226.48833	8.09623
3224.55977	8.07750
3222.63120	8.05122
3220.70264	8.05910
3218.77407	8.04300
3216.84551	8.00706
3214.91694	7.94653
3212.98838	7.82843
3211.05981	7.73963
3209.13125	7.76996
3207.20269	7.86363
3205.27412	7.89998
3203.34556	7.87182
3201.41699	7.86006
3199.48843	7.81227
3197.55986	7.67006
3195.63130	7.54840
3193.70273	7.49143
3191.77417	7.44607
3189.84561	7.39001
3187.91704	7.34062
3185.98848	7.32152
3184.05991	7.32063
3182.13135	7.29217
3180.20278	7.18546
3178.27422	7.05269
3176.34565	7.00813
3174.41709	7.02939
3172.48853	7.01288
3170.55996	6.94975
3168.63140	6.88665
3166.70283	6.83453
3164.77427	6.77914
3162.84570	6.69818
3160.91714	6.59422
3158.98857	6.51449
3157.06001	6.46384
3155.13145	6.40427
3153.20288	6.33814
3151.27432	6.27381
3149.34575	6.20067
3147.41719	6.13284
3145.48862	6.08031
3143.56006	6.03052
3141.63149	5.97286
3139.70293	5.89515
3137.77437	5.80597
3135.84580	5.72725
3133.91724	5.65884
3131.98867	5.58976
3130.06011	5.51929
3128.13154	5.45060
3126.20298	5.38736
3124.27441	5.32773
3122.34585	5.25457
3120.41729	5.17046
3118.48872	5.09428
3116.56016	5.02745
3114.63159	4.96515
3112.70303	4.90116
3110.77446	4.83191
3108.84590	4.76543
3106.91733	4.70308
3104.98877	4.63588
3103.06021	4.56783
3101.13164	4.50759
3099.20308	4.44896
3097.27451	4.38402
3095.34595	4.31648
3093.41738	4.25175
3091.48882	4.19023
3089.56025	4.13013
3087.63169	4.06878
3085.70312	4.00676
3083.77456	3.94691
3081.84600	3.88880
3079.91743	3.83086
3077.98887	3.77359
3076.06030	3.71653
3074.13174	3.65822
3072.20317	3.59941
3070.27461	3.54204
3068.34604	3.48703
3066.41748	3.43307
3064.48892	3.37871
3062.56035	3.32375
3060.63179	3.26811
3058.70322	3.21446
3056.77466	3.16492
3054.84609	3.11540
3052.91753	3.06409
3050.98896	3.01390
3049.06040	2.96523
3047.13184	2.91692
3045.20327	2.86837
3043.27471	2.81997
3041.34614	2.77221
3039.41758	2.72560
3037.48901	2.68062
3035.56045	2.63634
3033.63188	2.59198
3031.70332	2.54783
3029.77476	2.50408
3027.84619	2.46099
3025.91763	2.41914
3023.98906	2.37810
3022.06050	2.33719
3020.13193	2.29662
3018.20337	2.25704
3016.27480	2.21828
3014.34624	2.17949
3012.41768	2.14108
3010.48911	2.10391
3008.56055	2.06790
3006.63198	2.03234
3004.70342	1.99686
3002.77485	1.96211
3000.84629	1.92854
2998.91772	1.89597
2996.98916	1.86429
2995.06060	1.83372
2993.13203	1.80394
2991.20347	1.77411
2989.27490	1.74453
2987.34634	1.71636
2985.41777	1.68916
2983.48921	1.66196
2981.56064	1.63536
2979.63208	1.60969
2977.70352	1.58441
2975.77495	1.55958
2973.84639	1.53567
2971.91782	1.51283
2969.98926	1.49055
2968.06069	1.46826
2966.13213	1.44579
2964.20356	1.42293
2962.27500	1.39985
2960.34644	1.37695
2958.41787	1.35425
2956.48931	1.33165
2954.56074	1.30906
2952.63218	1.28615
2950.70361	1.26327
2948.77505	1.24122
2946.84648	1.22008
2944.91792	1.19943
2942.98936	1.17908
2941.06079	1.15937
2939.13223	1.14016
2937.20366	1.12098
2935.27510	1.10207
2933.34653	1.08352
2931.41797	1.06494
2929.48940	1.04622
2927.56084	1.02761
2925.63228	1.00916
2923.70371	0.99052
2921.77515	0.97193
2919.84658	0.95415
2917.91802	0.93733
2915.98945	0.92069
2914.06089	0.90362
2912.13232	0.88648
2910.20376	0.86994
2908.27520	0.85456
2906.34663	0.84018
2904.41807	0.82612
2902.48950	0.81205
2900.56094	0.79798
2898.63237	0.78406
2896.70381	0.77036
2894.77524	0.75710
2892.84668	0.74470
2890.91812	0.73325
2888.98955	0.72231
2887.06099	0.71136
2885.13242	0.70056
2883.20386	0.69045
2881.27529	0.68106
2879.34673	0.67191
2877.41816	0.66258
2875.48960	0.65299
2873.56104	0.64320
2871.63247	0.63293
2869.70391	0.62193
2867.77534	0.61023
2865.84678	0.59826
2863.91821	0.58640
2861.98965	0.57472
2860.06108	0.56374
2858.13252	0.55373
2856.20396	0.54396
2854.27539	0.53440
2852.34683	0.52542
2850.41826	0.51666
2848.48970	0.50784
2846.56113	0.49932
2844.63257	0.49142
2842.70400	0.48399
2840.77544	0.47677
2838.84687	0.46978
2836.91831	0.46349
2834.98975	0.45756
2833.06118	0.45120
2831.13262	0.44488
2829.20405	0.43901
2827.27549	0.43310
2825.34692	0.42694
2823.41836	0.42091
2821.48979	0.41513
2819.56123	0.40927
2817.63267	0.40330
2815.70410	0.39749
2813.77554	0.39179
2811.84697	0.38612
2809.91841	0.38060
2807.98984	0.37519
2806.06128	0.36985
2804.13271	0.36465
2802.20415	0.35951
2800.27559	0.35438
2798.34702	0.34933
2796.41846	0.34454
2794.48989	0.34011
2792.56133	0.33576
2790.63276	0.33117
2788.70420	0.32654
2786.77563	0.32214
2784.84707	0.31781
2782.91851	0.31348
2780.98994	0.30928
2779.06138	0.30521
2777.13281	0.30119
2775.20425	0.29719
2773.27568	0.29328
2771.34712	0.28944
2769.41855	0.28567
2767.48999	0.28207
2765.56143	0.27857
2763.63286	0.27506
2761.70430	0.27159
2759.77573	0.26825
2757.84717	0.26495
2755.91860	0.26158
2753.99004	0.25834
2752.06147	0.25541
2750.13291	0.25261
2748.20435	0.24974
2746.27578	0.24679
2744.34722	0.24391
2742.41865	0.24117
2740.49009	0.23844
2738.56152	0.23574
2736.63296	0.23314
2734.70439	0.23067
2732.77583	0.22834
2730.84727	0.22604
2728.91870	0.22364
2726.99014	0.22113
2725.06157	0.21867
2723.13301	0.21640
2721.20444	0.21424
2719.27588	0.21211
2717.34731	0.21017
2715.41875	0.20844
2713.49019	0.20666
2711.56162	0.20474
2709.63306	0.20289
2707.70449	0.20108
2705.77593	0.19919
2703.84736	0.19744
2701.91880	0.19590
2699.99023	0.19445
2698.06167	0.19298
2696.13311	0.19150
2694.20454	0.19005
2692.27598	0.18861
2690.34741	0.18717
2688.41885	0.18589
2686.49028	0.18473
2684.56172	0.18351
2682.63315	0.18220
2680.70459	0.18090
2678.77603	0.17968
2676.84746	0.17849
2674.91890	0.17731
2672.99033	0.17631
2671.06177	0.17538
2669.13320	0.17420
2667.20464	0.17287
2665.27607	0.17170
2663.34751	0.17072
2661.41895	0.16976
2659.49038	0.16887
2657.56182	0.16815
2655.63325	0.16743
2653.70469	0.16661
2651.77612	0.16577
2649.84756	0.16496
2647.91899	0.16423
2645.99043	0.16357
2644.06187	0.16295
2642.13330	0.16236
2640.20474	0.16182
2638.27617	0.16124
2636.34761	0.16062
2634.41904	0.16006
2632.49048	0.15949
2630.56191	0.15885
2628.63335	0.15838
2626.70479	0.15811
2624.77622	0.15784
2622.84766	0.15755
2620.91909	0.15722
2618.99053	0.15675
2617.06196	0.15633
2615.13340	0.15606
2613.20483	0.15575
2611.27627	0.15553
2609.34771	0.15558
2607.41914	0.15556
2605.49058	0.15532
2603.56201	0.15501
2601.63345	0.15478
2599.70488	0.15469
2597.77632	0.15465
2595.84775	0.15457
2593.91919	0.15454
2591.99062	0.15463
2590.06206	0.15478
2588.13350	0.15501
2586.20493	0.15529
2584.27637	0.15540
2582.34780	0.15532
2580.41924	0.15539
2578.49067	0.15561
2576.56211	0.15578
2574.63354	0.15595
2572.70498	0.15605
2570.77642	0.15610
2568.84785	0.15632
2566.91929	0.15673
2564.99072	0.15720
2563.06216	0.15767
2561.13359	0.15812
2559.20503	0.15855
2557.27646	0.15891
2555.34790	0.15927
2553.41934	0.15963
2551.49077	0.15999
2549.56221	0.16037
2547.63364	0.16077
2545.70508	0.16126
2543.77651	0.16189
2541.84795	0.16257
2539.91938	0.16310
2537.99082	0.16353
2536.06226	0.16412
2534.13369	0.16482
2532.20513	0.16547
2530.27656	0.16608
2528.34800	0.16669
2526.41943	0.16730
2524.49087	0.16787
2522.56230	0.16839
2520.63374	0.16896
2518.70518	0.16965
2516.77661	0.17040
2514.84805	0.17115
2512.91948	0.17190
2510.99092	0.17268
2509.06235	0.17338
2507.13379	0.17404
2505.20522	0.17479
2503.27666	0.17557
2501.34810	0.17630
2499.41953	0.17699
2497.49097	0.17768
2495.56240	0.17838
2493.63384	0.17909
2491.70527	0.17987
2489.77671	0.18070
2487.84814	0.18153
2485.91958	0.18238
2483.99102	0.18326
2482.06245	0.18406
2480.13389	0.18471
2478.20532	0.18545
2476.27676	0.18633
2474.34819	0.18723
2472.41963	0.18814
2470.49106	0.18892
2468.56250	0.18951
2466.63394	0.19024
2464.70537	0.19126
2462.77681	0.19226
2460.84824	0.19307
2458.91968	0.19386
2456.99111	0.19472
2455.06255	0.19556
2453.13398	0.19631
2451.20542	0.19714
2449.27686	0.19825
2447.34829	0.19942
2445.41973	0.20031
2443.49116	0.20104
2441.56260	0.20186
2439.63403	0.20275
2437.70547	0.20363
2435.77690	0.20453
2433.84834	0.20540
2431.91978	0.20628
2429.99121	0.20736
2428.06265	0.20859
2426.13408	0.20982
2424.20552	0.21096
2422.27695	0.21203
2420.34839	0.21304
2418.41982	0.21403
2416.49126	0.21498
2414.56270	0.21595
2412.63413	0.21704
2410.70557	0.21817
2408.77700	0.21922
2406.84844	0.22018
2404.91987	0.22123
2402.99131	0.22242
2401.06274	0.22357
2399.13418	0.22471
2397.20562	0.22590
2395.27705	0.22708
2393.34849	0.22825
2391.41992	0.22933
2389.49136	0.23015
2387.56279	0.23049
2385.63423	0.22969
2383.70566	0.22705
2381.77710	0.22254
2379.84854	0.21647
2377.91997	0.20901
2375.99141	0.19994
2374.06284	0.18879
2372.13428	0.17508
2370.20571	0.15920
2368.27715	0.14276
2366.34858	0.12785
2364.42002	0.11504
2362.49146	0.10471
2360.56289	0.10002
2358.63433	0.10375
2356.70576	0.11486
2354.77720	0.13165
2352.84863	0.15369
2350.92007	0.17596
2348.99150	0.18889
2347.06294	0.18960
2345.13437	0.17974
2343.20581	0.16640
2341.27725	0.16092
2339.34868	0.16285
2337.42012	0.16603
2335.49155	0.16966
2333.56299	0.17462
2331.63442	0.17990
2329.70586	0.18510
2327.77729	0.19107
2325.84873	0.19826
2323.92017	0.20663
2321.99160	0.21575
2320.06304	0.22479
2318.13447	0.23311
2316.20591	0.24026
2314.27734	0.24623
2312.34878	0.25126
2310.42021	0.25602
2308.49165	0.26136
2306.56309	0.26741
2304.63452	0.27329
2302.70596	0.27803
2300.77739	0.28180
2298.84883	0.28543
2296.92026	0.28911
2294.99170	0.29269
2293.06313	0.29625
2291.13457	0.29998
2289.20601	0.30382
2287.27744	0.30758
2285.34888	0.31113
2283.42031	0.31412
2281.49175	0.31623
2279.56318	0.31778
2277.63462	0.31927
2275.70605	0.32095
2273.77749	0.32275
2271.84893	0.32457
2269.92036	0.32644
2267.99180	0.32845
2266.06323	0.33075
2264.13467	0.33332
2262.20610	0.33587
2260.27754	0.33827
2258.34897	0.34061
2256.42041	0.34296
2254.49185	0.34526
2252.56328	0.34756
2250.63472	0.34997
2248.70615	0.35245
2246.77759	0.35483
2244.84902	0.35719
2242.92046	0.35965
2240.99189	0.36196
2239.06333	0.36396
2237.13477	0.36597
2235.20620	0.36824
2233.27764	0.37062
2231.34907	0.37288
2229.42051	0.37501
2227.49194	0.37712
2225.56338	0.37938
2223.63481	0.38179
2221.70625	0.38409
2219.77769	0.38617
2217.84912	0.38813
2215.92056	0.39017
2213.99199	0.39235
2212.06343	0.39453
2210.13486	0.39663
2208.20630	0.39865
2206.27773	0.40071
2204.34917	0.40279
2202.42061	0.40478
2200.49204	0.40666
2198.56348	0.40854
2196.63491	0.41055
2194.70635	0.41262
2192.77778	0.41450
2190.84922	0.41630
2188.92065	0.41813
2186.99209	0.41986
2185.06353	0.42152
2183.13496	0.42320
2181.20640	0.42498
2179.27783	0.42678
2177.34927	0.42838
2175.42070	0.42981
2173.49214	0.43120
2171.56357	0.43263
2169.63501	0.43412
2167.70645	0.43555
2165.77788	0.43680
2163.84932	0.43795
2161.92075	0.43901
2159.99219	0.44005
2158.06362	0.44107
2156.13506	0.44200
2154.20649	0.44287
2152.27793	0.44371
2150.34937	0.44446
2148.42080	0.44508
2146.49224	0.44560
2144.56367	0.44605
2142.63511	0.44653
2140.70654	0.44700
2138.77798	0.44736
2136.84941	0.44758
2134.92085	0.44774
2132.99229	0.44784
2131.06372	0.44779
2129.13516	0.44773
2127.20659	0.44774
2125.27803	0.44766
2123.34946	0.44723
2121.42090	0.44652
2119.49233	0.44581
2117.56377	0.44521
2115.63521	0.44455
2113.70664	0.44378
2111.77808	0.44299
2109.84951	0.44215
2107.92095	0.44124
2105.99238	0.44026
2104.06382	0.43921
2102.13525	0.43807
2100.20669	0.43678
2098.27812	0.43535
2096.34956	0.43388
2094.42100	0.43241
2092.49243	0.43097
2090.56387	0.42955
2088.63530	0.42799
2086.70674	0.42623
2084.77817	0.42446
2082.84961	0.42263
2080.92104	0.42061
2078.99248	0.41861
2077.06392	0.41671
2075.13535	0.41470
2073.20679	0.41255
2071.27822	0.41044
2069.34966	0.40840
2067.42109	0.40622
2065.49253	0.40381
2063.56396	0.40136
2061.63540	0.39898
2059.70684	0.39652
2057.77827	0.39402
2055.84971	0.39157
2053.92114	0.38919
2051.99258	0.38687
2050.06401	0.38448
2048.13545	0.38191
2046.20688	0.37922
2044.27832	0.37659
2042.34976	0.37400
2040.42119	0.37140
2038.49263	0.36876
2036.56406	0.36617
2034.63550	0.36355
2032.70693	0.36072
2030.77837	0.35785
2028.84980	0.35515
2026.92124	0.35258
2024.99268	0.34998
2023.06411	0.34725
2021.13555	0.34450
2019.20698	0.34181
2017.27842	0.33915
2015.34985	0.33642
2013.42129	0.33364
2011.49272	0.33099
2009.56416	0.32850
2007.63560	0.32596
2005.70703	0.32335
2003.77847	0.32072
2001.84990	0.31811
1999.92134	0.31545
1997.99277	0.31280
1996.06421	0.31027
1994.13564	0.30777
1992.20708	0.30518
1990.27852	0.30262
1988.34995	0.30021
1986.42139	0.29795
1984.49282	0.29577
1982.56426	0.29352
1980.63569	0.29118
1978.70713	0.28887
1976.77856	0.28660
1974.85000	0.28443
1972.92144	0.28235
1970.99287	0.28027
1969.06431	0.27812
1967.13574	0.27599
1965.20718	0.27405
1963.27861	0.27230
1961.35005	0.27049
1959.42148	0.26862
1957.49292	0.26677
1955.56436	0.26493
1953.63579	0.26320
1951.70723	0.26161
1949.77866	0.26003
1947.85010	0.25836
1945.92153	0.25668
1943.99297	0.25512
1942.06440	0.25365
1940.13584	0.25228
1938.20728	0.25094
1936.27871	0.24956
1934.35015	0.24821
1932.42158	0.24697
1930.49302	0.24581
1928.56445	0.24478
1926.63589	0.24372
1924.70732	0.24250
1922.77876	0.24129
1920.85020	0.24022
1918.92163	0.23929
1916.99307	0.23851
1915.06450	0.23792
1913.13594	0.23731
1911.20737	0.23657
1909.27881	0.23575
1907.35024	0.23504
1905.42168	0.23447
1903.49312	0.23392
1901.56455	0.23331
1899.63599	0.23266
1897.70742	0.23209
1895.77886	0.23167
1893.85029	0.23146
1891.92173	0.23114
1889.99316	0.23075
1888.06460	0.23052
1886.13604	0.23039
1884.20747	0.23021
1882.27891	0.23003
1880.35034	0.22993
1878.42178	0.22993
1876.49321	0.22997
1874.56465	0.22988
1872.63608	0.22970
1870.70752	0.22936
1868.77896	0.22920
1866.85039	0.22954
1864.92183	0.23003
1862.99326	0.23033
1861.06470	0.23054
1859.13613	0.23088
1857.20757	0.23130
1855.27900	0.23185
1853.35044	0.23232
1851.42187	0.23269
1849.49331	0.23305
1847.56475	0.23347
1845.63618	0.23398
1843.70762	0.23479
1841.77905	0.23584
1839.85049	0.23664
1837.92192	0.23746
1835.99336	0.23840
1834.06479	0.23939
1832.13623	0.24015
1830.20767	0.24096
1828.27910	0.24225
1826.35054	0.24356
1824.42197	0.24502
1822.49341	0.24657
1820.56484	0.24795
1818.63628	0.24925
1816.70771	0.25089
1814.77915	0.25256
1812.85059	0.25404
1810.92202	0.25573
1808.99346	0.25784
1807.06489	0.26000
1805.13633	0.26188
1803.20776	0.26379
1801.27920	0.26594
1799.35063	0.26857
1797.42207	0.27105
1795.49351	0.27321
1793.56494	0.27550
1791.63638	0.27881
1789.70781	0.28274
1787.77925	0.28594
1785.85068	0.28915
1783.92212	0.29260
1781.99355	0.29620
1780.06499	0.30016
1778.13643	0.30450
1776.20786	0.30837
1774.27930	0.31198
1772.35073	0.31691
1770.42217	0.32315
1768.49360	0.32910
1766.56504	0.33472
1764.63647	0.34005
1762.70791	0.34551
1760.77935	0.35258
1758.85078	0.35947
1756.92222	0.36642
1754.99365	0.37413
1753.06509	0.38092
1751.13652	0.38840
1749.20796	0.39805
1747.27939	0.40849
1745.35083	0.41796
1743.42227	0.42756
1741.49370	0.43781
1739.56514	0.44995
1737.63657	0.46229
1735.70801	0.47268
1733.77944	0.48803
1731.85088	0.50769
1729.92231	0.52387
1727.99375	0.53977
1726.06519	0.55641
1724.13662	0.57430
1722.20806	0.59368
1720.27949	0.61138
1718.35093	0.63139
1716.42236	0.66168
1714.49380	0.69235
1712.56523	0.71783
1710.63667	0.74194
1708.70811	0.76717
1706.77954	0.79540
1704.85098	0.82968
1702.92241	0.86077
1700.99385	0.89118
1699.06528	0.93712
1697.13672	0.98087
1695.20815	1.02686
1693.27959	1.07213
1691.35103	1.10841
1689.42246	1.14971
1687.49390	1.19343
1685.56533	1.23544
1683.63677	1.30136
1681.70820	1.37232
1679.77964	1.41822
1677.85107	1.46075
1675.92251	1.50907
1673.99395	1.56968
1672.06538	1.62450
1670.13682	1.67871
1668.20825	1.75080
1666.27969	1.81084
1664.35112	1.86178
1662.42256	1.92692
1660.49399	2.00275
1658.56543	2.06347
1656.63687	2.11252
1654.70830	2.15517
1652.77974	2.21445
1650.85117	2.26912
1648.92261	2.28878
1646.99404	2.31229
1645.06548	2.33654
1643.13691	2.35181
1641.20835	2.35912
1639.27979	2.36536
1637.35122	2.36703
1635.42266	2.36041
1633.49409	2.34837
1631.56553	2.33354
1629.63696	2.31544
1627.70840	2.28468
1625.77983	2.24726
1623.85127	2.19898
1621.92271	2.14199
1619.99414	2.09443
1618.06558	2.04838
1616.13701	1.98056
1614.20845	1.91172
1612.27988	1.85994
1610.35132	1.80573
1608.42275	1.74650
1606.49419	1.68865
1604.56562	1.63646
1602.63706	1.58671
1600.70850	1.53860
1598.77993	1.49464
1596.85137	1.45310
1594.92280	1.41265
1592.99424	1.37415
1591.06567	1.33939
1589.13711	1.30754
1587.20854	1.27877
1585.27998	1.25267
1583.35142	1.22860
1581.42285	1.20682
1579.49429	1.18828
1577.56572	1.17195
1575.63716	1.15363
1573.70859	1.13908
1571.78003	1.13013
1569.85146	1.12120
1567.92290	1.11241
1565.99434	1.10699
1564.06577	1.10416
1562.13721	1.10278
1560.20864	1.10337
1558.28008	1.11073
1556.35151	1.12063
1554.42295	1.12652
1552.49438	1.13187
1550.56582	1.13522
1548.63726	1.13532
1546.70869	1.13127
1544.78013	1.12216
1542.85156	1.10822
1540.92300	1.08741
1538.99443	1.05642
1537.06587	1.03412
1535.13730	1.01767
1533.20874	0.99457
1531.28018	0.97041
1529.35161	0.95325
1527.42305	0.93659
1525.49448	0.91906
1523.56592	0.90439
1521.63735	0.89073
1519.70879	0.87749
1517.78022	0.86641
1515.85166	0.85333
1513.92310	0.83962
1511.99453	0.82729
1510.06597	0.81534
1508.13740	0.80279
1506.20884	0.78498
1504.28027	0.77175
1502.35171	0.76450
1500.42314	0.75744
1498.49458	0.74958
1496.56602	0.74081
1494.63745	0.73260
1492.70889	0.72599
1490.78032	0.71931
1488.85176	0.71171
1486.92319	0.70585
1484.99463	0.70192
1483.06606	0.69861
1481.13750	0.69570
1479.20894	0.69367
1477.28037	0.69258
1475.35181	0.69202
1473.42324	0.69211
1471.49468	0.69262
1469.56611	0.69249
1467.63755	0.69125
1465.70898	0.68972
1463.78042	0.68905
1461.85186	0.68916
1459.92329	0.68922
1457.99473	0.68944
1456.06616	0.69013
1454.13760	0.68952
1452.20903	0.68763
1450.28047	0.68524
1448.35190	0.68291
1446.42334	0.68062
1444.49478	0.67831
1442.56621	0.67587
1440.63765	0.67302
1438.70908	0.66973
1436.78052	0.66545
1434.85195	0.66093
1432.92339	0.65781
1430.99482	0.65578
1429.06626	0.65485
1427.13770	0.65508
1425.20913	0.65586
1423.28057	0.65688
1421.35200	0.65772
1419.42344	0.65828
1417.49487	0.65882
1415.56631	0.65889
1413.63774	0.65873
1411.70918	0.65900
1409.78062	0.66018
1407.85205	0.66220
1405.92349	0.66467
1403.99492	0.66689
1402.06636	0.66770
1400.13779	0.66699
1398.20923	0.66510
1396.28066	0.66239
1394.35210	0.65860
1392.42354	0.65408
1390.49497	0.64958
1388.56641	0.64471
1386.63784	0.63902
1384.70928	0.63319
1382.78071	0.62779
1380.85215	0.62272
1378.92358	0.61825
1376.99502	0.61466
1375.06646	0.61206
1373.13789	0.61054
1371.20933	0.60992
1369.28076	0.60948
1367.35220	0.60849
1365.42363	0.60678
1363.49507	0.60474
1361.56650	0.60299
1359.63794	0.60162
1357.70937	0.60032
1355.78081	0.59911
1353.85225	0.59812
1351.92368	0.59723
1349.99512	0.59639
1348.06655	0.59559
1346.13799	0.59473
1344.20942	0.59387
1342.28086	0.59299
1340.35229	0.59211
1338.42373	0.59141
1336.49517	0.59103
1334.56660	0.59093
1332.63804	0.59108
1330.70947	0.59146
1328.78091	0.59211
1326.85234	0.59299
1324.92378	0.59395
1322.99521	0.59495
1321.06665	0.59600
1319.13809	0.59692
1317.20952	0.59759
1315.28096	0.59798
1313.35239	0.59800
1311.42383	0.59777
1309.49526	0.59743
1307.56670	0.59691
1305.63813	0.59622
1303.70957	0.59549
1301.78101	0.59481
1299.85244	0.59406
1297.92388	0.59312
1295.99531	0.59196
1294.06675	0.59068
1292.13818	0.58932
1290.20962	0.58795
1288.28105	0.58661
1286.35249	0.58520
1284.42393	0.58376
1282.49536	0.58229
1280.56680	0.58075
1278.63823	0.57918
1276.70967	0.57770
1274.78110	0.57634
1272.85254	0.57510
1270.92397	0.57423
1268.99541	0.57367
1267.06685	0.57299
1265.13828	0.57203
1263.20972	0.57104
1261.28115	0.57012
1259.35259	0.56920
1257.42402	0.56837
1255.49546	0.56785
1253.56689	0.56771
1251.63833	0.56790
1249.70977	0.56817
1247.78120	0.56820
1245.85264	0.56795
1243.92407	0.56740
1241.99551	0.56640
1240.06694	0.56480
1238.13838	0.56263
1236.20981	0.56003
1234.28125	0.55727
1232.35269	0.55459
1230.42412	0.55213
1228.49556	0.54991
1226.56699	0.54785
1224.63843	0.54578
1222.70986	0.54367
1220.78130	0.54173
1218.85273	0.54011
1216.92417	0.53867
1214.99561	0.53736
1213.06704	0.53620
1211.13848	0.53517
1209.20991	0.53439
1207.28135	0.53385
1205.35278	0.53314
1203.42422	0.53214
1201.49565	0.53114
1199.56709	0.53018
1197.63853	0.52914
1195.70996	0.52817
1193.78140	0.52749
1191.85283	0.52704
1189.92427	0.52666
1187.99570	0.52631
1186.06714	0.52615
1184.13857	0.52636
1182.21001	0.52704
1180.28145	0.52811
1178.35288	0.52932
1176.42432	0.53060
1174.49575	0.53204
1172.56719	0.53327
1170.63862	0.53384
1168.71006	0.53389
1166.78149	0.53377
1164.85293	0.53366
1162.92437	0.53366
1160.99580	0.53376
1159.06724	0.53372
1157.13867	0.53327
1155.21011	0.53247
1153.28154	0.53149
1151.35298	0.53005
1149.42441	0.52790
1147.49585	0.52528
1145.56729	0.52242
1143.63872	0.51969
1141.71016	0.51750
1139.78159	0.51579
1137.85303	0.51448
1135.92446	0.51380
1133.99590	0.51374
1132.06733	0.51404
1130.13877	0.51446
1128.21021	0.51475
1126.28164	0.51475
1124.35308	0.51447
1122.42451	0.51421
1120.49595	0.51432
1118.56738	0.51482
1116.63882	0.51559
1114.71025	0.51657
1112.78169	0.51738
1110.85312	0.51791
1108.92456	0.51855
1106.99600	0.51937
1105.06743	0.52034
1103.13887	0.52147
1101.21030	0.52273
1099.28174	0.52423
1097.35317	0.52602
1095.42461	0.52831
1093.49604	0.53163
1091.56748	0.53640
1089.63892	0.54273
1087.71035	0.55051
1085.78179	0.55919
1083.85322	0.56790
1081.92466	0.57558
1079.99609	0.58108
1078.06753	0.58359
1076.13896	0.58290
1074.21040	0.57925
1072.28184	0.57339
1070.35327	0.56633
1068.42471	0.55892
1066.49614	0.55180
1064.56758	0.54536
1062.63901	0.53979
1060.71045	0.53506
1058.78188	0.53092
1056.85332	0.52721
1054.92476	0.52374
1052.99619	0.52047
1051.06763	0.51774
1049.13906	0.51585
1047.21050	0.51494
1045.28193	0.51471
1043.35337	0.51463
1041.42480	0.51459
1039.49624	0.51457
1037.56768	0.51434
1035.63911	0.51378
1033.71055	0.51299
1031.78198	0.51196
1029.85342	0.51047
1027.92485	0.50860
1025.99629	0.50669
1024.06772	0.50500
1022.13916	0.50372
1020.21060	0.50291
1018.28203	0.50243
1016.35347	0.50216
1014.42490	0.50177
1012.49634	0.50104
1010.56777	0.50041
1008.63921	0.50027
1006.71064	0.50046
1004.78208	0.50109
1002.85352	0.50252
1000.92495	0.50490
998.99639	0.50814
997.06782	0.51215
995.13926	0.51661
993.21069	0.52100
991.28213	0.52461
989.35356	0.52670
987.42500	0.52716
985.49644	0.52677
983.56787	0.52630
981.63931	0.52615
979.71074	0.52644
977.78218	0.52722
975.85361	0.52876
973.92505	0.53116
971.99648	0.53402
970.06792	0.53703
968.13936	0.54023
966.21079	0.54385
964.28223	0.54806
962.35366	0.55280
960.42510	0.55778
958.49653	0.56299
956.56797	0.56860
954.63940	0.57433
952.71084	0.57994
950.78228	0.58586
948.85371	0.59234
946.92515	0.59905
944.99658	0.60541
943.06802	0.61121
941.13945	0.61678
939.21089	0.62268
937.28232	0.62893
935.35376	0.63472
933.42520	0.64006
931.49663	0.64545
929.56807	0.65085
927.63950	0.65625
925.71094	0.66184
923.78237	0.66798
921.85381	0.67458
919.92524	0.68111
917.99668	0.68753
916.06812	0.69423
914.13955	0.70152
912.21099	0.70930
910.28242	0.71702
908.35386	0.72506
906.42529	0.73406
904.49673	0.74303
902.56816	0.75134
900.63960	0.76022
898.71104	0.77039
896.78247	0.78065
894.85391	0.79027
892.92534	0.80016
890.99678	0.81014
889.06821	0.81948
887.13965	0.82887
885.21108	0.83881
883.28252	0.85018
881.35396	0.86286
879.42539	0.87499
877.49683	0.88624
875.56826	0.89737
873.63970	0.90866
871.71113	0.91971
869.78257	0.92961
867.85400	0.93899
865.92544	0.94973
863.99687	0.96268
862.06831	0.97671
860.13975	0.99007
858.21118	1.00238
856.28262	1.01388
854.35405	1.02509
852.42549	1.03616
850.49692	1.04717
848.56836	1.05862
846.63979	1.07024
844.71123	1.08226
842.78267	1.09481
840.85410	1.10715
838.92554	1.11883
836.99697	1.13027
835.06841	1.14218
833.13984	1.15387
831.21128	1.16354
829.28271	1.16862
827.35415	1.16882
825.42559	1.17032
823.49702	1.18213
821.56846	1.20480
819.63989	1.22423
817.71133	1.23400
815.78276	1.24416
813.85420	1.25066
811.92563	1.25390
809.99707	1.27243
808.06851	1.30489
806.13994	1.32840
804.21138	1.33029
802.28281	1.32725
800.35425	1.33283
798.42568	1.33997
796.49712	1.33515
794.56855	1.31980
792.63999	1.32745
790.71143	1.37076
788.78286	1.43248
786.85430	1.47811
784.92573	1.45385
782.99717	1.42263
781.06860	1.45741
779.14004	1.48933
777.21147	1.45896
775.28291	1.44986
773.35435	1.52991
771.42578	1.71622
769.49722	1.83036
767.56865	1.79349
765.64009	1.73406
763.71152	1.54407
761.78296	1.41675
759.85439	1.44792
757.92583	1.52984
755.99727	1.49875
754.06870	1.49619
752.14014	1.47486
750.21157	1.38923
748.28301	1.31982
746.35444	1.22311
744.42588	1.08268
742.49731	0.99397
740.56875	1.01870
738.64019	1.09114
736.71162	1.04540
734.78306	0.94966
732.85449	1.02136
730.92593	1.71085
728.99736	4.37398
727.06880	1.20278
725.14023	0.95858
723.21167	0.78537
721.28311	0.52469
719.35454	0.43116
717.42598	0.48602
715.49741	0.60520
713.56885	0.52764
711.64028	0.29356
709.71172	0.09456
707.78315	0.04887
705.85459	-0.01640
703.92603	-0.03234
701.99746	0.07506
700.06890	0.28936
698.14033	0.43259
696.21177	0.45379
694.28320	0.37047
692.35464	0.26977
690.42607	0.17545
688.49751	0.10374
686.56895	0.17174
684.64038	0.45883
682.71182	1.19699
680.78325	4.08470
678.85469	1.06861
676.92612	1.35189
674.99756	0.95010
673.06899	0.42643
671.14043	0.20921
669.21187	0.18509
667.28330	0.24893
665.35474	0.30609
663.42617	0.31928
661.49761	0.27410
659.56904	0.20775
657.64048	0.21160
655.71191	0.41915
653.78335	3.92270
651.85479	3.91113
649.92622	0.79618
647.99766	0.29345
646.06909	0.28135
644.14053	0.43693
642.21196	0.48436
640.28340	0.28045
638.35483	0.24560
636.42627	0.43360
634.49771	0.57042
632.56914	0.53023
630.64058	0.56240
628.71201	0.52433
626.78345	0.38657
624.85488	0.33322
622.92632	0.39498
620.99775	0.62928
619.06919	3.71442
617.14062	3.70284
615.21206	0.74919
613.28350	0.29443
611.35493	0.16418
609.42637	0.20077
607.49780	0.32106
605.56924	0.42880
603.64067	0.47508
601.71211	0.42711
599.78354	0.40023
597.85498	0.45455
595.92642	0.50874
593.99785	0.51724
592.06929	0.45798
590.14072	0.32023
588.21216	0.18672
586.28359	0.11589
584.35503	0.11293
582.42646	0.13135
580.49790	0.16285
578.56934	0.25995
576.64077	0.39380
574.71221	0.42969
572.78364	0.36256
570.85508	0.32829
568.92651	0.31685
566.99795	0.25431
565.06938	0.19394
563.14082	0.23384
561.21226	0.31159
559.28369	0.29503
557.35513	0.27562
555.42656	0.30170
553.49800	0.32375
551.56943	0.39325
549.64087	0.48107
547.71230	0.40331
545.78374	0.34671
543.85518	0.35336
541.92661	0.35535
539.99805	0.32039
538.06948	0.29763
536.14092	0.31939
534.21235	0.33969
532.28379	0.27067
530.35522	0.19906
528.42666	0.27280
526.49810	0.62711
524.56953	0.64876
522.64097	0.35391
520.71240	0.23473
518.78384	0.20554
516.85527	0.25354
514.92671	0.34190
512.99814	0.38133
511.06958	0.42748
509.14102	0.46220
507.21245	0.30608
505.28389	0.24816
503.35532	0.28762
501.42676	0.23333
499.49819	0.18886
