3997.91411	0.06653
3995.98555	0.06671
3994.05698	0.06714
3992.12842	0.06766
3990.19985	0.06799
3988.27129	0.06835
3986.34272	0.06885
3984.41416	0.06913
3982.48560	0.06912
3980.55703	0.06910
3978.62847	0.06929
3976.69990	0.06982
3974.77134	0.07036
3972.84277	0.07042
3970.91421	0.07025
3968.98564	0.07040
3967.05708	0.07095
3965.12852	0.07161
3963.19995	0.07181
3961.27139	0.07144
3959.34282	0.07109
3957.41426	0.07113
3955.48569	0.07141
3953.55713	0.07174
3951.62856	0.07202
3949.70000	0.07219
3947.77144	0.07210
3945.84287	0.07172
3943.91431	0.07153
3941.98574	0.07169
3940.05718	0.07177
3938.12861	0.07187
3936.20005	0.07195
3934.27148	0.07196
3932.34292	0.07218
3930.41436	0.07226
3928.48579	0.07173
3926.55723	0.07117
3924.62866	0.07113
3922.70010	0.07134
3920.77153	0.07167
3918.84297	0.07223
3916.91440	0.07257
3914.98584	0.07221
3913.05728	0.07134
3911.12871	0.07058
3909.20015	0.07037
3907.27158	0.07070
3905.34302	0.07135
3903.41445	0.07204
3901.48589	0.07255
3899.55732	0.07266
3897.62876	0.07209
3895.70020	0.07127
3893.77163	0.07081
3891.84307	0.07107
3889.91450	0.07203
3887.98594	0.07238
3886.05737	0.07198
3884.12881	0.07165
3882.20024	0.07163
3880.27168	0.07212
3878.34312	0.07242
3876.41455	0.07190
3874.48599	0.07175
3872.55742	0.07273
3870.62886	0.07406
3868.70029	0.07443
3866.77173	0.07352
3864.84316	0.07303
3862.91460	0.07363
3860.98604	0.07430
3859.05747	0.07463
3857.12891	0.07504
3855.20034	0.07577
3853.27178	0.07705
3851.34321	0.07821
3849.41465	0.07788
3847.48608	0.07723
3845.55752	0.07733
3843.62896	0.07840
3841.70039	0.07967
3839.77183	0.08025
3837.84326	0.08084
3835.91470	0.08203
3833.98613	0.08268
3832.05757	0.08251
3830.12900	0.08239
3828.20044	0.08294
3826.27187	0.08398
3824.34331	0.08491
3822.41475	0.08585
3820.48618	0.08741
3818.55762	0.08850
3816.62905	0.08880
3814.70049	0.08952
3812.77192	0.09010
3810.84336	0.09019
3808.91479	0.09063
3806.98623	0.09201
3805.05767	0.09364
3803.12910	0.09476
3801.20054	0.09659
3799.27197	0.09862
3797.34341	0.09920
3795.41484	0.09969
3793.48628	0.10068
3791.55771	0.10169
3789.62915	0.10271
3787.70059	0.10374
3785.77202	0.10510
3783.84346	0.10674
3781.91489	0.10808
3779.98633	0.10974
3778.05776	0.11204
3776.12920	0.11366
3774.20063	0.11464
3772.27207	0.11592
3770.34351	0.11777
3768.41494	0.12007
3766.48638	0.12220
3764.55781	0.12433
3762.62925	0.12641
3760.70068	0.12835
3758.77212	0.13074
3756.84355	0.13322
3754.91499	0.13508
3752.98643	0.13713
3751.05786	0.14053
3749.12930	0.14513
3747.20073	0.14837
3745.27217	0.15060
3743.34360	0.15427
3741.41504	0.15805
3739.48647	0.16060
3737.55791	0.16398
3735.62935	0.16950
3733.70078	0.17597
3731.77222	0.18115
3729.84365	0.18525
3727.91509	0.18926
3725.98652	0.19448
3724.05796	0.20096
3722.12939	0.20768
3720.20083	0.21450
3718.27227	0.22122
3716.34370	0.22793
3714.41514	0.23495
3712.48657	0.24395
3710.55801	0.25737
3708.62944	0.27226
3706.70088	0.28444
3704.77231	0.29583
3702.84375	0.30889
3700.91519	0.32534
3698.98662	0.34317
3697.05806	0.36018
3695.12949	0.37849
3693.20093	0.39818
3691.27236	0.41934
3689.34380	0.44697
3687.41523	0.48225
3685.48667	0.51337
3683.55811	0.53929
3681.62954	0.56685
3679.70098	0.59799
3677.77241	0.63032
3675.84385	0.66823
3673.91528	0.72092
3671.98672	0.76558
3670.05815	0.80450
3668.12959	0.85726
3666.20103	0.90656
3664.27246	0.94814
3662.34390	0.99199
3660.41533	1.03852
3658.48677	1.08412
3656.55820	1.13341
3654.62964	1.18922
3652.70107	1.23544
3650.77251	1.27439
3648.84395	1.32904
3646.91538	1.39841
3644.98682	1.45039
3643.05825	1.49006
3641.12969	1.53018
3639.20112	1.57474
3637.27256	1.62023
3635.34399	1.66426
3633.41543	1.70746
3631.48687	1.74697
3629.55830	1.78594
3627.62974	1.83868
3625.70117	1.89134
3623.77261	1.92793
3621.84404	1.96171
3619.91548	1.99887
3617.98691	2.04307
3616.05835	2.08583
3614.12979	2.12175
3612.20122	2.16103
3610.27266	2.20260
3608.34409	2.24436
3606.41553	2.28723
3604.48696	2.32612
3602.55840	2.36135
3600.62983	2.40061
3598.70127	2.44347
3596.77271	2.48342
3594.84414	2.52197
3592.91558	2.56267
3590.98701	2.60169
3589.05845	2.63712
3587.12988	2.67951
3585.20132	2.72792
3583.27275	2.76923
3581.34419	2.80668
3579.41562	2.84717
3577.48706	2.89053
3575.55850	2.93429
3573.62993	2.97917
3571.70137	3.02167
3569.77280	3.05940
3567.84424	3.09848
3565.91567	3.14985
3563.98711	3.20319
3562.05854	3.24610
3560.12998	3.28747
3558.20142	3.33210
3556.27285	3.37680
3554.34429	3.41912
3552.41572	3.46322
3550.48716	3.50993
3548.55859	3.55782
3546.63003	3.60698
3544.70146	3.65493
3542.77290	3.70109
3540.84434	3.74814
3538.91577	3.79312
3536.98721	3.83451
3535.05864	3.87967
3533.13008	3.93054
3531.20151	3.98152
3529.27295	4.02783
3527.34438	4.07247
3525.41582	4.11910
3523.48726	4.16706
3521.55869	4.21677
3519.63013	4.26591
3517.70156	4.31291
3515.77300	4.35867
3513.84443	4.40444
3511.91587	4.44947
3509.98730	4.49665
3508.05874	4.54809
3506.13018	4.60032
3504.20161	4.65289
3502.27305	4.70570
3500.34448	4.75261
3498.41592	4.79186
3496.48735	4.83488
3494.55879	4.88667
3492.63022	4.93766
3490.70166	4.98318
3488.77310	5.02827
3486.84453	5.07324
3484.91597	5.11659
3482.98740	5.16379
3481.05884	5.21577
3479.13027	5.26336
3477.20171	5.30537
3475.27314	5.35456
3473.34458	5.41404
3471.41602	5.46852
3469.48745	5.50915
3467.55889	5.54528
3465.63032	5.59286
3463.70176	5.65575
3461.77319	5.71707
3459.84463	5.76915
3457.91606	5.81653
3455.98750	5.86069
3454.05894	5.91041
3452.13037	5.97128
3450.20181	6.02814
3448.27324	6.07228
3446.34468	6.12030
3444.41611	6.16888
3442.48755	6.19972
3440.55898	6.22143
3438.63042	6.25676
3436.70186	6.31363
3434.77329	6.38314
3432.84473	6.44071
3430.91616	6.48672
3428.98760	6.54637
3427.05903	6.59631
3425.13047	6.62938
3423.20190	6.67346
3421.27334	6.73571
3419.34478	6.81303
3417.41621	6.88219
3415.48765	6.90311
3413.55908	6.89341
3411.63052	6.92258
3409.70195	6.99844
3407.77339	7.07294
3405.84482	7.10129
3403.91626	7.09520
3401.98770	7.10836
3400.05913	7.16632
3398.13057	7.23961
3396.20200	7.29057
3394.27344	7.32041
3392.34487	7.35778
3390.41631	7.43674
3388.48774	7.51647
3386.55918	7.55945
3384.63062	7.57624
3382.70205	7.56233
3380.77349	7.53778
3378.84492	7.56812
3376.91636	7.64757
3374.98779	7.69545
3373.05923	7.74330
3371.13066	7.77821
3369.20210	7.74608
3367.27354	7.71467
3365.34497	7.73460
3363.41641	7.79238
3361.48784	7.85085
3359.55928	7.88391
3357.63071	7.91366
3355.70215	7.94516
3353.77358	7.92311
3351.84502	7.89025
3349.91646	7.90546
3347.98789	7.92995
3346.05933	7.94067
3344.13076	7.97710
3342.20220	8.00365
3340.27363	7.96888
3338.34507	7.94496
3336.41650	7.96637
3334.48794	7.99972
3332.55937	7.97175
3330.63081	7.91220
3328.70225	7.91477
3326.77368	7.97654
3324.84512	8.05102
3322.91655	8.10053
3320.98799	8.10308
3319.05942	8.04905
3317.13086	8.01904
3315.20229	8.05069
3313.27373	8.08483
3311.34517	8.08510
3309.41660	8.09699
3307.48804	8.15511
3305.55947	8.20652
3303.63091	8.20815
3301.70234	8.15349
3299.77378	8.11756
3297.84521	8.12492
3295.91665	8.11215
3293.98809	8.08140
3292.05952	8.10061
3290.13096	8.16417
3288.20239	8.17062
3286.27383	8.13136
3284.34526	8.12708
3282.41670	8.18162
3280.48813	8.24745
3278.55957	8.25206
3276.63101	8.21716
3274.70244	8.24102
3272.77388	8.29689
3270.84531	8.21867
3268.91675	8.08019
3266.98818	8.05084
3265.05962	8.09093
3263.13105	8.14408
3261.20249	8.26471
3259.27393	8.41607
3257.34536	8.47599
3255.41680	8.42912
3253.48823	8.36267
3251.55967	8.32323
3249.63110	8.30575
3247.70254	8.32316
3245.77397	8.33276
3243.84541	8.24857
3241.91685	8.09364
3239.98828	8.02782
3238.05972	8.12966
3236.13115	8.24152
3234.20259	8.21320
3232.27402	8.14238
3230.34546	8.06051
3228.41689	7.96135
3226.48833	7.92440
3224.55977	7.93947
3222.63120	7.97109
3220.70264	8.00090
3218.77407	7.98220
3216.84551	7.95636
3214.91694	7.98237
3212.98838	7.99954
3211.05981	7.94362
3209.13125	7.88855
3207.20269	7.87780
3205.27412	7.83405
3203.34556	7.73619
3201.41699	7.65998
3199.48843	7.62622
3197.55986	7.59664
3195.63130	7.57153
3193.70273	7.54231
3191.77417	7.48492
3189.84561	7.44961
3187.91704	7.44665
3185.98848	7.41391
3184.05991	7.36192
3182.13135	7.31774
3180.20278	7.23882
3178.27422	7.13773
3176.34565	7.08899
3174.41709	7.08051
3172.48853	7.04763
3170.55996	6.97930
3168.63140	6.91062
3166.70283	6.85748
3164.77427	6.79613
3162.84570	6.71472
3160.91714	6.61973
3158.98857	6.52143
3157.06001	6.44091
3155.13145	6.39753
3153.20288	6.37078
3151.27432	6.31235
3149.34575	6.21993
3147.41719	6.13138
3145.48862	6.06216
3143.56006	6.00391
3141.63149	5.95193
3139.70293	5.89619
3137.77437	5.81797
3135.84580	5.72606
3133.91724	5.64889
3131.98867	5.58342
3130.06011	5.51616
3128.13154	5.45384
3126.20298	5.39613
3124.27441	5.33579
3122.34585	5.27131
3120.41729	5.20034
3118.48872	5.12259
3116.56016	5.04298
3114.63159	4.96611
3112.70303	4.89981
3110.77446	4.84459
3108.84590	4.78628
3106.91733	4.71729
3104.98877	4.64418
3103.06021	4.57519
3101.13164	4.50924
3099.20308	4.44378
3097.27451	4.38026
3095.34595	4.31835
3093.41738	4.25741
3091.48882	4.19721
3089.56025	4.13718
3087.63169	4.07445
3085.70312	4.00914
3083.77456	3.94619
3081.84600	3.88752
3079.91743	3.83062
3077.98887	3.77237
3076.06030	3.71378
3074.13174	3.65672
3072.20317	3.60054
3070.27461	3.54573
3068.34604	3.49107
3066.41748	3.43469
3064.48892	3.37889
3062.56035	3.32508
3060.63179	3.27354
3058.70322	3.22434
3056.77466	3.17435
3054.84609	3.12260
3052.91753	3.07171
3050.98896	3.02152
3049.06040	2.97058
3047.13184	2.91986
3045.20327	2.87041
3043.27471	2.82274
3041.34614	2.77710
3039.41758	2.73222
3037.48901	2.68648
3035.56045	2.64035
3033.63188	2.59566
3031.70332	2.55215
3029.77476	2.50820
3027.84619	2.46446
3025.91763	2.42235
3023.98906	2.38142
3022.06050	2.34071
3020.13193	2.30040
3018.20337	2.26077
3016.27480	2.22140
3014.34624	2.18241
3012.41768	2.14443
3010.48911	2.10728
3008.56055	2.07082
3006.63198	2.03510
3004.70342	1.99986
3002.77485	1.96538
3000.84629	1.93197
2998.91772	1.89914
2996.98916	1.86693
2995.06060	1.83583
2993.13203	1.80559
2991.20347	1.77599
2989.27490	1.74695
2987.34634	1.71812
2985.41777	1.68975
2983.48921	1.66264
2981.56064	1.63689
2979.63208	1.61167
2977.70352	1.58644
2975.77495	1.56144
2973.84639	1.53715
2971.91782	1.51350
2969.98926	1.49008
2968.06069	1.46672
2966.13213	1.44372
2964.20356	1.42124
2962.27500	1.39903
2960.34644	1.37660
2958.41787	1.35368
2956.48931	1.33029
2954.56074	1.30679
2952.63218	1.28386
2950.70361	1.26165
2948.77505	1.23966
2946.84648	1.21765
2944.91792	1.19632
2942.98936	1.17597
2941.06079	1.15599
2939.13223	1.13663
2937.20366	1.11803
2935.27510	1.09894
2933.34653	1.07926
2931.41797	1.05990
2929.48940	1.04094
2927.56084	1.02219
2925.63228	1.00345
2923.70371	0.98476
2921.77515	0.96653
2919.84658	0.94926
2917.91802	0.93270
2915.98945	0.91604
2914.06089	0.89909
2912.13232	0.88252
2910.20376	0.86677
2908.27520	0.85144
2906.34663	0.83611
2904.41807	0.82115
2902.48950	0.80677
2900.56094	0.79264
2898.63237	0.77889
2896.70381	0.76562
2894.77524	0.75256
2892.84668	0.73989
2890.91812	0.72803
2888.98955	0.71704
2887.06099	0.70661
2885.13242	0.69625
2883.20386	0.68577
2881.27529	0.67549
2879.34673	0.66583
2877.41816	0.65679
2875.48960	0.64781
2873.56104	0.63822
2871.63247	0.62788
2869.70391	0.61699
2867.77534	0.60561
2865.84678	0.59384
2863.91821	0.58213
2861.98965	0.57095
2860.06108	0.56014
2858.13252	0.54954
2856.20396	0.53950
2854.27539	0.53001
2852.34683	0.52071
2850.41826	0.51161
2848.48970	0.50297
2846.56113	0.49490
2844.63257	0.48724
2842.70400	0.47998
2840.77544	0.47312
2838.84687	0.46665
2836.91831	0.46045
2834.98975	0.45411
2833.06118	0.44768
2831.13262	0.44149
2829.20405	0.43549
2827.27549	0.42957
2825.34692	0.42375
2823.41836	0.41783
2821.48979	0.41181
2819.56123	0.40599
2817.63267	0.40044
2815.70410	0.39490
2813.77554	0.38916
2811.84697	0.38347
2809.91841	0.37801
2807.98984	0.37261
2806.06128	0.36727
2804.13271	0.36210
2802.20415	0.35700
2800.27559	0.35204
2798.34702	0.34734
2796.41846	0.34261
2794.48989	0.33767
2792.56133	0.33289
2790.63276	0.32840
2788.70420	0.32400
2786.77563	0.31962
2784.84707	0.31523
2782.91851	0.31096
2780.98994	0.30688
2779.06138	0.30275
2777.13281	0.29868
2775.20425	0.29490
2773.27568	0.29124
2771.34712	0.28754
2769.41855	0.28390
2767.48999	0.28043
2765.56143	0.27690
2763.63286	0.27320
2761.70430	0.26960
2759.77573	0.26617
2757.84717	0.26277
2755.91860	0.25946
2753.99004	0.25629
2752.06147	0.25345
2750.13291	0.25081
2748.20435	0.24794
2746.27578	0.24489
2744.34722	0.24194
2742.41865	0.23915
2740.49009	0.23650
2738.56152	0.23396
2736.63296	0.23144
2734.70439	0.22897
2732.77583	0.22666
2730.84727	0.22432
2728.91870	0.22184
2726.99014	0.21941
2725.06157	0.21700
2723.13301	0.21460
2721.20444	0.21233
2719.27588	0.21022
2717.34731	0.20828
2715.41875	0.20654
2713.49019	0.20493
2711.56162	0.20328
2709.63306	0.20143
2707.70449	0.19947
2705.77593	0.19772
2703.84736	0.19611
2701.91880	0.19456
2699.99023	0.19318
2698.06167	0.19180
2696.13311	0.19022
2694.20454	0.18857
2692.27598	0.18713
2690.34741	0.18587
2688.41885	0.18456
2686.49028	0.18315
2684.56172	0.18182
2682.63315	0.18074
2680.70459	0.17981
2678.77603	0.17865
2676.84746	0.17737
2674.91890	0.17632
2672.99033	0.17532
2671.06177	0.17412
2669.13320	0.17292
2667.20464	0.17187
2665.27607	0.17098
2663.34751	0.17009
2661.41895	0.16906
2659.49038	0.16814
2657.56182	0.16738
2655.63325	0.16659
2653.70469	0.16586
2651.77612	0.16525
2649.84756	0.16449
2647.91899	0.16354
2645.99043	0.16272
2644.06187	0.16226
2642.13330	0.16194
2640.20474	0.16142
2638.27617	0.16074
2636.34761	0.16013
2634.41904	0.15967
2632.49048	0.15925
2630.56191	0.15879
2628.63335	0.15826
2626.70479	0.15773
2624.77622	0.15726
2622.84766	0.15693
2620.91909	0.15672
2618.99053	0.15651
2617.06196	0.15621
2615.13340	0.15596
2613.20483	0.15573
2611.27627	0.15538
2609.34771	0.15508
2607.41914	0.15496
2605.49058	0.15489
2603.56201	0.15483
2601.63345	0.15479
2599.70488	0.15471
2597.77632	0.15467
2595.84775	0.15470
2593.91919	0.15469
2591.99062	0.15464
2590.06206	0.15459
2588.13350	0.15455
2586.20493	0.15464
2584.27637	0.15497
2582.34780	0.15527
2580.41924	0.15526
2578.49067	0.15524
2576.56211	0.15546
2574.63354	0.15583
2572.70498	0.15628
2570.77642	0.15661
2568.84785	0.15673
2566.91929	0.15683
2564.99072	0.15708
2563.06216	0.15758
2561.13359	0.15816
2559.20503	0.15855
2557.27646	0.15879
2555.34790	0.15906
2553.41934	0.15938
2551.49077	0.15976
2549.56221	0.16027
2547.63364	0.16083
2545.70508	0.16143
2543.77651	0.16196
2541.84795	0.16236
2539.91938	0.16282
2537.99082	0.16341
2536.06226	0.16401
2534.13369	0.16462
2532.20513	0.16522
2530.27656	0.16577
2528.34800	0.16636
2526.41943	0.16703
2524.49087	0.16776
2522.56230	0.16853
2520.63374	0.16924
2518.70518	0.16988
2516.77661	0.17052
2514.84805	0.17121
2512.91948	0.17196
2510.99092	0.17275
2509.06235	0.17359
2507.13379	0.17441
2505.20522	0.17507
2503.27666	0.17576
2501.34810	0.17658
2499.41953	0.17722
2497.49097	0.17773
2495.56240	0.17843
2493.63384	0.17931
2491.70527	0.18011
2489.77671	0.18081
2487.84814	0.18159
2485.91958	0.18248
2483.99102	0.18335
2482.06245	0.18421
2480.13389	0.18510
2478.20532	0.18604
2476.27676	0.18693
2474.34819	0.18771
2472.41963	0.18856
2470.49106	0.18948
2468.56250	0.19023
2466.63394	0.19085
2464.70537	0.19159
2462.77681	0.19254
2460.84824	0.19361
2458.91968	0.19457
2456.99111	0.19531
2455.06255	0.19604
2453.13398	0.19699
2451.20542	0.19802
2449.27686	0.19894
2447.34829	0.19979
2445.41973	0.20068
2443.49116	0.20167
2441.56260	0.20274
2439.63403	0.20370
2437.70547	0.20455
2435.77690	0.20550
2433.84834	0.20648
2431.91978	0.20744
2429.99121	0.20843
2428.06265	0.20951
2426.13408	0.21069
2424.20552	0.21183
2422.27695	0.21284
2420.34839	0.21382
2418.41982	0.21480
2416.49126	0.21579
2414.56270	0.21688
2412.63413	0.21798
2410.70557	0.21900
2408.77700	0.21999
2406.84844	0.22105
2404.91987	0.22226
2402.99131	0.22356
2401.06274	0.22487
2399.13418	0.22608
2397.20562	0.22712
2395.27705	0.22828
2393.34849	0.22963
2391.41992	0.23096
2389.49136	0.23229
2387.56279	0.23375
2385.63423	0.23551
2383.70566	0.23787
2381.77710	0.24085
2379.84854	0.24411
2377.91997	0.24758
2375.99141	0.25140
2374.06284	0.25567
2372.13428	0.26033
2370.20571	0.26545
2368.27715	0.27096
2366.34858	0.27647
2364.42002	0.28147
2362.49146	0.28525
2360.56289	0.28757
2358.63433	0.28881
2356.70576	0.28865
2354.77720	0.28664
2352.84863	0.28405
2350.92007	0.28168
2348.99150	0.28002
2347.06294	0.28019
2345.13437	0.28358
2343.20581	0.28939
2341.27725	0.29346
2339.34868	0.29482
2337.42012	0.29534
2335.49155	0.29598
2333.56299	0.29649
2331.63442	0.29726
2329.70586	0.29873
2327.77729	0.30026
2325.84873	0.30092
2323.92017	0.30093
2321.99160	0.30098
2320.06304	0.30114
2318.13447	0.30129
2316.20591	0.30131
2314.27734	0.30158
2312.34878	0.30251
2310.42021	0.30371
2308.49165	0.30453
2306.56309	0.30496
2304.63452	0.30545
2302.70596	0.30631
2300.77739	0.30748
2298.84883	0.30872
2296.92026	0.30994
2294.99170	0.31110
2293.06313	0.31228
2291.13457	0.31353
2289.20601	0.31484
2287.27744	0.31615
2285.34888	0.31754
2283.42031	0.31916
2281.49175	0.32114
2279.56318	0.32332
2277.63462	0.32538
2275.70605	0.32731
2273.77749	0.32936
2271.84893	0.33150
2269.92036	0.33358
2267.99180	0.33542
2266.06323	0.33707
2264.13467	0.33895
2262.20610	0.34123
2260.27754	0.34354
2258.34897	0.34560
2256.42041	0.34754
2254.49185	0.34952
2252.56328	0.35158
2250.63472	0.35369
2248.70615	0.35572
2246.77759	0.35770
2244.84902	0.35978
2242.92046	0.36194
2240.99189	0.36406
2239.06333	0.36614
2237.13477	0.36822
2235.20620	0.37039
2233.27764	0.37268
2231.34907	0.37490
2229.42051	0.37695
2227.49194	0.37905
2225.56338	0.38126
2223.63481	0.38340
2221.70625	0.38553
2219.77769	0.38772
2217.84912	0.38992
2215.92056	0.39212
2213.99199	0.39430
2212.06343	0.39633
2210.13486	0.39823
2208.20630	0.40021
2206.27773	0.40235
2204.34917	0.40452
2202.42061	0.40659
2200.49204	0.40856
2198.56348	0.41055
2196.63491	0.41256
2194.70635	0.41455
2192.77778	0.41647
2190.84922	0.41836
2188.92065	0.42024
2186.99209	0.42208
2185.06353	0.42380
2183.13496	0.42547
2181.20640	0.42712
2179.27783	0.42860
2177.34927	0.43004
2175.42070	0.43157
2173.49214	0.43310
2171.56357	0.43453
2169.63501	0.43580
2167.70645	0.43704
2165.77788	0.43845
2163.84932	0.43993
2161.92075	0.44111
2159.99219	0.44190
2158.06362	0.44266
2156.13506	0.44370
2154.20649	0.44483
2152.27793	0.44569
2150.34937	0.44627
2148.42080	0.44688
2146.49224	0.44758
2144.56367	0.44814
2142.63511	0.44862
2140.70654	0.44910
2138.77798	0.44935
2136.84941	0.44946
2134.92085	0.44956
2132.99229	0.44957
2131.06372	0.44951
2129.13516	0.44940
2127.20659	0.44921
2125.27803	0.44897
2123.34946	0.44865
2121.42090	0.44829
2119.49233	0.44793
2117.56377	0.44756
2115.63521	0.44701
2113.70664	0.44616
2111.77808	0.44516
2109.84951	0.44411
2107.92095	0.44310
2105.99238	0.44222
2104.06382	0.44127
2102.13525	0.43996
2100.20669	0.43848
2098.27812	0.43715
2096.34956	0.43590
2094.42100	0.43452
2092.49243	0.43302
2090.56387	0.43147
2088.63530	0.42989
2086.70674	0.42826
2084.77817	0.42645
2082.84961	0.42458
2080.92104	0.42275
2078.99248	0.42086
2077.06392	0.41885
2075.13535	0.41676
2073.20679	0.41463
2071.27822	0.41249
2069.34966	0.41039
2067.42109	0.40820
2065.49253	0.40592
2063.56396	0.40361
2061.63540	0.40129
2059.70684	0.39884
2057.77827	0.39625
2055.84971	0.39367
2053.92114	0.39119
2051.99258	0.38881
2050.06401	0.38637
2048.13545	0.38383
2046.20688	0.38131
2044.27832	0.37878
2042.34976	0.37615
2040.42119	0.37343
2038.49263	0.37070
2036.56406	0.36800
2034.63550	0.36536
2032.70693	0.36265
2030.77837	0.35986
2028.84980	0.35707
2026.92124	0.35435
2024.99268	0.35158
2023.06411	0.34882
2021.13555	0.34618
2019.20698	0.34362
2017.27842	0.34098
2015.34985	0.33825
2013.42129	0.33557
2011.49272	0.33287
2009.56416	0.33010
2007.63560	0.32736
2005.70703	0.32476
2003.77847	0.32224
2001.84990	0.31960
1999.92134	0.31686
1997.99277	0.31418
1996.06421	0.31165
1994.13564	0.30930
1992.20708	0.30697
1990.27852	0.30450
1988.34995	0.30204
1986.42139	0.29966
1984.49282	0.29730
1982.56426	0.29496
1980.63569	0.29268
1978.70713	0.29034
1976.77856	0.28799
1974.85000	0.28582
1972.92144	0.28380
1970.99287	0.28178
1969.06431	0.27982
1967.13574	0.27789
1965.20718	0.27582
1963.27861	0.27375
1961.35005	0.27184
1959.42148	0.27001
1957.49292	0.26818
1955.56436	0.26642
1953.63579	0.26473
1951.70723	0.26302
1949.77866	0.26134
1947.85010	0.25976
1945.92153	0.25826
1943.99297	0.25681
1942.06440	0.25532
1940.13584	0.25372
1938.20728	0.25219
1936.27871	0.25088
1934.35015	0.24962
1932.42158	0.24830
1930.49302	0.24698
1928.56445	0.24583
1926.63589	0.24479
1924.70732	0.24381
1922.77876	0.24290
1920.85020	0.24196
1918.92163	0.24104
1916.99307	0.24014
1915.06450	0.23918
1913.13594	0.23822
1911.20737	0.23747
1909.27881	0.23692
1907.35024	0.23636
1905.42168	0.23574
1903.49312	0.23515
1901.56455	0.23452
1899.63599	0.23384
1897.70742	0.23332
1895.77886	0.23307
1893.85029	0.23292
1891.92173	0.23258
1889.99316	0.23221
1888.06460	0.23183
1886.13604	0.23143
1884.20747	0.23113
1882.27891	0.23094
1880.35034	0.23086
1878.42178	0.23080
1876.49321	0.23076
1874.56465	0.23071
1872.63608	0.23076
1870.70752	0.23102
1868.77896	0.23153
1866.85039	0.23182
1864.92183	0.23174
1862.99326	0.23170
1861.06470	0.23183
1859.13613	0.23217
1857.20757	0.23255
1855.27900	0.23296
1853.35044	0.23339
1851.42187	0.23389
1849.49331	0.23442
1847.56475	0.23503
1845.63618	0.23585
1843.70762	0.23691
1841.77905	0.23777
1839.85049	0.23827
1837.92192	0.23899
1835.99336	0.23986
1834.06479	0.24075
1832.13623	0.24164
1830.20767	0.24292
1828.27910	0.24440
1826.35054	0.24557
1824.42197	0.24685
1822.49341	0.24805
1820.56484	0.24917
1818.63628	0.25044
1816.70771	0.25202
1814.77915	0.25366
1812.85059	0.25538
1810.92202	0.25733
1808.99346	0.25933
1807.06489	0.26124
1805.13633	0.26308
1803.20776	0.26519
1801.27920	0.26764
1799.35063	0.27037
1797.42207	0.27282
1795.49351	0.27514
1793.56494	0.27785
1791.63638	0.28146
1789.70781	0.28501
1787.77925	0.28759
1785.85068	0.29049
1783.92212	0.29394
1781.99355	0.29780
1780.06499	0.30200
1778.13643	0.30629
1776.20786	0.31023
1774.27930	0.31434
1772.35073	0.31990
1770.42217	0.32614
1768.49360	0.33153
1766.56504	0.33670
1764.63647	0.34192
1762.70791	0.34755
1760.77935	0.35478
1758.85078	0.36171
1756.92222	0.36873
1754.99365	0.37639
1753.06509	0.38322
1751.13652	0.39121
1749.20796	0.40140
1747.27939	0.41177
1745.35083	0.42091
1743.42227	0.43041
1741.49370	0.44082
1739.56514	0.45318
1737.63657	0.46564
1735.70801	0.47643
1733.77944	0.49228
1731.85088	0.51142
1729.92231	0.52697
1727.99375	0.54265
1726.06519	0.55923
1724.13662	0.57724
1722.20806	0.59683
1720.27949	0.61493
1718.35093	0.63589
1716.42236	0.66713
1714.49380	0.69745
1712.56523	0.72213
1710.63667	0.74596
1708.70811	0.77171
1706.77954	0.80103
1704.85098	0.83607
1702.92241	0.86735
1700.99385	0.89868
1699.06528	0.94595
1697.13672	0.98973
1695.20815	1.03502
1693.27959	1.07996
1691.35103	1.11686
1689.42246	1.15933
1687.49390	1.20400
1685.56533	1.24704
1683.63677	1.31376
1681.70820	1.38426
1679.77964	1.43010
1677.85107	1.47329
1675.92251	1.52284
1673.99395	1.58447
1672.06538	1.63914
1670.13682	1.69252
1668.20825	1.76439
1666.27969	1.82557
1664.35112	1.87771
1662.42256	1.94311
1660.49399	2.01780
1658.56543	2.07684
1656.63687	2.12430
1654.70830	2.16648
1652.77974	2.22825
1650.85117	2.28407
1648.92261	2.30241
1646.99404	2.32686
1645.06548	2.35355
1643.13691	2.36998
1641.20835	2.37893
1639.27979	2.38632
1637.35122	2.38779
1635.42266	2.38193
1633.49409	2.37192
1631.56553	2.35717
1629.63696	2.33803
1627.70840	2.30715
1625.77983	2.27182
1623.85127	2.22635
1621.92271	2.16937
1619.99414	2.11922
1618.06558	2.07115
1616.13701	2.00320
1614.20845	1.93479
1612.27988	1.88302
1610.35132	1.82961
1608.42275	1.77215
1606.49419	1.71527
1604.56562	1.66289
1602.63706	1.61270
1600.70850	1.56396
1598.77993	1.51934
1596.85137	1.47772
1594.92280	1.43750
1592.99424	1.39865
1591.06567	1.36298
1589.13711	1.32982
1587.20854	1.29949
1585.27998	1.27208
1583.35142	1.24693
1581.42285	1.22422
1579.49429	1.20511
1577.56572	1.18846
1575.63716	1.16899
1573.70859	1.15239
1571.78003	1.14220
1569.85146	1.13292
1567.92290	1.12352
1565.99434	1.11701
1564.06577	1.11337
1562.13721	1.11164
1560.20864	1.11259
1558.28008	1.12063
1556.35151	1.12936
1554.42295	1.13381
1552.49438	1.13811
1550.56582	1.14076
1548.63726	1.14049
1546.70869	1.13665
1544.78013	1.12848
1542.85156	1.11561
1540.92300	1.09466
1538.99443	1.06209
1537.06587	1.03861
1535.13730	1.02224
1533.20874	1.00014
1531.28018	0.97640
1529.35161	0.95901
1527.42305	0.94245
1525.49448	0.92506
1523.56592	0.91045
1521.63735	0.89731
1519.70879	0.88450
1517.78022	0.87346
1515.85166	0.86018
1513.92310	0.84584
1511.99453	0.83304
1510.06597	0.82131
1508.13740	0.80974
1506.20884	0.79257
1504.28027	0.77835
1502.35171	0.77058
1500.42314	0.76378
1498.49458	0.75635
1496.56602	0.74749
1494.63745	0.73898
1492.70889	0.73255
1490.78032	0.72670
1488.85176	0.72022
1486.92319	0.71446
1484.99463	0.70989
1483.06606	0.70631
1481.13750	0.70366
1479.20894	0.70202
1477.28037	0.70146
1475.35181	0.70177
1473.42324	0.70268
1471.49468	0.70329
1469.56611	0.70260
1467.63755	0.70087
1465.70898	0.69898
1463.78042	0.69770
1461.85186	0.69725
1459.92329	0.69737
1457.99473	0.69788
1456.06616	0.69757
1454.13760	0.69551
1452.20903	0.69302
1450.28047	0.69025
1448.35190	0.68737
1446.42334	0.68438
1444.49478	0.68136
1442.56621	0.67839
1440.63765	0.67524
1438.70908	0.67171
1436.78052	0.66723
1434.85195	0.66248
1432.92339	0.65918
1430.99482	0.65724
1429.06626	0.65625
1427.13770	0.65597
1425.20913	0.65641
1423.28057	0.65758
1421.35200	0.65858
1419.42344	0.65918
1417.49487	0.65946
1415.56631	0.65897
1413.63774	0.65849
1411.70918	0.65889
1409.78062	0.66032
1407.85205	0.66223
1405.92349	0.66441
1403.99492	0.66661
1402.06636	0.66770
1400.13779	0.66745
1398.20923	0.66606
1396.28066	0.66354
1394.35210	0.65957
1392.42354	0.65470
1390.49497	0.64995
1388.56641	0.64505
1386.63784	0.63923
1384.70928	0.63305
1382.78071	0.62743
1380.85215	0.62240
1378.92358	0.61799
1376.99502	0.61447
1375.06646	0.61197
1373.13789	0.61036
1371.20933	0.60938
1369.28076	0.60849
1367.35220	0.60710
1365.42363	0.60532
1363.49507	0.60368
1361.56650	0.60220
1359.63794	0.60075
1357.70937	0.59935
1355.78081	0.59794
1353.85225	0.59673
1351.92368	0.59602
1349.99512	0.59557
1348.06655	0.59488
1346.13799	0.59393
1344.20942	0.59301
1342.28086	0.59221
1340.35229	0.59155
1338.42373	0.59099
1336.49517	0.59059
1334.56660	0.59039
1332.63804	0.59036
1330.70947	0.59060
1328.78091	0.59117
1326.85234	0.59200
1324.92378	0.59310
1322.99521	0.59435
1321.06665	0.59551
1319.13809	0.59648
1317.20952	0.59722
1315.28096	0.59761
1313.35239	0.59761
1311.42383	0.59721
1309.49526	0.59658
1307.56670	0.59604
1305.63813	0.59571
1303.70957	0.59545
1301.78101	0.59504
1299.85244	0.59426
1297.92388	0.59320
1295.99531	0.59200
1294.06675	0.59075
1292.13818	0.58947
1290.20962	0.58814
1288.28105	0.58674
1286.35249	0.58526
1284.42393	0.58366
1282.49536	0.58202
1280.56680	0.58041
1278.63823	0.57884
1276.70967	0.57742
1274.78110	0.57627
1272.85254	0.57533
1270.92397	0.57452
1268.99541	0.57372
1267.06685	0.57286
1265.13828	0.57198
1263.20972	0.57111
1261.28115	0.57018
1259.35259	0.56926
1257.42402	0.56850
1255.49546	0.56804
1253.56689	0.56792
1251.63833	0.56805
1249.70977	0.56824
1247.78120	0.56827
1245.85264	0.56801
1243.92407	0.56733
1241.99551	0.56624
1240.06694	0.56480
1238.13838	0.56294
1236.20981	0.56064
1234.28125	0.55810
1232.35269	0.55557
1230.42412	0.55303
1228.49556	0.55059
1226.56699	0.54838
1224.63843	0.54634
1222.70986	0.54443
1220.78130	0.54267
1218.85273	0.54110
1216.92417	0.53975
1214.99561	0.53850
1213.06704	0.53738
1211.13848	0.53648
1209.20991	0.53572
1207.28135	0.53499
1205.35278	0.53420
1203.42422	0.53324
1201.49565	0.53218
1199.56709	0.53126
1197.63853	0.53061
1195.70996	0.53002
1193.78140	0.52939
1191.85283	0.52881
1189.92427	0.52840
1187.99570	0.52820
1186.06714	0.52817
1184.13857	0.52838
1182.21001	0.52897
1180.28145	0.52996
1178.35288	0.53139
1176.42432	0.53311
1174.49575	0.53465
1172.56719	0.53572
1170.63862	0.53611
1168.71006	0.53600
1166.78149	0.53592
1164.85293	0.53590
1162.92437	0.53571
1160.99580	0.53551
1159.06724	0.53534
1157.13867	0.53493
1155.21011	0.53412
1153.28154	0.53287
1151.35298	0.53107
1149.42441	0.52869
1147.49585	0.52596
1145.56729	0.52318
1143.63872	0.52057
1141.71016	0.51825
1139.78159	0.51639
1137.85303	0.51489
1135.92446	0.51370
1133.99590	0.51312
1132.06733	0.51312
1130.13877	0.51332
1128.21021	0.51331
1126.28164	0.51271
1124.35308	0.51170
1122.42451	0.51093
1120.49595	0.51062
1118.56738	0.51071
1116.63882	0.51106
1114.71025	0.51150
1112.78169	0.51200
1110.85312	0.51258
1108.92456	0.51323
1106.99600	0.51403
1105.06743	0.51507
1103.13887	0.51625
1101.21030	0.51735
1099.28174	0.51864
1097.35317	0.52064
1095.42461	0.52357
1093.49604	0.52731
1091.56748	0.53175
1089.63892	0.53701
1087.71035	0.54328
1085.78179	0.55058
1083.85322	0.55830
1081.92466	0.56514
1079.99609	0.57018
1078.06753	0.57290
1076.13896	0.57290
1074.21040	0.57021
1072.28184	0.56522
1070.35327	0.55875
1068.42471	0.55178
1066.49614	0.54491
1064.56758	0.53856
1062.63901	0.53286
1060.71045	0.52785
1058.78188	0.52350
1056.85332	0.51958
1054.92476	0.51606
1052.99619	0.51299
1051.06763	0.51028
1049.13906	0.50803
1047.21050	0.50624
1045.28193	0.50472
1043.35337	0.50349
1041.42480	0.50270
1039.49624	0.50207
1037.56768	0.50153
1035.63911	0.50114
1033.71055	0.50063
1031.78198	0.49998
1029.85342	0.49923
1027.92485	0.49816
1025.99629	0.49694
1024.06772	0.49594
1022.13916	0.49530
1020.21060	0.49519
1018.28203	0.49549
1016.35347	0.49571
1014.42490	0.49577
1012.49634	0.49573
1010.56777	0.49572
1008.63921	0.49601
1006.71064	0.49679
1004.78208	0.49817
1002.85352	0.50014
1000.92495	0.50262
998.99639	0.50573
997.06782	0.50955
995.13926	0.51393
993.21069	0.51827
991.28213	0.52177
989.35356	0.52406
987.42500	0.52518
985.49644	0.52547
983.56787	0.52547
981.63931	0.52556
979.71074	0.52599
977.78218	0.52694
975.85361	0.52861
973.92505	0.53108
971.99648	0.53399
970.06792	0.53698
968.13936	0.54033
966.21079	0.54443
964.28223	0.54902
962.35366	0.55377
960.42510	0.55863
958.49653	0.56355
956.56797	0.56888
954.63940	0.57499
952.71084	0.58138
950.78228	0.58750
948.85371	0.59342
946.92515	0.59935
944.99658	0.60521
943.06802	0.61125
941.13945	0.61782
939.21089	0.62436
937.28232	0.63018
935.35376	0.63540
933.42520	0.64026
931.49663	0.64525
929.56807	0.65076
927.63950	0.65656
925.71094	0.66253
923.78237	0.66865
921.85381	0.67484
919.92524	0.68128
917.99668	0.68794
916.06812	0.69460
914.13955	0.70155
912.21099	0.70923
910.28242	0.71770
908.35386	0.72666
906.42529	0.73536
904.49673	0.74311
902.56816	0.75075
900.63960	0.75960
898.71104	0.76964
896.78247	0.78041
894.85391	0.79101
892.92534	0.80024
890.99678	0.80929
889.06821	0.82014
887.13965	0.83106
885.21108	0.84034
883.28252	0.85039
881.35396	0.86325
879.42539	0.87698
877.49683	0.88800
875.56826	0.89702
873.63970	0.90773
871.71113	0.92063
869.78257	0.93414
867.85400	0.94687
865.92544	0.95698
863.99687	0.96489
862.06831	0.97378
860.13975	0.98486
858.21118	0.99711
856.28262	1.00944
854.35405	1.02146
852.42549	1.03392
850.49692	1.04690
848.56836	1.05843
846.63979	1.06783
844.71123	1.07714
842.78267	1.08881
840.85410	1.10349
838.92554	1.11733
836.99697	1.12766
835.06841	1.13607
833.13984	1.14494
831.21128	1.15589
829.28271	1.16540
827.35415	1.17174
825.42559	1.17941
823.49702	1.19350
821.56846	1.21401
819.63989	1.23363
817.71133	1.24617
815.78276	1.25460
813.85420	1.26640
811.92563	1.27906
809.99707	1.28201
808.06851	1.27598
806.13994	1.27643
804.21138	1.29156
802.28281	1.31123
800.35425	1.32199
798.42568	1.33259
796.49712	1.36087
794.56855	1.39319
792.63999	1.39728
790.71143	1.37383
788.78286	1.35374
786.85430	1.35843
784.92573	1.38872
782.99717	1.41533
781.06860	1.42508
779.14004	1.43799
777.21147	1.42538
775.28291	1.41208
773.35435	1.44169
771.42578	1.41878
769.49722	1.35915
767.56865	1.39002
765.64009	1.44007
763.71152	1.36305
761.78296	1.26752
759.85439	1.26061
757.92583	1.34503
755.99727	1.45794
754.06870	1.54229
752.14014	1.54590
750.21157	1.52531
748.28301	1.67005
746.35444	2.27685
744.42588	4.46656
742.49731	4.45498
740.56875	4.44341
738.64019	1.28601
736.71162	1.00117
734.78306	0.97095
732.85449	1.15233
730.92593	4.38556
728.99736	4.37398
727.06880	0.83775
725.14023	0.37698
723.21167	0.19407
721.28311	0.17537
719.35454	0.31332
717.42598	0.48318
715.49741	0.43317
713.56885	0.51459
711.64028	0.56509
709.71172	0.32244
707.78315	0.19805
705.85459	0.20786
703.92603	0.35789
701.99746	0.61126
700.06890	0.54575
698.14033	0.36846
696.21177	0.34870
694.28320	0.58541
692.35464	1.30325
690.42607	0.89671
688.49751	0.64592
686.56895	0.77088
684.64038	0.92474
682.71182	0.87118
680.78325	4.08470
678.85469	4.07313
676.92612	4.06156
674.99756	0.35513
673.06899	0.23483
671.14043	0.31726
669.21187	0.40479
667.28330	0.39308
665.35474	0.27798
663.42617	0.21983
661.49761	0.31536
659.56904	0.38310
657.64048	0.38833
655.71191	0.56673
653.78335	3.92270
651.85479	3.91113
649.92622	3.89956
647.99766	0.75603
646.06909	0.39848
644.14053	0.32534
642.21196	0.34616
640.28340	0.31324
638.35483	0.25564
636.42627	0.28331
634.49771	0.48040
632.56914	3.79541
630.64058	3.78384
628.71201	0.85786
626.78345	0.43902
624.85488	0.36770
622.92632	0.39136
620.99775	0.49380
619.06919	0.65132
617.14062	0.82832
615.21206	3.69127
613.28350	3.67970
611.35493	3.66813
609.42637	0.77662
607.49780	0.48777
605.56924	0.61006
603.64067	3.62184
601.71211	3.61027
599.78354	3.59870
597.85498	1.73331
595.92642	0.87209
593.99785	0.76130
592.06929	0.82886
590.14072	1.09908
588.21216	0.69056
586.28359	0.43871
584.35503	0.37472
582.42646	0.42371
580.49790	0.50387
578.56934	0.51200
576.64077	0.41591
574.71221	0.30005
572.78364	0.25228
570.85508	0.32090
568.92651	0.67019
566.99795	3.40199
565.06938	2.38960
563.14082	0.44679
561.21226	0.33941
559.28369	0.27413
557.35513	0.23741
555.42656	0.27806
553.49800	0.39283
551.56943	0.55383
549.64087	0.69979
547.71230	0.73018
545.78374	0.55369
543.85518	0.32258
541.92661	0.21463
539.99805	0.23658
538.06948	0.30807
536.14092	0.32048
534.21235	0.39476
532.28379	0.54547
530.35522	0.49959
528.42666	0.42513
526.49810	0.49227
524.56953	0.54631
522.64097	0.46423
520.71240	0.37872
518.78384	0.34125
516.85527	0.39415
514.92671	0.46169
512.99814	0.41569
511.06958	0.38363
509.14102	0.38090
507.21245	0.40352
505.28389	0.50880
503.35532	0.68487
501.42676	0.59937
499.49819	0.41112
