3997.91411	0.06683
3995.98555	0.06719
3994.05698	0.06773
3992.12842	0.06837
3990.19985	0.06878
3988.27129	0.06932
3986.34272	0.06981
3984.41416	0.06982
3982.48560	0.06973
3980.55703	0.06986
3978.62847	0.07008
3976.69990	0.07028
3974.77134	0.07062
3972.84277	0.07105
3970.91421	0.07118
3968.98564	0.07121
3967.05708	0.07154
3965.12852	0.07172
3963.19995	0.07139
3961.27139	0.07093
3959.34282	0.07085
3957.41426	0.07113
3955.48569	0.07139
3953.55713	0.07143
3951.62856	0.07138
3949.70000	0.07132
3947.77144	0.07139
3945.84287	0.07171
3943.91431	0.07204
3941.98574	0.07215
3940.05718	0.07189
3938.12861	0.07173
3936.20005	0.07226
3934.27148	0.07261
3932.34292	0.07194
3930.41436	0.07129
3928.48579	0.07127
3926.55723	0.07114
3924.62866	0.07099
3922.70010	0.07116
3920.77153	0.07115
3918.84297	0.07077
3916.91440	0.07072
3914.98584	0.07124
3913.05728	0.07158
3911.12871	0.07162
3909.20015	0.07157
3907.27158	0.07105
3905.34302	0.07014
3903.41445	0.06956
3901.48589	0.06951
3899.55732	0.06977
3897.62876	0.07002
3895.70020	0.06995
3893.77163	0.06966
3891.84307	0.06971
3889.91450	0.07054
3887.98594	0.07112
3886.05737	0.07099
3884.12881	0.07056
3882.20024	0.06988
3880.27168	0.06970
3878.34312	0.07049
3876.41455	0.07076
3874.48599	0.07034
3872.55742	0.07030
3870.62886	0.07073
3868.70029	0.07149
3866.77173	0.07223
3864.84316	0.07226
3862.91460	0.07204
3860.98604	0.07275
3859.05747	0.07373
3857.12891	0.07374
3855.20034	0.07297
3853.27178	0.07250
3851.34321	0.07386
3849.41465	0.07529
3847.48608	0.07572
3845.55752	0.07599
3843.62896	0.07634
3841.70039	0.07649
3839.77183	0.07641
3837.84326	0.07634
3835.91470	0.07651
3833.98613	0.07729
3832.05757	0.07886
3830.12900	0.08075
3828.20044	0.08184
3826.27187	0.08209
3824.34331	0.08250
3822.41475	0.08343
3820.48618	0.08455
3818.55762	0.08525
3816.62905	0.08568
3814.70049	0.08658
3812.77192	0.08771
3810.84336	0.08870
3808.91479	0.08959
3806.98623	0.09044
3805.05767	0.09133
3803.12910	0.09198
3801.20054	0.09309
3799.27197	0.09525
3797.34341	0.09694
3795.41484	0.09821
3793.48628	0.09960
3791.55771	0.10086
3789.62915	0.10196
3787.70059	0.10304
3785.77202	0.10413
3783.84346	0.10509
3781.91489	0.10596
3779.98633	0.10727
3778.05776	0.10954
3776.12920	0.11185
3774.20063	0.11351
3772.27207	0.11496
3770.34351	0.11674
3768.41494	0.11913
3766.48638	0.12129
3764.55781	0.12292
3762.62925	0.12436
3760.70068	0.12587
3758.77212	0.12784
3756.84355	0.13026
3754.91499	0.13250
3752.98643	0.13442
3751.05786	0.13667
3749.12930	0.13940
3747.20073	0.14143
3745.27217	0.14361
3743.34360	0.14782
3741.41504	0.15198
3739.48647	0.15413
3737.55791	0.15573
3735.62935	0.15802
3733.70078	0.16200
3731.77222	0.16694
3729.84365	0.17123
3727.91509	0.17503
3725.98652	0.18014
3724.05796	0.18731
3722.12939	0.19553
3720.20083	0.20455
3718.27227	0.21387
3716.34370	0.22265
3714.41514	0.23022
3712.48657	0.23760
3710.55801	0.24810
3708.62944	0.26192
3706.70088	0.27481
3704.77231	0.28657
3702.84375	0.29947
3700.91519	0.31620
3698.98662	0.33504
3697.05806	0.35292
3695.12949	0.37140
3693.20093	0.39059
3691.27236	0.41111
3689.34380	0.43841
3687.41523	0.47400
3685.48667	0.50612
3683.55811	0.53312
3681.62954	0.56112
3679.70098	0.59240
3677.77241	0.62489
3675.84385	0.66228
3673.91528	0.71359
3671.98672	0.75702
3670.05815	0.79577
3668.12959	0.84978
3666.20103	0.90001
3664.27246	0.94179
3662.34390	0.98606
3660.41533	1.03320
3658.48677	1.07868
3656.55820	1.12645
3654.62964	1.18069
3652.70107	1.22690
3650.77251	1.26598
3648.84395	1.31913
3646.91538	1.38775
3644.98682	1.44148
3643.05825	1.48249
3641.12969	1.52214
3639.20112	1.56500
3637.27256	1.60886
3635.34399	1.65185
3633.41543	1.69424
3631.48687	1.73322
3629.55830	1.77161
3627.62974	1.82283
3625.70117	1.87397
3623.77261	1.91020
3621.84404	1.94485
3619.91548	1.98350
3617.98691	2.02910
3616.05835	2.07299
3614.12979	2.10952
3612.20122	2.14824
3610.27266	2.18745
3608.34409	2.22615
3606.41553	2.26788
3604.48696	2.30880
3602.55840	2.34538
3600.62983	2.38263
3598.70127	2.42322
3596.77271	2.46391
3594.84414	2.50455
3592.91558	2.54619
3590.98701	2.58587
3589.05845	2.62216
3587.12988	2.66427
3585.20132	2.71291
3583.27275	2.75686
3581.34419	2.79633
3579.41562	2.83568
3577.48706	2.87721
3575.55850	2.92084
3573.62993	2.96683
3571.70137	3.01169
3569.77280	3.05222
3567.84424	3.09254
3565.91567	3.14239
3563.98711	3.19239
3562.05854	3.23361
3560.12998	3.27654
3558.20142	3.32346
3556.27285	3.36887
3554.34429	3.40973
3552.41572	3.45111
3550.48716	3.49636
3548.55859	3.54198
3546.63003	3.58724
3544.70146	3.63664
3542.77290	3.68846
3540.84434	3.73614
3538.91577	3.77995
3536.98721	3.82468
3535.05864	3.87431
3533.13008	3.92490
3531.20151	3.97227
3529.27295	4.01732
3527.34438	4.06382
3525.41582	4.11221
3523.48726	4.16124
3521.55869	4.21352
3519.63013	4.26537
3517.70156	4.31294
3515.77300	4.35866
3513.84443	4.40306
3511.91587	4.44575
3509.98730	4.49143
3508.05874	4.54164
3506.13018	4.59315
3504.20161	4.64008
3502.27305	4.68029
3500.34448	4.72341
3498.41592	4.77235
3496.48735	4.82219
3494.55879	4.87081
3492.63022	4.91973
3490.70166	4.97383
3488.77310	5.02879
3486.84453	5.07607
3484.91597	5.11998
3482.98740	5.16716
3481.05884	5.21583
3479.13027	5.26319
3477.20171	5.30858
3475.27314	5.34970
3473.34458	5.39459
3471.41602	5.45348
3469.48745	5.51531
3467.55889	5.56608
3465.63032	5.60963
3463.70176	5.65308
3461.77319	5.69612
3459.84463	5.75088
3457.91606	5.81561
3455.98750	5.86614
3454.05894	5.90448
3452.13037	5.95128
3450.20181	6.00267
3448.27324	6.04302
3446.34468	6.08521
3444.41611	6.13559
3442.48755	6.18615
3440.55898	6.23650
3438.63042	6.27695
3436.70186	6.31345
3434.77329	6.37007
3432.84473	6.43404
3430.91616	6.48050
3428.98760	6.51814
3427.05903	6.55608
3425.13047	6.60391
3423.20190	6.66280
3421.27334	6.73112
3419.34478	6.79544
3417.41621	6.85075
3415.48765	6.90801
3413.55908	6.93246
3411.63052	6.92540
3409.70195	6.94995
3407.77339	7.03061
3405.84482	7.11508
3403.91626	7.15520
3401.98770	7.15715
3400.05913	7.16818
3398.13057	7.20594
3396.20200	7.22716
3394.27344	7.22761
3392.34487	7.25257
3390.41631	7.31538
3388.48774	7.36398
3386.55918	7.41574
3384.63062	7.49589
3382.70205	7.54726
3380.77349	7.55308
3378.84492	7.55994
3376.91636	7.61270
3374.98779	7.64328
3373.05923	7.58011
3371.13066	7.51273
3369.20210	7.54428
3367.27354	7.63036
3365.34497	7.69109
3363.41641	7.71610
3361.48784	7.70050
3359.55928	7.69453
3357.63071	7.79498
3355.70215	7.96417
3353.77358	7.98566
3351.84502	7.87319
3349.91646	7.81965
3347.98789	7.87270
3346.05933	7.93669
3344.13076	7.91471
3342.20220	7.88410
3340.27363	7.94576
3338.34507	8.02723
3336.41650	8.00650
3334.48794	7.99121
3332.55937	8.03711
3330.63081	8.08040
3328.70225	8.10712
3326.77368	8.10349
3324.84512	8.08490
3322.91655	8.05994
3320.98799	8.01430
3319.05942	7.96162
3317.13086	7.98562
3315.20229	8.06954
3313.27373	8.07736
3311.34517	8.01822
3309.41660	8.00994
3307.48804	8.07436
3305.55947	8.15492
3303.63091	8.16673
3301.70234	8.07807
3299.77378	7.99937
3297.84521	7.99833
3295.91665	8.08175
3293.98809	8.19555
3292.05952	8.22006
3290.13096	8.13489
3288.20239	8.08242
3286.27383	8.15823
3284.34526	8.23943
3282.41670	8.21535
3280.48813	8.15726
3278.55957	8.11528
3276.63101	8.05044
3274.70244	8.04902
3272.77388	8.15572
3270.84531	8.18784
3268.91675	8.15620
3266.98818	8.21789
3265.05962	8.27443
3263.13105	8.14558
3261.20249	7.99985
3259.27393	7.98353
3257.34536	8.01442
3255.41680	8.03601
3253.48823	8.03661
3251.55967	8.03320
3249.63110	8.04556
3247.70254	8.05009
3245.77397	8.07082
3243.84541	8.12180
3241.91685	8.15834
3239.98828	8.17428
3238.05972	8.15573
3236.13115	8.12664
3234.20259	8.16154
3232.27402	8.25383
3230.34546	8.28712
3228.41689	8.15705
3226.48833	8.00139
3224.55977	7.93109
3222.63120	7.89375
3220.70264	7.89311
3218.77407	7.98580
3216.84551	8.10427
3214.91694	8.07164
3212.98838	7.90029
3211.05981	7.77567
3209.13125	7.75674
3207.20269	7.73143
3205.27412	7.66333
3203.34556	7.65191
3201.41699	7.66899
3199.48843	7.63025
3197.55986	7.56217
3195.63130	7.50851
3193.70273	7.48974
3191.77417	7.48747
3189.84561	7.46216
3187.91704	7.42722
3185.98848	7.38873
3184.05991	7.32550
3182.13135	7.26979
3180.20278	7.22512
3178.27422	7.15009
3176.34565	7.07083
3174.41709	7.02435
3172.48853	6.99971
3170.55996	6.96987
3168.63140	6.91212
3166.70283	6.82369
3164.77427	6.72538
3162.84570	6.64644
3160.91714	6.59417
3158.98857	6.54066
3157.06001	6.46914
3155.13145	6.40170
3153.20288	6.34704
3151.27432	6.28772
3149.34575	6.21609
3147.41719	6.14924
3145.48862	6.09450
3143.56006	6.03543
3141.63149	5.96621
3139.70293	5.89137
3137.77437	5.81276
3135.84580	5.73452
3133.91724	5.66366
3131.98867	5.59800
3130.06011	5.53118
3128.13154	5.45790
3126.20298	5.37959
3124.27441	5.30752
3122.34585	5.24203
3120.41729	5.18211
3118.48872	5.12556
3116.56016	5.05900
3114.63159	4.98255
3112.70303	4.91159
3110.77446	4.84528
3108.84590	4.77251
3106.91733	4.69999
3104.98877	4.63603
3103.06021	4.57546
3101.13164	4.51114
3099.20308	4.44329
3097.27451	4.37602
3095.34595	4.31070
3093.41738	4.24906
3091.48882	4.19079
3089.56025	4.13195
3087.63169	4.07103
3085.70312	4.01036
3083.77456	3.95060
3081.84600	3.89082
3079.91743	3.83155
3077.98887	3.77237
3076.06030	3.71332
3074.13174	3.65617
3072.20317	3.60112
3070.27461	3.54617
3068.34604	3.48980
3066.41748	3.43311
3064.48892	3.37844
3062.56035	3.32521
3060.63179	3.27176
3058.70322	3.21899
3056.77466	3.16716
3054.84609	3.11582
3052.91753	3.06589
3050.98896	3.01659
3049.06040	2.96648
3047.13184	2.91695
3045.20327	2.86913
3043.27471	2.82132
3041.34614	2.77245
3039.41758	2.72429
3037.48901	2.67892
3035.56045	2.63578
3033.63188	2.59300
3031.70332	2.55007
3029.77476	2.50753
3027.84619	2.46506
3025.91763	2.42196
3023.98906	2.37904
3022.06050	2.33727
3020.13193	2.29647
3018.20337	2.25661
3016.27480	2.21752
3014.34624	2.17908
3012.41768	2.14143
3010.48911	2.10391
3008.56055	2.06643
3006.63198	2.03025
3004.70342	1.99568
3002.77485	1.96185
3000.84629	1.92856
2998.91772	1.89589
2996.98916	1.86389
2995.06060	1.83277
2993.13203	1.80250
2991.20347	1.77306
2989.27490	1.74445
2987.34634	1.71654
2985.41777	1.68905
2983.48921	1.66179
2981.56064	1.63519
2979.63208	1.60973
2977.70352	1.58480
2975.77495	1.55983
2973.84639	1.53533
2971.91782	1.51196
2969.98926	1.48969
2968.06069	1.46778
2966.13213	1.44516
2964.20356	1.42197
2962.27500	1.39911
2960.34644	1.37630
2958.41787	1.35290
2956.48931	1.32944
2954.56074	1.30629
2952.63218	1.28340
2950.70361	1.26098
2948.77505	1.23903
2946.84648	1.21749
2944.91792	1.19695
2942.98936	1.17725
2941.06079	1.15775
2939.13223	1.13856
2937.20366	1.11956
2935.27510	1.10027
2933.34653	1.08089
2931.41797	1.06194
2929.48940	1.04352
2927.56084	1.02502
2925.63228	1.00597
2923.70371	0.98706
2921.77515	0.96898
2919.84658	0.95189
2917.91802	0.93531
2915.98945	0.91833
2914.06089	0.90108
2912.13232	0.88449
2910.20376	0.86868
2908.27520	0.85310
2906.34663	0.83786
2904.41807	0.82330
2902.48950	0.80923
2900.56094	0.79535
2898.63237	0.78167
2896.70381	0.76821
2894.77524	0.75491
2892.84668	0.74207
2890.91812	0.73014
2888.98955	0.71913
2887.06099	0.70857
2885.13242	0.69831
2883.20386	0.68840
2881.27529	0.67878
2879.34673	0.66933
2877.41816	0.65984
2875.48960	0.65019
2873.56104	0.64037
2871.63247	0.63014
2869.70391	0.61928
2867.77534	0.60773
2865.84678	0.59567
2863.91821	0.58368
2861.98965	0.57215
2860.06108	0.56126
2858.13252	0.55087
2856.20396	0.54093
2854.27539	0.53168
2852.34683	0.52311
2850.41826	0.51484
2848.48970	0.50633
2846.56113	0.49741
2844.63257	0.48879
2842.70400	0.48137
2840.77544	0.47498
2838.84687	0.46876
2836.91831	0.46229
2834.98975	0.45579
2833.06118	0.44965
2831.13262	0.44375
2829.20405	0.43766
2827.27549	0.43125
2825.34692	0.42490
2823.41836	0.41891
2821.48979	0.41318
2819.56123	0.40740
2817.63267	0.40150
2815.70410	0.39573
2813.77554	0.39020
2811.84697	0.38480
2809.91841	0.37946
2807.98984	0.37401
2806.06128	0.36847
2804.13271	0.36315
2802.20415	0.35804
2800.27559	0.35300
2798.34702	0.34811
2796.41846	0.34336
2794.48989	0.33872
2792.56133	0.33418
2790.63276	0.32965
2788.70420	0.32500
2786.77563	0.32030
2784.84707	0.31584
2782.91851	0.31170
2780.98994	0.30765
2779.06138	0.30365
2777.13281	0.29969
2775.20425	0.29566
2773.27568	0.29168
2771.34712	0.28787
2769.41855	0.28419
2767.48999	0.28063
2765.56143	0.27719
2763.63286	0.27377
2761.70430	0.27039
2759.77573	0.26713
2757.84717	0.26393
2755.91860	0.26063
2753.99004	0.25741
2752.06147	0.25446
2750.13291	0.25163
2748.20435	0.24872
2746.27578	0.24566
2744.34722	0.24264
2742.41865	0.23989
2740.49009	0.23724
2738.56152	0.23460
2736.63296	0.23217
2734.70439	0.22982
2732.77583	0.22721
2730.84727	0.22462
2728.91870	0.22232
2726.99014	0.22004
2725.06157	0.21763
2723.13301	0.21535
2721.20444	0.21328
2719.27588	0.21126
2717.34731	0.20913
2715.41875	0.20699
2713.49019	0.20506
2711.56162	0.20332
2709.63306	0.20160
2707.70449	0.19986
2705.77593	0.19810
2703.84736	0.19637
2701.91880	0.19471
2699.99023	0.19329
2698.06167	0.19210
2696.13311	0.19080
2694.20454	0.18930
2692.27598	0.18773
2690.34741	0.18628
2688.41885	0.18500
2686.49028	0.18380
2684.56172	0.18265
2682.63315	0.18146
2680.70459	0.18016
2678.77603	0.17888
2676.84746	0.17761
2674.91890	0.17627
2672.99033	0.17510
2671.06177	0.17419
2669.13320	0.17326
2667.20464	0.17220
2665.27607	0.17122
2663.34751	0.17036
2661.41895	0.16955
2659.49038	0.16863
2657.56182	0.16770
2655.63325	0.16689
2653.70469	0.16614
2651.77612	0.16538
2649.84756	0.16454
2647.91899	0.16365
2645.99043	0.16287
2644.06187	0.16225
2642.13330	0.16165
2640.20474	0.16102
2638.27617	0.16052
2636.34761	0.16010
2634.41904	0.15966
2632.49048	0.15916
2630.56191	0.15855
2628.63335	0.15790
2626.70479	0.15733
2624.77622	0.15693
2622.84766	0.15669
2620.91909	0.15650
2618.99053	0.15629
2617.06196	0.15601
2615.13340	0.15564
2613.20483	0.15536
2611.27627	0.15532
2609.34771	0.15522
2607.41914	0.15488
2605.49058	0.15450
2603.56201	0.15433
2601.63345	0.15430
2599.70488	0.15424
2597.77632	0.15428
2595.84775	0.15440
2593.91919	0.15439
2591.99062	0.15427
2590.06206	0.15421
2588.13350	0.15427
2586.20493	0.15453
2584.27637	0.15484
2582.34780	0.15494
2580.41924	0.15495
2578.49067	0.15504
2576.56211	0.15530
2574.63354	0.15563
2572.70498	0.15586
2570.77642	0.15596
2568.84785	0.15609
2566.91929	0.15643
2564.99072	0.15693
2563.06216	0.15737
2561.13359	0.15781
2559.20503	0.15831
2557.27646	0.15865
2555.34790	0.15885
2553.41934	0.15922
2551.49077	0.15970
2549.56221	0.16013
2547.63364	0.16062
2545.70508	0.16115
2543.77651	0.16161
2541.84795	0.16210
2539.91938	0.16273
2537.99082	0.16346
2536.06226	0.16416
2534.13369	0.16470
2532.20513	0.16513
2530.27656	0.16566
2528.34800	0.16634
2526.41943	0.16696
2524.49087	0.16753
2522.56230	0.16826
2520.63374	0.16904
2518.70518	0.16970
2516.77661	0.17027
2514.84805	0.17088
2512.91948	0.17155
2510.99092	0.17217
2509.06235	0.17281
2507.13379	0.17364
2505.20522	0.17455
2503.27666	0.17539
2501.34810	0.17618
2499.41953	0.17697
2497.49097	0.17767
2495.56240	0.17835
2493.63384	0.17911
2491.70527	0.17992
2489.77671	0.18067
2487.84814	0.18136
2485.91958	0.18216
2483.99102	0.18304
2482.06245	0.18382
2480.13389	0.18449
2478.20532	0.18526
2476.27676	0.18613
2474.34819	0.18690
2472.41963	0.18755
2470.49106	0.18832
2468.56250	0.18930
2466.63394	0.19029
2464.70537	0.19121
2462.77681	0.19200
2460.84824	0.19273
2458.91968	0.19354
2456.99111	0.19437
2455.06255	0.19521
2453.13398	0.19617
2451.20542	0.19723
2449.27686	0.19819
2447.34829	0.19907
2445.41973	0.19999
2443.49116	0.20090
2441.56260	0.20178
2439.63403	0.20275
2437.70547	0.20375
2435.77690	0.20468
2433.84834	0.20564
2431.91978	0.20669
2429.99121	0.20770
2428.06265	0.20871
2426.13408	0.20976
2424.20552	0.21075
2422.27695	0.21168
2420.34839	0.21267
2418.41982	0.21368
2416.49126	0.21467
2414.56270	0.21571
2412.63413	0.21677
2410.70557	0.21786
2408.77700	0.21902
2406.84844	0.22023
2404.91987	0.22144
2402.99131	0.22255
2401.06274	0.22358
2399.13418	0.22470
2397.20562	0.22600
2395.27705	0.22731
2393.34849	0.22846
2391.41992	0.22954
2389.49136	0.23052
2387.56279	0.23116
2385.63423	0.23125
2383.70566	0.23060
2381.77710	0.22916
2379.84854	0.22701
2377.91997	0.22394
2375.99141	0.21967
2374.06284	0.21423
2372.13428	0.20787
2370.20571	0.20119
2368.27715	0.19446
2366.34858	0.18747
2364.42002	0.18185
2362.49146	0.17959
2360.56289	0.17941
2358.63433	0.18114
2356.70576	0.18752
2354.77720	0.19784
2352.84863	0.20902
2350.92007	0.21897
2348.99150	0.22490
2347.06294	0.22568
2345.13437	0.22195
2343.20581	0.21648
2341.27725	0.21398
2339.34868	0.21573
2337.42012	0.21885
2335.49155	0.22134
2333.56299	0.22363
2331.63442	0.22615
2329.70586	0.22908
2327.77729	0.23274
2325.84873	0.23725
2323.92017	0.24246
2321.99160	0.24822
2320.06304	0.25427
2318.13447	0.25990
2316.20591	0.26455
2314.27734	0.26816
2312.34878	0.27110
2310.42021	0.27424
2308.49165	0.27796
2306.56309	0.28185
2304.63452	0.28539
2302.70596	0.28842
2300.77739	0.29121
2298.84883	0.29399
2296.92026	0.29680
2294.99170	0.29955
2293.06313	0.30234
2291.13457	0.30518
2289.20601	0.30794
2287.27744	0.31055
2285.34888	0.31309
2283.42031	0.31546
2281.49175	0.31747
2279.56318	0.31925
2277.63462	0.32103
2275.70605	0.32290
2273.77749	0.32497
2271.84893	0.32718
2269.92036	0.32941
2267.99180	0.33160
2266.06323	0.33360
2264.13467	0.33544
2262.20610	0.33750
2260.27754	0.33977
2258.34897	0.34205
2256.42041	0.34436
2254.49185	0.34664
2252.56328	0.34885
2250.63472	0.35108
2248.70615	0.35337
2246.77759	0.35569
2244.84902	0.35794
2242.92046	0.36019
2240.99189	0.36248
2239.06333	0.36466
2237.13477	0.36671
2235.20620	0.36889
2233.27764	0.37120
2231.34907	0.37347
2229.42051	0.37569
2227.49194	0.37782
2225.56338	0.37992
2223.63481	0.38206
2221.70625	0.38418
2219.77769	0.38630
2217.84912	0.38853
2215.92056	0.39076
2213.99199	0.39284
2212.06343	0.39487
2210.13486	0.39702
2208.20630	0.39921
2206.27773	0.40132
2204.34917	0.40332
2202.42061	0.40528
2200.49204	0.40727
2198.56348	0.40925
2196.63491	0.41113
2194.70635	0.41290
2192.77778	0.41471
2190.84922	0.41665
2188.92065	0.41856
2186.99209	0.42031
2185.06353	0.42202
2183.13496	0.42375
2181.20640	0.42537
2179.27783	0.42693
2177.34927	0.42853
2175.42070	0.43011
2173.49214	0.43164
2171.56357	0.43306
2169.63501	0.43434
2167.70645	0.43568
2165.77788	0.43704
2163.84932	0.43834
2161.92075	0.43962
2159.99219	0.44080
2158.06362	0.44172
2156.13506	0.44257
2154.20649	0.44348
2152.27793	0.44438
2150.34937	0.44520
2148.42080	0.44592
2146.49224	0.44638
2144.56367	0.44668
2142.63511	0.44711
2140.70654	0.44759
2138.77798	0.44795
2136.84941	0.44826
2134.92085	0.44846
2132.99229	0.44842
2131.06372	0.44827
2129.13516	0.44820
2127.20659	0.44810
2125.27803	0.44786
2123.34946	0.44755
2121.42090	0.44712
2119.49233	0.44648
2117.56377	0.44586
2115.63521	0.44530
2113.70664	0.44453
2111.77808	0.44363
2109.84951	0.44282
2107.92095	0.44199
2105.99238	0.44100
2104.06382	0.43986
2102.13525	0.43863
2100.20669	0.43739
2098.27812	0.43611
2096.34956	0.43476
2094.42100	0.43328
2092.49243	0.43166
2090.56387	0.42997
2088.63530	0.42832
2086.70674	0.42664
2084.77817	0.42483
2082.84961	0.42310
2080.92104	0.42138
2078.99248	0.41939
2077.06392	0.41722
2075.13535	0.41513
2073.20679	0.41311
2071.27822	0.41101
2069.34966	0.40886
2067.42109	0.40667
2065.49253	0.40442
2063.56396	0.40206
2061.63540	0.39960
2059.70684	0.39716
2057.77827	0.39475
2055.84971	0.39227
2053.92114	0.38978
2051.99258	0.38735
2050.06401	0.38487
2048.13545	0.38235
2046.20688	0.37981
2044.27832	0.37724
2042.34976	0.37460
2040.42119	0.37195
2038.49263	0.36937
2036.56406	0.36674
2034.63550	0.36396
2032.70693	0.36113
2030.77837	0.35841
2028.84980	0.35576
2026.92124	0.35309
2024.99268	0.35038
2023.06411	0.34764
2021.13555	0.34492
2019.20698	0.34228
2017.27842	0.33964
2015.34985	0.33688
2013.42129	0.33412
2011.49272	0.33138
2009.56416	0.32866
2007.63560	0.32597
2005.70703	0.32339
2003.77847	0.32087
2001.84990	0.31834
1999.92134	0.31577
1997.99277	0.31317
1996.06421	0.31061
1994.13564	0.30816
1992.20708	0.30576
1990.27852	0.30330
1988.34995	0.30083
1986.42139	0.29842
1984.49282	0.29608
1982.56426	0.29382
1980.63569	0.29161
1978.70713	0.28942
1976.77856	0.28713
1974.85000	0.28479
1972.92144	0.28255
1970.99287	0.28043
1969.06431	0.27830
1967.13574	0.27626
1965.20718	0.27440
1963.27861	0.27254
1961.35005	0.27064
1959.42148	0.26882
1957.49292	0.26713
1955.56436	0.26539
1953.63579	0.26358
1951.70723	0.26177
1949.77866	0.26009
1947.85010	0.25846
1945.92153	0.25688
1943.99297	0.25535
1942.06440	0.25388
1940.13584	0.25255
1938.20728	0.25128
1936.27871	0.24989
1934.35015	0.24844
1932.42158	0.24709
1930.49302	0.24586
1928.56445	0.24486
1926.63589	0.24395
1924.70732	0.24294
1922.77876	0.24183
1920.85020	0.24074
1918.92163	0.23970
1916.99307	0.23876
1915.06450	0.23806
1913.13594	0.23740
1911.20737	0.23666
1909.27881	0.23587
1907.35024	0.23514
1905.42168	0.23453
1903.49312	0.23401
1901.56455	0.23352
1899.63599	0.23305
1897.70742	0.23258
1895.77886	0.23204
1893.85029	0.23158
1891.92173	0.23114
1889.99316	0.23086
1888.06460	0.23074
1886.13604	0.23059
1884.20747	0.23037
1882.27891	0.23014
1880.35034	0.22996
1878.42178	0.22987
1876.49321	0.22991
1874.56465	0.22997
1872.63608	0.23000
1870.70752	0.22987
1868.77896	0.22985
1866.85039	0.23010
1864.92183	0.23037
1862.99326	0.23061
1861.06470	0.23085
1859.13613	0.23113
1857.20757	0.23153
1855.27900	0.23210
1853.35044	0.23261
1851.42187	0.23302
1849.49331	0.23338
1847.56475	0.23375
1845.63618	0.23424
1843.70762	0.23513
1841.77905	0.23623
1839.85049	0.23698
1837.92192	0.23775
1835.99336	0.23869
1834.06479	0.23967
1832.13623	0.24049
1830.20767	0.24156
1828.27910	0.24297
1826.35054	0.24411
1824.42197	0.24532
1822.49341	0.24671
1820.56484	0.24808
1818.63628	0.24944
1816.70771	0.25109
1814.77915	0.25282
1812.85059	0.25446
1810.92202	0.25616
1808.99346	0.25805
1807.06489	0.26004
1805.13633	0.26198
1803.20776	0.26396
1801.27920	0.26610
1799.35063	0.26878
1797.42207	0.27144
1795.49351	0.27374
1793.56494	0.27607
1791.63638	0.27936
1789.70781	0.28316
1787.77925	0.28615
1785.85068	0.28930
1783.92212	0.29283
1781.99355	0.29650
1780.06499	0.30046
1778.13643	0.30480
1776.20786	0.30878
1774.27930	0.31253
1772.35073	0.31755
1770.42217	0.32383
1768.49360	0.32966
1766.56504	0.33512
1764.63647	0.34044
1762.70791	0.34599
1760.77935	0.35313
1758.85078	0.36013
1756.92222	0.36726
1754.99365	0.37496
1753.06509	0.38157
1751.13652	0.38900
1749.20796	0.39863
1747.27939	0.40892
1745.35083	0.41846
1743.42227	0.42839
1741.49370	0.43887
1739.56514	0.45099
1737.63657	0.46323
1735.70801	0.47378
1733.77944	0.48953
1731.85088	0.50889
1729.92231	0.52447
1727.99375	0.54030
1726.06519	0.55711
1724.13662	0.57509
1722.20806	0.59452
1720.27949	0.61213
1718.35093	0.63195
1716.42236	0.66223
1714.49380	0.69306
1712.56523	0.71858
1710.63667	0.74277
1708.70811	0.76820
1706.77954	0.79657
1704.85098	0.83088
1702.92241	0.86226
1700.99385	0.89349
1699.06528	0.93998
1697.13672	0.98337
1695.20815	1.02899
1693.27959	1.07386
1691.35103	1.10992
1689.42246	1.15134
1687.49390	1.19513
1685.56533	1.23719
1683.63677	1.30339
1681.70820	1.37377
1679.77964	1.41897
1677.85107	1.46165
1675.92251	1.51022
1673.99395	1.57049
1672.06538	1.62544
1670.13682	1.68041
1668.20825	1.75195
1666.27969	1.81073
1664.35112	1.86183
1662.42256	1.92841
1660.49399	2.00465
1658.56543	2.06314
1656.63687	2.10903
1654.70830	2.15002
1652.77974	2.21262
1650.85117	2.27031
1648.92261	2.28728
1646.99404	2.30774
1645.06548	2.33366
1643.13691	2.35263
1641.20835	2.36138
1639.27979	2.36747
1637.35122	2.36983
1635.42266	2.36463
1633.49409	2.35192
1631.56553	2.33549
1629.63696	2.31674
1627.70840	2.28593
1625.77983	2.24786
1623.85127	2.19958
1621.92271	2.14345
1619.99414	2.09601
1618.06558	2.04958
1616.13701	1.98167
1614.20845	1.91275
1612.27988	1.86056
1610.35132	1.80625
1608.42275	1.74765
1606.49419	1.69026
1604.56562	1.63780
1602.63706	1.58777
1600.70850	1.53955
1598.77993	1.49523
1596.85137	1.45351
1594.92280	1.41315
1592.99424	1.37456
1591.06567	1.33982
1589.13711	1.30813
1587.20854	1.27934
1585.27998	1.25331
1583.35142	1.22935
1581.42285	1.20753
1579.49429	1.18915
1577.56572	1.17317
1575.63716	1.15495
1573.70859	1.14022
1571.78003	1.13101
1569.85146	1.12157
1567.92290	1.11220
1565.99434	1.10690
1564.06577	1.10467
1562.13721	1.10388
1560.20864	1.10511
1558.28008	1.11248
1556.35151	1.12083
1554.42295	1.12569
1552.49438	1.13076
1550.56582	1.13407
1548.63726	1.13413
1546.70869	1.13040
1544.78013	1.12190
1542.85156	1.10852
1540.92300	1.08785
1538.99443	1.05596
1537.06587	1.03306
1535.13730	1.01690
1533.20874	0.99434
1531.28018	0.97013
1529.35161	0.95255
1527.42305	0.93570
1525.49448	0.91828
1523.56592	0.90374
1521.63735	0.89004
1519.70879	0.87653
1517.78022	0.86543
1515.85166	0.85290
1513.92310	0.83973
1511.99453	0.82753
1510.06597	0.81563
1508.13740	0.80329
1506.20884	0.78549
1504.28027	0.77213
1502.35171	0.76499
1500.42314	0.75816
1498.49458	0.75046
1496.56602	0.74154
1494.63745	0.73287
1492.70889	0.72595
1490.78032	0.71938
1488.85176	0.71207
1486.92319	0.70627
1484.99463	0.70221
1483.06606	0.69889
1481.13750	0.69598
1479.20894	0.69384
1477.28037	0.69282
1475.35181	0.69267
1473.42324	0.69312
1471.49468	0.69359
1469.56611	0.69314
1467.63755	0.69170
1465.70898	0.69004
1463.78042	0.68923
1461.85186	0.68944
1459.92329	0.68987
1457.99473	0.69030
1456.06616	0.69041
1454.13760	0.68925
1452.20903	0.68731
1450.28047	0.68494
1448.35190	0.68250
1446.42334	0.68013
1444.49478	0.67778
1442.56621	0.67528
1440.63765	0.67250
1438.70908	0.66941
1436.78052	0.66549
1434.85195	0.66121
1432.92339	0.65793
1430.99482	0.65580
1429.06626	0.65497
1427.13770	0.65514
1425.20913	0.65574
1423.28057	0.65682
1421.35200	0.65786
1419.42344	0.65840
1417.49487	0.65871
1415.56631	0.65868
1413.63774	0.65856
1411.70918	0.65894
1409.78062	0.66015
1407.85205	0.66194
1405.92349	0.66408
1403.99492	0.66620
1402.06636	0.66718
1400.13779	0.66668
1398.20923	0.66500
1396.28066	0.66232
1394.35210	0.65848
1392.42354	0.65396
1390.49497	0.64947
1388.56641	0.64462
1386.63784	0.63885
1384.70928	0.63287
1382.78071	0.62735
1380.85215	0.62220
1378.92358	0.61771
1376.99502	0.61431
1375.06646	0.61199
1373.13789	0.61054
1371.20933	0.60976
1369.28076	0.60920
1367.35220	0.60829
1365.42363	0.60674
1363.49507	0.60482
1361.56650	0.60308
1359.63794	0.60167
1357.70937	0.60038
1355.78081	0.59908
1353.85225	0.59784
1351.92368	0.59684
1349.99512	0.59608
1348.06655	0.59535
1346.13799	0.59451
1344.20942	0.59359
1342.28086	0.59266
1340.35229	0.59187
1338.42373	0.59128
1336.49517	0.59086
1334.56660	0.59070
1332.63804	0.59078
1330.70947	0.59105
1328.78091	0.59166
1326.85234	0.59265
1324.92378	0.59379
1322.99521	0.59497
1321.06665	0.59592
1319.13809	0.59664
1317.20952	0.59738
1315.28096	0.59790
1313.35239	0.59790
1311.42383	0.59745
1309.49526	0.59680
1307.56670	0.59622
1305.63813	0.59585
1303.70957	0.59546
1301.78101	0.59483
1299.85244	0.59386
1297.92388	0.59259
1295.99531	0.59126
1294.06675	0.59011
1292.13818	0.58903
1290.20962	0.58777
1288.28105	0.58644
1286.35249	0.58514
1284.42393	0.58376
1282.49536	0.58217
1280.56680	0.58052
1278.63823	0.57895
1276.70967	0.57741
1274.78110	0.57592
1272.85254	0.57467
1270.92397	0.57381
1268.99541	0.57318
1267.06685	0.57244
1265.13828	0.57149
1263.20972	0.57052
1261.28115	0.56960
1259.35259	0.56872
1257.42402	0.56786
1255.49546	0.56716
1253.56689	0.56696
1251.63833	0.56726
1249.70977	0.56760
1247.78120	0.56765
1245.85264	0.56741
1243.92407	0.56682
1241.99551	0.56581
1240.06694	0.56432
1238.13838	0.56241
1236.20981	0.56012
1234.28125	0.55750
1232.35269	0.55481
1230.42412	0.55220
1228.49556	0.54963
1226.56699	0.54724
1224.63843	0.54523
1222.70986	0.54335
1220.78130	0.54143
1218.85273	0.53968
1216.92417	0.53816
1214.99561	0.53689
1213.06704	0.53595
1211.13848	0.53516
1209.20991	0.53428
1207.28135	0.53347
1205.35278	0.53278
1203.42422	0.53203
1201.49565	0.53106
1199.56709	0.52993
1197.63853	0.52887
1195.70996	0.52804
1193.78140	0.52732
1191.85283	0.52662
1189.92427	0.52615
1187.99570	0.52587
1186.06714	0.52561
1184.13857	0.52554
1182.21001	0.52598
1180.28145	0.52695
1178.35288	0.52834
1176.42432	0.53004
1174.49575	0.53151
1172.56719	0.53235
1170.63862	0.53265
1168.71006	0.53266
1166.78149	0.53263
1164.85293	0.53268
1162.92437	0.53267
1160.99580	0.53262
1159.06724	0.53246
1157.13867	0.53206
1155.21011	0.53150
1153.28154	0.53052
1151.35298	0.52887
1149.42441	0.52673
1147.49585	0.52420
1145.56729	0.52138
1143.63872	0.51855
1141.71016	0.51619
1139.78159	0.51455
1137.85303	0.51343
1135.92446	0.51276
1133.99590	0.51265
1132.06733	0.51289
1130.13877	0.51317
1128.21021	0.51322
1126.28164	0.51287
1124.35308	0.51262
1122.42451	0.51289
1120.49595	0.51330
1118.56738	0.51366
1116.63882	0.51415
1114.71025	0.51475
1112.78169	0.51543
1110.85312	0.51617
1108.92456	0.51682
1106.99600	0.51757
1105.06743	0.51850
1103.13887	0.51947
1101.21030	0.52050
1099.28174	0.52172
1097.35317	0.52325
1095.42461	0.52546
1093.49604	0.52874
1091.56748	0.53335
1089.63892	0.53965
1087.71035	0.54748
1085.78179	0.55614
1083.85322	0.56487
1081.92466	0.57255
1079.99609	0.57799
1078.06753	0.58048
1076.13896	0.57965
1074.21040	0.57589
1072.28184	0.57031
1070.35327	0.56362
1068.42471	0.55631
1066.49614	0.54890
1064.56758	0.54205
1062.63901	0.53628
1060.71045	0.53161
1058.78188	0.52774
1056.85332	0.52429
1054.92476	0.52094
1052.99619	0.51789
1051.06763	0.51549
1049.13906	0.51373
1047.21050	0.51255
1045.28193	0.51194
1043.35337	0.51172
1041.42480	0.51165
1039.49624	0.51164
1037.56768	0.51176
1035.63911	0.51174
1033.71055	0.51124
1031.78198	0.51016
1029.85342	0.50849
1027.92485	0.50648
1025.99629	0.50455
1024.06772	0.50301
1022.13916	0.50188
1020.21060	0.50100
1018.28203	0.50053
1016.35347	0.50042
1014.42490	0.50029
1012.49634	0.49995
1010.56777	0.49947
1008.63921	0.49900
1006.71064	0.49900
1004.78208	0.49972
1002.85352	0.50104
1000.92495	0.50325
998.99639	0.50668
997.06782	0.51099
995.13926	0.51552
993.21069	0.51969
991.28213	0.52305
989.35356	0.52516
987.42500	0.52573
985.49644	0.52536
983.56787	0.52512
981.63931	0.52521
979.71074	0.52552
977.78218	0.52644
975.85361	0.52821
973.92505	0.53066
971.99648	0.53344
970.06792	0.53644
968.13936	0.53974
966.21079	0.54342
964.28223	0.54763
962.35366	0.55245
960.42510	0.55778
958.49653	0.56324
956.56797	0.56851
954.63940	0.57377
952.71084	0.57948
950.78228	0.58574
948.85371	0.59217
946.92515	0.59845
944.99658	0.60435
943.06802	0.61009
941.13945	0.61639
939.21089	0.62316
937.28232	0.62965
935.35376	0.63564
933.42520	0.64115
931.49663	0.64636
929.56807	0.65176
927.63950	0.65727
925.71094	0.66263
923.78237	0.66843
921.85381	0.67482
919.92524	0.68130
917.99668	0.68795
916.06812	0.69518
914.13955	0.70313
912.21099	0.71111
910.28242	0.71875
908.35386	0.72688
906.42529	0.73606
904.49673	0.74519
902.56816	0.75340
900.63960	0.76140
898.71104	0.77020
896.78247	0.77998
894.85391	0.79051
892.92534	0.80139
890.99678	0.81132
889.06821	0.82052
887.13965	0.83066
885.21108	0.84129
883.28252	0.85190
881.35396	0.86329
879.42539	0.87563
877.49683	0.88770
875.56826	0.89818
873.63970	0.90869
871.71113	0.92130
869.78257	0.93381
867.85400	0.94418
865.92544	0.95473
863.99687	0.96720
862.06831	0.98020
860.13975	0.99193
858.21118	1.00161
856.28262	1.01046
854.35405	1.02025
852.42549	1.03078
850.49692	1.04235
848.56836	1.05570
846.63979	1.06927
844.71123	1.08166
842.78267	1.09272
840.85410	1.10218
838.92554	1.11034
836.99697	1.12010
835.06841	1.13129
833.13984	1.14279
831.21128	1.15889
829.28271	1.17592
827.35415	1.18552
825.42559	1.19224
823.49702	1.20319
821.56846	1.21566
819.63989	1.22284
817.71133	1.22271
815.78276	1.22403
813.85420	1.23867
811.92563	1.26481
809.99707	1.28777
808.06851	1.29684
806.13994	1.29874
804.21138	1.31595
802.28281	1.35422
800.35425	1.38281
798.42568	1.39040
796.49712	1.38706
794.56855	1.36969
792.63999	1.36188
790.71143	1.37639
788.78286	1.39280
786.85430	1.38523
784.92573	1.34594
782.99717	1.32026
781.06860	1.35266
779.14004	1.37785
777.21147	1.32176
775.28291	1.28414
773.35435	1.34926
771.42578	1.53929
769.49722	1.76776
767.56865	1.91937
765.64009	2.29928
763.71152	2.09386
761.78296	1.53715
759.85439	1.33134
757.92583	1.33456
755.99727	1.46986
754.06870	1.50581
752.14014	1.27089
750.21157	1.12219
748.28301	1.15194
746.35444	1.37274
744.42588	1.90214
742.49731	1.54353
740.56875	1.16486
738.64019	1.08428
736.71162	1.11494
734.78306	1.03214
732.85449	0.80721
730.92593	0.61040
728.99736	0.53431
727.06880	0.59944
725.14023	0.91866
723.21167	4.33927
721.28311	4.32770
719.35454	4.31613
717.42598	4.30456
715.49741	4.29298
713.56885	4.28141
711.64028	4.26984
709.71172	0.73540
707.78315	-0.12237
705.85459	-0.01520
703.92603	0.12413
701.99746	0.22000
700.06890	0.14734
698.14033	0.10516
696.21177	0.17431
694.28320	0.23721
692.35464	0.25371
690.42607	0.30655
688.49751	0.44865
686.56895	0.41190
684.64038	0.26352
682.71182	0.24621
680.78325	0.38487
678.85469	0.48434
676.92612	0.42305
674.99756	0.46214
673.06899	0.91620
671.14043	4.02684
669.21187	0.68623
667.28330	0.73643
665.35474	0.87644
663.42617	0.48820
661.49761	0.23795
659.56904	0.16453
657.64048	0.24968
655.71191	0.29447
653.78335	0.24936
651.85479	0.33255
649.92622	0.41011
647.99766	0.36560
646.06909	0.39376
644.14053	0.48185
642.21196	0.56036
640.28340	0.62877
638.35483	0.47477
636.42627	0.27468
634.49771	0.19099
632.56914	0.27752
630.64058	0.42603
628.71201	0.49796
626.78345	0.51097
624.85488	0.36551
622.92632	0.28933
620.99775	0.36247
619.06919	0.53784
617.14062	0.87611
615.21206	3.69127
613.28350	1.25960
611.35493	0.80185
609.42637	0.46293
607.49780	0.34161
605.56924	0.36920
603.64067	0.34816
601.71211	0.22907
599.78354	0.13341
597.85498	0.09055
595.92642	0.12297
593.99785	0.21237
592.06929	0.28900
590.14072	0.31008
588.21216	0.29389
586.28359	0.38184
584.35503	0.79534
582.42646	3.49456
580.49790	3.48299
578.56934	0.65730
576.64077	0.64117
574.71221	1.03633
572.78364	0.80296
570.85508	0.39330
568.92651	0.24048
566.99795	0.23097
565.06938	0.35531
563.14082	0.65931
561.21226	0.55867
559.28369	0.45127
557.35513	0.49901
555.42656	0.63580
553.49800	0.53409
551.56943	0.27519
549.64087	0.15532
547.71230	0.15394
545.78374	0.24031
543.85518	0.31687
541.92661	0.45263
539.99805	1.19812
538.06948	3.22842
536.14092	0.80808
534.21235	0.36402
532.28379	0.18002
530.35522	0.11770
528.42666	0.15066
526.49810	0.21429
524.56953	0.23542
522.64097	0.18481
520.71240	0.14245
518.78384	0.15266
516.85527	0.18792
514.92671	0.23005
512.99814	0.32221
511.06958	0.43558
509.14102	0.47187
507.21245	0.45232
505.28389	0.40915
503.35532	0.33290
501.42676	0.29142
499.49819	0.30727
