3997.91411	0.07083
3995.98555	0.07059
3994.05698	0.07058
3992.12842	0.07115
3990.19985	0.07207
3988.27129	0.07258
3986.34272	0.07244
3984.41416	0.07239
3982.48560	0.07281
3980.55703	0.07321
3978.62847	0.07346
3976.69990	0.07371
3974.77134	0.07391
3972.84277	0.07415
3970.91421	0.07438
3968.98564	0.07438
3967.05708	0.07425
3965.12852	0.07422
3963.19995	0.07448
3961.27139	0.07498
3959.34282	0.07545
3957.41426	0.07559
3955.48569	0.07530
3953.55713	0.07495
3951.62856	0.07487
3949.70000	0.07468
3947.77144	0.07429
3945.84287	0.07443
3943.91431	0.07505
3941.98574	0.07544
3940.05718	0.07550
3938.12861	0.07541
3936.20005	0.07506
3934.27148	0.07469
3932.34292	0.07470
3930.41436	0.07502
3928.48579	0.07512
3926.55723	0.07509
3924.62866	0.07532
3922.70010	0.07536
3920.77153	0.07509
3918.84297	0.07485
3916.91440	0.07468
3914.98584	0.07454
3913.05728	0.07443
3911.12871	0.07432
3909.20015	0.07399
3907.27158	0.07344
3905.34302	0.07309
3903.41445	0.07336
3901.48589	0.07378
3899.55732	0.07402
3897.62876	0.07448
3895.70020	0.07453
3893.77163	0.07403
3891.84307	0.07379
3889.91450	0.07398
3887.98594	0.07394
3886.05737	0.07397
3884.12881	0.07458
3882.20024	0.07500
3880.27168	0.07490
3878.34312	0.07496
3876.41455	0.07514
3874.48599	0.07513
3872.55742	0.07519
3870.62886	0.07547
3868.70029	0.07585
3866.77173	0.07607
3864.84316	0.07616
3862.91460	0.07645
3860.98604	0.07702
3859.05747	0.07747
3857.12891	0.07780
3855.20034	0.07820
3853.27178	0.07862
3851.34321	0.07901
3849.41465	0.07930
3847.48608	0.07951
3845.55752	0.07990
3843.62896	0.08070
3841.70039	0.08160
3839.77183	0.08210
3837.84326	0.08255
3835.91470	0.08320
3833.98613	0.08368
3832.05757	0.08416
3830.12900	0.08514
3828.20044	0.08621
3826.27187	0.08680
3824.34331	0.08703
3822.41475	0.08727
3820.48618	0.08833
3818.55762	0.08979
3816.62905	0.09051
3814.70049	0.09126
3812.77192	0.09223
3810.84336	0.09308
3808.91479	0.09383
3806.98623	0.09477
3805.05767	0.09610
3803.12910	0.09725
3801.20054	0.09853
3799.27197	0.10013
3797.34341	0.10114
3795.41484	0.10246
3793.48628	0.10434
3791.55771	0.10580
3789.62915	0.10691
3787.70059	0.10802
3785.77202	0.10907
3783.84346	0.11006
3781.91489	0.11117
3779.98633	0.11248
3778.05776	0.11436
3776.12920	0.11658
3774.20063	0.11841
3772.27207	0.11980
3770.34351	0.12120
3768.41494	0.12298
3766.48638	0.12486
3764.55781	0.12710
3762.62925	0.12938
3760.70068	0.13096
3758.77212	0.13250
3756.84355	0.13450
3754.91499	0.13649
3752.98643	0.13857
3751.05786	0.14147
3749.12930	0.14546
3747.20073	0.14840
3745.27217	0.15027
3743.34360	0.15341
3741.41504	0.15714
3739.48647	0.15982
3737.55791	0.16247
3735.62935	0.16597
3733.70078	0.17045
3731.77222	0.17521
3729.84365	0.17968
3727.91509	0.18395
3725.98652	0.18926
3724.05796	0.19604
3722.12939	0.20356
3720.20083	0.21193
3718.27227	0.22077
3716.34370	0.22934
3714.41514	0.23719
3712.48657	0.24523
3710.55801	0.25602
3708.62944	0.26924
3706.70088	0.28168
3704.77231	0.29338
3702.84375	0.30607
3700.91519	0.32235
3698.98662	0.34132
3697.05806	0.36000
3695.12949	0.37926
3693.20093	0.39885
3691.27236	0.41948
3689.34380	0.44670
3687.41523	0.48171
3685.48667	0.51406
3683.55811	0.54246
3681.62954	0.57171
3679.70098	0.60323
3677.77241	0.63548
3675.84385	0.67328
3673.91528	0.72585
3671.98672	0.77018
3670.05815	0.80885
3668.12959	0.86218
3666.20103	0.91231
3664.27246	0.95431
3662.34390	0.99870
3660.41533	1.04609
3658.48677	1.09210
3656.55820	1.14053
3654.62964	1.19522
3652.70107	1.24140
3650.77251	1.28016
3648.84395	1.33386
3646.91538	1.40430
3644.98682	1.45759
3643.05825	1.49700
3641.12969	1.53663
3639.20112	1.58004
3637.27256	1.62312
3635.34399	1.66515
3633.41543	1.70759
3631.48687	1.74694
3629.55830	1.78649
3627.62974	1.84096
3625.70117	1.89435
3623.77261	1.92986
3621.84404	1.96248
3619.91548	1.99963
3617.98691	2.04502
3616.05835	2.08904
3614.12979	2.12601
3612.20122	2.16520
3610.27266	2.20396
3608.34409	2.24230
3606.41553	2.28507
3604.48696	2.32646
3602.55840	2.36258
3600.62983	2.40024
3598.70127	2.44037
3596.77271	2.47883
3594.84414	2.51838
3592.91558	2.56042
3590.98701	2.59992
3589.05845	2.63504
3587.12988	2.67641
3585.20132	2.72561
3583.27275	2.77030
3581.34419	2.81065
3579.41562	2.85076
3577.48706	2.89168
3575.55850	2.93465
3573.62993	2.97971
3571.70137	3.02163
3569.77280	3.05955
3567.84424	3.09919
3565.91567	3.14947
3563.98711	3.20208
3562.05854	3.24625
3560.12998	3.28912
3558.20142	3.33329
3556.27285	3.37614
3554.34429	3.41820
3552.41572	3.46388
3550.48716	3.51111
3548.55859	3.55659
3546.63003	3.60279
3544.70146	3.65103
3542.77290	3.69784
3540.84434	3.74339
3538.91577	3.79050
3536.98721	3.83775
3535.05864	3.88523
3533.13008	3.93139
3531.20151	3.97667
3529.27295	4.02349
3527.34438	4.07167
3525.41582	4.11973
3523.48726	4.16834
3521.55869	4.21881
3519.63013	4.26803
3517.70156	4.31534
3515.77300	4.36199
3513.84443	4.40860
3511.91587	4.45627
3509.98730	4.50605
3508.05874	4.55713
3506.13018	4.60709
3504.20161	4.65313
3502.27305	4.69795
3500.34448	4.74719
3498.41592	4.79498
3496.48735	4.83820
3494.55879	4.88434
3492.63022	4.93356
3490.70166	4.98095
3488.77310	5.02777
3486.84453	5.07405
3484.91597	5.12112
3482.98740	5.16790
3481.05884	5.20680
3479.13027	5.24894
3477.20171	5.30983
3475.27314	5.37108
3473.34458	5.41264
3471.41602	5.44760
3469.48745	5.49225
3467.55889	5.54316
3465.63032	5.59724
3463.70176	5.65724
3461.77319	5.71593
3459.84463	5.77223
3457.91606	5.82998
3455.98750	5.87983
3454.05894	5.91599
3452.13037	5.96041
3450.20181	6.02251
3448.27324	6.07828
3446.34468	6.12051
3444.41611	6.15400
3442.48755	6.19732
3440.55898	6.25571
3438.63042	6.30208
3436.70186	6.33479
3434.77329	6.37031
3432.84473	6.40467
3430.91616	6.44020
3428.98760	6.49153
3427.05903	6.54938
3425.13047	6.61241
3423.20190	6.68151
3421.27334	6.74713
3419.34478	6.80033
3417.41621	6.84231
3415.48765	6.88429
3413.55908	6.91882
3411.63052	6.95049
3409.70195	6.98440
3407.77339	7.01639
3405.84482	7.05059
3403.91626	7.09031
3401.98770	7.12505
3400.05913	7.16445
3398.13057	7.20037
3396.20200	7.21674
3394.27344	7.24781
3392.34487	7.28787
3390.41631	7.31167
3388.48774	7.32548
3386.55918	7.37160
3384.63062	7.45938
3382.70205	7.54038
3380.77349	7.56116
3378.84492	7.53959
3376.91636	7.55571
3374.98779	7.61423
3373.05923	7.70955
3371.13066	7.80565
3369.20210	7.81030
3367.27354	7.73065
3365.34497	7.69779
3363.41641	7.79573
3361.48784	7.95663
3359.55928	8.03077
3357.63071	7.98147
3355.70215	7.91826
3353.77358	7.86683
3351.84502	7.83640
3349.91646	7.84877
3347.98789	7.88420
3346.05933	7.90994
3344.13076	7.90872
3342.20220	7.91229
3340.27363	7.94099
3338.34507	7.96059
3336.41650	7.91945
3334.48794	7.87629
3332.55937	7.88126
3330.63081	7.93179
3328.70225	8.01859
3326.77368	8.09813
3324.84512	8.12643
3322.91655	8.08497
3320.98799	8.06379
3319.05942	8.10913
3317.13086	8.14220
3315.20229	8.10229
3313.27373	8.05865
3311.34517	8.06958
3309.41660	8.07105
3307.48804	8.04555
3305.55947	8.05422
3303.63091	8.05869
3301.70234	8.01722
3299.77378	8.05741
3297.84521	8.15054
3295.91665	8.14575
3293.98809	8.14569
3292.05952	8.20211
3290.13096	8.18907
3288.20239	8.13437
3286.27383	8.12925
3284.34526	8.15375
3282.41670	8.16878
3280.48813	8.13120
3278.55957	8.07434
3276.63101	8.04399
3274.70244	8.03902
3272.77388	8.07927
3270.84531	8.11958
3268.91675	8.09200
3266.98818	8.03985
3265.05962	8.01741
3263.13105	8.02283
3261.20249	8.07024
3259.27393	8.11246
3257.34536	8.08713
3255.41680	8.05587
3253.48823	8.06980
3251.55967	8.07796
3249.63110	8.02230
3247.70254	7.95364
3245.77397	7.95429
3243.84541	7.99838
3241.91685	7.97642
3239.98828	7.92004
3238.05972	7.92908
3236.13115	7.96472
3234.20259	7.99730
3232.27402	8.03985
3230.34546	8.02360
3228.41689	7.96597
3226.48833	7.92389
3224.55977	7.90305
3222.63120	7.94404
3220.70264	7.98342
3218.77407	7.95085
3216.84551	7.90674
3214.91694	7.88404
3212.98838	7.89597
3211.05981	7.91664
3209.13125	7.88025
3207.20269	7.79588
3205.27412	7.72630
3203.34556	7.71163
3201.41699	7.68423
3199.48843	7.59277
3197.55986	7.55357
3195.63130	7.57212
3193.70273	7.52982
3191.77417	7.43722
3189.84561	7.36502
3187.91704	7.33561
3185.98848	7.32328
3184.05991	7.31053
3182.13135	7.29374
3180.20278	7.24832
3178.27422	7.16936
3176.34565	7.09155
3174.41709	7.03548
3172.48853	6.98377
3170.55996	6.93394
3168.63140	6.89286
3166.70283	6.85532
3164.77427	6.81212
3162.84570	6.74814
3160.91714	6.68053
3158.98857	6.62007
3157.06001	6.53548
3155.13145	6.43606
3153.20288	6.34998
3151.27432	6.26762
3149.34575	6.18952
3147.41719	6.13487
3145.48862	6.09166
3143.56006	6.02871
3141.63149	5.94803
3139.70293	5.87209
3137.77437	5.80720
3135.84580	5.74720
3133.91724	5.68895
3131.98867	5.62832
3130.06011	5.56171
3128.13154	5.48724
3126.20298	5.40653
3124.27441	5.32933
3122.34585	5.25541
3120.41729	5.18112
3118.48872	5.11111
3116.56016	5.04788
3114.63159	4.98746
3112.70303	4.92333
3110.77446	4.85379
3108.84590	4.78271
3106.91733	4.71241
3104.98877	4.64136
3103.06021	4.57362
3101.13164	4.51111
3099.20308	4.44534
3097.27451	4.37513
3095.34595	4.30847
3093.41738	4.24759
3091.48882	4.18743
3089.56025	4.12522
3087.63169	4.06287
3085.70312	3.99990
3083.77456	3.93608
3081.84600	3.87369
3079.91743	3.81398
3077.98887	3.75695
3076.06030	3.69914
3074.13174	3.64007
3072.20317	3.58334
3070.27461	3.52693
3068.34604	3.46907
3066.41748	3.41246
3064.48892	3.35777
3062.56035	3.30474
3060.63179	3.25280
3058.70322	3.19984
3056.77466	3.14607
3054.84609	3.09291
3052.91753	3.04070
3050.98896	2.98999
3049.06040	2.94066
3047.13184	2.89158
3045.20327	2.84268
3043.27471	2.79498
3041.34614	2.74863
3039.41758	2.70262
3037.48901	2.65553
3035.56045	2.60862
3033.63188	2.56431
3031.70332	2.52103
3029.77476	2.47760
3027.84619	2.43542
3025.91763	2.39373
3023.98906	2.35110
3022.06050	2.30912
3020.13193	2.26890
3018.20337	2.22925
3016.27480	2.19000
3014.34624	2.15168
3012.41768	2.11397
3010.48911	2.07630
3008.56055	2.03941
3006.63198	2.00396
3004.70342	1.96898
3002.77485	1.93434
3000.84629	1.90082
2998.91772	1.86821
2996.98916	1.83593
2995.06060	1.80385
2993.13203	1.77234
2991.20347	1.74175
2989.27490	1.71181
2987.34634	1.68247
2985.41777	1.65373
2983.48921	1.62522
2981.56064	1.59721
2979.63208	1.57005
2977.70352	1.54340
2975.77495	1.51728
2973.84639	1.49192
2971.91782	1.46720
2969.98926	1.44298
2968.06069	1.41886
2966.13213	1.39486
2964.20356	1.37131
2962.27500	1.34799
2960.34644	1.32477
2958.41787	1.30180
2956.48931	1.27879
2954.56074	1.25556
2952.63218	1.23252
2950.70361	1.21008
2948.77505	1.18820
2946.84648	1.16682
2944.91792	1.14616
2942.98936	1.12627
2941.06079	1.10653
2939.13223	1.08654
2937.20366	1.06700
2935.27510	1.04819
2933.34653	1.02950
2931.41797	1.01089
2929.48940	0.99280
2927.56084	0.97503
2925.63228	0.95723
2923.70371	0.93957
2921.77515	0.92245
2919.84658	0.90571
2917.91802	0.88907
2915.98945	0.87264
2914.06089	0.85629
2912.13232	0.84014
2910.20376	0.82487
2908.27520	0.81070
2906.34663	0.79699
2904.41807	0.78322
2902.48950	0.76948
2900.56094	0.75576
2898.63237	0.74237
2896.70381	0.72965
2894.77524	0.71755
2892.84668	0.70595
2890.91812	0.69441
2888.98955	0.68287
2887.06099	0.67168
2885.13242	0.66090
2883.20386	0.65051
2881.27529	0.64051
2879.34673	0.63063
2877.41816	0.62063
2875.48960	0.61074
2873.56104	0.60133
2871.63247	0.59198
2869.70391	0.58189
2867.77534	0.57110
2865.84678	0.56028
2863.91821	0.54990
2861.98965	0.53993
2860.06108	0.53012
2858.13252	0.52056
2856.20396	0.51138
2854.27539	0.50244
2852.34683	0.49381
2850.41826	0.48547
2848.48970	0.47725
2846.56113	0.46938
2844.63257	0.46199
2842.70400	0.45485
2840.77544	0.44811
2838.84687	0.44188
2836.91831	0.43602
2834.98975	0.43038
2833.06118	0.42465
2831.13262	0.41856
2829.20405	0.41235
2827.27549	0.40639
2825.34692	0.40077
2823.41836	0.39509
2821.48979	0.38910
2819.56123	0.38314
2817.63267	0.37745
2815.70410	0.37198
2813.77554	0.36684
2811.84697	0.36193
2809.91841	0.35677
2807.98984	0.35141
2806.06128	0.34625
2804.13271	0.34128
2802.20415	0.33639
2800.27559	0.33164
2798.34702	0.32708
2796.41846	0.32263
2794.48989	0.31813
2792.56133	0.31349
2790.63276	0.30903
2788.70420	0.30495
2786.77563	0.30092
2784.84707	0.29683
2782.91851	0.29292
2780.98994	0.28903
2779.06138	0.28504
2777.13281	0.28122
2775.20425	0.27761
2773.27568	0.27403
2771.34712	0.27045
2769.41855	0.26691
2767.48999	0.26337
2765.56143	0.25987
2763.63286	0.25652
2761.70430	0.25337
2759.77573	0.25024
2757.84717	0.24710
2755.91860	0.24407
2753.99004	0.24122
2752.06147	0.23843
2750.13291	0.23563
2748.20435	0.23295
2746.27578	0.23032
2744.34722	0.22758
2742.41865	0.22490
2740.49009	0.22244
2738.56152	0.22009
2736.63296	0.21769
2734.70439	0.21520
2732.77583	0.21283
2730.84727	0.21067
2728.91870	0.20848
2726.99014	0.20622
2725.06157	0.20416
2723.13301	0.20230
2721.20444	0.20050
2719.27588	0.19857
2717.34731	0.19641
2715.41875	0.19431
2713.49019	0.19252
2711.56162	0.19093
2709.63306	0.18937
2707.70449	0.18771
2705.77593	0.18612
2703.84736	0.18480
2701.91880	0.18346
2699.99023	0.18187
2698.06167	0.18025
2696.13311	0.17885
2694.20454	0.17759
2692.27598	0.17642
2690.34741	0.17519
2688.41885	0.17375
2686.49028	0.17234
2684.56172	0.17124
2682.63315	0.17031
2680.70459	0.16934
2678.77603	0.16832
2676.84746	0.16717
2674.91890	0.16589
2672.99033	0.16471
2671.06177	0.16374
2669.13320	0.16290
2667.20464	0.16211
2665.27607	0.16121
2663.34751	0.16025
2661.41895	0.15941
2659.49038	0.15865
2657.56182	0.15791
2655.63325	0.15722
2653.70469	0.15653
2651.77612	0.15583
2649.84756	0.15521
2647.91899	0.15468
2645.99043	0.15415
2644.06187	0.15352
2642.13330	0.15288
2640.20474	0.15241
2638.27617	0.15210
2636.34761	0.15170
2634.41904	0.15114
2632.49048	0.15064
2630.56191	0.15024
2628.63335	0.14987
2626.70479	0.14959
2624.77622	0.14932
2622.84766	0.14908
2620.91909	0.14901
2618.99053	0.14887
2617.06196	0.14848
2615.13340	0.14814
2613.20483	0.14803
2611.27627	0.14804
2609.34771	0.14798
2607.41914	0.14782
2605.49058	0.14763
2603.56201	0.14748
2601.63345	0.14743
2599.70488	0.14747
2597.77632	0.14754
2595.84775	0.14755
2593.91919	0.14764
2591.99062	0.14787
2590.06206	0.14811
2588.13350	0.14831
2586.20493	0.14852
2584.27637	0.14875
2582.34780	0.14893
2580.41924	0.14915
2578.49067	0.14942
2576.56211	0.14958
2574.63354	0.14975
2572.70498	0.15016
2570.77642	0.15063
2568.84785	0.15093
2566.91929	0.15122
2564.99072	0.15170
2563.06216	0.15215
2561.13359	0.15244
2559.20503	0.15275
2557.27646	0.15319
2555.34790	0.15375
2553.41934	0.15436
2551.49077	0.15493
2549.56221	0.15548
2547.63364	0.15610
2545.70508	0.15664
2543.77651	0.15700
2541.84795	0.15741
2539.91938	0.15808
2537.99082	0.15891
2536.06226	0.15959
2534.13369	0.16010
2532.20513	0.16071
2530.27656	0.16152
2528.34800	0.16234
2526.41943	0.16298
2524.49087	0.16362
2522.56230	0.16429
2520.63374	0.16488
2518.70518	0.16552
2516.77661	0.16634
2514.84805	0.16717
2512.91948	0.16806
2510.99092	0.16905
2509.06235	0.16984
2507.13379	0.17042
2505.20522	0.17110
2503.27666	0.17191
2501.34810	0.17277
2499.41953	0.17368
2497.49097	0.17452
2495.56240	0.17530
2493.63384	0.17607
2491.70527	0.17681
2489.77671	0.17754
2487.84814	0.17830
2485.91958	0.17912
2483.99102	0.17994
2482.06245	0.18084
2480.13389	0.18185
2478.20532	0.18282
2476.27676	0.18369
2474.34819	0.18453
2472.41963	0.18541
2470.49106	0.18632
2468.56250	0.18719
2466.63394	0.18805
2464.70537	0.18895
2462.77681	0.18985
2460.84824	0.19073
2458.91968	0.19167
2456.99111	0.19271
2455.06255	0.19365
2453.13398	0.19445
2451.20542	0.19535
2449.27686	0.19639
2447.34829	0.19739
2445.41973	0.19833
2443.49116	0.19928
2441.56260	0.20027
2439.63403	0.20121
2437.70547	0.20208
2435.77690	0.20310
2433.84834	0.20425
2431.91978	0.20529
2429.99121	0.20625
2428.06265	0.20731
2426.13408	0.20844
2424.20552	0.20953
2422.27695	0.21056
2420.34839	0.21152
2418.41982	0.21256
2416.49126	0.21380
2414.56270	0.21504
2412.63413	0.21608
2410.70557	0.21705
2408.77700	0.21815
2406.84844	0.21936
2404.91987	0.22048
2402.99131	0.22150
2401.06274	0.22262
2399.13418	0.22388
2397.20562	0.22517
2395.27705	0.22642
2393.34849	0.22757
2391.41992	0.22868
2389.49136	0.22982
2387.56279	0.23076
2385.63423	0.23116
2383.70566	0.23110
2381.77710	0.23063
2379.84854	0.22964
2377.91997	0.22812
2375.99141	0.22579
2374.06284	0.22222
2372.13428	0.21784
2370.20571	0.21338
2368.27715	0.20856
2366.34858	0.20302
2364.42002	0.19878
2362.49146	0.19806
2360.56289	0.19830
2358.63433	0.19775
2356.70576	0.20158
2354.77720	0.21102
2352.84863	0.22151
2350.92007	0.23032
2348.99150	0.23553
2347.06294	0.23663
2345.13437	0.23409
2343.20581	0.22990
2341.27725	0.22829
2339.34868	0.22990
2337.42012	0.23235
2335.49155	0.23504
2333.56299	0.23809
2331.63442	0.24098
2329.70586	0.24351
2327.77729	0.24645
2325.84873	0.25049
2323.92017	0.25496
2321.99160	0.25893
2320.06304	0.26278
2318.13447	0.26685
2316.20591	0.27054
2314.27734	0.27374
2312.34878	0.27685
2310.42021	0.27999
2308.49165	0.28321
2306.56309	0.28650
2304.63452	0.28965
2302.70596	0.29236
2300.77739	0.29470
2298.84883	0.29706
2296.92026	0.29952
2294.99170	0.30202
2293.06313	0.30464
2291.13457	0.30720
2289.20601	0.30967
2287.27744	0.31227
2285.34888	0.31484
2283.42031	0.31710
2281.49175	0.31899
2279.56318	0.32071
2277.63462	0.32245
2275.70605	0.32433
2273.77749	0.32629
2271.84893	0.32834
2269.92036	0.33062
2267.99180	0.33295
2266.06323	0.33510
2264.13467	0.33712
2262.20610	0.33913
2260.27754	0.34122
2258.34897	0.34347
2256.42041	0.34580
2254.49185	0.34810
2252.56328	0.35037
2250.63472	0.35258
2248.70615	0.35468
2246.77759	0.35682
2244.84902	0.35919
2242.92046	0.36160
2240.99189	0.36379
2239.06333	0.36594
2237.13477	0.36817
2235.20620	0.37032
2233.27764	0.37253
2231.34907	0.37488
2229.42051	0.37716
2227.49194	0.37923
2225.56338	0.38115
2223.63481	0.38312
2221.70625	0.38530
2219.77769	0.38761
2217.84912	0.38993
2215.92056	0.39214
2213.99199	0.39423
2212.06343	0.39639
2210.13486	0.39861
2208.20630	0.40069
2206.27773	0.40269
2204.34917	0.40471
2202.42061	0.40676
2200.49204	0.40881
2198.56348	0.41087
2196.63491	0.41283
2194.70635	0.41477
2192.77778	0.41678
2190.84922	0.41874
2188.92065	0.42055
2186.99209	0.42228
2185.06353	0.42407
2183.13496	0.42592
2181.20640	0.42759
2179.27783	0.42908
2177.34927	0.43068
2175.42070	0.43232
2173.49214	0.43387
2171.56357	0.43533
2169.63501	0.43663
2167.70645	0.43789
2165.77788	0.43927
2163.84932	0.44054
2161.92075	0.44166
2159.99219	0.44277
2158.06362	0.44382
2156.13506	0.44476
2154.20649	0.44564
2152.27793	0.44647
2150.34937	0.44721
2148.42080	0.44792
2146.49224	0.44867
2144.56367	0.44932
2142.63511	0.44978
2140.70654	0.45002
2138.77798	0.45014
2136.84941	0.45032
2134.92085	0.45060
2132.99229	0.45079
2131.06372	0.45078
2129.13516	0.45065
2127.20659	0.45044
2125.27803	0.45018
2123.34946	0.44991
2121.42090	0.44955
2119.49233	0.44904
2117.56377	0.44853
2115.63521	0.44798
2113.70664	0.44729
2111.77808	0.44642
2109.84951	0.44544
2107.92095	0.44446
2105.99238	0.44347
2104.06382	0.44243
2102.13525	0.44138
2100.20669	0.44020
2098.27812	0.43886
2096.34956	0.43744
2094.42100	0.43598
2092.49243	0.43453
2090.56387	0.43301
2088.63530	0.43125
2086.70674	0.42943
2084.77817	0.42767
2082.84961	0.42586
2080.92104	0.42396
2078.99248	0.42202
2077.06392	0.42010
2075.13535	0.41814
2073.20679	0.41608
2071.27822	0.41388
2069.34966	0.41159
2067.42109	0.40928
2065.49253	0.40703
2063.56396	0.40482
2061.63540	0.40259
2059.70684	0.40028
2057.77827	0.39791
2055.84971	0.39542
2053.92114	0.39283
2051.99258	0.39031
2050.06401	0.38782
2048.13545	0.38532
2046.20688	0.38281
2044.27832	0.38030
2042.34976	0.37770
2040.42119	0.37498
2038.49263	0.37232
2036.56406	0.36978
2034.63550	0.36725
2032.70693	0.36461
2030.77837	0.36186
2028.84980	0.35906
2026.92124	0.35623
2024.99268	0.35340
2023.06411	0.35070
2021.13555	0.34805
2019.20698	0.34531
2017.27842	0.34251
2015.34985	0.33980
2013.42129	0.33732
2011.49272	0.33479
2009.56416	0.33207
2007.63560	0.32933
2005.70703	0.32672
2003.77847	0.32412
2001.84990	0.32146
1999.92134	0.31884
1997.99277	0.31628
1996.06421	0.31369
1994.13564	0.31110
1992.20708	0.30858
1990.27852	0.30617
1988.34995	0.30388
1986.42139	0.30154
1984.49282	0.29910
1982.56426	0.29671
1980.63569	0.29440
1978.70713	0.29211
1976.77856	0.28985
1974.85000	0.28765
1972.92144	0.28551
1970.99287	0.28340
1969.06431	0.28123
1967.13574	0.27916
1965.20718	0.27728
1963.27861	0.27549
1961.35005	0.27362
1959.42148	0.27164
1957.49292	0.26965
1955.56436	0.26774
1953.63579	0.26590
1951.70723	0.26415
1949.77866	0.26262
1947.85010	0.26117
1945.92153	0.25959
1943.99297	0.25789
1942.06440	0.25631
1940.13584	0.25497
1938.20728	0.25376
1936.27871	0.25248
1934.35015	0.25108
1932.42158	0.24975
1930.49302	0.24856
1928.56445	0.24741
1926.63589	0.24627
1924.70732	0.24523
1922.77876	0.24421
1920.85020	0.24322
1918.92163	0.24236
1916.99307	0.24153
1915.06450	0.24072
1913.13594	0.23986
1911.20737	0.23897
1909.27881	0.23812
1907.35024	0.23741
1905.42168	0.23677
1903.49312	0.23621
1901.56455	0.23570
1899.63599	0.23517
1897.70742	0.23463
1895.77886	0.23419
1893.85029	0.23391
1891.92173	0.23365
1889.99316	0.23339
1888.06460	0.23313
1886.13604	0.23286
1884.20747	0.23257
1882.27891	0.23230
1880.35034	0.23213
1878.42178	0.23205
1876.49321	0.23210
1874.56465	0.23215
1872.63608	0.23213
1870.70752	0.23205
1868.77896	0.23221
1866.85039	0.23244
1864.92183	0.23253
1862.99326	0.23266
1861.06470	0.23290
1859.13613	0.23329
1857.20757	0.23373
1855.27900	0.23431
1853.35044	0.23489
1851.42187	0.23537
1849.49331	0.23579
1847.56475	0.23630
1845.63618	0.23688
1843.70762	0.23762
1841.77905	0.23847
1839.85049	0.23905
1837.92192	0.23972
1835.99336	0.24070
1834.06479	0.24188
1832.13623	0.24285
1830.20767	0.24384
1828.27910	0.24506
1826.35054	0.24617
1824.42197	0.24748
1822.49341	0.24891
1820.56484	0.25030
1818.63628	0.25170
1816.70771	0.25328
1814.77915	0.25487
1812.85059	0.25648
1810.92202	0.25828
1808.99346	0.26028
1807.06489	0.26232
1805.13633	0.26426
1803.20776	0.26633
1801.27920	0.26862
1799.35063	0.27127
1797.42207	0.27374
1795.49351	0.27599
1793.56494	0.27842
1791.63638	0.28185
1789.70781	0.28566
1787.77925	0.28858
1785.85068	0.29168
1783.92212	0.29532
1781.99355	0.29924
1780.06499	0.30330
1778.13643	0.30749
1776.20786	0.31136
1774.27930	0.31525
1772.35073	0.32050
1770.42217	0.32668
1768.49360	0.33234
1766.56504	0.33778
1764.63647	0.34318
1762.70791	0.34883
1760.77935	0.35602
1758.85078	0.36295
1756.92222	0.36993
1754.99365	0.37770
1753.06509	0.38469
1751.13652	0.39257
1749.20796	0.40257
1747.27939	0.41302
1745.35083	0.42247
1743.42227	0.43224
1741.49370	0.44264
1739.56514	0.45482
1737.63657	0.46729
1735.70801	0.47809
1733.77944	0.49392
1731.85088	0.51346
1729.92231	0.52926
1727.99375	0.54507
1726.06519	0.56179
1724.13662	0.57978
1722.20806	0.59928
1720.27949	0.61722
1718.35093	0.63761
1716.42236	0.66822
1714.49380	0.69887
1712.56523	0.72423
1710.63667	0.74845
1708.70811	0.77408
1706.77954	0.80268
1704.85098	0.83688
1702.92241	0.86778
1700.99385	0.89817
1699.06528	0.94347
1697.13672	0.98580
1695.20815	1.02982
1693.27959	1.07302
1691.35103	1.10779
1689.42246	1.14739
1687.49390	1.18890
1685.56533	1.22861
1683.63677	1.29059
1681.70820	1.35631
1679.77964	1.39872
1677.85107	1.43852
1675.92251	1.48369
1673.99395	1.53984
1672.06538	1.59036
1670.13682	1.64023
1668.20825	1.70575
1666.27969	1.75914
1664.35112	1.80323
1662.42256	1.85793
1660.49399	1.92054
1658.56543	1.96994
1656.63687	2.00921
1654.70830	2.04446
1652.77974	2.10077
1650.85117	2.15667
1648.92261	2.17769
1646.99404	2.20240
1645.06548	2.23117
1643.13691	2.25290
1641.20835	2.26620
1639.27979	2.27558
1637.35122	2.27930
1635.42266	2.27811
1633.49409	2.27358
1631.56553	2.26337
1629.63696	2.24811
1627.70840	2.21965
1625.77983	2.18521
1623.85127	2.14362
1621.92271	2.09475
1619.99414	2.05135
1618.06558	2.00745
1616.13701	1.94386
1614.20845	1.87941
1612.27988	1.83055
1610.35132	1.77927
1608.42275	1.72385
1606.49419	1.67012
1604.56562	1.62125
1602.63706	1.57403
1600.70850	1.52703
1598.77993	1.48261
1596.85137	1.44038
1594.92280	1.39958
1592.99424	1.36045
1591.06567	1.32472
1589.13711	1.29122
1587.20854	1.25988
1585.27998	1.23072
1583.35142	1.20324
1581.42285	1.17788
1579.49429	1.15592
1577.56572	1.13592
1575.63716	1.11234
1573.70859	1.09268
1571.78003	1.08006
1569.85146	1.06659
1567.92290	1.05182
1565.99434	1.04082
1564.06577	1.03213
1562.13721	1.02525
1560.20864	1.02050
1558.28008	1.01512
1556.35151	1.01117
1554.42295	1.00883
1552.49438	1.00620
1550.56582	1.00239
1548.63726	0.99696
1546.70869	0.99031
1544.78013	0.98145
1542.85156	0.96976
1540.92300	0.95381
1538.99443	0.93106
1537.06587	0.91487
1535.13730	0.90339
1533.20874	0.88793
1531.28018	0.87175
1529.35161	0.86014
1527.42305	0.84870
1525.49448	0.83626
1523.56592	0.82552
1521.63735	0.81575
1519.70879	0.80614
1517.78022	0.79755
1515.85166	0.78800
1513.92310	0.77881
1511.99453	0.77077
1510.06597	0.76289
1508.13740	0.75487
1506.20884	0.74319
1504.28027	0.73377
1502.35171	0.72855
1500.42314	0.72366
1498.49458	0.71811
1496.56602	0.71183
1494.63745	0.70618
1492.70889	0.70183
1490.78032	0.69756
1488.85176	0.69258
1486.92319	0.68849
1484.99463	0.68545
1483.06606	0.68292
1481.13750	0.68078
1479.20894	0.67904
1477.28037	0.67780
1475.35181	0.67706
1473.42324	0.67661
1471.49468	0.67563
1469.56611	0.67396
1467.63755	0.67194
1465.70898	0.66982
1463.78042	0.66802
1461.85186	0.66678
1459.92329	0.66581
1457.99473	0.66460
1456.06616	0.66255
1454.13760	0.66025
1452.20903	0.65815
1450.28047	0.65580
1448.35190	0.65321
1446.42334	0.65066
1444.49478	0.64841
1442.56621	0.64626
1440.63765	0.64391
1438.70908	0.64129
1436.78052	0.63803
1434.85195	0.63466
1432.92339	0.63200
1430.99482	0.62991
1429.06626	0.62852
1427.13770	0.62784
1425.20913	0.62746
1423.28057	0.62705
1421.35200	0.62637
1419.42344	0.62560
1417.49487	0.62513
1415.56631	0.62448
1413.63774	0.62362
1411.70918	0.62299
1409.78062	0.62289
1407.85205	0.62321
1405.92349	0.62374
1403.99492	0.62429
1402.06636	0.62431
1400.13779	0.62357
1398.20923	0.62202
1396.28066	0.61977
1394.35210	0.61701
1392.42354	0.61407
1390.49497	0.61115
1388.56641	0.60801
1386.63784	0.60444
1384.70928	0.60082
1382.78071	0.59747
1380.85215	0.59431
1378.92358	0.59158
1376.99502	0.58950
1375.06646	0.58805
1373.13789	0.58699
1371.20933	0.58607
1369.28076	0.58514
1367.35220	0.58403
1365.42363	0.58276
1363.49507	0.58148
1361.56650	0.58029
1359.63794	0.57907
1357.70937	0.57777
1355.78081	0.57647
1353.85225	0.57538
1351.92368	0.57449
1349.99512	0.57368
1348.06655	0.57291
1346.13799	0.57211
1344.20942	0.57133
1342.28086	0.57056
1340.35229	0.56971
1338.42373	0.56889
1336.49517	0.56830
1334.56660	0.56785
1332.63804	0.56749
1330.70947	0.56732
1328.78091	0.56727
1326.85234	0.56730
1324.92378	0.56741
1322.99521	0.56754
1321.06665	0.56767
1319.13809	0.56787
1317.20952	0.56792
1315.28096	0.56756
1313.35239	0.56683
1311.42383	0.56602
1309.49526	0.56529
1307.56670	0.56469
1305.63813	0.56424
1303.70957	0.56373
1301.78101	0.56299
1299.85244	0.56210
1297.92388	0.56126
1295.99531	0.56052
1294.06675	0.55966
1292.13818	0.55860
1290.20962	0.55758
1288.28105	0.55665
1286.35249	0.55570
1284.42393	0.55474
1282.49536	0.55388
1280.56680	0.55307
1278.63823	0.55217
1276.70967	0.55111
1274.78110	0.54998
1272.85254	0.54898
1270.92397	0.54824
1268.99541	0.54769
1267.06685	0.54726
1265.13828	0.54675
1263.20972	0.54611
1261.28115	0.54546
1259.35259	0.54495
1257.42402	0.54448
1255.49546	0.54390
1253.56689	0.54345
1251.63833	0.54340
1249.70977	0.54356
1247.78120	0.54353
1245.85264	0.54322
1243.92407	0.54266
1241.99551	0.54187
1240.06694	0.54093
1238.13838	0.53977
1236.20981	0.53840
1234.28125	0.53682
1232.35269	0.53504
1230.42412	0.53332
1228.49556	0.53185
1226.56699	0.53044
1224.63843	0.52900
1222.70986	0.52774
1220.78130	0.52666
1218.85273	0.52563
1216.92417	0.52464
1214.99561	0.52366
1213.06704	0.52265
1211.13848	0.52183
1209.20991	0.52130
1207.28135	0.52071
1205.35278	0.51990
1203.42422	0.51908
1201.49565	0.51829
1199.56709	0.51751
1197.63853	0.51681
1195.70996	0.51627
1193.78140	0.51591
1191.85283	0.51551
1189.92427	0.51502
1187.99570	0.51468
1186.06714	0.51448
1184.13857	0.51448
1182.21001	0.51473
1180.28145	0.51524
1178.35288	0.51611
1176.42432	0.51729
1174.49575	0.51839
1172.56719	0.51913
1170.63862	0.51958
1168.71006	0.51985
1166.78149	0.52008
1164.85293	0.52048
1162.92437	0.52093
1160.99580	0.52118
1159.06724	0.52114
1157.13867	0.52081
1155.21011	0.52013
1153.28154	0.51892
1151.35298	0.51700
1149.42441	0.51447
1147.49585	0.51174
1145.56729	0.50905
1143.63872	0.50640
1141.71016	0.50389
1139.78159	0.50167
1137.85303	0.49988
1135.92446	0.49849
1133.99590	0.49733
1132.06733	0.49634
1130.13877	0.49548
1128.21021	0.49459
1126.28164	0.49362
1124.35308	0.49273
1122.42451	0.49217
1120.49595	0.49188
1118.56738	0.49178
1116.63882	0.49214
1114.71025	0.49305
1112.78169	0.49406
1110.85312	0.49478
1108.92456	0.49542
1106.99600	0.49625
1105.06743	0.49726
1103.13887	0.49833
1101.21030	0.49950
1099.28174	0.50110
1097.35317	0.50329
1095.42461	0.50589
1093.49604	0.50919
1091.56748	0.51371
1089.63892	0.51936
1087.71035	0.52592
1085.78179	0.53323
1083.85322	0.54086
1081.92466	0.54786
1079.99609	0.55320
1078.06753	0.55621
1076.13896	0.55660
1074.21040	0.55424
1072.28184	0.54940
1070.35327	0.54293
1068.42471	0.53602
1066.49614	0.52937
1064.56758	0.52314
1062.63901	0.51769
1060.71045	0.51306
1058.78188	0.50893
1056.85332	0.50527
1054.92476	0.50199
1052.99619	0.49898
1051.06763	0.49642
1049.13906	0.49458
1047.21050	0.49344
1045.28193	0.49263
1043.35337	0.49196
1041.42480	0.49156
1039.49624	0.49143
1037.56768	0.49137
1035.63911	0.49120
1033.71055	0.49085
1031.78198	0.49036
1029.85342	0.48979
1027.92485	0.48903
1025.99629	0.48804
1024.06772	0.48704
1022.13916	0.48647
1020.21060	0.48651
1018.28203	0.48697
1016.35347	0.48745
1014.42490	0.48772
1012.49634	0.48790
1010.56777	0.48819
1008.63921	0.48865
1006.71064	0.48933
1004.78208	0.49039
1002.85352	0.49214
1000.92495	0.49469
998.99639	0.49804
997.06782	0.50208
995.13926	0.50640
993.21069	0.51048
991.28213	0.51378
989.35356	0.51600
987.42500	0.51712
985.49644	0.51739
983.56787	0.51735
981.63931	0.51764
979.71074	0.51859
977.78218	0.52031
975.85361	0.52264
973.92505	0.52520
971.99648	0.52798
970.06792	0.53121
968.13936	0.53469
966.21079	0.53836
964.28223	0.54258
962.35366	0.54739
960.42510	0.55238
958.49653	0.55749
956.56797	0.56285
954.63940	0.56864
952.71084	0.57486
950.78228	0.58106
948.85371	0.58715
946.92515	0.59341
944.99658	0.59957
943.06802	0.60520
941.13945	0.61066
939.21089	0.61644
937.28232	0.62239
935.35376	0.62846
933.42520	0.63460
931.49663	0.64052
929.56807	0.64618
927.63950	0.65184
925.71094	0.65717
923.78237	0.66187
921.85381	0.66712
919.92524	0.67381
917.99668	0.68131
916.06812	0.68893
914.13955	0.69642
912.21099	0.70412
910.28242	0.71228
908.35386	0.72011
906.42529	0.72779
904.49673	0.73629
902.56816	0.74521
900.63960	0.75443
898.71104	0.76458
896.78247	0.77502
894.85391	0.78455
892.92534	0.79430
890.99678	0.80535
889.06821	0.81582
887.13965	0.82533
885.21108	0.83583
883.28252	0.84718
881.35396	0.85757
879.42539	0.86732
877.49683	0.87844
875.56826	0.89083
873.63970	0.90288
871.71113	0.91432
869.78257	0.92565
867.85400	0.93763
865.92544	0.94990
863.99687	0.95985
862.06831	0.96822
860.13975	0.97927
858.21118	0.99161
856.28262	1.00185
854.35405	1.01274
852.42549	1.02545
850.49692	1.03744
848.56836	1.04924
846.63979	1.06168
844.71123	1.07291
842.78267	1.08185
840.85410	1.09125
838.92554	1.10297
836.99697	1.11552
835.06841	1.12813
833.13984	1.13992
831.21128	1.15173
829.28271	1.16563
827.35415	1.17751
825.42559	1.18604
823.49702	1.19654
821.56846	1.20832
819.63989	1.22001
817.71133	1.22727
815.78276	1.22376
813.85420	1.21932
811.92563	1.22490
809.99707	1.23900
808.06851	1.26271
806.13994	1.29257
804.21138	1.30732
802.28281	1.31060
800.35425	1.32954
798.42568	1.35110
796.49712	1.34318
794.56855	1.32214
792.63999	1.30606
790.71143	1.30135
788.78286	1.32485
786.85430	1.36372
784.92573	1.40842
782.99717	1.46346
781.06860	1.47301
779.14004	1.44708
777.21147	1.48513
775.28291	1.50538
773.35435	1.35918
771.42578	1.23407
769.49722	1.20762
767.56865	1.20878
765.64009	1.18546
763.71152	1.21557
761.78296	1.32731
759.85439	1.40025
757.92583	1.34025
755.99727	1.28759
754.06870	1.35503
752.14014	1.52602
750.21157	1.72407
748.28301	1.59282
746.35444	1.29853
744.42588	1.17799
742.49731	1.15230
740.56875	1.07253
738.64019	0.93441
736.71162	0.83702
734.78306	0.81748
732.85449	0.84564
730.92593	0.84827
728.99736	0.81090
727.06880	0.72514
725.14023	0.49324
723.21167	0.25293
721.28311	0.09494
719.35454	0.10896
717.42598	0.35103
715.49741	0.38425
713.56885	0.13294
711.64028	-0.07627
709.71172	-0.19225
707.78315	-0.17302
705.85459	-0.02509
703.92603	0.09820
701.99746	0.17277
700.06890	0.19202
698.14033	0.22493
696.21177	0.30826
694.28320	0.37575
692.35464	0.45770
690.42607	0.52228
688.49751	0.42749
686.56895	0.41450
684.64038	0.59753
682.71182	0.63206
680.78325	0.39121
678.85469	0.27218
676.92612	0.23234
674.99756	0.18576
673.06899	0.16910
671.14043	0.19948
669.21187	0.23034
667.28330	0.26274
665.35474	0.38030
663.42617	0.79904
661.49761	3.96899
659.56904	0.50019
657.64048	0.30644
655.71191	0.23028
653.78335	0.19443
651.85479	0.23359
649.92622	0.39092
647.99766	0.56737
646.06909	0.41442
644.14053	0.26610
642.21196	0.30051
640.28340	0.34207
638.35483	0.24727
636.42627	0.18325
634.49771	0.17471
632.56914	0.22519
630.64058	0.34732
628.71201	0.39144
626.78345	0.32294
624.85488	0.32462
622.92632	0.39837
620.99775	0.41387
619.06919	0.36769
617.14062	0.31401
615.21206	0.27000
613.28350	0.22411
611.35493	0.15664
609.42637	0.13130
607.49780	0.19552
605.56924	0.32893
603.64067	0.45721
601.71211	0.43127
599.78354	0.26327
597.85498	0.16015
595.92642	0.18098
593.99785	0.24091
592.06929	0.23316
590.14072	0.15453
588.21216	0.10730
586.28359	0.11691
584.35503	0.15672
582.42646	0.21778
580.49790	0.31927
578.56934	0.39534
576.64077	0.34843
574.71221	0.27136
572.78364	0.21829
570.85508	0.18902
568.92651	0.19398
566.99795	0.21346
565.06938	0.22104
563.14082	0.24583
561.21226	0.28442
559.28369	0.29663
557.35513	0.27532
555.42656	0.23796
553.49800	0.27615
551.56943	0.42909
549.64087	0.70238
547.71230	0.88727
545.78374	0.52476
543.85518	0.33175
541.92661	0.28962
539.99805	0.32488
538.06948	0.32654
536.14092	0.25796
534.21235	0.21910
532.28379	0.24161
530.35522	0.32120
528.42666	0.34147
526.49810	0.23868
524.56953	0.17569
522.64097	0.21876
520.71240	0.27954
518.78384	0.30688
516.85527	0.32407
514.92671	0.31466
512.99814	0.34623
511.06958	0.53746
509.14102	0.60575
507.21245	0.38329
505.28389	0.25011
503.35532	0.21554
501.42676	0.21831
499.49819	0.19460
