3997.91411	0.06987
3995.98555	0.06999
3994.05698	0.07036
3992.12842	0.07104
3990.19985	0.07134
3988.27129	0.07127
3986.34272	0.07152
3984.41416	0.07220
3982.48560	0.07283
3980.55703	0.07292
3978.62847	0.07269
3976.69990	0.07285
3974.77134	0.07344
3972.84277	0.07369
3970.91421	0.07361
3968.98564	0.07370
3967.05708	0.07387
3965.12852	0.07405
3963.19995	0.07428
3961.27139	0.07457
3959.34282	0.07485
3957.41426	0.07503
3955.48569	0.07518
3953.55713	0.07509
3951.62856	0.07500
3949.70000	0.07545
3947.77144	0.07582
3945.84287	0.07569
3943.91431	0.07613
3941.98574	0.07668
3940.05718	0.07587
3938.12861	0.07474
3936.20005	0.07447
3934.27148	0.07511
3932.34292	0.07643
3930.41436	0.07721
3928.48579	0.07661
3926.55723	0.07601
3924.62866	0.07638
3922.70010	0.07661
3920.77153	0.07603
3918.84297	0.07568
3916.91440	0.07572
3914.98584	0.07521
3913.05728	0.07404
3911.12871	0.07331
3909.20015	0.07352
3907.27158	0.07455
3905.34302	0.07679
3903.41445	0.08003
3901.48589	0.08188
3899.55732	0.08111
3897.62876	0.07864
3895.70020	0.07611
3893.77163	0.07558
3891.84307	0.07715
3889.91450	0.07787
3887.98594	0.07657
3886.05737	0.07646
3884.12881	0.07824
3882.20024	0.07953
3880.27168	0.07996
3878.34312	0.07915
3876.41455	0.07757
3874.48599	0.07753
3872.55742	0.07911
3870.62886	0.08119
3868.70029	0.08263
3866.77173	0.08231
3864.84316	0.08243
3862.91460	0.08326
3860.98604	0.08241
3859.05747	0.08095
3857.12891	0.08095
3855.20034	0.08320
3853.27178	0.08792
3851.34321	0.08991
3849.41465	0.08632
3847.48608	0.08317
3845.55752	0.08241
3843.62896	0.08391
3841.70039	0.08672
3839.77183	0.08987
3837.84326	0.09232
3835.91470	0.09213
3833.98613	0.09048
3832.05757	0.08965
3830.12900	0.08949
3828.20044	0.08962
3826.27187	0.09031
3824.34331	0.09128
3822.41475	0.09350
3820.48618	0.09781
3818.55762	0.09952
3816.62905	0.09837
3814.70049	0.09759
3812.77192	0.09609
3810.84336	0.09465
3808.91479	0.09519
3806.98623	0.09808
3805.05767	0.10093
3803.12910	0.10242
3801.20054	0.10452
3799.27197	0.10593
3797.34341	0.10577
3795.41484	0.10585
3793.48628	0.10574
3791.55771	0.10576
3789.62915	0.10647
3787.70059	0.10761
3785.77202	0.10943
3783.84346	0.11147
3781.91489	0.11286
3779.98633	0.11468
3778.05776	0.11728
3776.12920	0.11848
3774.20063	0.11868
3772.27207	0.11996
3770.34351	0.12299
3768.41494	0.12659
3766.48638	0.12912
3764.55781	0.13105
3762.62925	0.13265
3760.70068	0.13470
3758.77212	0.13806
3756.84355	0.14123
3754.91499	0.14323
3752.98643	0.14605
3751.05786	0.15213
3749.12930	0.15975
3747.20073	0.16307
3745.27217	0.16525
3743.34360	0.17055
3741.41504	0.17603
3739.48647	0.18056
3737.55791	0.18723
3735.62935	0.19727
3733.70078	0.20763
3731.77222	0.21379
3729.84365	0.21805
3727.91509	0.22305
3725.98652	0.22935
3724.05796	0.23547
3722.12939	0.23972
3720.20083	0.24221
3718.27227	0.24348
3716.34370	0.24499
3714.41514	0.24905
3712.48657	0.25961
3710.55801	0.27925
3708.62944	0.29850
3706.70088	0.31037
3704.77231	0.32080
3702.84375	0.33356
3700.91519	0.35021
3698.98662	0.36831
3697.05806	0.38506
3695.12949	0.40274
3693.20093	0.42219
3691.27236	0.44396
3689.34380	0.47123
3687.41523	0.50319
3685.48667	0.53091
3683.55811	0.55506
3681.62954	0.58193
3679.70098	0.61376
3677.77241	0.64815
3675.84385	0.68836
3673.91528	0.74115
3671.98672	0.78394
3670.05815	0.82262
3668.12959	0.87534
3666.20103	0.92182
3664.27246	0.96049
3662.34390	1.00324
3660.41533	1.05019
3658.48677	1.09709
3656.55820	1.14756
3654.62964	1.20365
3652.70107	1.25063
3650.77251	1.29263
3648.84395	1.35214
3646.91538	1.42301
3644.98682	1.47139
3643.05825	1.50864
3641.12969	1.54960
3639.20112	1.59578
3637.27256	1.64159
3635.34399	1.68663
3633.41543	1.73300
3631.48687	1.77645
3629.55830	1.81998
3627.62974	1.87686
3625.70117	1.92853
3623.77261	1.96122
3621.84404	1.99160
3619.91548	2.02696
3617.98691	2.07087
3616.05835	2.11332
3614.12979	2.14766
3612.20122	2.18348
3610.27266	2.22184
3608.34409	2.26476
3606.41553	2.31154
3604.48696	2.35194
3602.55840	2.38644
3600.62983	2.42442
3598.70127	2.46594
3596.77271	2.50612
3594.84414	2.54680
3592.91558	2.58811
3590.98701	2.62502
3589.05845	2.65833
3587.12988	2.69967
3585.20132	2.74692
3583.27275	2.78680
3581.34419	2.82345
3579.41562	2.86325
3577.48706	2.90554
3575.55850	2.94717
3573.62993	2.98813
3571.70137	3.02786
3569.77280	3.06838
3567.84424	3.11428
3565.91567	3.16884
3563.98711	3.21957
3562.05854	3.26005
3560.12998	3.29888
3558.20142	3.33997
3556.27285	3.38386
3554.34429	3.42868
3552.41572	3.47552
3550.48716	3.52386
3548.55859	3.57014
3546.63003	3.61439
3544.70146	3.66010
3542.77290	3.70811
3540.84434	3.75527
3538.91577	3.79909
3536.98721	3.84259
3535.05864	3.89126
3533.13008	3.94108
3531.20151	3.98912
3529.27295	4.03649
3527.34438	4.08443
3525.41582	4.13299
3523.48726	4.17892
3521.55869	4.22349
3519.63013	4.26977
3517.70156	4.31652
3515.77300	4.36142
3513.84443	4.40744
3511.91587	4.45715
3509.98730	4.50821
3508.05874	4.55691
3506.13018	4.60604
3504.20161	4.65774
3502.27305	4.70548
3500.34448	4.74900
3498.41592	4.79491
3496.48735	4.84532
3494.55879	4.89621
3492.63022	4.94349
3490.70166	4.99048
3488.77310	5.03856
3486.84453	5.08396
3484.91597	5.13107
3482.98740	5.18572
3481.05884	5.24150
3479.13027	5.29110
3477.20171	5.33726
3475.27314	5.38269
3473.34458	5.42896
3471.41602	5.47560
3469.48745	5.51550
3467.55889	5.54969
3465.63032	5.59210
3463.70176	5.64834
3461.77319	5.70386
3459.84463	5.75170
3457.91606	5.80247
3455.98750	5.85781
3454.05894	5.91065
3452.13037	5.96401
3450.20181	6.01592
3448.27324	6.06387
3446.34468	6.11384
3444.41611	6.15501
3442.48755	6.19770
3440.55898	6.25385
3438.63042	6.30715
3436.70186	6.35929
3434.77329	6.42148
3432.84473	6.47164
3430.91616	6.48575
3428.98760	6.49940
3427.05903	6.55013
3425.13047	6.62667
3423.20190	6.69104
3421.27334	6.73001
3419.34478	6.76304
3417.41621	6.81004
3415.48765	6.85986
3413.55908	6.88840
3411.63052	6.91651
3409.70195	6.96044
3407.77339	7.02271
3405.84482	7.10307
3403.91626	7.17456
3401.98770	7.20641
3400.05913	7.21556
3398.13057	7.23468
3396.20200	7.25643
3394.27344	7.27954
3392.34487	7.33223
3390.41631	7.41851
3388.48774	7.47983
3386.55918	7.52355
3384.63062	7.57727
3382.70205	7.58632
3380.77349	7.56209
3378.84492	7.59017
3376.91636	7.67468
3374.98779	7.71681
3373.05923	7.68767
3371.13066	7.64904
3369.20210	7.64864
3367.27354	7.70211
3365.34497	7.78673
3363.41641	7.84520
3361.48784	7.86391
3359.55928	7.85521
3357.63071	7.83335
3355.70215	7.84369
3353.77358	7.90740
3351.84502	8.02033
3349.91646	8.07686
3347.98789	8.02582
3346.05933	7.94946
3344.13076	7.90240
3342.20220	7.92832
3340.27363	7.99282
3338.34507	8.03003
3336.41650	8.05926
3334.48794	8.11234
3332.55937	8.16256
3330.63081	8.20819
3328.70225	8.20230
3326.77368	8.12402
3324.84512	8.08214
3322.91655	8.09414
3320.98799	8.10462
3319.05942	8.12130
3317.13086	8.15662
3315.20229	8.15946
3313.27373	8.12475
3311.34517	8.07844
3309.41660	8.06427
3307.48804	8.11344
3305.55947	8.17005
3303.63091	8.18639
3301.70234	8.18110
3299.77378	8.15102
3297.84521	8.06039
3295.91665	8.01584
3293.98809	8.08544
3292.05952	8.17327
3290.13096	8.18796
3288.20239	8.13020
3286.27383	8.08026
3284.34526	8.10579
3282.41670	8.16981
3280.48813	8.19400
3278.55957	8.21871
3276.63101	8.22119
3274.70244	8.17361
3272.77388	8.19261
3270.84531	8.23214
3268.91675	8.19199
3266.98818	8.15370
3265.05962	8.13265
3263.13105	8.10990
3261.20249	8.13724
3259.27393	8.15335
3257.34536	8.16022
3255.41680	8.20745
3253.48823	8.18507
3251.55967	8.11008
3249.63110	8.11796
3247.70254	8.17101
3245.77397	8.17489
3243.84541	8.18085
3241.91685	8.17978
3239.98828	8.11485
3238.05972	8.07237
3236.13115	8.08754
3234.20259	8.07233
3232.27402	8.02722
3230.34546	8.03474
3228.41689	8.06505
3226.48833	8.04802
3224.55977	8.03034
3222.63120	8.02965
3220.70264	7.96439
3218.77407	7.90359
3216.84551	7.94809
3214.91694	7.99078
3212.98838	7.93728
3211.05981	7.88871
3209.13125	7.88616
3207.20269	7.84915
3205.27412	7.78845
3203.34556	7.76832
3201.41699	7.77327
3199.48843	7.75050
3197.55986	7.69942
3195.63130	7.65272
3193.70273	7.60295
3191.77417	7.54197
3189.84561	7.49766
3187.91704	7.48283
3185.98848	7.46962
3184.05991	7.42316
3182.13135	7.32406
3180.20278	7.18508
3178.27422	7.07506
3176.34565	7.04101
3174.41709	7.03835
3172.48853	7.01904
3170.55996	6.97551
3168.63140	6.91985
3166.70283	6.88005
3164.77427	6.83498
3162.84570	6.74815
3160.91714	6.64501
3158.98857	6.56260
3157.06001	6.49923
3155.13145	6.44737
3153.20288	6.40152
3151.27432	6.34163
3149.34575	6.26326
3147.41719	6.17935
3145.48862	6.09342
3143.56006	6.01545
3141.63149	5.95697
3139.70293	5.89939
3137.77437	5.82997
3135.84580	5.76121
3133.91724	5.69493
3131.98867	5.62080
3130.06011	5.54157
3128.13154	5.47172
3126.20298	5.41041
3124.27441	5.34467
3122.34585	5.26860
3120.41729	5.18895
3118.48872	5.11778
3116.56016	5.05557
3114.63159	4.99107
3112.70303	4.92073
3110.77446	4.84940
3108.84590	4.77903
3106.91733	4.71187
3104.98877	4.64665
3103.06021	4.58067
3101.13164	4.51555
3099.20308	4.45018
3097.27451	4.38341
3095.34595	4.31796
3093.41738	4.25420
3091.48882	4.19080
3089.56025	4.12762
3087.63169	4.06491
3085.70312	4.00204
3083.77456	3.93808
3081.84600	3.87494
3079.91743	3.81451
3077.98887	3.75617
3076.06030	3.69859
3074.13174	3.64103
3072.20317	3.58335
3070.27461	3.52582
3068.34604	3.46871
3066.41748	3.41137
3064.48892	3.35551
3062.56035	3.30131
3060.63179	3.24619
3058.70322	3.19167
3056.77466	3.13875
3054.84609	3.08649
3052.91753	3.03505
3050.98896	2.98410
3049.06040	2.93381
3047.13184	2.88461
3045.20327	2.83607
3043.27471	2.78795
3041.34614	2.74017
3039.41758	2.69237
3037.48901	2.64527
3035.56045	2.59984
3033.63188	2.55599
3031.70332	2.51286
3029.77476	2.46950
3027.84619	2.42638
3025.91763	2.38419
3023.98906	2.34243
3022.06050	2.30136
3020.13193	2.26147
3018.20337	2.22194
3016.27480	2.18216
3014.34624	2.14300
3012.41768	2.10515
3010.48911	2.06833
3008.56055	2.03229
3006.63198	1.99663
3004.70342	1.96070
3002.77485	1.92488
3000.84629	1.89053
2998.91772	1.85783
2996.98916	1.82579
2995.06060	1.79399
2993.13203	1.76232
2991.20347	1.73103
2989.27490	1.70062
2987.34634	1.67098
2985.41777	1.64192
2983.48921	1.61323
2981.56064	1.58484
2979.63208	1.55702
2977.70352	1.52982
2975.77495	1.50301
2973.84639	1.47638
2971.91782	1.45025
2969.98926	1.42505
2968.06069	1.40055
2966.13213	1.37620
2964.20356	1.35170
2962.27500	1.32739
2960.34644	1.30376
2958.41787	1.28047
2956.48931	1.25752
2954.56074	1.23527
2952.63218	1.21306
2950.70361	1.19072
2948.77505	1.16904
2946.84648	1.14806
2944.91792	1.12727
2942.98936	1.10660
2941.06079	1.08667
2939.13223	1.06751
2937.20366	1.04827
2935.27510	1.02898
2933.34653	1.01016
2931.41797	0.99180
2929.48940	0.97383
2927.56084	0.95647
2925.63228	0.93961
2923.70371	0.92276
2921.77515	0.90602
2919.84658	0.88980
2917.91802	0.87355
2915.98945	0.85727
2914.06089	0.84167
2912.13232	0.82651
2910.20376	0.81165
2908.27520	0.79740
2906.34663	0.78368
2904.41807	0.77018
2902.48950	0.75672
2900.56094	0.74345
2898.63237	0.73070
2896.70381	0.71847
2894.77524	0.70643
2892.84668	0.69415
2890.91812	0.68200
2888.98955	0.67080
2887.06099	0.66015
2885.13242	0.64946
2883.20386	0.63894
2881.27529	0.62875
2879.34673	0.61869
2877.41816	0.60867
2875.48960	0.59891
2873.56104	0.58931
2871.63247	0.57935
2869.70391	0.56885
2867.77534	0.55822
2865.84678	0.54798
2863.91821	0.53835
2861.98965	0.52913
2860.06108	0.51995
2858.13252	0.51090
2856.20396	0.50208
2854.27539	0.49335
2852.34683	0.48480
2850.41826	0.47667
2848.48970	0.46888
2846.56113	0.46124
2844.63257	0.45367
2842.70400	0.44651
2840.77544	0.44010
2838.84687	0.43421
2836.91831	0.42844
2834.98975	0.42257
2833.06118	0.41667
2831.13262	0.41093
2829.20405	0.40523
2827.27549	0.39939
2825.34692	0.39348
2823.41836	0.38757
2821.48979	0.38172
2819.56123	0.37609
2817.63267	0.37069
2815.70410	0.36543
2813.77554	0.36022
2811.84697	0.35497
2809.91841	0.34960
2807.98984	0.34422
2806.06128	0.33922
2804.13271	0.33456
2802.20415	0.32995
2800.27559	0.32541
2798.34702	0.32092
2796.41846	0.31637
2794.48989	0.31188
2792.56133	0.30747
2790.63276	0.30311
2788.70420	0.29891
2786.77563	0.29495
2784.84707	0.29100
2782.91851	0.28697
2780.98994	0.28301
2779.06138	0.27911
2777.13281	0.27545
2775.20425	0.27208
2773.27568	0.26857
2771.34712	0.26500
2769.41855	0.26177
2767.48999	0.25863
2765.56143	0.25528
2763.63286	0.25194
2761.70430	0.24887
2759.77573	0.24590
2757.84717	0.24290
2755.91860	0.23991
2753.99004	0.23699
2752.06147	0.23421
2750.13291	0.23148
2748.20435	0.22875
2746.27578	0.22598
2744.34722	0.22323
2742.41865	0.22072
2740.49009	0.21853
2738.56152	0.21637
2736.63296	0.21398
2734.70439	0.21147
2732.77583	0.20912
2730.84727	0.20701
2728.91870	0.20484
2726.99014	0.20259
2725.06157	0.20053
2723.13301	0.19863
2721.20444	0.19671
2719.27588	0.19481
2717.34731	0.19300
2715.41875	0.19119
2713.49019	0.18941
2711.56162	0.18774
2709.63306	0.18613
2707.70449	0.18452
2705.77593	0.18294
2703.84736	0.18146
2701.91880	0.18003
2699.99023	0.17863
2698.06167	0.17728
2696.13311	0.17591
2694.20454	0.17448
2692.27598	0.17305
2690.34741	0.17164
2688.41885	0.17031
2686.49028	0.16915
2684.56172	0.16807
2682.63315	0.16696
2680.70459	0.16590
2678.77603	0.16491
2676.84746	0.16381
2674.91890	0.16268
2672.99033	0.16176
2671.06177	0.16085
2669.13320	0.15974
2667.20464	0.15865
2665.27607	0.15781
2663.34751	0.15716
2661.41895	0.15649
2659.49038	0.15567
2657.56182	0.15490
2655.63325	0.15428
2653.70469	0.15373
2651.77612	0.15316
2649.84756	0.15251
2647.91899	0.15184
2645.99043	0.15112
2644.06187	0.15034
2642.13330	0.14973
2640.20474	0.14938
2638.27617	0.14897
2636.34761	0.14847
2634.41904	0.14821
2632.49048	0.14798
2630.56191	0.14753
2628.63335	0.14711
2626.70479	0.14678
2624.77622	0.14643
2622.84766	0.14610
2620.91909	0.14595
2618.99053	0.14589
2617.06196	0.14580
2615.13340	0.14562
2613.20483	0.14537
2611.27627	0.14514
2609.34771	0.14504
2607.41914	0.14508
2605.49058	0.14510
2603.56201	0.14506
2601.63345	0.14506
2599.70488	0.14517
2597.77632	0.14527
2595.84775	0.14522
2593.91919	0.14518
2591.99062	0.14532
2590.06206	0.14553
2588.13350	0.14576
2586.20493	0.14601
2584.27637	0.14626
2582.34780	0.14655
2580.41924	0.14689
2578.49067	0.14710
2576.56211	0.14728
2574.63354	0.14768
2572.70498	0.14811
2570.77642	0.14832
2568.84785	0.14850
2566.91929	0.14893
2564.99072	0.14955
2563.06216	0.15013
2561.13359	0.15053
2559.20503	0.15092
2557.27646	0.15145
2555.34790	0.15199
2553.41934	0.15245
2551.49077	0.15293
2549.56221	0.15344
2547.63364	0.15393
2545.70508	0.15441
2543.77651	0.15494
2541.84795	0.15552
2539.91938	0.15621
2537.99082	0.15700
2536.06226	0.15778
2534.13369	0.15847
2532.20513	0.15911
2530.27656	0.15977
2528.34800	0.16041
2526.41943	0.16100
2524.49087	0.16161
2522.56230	0.16234
2520.63374	0.16313
2518.70518	0.16392
2516.77661	0.16478
2514.84805	0.16570
2512.91948	0.16656
2510.99092	0.16729
2509.06235	0.16796
2507.13379	0.16869
2505.20522	0.16947
2503.27666	0.17023
2501.34810	0.17108
2499.41953	0.17212
2497.49097	0.17312
2495.56240	0.17399
2493.63384	0.17478
2491.70527	0.17555
2489.77671	0.17634
2487.84814	0.17715
2485.91958	0.17795
2483.99102	0.17874
2482.06245	0.17961
2480.13389	0.18059
2478.20532	0.18159
2476.27676	0.18254
2474.34819	0.18346
2472.41963	0.18432
2470.49106	0.18512
2468.56250	0.18602
2466.63394	0.18701
2464.70537	0.18786
2462.77681	0.18861
2460.84824	0.18951
2458.91968	0.19052
2456.99111	0.19147
2455.06255	0.19241
2453.13398	0.19337
2451.20542	0.19432
2449.27686	0.19543
2447.34829	0.19666
2445.41973	0.19773
2443.49116	0.19876
2441.56260	0.19981
2439.63403	0.20072
2437.70547	0.20158
2435.77690	0.20249
2433.84834	0.20346
2431.91978	0.20452
2429.99121	0.20570
2428.06265	0.20685
2426.13408	0.20789
2424.20552	0.20894
2422.27695	0.21011
2420.34839	0.21133
2418.41982	0.21246
2416.49126	0.21349
2414.56270	0.21458
2412.63413	0.21580
2410.70557	0.21696
2408.77700	0.21794
2406.84844	0.21893
2404.91987	0.22002
2402.99131	0.22114
2401.06274	0.22233
2399.13418	0.22365
2397.20562	0.22508
2395.27705	0.22647
2393.34849	0.22770
2391.41992	0.22894
2389.49136	0.23081
2387.56279	0.23431
2385.63423	0.24047
2383.70566	0.25002
2381.77710	0.26299
2379.84854	0.27884
2377.91997	0.29749
2375.99141	0.31974
2374.06284	0.34608
2372.13428	0.37580
2370.20571	0.40805
2368.27715	0.44135
2366.34858	0.47209
2364.42002	0.49688
2362.49146	0.51559
2360.56289	0.52758
2358.63433	0.52864
2356.70576	0.51567
2354.77720	0.49076
2352.84863	0.45783
2350.92007	0.42380
2348.99150	0.40333
2347.06294	0.40329
2345.13437	0.42390
2343.20581	0.45438
2341.27725	0.47160
2339.34868	0.47269
2337.42012	0.46879
2335.49155	0.46475
2333.56299	0.46028
2331.63442	0.45597
2329.70586	0.45229
2327.77729	0.44770
2325.84873	0.43953
2323.92017	0.42792
2321.99160	0.41535
2320.06304	0.40345
2318.13447	0.39226
2316.20591	0.38216
2314.27734	0.37453
2312.34878	0.36982
2310.42021	0.36603
2308.49165	0.36066
2306.56309	0.35335
2304.63452	0.34626
2302.70596	0.34183
2300.77739	0.33971
2298.84883	0.33794
2296.92026	0.33602
2294.99170	0.33404
2293.06313	0.33179
2291.13457	0.32949
2289.20601	0.32744
2287.27744	0.32558
2285.34888	0.32396
2283.42031	0.32337
2281.49175	0.32461
2279.56318	0.32733
2277.63462	0.33043
2275.70605	0.33337
2273.77749	0.33598
2271.84893	0.33820
2269.92036	0.34014
2267.99180	0.34202
2266.06323	0.34389
2264.13467	0.34561
2262.20610	0.34716
2260.27754	0.34848
2258.34897	0.34965
2256.42041	0.35095
2254.49185	0.35250
2252.56328	0.35410
2250.63472	0.35574
2248.70615	0.35745
2246.77759	0.35908
2244.84902	0.36068
2242.92046	0.36238
2240.99189	0.36425
2239.06333	0.36615
2237.13477	0.36806
2235.20620	0.37011
2233.27764	0.37235
2231.34907	0.37454
2229.42051	0.37665
2227.49194	0.37885
2225.56338	0.38109
2223.63481	0.38326
2221.70625	0.38533
2219.77769	0.38735
2217.84912	0.38939
2215.92056	0.39153
2213.99199	0.39382
2212.06343	0.39611
2210.13486	0.39830
2208.20630	0.40034
2206.27773	0.40225
2204.34917	0.40420
2202.42061	0.40627
2200.49204	0.40830
2198.56348	0.41025
2196.63491	0.41228
2194.70635	0.41445
2192.77778	0.41649
2190.84922	0.41829
2188.92065	0.41999
2186.99209	0.42179
2185.06353	0.42369
2183.13496	0.42551
2181.20640	0.42712
2179.27783	0.42863
2177.34927	0.43019
2175.42070	0.43174
2173.49214	0.43320
2171.56357	0.43461
2169.63501	0.43609
2167.70645	0.43762
2165.77788	0.43903
2163.84932	0.44026
2161.92075	0.44139
2159.99219	0.44253
2158.06362	0.44355
2156.13506	0.44447
2154.20649	0.44533
2152.27793	0.44609
2150.34937	0.44683
2148.42080	0.44762
2146.49224	0.44833
2144.56367	0.44895
2142.63511	0.44950
2140.70654	0.44989
2138.77798	0.45015
2136.84941	0.45029
2134.92085	0.45036
2132.99229	0.45039
2131.06372	0.45039
2129.13516	0.45033
2127.20659	0.45021
2125.27803	0.45001
2123.34946	0.44975
2121.42090	0.44945
2119.49233	0.44905
2117.56377	0.44840
2115.63521	0.44754
2113.70664	0.44673
2111.77808	0.44599
2109.84951	0.44524
2107.92095	0.44443
2105.99238	0.44350
2104.06382	0.44248
2102.13525	0.44131
2100.20669	0.44004
2098.27812	0.43875
2096.34956	0.43734
2094.42100	0.43584
2092.49243	0.43440
2090.56387	0.43293
2088.63530	0.43122
2086.70674	0.42943
2084.77817	0.42776
2082.84961	0.42605
2080.92104	0.42416
2078.99248	0.42228
2077.06392	0.42037
2075.13535	0.41819
2073.20679	0.41588
2071.27822	0.41372
2069.34966	0.41170
2067.42109	0.40964
2065.49253	0.40752
2063.56396	0.40525
2061.63540	0.40284
2059.70684	0.40038
2057.77827	0.39792
2055.84971	0.39553
2053.92114	0.39321
2051.99258	0.39086
2050.06401	0.38836
2048.13545	0.38581
2046.20688	0.38324
2044.27832	0.38069
2042.34976	0.37814
2040.42119	0.37546
2038.49263	0.37265
2036.56406	0.36993
2034.63550	0.36728
2032.70693	0.36453
2030.77837	0.36192
2028.84980	0.35941
2026.92124	0.35675
2024.99268	0.35384
2023.06411	0.35090
2021.13555	0.34818
2019.20698	0.34566
2017.27842	0.34309
2015.34985	0.34023
2013.42129	0.33729
2011.49272	0.33448
2009.56416	0.33183
2007.63560	0.32927
2005.70703	0.32675
2003.77847	0.32427
2001.84990	0.32177
1999.92134	0.31922
1997.99277	0.31665
1996.06421	0.31407
1994.13564	0.31163
1992.20708	0.30928
1990.27852	0.30675
1988.34995	0.30411
1986.42139	0.30156
1984.49282	0.29915
1982.56426	0.29679
1980.63569	0.29447
1978.70713	0.29228
1976.77856	0.29017
1974.85000	0.28803
1972.92144	0.28578
1970.99287	0.28348
1969.06431	0.28140
1967.13574	0.27955
1965.20718	0.27755
1963.27861	0.27542
1961.35005	0.27339
1959.42148	0.27150
1957.49292	0.26976
1955.56436	0.26805
1953.63579	0.26621
1951.70723	0.26433
1949.77866	0.26258
1947.85010	0.26107
1945.92153	0.25980
1943.99297	0.25869
1942.06440	0.25742
1940.13584	0.25569
1938.20728	0.25388
1936.27871	0.25236
1934.35015	0.25100
1932.42158	0.24967
1930.49302	0.24843
1928.56445	0.24731
1926.63589	0.24626
1924.70732	0.24544
1922.77876	0.24482
1920.85020	0.24398
1918.92163	0.24305
1916.99307	0.24207
1915.06450	0.24089
1913.13594	0.23991
1911.20737	0.23933
1909.27881	0.23877
1907.35024	0.23794
1905.42168	0.23702
1903.49312	0.23629
1901.56455	0.23565
1899.63599	0.23497
1897.70742	0.23454
1895.77886	0.23442
1893.85029	0.23428
1891.92173	0.23402
1889.99316	0.23392
1888.06460	0.23369
1886.13604	0.23321
1884.20747	0.23280
1882.27891	0.23247
1880.35034	0.23218
1878.42178	0.23197
1876.49321	0.23193
1874.56465	0.23200
1872.63608	0.23225
1870.70752	0.23293
1868.77896	0.23399
1866.85039	0.23422
1864.92183	0.23351
1862.99326	0.23310
1861.06470	0.23325
1859.13613	0.23364
1857.20757	0.23394
1855.27900	0.23425
1853.35044	0.23459
1851.42187	0.23508
1849.49331	0.23579
1847.56475	0.23679
1845.63618	0.23807
1843.70762	0.23932
1841.77905	0.23977
1839.85049	0.23979
1837.92192	0.24036
1835.99336	0.24118
1834.06479	0.24210
1832.13623	0.24341
1830.20767	0.24536
1828.27910	0.24695
1826.35054	0.24767
1824.42197	0.24868
1822.49341	0.24975
1820.56484	0.25066
1818.63628	0.25182
1816.70771	0.25348
1814.77915	0.25525
1812.85059	0.25722
1810.92202	0.25951
1808.99346	0.26157
1807.06489	0.26327
1805.13633	0.26506
1803.20776	0.26744
1801.27920	0.27032
1799.35063	0.27319
1797.42207	0.27551
1795.49351	0.27792
1793.56494	0.28105
1791.63638	0.28484
1789.70781	0.28768
1787.77925	0.28955
1785.85068	0.29243
1783.92212	0.29627
1781.99355	0.30047
1780.06499	0.30475
1778.13643	0.30889
1776.20786	0.31289
1774.27930	0.31765
1772.35073	0.32413
1770.42217	0.33036
1768.49360	0.33497
1766.56504	0.33958
1764.63647	0.34468
1762.70791	0.35058
1760.77935	0.35806
1758.85078	0.36503
1756.92222	0.37215
1754.99365	0.37991
1753.06509	0.38703
1751.13652	0.39588
1749.20796	0.40707
1747.27939	0.41755
1745.35083	0.42627
1743.42227	0.43562
1741.49370	0.44616
1739.56514	0.45859
1737.63657	0.47095
1735.70801	0.48195
1733.77944	0.49878
1731.85088	0.51838
1729.92231	0.53319
1727.99375	0.54802
1726.06519	0.56416
1724.13662	0.58226
1722.20806	0.60219
1720.27949	0.62099
1718.35093	0.64347
1716.42236	0.67615
1714.49380	0.70579
1712.56523	0.72900
1710.63667	0.75180
1708.70811	0.77693
1706.77954	0.80604
1704.85098	0.84108
1702.92241	0.87217
1700.99385	0.90268
1699.06528	0.94805
1697.13672	0.98965
1695.20815	1.03180
1693.27959	1.07212
1691.35103	1.10470
1689.42246	1.14286
1687.49390	1.18332
1685.56533	1.22242
1683.63677	1.28209
1681.70820	1.34242
1679.77964	1.38045
1677.85107	1.41745
1675.92251	1.46098
1673.99395	1.51508
1672.06538	1.56280
1670.13682	1.60941
1668.20825	1.66936
1666.27969	1.71679
1664.35112	1.75632
1662.42256	1.80649
1660.49399	1.86306
1658.56543	1.90728
1656.63687	1.94395
1654.70830	1.97842
1652.77974	2.03306
1650.85117	2.08638
1648.92261	2.10803
1646.99404	2.13614
1645.06548	2.16746
1643.13691	2.18751
1641.20835	2.20012
1639.27979	2.21103
1637.35122	2.21713
1635.42266	2.21727
1633.49409	2.21127
1631.56553	2.19958
1629.63696	2.18439
1627.70840	2.15866
1625.77983	2.12868
1623.85127	2.09156
1621.92271	2.04514
1619.99414	2.00266
1618.06558	1.96092
1616.13701	1.90084
1614.20845	1.83781
1612.27988	1.78939
1610.35132	1.73967
1608.42275	1.68560
1606.49419	1.63199
1604.56562	1.58253
1602.63706	1.53440
1600.70850	1.48704
1598.77993	1.44338
1596.85137	1.40243
1594.92280	1.36287
1592.99424	1.32464
1591.06567	1.28944
1589.13711	1.25636
1587.20854	1.22536
1585.27998	1.19665
1583.35142	1.16957
1581.42285	1.14434
1579.49429	1.12282
1577.56572	1.10394
1575.63716	1.08023
1573.70859	1.05811
1571.78003	1.04355
1569.85146	1.02860
1567.92290	1.01146
1565.99434	0.99782
1564.06577	0.98680
1562.13721	0.97813
1560.20864	0.97209
1558.28008	0.96270
1556.35151	0.95233
1554.42295	0.94518
1552.49438	0.93827
1550.56582	0.93113
1548.63726	0.92318
1546.70869	0.91552
1544.78013	0.90808
1542.85156	0.90009
1540.92300	0.88913
1538.99443	0.86974
1537.06587	0.85453
1535.13730	0.84534
1533.20874	0.83423
1531.28018	0.82151
1529.35161	0.81189
1527.42305	0.80337
1525.49448	0.79481
1523.56592	0.78738
1521.63735	0.77985
1519.70879	0.77123
1517.78022	0.76375
1515.85166	0.75585
1513.92310	0.74781
1511.99453	0.74126
1510.06597	0.73605
1508.13740	0.73175
1506.20884	0.72342
1504.28027	0.71371
1502.35171	0.70787
1500.42314	0.70354
1498.49458	0.69964
1496.56602	0.69484
1494.63745	0.68914
1492.70889	0.68474
1490.78032	0.68185
1488.85176	0.67856
1486.92319	0.67391
1484.99463	0.66941
1483.06606	0.66598
1481.13750	0.66321
1479.20894	0.66080
1477.28037	0.65921
1475.35181	0.65844
1473.42324	0.65778
1471.49468	0.65547
1469.56611	0.65201
1467.63755	0.64932
1465.70898	0.64755
1463.78042	0.64581
1461.85186	0.64423
1459.92329	0.64388
1457.99473	0.64449
1456.06616	0.64322
1454.13760	0.63959
1452.20903	0.63652
1450.28047	0.63417
1448.35190	0.63227
1446.42334	0.63027
1444.49478	0.62822
1442.56621	0.62636
1440.63765	0.62469
1438.70908	0.62340
1436.78052	0.62208
1434.85195	0.61989
1432.92339	0.61758
1430.99482	0.61587
1429.06626	0.61444
1427.13770	0.61313
1425.20913	0.61225
1423.28057	0.61174
1421.35200	0.61126
1419.42344	0.61077
1417.49487	0.60962
1415.56631	0.60758
1413.63774	0.60577
1411.70918	0.60470
1409.78062	0.60428
1407.85205	0.60412
1405.92349	0.60407
1403.99492	0.60378
1402.06636	0.60294
1400.13779	0.60205
1398.20923	0.60119
1396.28066	0.59988
1394.35210	0.59763
1392.42354	0.59473
1390.49497	0.59219
1388.56641	0.59013
1386.63784	0.58781
1384.70928	0.58506
1382.78071	0.58256
1380.85215	0.58053
1378.92358	0.57889
1376.99502	0.57770
1375.06646	0.57693
1373.13789	0.57595
1371.20933	0.57472
1369.28076	0.57377
1367.35220	0.57283
1365.42363	0.57182
1363.49507	0.57103
1361.56650	0.57000
1359.63794	0.56846
1357.70937	0.56701
1355.78081	0.56589
1353.85225	0.56499
1351.92368	0.56411
1349.99512	0.56316
1348.06655	0.56220
1346.13799	0.56126
1344.20942	0.56035
1342.28086	0.55960
1340.35229	0.55918
1338.42373	0.55869
1336.49517	0.55783
1334.56660	0.55685
1332.63804	0.55590
1330.70947	0.55508
1328.78091	0.55457
1326.85234	0.55441
1324.92378	0.55439
1322.99521	0.55428
1321.06665	0.55411
1319.13809	0.55388
1317.20952	0.55342
1315.28096	0.55282
1313.35239	0.55218
1311.42383	0.55139
1309.49526	0.55049
1307.56670	0.54965
1305.63813	0.54886
1303.70957	0.54816
1301.78101	0.54761
1299.85244	0.54701
1297.92388	0.54621
1295.99531	0.54533
1294.06675	0.54453
1292.13818	0.54378
1290.20962	0.54304
1288.28105	0.54232
1286.35249	0.54162
1284.42393	0.54097
1282.49536	0.54037
1280.56680	0.53959
1278.63823	0.53857
1276.70967	0.53762
1274.78110	0.53694
1272.85254	0.53642
1270.92397	0.53603
1268.99541	0.53565
1267.06685	0.53519
1265.13828	0.53482
1263.20972	0.53456
1261.28115	0.53405
1259.35259	0.53325
1257.42402	0.53256
1255.49546	0.53221
1253.56689	0.53205
1251.63833	0.53189
1249.70977	0.53174
1247.78120	0.53154
1245.85264	0.53118
1243.92407	0.53065
1241.99551	0.53009
1240.06694	0.52948
1238.13838	0.52882
1236.20981	0.52796
1234.28125	0.52671
1232.35269	0.52536
1230.42412	0.52429
1228.49556	0.52336
1226.56699	0.52221
1224.63843	0.52095
1222.70986	0.51986
1220.78130	0.51889
1218.85273	0.51794
1216.92417	0.51710
1214.99561	0.51637
1213.06704	0.51567
1211.13848	0.51503
1209.20991	0.51445
1207.28135	0.51389
1205.35278	0.51333
1203.42422	0.51276
1201.49565	0.51216
1199.56709	0.51151
1197.63853	0.51088
1195.70996	0.51028
1193.78140	0.50969
1191.85283	0.50910
1189.92427	0.50858
1187.99570	0.50816
1186.06714	0.50792
1184.13857	0.50784
1182.21001	0.50792
1180.28145	0.50830
1178.35288	0.50892
1176.42432	0.50965
1174.49575	0.51039
1172.56719	0.51106
1170.63862	0.51156
1168.71006	0.51184
1166.78149	0.51223
1164.85293	0.51292
1162.92437	0.51337
1160.99580	0.51332
1159.06724	0.51312
1157.13867	0.51286
1155.21011	0.51233
1153.28154	0.51141
1151.35298	0.50998
1149.42441	0.50811
1147.49585	0.50607
1145.56729	0.50399
1143.63872	0.50173
1141.71016	0.49931
1139.78159	0.49715
1137.85303	0.49543
1135.92446	0.49393
1133.99590	0.49258
1132.06733	0.49152
1130.13877	0.49064
1128.21021	0.48973
1126.28164	0.48885
1124.35308	0.48807
1122.42451	0.48750
1120.49595	0.48733
1118.56738	0.48767
1116.63882	0.48828
1114.71025	0.48889
1112.78169	0.48956
1110.85312	0.49035
1108.92456	0.49126
1106.99600	0.49213
1105.06743	0.49290
1103.13887	0.49393
1101.21030	0.49550
1099.28174	0.49739
1097.35317	0.49939
1095.42461	0.50172
1093.49604	0.50485
1091.56748	0.50921
1089.63892	0.51491
1087.71035	0.52168
1085.78179	0.52920
1083.85322	0.53707
1081.92466	0.54462
1079.99609	0.55076
1078.06753	0.55421
1076.13896	0.55447
1074.21040	0.55183
1072.28184	0.54687
1070.35327	0.54056
1068.42471	0.53392
1066.49614	0.52730
1064.56758	0.52095
1062.63901	0.51535
1060.71045	0.51058
1058.78188	0.50623
1056.85332	0.50217
1054.92476	0.49878
1052.99619	0.49612
1051.06763	0.49395
1049.13906	0.49225
1047.21050	0.49104
1045.28193	0.49024
1043.35337	0.48971
1041.42480	0.48947
1039.49624	0.48950
1037.56768	0.48950
1035.63911	0.48928
1033.71055	0.48903
1031.78198	0.48876
1029.85342	0.48819
1027.92485	0.48718
1025.99629	0.48617
1024.06772	0.48568
1022.13916	0.48547
1020.21060	0.48524
1018.28203	0.48515
1016.35347	0.48531
1014.42490	0.48563
1012.49634	0.48600
1010.56777	0.48649
1008.63921	0.48718
1006.71064	0.48804
1004.78208	0.48922
1002.85352	0.49093
1000.92495	0.49343
998.99639	0.49665
997.06782	0.50032
995.13926	0.50434
993.21069	0.50825
991.28213	0.51136
989.35356	0.51344
987.42500	0.51445
985.49644	0.51465
983.56787	0.51467
981.63931	0.51516
979.71074	0.51634
977.78218	0.51799
975.85361	0.52012
973.92505	0.52275
971.99648	0.52565
970.06792	0.52877
968.13936	0.53233
966.21079	0.53644
964.28223	0.54093
962.35366	0.54548
960.42510	0.55027
958.49653	0.55556
956.56797	0.56101
954.63940	0.56657
952.71084	0.57254
950.78228	0.57883
948.85371	0.58526
946.92515	0.59166
944.99658	0.59777
943.06802	0.60357
941.13945	0.60931
939.21089	0.61506
937.28232	0.62073
935.35376	0.62651
933.42520	0.63234
931.49663	0.63782
929.56807	0.64292
927.63950	0.64840
925.71094	0.65465
923.78237	0.66057
921.85381	0.66605
919.92524	0.67263
917.99668	0.68046
916.06812	0.68812
914.13955	0.69489
912.21099	0.70170
910.28242	0.70949
908.35386	0.71836
906.42529	0.72815
904.49673	0.73749
902.56816	0.74551
900.63960	0.75353
898.71104	0.76237
896.78247	0.77144
894.85391	0.78074
892.92534	0.79068
890.99678	0.80039
889.06821	0.80921
887.13965	0.81892
885.21108	0.83040
883.28252	0.84229
881.35396	0.85444
879.42539	0.86715
877.49683	0.87939
875.56826	0.89097
873.63970	0.90195
871.71113	0.91199
869.78257	0.92165
867.85400	0.93210
865.92544	0.94347
863.99687	0.95496
862.06831	0.96606
860.13975	0.97678
858.21118	0.98826
856.28262	1.00069
854.35405	1.01278
852.42549	1.02392
850.49692	1.03456
848.56836	1.04531
846.63979	1.05586
844.71123	1.06711
842.78267	1.08037
840.85410	1.09432
838.92554	1.10653
836.99697	1.11703
835.06841	1.12629
833.13984	1.13415
831.21128	1.14405
829.28271	1.15771
827.35415	1.17146
825.42559	1.18118
823.49702	1.18636
821.56846	1.19402
819.63989	1.20929
817.71133	1.22503
815.78276	1.23941
813.85420	1.25582
811.92563	1.26728
809.99707	1.27144
808.06851	1.27191
806.13994	1.27709
804.21138	1.29296
802.28281	1.30254
800.35425	1.29792
798.42568	1.30149
796.49712	1.31214
794.56855	1.30831
792.63999	1.30920
790.71143	1.33977
788.78286	1.36949
786.85430	1.35861
784.92573	1.33206
782.99717	1.30225
781.06860	1.28464
779.14004	1.31970
777.21147	1.34828
775.28291	1.31084
773.35435	1.30092
771.42578	1.34064
769.49722	1.38447
767.56865	1.43137
765.64009	1.42151
763.71152	1.34256
761.78296	1.30548
759.85439	1.28808
757.92583	1.22025
755.99727	1.17888
754.06870	1.23590
752.14014	1.34398
750.21157	1.39492
748.28301	1.46086
746.35444	1.96956
744.42588	4.46656
742.49731	1.39761
740.56875	0.99523
738.64019	0.91112
736.71162	0.96080
734.78306	0.98596
732.85449	0.94558
730.92593	0.92841
728.99736	1.17705
727.06880	1.32355
725.14023	0.66831
723.21167	0.41133
721.28311	0.40226
719.35454	0.76809
717.42598	1.04679
715.49741	0.48260
713.56885	0.30547
711.64028	0.10669
709.71172	-0.07904
707.78315	0.02596
705.85459	0.17390
703.92603	0.01826
701.99746	-0.32155
700.06890	-0.24969
698.14033	0.33286
696.21177	0.81337
694.28320	0.24924
692.35464	0.05250
690.42607	0.07298
688.49751	0.15004
686.56895	0.25519
684.64038	0.48283
682.71182	0.97178
680.78325	0.77720
678.85469	0.33045
676.92612	0.17319
674.99756	0.17332
673.06899	0.21535
671.14043	0.14474
669.21187	-0.05505
667.28330	-0.11614
665.35474	-0.01984
663.42617	0.07998
661.49761	0.19308
659.56904	0.30226
657.64048	0.31262
655.71191	0.30672
653.78335	0.34712
651.85479	0.30655
649.92622	0.16194
647.99766	0.10632
646.06909	0.18426
644.14053	0.23569
642.21196	0.16914
640.28340	0.18521
638.35483	0.29181
636.42627	0.30381
634.49771	0.21973
632.56914	0.12365
630.64058	0.04439
628.71201	0.02588
626.78345	0.02160
624.85488	0.01044
622.92632	0.05151
620.99775	0.12820
619.06919	0.13437
617.14062	0.09682
615.21206	0.07439
613.28350	0.07708
611.35493	0.10397
609.42637	0.16078
607.49780	0.30118
605.56924	0.68717
603.64067	3.62184
601.71211	0.69206
599.78354	0.19839
597.85498	0.07545
595.92642	0.08130
593.99785	0.16149
592.06929	0.23039
590.14072	0.21079
588.21216	0.17387
586.28359	0.19987
584.35503	0.27317
582.42646	0.28754
580.49790	0.26171
578.56934	0.19325
576.64077	0.15682
574.71221	0.19237
572.78364	0.21309
570.85508	0.16384
568.92651	0.12962
566.99795	0.19423
565.06938	0.23671
563.14082	0.15600
561.21226	0.07093
559.28369	0.05359
557.35513	0.12984
555.42656	0.35966
553.49800	0.93376
551.56943	0.61480
549.64087	0.36165
547.71230	0.31083
545.78374	0.34251
543.85518	0.30529
541.92661	0.22493
539.99805	0.20467
538.06948	0.16210
536.14092	0.13343
534.21235	0.24219
532.28379	0.37274
530.35522	0.36657
528.42666	0.27361
526.49810	0.23571
524.56953	0.22434
522.64097	0.22697
520.71240	0.24310
518.78384	0.25447
516.85527	0.22557
514.92671	0.19746
512.99814	0.22037
511.06958	0.21283
509.14102	0.14089
507.21245	0.11254
505.28389	0.14373
503.35532	0.16809
501.42676	0.17814
499.49819	0.22558
