3997.91411	0.07714
3995.98555	0.07731
3994.05698	0.07756
3992.12842	0.07821
3990.19985	0.07897
3988.27129	0.07910
3986.34272	0.07895
3984.41416	0.07920
3982.48560	0.07973
3980.55703	0.08016
3978.62847	0.08040
3976.69990	0.08055
3974.77134	0.08075
3972.84277	0.08113
3970.91421	0.08158
3968.98564	0.08191
3967.05708	0.08207
3965.12852	0.08201
3963.19995	0.08209
3961.27139	0.08233
3959.34282	0.08225
3957.41426	0.08211
3955.48569	0.08237
3953.55713	0.08277
3951.62856	0.08310
3949.70000	0.08365
3947.77144	0.08407
3945.84287	0.08385
3943.91431	0.08381
3941.98574	0.08422
3940.05718	0.08396
3938.12861	0.08309
3936.20005	0.08247
3934.27148	0.08270
3932.34292	0.08379
3930.41436	0.08467
3928.48579	0.08404
3926.55723	0.08296
3924.62866	0.08321
3922.70010	0.08383
3920.77153	0.08374
3918.84297	0.08421
3916.91440	0.08502
3914.98584	0.08435
3913.05728	0.08275
3911.12871	0.08183
3909.20015	0.08179
3907.27158	0.08280
3905.34302	0.08522
3903.41445	0.08799
3901.48589	0.08907
3899.55732	0.08876
3897.62876	0.08728
3895.70020	0.08497
3893.77163	0.08405
3891.84307	0.08495
3889.91450	0.08531
3887.98594	0.08429
3886.05737	0.08452
3884.12881	0.08631
3882.20024	0.08756
3880.27168	0.08819
3878.34312	0.08713
3876.41455	0.08517
3874.48599	0.08550
3872.55742	0.08771
3870.62886	0.08959
3868.70029	0.09016
3866.77173	0.08921
3864.84316	0.08916
3862.91460	0.09044
3860.98604	0.09020
3859.05747	0.08855
3857.12891	0.08794
3855.20034	0.08992
3853.27178	0.09505
3851.34321	0.09805
3849.41465	0.09467
3847.48608	0.09102
3845.55752	0.08981
3843.62896	0.09128
3841.70039	0.09436
3839.77183	0.09760
3837.84326	0.09975
3835.91470	0.09954
3833.98613	0.09831
3832.05757	0.09740
3830.12900	0.09673
3828.20044	0.09675
3826.27187	0.09781
3824.34331	0.09906
3822.41475	0.10073
3820.48618	0.10401
3818.55762	0.10589
3816.62905	0.10570
3814.70049	0.10527
3812.77192	0.10372
3810.84336	0.10258
3808.91479	0.10336
3806.98623	0.10593
3805.05767	0.10851
3803.12910	0.11046
3801.20054	0.11371
3799.27197	0.11601
3797.34341	0.11555
3795.41484	0.11484
3793.48628	0.11376
3791.55771	0.11276
3789.62915	0.11309
3787.70059	0.11477
3785.77202	0.11718
3783.84346	0.11929
3781.91489	0.12069
3779.98633	0.12270
3778.05776	0.12520
3776.12920	0.12600
3774.20063	0.12600
3772.27207	0.12738
3770.34351	0.13058
3768.41494	0.13403
3766.48638	0.13618
3764.55781	0.13779
3762.62925	0.13908
3760.70068	0.14119
3758.77212	0.14495
3756.84355	0.14828
3754.91499	0.15070
3752.98643	0.15466
3751.05786	0.16143
3749.12930	0.16778
3747.20073	0.17002
3745.27217	0.17204
3743.34360	0.17648
3741.41504	0.18053
3739.48647	0.18407
3737.55791	0.18992
3735.62935	0.19908
3733.70078	0.20876
3731.77222	0.21413
3729.84365	0.21708
3727.91509	0.22079
3725.98652	0.22663
3724.05796	0.23373
3722.12939	0.23975
3720.20083	0.24365
3718.27227	0.24593
3716.34370	0.24864
3714.41514	0.25406
3712.48657	0.26514
3710.55801	0.28314
3708.62944	0.29985
3706.70088	0.31068
3704.77231	0.32088
3702.84375	0.33412
3700.91519	0.35148
3698.98662	0.36947
3697.05806	0.38597
3695.12949	0.40355
3693.20093	0.42290
3691.27236	0.44490
3689.34380	0.47305
3687.41523	0.50617
3685.48667	0.53444
3683.55811	0.55890
3681.62954	0.58620
3679.70098	0.61798
3677.77241	0.65196
3675.84385	0.69255
3673.91528	0.74583
3671.98672	0.78800
3670.05815	0.82644
3668.12959	0.87956
3666.20103	0.92624
3664.27246	0.96487
3662.34390	1.00764
3660.41533	1.05493
3658.48677	1.10201
3656.55820	1.15190
3654.62964	1.20718
3652.70107	1.25400
3650.77251	1.29636
3648.84395	1.35602
3646.91538	1.42572
3644.98682	1.47330
3643.05825	1.51043
3641.12969	1.55019
3639.20112	1.59461
3637.27256	1.63979
3635.34399	1.68426
3633.41543	1.72936
3631.48687	1.77276
3629.55830	1.81763
3627.62974	1.87434
3625.70117	1.92396
3623.77261	1.95627
3621.84404	1.98736
3619.91548	2.02296
3617.98691	2.06741
3616.05835	2.11119
3614.12979	2.14669
3612.20122	2.18389
3610.27266	2.22287
3608.34409	2.26348
3606.41553	2.30735
3604.48696	2.34777
3602.55840	2.38266
3600.62983	2.41942
3598.70127	2.45951
3596.77271	2.49996
3594.84414	2.54286
3592.91558	2.58603
3590.98701	2.62366
3589.05845	2.65796
3587.12988	2.70078
3585.20132	2.74917
3583.27275	2.78907
3581.34419	2.82464
3579.41562	2.86276
3577.48706	2.90413
3575.55850	2.94656
3573.62993	2.98908
3571.70137	3.02947
3569.77280	3.06910
3567.84424	3.11400
3565.91567	3.16883
3563.98711	3.21926
3562.05854	3.25908
3560.12998	3.29894
3558.20142	3.34166
3556.27285	3.38584
3554.34429	3.42942
3552.41572	3.47407
3550.48716	3.52019
3548.55859	3.56572
3546.63003	3.61172
3544.70146	3.65935
3542.77290	3.70520
3540.84434	3.74925
3538.91577	3.79411
3536.98721	3.83978
3535.05864	3.88902
3533.13008	3.93902
3531.20151	3.98607
3529.27295	4.03295
3527.34438	4.08261
3525.41582	4.13235
3523.48726	4.17837
3521.55869	4.22248
3519.63013	4.26634
3517.70156	4.31220
3515.77300	4.36270
3513.84443	4.41610
3511.91587	4.46665
3509.98730	4.51511
3508.05874	4.56610
3506.13018	4.61406
3504.20161	4.65509
3502.27305	4.69871
3500.34448	4.74856
3498.41592	4.79815
3496.48735	4.84780
3494.55879	4.89419
3492.63022	4.93572
3490.70166	4.98081
3488.77310	5.02786
3486.84453	5.07063
3484.91597	5.11738
3482.98740	5.17233
3481.05884	5.22254
3479.13027	5.26596
3477.20171	5.31461
3475.27314	5.36738
3473.34458	5.41739
3471.41602	5.45862
3469.48745	5.49116
3467.55889	5.52905
3465.63032	5.58271
3463.70176	5.64869
3461.77319	5.70744
3459.84463	5.74874
3457.91606	5.78896
3455.98750	5.84161
3454.05894	5.89996
3452.13037	5.95207
3450.20181	5.99663
3448.27324	6.03961
3446.34468	6.09216
3444.41611	6.15595
3442.48755	6.21817
3440.55898	6.26517
3438.63042	6.30146
3436.70186	6.33498
3434.77329	6.37059
3432.84473	6.42033
3430.91616	6.47490
3428.98760	6.50986
3427.05903	6.53528
3425.13047	6.58815
3423.20190	6.66005
3421.27334	6.72915
3419.34478	6.78462
3417.41621	6.81358
3415.48765	6.83781
3413.55908	6.88086
3411.63052	6.93300
3409.70195	6.97915
3407.77339	7.03767
3405.84482	7.10066
3403.91626	7.13474
3401.98770	7.14660
3400.05913	7.18639
3398.13057	7.25866
3396.20200	7.31077
3394.27344	7.32534
3392.34487	7.31907
3390.41631	7.35242
3388.48774	7.43570
3386.55918	7.52156
3384.63062	7.58475
3382.70205	7.61236
3380.77349	7.60316
3378.84492	7.58386
3376.91636	7.60075
3374.98779	7.63363
3373.05923	7.64759
3371.13066	7.65865
3369.20210	7.68518
3367.27354	7.72281
3365.34497	7.76392
3363.41641	7.78142
3361.48784	7.78204
3359.55928	7.80135
3357.63071	7.83708
3355.70215	7.89533
3353.77358	7.94237
3351.84502	7.95298
3349.91646	7.97659
3347.98789	8.04503
3346.05933	8.06107
3344.13076	7.98466
3342.20220	7.92599
3340.27363	7.91561
3338.34507	7.93010
3336.41650	7.92832
3334.48794	7.91520
3332.55937	7.89867
3330.63081	7.86449
3328.70225	7.87515
3326.77368	7.96580
3324.84512	8.06231
3322.91655	8.11383
3320.98799	8.13634
3319.05942	8.14057
3317.13086	8.15369
3315.20229	8.13532
3313.27373	8.07053
3311.34517	7.99053
3309.41660	7.93742
3307.48804	7.98170
3305.55947	8.07744
3303.63091	8.12516
3301.70234	8.13435
3299.77378	8.12293
3297.84521	8.08258
3295.91665	8.07186
3293.98809	8.06975
3292.05952	8.06756
3290.13096	8.17306
3288.20239	8.35431
3286.27383	8.40062
3284.34526	8.32113
3282.41670	8.32633
3280.48813	8.35761
3278.55957	8.27384
3276.63101	8.16094
3274.70244	8.13941
3272.77388	8.18402
3270.84531	8.20188
3268.91675	8.20083
3266.98818	8.20426
3265.05962	8.20322
3263.13105	8.20350
3261.20249	8.20862
3259.27393	8.17962
3257.34536	8.12213
3255.41680	8.11106
3253.48823	8.16526
3251.55967	8.18821
3249.63110	8.11187
3247.70254	8.01261
3245.77397	7.93266
3243.84541	7.87434
3241.91685	7.86381
3239.98828	7.90418
3238.05972	7.95257
3236.13115	7.96129
3234.20259	7.92546
3232.27402	7.89747
3230.34546	7.91612
3228.41689	7.95342
3226.48833	7.97321
3224.55977	7.96874
3222.63120	7.99639
3220.70264	8.02579
3218.77407	7.94995
3216.84551	7.84996
3214.91694	7.82811
3212.98838	7.82540
3211.05981	7.76111
3209.13125	7.68367
3207.20269	7.65207
3205.27412	7.65802
3203.34556	7.68958
3201.41699	7.68874
3199.48843	7.58653
3197.55986	7.47761
3195.63130	7.47755
3193.70273	7.53439
3191.77417	7.54273
3189.84561	7.48957
3187.91704	7.41420
3185.98848	7.34941
3184.05991	7.29812
3182.13135	7.25690
3180.20278	7.21703
3178.27422	7.14602
3176.34565	7.07333
3174.41709	7.05424
3172.48853	7.05162
3170.55996	7.01573
3168.63140	6.95415
3166.70283	6.87635
3164.77427	6.80148
3162.84570	6.74785
3160.91714	6.69292
3158.98857	6.61124
3157.06001	6.51632
3155.13145	6.43094
3153.20288	6.35526
3151.27432	6.28044
3149.34575	6.20584
3147.41719	6.14795
3145.48862	6.10575
3143.56006	6.03826
3141.63149	5.94375
3139.70293	5.86609
3137.77437	5.81014
3135.84580	5.75370
3133.91724	5.68934
3131.98867	5.62268
3130.06011	5.56432
3128.13154	5.50285
3126.20298	5.42169
3124.27441	5.33359
3122.34585	5.25651
3120.41729	5.19300
3118.48872	5.13258
3116.56016	5.06600
3114.63159	4.99425
3112.70303	4.92374
3110.77446	4.85621
3108.84590	4.78945
3106.91733	4.72311
3104.98877	4.65454
3103.06021	4.58287
3101.13164	4.51066
3099.20308	4.44252
3097.27451	4.37931
3095.34595	4.31719
3093.41738	4.25500
3091.48882	4.19206
3089.56025	4.12989
3087.63169	4.06906
3085.70312	4.00697
3083.77456	3.94573
3081.84600	3.88751
3079.91743	3.82888
3077.98887	3.76845
3076.06030	3.70942
3074.13174	3.65234
3072.20317	3.59420
3070.27461	3.53585
3068.34604	3.47986
3066.41748	3.42442
3064.48892	3.36842
3062.56035	3.31371
3060.63179	3.26109
3058.70322	3.20957
3056.77466	3.15786
3054.84609	3.10520
3052.91753	3.05196
3050.98896	3.00033
3049.06040	2.95119
3047.13184	2.90289
3045.20327	2.85436
3043.27471	2.80598
3041.34614	2.75779
3039.41758	2.71034
3037.48901	2.66476
3035.56045	2.62032
3033.63188	2.57555
3031.70332	2.53075
3029.77476	2.48721
3027.84619	2.44569
3025.91763	2.40517
3023.98906	2.36341
3022.06050	2.32051
3020.13193	2.27893
3018.20337	2.23937
3016.27480	2.20016
3014.34624	2.16079
3012.41768	2.12286
3010.48911	2.08650
3008.56055	2.05055
3006.63198	2.01491
3004.70342	1.97973
3002.77485	1.94485
3000.84629	1.91070
2998.91772	1.87762
2996.98916	1.84505
2995.06060	1.81284
2993.13203	1.78166
2991.20347	1.75151
2989.27490	1.72154
2987.34634	1.69204
2985.41777	1.66370
2983.48921	1.63564
2981.56064	1.60762
2979.63208	1.58056
2977.70352	1.55431
2975.77495	1.52821
2973.84639	1.50204
2971.91782	1.47633
2969.98926	1.45156
2968.06069	1.42739
2966.13213	1.40350
2964.20356	1.37997
2962.27500	1.35696
2960.34644	1.33386
2958.41787	1.31001
2956.48931	1.28664
2954.56074	1.26435
2952.63218	1.24207
2950.70361	1.21971
2948.77505	1.19778
2946.84648	1.17604
2944.91792	1.15439
2942.98936	1.13343
2941.06079	1.11337
2939.13223	1.09360
2937.20366	1.07389
2935.27510	1.05506
2933.34653	1.03705
2931.41797	1.01880
2929.48940	1.00029
2927.56084	0.98197
2925.63228	0.96411
2923.70371	0.94691
2921.77515	0.92998
2919.84658	0.91310
2917.91802	0.89632
2915.98945	0.87963
2914.06089	0.86348
2912.13232	0.84837
2910.20376	0.83375
2908.27520	0.81869
2906.34663	0.80333
2904.41807	0.78852
2902.48950	0.77465
2900.56094	0.76129
2898.63237	0.74827
2896.70381	0.73592
2894.77524	0.72403
2892.84668	0.71211
2890.91812	0.70026
2888.98955	0.68880
2887.06099	0.67770
2885.13242	0.66707
2883.20386	0.65705
2881.27529	0.64725
2879.34673	0.63736
2877.41816	0.62764
2875.48960	0.61813
2873.56104	0.60836
2871.63247	0.59822
2869.70391	0.58787
2867.77534	0.57730
2865.84678	0.56647
2863.91821	0.55582
2861.98965	0.54559
2860.06108	0.53549
2858.13252	0.52570
2856.20396	0.51664
2854.27539	0.50811
2852.34683	0.49976
2850.41826	0.49150
2848.48970	0.48332
2846.56113	0.47543
2844.63257	0.46802
2842.70400	0.46116
2840.77544	0.45457
2838.84687	0.44814
2836.91831	0.44213
2834.98975	0.43654
2833.06118	0.43107
2831.13262	0.42542
2829.20405	0.41957
2827.27549	0.41367
2825.34692	0.40789
2823.41836	0.40221
2821.48979	0.39646
2819.56123	0.39058
2817.63267	0.38483
2815.70410	0.37944
2813.77554	0.37423
2811.84697	0.36893
2809.91841	0.36359
2807.98984	0.35837
2806.06128	0.35328
2804.13271	0.34829
2802.20415	0.34346
2800.27559	0.33885
2798.34702	0.33433
2796.41846	0.32975
2794.48989	0.32521
2792.56133	0.32084
2790.63276	0.31649
2788.70420	0.31211
2786.77563	0.30788
2784.84707	0.30396
2782.91851	0.30019
2780.98994	0.29636
2779.06138	0.29242
2777.13281	0.28864
2775.20425	0.28521
2773.27568	0.28176
2771.34712	0.27790
2769.41855	0.27396
2767.48999	0.27031
2765.56143	0.26688
2763.63286	0.26367
2761.70430	0.26058
2759.77573	0.25748
2757.84717	0.25445
2755.91860	0.25149
2753.99004	0.24848
2752.06147	0.24553
2750.13291	0.24277
2748.20435	0.24013
2746.27578	0.23756
2744.34722	0.23506
2742.41865	0.23243
2740.49009	0.22962
2738.56152	0.22707
2736.63296	0.22487
2734.70439	0.22267
2732.77583	0.22032
2730.84727	0.21792
2728.91870	0.21556
2726.99014	0.21337
2725.06157	0.21150
2723.13301	0.20983
2721.20444	0.20801
2719.27588	0.20590
2717.34731	0.20353
2715.41875	0.20126
2713.49019	0.19941
2711.56162	0.19780
2709.63306	0.19626
2707.70449	0.19483
2705.77593	0.19336
2703.84736	0.19166
2701.91880	0.18990
2699.99023	0.18823
2698.06167	0.18665
2696.13311	0.18530
2694.20454	0.18416
2692.27598	0.18294
2690.34741	0.18164
2688.41885	0.18042
2686.49028	0.17928
2684.56172	0.17812
2682.63315	0.17688
2680.70459	0.17565
2678.77603	0.17453
2676.84746	0.17353
2674.91890	0.17251
2672.99033	0.17147
2671.06177	0.17053
2669.13320	0.16969
2667.20464	0.16888
2665.27607	0.16810
2663.34751	0.16732
2661.41895	0.16649
2659.49038	0.16566
2657.56182	0.16489
2655.63325	0.16407
2653.70469	0.16317
2651.77612	0.16237
2649.84756	0.16169
2647.91899	0.16115
2645.99043	0.16078
2644.06187	0.16038
2642.13330	0.15978
2640.20474	0.15910
2638.27617	0.15849
2636.34761	0.15798
2634.41904	0.15757
2632.49048	0.15725
2630.56191	0.15697
2628.63335	0.15661
2626.70479	0.15626
2624.77622	0.15603
2622.84766	0.15587
2620.91909	0.15568
2618.99053	0.15540
2617.06196	0.15495
2615.13340	0.15459
2613.20483	0.15451
2611.27627	0.15447
2609.34771	0.15427
2607.41914	0.15412
2605.49058	0.15415
2603.56201	0.15427
2601.63345	0.15439
2599.70488	0.15445
2597.77632	0.15444
2595.84775	0.15440
2593.91919	0.15451
2591.99062	0.15476
2590.06206	0.15489
2588.13350	0.15486
2586.20493	0.15500
2584.27637	0.15536
2582.34780	0.15560
2580.41924	0.15564
2578.49067	0.15565
2576.56211	0.15581
2574.63354	0.15624
2572.70498	0.15676
2570.77642	0.15710
2568.84785	0.15735
2566.91929	0.15770
2564.99072	0.15817
2563.06216	0.15868
2561.13359	0.15917
2559.20503	0.15959
2557.27646	0.15993
2555.34790	0.16028
2553.41934	0.16070
2551.49077	0.16119
2549.56221	0.16173
2547.63364	0.16231
2545.70508	0.16281
2543.77651	0.16321
2541.84795	0.16371
2539.91938	0.16441
2537.99082	0.16514
2536.06226	0.16582
2534.13369	0.16641
2532.20513	0.16697
2530.27656	0.16763
2528.34800	0.16834
2526.41943	0.16907
2524.49087	0.16985
2522.56230	0.17059
2520.63374	0.17127
2518.70518	0.17199
2516.77661	0.17281
2514.84805	0.17363
2512.91948	0.17435
2510.99092	0.17504
2509.06235	0.17583
2507.13379	0.17663
2505.20522	0.17733
2503.27666	0.17799
2501.34810	0.17875
2499.41953	0.17962
2497.49097	0.18056
2495.56240	0.18150
2493.63384	0.18241
2491.70527	0.18321
2489.77671	0.18388
2487.84814	0.18462
2485.91958	0.18542
2483.99102	0.18621
2482.06245	0.18710
2480.13389	0.18814
2478.20532	0.18922
2476.27676	0.19021
2474.34819	0.19102
2472.41963	0.19173
2470.49106	0.19250
2468.56250	0.19334
2466.63394	0.19426
2464.70537	0.19520
2462.77681	0.19605
2460.84824	0.19686
2458.91968	0.19775
2456.99111	0.19868
2455.06255	0.19960
2453.13398	0.20058
2451.20542	0.20166
2449.27686	0.20276
2447.34829	0.20370
2445.41973	0.20452
2443.49116	0.20541
2441.56260	0.20644
2439.63403	0.20757
2437.70547	0.20862
2435.77690	0.20960
2433.84834	0.21071
2431.91978	0.21187
2429.99121	0.21284
2428.06265	0.21379
2426.13408	0.21480
2424.20552	0.21574
2422.27695	0.21674
2420.34839	0.21790
2418.41982	0.21904
2416.49126	0.22010
2414.56270	0.22122
2412.63413	0.22245
2410.70557	0.22373
2408.77700	0.22490
2406.84844	0.22597
2404.91987	0.22715
2402.99131	0.22839
2401.06274	0.22956
2399.13418	0.23068
2397.20562	0.23176
2395.27705	0.23288
2393.34849	0.23409
2391.41992	0.23543
2389.49136	0.23733
2387.56279	0.24034
2385.63423	0.24508
2383.70566	0.25233
2381.77710	0.26244
2379.84854	0.27488
2377.91997	0.28934
2375.99141	0.30636
2374.06284	0.32649
2372.13428	0.34939
2370.20571	0.37425
2368.27715	0.39977
2366.34858	0.42431
2364.42002	0.44642
2362.49146	0.46432
2360.56289	0.47452
2358.63433	0.47369
2356.70576	0.46196
2354.77720	0.44184
2352.84863	0.41609
2350.92007	0.38963
2348.99150	0.37390
2347.06294	0.37478
2345.13437	0.39209
2343.20581	0.41612
2341.27725	0.42914
2339.34868	0.42988
2337.42012	0.42703
2335.49155	0.42459
2333.56299	0.42181
2331.63442	0.41870
2329.70586	0.41542
2327.77729	0.41108
2325.84873	0.40479
2323.92017	0.39686
2321.99160	0.38838
2320.06304	0.38013
2318.13447	0.37226
2316.20591	0.36524
2314.27734	0.35988
2312.34878	0.35633
2310.42021	0.35337
2308.49165	0.34945
2306.56309	0.34443
2304.63452	0.33975
2302.70596	0.33684
2300.77739	0.33539
2298.84883	0.33432
2296.92026	0.33337
2294.99170	0.33249
2293.06313	0.33148
2291.13457	0.33044
2289.20601	0.32952
2287.27744	0.32867
2285.34888	0.32814
2283.42031	0.32844
2281.49175	0.32987
2279.56318	0.33224
2277.63462	0.33498
2275.70605	0.33759
2273.77749	0.33983
2271.84893	0.34188
2269.92036	0.34396
2267.99180	0.34603
2266.06323	0.34793
2264.13467	0.34972
2262.20610	0.35131
2260.27754	0.35265
2258.34897	0.35411
2256.42041	0.35580
2254.49185	0.35750
2252.56328	0.35913
2250.63472	0.36084
2248.70615	0.36262
2246.77759	0.36446
2244.84902	0.36639
2242.92046	0.36837
2240.99189	0.37037
2239.06333	0.37241
2237.13477	0.37455
2235.20620	0.37672
2233.27764	0.37877
2231.34907	0.38072
2229.42051	0.38279
2227.49194	0.38499
2225.56338	0.38715
2223.63481	0.38923
2221.70625	0.39127
2219.77769	0.39335
2217.84912	0.39554
2215.92056	0.39771
2213.99199	0.39984
2212.06343	0.40210
2210.13486	0.40438
2208.20630	0.40644
2206.27773	0.40838
2204.34917	0.41030
2202.42061	0.41224
2200.49204	0.41425
2198.56348	0.41634
2196.63491	0.41838
2194.70635	0.42031
2192.77778	0.42223
2190.84922	0.42412
2188.92065	0.42589
2186.99209	0.42762
2185.06353	0.42935
2183.13496	0.43107
2181.20640	0.43273
2179.27783	0.43439
2177.34927	0.43609
2175.42070	0.43766
2173.49214	0.43906
2171.56357	0.44047
2169.63501	0.44183
2167.70645	0.44306
2165.77788	0.44433
2163.84932	0.44562
2161.92075	0.44683
2159.99219	0.44806
2158.06362	0.44923
2156.13506	0.45015
2154.20649	0.45087
2152.27793	0.45158
2150.34937	0.45239
2148.42080	0.45332
2146.49224	0.45417
2144.56367	0.45467
2142.63511	0.45495
2140.70654	0.45523
2138.77798	0.45548
2136.84941	0.45566
2134.92085	0.45582
2132.99229	0.45595
2131.06372	0.45599
2129.13516	0.45584
2127.20659	0.45553
2125.27803	0.45528
2123.34946	0.45507
2121.42090	0.45471
2119.49233	0.45422
2117.56377	0.45372
2115.63521	0.45323
2113.70664	0.45260
2111.77808	0.45168
2109.84951	0.45063
2107.92095	0.44958
2105.99238	0.44848
2104.06382	0.44736
2102.13525	0.44623
2100.20669	0.44510
2098.27812	0.44397
2096.34956	0.44281
2094.42100	0.44146
2092.49243	0.43989
2090.56387	0.43825
2088.63530	0.43658
2086.70674	0.43477
2084.77817	0.43279
2082.84961	0.43087
2080.92104	0.42911
2078.99248	0.42733
2077.06392	0.42548
2075.13535	0.42349
2073.20679	0.42131
2071.27822	0.41905
2069.34966	0.41681
2067.42109	0.41458
2065.49253	0.41238
2063.56396	0.41005
2061.63540	0.40755
2059.70684	0.40514
2057.77827	0.40283
2055.84971	0.40037
2053.92114	0.39776
2051.99258	0.39528
2050.06401	0.39292
2048.13545	0.39049
2046.20688	0.38790
2044.27832	0.38529
2042.34976	0.38276
2040.42119	0.38020
2038.49263	0.37746
2036.56406	0.37452
2034.63550	0.37168
2032.70693	0.36911
2030.77837	0.36657
2028.84980	0.36388
2026.92124	0.36116
2024.99268	0.35843
2023.06411	0.35568
2021.13555	0.35300
2019.20698	0.35044
2017.27842	0.34794
2015.34985	0.34520
2013.42129	0.34228
2011.49272	0.33949
2009.56416	0.33689
2007.63560	0.33424
2005.70703	0.33148
2003.77847	0.32875
2001.84990	0.32622
1999.92134	0.32378
1997.99277	0.32124
1996.06421	0.31866
1994.13564	0.31627
1992.20708	0.31401
1990.27852	0.31149
1988.34995	0.30876
1986.42139	0.30609
1984.49282	0.30363
1982.56426	0.30141
1980.63569	0.29922
1978.70713	0.29691
1976.77856	0.29462
1974.85000	0.29244
1972.92144	0.29030
1970.99287	0.28821
1969.06431	0.28625
1967.13574	0.28434
1965.20718	0.28223
1963.27861	0.28005
1961.35005	0.27806
1959.42148	0.27622
1957.49292	0.27437
1955.56436	0.27256
1953.63579	0.27089
1951.70723	0.26925
1949.77866	0.26762
1947.85010	0.26610
1945.92153	0.26475
1943.99297	0.26356
1942.06440	0.26225
1940.13584	0.26043
1938.20728	0.25849
1936.27871	0.25689
1934.35015	0.25556
1932.42158	0.25433
1930.49302	0.25309
1928.56445	0.25192
1926.63589	0.25099
1924.70732	0.25038
1922.77876	0.24978
1920.85020	0.24881
1918.92163	0.24785
1916.99307	0.24693
1915.06450	0.24573
1913.13594	0.24464
1911.20737	0.24400
1909.27881	0.24345
1907.35024	0.24264
1905.42168	0.24174
1903.49312	0.24110
1901.56455	0.24060
1899.63599	0.24007
1897.70742	0.23971
1895.77886	0.23951
1893.85029	0.23915
1891.92173	0.23874
1889.99316	0.23872
1888.06460	0.23856
1886.13604	0.23806
1884.20747	0.23758
1882.27891	0.23714
1880.35034	0.23686
1878.42178	0.23680
1876.49321	0.23682
1874.56465	0.23680
1872.63608	0.23698
1870.70752	0.23769
1868.77896	0.23885
1866.85039	0.23918
1864.92183	0.23849
1862.99326	0.23799
1861.06470	0.23797
1859.13613	0.23825
1857.20757	0.23854
1855.27900	0.23882
1853.35044	0.23918
1851.42187	0.23983
1849.49331	0.24073
1847.56475	0.24179
1845.63618	0.24300
1843.70762	0.24408
1841.77905	0.24437
1839.85049	0.24437
1837.92192	0.24502
1835.99336	0.24594
1834.06479	0.24679
1832.13623	0.24795
1830.20767	0.24987
1828.27910	0.25161
1826.35054	0.25259
1824.42197	0.25369
1822.49341	0.25454
1820.56484	0.25529
1818.63628	0.25647
1816.70771	0.25801
1814.77915	0.25962
1812.85059	0.26156
1810.92202	0.26391
1808.99346	0.26602
1807.06489	0.26768
1805.13633	0.26936
1803.20776	0.27170
1801.27920	0.27462
1799.35063	0.27758
1797.42207	0.27996
1795.49351	0.28236
1793.56494	0.28550
1791.63638	0.28935
1789.70781	0.29229
1787.77925	0.29428
1785.85068	0.29724
1783.92212	0.30103
1781.99355	0.30503
1780.06499	0.30916
1778.13643	0.31330
1776.20786	0.31737
1774.27930	0.32222
1772.35073	0.32877
1770.42217	0.33505
1768.49360	0.33967
1766.56504	0.34413
1764.63647	0.34899
1762.70791	0.35483
1760.77935	0.36238
1758.85078	0.36927
1756.92222	0.37621
1754.99365	0.38385
1753.06509	0.39097
1751.13652	0.39980
1749.20796	0.41081
1747.27939	0.42117
1745.35083	0.42990
1743.42227	0.43911
1741.49370	0.44935
1739.56514	0.46155
1737.63657	0.47382
1735.70801	0.48483
1733.77944	0.50167
1731.85088	0.52111
1729.92231	0.53574
1727.99375	0.55055
1726.06519	0.56682
1724.13662	0.58499
1722.20806	0.60485
1720.27949	0.62353
1718.35093	0.64607
1716.42236	0.67898
1714.49380	0.70851
1712.56523	0.73152
1710.63667	0.75448
1708.70811	0.78005
1706.77954	0.80951
1704.85098	0.84463
1702.92241	0.87590
1700.99385	0.90730
1699.06528	0.95421
1697.13672	0.99655
1695.20815	1.03939
1693.27959	1.08114
1691.35103	1.11524
1689.42246	1.15509
1687.49390	1.19706
1685.56533	1.23750
1683.63677	1.30017
1681.70820	1.36454
1679.77964	1.40575
1677.85107	1.44581
1675.92251	1.49228
1673.99395	1.54944
1672.06538	1.59994
1670.13682	1.64985
1668.20825	1.71449
1666.27969	1.76605
1664.35112	1.80996
1662.42256	1.86664
1660.49399	1.93076
1658.56543	1.98037
1656.63687	2.02012
1654.70830	2.05641
1652.77974	2.11344
1650.85117	2.16792
1648.92261	2.18991
1646.99404	2.21981
1645.06548	2.24980
1643.13691	2.26439
1641.20835	2.27139
1639.27979	2.28016
1637.35122	2.28784
1635.42266	2.28965
1633.49409	2.28157
1631.56553	2.26715
1629.63696	2.25079
1627.70840	2.22380
1625.77983	2.19093
1623.85127	2.14932
1621.92271	2.09844
1619.99414	2.05287
1618.06558	2.00796
1616.13701	1.94385
1614.20845	1.87943
1612.27988	1.83112
1610.35132	1.78033
1608.42275	1.72497
1606.49419	1.67069
1604.56562	1.62046
1602.63706	1.57151
1600.70850	1.52362
1598.77993	1.47982
1596.85137	1.43903
1594.92280	1.39916
1592.99424	1.35993
1591.06567	1.32388
1589.13711	1.29059
1587.20854	1.25982
1585.27998	1.23114
1583.35142	1.20416
1581.42285	1.17989
1579.49429	1.15966
1577.56572	1.14184
1575.63716	1.12004
1573.70859	1.10036
1571.78003	1.08760
1569.85146	1.07477
1567.92290	1.06037
1565.99434	1.04944
1564.06577	1.04132
1562.13721	1.03550
1560.20864	1.03290
1558.28008	1.03108
1556.35151	1.02754
1554.42295	1.02435
1552.49438	1.02141
1550.56582	1.01757
1548.63726	1.01202
1546.70869	1.00559
1544.78013	0.99811
1542.85156	0.98871
1540.92300	0.97433
1538.99443	0.94961
1537.06587	0.93065
1535.13730	0.91853
1533.20874	0.90286
1531.28018	0.88521
1529.35161	0.87237
1527.42305	0.86104
1525.49448	0.84948
1523.56592	0.83974
1521.63735	0.83059
1519.70879	0.82057
1517.78022	0.81161
1515.85166	0.80115
1513.92310	0.78986
1511.99453	0.78041
1510.06597	0.77284
1508.13740	0.76641
1506.20884	0.75516
1504.28027	0.74335
1502.35171	0.73651
1500.42314	0.73122
1498.49458	0.72603
1496.56602	0.71958
1494.63745	0.71258
1492.70889	0.70757
1490.78032	0.70417
1488.85176	0.69998
1486.92319	0.69444
1484.99463	0.68956
1483.06606	0.68608
1481.13750	0.68339
1479.20894	0.68125
1477.28037	0.68017
1475.35181	0.68005
1473.42324	0.68012
1471.49468	0.67849
1469.56611	0.67526
1467.63755	0.67258
1465.70898	0.67086
1463.78042	0.66920
1461.85186	0.66759
1459.92329	0.66718
1457.99473	0.66808
1456.06616	0.66762
1454.13760	0.66431
1452.20903	0.66107
1450.28047	0.65855
1448.35190	0.65637
1446.42334	0.65361
1444.49478	0.65055
1442.56621	0.64785
1440.63765	0.64552
1438.70908	0.64360
1436.78052	0.64144
1434.85195	0.63827
1432.92339	0.63543
1430.99482	0.63364
1429.06626	0.63234
1427.13770	0.63129
1425.20913	0.63085
1423.28057	0.63090
1421.35200	0.63114
1419.42344	0.63155
1417.49487	0.63096
1415.56631	0.62906
1413.63774	0.62764
1411.70918	0.62714
1409.78062	0.62724
1407.85205	0.62779
1405.92349	0.62881
1403.99492	0.62955
1402.06636	0.62931
1400.13779	0.62873
1398.20923	0.62790
1396.28066	0.62618
1394.35210	0.62309
1392.42354	0.61926
1390.49497	0.61595
1388.56641	0.61304
1386.63784	0.60939
1384.70928	0.60490
1382.78071	0.60081
1380.85215	0.59752
1378.92358	0.59487
1376.99502	0.59290
1375.06646	0.59157
1373.13789	0.59029
1371.20933	0.58895
1369.28076	0.58790
1367.35220	0.58677
1365.42363	0.58536
1363.49507	0.58411
1361.56650	0.58290
1359.63794	0.58142
1357.70937	0.58005
1355.78081	0.57880
1353.85225	0.57759
1351.92368	0.57666
1349.99512	0.57609
1348.06655	0.57555
1346.13799	0.57474
1344.20942	0.57393
1342.28086	0.57344
1340.35229	0.57321
1338.42373	0.57273
1336.49517	0.57182
1334.56660	0.57095
1332.63804	0.57037
1330.70947	0.57008
1328.78091	0.57003
1326.85234	0.57016
1324.92378	0.57042
1322.99521	0.57078
1321.06665	0.57117
1319.13809	0.57149
1317.20952	0.57150
1315.28096	0.57120
1313.35239	0.57080
1311.42383	0.57025
1309.49526	0.56952
1307.56670	0.56889
1305.63813	0.56836
1303.70957	0.56772
1301.78101	0.56702
1299.85244	0.56632
1297.92388	0.56546
1295.99531	0.56444
1294.06675	0.56333
1292.13818	0.56225
1290.20962	0.56129
1288.28105	0.56038
1286.35249	0.55939
1284.42393	0.55845
1282.49536	0.55761
1280.56680	0.55674
1278.63823	0.55571
1276.70967	0.55465
1274.78110	0.55376
1272.85254	0.55310
1270.92397	0.55250
1268.99541	0.55174
1267.06685	0.55090
1265.13828	0.55010
1263.20972	0.54936
1261.28115	0.54880
1259.35259	0.54832
1257.42402	0.54783
1255.49546	0.54739
1253.56689	0.54723
1251.63833	0.54739
1249.70977	0.54765
1247.78120	0.54778
1245.85264	0.54758
1243.92407	0.54695
1241.99551	0.54607
1240.06694	0.54503
1238.13838	0.54373
1236.20981	0.54222
1234.28125	0.54063
1232.35269	0.53901
1230.42412	0.53736
1228.49556	0.53572
1226.56699	0.53415
1224.63843	0.53261
1222.70986	0.53121
1220.78130	0.53009
1218.85273	0.52910
1216.92417	0.52812
1214.99561	0.52721
1213.06704	0.52645
1211.13848	0.52579
1209.20991	0.52511
1207.28135	0.52440
1205.35278	0.52370
1203.42422	0.52300
1201.49565	0.52224
1199.56709	0.52144
1197.63853	0.52078
1195.70996	0.52033
1193.78140	0.51994
1191.85283	0.51960
1189.92427	0.51929
1187.99570	0.51892
1186.06714	0.51861
1184.13857	0.51866
1182.21001	0.51908
1180.28145	0.51964
1178.35288	0.52025
1176.42432	0.52110
1174.49575	0.52218
1172.56719	0.52312
1170.63862	0.52363
1168.71006	0.52379
1166.78149	0.52373
1164.85293	0.52364
1162.92437	0.52353
1160.99580	0.52327
1159.06724	0.52283
1157.13867	0.52220
1155.21011	0.52141
1153.28154	0.52034
1151.35298	0.51882
1149.42441	0.51680
1147.49585	0.51428
1145.56729	0.51156
1143.63872	0.50910
1141.71016	0.50696
1139.78159	0.50507
1137.85303	0.50346
1135.92446	0.50196
1133.99590	0.50075
1132.06733	0.49984
1130.13877	0.49893
1128.21021	0.49790
1126.28164	0.49683
1124.35308	0.49578
1122.42451	0.49495
1120.49595	0.49444
1118.56738	0.49429
1116.63882	0.49455
1114.71025	0.49493
1112.78169	0.49509
1110.85312	0.49527
1108.92456	0.49596
1106.99600	0.49706
1105.06743	0.49833
1103.13887	0.49979
1101.21030	0.50139
1099.28174	0.50311
1097.35317	0.50534
1095.42461	0.50844
1093.49604	0.51225
1091.56748	0.51649
1089.63892	0.52138
1087.71035	0.52709
1085.78179	0.53354
1083.85322	0.54050
1081.92466	0.54719
1079.99609	0.55262
1078.06753	0.55602
1076.13896	0.55668
1074.21040	0.55460
1072.28184	0.55041
1070.35327	0.54434
1068.42471	0.53700
1066.49614	0.52982
1064.56758	0.52360
1062.63901	0.51819
1060.71045	0.51335
1058.78188	0.50898
1056.85332	0.50493
1054.92476	0.50120
1052.99619	0.49796
1051.06763	0.49540
1049.13906	0.49331
1047.21050	0.49130
1045.28193	0.48964
1043.35337	0.48867
1041.42480	0.48798
1039.49624	0.48705
1037.56768	0.48615
1035.63911	0.48573
1033.71055	0.48567
1031.78198	0.48549
1029.85342	0.48512
1027.92485	0.48483
1025.99629	0.48465
1024.06772	0.48449
1022.13916	0.48440
1020.21060	0.48460
1018.28203	0.48514
1016.35347	0.48574
1014.42490	0.48632
1012.49634	0.48709
1010.56777	0.48806
1008.63921	0.48905
1006.71064	0.49011
1004.78208	0.49153
1002.85352	0.49347
1000.92495	0.49609
998.99639	0.49948
997.06782	0.50330
995.13926	0.50721
993.21069	0.51096
991.28213	0.51427
989.35356	0.51680
987.42500	0.51836
985.49644	0.51910
983.56787	0.51945
981.63931	0.51997
979.71074	0.52103
977.78218	0.52262
975.85361	0.52469
973.92505	0.52720
971.99648	0.53017
970.06792	0.53358
968.13936	0.53724
966.21079	0.54118
964.28223	0.54557
962.35366	0.55023
960.42510	0.55509
958.49653	0.56030
956.56797	0.56576
954.63940	0.57150
952.71084	0.57764
950.78228	0.58404
948.85371	0.59044
946.92515	0.59674
944.99658	0.60296
943.06802	0.60931
941.13945	0.61560
939.21089	0.62136
937.28232	0.62663
935.35376	0.63155
933.42520	0.63646
931.49663	0.64174
929.56807	0.64719
927.63950	0.65298
925.71094	0.65930
923.78237	0.66565
921.85381	0.67208
919.92524	0.67880
917.99668	0.68522
916.06812	0.69179
914.13955	0.69957
912.21099	0.70769
910.28242	0.71498
908.35386	0.72234
906.42529	0.73054
904.49673	0.73922
902.56816	0.74789
900.63960	0.75603
898.71104	0.76469
896.78247	0.77536
894.85391	0.78631
892.92534	0.79627
890.99678	0.80638
889.06821	0.81625
887.13965	0.82568
885.21108	0.83684
883.28252	0.84926
881.35396	0.85992
879.42539	0.86992
877.49683	0.88130
875.56826	0.89284
873.63970	0.90398
871.71113	0.91584
869.78257	0.92775
867.85400	0.93803
865.92544	0.94795
863.99687	0.95900
862.06831	0.97079
860.13975	0.98247
858.21118	0.99305
856.28262	1.00355
854.35405	1.01552
852.42549	1.02782
850.49692	1.03998
848.56836	1.05232
846.63979	1.06311
844.71123	1.07190
842.78267	1.08078
840.85410	1.09164
838.92554	1.10344
836.99697	1.11397
835.06841	1.12491
833.13984	1.13698
831.21128	1.14797
829.28271	1.15990
827.35415	1.17445
825.42559	1.18944
823.49702	1.20259
821.56846	1.21327
819.63989	1.22111
817.71133	1.22152
815.78276	1.22183
813.85420	1.23214
811.92563	1.24729
809.99707	1.26203
808.06851	1.26976
806.13994	1.27112
804.21138	1.27631
802.28281	1.28211
800.35425	1.28741
798.42568	1.30029
796.49712	1.31774
794.56855	1.32960
792.63999	1.32140
790.71143	1.31557
788.78286	1.35842
786.85430	1.39931
784.92573	1.37226
782.99717	1.34042
781.06860	1.31428
779.14004	1.28667
777.21147	1.30805
775.28291	1.39280
773.35435	1.47737
771.42578	1.50254
769.49722	1.50318
767.56865	1.52542
765.64009	1.54497
763.71152	1.52034
761.78296	1.48294
759.85439	1.40227
757.92583	1.28541
755.99727	1.24148
754.06870	1.30756
752.14014	1.45742
750.21157	1.49909
748.28301	1.26759
746.35444	1.09617
744.42588	1.04285
742.49731	1.00771
740.56875	0.89160
738.64019	0.77379
736.71162	0.74632
734.78306	0.80047
732.85449	0.78638
730.92593	0.63040
728.99736	0.50960
727.06880	0.43654
725.14023	0.33934
723.21167	0.28062
721.28311	0.35162
719.35454	0.41991
717.42598	0.19195
715.49741	0.02500
713.56885	0.00903
711.64028	0.02644
709.71172	0.00288
707.78315	0.01725
705.85459	-0.01871
703.92603	-0.10260
701.99746	0.00009
700.06890	0.10603
698.14033	0.10376
696.21177	0.13417
694.28320	0.28439
692.35464	0.47682
690.42607	0.42877
688.49751	0.42504
686.56895	0.55063
684.64038	0.36183
682.71182	0.17059
680.78325	0.19269
678.85469	0.31587
676.92612	0.38269
674.99756	0.36953
673.06899	0.32972
671.14043	0.26738
669.21187	0.14836
667.28330	0.03505
665.35474	0.02728
663.42617	0.10029
661.49761	0.15055
659.56904	0.09652
657.64048	0.06311
655.71191	0.12603
653.78335	0.18057
651.85479	0.16967
649.92622	0.15076
647.99766	0.14900
646.06909	0.15739
644.14053	0.16608
642.21196	0.23638
640.28340	0.36599
638.35483	0.39144
636.42627	0.33036
634.49771	0.29080
632.56914	0.27975
630.64058	0.20439
628.71201	0.11094
626.78345	0.11870
624.85488	0.25064
622.92632	0.27737
620.99775	0.20225
619.06919	0.19009
617.14062	0.19241
615.21206	0.20907
613.28350	0.28821
611.35493	0.30883
609.42637	0.19519
607.49780	0.12316
605.56924	0.15702
603.64067	0.14656
601.71211	0.06928
599.78354	0.08540
597.85498	0.20476
595.92642	0.38863
593.99785	0.74453
592.06929	1.21475
590.14072	0.53969
588.21216	0.26086
586.28359	0.11865
584.35503	0.12475
582.42646	0.27138
580.49790	0.28923
578.56934	0.19839
576.64077	0.16010
574.71221	0.18256
572.78364	0.24023
570.85508	0.27074
568.92651	0.21439
566.99795	0.19257
565.06938	0.19415
563.14082	0.16700
561.21226	0.16264
559.28369	0.17742
557.35513	0.18501
555.42656	0.19072
553.49800	0.16069
551.56943	0.12591
549.64087	0.15460
547.71230	0.19469
545.78374	0.18347
543.85518	0.19359
541.92661	0.27709
539.99805	0.36619
538.06948	0.39238
536.14092	0.42077
534.21235	0.34229
532.28379	0.25098
530.35522	0.28335
528.42666	0.37386
526.49810	0.37250
524.56953	0.32887
522.64097	0.28765
520.71240	0.24776
518.78384	0.23203
516.85527	0.24963
514.92671	0.25053
512.99814	0.17708
511.06958	0.12163
509.14102	0.16017
507.21245	0.22176
505.28389	0.22328
503.35532	0.24195
501.42676	0.29942
499.49819	0.24927
