3997.91411	0.06660
3995.98555	0.06678
3994.05698	0.06682
3992.12842	0.06723
3990.19985	0.06793
3988.27129	0.06853
3986.34272	0.06900
3984.41416	0.06934
3982.48560	0.06964
3980.55703	0.07017
3978.62847	0.07071
3976.69990	0.07082
3974.77134	0.07063
3972.84277	0.07058
3970.91421	0.07083
3968.98564	0.07098
3967.05708	0.07079
3965.12852	0.07075
3963.19995	0.07102
3961.27139	0.07117
3959.34282	0.07128
3957.41426	0.07156
3955.48569	0.07168
3953.55713	0.07154
3951.62856	0.07111
3949.70000	0.07045
3947.77144	0.07039
3945.84287	0.07098
3943.91431	0.07107
3941.98574	0.07095
3940.05718	0.07141
3938.12861	0.07215
3936.20005	0.07269
3934.27148	0.07277
3932.34292	0.07261
3930.41436	0.07260
3928.48579	0.07253
3926.55723	0.07209
3924.62866	0.07157
3922.70010	0.07136
3920.77153	0.07118
3918.84297	0.07073
3916.91440	0.07065
3914.98584	0.07127
3913.05728	0.07182
3911.12871	0.07196
3909.20015	0.07192
3907.27158	0.07139
3905.34302	0.07016
3903.41445	0.06933
3901.48589	0.06991
3899.55732	0.07093
3897.62876	0.07149
3895.70020	0.07152
3893.77163	0.07109
3891.84307	0.07046
3889.91450	0.07026
3887.98594	0.07049
3886.05737	0.07078
3884.12881	0.07113
3882.20024	0.07124
3880.27168	0.07137
3878.34312	0.07186
3876.41455	0.07183
3874.48599	0.07142
3872.55742	0.07129
3870.62886	0.07130
3868.70029	0.07171
3866.77173	0.07227
3864.84316	0.07244
3862.91460	0.07294
3860.98604	0.07392
3859.05747	0.07440
3857.12891	0.07392
3855.20034	0.07276
3853.27178	0.07220
3851.34321	0.07397
3849.41465	0.07585
3847.48608	0.07654
3845.55752	0.07657
3843.62896	0.07650
3841.70039	0.07653
3839.77183	0.07648
3837.84326	0.07707
3835.91470	0.07845
3833.98613	0.07952
3832.05757	0.08039
3830.12900	0.08154
3828.20044	0.08268
3826.27187	0.08375
3824.34331	0.08446
3822.41475	0.08437
3820.48618	0.08474
3818.55762	0.08591
3816.62905	0.08662
3814.70049	0.08789
3812.77192	0.08969
3810.84336	0.09081
3808.91479	0.09139
3806.98623	0.09216
3805.05767	0.09338
3803.12910	0.09393
3801.20054	0.09422
3799.27197	0.09563
3797.34341	0.09725
3795.41484	0.09892
3793.48628	0.10070
3791.55771	0.10234
3789.62915	0.10411
3787.70059	0.10574
3785.77202	0.10704
3783.84346	0.10828
3781.91489	0.10940
3779.98633	0.11034
3778.05776	0.11177
3776.12920	0.11375
3774.20063	0.11562
3772.27207	0.11704
3770.34351	0.11829
3768.41494	0.12010
3766.48638	0.12227
3764.55781	0.12475
3762.62925	0.12723
3760.70068	0.12891
3758.77212	0.13060
3756.84355	0.13295
3754.91499	0.13486
3752.98643	0.13617
3751.05786	0.13809
3749.12930	0.14194
3747.20073	0.14532
3745.27217	0.14722
3743.34360	0.15116
3741.41504	0.15652
3739.48647	0.15997
3737.55791	0.16275
3735.62935	0.16641
3733.70078	0.17176
3731.77222	0.17840
3729.84365	0.18459
3727.91509	0.18956
3725.98652	0.19469
3724.05796	0.20053
3722.12939	0.20688
3720.20083	0.21457
3718.27227	0.22300
3716.34370	0.23090
3714.41514	0.23765
3712.48657	0.24510
3710.55801	0.25749
3708.62944	0.27339
3706.70088	0.28664
3704.77231	0.29832
3702.84375	0.31162
3700.91519	0.32882
3698.98662	0.34814
3697.05806	0.36654
3695.12949	0.38506
3693.20093	0.40386
3691.27236	0.42376
3689.34380	0.45015
3687.41523	0.48529
3685.48667	0.51828
3683.55811	0.54658
3681.62954	0.57522
3679.70098	0.60604
3677.77241	0.63796
3675.84385	0.67561
3673.91528	0.72801
3671.98672	0.77247
3670.05815	0.81140
3668.12959	0.86582
3666.20103	0.91738
3664.27246	0.95988
3662.34390	1.00403
3660.41533	1.05123
3658.48677	1.09751
3656.55820	1.14632
3654.62964	1.20095
3652.70107	1.24690
3650.77251	1.28585
3648.84395	1.33976
3646.91538	1.40931
3644.98682	1.46223
3643.05825	1.50240
3641.12969	1.54285
3639.20112	1.58689
3637.27256	1.63084
3635.34399	1.67354
3633.41543	1.71625
3631.48687	1.75668
3629.55830	1.79793
3627.62974	1.85207
3625.70117	1.90361
3623.77261	1.93832
3621.84404	1.97038
3619.91548	2.00699
3617.98691	2.05189
3616.05835	2.09461
3614.12979	2.13016
3612.20122	2.16968
3610.27266	2.21034
3608.34409	2.24964
3606.41553	2.29200
3604.48696	2.33374
3602.55840	2.37074
3600.62983	2.40790
3598.70127	2.44711
3596.77271	2.48627
3594.84414	2.52654
3592.91558	2.56762
3590.98701	2.60586
3589.05845	2.64078
3587.12988	2.68321
3585.20132	2.73246
3583.27275	2.77406
3581.34419	2.81165
3579.41562	2.85209
3577.48706	2.89474
3575.55850	2.93682
3573.62993	2.97879
3571.70137	3.02020
3569.77280	3.05958
3567.84424	3.09990
3565.91567	3.15011
3563.98711	3.19967
3562.05854	3.23952
3560.12998	3.28063
3558.20142	3.32644
3556.27285	3.37321
3554.34429	3.41780
3552.41572	3.46279
3550.48716	3.50809
3548.55859	3.55132
3546.63003	3.59411
3544.70146	3.64025
3542.77290	3.68988
3540.84434	3.73891
3538.91577	3.78440
3536.98721	3.82831
3535.05864	3.87844
3533.13008	3.93169
3531.20151	3.97848
3529.27295	4.02060
3527.34438	4.06657
3525.41582	4.11601
3523.48726	4.16505
3521.55869	4.21369
3519.63013	4.25860
3517.70156	4.30332
3515.77300	4.35172
3513.84443	4.40056
3511.91587	4.44755
3509.98730	4.49460
3508.05874	4.54371
3506.13018	4.58887
3504.20161	4.62867
3502.27305	4.67534
3500.34448	4.72803
3498.41592	4.77408
3496.48735	4.81902
3494.55879	4.86953
3492.63022	4.92021
3490.70166	4.96950
3488.77310	5.02223
3486.84453	5.07722
3484.91597	5.12554
3482.98740	5.16874
3481.05884	5.21880
3479.13027	5.27012
3477.20171	5.31307
3475.27314	5.35578
3473.34458	5.40163
3471.41602	5.44948
3469.48745	5.50569
3467.55889	5.56579
3465.63032	5.61644
3463.70176	5.66100
3461.77319	5.70721
3459.84463	5.75653
3457.91606	5.80664
3455.98750	5.85592
3454.05894	5.90741
3452.13037	5.96165
3450.20181	6.01039
3448.27324	6.04773
3446.34468	6.08922
3444.41611	6.14596
3442.48755	6.20474
3440.55898	6.24836
3438.63042	6.28567
3436.70186	6.33389
3434.77329	6.39337
3432.84473	6.45350
3430.91616	6.49688
3428.98760	6.52633
3427.05903	6.56482
3425.13047	6.61907
3423.20190	6.65924
3421.27334	6.68528
3419.34478	6.72886
3417.41621	6.78922
3415.48765	6.84596
3413.55908	6.89849
3411.63052	6.95292
3409.70195	6.99410
3407.77339	7.04925
3405.84482	7.13114
3403.91626	7.18482
3401.98770	7.18493
3400.05913	7.18933
3398.13057	7.23472
3396.20200	7.28534
3394.27344	7.32645
3392.34487	7.36234
3390.41631	7.40109
3388.48774	7.45351
3386.55918	7.51825
3384.63062	7.54727
3382.70205	7.52100
3380.77349	7.50032
3378.84492	7.51164
3376.91636	7.54205
3374.98779	7.58824
3373.05923	7.66925
3371.13066	7.73294
3369.20210	7.70242
3367.27354	7.63813
3365.34497	7.62989
3363.41641	7.65219
3361.48784	7.69349
3359.55928	7.78633
3357.63071	7.86701
3355.70215	7.89348
3353.77358	7.90829
3351.84502	7.93838
3349.91646	7.97200
3347.98789	7.99573
3346.05933	7.98063
3344.13076	7.92519
3342.20220	7.85503
3340.27363	7.81357
3338.34507	7.86532
3336.41650	7.94785
3334.48794	7.96985
3332.55937	7.94427
3330.63081	7.91233
3328.70225	7.88416
3326.77368	7.88453
3324.84512	7.93445
3322.91655	8.01654
3320.98799	8.09416
3319.05942	8.07965
3317.13086	7.99205
3315.20229	7.93344
3313.27373	7.94613
3311.34517	7.98320
3309.41660	7.99743
3307.48804	8.02182
3305.55947	8.04825
3303.63091	8.02546
3301.70234	7.99092
3299.77378	8.02594
3297.84521	8.03833
3295.91665	7.92415
3293.98809	7.80687
3292.05952	7.81869
3290.13096	7.92994
3288.20239	8.00736
3286.27383	8.01935
3284.34526	8.02153
3282.41670	8.03902
3280.48813	8.03465
3278.55957	7.95213
3276.63101	7.83965
3274.70244	7.79794
3272.77388	7.84540
3270.84531	7.92326
3268.91675	8.00583
3266.98818	8.12536
3265.05962	8.22246
3263.13105	8.17215
3261.20249	8.04393
3259.27393	7.98577
3257.34536	7.99180
3255.41680	7.93928
3253.48823	7.86910
3251.55967	7.88229
3249.63110	7.92009
3247.70254	7.90457
3245.77397	7.82713
3243.84541	7.78316
3241.91685	7.83898
3239.98828	7.90374
3238.05972	7.91287
3236.13115	7.91494
3234.20259	7.93283
3232.27402	7.92774
3230.34546	7.92884
3228.41689	7.96643
3226.48833	7.96353
3224.55977	7.88955
3222.63120	7.80071
3220.70264	7.72444
3218.77407	7.69889
3216.84551	7.72935
3214.91694	7.75377
3212.98838	7.74107
3211.05981	7.73387
3209.13125	7.76017
3207.20269	7.75690
3205.27412	7.69521
3203.34556	7.64490
3201.41699	7.64168
3199.48843	7.61744
3197.55986	7.56606
3195.63130	7.58452
3193.70273	7.62258
3191.77417	7.58325
3189.84561	7.51769
3187.91704	7.46866
3185.98848	7.42760
3184.05991	7.35925
3182.13135	7.25247
3180.20278	7.17575
3178.27422	7.15688
3176.34565	7.15549
3174.41709	7.12892
3172.48853	7.05334
3170.55996	6.95481
3168.63140	6.87711
3166.70283	6.81928
3164.77427	6.74985
3162.84570	6.66563
3160.91714	6.60048
3158.98857	6.56095
3157.06001	6.51914
3155.13145	6.46163
3153.20288	6.38619
3151.27432	6.30428
3149.34575	6.23792
3147.41719	6.18410
3145.48862	6.12580
3143.56006	6.05400
3141.63149	5.97650
3139.70293	5.90928
3137.77437	5.84887
3135.84580	5.78186
3133.91724	5.70717
3131.98867	5.62946
3130.06011	5.55227
3128.13154	5.47837
3126.20298	5.41109
3124.27441	5.34986
3122.34585	5.28791
3120.41729	5.21910
3118.48872	5.14217
3116.56016	5.06441
3114.63159	4.99339
3112.70303	4.92747
3110.77446	4.86082
3108.84590	4.79161
3106.91733	4.72066
3104.98877	4.64949
3103.06021	4.58155
3101.13164	4.51775
3099.20308	4.45532
3097.27451	4.38931
3095.34595	4.32009
3093.41738	4.25455
3091.48882	4.19198
3089.56025	4.12557
3087.63169	4.05732
3085.70312	3.99267
3083.77456	3.93080
3081.84600	3.87112
3079.91743	3.81165
3077.98887	3.74895
3076.06030	3.68582
3074.13174	3.62611
3072.20317	3.56823
3070.27461	3.50975
3068.34604	3.45259
3066.41748	3.39751
3064.48892	3.34170
3062.56035	3.28488
3060.63179	3.22915
3058.70322	3.17570
3056.77466	3.12330
3054.84609	3.06989
3052.91753	3.01659
3050.98896	2.96561
3049.06040	2.91682
3047.13184	2.86772
3045.20327	2.81686
3043.27471	2.76716
3041.34614	2.72040
3039.41758	2.67428
3037.48901	2.62759
3035.56045	2.58162
3033.63188	2.53691
3031.70332	2.49306
3029.77476	2.45029
3027.84619	2.40784
3025.91763	2.36509
3023.98906	2.32310
3022.06050	2.28213
3020.13193	2.24135
3018.20337	2.20126
3016.27480	2.16269
3014.34624	2.12460
3012.41768	2.08611
3010.48911	2.04842
3008.56055	2.01247
3006.63198	1.97710
3004.70342	1.94117
3002.77485	1.90533
3000.84629	1.87063
2998.91772	1.83729
2996.98916	1.80481
2995.06060	1.77255
2993.13203	1.74030
2991.20347	1.70849
2989.27490	1.67739
2987.34634	1.64653
2985.41777	1.61584
2983.48921	1.58608
2981.56064	1.55727
2979.63208	1.52887
2977.70352	1.50088
2975.77495	1.47316
2973.84639	1.44553
2971.91782	1.41839
2969.98926	1.39188
2968.06069	1.36607
2966.13213	1.34108
2964.20356	1.31665
2962.27500	1.29243
2960.34644	1.26851
2958.41787	1.24501
2956.48931	1.22186
2954.56074	1.19919
2952.63218	1.17731
2950.70361	1.15592
2948.77505	1.13430
2946.84648	1.11272
2944.91792	1.09195
2942.98936	1.07175
2941.06079	1.05202
2939.13223	1.03284
2937.20366	1.01364
2935.27510	0.99450
2933.34653	0.97647
2931.41797	0.95939
2929.48940	0.94224
2927.56084	0.92535
2925.63228	0.90917
2923.70371	0.89304
2921.77515	0.87699
2919.84658	0.86119
2917.91802	0.84496
2915.98945	0.82827
2914.06089	0.81203
2912.13232	0.79677
2910.20376	0.78259
2908.27520	0.76918
2906.34663	0.75579
2904.41807	0.74214
2902.48950	0.72858
2900.56094	0.71550
2898.63237	0.70286
2896.70381	0.69030
2894.77524	0.67790
2892.84668	0.66597
2890.91812	0.65436
2888.98955	0.64279
2887.06099	0.63123
2885.13242	0.61990
2883.20386	0.60912
2881.27529	0.59879
2879.34673	0.58838
2877.41816	0.57808
2875.48960	0.56828
2873.56104	0.55860
2871.63247	0.54879
2869.70391	0.53926
2867.77534	0.53012
2865.84678	0.52113
2863.91821	0.51227
2861.98965	0.50353
2860.06108	0.49505
2858.13252	0.48688
2856.20396	0.47893
2854.27539	0.47112
2852.34683	0.46323
2850.41826	0.45538
2848.48970	0.44771
2846.56113	0.44014
2844.63257	0.43286
2842.70400	0.42604
2840.77544	0.41952
2838.84687	0.41321
2836.91831	0.40715
2834.98975	0.40122
2833.06118	0.39532
2831.13262	0.38944
2829.20405	0.38362
2827.27549	0.37780
2825.34692	0.37192
2823.41836	0.36613
2821.48979	0.36072
2819.56123	0.35559
2817.63267	0.35024
2815.70410	0.34474
2813.77554	0.33950
2811.84697	0.33454
2809.91841	0.32967
2807.98984	0.32489
2806.06128	0.32010
2804.13271	0.31520
2802.20415	0.31040
2800.27559	0.30586
2798.34702	0.30153
2796.41846	0.29741
2794.48989	0.29340
2792.56133	0.28927
2790.63276	0.28505
2788.70420	0.28093
2786.77563	0.27698
2784.84707	0.27310
2782.91851	0.26928
2780.98994	0.26568
2779.06138	0.26230
2777.13281	0.25897
2775.20425	0.25557
2773.27568	0.25217
2771.34712	0.24885
2769.41855	0.24564
2767.48999	0.24248
2765.56143	0.23929
2763.63286	0.23614
2761.70430	0.23317
2759.77573	0.23042
2757.84717	0.22773
2755.91860	0.22499
2753.99004	0.22227
2752.06147	0.21963
2750.13291	0.21695
2748.20435	0.21432
2746.27578	0.21188
2744.34722	0.20958
2742.41865	0.20728
2740.49009	0.20497
2738.56152	0.20265
2736.63296	0.20037
2734.70439	0.19815
2732.77583	0.19596
2730.84727	0.19389
2728.91870	0.19195
2726.99014	0.18997
2725.06157	0.18799
2723.13301	0.18626
2721.20444	0.18458
2719.27588	0.18270
2717.34731	0.18087
2715.41875	0.17929
2713.49019	0.17763
2711.56162	0.17581
2709.63306	0.17422
2707.70449	0.17291
2705.77593	0.17156
2703.84736	0.17007
2701.91880	0.16849
2699.99023	0.16701
2698.06167	0.16570
2696.13311	0.16441
2694.20454	0.16313
2692.27598	0.16200
2690.34741	0.16100
2688.41885	0.15985
2686.49028	0.15857
2684.56172	0.15743
2682.63315	0.15648
2680.70459	0.15559
2678.77603	0.15468
2676.84746	0.15357
2674.91890	0.15239
2672.99033	0.15135
2671.06177	0.15040
2669.13320	0.14954
2667.20464	0.14879
2665.27607	0.14810
2663.34751	0.14749
2661.41895	0.14685
2659.49038	0.14605
2657.56182	0.14527
2655.63325	0.14476
2653.70469	0.14444
2651.77612	0.14400
2649.84756	0.14341
2647.91899	0.14285
2645.99043	0.14234
2644.06187	0.14186
2642.13330	0.14135
2640.20474	0.14091
2638.27617	0.14063
2636.34761	0.14030
2634.41904	0.13989
2632.49048	0.13967
2630.56191	0.13957
2628.63335	0.13935
2626.70479	0.13895
2624.77622	0.13864
2622.84766	0.13859
2620.91909	0.13865
2618.99053	0.13855
2617.06196	0.13823
2615.13340	0.13793
2613.20483	0.13786
2611.27627	0.13795
2609.34771	0.13807
2607.41914	0.13821
2605.49058	0.13833
2603.56201	0.13845
2601.63345	0.13858
2599.70488	0.13861
2597.77632	0.13864
2595.84775	0.13876
2593.91919	0.13896
2591.99062	0.13920
2590.06206	0.13944
2588.13350	0.13964
2586.20493	0.13980
2584.27637	0.13997
2582.34780	0.14025
2580.41924	0.14059
2578.49067	0.14100
2576.56211	0.14146
2574.63354	0.14195
2572.70498	0.14240
2570.77642	0.14276
2568.84785	0.14311
2566.91929	0.14364
2564.99072	0.14425
2563.06216	0.14468
2561.13359	0.14501
2559.20503	0.14547
2557.27646	0.14601
2555.34790	0.14656
2553.41934	0.14716
2551.49077	0.14781
2549.56221	0.14841
2547.63364	0.14892
2545.70508	0.14949
2543.77651	0.15028
2541.84795	0.15115
2539.91938	0.15185
2537.99082	0.15241
2536.06226	0.15306
2534.13369	0.15378
2532.20513	0.15452
2530.27656	0.15528
2528.34800	0.15607
2526.41943	0.15689
2524.49087	0.15765
2522.56230	0.15836
2520.63374	0.15910
2518.70518	0.15990
2516.77661	0.16080
2514.84805	0.16168
2512.91948	0.16241
2510.99092	0.16318
2509.06235	0.16414
2507.13379	0.16518
2505.20522	0.16612
2503.27666	0.16687
2501.34810	0.16756
2499.41953	0.16840
2497.49097	0.16939
2495.56240	0.17037
2493.63384	0.17117
2491.70527	0.17198
2489.77671	0.17301
2487.84814	0.17410
2485.91958	0.17517
2483.99102	0.17619
2482.06245	0.17705
2480.13389	0.17784
2478.20532	0.17869
2476.27676	0.17962
2474.34819	0.18069
2472.41963	0.18180
2470.49106	0.18282
2468.56250	0.18370
2466.63394	0.18452
2464.70537	0.18545
2462.77681	0.18638
2460.84824	0.18733
2458.91968	0.18839
2456.99111	0.18934
2455.06255	0.19009
2453.13398	0.19102
2451.20542	0.19220
2449.27686	0.19342
2447.34829	0.19457
2445.41973	0.19561
2443.49116	0.19665
2441.56260	0.19772
2439.63403	0.19878
2437.70547	0.19991
2435.77690	0.20098
2433.84834	0.20188
2431.91978	0.20283
2429.99121	0.20400
2428.06265	0.20521
2426.13408	0.20641
2424.20552	0.20761
2422.27695	0.20879
2420.34839	0.20989
2418.41982	0.21091
2416.49126	0.21195
2414.56270	0.21311
2412.63413	0.21437
2410.70557	0.21560
2408.77700	0.21675
2406.84844	0.21783
2404.91987	0.21896
2402.99131	0.22018
2401.06274	0.22146
2399.13418	0.22277
2397.20562	0.22410
2395.27705	0.22528
2393.34849	0.22639
2391.41992	0.22773
2389.49136	0.22928
2387.56279	0.23090
2385.63423	0.23271
2383.70566	0.23482
2381.77710	0.23721
2379.84854	0.23986
2377.91997	0.24268
2375.99141	0.24572
2374.06284	0.24899
2372.13428	0.25220
2370.20571	0.25563
2368.27715	0.25958
2366.34858	0.26325
2364.42002	0.26653
2362.49146	0.26994
2360.56289	0.27209
2358.63433	0.27253
2356.70576	0.27295
2354.77720	0.27328
2352.84863	0.27308
2350.92007	0.27267
2348.99150	0.27279
2347.06294	0.27414
2345.13437	0.27694
2343.20581	0.27988
2341.27725	0.28125
2339.34868	0.28218
2337.42012	0.28373
2335.49155	0.28548
2333.56299	0.28690
2331.63442	0.28821
2329.70586	0.28998
2327.77729	0.29209
2325.84873	0.29352
2323.92017	0.29426
2321.99160	0.29507
2320.06304	0.29603
2318.13447	0.29648
2316.20591	0.29652
2314.27734	0.29725
2312.34878	0.29880
2310.42021	0.30026
2308.49165	0.30127
2306.56309	0.30197
2304.63452	0.30248
2302.70596	0.30331
2300.77739	0.30485
2298.84883	0.30676
2296.92026	0.30857
2294.99170	0.31004
2293.06313	0.31125
2291.13457	0.31244
2289.20601	0.31381
2287.27744	0.31544
2285.34888	0.31721
2283.42031	0.31891
2281.49175	0.32072
2279.56318	0.32285
2277.63462	0.32502
2275.70605	0.32705
2273.77749	0.32906
2271.84893	0.33117
2269.92036	0.33330
2267.99180	0.33534
2266.06323	0.33729
2264.13467	0.33928
2262.20610	0.34144
2260.27754	0.34366
2258.34897	0.34576
2256.42041	0.34776
2254.49185	0.34978
2252.56328	0.35183
2250.63472	0.35382
2248.70615	0.35587
2246.77759	0.35810
2244.84902	0.36037
2242.92046	0.36250
2240.99189	0.36447
2239.06333	0.36647
2237.13477	0.36869
2235.20620	0.37098
2233.27764	0.37322
2231.34907	0.37544
2229.42051	0.37761
2227.49194	0.37978
2225.56338	0.38210
2223.63481	0.38454
2221.70625	0.38691
2219.77769	0.38906
2217.84912	0.39110
2215.92056	0.39320
2213.99199	0.39537
2212.06343	0.39748
2210.13486	0.39952
2208.20630	0.40155
2206.27773	0.40362
2204.34917	0.40576
2202.42061	0.40798
2200.49204	0.41008
2198.56348	0.41201
2196.63491	0.41397
2194.70635	0.41595
2192.77778	0.41779
2190.84922	0.41959
2188.92065	0.42143
2186.99209	0.42332
2185.06353	0.42515
2183.13496	0.42684
2181.20640	0.42854
2179.27783	0.43031
2177.34927	0.43197
2175.42070	0.43343
2173.49214	0.43489
2171.56357	0.43644
2169.63501	0.43792
2167.70645	0.43925
2165.77788	0.44055
2163.84932	0.44178
2161.92075	0.44293
2159.99219	0.44415
2158.06362	0.44540
2156.13506	0.44645
2154.20649	0.44730
2152.27793	0.44812
2150.34937	0.44887
2148.42080	0.44941
2146.49224	0.44995
2144.56367	0.45063
2142.63511	0.45130
2140.70654	0.45175
2138.77798	0.45199
2136.84941	0.45214
2134.92085	0.45224
2132.99229	0.45232
2131.06372	0.45237
2129.13516	0.45236
2127.20659	0.45221
2125.27803	0.45188
2123.34946	0.45146
2121.42090	0.45109
2119.49233	0.45069
2117.56377	0.45016
2115.63521	0.44954
2113.70664	0.44881
2111.77808	0.44796
2109.84951	0.44704
2107.92095	0.44609
2105.99238	0.44506
2104.06382	0.44398
2102.13525	0.44283
2100.20669	0.44167
2098.27812	0.44045
2096.34956	0.43904
2094.42100	0.43751
2092.49243	0.43601
2090.56387	0.43443
2088.63530	0.43268
2086.70674	0.43098
2084.77817	0.42930
2082.84961	0.42744
2080.92104	0.42548
2078.99248	0.42357
2077.06392	0.42165
2075.13535	0.41964
2073.20679	0.41759
2071.27822	0.41552
2069.34966	0.41341
2067.42109	0.41118
2065.49253	0.40882
2063.56396	0.40644
2061.63540	0.40405
2059.70684	0.40162
2057.77827	0.39919
2055.84971	0.39670
2053.92114	0.39418
2051.99258	0.39173
2050.06401	0.38928
2048.13545	0.38675
2046.20688	0.38411
2044.27832	0.38146
2042.34976	0.37885
2040.42119	0.37624
2038.49263	0.37363
2036.56406	0.37101
2034.63550	0.36831
2032.70693	0.36549
2030.77837	0.36268
2028.84980	0.36000
2026.92124	0.35745
2024.99268	0.35485
2023.06411	0.35213
2021.13555	0.34934
2019.20698	0.34655
2017.27842	0.34377
2015.34985	0.34105
2013.42129	0.33844
2011.49272	0.33577
2009.56416	0.33303
2007.63560	0.33035
2005.70703	0.32780
2003.77847	0.32530
2001.84990	0.32266
1999.92134	0.31990
1997.99277	0.31718
1996.06421	0.31455
1994.13564	0.31194
1992.20708	0.30941
1990.27852	0.30702
1988.34995	0.30473
1986.42139	0.30239
1984.49282	0.30003
1982.56426	0.29760
1980.63569	0.29511
1978.70713	0.29279
1976.77856	0.29067
1974.85000	0.28852
1972.92144	0.28632
1970.99287	0.28417
1969.06431	0.28204
1967.13574	0.27993
1965.20718	0.27792
1963.27861	0.27597
1961.35005	0.27404
1959.42148	0.27219
1957.49292	0.27042
1955.56436	0.26867
1953.63579	0.26690
1951.70723	0.26514
1949.77866	0.26343
1947.85010	0.26177
1945.92153	0.26017
1943.99297	0.25862
1942.06440	0.25711
1940.13584	0.25569
1938.20728	0.25437
1936.27871	0.25307
1934.35015	0.25175
1932.42158	0.25048
1930.49302	0.24927
1928.56445	0.24811
1926.63589	0.24696
1924.70732	0.24579
1922.77876	0.24462
1920.85020	0.24348
1918.92163	0.24242
1916.99307	0.24157
1915.06450	0.24091
1913.13594	0.24020
1911.20737	0.23946
1909.27881	0.23875
1907.35024	0.23808
1905.42168	0.23743
1903.49312	0.23688
1901.56455	0.23639
1899.63599	0.23585
1897.70742	0.23528
1895.77886	0.23480
1893.85029	0.23444
1891.92173	0.23404
1889.99316	0.23367
1888.06460	0.23338
1886.13604	0.23315
1884.20747	0.23296
1882.27891	0.23286
1880.35034	0.23282
1878.42178	0.23273
1876.49321	0.23272
1874.56465	0.23277
1872.63608	0.23276
1870.70752	0.23255
1868.77896	0.23250
1866.85039	0.23284
1864.92183	0.23320
1862.99326	0.23350
1861.06470	0.23384
1859.13613	0.23420
1857.20757	0.23454
1855.27900	0.23499
1853.35044	0.23549
1851.42187	0.23598
1849.49331	0.23636
1847.56475	0.23671
1845.63618	0.23716
1843.70762	0.23799
1841.77905	0.23909
1839.85049	0.23989
1837.92192	0.24070
1835.99336	0.24160
1834.06479	0.24253
1832.13623	0.24336
1830.20767	0.24442
1828.27910	0.24583
1826.35054	0.24706
1824.42197	0.24839
1822.49341	0.24982
1820.56484	0.25121
1818.63628	0.25259
1816.70771	0.25417
1814.77915	0.25571
1812.85059	0.25721
1810.92202	0.25900
1808.99346	0.26115
1807.06489	0.26339
1805.13633	0.26547
1803.20776	0.26753
1801.27920	0.26962
1799.35063	0.27207
1797.42207	0.27461
1795.49351	0.27702
1793.56494	0.27953
1791.63638	0.28306
1789.70781	0.28713
1787.77925	0.29020
1785.85068	0.29322
1783.92212	0.29665
1781.99355	0.30042
1780.06499	0.30457
1778.13643	0.30901
1776.20786	0.31295
1774.27930	0.31672
1772.35073	0.32196
1770.42217	0.32837
1768.49360	0.33424
1766.56504	0.33987
1764.63647	0.34532
1762.70791	0.35089
1760.77935	0.35812
1758.85078	0.36528
1756.92222	0.37252
1754.99365	0.38049
1753.06509	0.38747
1751.13652	0.39524
1749.20796	0.40527
1747.27939	0.41585
1745.35083	0.42540
1743.42227	0.43535
1741.49370	0.44597
1739.56514	0.45835
1737.63657	0.47095
1735.70801	0.48164
1733.77944	0.49720
1731.85088	0.51690
1729.92231	0.53341
1727.99375	0.54997
1726.06519	0.56711
1724.13662	0.58523
1722.20806	0.60466
1720.27949	0.62229
1718.35093	0.64233
1716.42236	0.67300
1714.49380	0.70405
1712.56523	0.72957
1710.63667	0.75357
1708.70811	0.77867
1706.77954	0.80680
1704.85098	0.84053
1702.92241	0.87063
1700.99385	0.89961
1699.06528	0.94305
1697.13672	0.98393
1695.20815	1.02605
1693.27959	1.06665
1691.35103	1.09844
1689.42246	1.13398
1687.49390	1.17093
1685.56533	1.20590
1683.63677	1.26045
1681.70820	1.31903
1679.77964	1.35705
1677.85107	1.39221
1675.92251	1.43181
1673.99395	1.48065
1672.06538	1.52373
1670.13682	1.56577
1668.20825	1.62088
1666.27969	1.66464
1664.35112	1.69973
1662.42256	1.74306
1660.49399	1.79224
1658.56543	1.83061
1656.63687	1.86147
1654.70830	1.89061
1652.77974	1.94179
1650.85117	1.99422
1648.92261	2.01547
1646.99404	2.04378
1645.06548	2.07952
1643.13691	2.10469
1641.20835	2.12045
1639.27979	2.13282
1637.35122	2.14064
1635.42266	2.14546
1633.49409	2.14508
1631.56553	2.13530
1629.63696	2.12016
1627.70840	2.09566
1625.77983	2.06809
1623.85127	2.03393
1621.92271	1.99159
1619.99414	1.95297
1618.06558	1.91346
1616.13701	1.85630
1614.20845	1.79853
1612.27988	1.75455
1610.35132	1.70781
1608.42275	1.65590
1606.49419	1.60348
1604.56562	1.55466
1602.63706	1.50781
1600.70850	1.46203
1598.77993	1.41948
1596.85137	1.37901
1594.92280	1.33962
1592.99424	1.30153
1591.06567	1.26598
1589.13711	1.23212
1587.20854	1.20061
1585.27998	1.17124
1583.35142	1.14297
1581.42285	1.11643
1579.49429	1.09289
1577.56572	1.07053
1575.63716	1.04312
1573.70859	1.01947
1571.78003	1.00355
1569.85146	0.98553
1567.92290	0.96489
1565.99434	0.94855
1564.06577	0.93440
1562.13721	0.92219
1560.20864	0.91062
1558.28008	0.88976
1556.35151	0.87242
1554.42295	0.86262
1552.49438	0.85264
1550.56582	0.84269
1548.63726	0.83252
1546.70869	0.82334
1544.78013	0.81447
1542.85156	0.80501
1540.92300	0.79480
1538.99443	0.78340
1537.06587	0.77594
1535.13730	0.77038
1533.20874	0.76318
1531.28018	0.75578
1529.35161	0.75007
1527.42305	0.74424
1525.49448	0.73814
1523.56592	0.73245
1521.63735	0.72626
1519.70879	0.72000
1517.78022	0.71499
1515.85166	0.71003
1513.92310	0.70538
1511.99453	0.70120
1510.06597	0.69685
1508.13740	0.69239
1506.20884	0.68739
1504.28027	0.68385
1502.35171	0.68119
1500.42314	0.67811
1498.49458	0.67460
1496.56602	0.67105
1494.63745	0.66812
1492.70889	0.66547
1490.78032	0.66231
1488.85176	0.65864
1486.92319	0.65577
1484.99463	0.65348
1483.06606	0.65106
1481.13750	0.64834
1479.20894	0.64555
1477.28037	0.64285
1475.35181	0.63992
1473.42324	0.63693
1471.49468	0.63419
1469.56611	0.63192
1467.63755	0.62956
1465.70898	0.62682
1463.78042	0.62416
1461.85186	0.62201
1459.92329	0.62004
1457.99473	0.61785
1456.06616	0.61556
1454.13760	0.61368
1452.20903	0.61202
1450.28047	0.61022
1448.35190	0.60831
1446.42334	0.60652
1444.49478	0.60497
1442.56621	0.60350
1440.63765	0.60186
1438.70908	0.60009
1436.78052	0.59838
1434.85195	0.59710
1432.92339	0.59593
1430.99482	0.59461
1429.06626	0.59328
1427.13770	0.59196
1425.20913	0.59052
1423.28057	0.58896
1421.35200	0.58734
1419.42344	0.58552
1417.49487	0.58389
1415.56631	0.58271
1413.63774	0.58156
1411.70918	0.58016
1409.78062	0.57865
1407.85205	0.57731
1405.92349	0.57610
1403.99492	0.57491
1402.06636	0.57367
1400.13779	0.57234
1398.20923	0.57089
1396.28066	0.56945
1394.35210	0.56817
1392.42354	0.56711
1390.49497	0.56607
1388.56641	0.56489
1386.63784	0.56373
1384.70928	0.56275
1382.78071	0.56190
1380.85215	0.56107
1378.92358	0.56018
1376.99502	0.55921
1375.06646	0.55824
1373.13789	0.55727
1371.20933	0.55626
1369.28076	0.55524
1367.35220	0.55429
1365.42363	0.55336
1363.49507	0.55239
1361.56650	0.55142
1359.63794	0.55049
1357.70937	0.54964
1355.78081	0.54879
1353.85225	0.54793
1351.92368	0.54716
1349.99512	0.54646
1348.06655	0.54570
1346.13799	0.54484
1344.20942	0.54399
1342.28086	0.54309
1340.35229	0.54203
1338.42373	0.54099
1336.49517	0.54029
1334.56660	0.53971
1332.63804	0.53901
1330.70947	0.53816
1328.78091	0.53732
1326.85234	0.53654
1324.92378	0.53574
1322.99521	0.53495
1321.06665	0.53428
1319.13809	0.53369
1317.20952	0.53289
1315.28096	0.53191
1313.35239	0.53106
1311.42383	0.53044
1309.49526	0.52975
1307.56670	0.52888
1305.63813	0.52810
1303.70957	0.52744
1301.78101	0.52683
1299.85244	0.52633
1297.92388	0.52582
1295.99531	0.52514
1294.06675	0.52437
1292.13818	0.52362
1290.20962	0.52298
1288.28105	0.52254
1286.35249	0.52225
1284.42393	0.52193
1282.49536	0.52155
1280.56680	0.52122
1278.63823	0.52078
1276.70967	0.52016
1274.78110	0.51965
1272.85254	0.51929
1270.92397	0.51895
1268.99541	0.51863
1267.06685	0.51820
1265.13828	0.51764
1263.20972	0.51727
1261.28115	0.51706
1259.35259	0.51672
1257.42402	0.51629
1255.49546	0.51595
1253.56689	0.51571
1251.63833	0.51537
1249.70977	0.51499
1247.78120	0.51479
1245.85264	0.51467
1243.92407	0.51437
1241.99551	0.51381
1240.06694	0.51323
1238.13838	0.51281
1236.20981	0.51239
1234.28125	0.51184
1232.35269	0.51130
1230.42412	0.51087
1228.49556	0.51044
1226.56699	0.50993
1224.63843	0.50933
1222.70986	0.50876
1220.78130	0.50827
1218.85273	0.50776
1216.92417	0.50711
1214.99561	0.50640
1213.06704	0.50582
1211.13848	0.50532
1209.20991	0.50474
1207.28135	0.50415
1205.35278	0.50367
1203.42422	0.50322
1201.49565	0.50268
1199.56709	0.50213
1197.63853	0.50164
1195.70996	0.50121
1193.78140	0.50084
1191.85283	0.50042
1189.92427	0.50005
1187.99570	0.49981
1186.06714	0.49955
1184.13857	0.49929
1182.21001	0.49920
1180.28145	0.49929
1178.35288	0.49944
1176.42432	0.49958
1174.49575	0.49980
1172.56719	0.50018
1170.63862	0.50066
1168.71006	0.50101
1166.78149	0.50124
1164.85293	0.50149
1162.92437	0.50165
1160.99580	0.50160
1159.06724	0.50133
1157.13867	0.50079
1155.21011	0.49993
1153.28154	0.49867
1151.35298	0.49711
1149.42441	0.49544
1147.49585	0.49373
1145.56729	0.49187
1143.63872	0.48974
1141.71016	0.48742
1139.78159	0.48522
1137.85303	0.48312
1135.92446	0.48088
1133.99590	0.47870
1132.06733	0.47681
1130.13877	0.47506
1128.21021	0.47337
1126.28164	0.47193
1124.35308	0.47086
1122.42451	0.47012
1120.49595	0.46959
1118.56738	0.46914
1116.63882	0.46879
1114.71025	0.46861
1112.78169	0.46877
1110.85312	0.46931
1108.92456	0.47007
1106.99600	0.47097
1105.06743	0.47212
1103.13887	0.47358
1101.21030	0.47535
1099.28174	0.47748
1097.35317	0.47993
1095.42461	0.48264
1093.49604	0.48597
1091.56748	0.49027
1089.63892	0.49510
1087.71035	0.50026
1085.78179	0.50615
1083.85322	0.51259
1081.92466	0.51888
1079.99609	0.52429
1078.06753	0.52819
1076.13896	0.52980
1074.21040	0.52850
1072.28184	0.52453
1070.35327	0.51873
1068.42471	0.51211
1066.49614	0.50563
1064.56758	0.49984
1062.63901	0.49469
1060.71045	0.48997
1058.78188	0.48564
1056.85332	0.48168
1054.92476	0.47817
1052.99619	0.47526
1051.06763	0.47277
1049.13906	0.47041
1047.21050	0.46834
1045.28193	0.46692
1043.35337	0.46602
1041.42480	0.46525
1039.49624	0.46452
1037.56768	0.46407
1035.63911	0.46397
1033.71055	0.46391
1031.78198	0.46378
1029.85342	0.46380
1027.92485	0.46410
1025.99629	0.46466
1024.06772	0.46546
1022.13916	0.46640
1020.21060	0.46728
1018.28203	0.46813
1016.35347	0.46909
1014.42490	0.47014
1012.49634	0.47139
1010.56777	0.47289
1008.63921	0.47462
1006.71064	0.47647
1004.78208	0.47842
1002.85352	0.48070
1000.92495	0.48335
998.99639	0.48618
997.06782	0.48939
995.13926	0.49323
993.21069	0.49728
991.28213	0.50071
989.35356	0.50322
987.42500	0.50494
985.49644	0.50621
983.56787	0.50737
981.63931	0.50856
979.71074	0.50993
977.78218	0.51173
975.85361	0.51415
973.92505	0.51709
971.99648	0.52025
970.06792	0.52361
968.13936	0.52741
966.21079	0.53159
964.28223	0.53597
962.35366	0.54046
960.42510	0.54522
958.49653	0.55044
956.56797	0.55617
954.63940	0.56233
952.71084	0.56865
950.78228	0.57488
948.85371	0.58110
946.92515	0.58747
944.99658	0.59349
943.06802	0.59885
941.13945	0.60423
939.21089	0.61008
937.28232	0.61619
935.35376	0.62219
933.42520	0.62789
931.49663	0.63317
929.56807	0.63829
927.63950	0.64370
925.71094	0.64949
923.78237	0.65544
921.85381	0.66134
919.92524	0.66771
917.99668	0.67492
916.06812	0.68217
914.13955	0.68880
912.21099	0.69561
910.28242	0.70409
908.35386	0.71368
906.42529	0.72241
904.49673	0.73032
902.56816	0.73850
900.63960	0.74717
898.71104	0.75600
896.78247	0.76483
894.85391	0.77388
892.92534	0.78372
890.99678	0.79450
889.06821	0.80486
887.13965	0.81413
885.21108	0.82428
883.28252	0.83601
881.35396	0.84768
879.42539	0.85909
877.49683	0.87086
875.56826	0.88240
873.63970	0.89366
871.71113	0.90498
869.78257	0.91591
867.85400	0.92679
865.92544	0.93820
863.99687	0.94939
862.06831	0.96038
860.13975	0.97085
858.21118	0.98043
856.28262	0.99130
854.35405	1.00382
852.42549	1.01578
850.49692	1.02746
848.56836	1.03873
846.63979	1.04931
844.71123	1.06079
842.78267	1.07265
840.85410	1.08394
838.92554	1.09455
836.99697	1.10528
835.06841	1.11630
833.13984	1.12423
831.21128	1.12968
829.28271	1.13823
827.35415	1.15118
825.42559	1.16564
823.49702	1.17996
821.56846	1.19226
819.63989	1.20173
817.71133	1.20954
815.78276	1.21622
813.85420	1.22591
811.92563	1.23964
809.99707	1.24941
808.06851	1.25736
806.13994	1.27125
804.21138	1.28842
802.28281	1.30451
800.35425	1.29170
798.42568	1.24230
796.49712	1.18625
794.56855	1.14121
792.63999	1.09828
790.71143	1.04255
788.78286	1.00049
786.85430	0.98060
784.92573	0.96195
782.99717	0.93935
781.06860	0.91558
779.14004	0.88313
777.21147	0.84939
775.28291	0.82277
773.35435	0.79794
771.42578	0.77892
769.49722	0.76697
767.56865	0.74694
765.64009	0.72042
763.71152	0.69547
761.78296	0.66781
759.85439	0.64427
757.92583	0.61928
755.99727	0.57668
754.06870	0.53694
752.14014	0.51644
750.21157	0.49561
748.28301	0.46156
746.35444	0.41965
744.42588	0.37997
742.49731	0.34846
740.56875	0.30388
738.64019	0.23192
736.71162	0.15624
734.78306	0.09602
732.85449	0.03792
730.92593	-0.03309
728.99736	-0.11701
727.06880	-0.20396
725.14023	-0.29396
723.21167	-0.39997
721.28311	-0.49058
719.35454	-0.50335
717.42598	-0.48792
715.49741	-0.51766
713.56885	-0.57847
711.64028	-0.61845
709.71172	-0.63468
707.78315	-0.61717
705.85459	-0.60305
703.92603	-0.59166
701.99746	-0.57241
700.06890	-0.49785
698.14033	-0.41684
696.21177	-0.38813
694.28320	-0.40816
692.35464	-0.45188
690.42607	-0.45316
688.49751	-0.40575
686.56895	-0.38186
684.64038	-0.39531
682.71182	-0.39966
680.78325	-0.39141
678.85469	-0.39104
676.92612	-0.37670
674.99756	-0.35280
673.06899	-0.33421
671.14043	-0.32014
669.21187	-0.33718
667.28330	-0.39204
665.35474	-0.42293
663.42617	-0.39519
661.49761	-0.36318
659.56904	-0.34442
657.64048	-0.31371
655.71191	-0.28899
653.78335	-0.31210
651.85479	-0.34677
649.92622	-0.34862
647.99766	-0.35594
646.06909	-0.38581
644.14053	-0.40819
642.21196	-0.38603
640.28340	-0.33131
638.35483	-0.29850
636.42627	-0.29406
634.49771	-0.29998
632.56914	-0.31820
630.64058	-0.32622
628.71201	-0.30418
626.78345	-0.29100
624.85488	-0.30020
622.92632	-0.30781
620.99775	-0.29910
619.06919	-0.28796
617.14062	-0.29587
615.21206	-0.31601
613.28350	-0.34359
611.35493	-0.36824
609.42637	-0.34626
607.49780	-0.30165
605.56924	-0.29637
603.64067	-0.33405
601.71211	-0.36193
599.78354	-0.33875
597.85498	-0.30365
595.92642	-0.29308
593.99785	-0.28905
592.06929	-0.28181
590.14072	-0.29279
588.21216	-0.31136
586.28359	-0.30352
584.35503	-0.28756
582.42646	-0.29413
580.49790	-0.29819
578.56934	-0.27528
576.64077	-0.25612
574.71221	-0.25692
572.78364	-0.26731
570.85508	-0.29249
568.92651	-0.33961
566.99795	-0.36985
565.06938	-0.36075
563.14082	-0.33495
561.21226	-0.29377
559.28369	-0.25416
557.35513	-0.24127
555.42656	-0.26232
553.49800	-0.29143
551.56943	-0.28188
549.64087	-0.24520
547.71230	-0.23624
545.78374	-0.26176
543.85518	-0.27844
541.92661	-0.27390
539.99805	-0.25890
538.06948	-0.23666
536.14092	-0.22932
534.21235	-0.24217
532.28379	-0.25764
530.35522	-0.26922
528.42666	-0.26919
526.49810	-0.25352
524.56953	-0.23439
522.64097	-0.23372
520.71240	-0.25855
518.78384	-0.27947
516.85527	-0.29602
514.92671	-0.31242
512.99814	-0.30026
511.06958	-0.28744
509.14102	-0.27865
507.21245	-0.24272
505.28389	-0.21360
503.35532	-0.23168
501.42676	-0.26650
499.49819	-0.26544
