3997.91411	0.06830
3995.98555	0.06838
3994.05698	0.06848
3992.12842	0.06888
3990.19985	0.06981
3988.27129	0.07067
3986.34272	0.07109
3984.41416	0.07134
3982.48560	0.07156
3980.55703	0.07152
3978.62847	0.07114
3976.69990	0.07097
3974.77134	0.07162
3972.84277	0.07265
3970.91421	0.07301
3968.98564	0.07284
3967.05708	0.07287
3965.12852	0.07302
3963.19995	0.07314
3961.27139	0.07328
3959.34282	0.07352
3957.41426	0.07397
3955.48569	0.07435
3953.55713	0.07430
3951.62856	0.07438
3949.70000	0.07470
3947.77144	0.07470
3945.84287	0.07477
3943.91431	0.07532
3941.98574	0.07559
3940.05718	0.07493
3938.12861	0.07388
3936.20005	0.07327
3934.27148	0.07345
3932.34292	0.07424
3930.41436	0.07489
3928.48579	0.07489
3926.55723	0.07464
3924.62866	0.07469
3922.70010	0.07477
3920.77153	0.07470
3918.84297	0.07495
3916.91440	0.07527
3914.98584	0.07498
3913.05728	0.07417
3911.12871	0.07326
3909.20015	0.07275
3907.27158	0.07315
3905.34302	0.07447
3903.41445	0.07615
3901.48589	0.07693
3899.55732	0.07634
3897.62876	0.07514
3895.70020	0.07416
3893.77163	0.07403
3891.84307	0.07476
3889.91450	0.07507
3887.98594	0.07461
3886.05737	0.07484
3884.12881	0.07572
3882.20024	0.07622
3880.27168	0.07673
3878.34312	0.07682
3876.41455	0.07627
3874.48599	0.07668
3872.55742	0.07811
3870.62886	0.07909
3868.70029	0.07913
3866.77173	0.07860
3864.84316	0.07896
3862.91460	0.07997
3860.98604	0.07943
3859.05747	0.07830
3857.12891	0.07861
3855.20034	0.08057
3853.27178	0.08389
3851.34321	0.08533
3849.41465	0.08301
3847.48608	0.08091
3845.55752	0.08040
3843.62896	0.08152
3841.70039	0.08390
3839.77183	0.08659
3837.84326	0.08820
3835.91470	0.08795
3833.98613	0.08729
3832.05757	0.08702
3830.12900	0.08693
3828.20044	0.08720
3826.27187	0.08812
3824.34331	0.08931
3822.41475	0.09074
3820.48618	0.09296
3818.55762	0.09405
3816.62905	0.09400
3814.70049	0.09447
3812.77192	0.09435
3810.84336	0.09389
3808.91479	0.09442
3806.98623	0.09632
3805.05767	0.09855
3803.12910	0.10023
3801.20054	0.10222
3799.27197	0.10358
3797.34341	0.10345
3795.41484	0.10344
3793.48628	0.10375
3791.55771	0.10425
3789.62915	0.10515
3787.70059	0.10646
3785.77202	0.10824
3783.84346	0.11005
3781.91489	0.11139
3779.98633	0.11308
3778.05776	0.11512
3776.12920	0.11622
3774.20063	0.11705
3772.27207	0.11877
3770.34351	0.12156
3768.41494	0.12464
3766.48638	0.12701
3764.55781	0.12894
3762.62925	0.13043
3760.70068	0.13209
3758.77212	0.13487
3756.84355	0.13780
3754.91499	0.13984
3752.98643	0.14213
3751.05786	0.14642
3749.12930	0.15240
3747.20073	0.15580
3745.27217	0.15748
3743.34360	0.16064
3741.41504	0.16382
3739.48647	0.16598
3737.55791	0.16913
3735.62935	0.17421
3733.70078	0.17970
3731.77222	0.18416
3729.84365	0.18857
3727.91509	0.19327
3725.98652	0.19880
3724.05796	0.20487
3722.12939	0.21103
3720.20083	0.21773
3718.27227	0.22478
3716.34370	0.23213
3714.41514	0.23991
3712.48657	0.24986
3710.55801	0.26385
3708.62944	0.27766
3706.70088	0.28816
3704.77231	0.29835
3702.84375	0.31102
3700.91519	0.32795
3698.98662	0.34608
3697.05806	0.36283
3695.12949	0.38073
3693.20093	0.40040
3691.27236	0.42269
3689.34380	0.45185
3687.41523	0.48647
3685.48667	0.51561
3683.55811	0.54084
3681.62954	0.56874
3679.70098	0.60048
3677.77241	0.63383
3675.84385	0.67353
3673.91528	0.72729
3671.98672	0.77147
3670.05815	0.81024
3668.12959	0.86214
3666.20103	0.90933
3664.27246	0.94934
3662.34390	0.99262
3660.41533	1.03978
3658.48677	1.08663
3656.55820	1.13624
3654.62964	1.19140
3652.70107	1.23826
3650.77251	1.27961
3648.84395	1.33579
3646.91538	1.40279
3644.98682	1.45202
3643.05825	1.49091
3641.12969	1.53112
3639.20112	1.57513
3637.27256	1.61952
3635.34399	1.66338
3633.41543	1.70726
3631.48687	1.74841
3629.55830	1.79103
3627.62974	1.84511
3625.70117	1.89287
3623.77261	1.92486
3621.84404	1.95633
3619.91548	1.99363
3617.98691	2.04103
3616.05835	2.08763
3614.12979	2.12521
3612.20122	2.16330
3610.27266	2.20179
3608.34409	2.24033
3606.41553	2.28116
3604.48696	2.32036
3602.55840	2.35622
3600.62983	2.39474
3598.70127	2.43644
3596.77271	2.47605
3594.84414	2.51553
3592.91558	2.55630
3590.98701	2.59421
3589.05845	2.62966
3587.12988	2.67292
3585.20132	2.72185
3583.27275	2.76312
3581.34419	2.80004
3579.41562	2.83942
3577.48706	2.88153
3575.55850	2.92403
3573.62993	2.96714
3571.70137	3.00891
3569.77280	3.04804
3567.84424	3.08984
3565.91567	3.14256
3563.98711	3.19340
3562.05854	3.23351
3560.12998	3.27309
3558.20142	3.31540
3556.27285	3.35913
3554.34429	3.40399
3552.41572	3.45202
3550.48716	3.50069
3548.55859	3.54598
3546.63003	3.59083
3544.70146	3.63914
3542.77290	3.68583
3540.84434	3.72925
3538.91577	3.77344
3536.98721	3.81726
3535.05864	3.86294
3533.13008	3.91061
3531.20151	3.95769
3529.27295	4.00580
3527.34438	4.05602
3525.41582	4.10473
3523.48726	4.15072
3521.55869	4.19763
3519.63013	4.24581
3517.70156	4.29375
3515.77300	4.34020
3513.84443	4.38639
3511.91587	4.43301
3509.98730	4.48064
3508.05874	4.53018
3506.13018	4.57751
3504.20161	4.62210
3502.27305	4.67156
3500.34448	4.72502
3498.41592	4.77361
3496.48735	4.81774
3494.55879	4.86081
3492.63022	4.90632
3490.70166	4.95569
3488.77310	5.00556
3486.84453	5.05677
3484.91597	5.11054
3482.98740	5.16413
3481.05884	5.21327
3479.13027	5.25103
3477.20171	5.28937
3475.27314	5.34288
3473.34458	5.39769
3471.41602	5.44512
3469.48745	5.49409
3467.55889	5.54426
3465.63032	5.59180
3463.70176	5.63529
3461.77319	5.67631
3459.84463	5.72124
3457.91606	5.76681
3455.98750	5.81838
3454.05894	5.88265
3452.13037	5.94524
3450.20181	5.99300
3448.27324	6.02767
3446.34468	6.06946
3444.41611	6.12554
3442.48755	6.17732
3440.55898	6.21584
3438.63042	6.25911
3436.70186	6.31761
3434.77329	6.37700
3432.84473	6.42888
3430.91616	6.47116
3428.98760	6.51025
3427.05903	6.56676
3425.13047	6.64200
3423.20190	6.70134
3421.27334	6.73958
3419.34478	6.78066
3417.41621	6.82989
3415.48765	6.87000
3413.55908	6.90030
3411.63052	6.94328
3409.70195	6.98107
3407.77339	7.02322
3405.84482	7.10420
3403.91626	7.19181
3401.98770	7.23093
3400.05913	7.25340
3398.13057	7.30820
3396.20200	7.36595
3394.27344	7.39609
3392.34487	7.41548
3390.41631	7.45207
3388.48774	7.46977
3386.55918	7.47379
3384.63062	7.52314
3382.70205	7.59246
3380.77349	7.62722
3378.84492	7.64284
3376.91636	7.67200
3374.98779	7.70038
3373.05923	7.71354
3371.13066	7.71699
3369.20210	7.73679
3367.27354	7.76374
3365.34497	7.79204
3363.41641	7.81376
3361.48784	7.82002
3359.55928	7.85757
3357.63071	7.86440
3355.70215	7.79948
3353.77358	7.79315
3351.84502	7.91012
3349.91646	8.03363
3347.98789	8.04981
3346.05933	8.01861
3344.13076	8.04025
3342.20220	8.11777
3340.27363	8.18128
3338.34507	8.17305
3336.41650	8.08374
3334.48794	8.00694
3332.55937	8.01093
3330.63081	8.04613
3328.70225	8.04110
3326.77368	8.03796
3324.84512	8.08200
3322.91655	8.10717
3320.98799	8.08948
3319.05942	8.10450
3317.13086	8.18727
3315.20229	8.23616
3313.27373	8.21166
3311.34517	8.17700
3309.41660	8.17363
3307.48804	8.19930
3305.55947	8.21645
3303.63091	8.23421
3301.70234	8.23468
3299.77378	8.19729
3297.84521	8.17378
3295.91665	8.21136
3293.98809	8.22925
3292.05952	8.16312
3290.13096	8.08798
3288.20239	8.04725
3286.27383	8.05420
3284.34526	8.10335
3282.41670	8.17521
3280.48813	8.27518
3278.55957	8.33923
3276.63101	8.30516
3274.70244	8.28439
3272.77388	8.27288
3270.84531	8.19521
3268.91675	8.13936
3266.98818	8.16947
3265.05962	8.23737
3263.13105	8.22393
3261.20249	8.16980
3259.27393	8.21061
3257.34536	8.29673
3255.41680	8.29141
3253.48823	8.25054
3251.55967	8.26501
3249.63110	8.29491
3247.70254	8.30403
3245.77397	8.26394
3243.84541	8.21280
3241.91685	8.21351
3239.98828	8.23745
3238.05972	8.21303
3236.13115	8.15845
3234.20259	8.17446
3232.27402	8.25476
3230.34546	8.26553
3228.41689	8.14849
3226.48833	8.06780
3224.55977	8.12053
3222.63120	8.17292
3220.70264	8.14334
3218.77407	8.10673
3216.84551	8.06896
3214.91694	8.01209
3212.98838	7.95171
3211.05981	7.92347
3209.13125	7.96182
3207.20269	8.01729
3205.27412	8.00422
3203.34556	7.90408
3201.41699	7.80389
3199.48843	7.77134
3197.55986	7.74321
3195.63130	7.68993
3193.70273	7.64403
3191.77417	7.55707
3189.84561	7.44059
3187.91704	7.37837
3185.98848	7.36878
3184.05991	7.35116
3182.13135	7.28183
3180.20278	7.19417
3178.27422	7.13850
3176.34565	7.10665
3174.41709	7.06069
3172.48853	6.99253
3170.55996	6.94156
3168.63140	6.90127
3166.70283	6.82671
3164.77427	6.74167
3162.84570	6.68852
3160.91714	6.66029
3158.98857	6.62629
3157.06001	6.56259
3155.13145	6.46650
3153.20288	6.35569
3151.27432	6.26799
3149.34575	6.22521
3147.41719	6.19132
3145.48862	6.13202
3143.56006	6.06036
3141.63149	5.97875
3139.70293	5.88898
3137.77437	5.81963
3135.84580	5.76226
3133.91724	5.68784
3131.98867	5.61327
3130.06011	5.55021
3128.13154	5.47855
3126.20298	5.39557
3124.27441	5.31780
3122.34585	5.25470
3120.41729	5.19573
3118.48872	5.12619
3116.56016	5.05150
3114.63159	4.97882
3112.70303	4.90582
3110.77446	4.83285
3108.84590	4.76356
3106.91733	4.70056
3104.98877	4.63898
3103.06021	4.57107
3101.13164	4.50011
3099.20308	4.43423
3097.27451	4.37143
3095.34595	4.30637
3093.41738	4.24186
3091.48882	4.17984
3089.56025	4.11585
3087.63169	4.05115
3085.70312	3.98936
3083.77456	3.92912
3081.84600	3.86976
3079.91743	3.81045
3077.98887	3.75069
3076.06030	3.69079
3074.13174	3.63284
3072.20317	3.57753
3070.27461	3.52092
3068.34604	3.46247
3066.41748	3.40429
3064.48892	3.34847
3062.56035	3.29571
3060.63179	3.24391
3058.70322	3.19127
3056.77466	3.13694
3054.84609	3.08276
3052.91753	3.03121
3050.98896	2.98112
3049.06040	2.93077
3047.13184	2.88095
3045.20327	2.83197
3043.27471	2.78334
3041.34614	2.73574
3039.41758	2.68907
3037.48901	2.64281
3035.56045	2.59736
3033.63188	2.55280
3031.70332	2.50861
3029.77476	2.46489
3027.84619	2.42274
3025.91763	2.38147
3023.98906	2.33937
3022.06050	2.29695
3020.13193	2.25515
3018.20337	2.21462
3016.27480	2.17595
3014.34624	2.13816
3012.41768	2.09997
3010.48911	2.06164
3008.56055	2.02417
3006.63198	1.98789
3004.70342	1.95256
3002.77485	1.91780
3000.84629	1.88330
2998.91772	1.84942
2996.98916	1.81674
2995.06060	1.78492
2993.13203	1.75324
2991.20347	1.72176
2989.27490	1.69078
2987.34634	1.66066
2985.41777	1.63177
2983.48921	1.60375
2981.56064	1.57618
2979.63208	1.54936
2977.70352	1.52315
2975.77495	1.49688
2973.84639	1.47086
2971.91782	1.44603
2969.98926	1.42212
2968.06069	1.39847
2966.13213	1.37560
2964.20356	1.35323
2962.27500	1.33045
2960.34644	1.30788
2958.41787	1.28602
2956.48931	1.26414
2954.56074	1.24189
2952.63218	1.21960
2950.70361	1.19762
2948.77505	1.17576
2946.84648	1.15363
2944.91792	1.13188
2942.98936	1.11153
2941.06079	1.09251
2939.13223	1.07405
2937.20366	1.05587
2935.27510	1.03802
2933.34653	1.02027
2931.41797	1.00263
2929.48940	0.98519
2927.56084	0.96804
2925.63228	0.95118
2923.70371	0.93390
2921.77515	0.91594
2919.84658	0.89805
2917.91802	0.88061
2915.98945	0.86346
2914.06089	0.84647
2912.13232	0.82973
2910.20376	0.81377
2908.27520	0.79871
2906.34663	0.78382
2904.41807	0.76885
2902.48950	0.75437
2900.56094	0.74087
2898.63237	0.72832
2896.70381	0.71607
2894.77524	0.70363
2892.84668	0.69143
2890.91812	0.67981
2888.98955	0.66843
2887.06099	0.65699
2885.13242	0.64578
2883.20386	0.63527
2881.27529	0.62543
2879.34673	0.61599
2877.41816	0.60697
2875.48960	0.59836
2873.56104	0.58950
2871.63247	0.57975
2869.70391	0.56948
2867.77534	0.55932
2865.84678	0.54922
2863.91821	0.53930
2861.98965	0.52993
2860.06108	0.52102
2858.13252	0.51243
2856.20396	0.50426
2854.27539	0.49614
2852.34683	0.48767
2850.41826	0.47919
2848.48970	0.47101
2846.56113	0.46319
2844.63257	0.45570
2842.70400	0.44857
2840.77544	0.44190
2838.84687	0.43558
2836.91831	0.42933
2834.98975	0.42311
2833.06118	0.41696
2831.13262	0.41088
2829.20405	0.40503
2827.27549	0.39930
2825.34692	0.39338
2823.41836	0.38740
2821.48979	0.38166
2819.56123	0.37609
2817.63267	0.37055
2815.70410	0.36515
2813.77554	0.35993
2811.84697	0.35477
2809.91841	0.34961
2807.98984	0.34456
2806.06128	0.33964
2804.13271	0.33476
2802.20415	0.32997
2800.27559	0.32531
2798.34702	0.32072
2796.41846	0.31632
2794.48989	0.31220
2792.56133	0.30809
2790.63276	0.30376
2788.70420	0.29948
2786.77563	0.29544
2784.84707	0.29138
2782.91851	0.28721
2780.98994	0.28319
2779.06138	0.27944
2777.13281	0.27582
2775.20425	0.27227
2773.27568	0.26879
2771.34712	0.26532
2769.41855	0.26199
2767.48999	0.25893
2765.56143	0.25578
2763.63286	0.25246
2761.70430	0.24921
2759.77573	0.24606
2757.84717	0.24300
2755.91860	0.24017
2753.99004	0.23747
2752.06147	0.23448
2750.13291	0.23141
2748.20435	0.22875
2746.27578	0.22634
2744.34722	0.22380
2742.41865	0.22109
2740.49009	0.21846
2738.56152	0.21611
2736.63296	0.21397
2734.70439	0.21187
2732.77583	0.20975
2730.84727	0.20750
2728.91870	0.20519
2726.99014	0.20307
2725.06157	0.20109
2723.13301	0.19905
2721.20444	0.19698
2719.27588	0.19499
2717.34731	0.19313
2715.41875	0.19140
2713.49019	0.18975
2711.56162	0.18813
2709.63306	0.18657
2707.70449	0.18492
2705.77593	0.18315
2703.84736	0.18155
2701.91880	0.18012
2699.99023	0.17867
2698.06167	0.17729
2696.13311	0.17613
2694.20454	0.17490
2692.27598	0.17351
2690.34741	0.17220
2688.41885	0.17109
2686.49028	0.17001
2684.56172	0.16880
2682.63315	0.16758
2680.70459	0.16643
2678.77603	0.16530
2676.84746	0.16418
2674.91890	0.16314
2672.99033	0.16215
2671.06177	0.16128
2669.13320	0.16055
2667.20464	0.15979
2665.27607	0.15899
2663.34751	0.15816
2661.41895	0.15728
2659.49038	0.15647
2657.56182	0.15572
2655.63325	0.15486
2653.70469	0.15407
2651.77612	0.15362
2649.84756	0.15322
2647.91899	0.15263
2645.99043	0.15214
2644.06187	0.15179
2642.13330	0.15130
2640.20474	0.15073
2638.27617	0.15035
2636.34761	0.15010
2634.41904	0.14974
2632.49048	0.14924
2630.56191	0.14868
2628.63335	0.14827
2626.70479	0.14819
2624.77622	0.14815
2622.84766	0.14796
2620.91909	0.14765
2618.99053	0.14727
2617.06196	0.14697
2615.13340	0.14680
2613.20483	0.14669
2611.27627	0.14654
2609.34771	0.14645
2607.41914	0.14638
2605.49058	0.14618
2603.56201	0.14608
2601.63345	0.14623
2599.70488	0.14639
2597.77632	0.14650
2595.84775	0.14661
2593.91919	0.14664
2591.99062	0.14665
2590.06206	0.14684
2588.13350	0.14721
2586.20493	0.14752
2584.27637	0.14771
2582.34780	0.14787
2580.41924	0.14805
2578.49067	0.14830
2576.56211	0.14861
2574.63354	0.14899
2572.70498	0.14935
2570.77642	0.14964
2568.84785	0.14990
2566.91929	0.15031
2564.99072	0.15079
2563.06216	0.15117
2561.13359	0.15159
2559.20503	0.15224
2557.27646	0.15297
2555.34790	0.15351
2553.41934	0.15395
2551.49077	0.15442
2549.56221	0.15495
2547.63364	0.15550
2545.70508	0.15597
2543.77651	0.15639
2541.84795	0.15696
2539.91938	0.15771
2537.99082	0.15847
2536.06226	0.15912
2534.13369	0.15978
2532.20513	0.16047
2530.27656	0.16108
2528.34800	0.16173
2526.41943	0.16244
2524.49087	0.16307
2522.56230	0.16372
2520.63374	0.16458
2518.70518	0.16557
2516.77661	0.16647
2514.84805	0.16715
2512.91948	0.16782
2510.99092	0.16860
2509.06235	0.16941
2507.13379	0.17026
2505.20522	0.17112
2503.27666	0.17182
2501.34810	0.17245
2499.41953	0.17324
2497.49097	0.17415
2495.56240	0.17503
2493.63384	0.17584
2491.70527	0.17672
2489.77671	0.17769
2487.84814	0.17862
2485.91958	0.17949
2483.99102	0.18038
2482.06245	0.18125
2480.13389	0.18200
2478.20532	0.18274
2476.27676	0.18360
2474.34819	0.18448
2472.41963	0.18536
2470.49106	0.18623
2468.56250	0.18700
2466.63394	0.18775
2464.70537	0.18879
2462.77681	0.19005
2460.84824	0.19118
2458.91968	0.19213
2456.99111	0.19308
2455.06255	0.19408
2453.13398	0.19508
2451.20542	0.19611
2449.27686	0.19715
2447.34829	0.19812
2445.41973	0.19899
2443.49116	0.19990
2441.56260	0.20083
2439.63403	0.20181
2437.70547	0.20287
2435.77690	0.20391
2433.84834	0.20495
2431.91978	0.20602
2429.99121	0.20705
2428.06265	0.20799
2426.13408	0.20899
2424.20552	0.21017
2422.27695	0.21137
2420.34839	0.21234
2418.41982	0.21331
2416.49126	0.21455
2414.56270	0.21576
2412.63413	0.21682
2410.70557	0.21789
2408.77700	0.21902
2406.84844	0.22026
2404.91987	0.22157
2402.99131	0.22278
2401.06274	0.22395
2399.13418	0.22515
2397.20562	0.22639
2395.27705	0.22756
2393.34849	0.22861
2391.41992	0.22983
2389.49136	0.23128
2387.56279	0.23280
2385.63423	0.23441
2383.70566	0.23636
2381.77710	0.23881
2379.84854	0.24148
2377.91997	0.24415
2375.99141	0.24706
2374.06284	0.25050
2372.13428	0.25441
2370.20571	0.25857
2368.27715	0.26282
2366.34858	0.26705
2364.42002	0.27073
2362.49146	0.27314
2360.56289	0.27483
2358.63433	0.27623
2356.70576	0.27643
2354.77720	0.27602
2352.84863	0.27565
2350.92007	0.27459
2348.99150	0.27359
2347.06294	0.27397
2345.13437	0.27654
2343.20581	0.28091
2341.27725	0.28453
2339.34868	0.28603
2337.42012	0.28660
2335.49155	0.28756
2333.56299	0.28890
2331.63442	0.29041
2329.70586	0.29190
2327.77729	0.29283
2325.84873	0.29303
2323.92017	0.29322
2321.99160	0.29392
2320.06304	0.29493
2318.13447	0.29593
2316.20591	0.29668
2314.27734	0.29731
2312.34878	0.29834
2310.42021	0.29994
2308.49165	0.30131
2306.56309	0.30211
2304.63452	0.30296
2302.70596	0.30422
2300.77739	0.30560
2298.84883	0.30693
2296.92026	0.30831
2294.99170	0.30980
2293.06313	0.31134
2291.13457	0.31292
2289.20601	0.31452
2287.27744	0.31604
2285.34888	0.31754
2283.42031	0.31924
2281.49175	0.32117
2279.56318	0.32318
2277.63462	0.32531
2275.70605	0.32742
2273.77749	0.32946
2271.84893	0.33163
2269.92036	0.33382
2267.99180	0.33579
2266.06323	0.33762
2264.13467	0.33954
2262.20610	0.34160
2260.27754	0.34366
2258.34897	0.34560
2256.42041	0.34757
2254.49185	0.34974
2252.56328	0.35195
2250.63472	0.35409
2248.70615	0.35623
2246.77759	0.35834
2244.84902	0.36037
2242.92046	0.36239
2240.99189	0.36455
2239.06333	0.36684
2237.13477	0.36910
2235.20620	0.37127
2233.27764	0.37341
2231.34907	0.37556
2229.42051	0.37775
2227.49194	0.37987
2225.56338	0.38200
2223.63481	0.38425
2221.70625	0.38655
2219.77769	0.38874
2217.84912	0.39080
2215.92056	0.39280
2213.99199	0.39479
2212.06343	0.39687
2210.13486	0.39911
2208.20630	0.40139
2206.27773	0.40359
2204.34917	0.40566
2202.42061	0.40774
2200.49204	0.40982
2198.56348	0.41174
2196.63491	0.41354
2194.70635	0.41536
2192.77778	0.41720
2190.84922	0.41907
2188.92065	0.42098
2186.99209	0.42284
2185.06353	0.42466
2183.13496	0.42642
2181.20640	0.42814
2179.27783	0.42985
2177.34927	0.43141
2175.42070	0.43277
2173.49214	0.43419
2171.56357	0.43575
2169.63501	0.43725
2167.70645	0.43862
2165.77788	0.43993
2163.84932	0.44115
2161.92075	0.44222
2159.99219	0.44324
2158.06362	0.44428
2156.13506	0.44520
2154.20649	0.44596
2152.27793	0.44675
2150.34937	0.44759
2148.42080	0.44835
2146.49224	0.44898
2144.56367	0.44949
2142.63511	0.44993
2140.70654	0.45031
2138.77798	0.45059
2136.84941	0.45074
2134.92085	0.45085
2132.99229	0.45091
2131.06372	0.45089
2129.13516	0.45079
2127.20659	0.45059
2125.27803	0.45033
2123.34946	0.45011
2121.42090	0.44989
2119.49233	0.44951
2117.56377	0.44898
2115.63521	0.44841
2113.70664	0.44772
2111.77808	0.44679
2109.84951	0.44570
2107.92095	0.44463
2105.99238	0.44361
2104.06382	0.44259
2102.13525	0.44146
2100.20669	0.44029
2098.27812	0.43908
2096.34956	0.43769
2094.42100	0.43609
2092.49243	0.43448
2090.56387	0.43299
2088.63530	0.43148
2086.70674	0.42983
2084.77817	0.42808
2082.84961	0.42630
2080.92104	0.42441
2078.99248	0.42241
2077.06392	0.42040
2075.13535	0.41838
2073.20679	0.41626
2071.27822	0.41411
2069.34966	0.41206
2067.42109	0.40999
2065.49253	0.40775
2063.56396	0.40535
2061.63540	0.40295
2059.70684	0.40062
2057.77827	0.39827
2055.84971	0.39575
2053.92114	0.39309
2051.99258	0.39049
2050.06401	0.38796
2048.13545	0.38546
2046.20688	0.38297
2044.27832	0.38044
2042.34976	0.37787
2040.42119	0.37527
2038.49263	0.37252
2036.56406	0.36969
2034.63550	0.36696
2032.70693	0.36432
2030.77837	0.36164
2028.84980	0.35892
2026.92124	0.35625
2024.99268	0.35363
2023.06411	0.35095
2021.13555	0.34816
2019.20698	0.34542
2017.27842	0.34278
2015.34985	0.34003
2013.42129	0.33726
2011.49272	0.33456
2009.56416	0.33198
2007.63560	0.32941
2005.70703	0.32673
2003.77847	0.32397
2001.84990	0.32125
1999.92134	0.31869
1997.99277	0.31629
1996.06421	0.31393
1994.13564	0.31152
1992.20708	0.30909
1990.27852	0.30656
1988.34995	0.30403
1986.42139	0.30155
1984.49282	0.29907
1982.56426	0.29661
1980.63569	0.29424
1978.70713	0.29200
1976.77856	0.28981
1974.85000	0.28764
1972.92144	0.28543
1970.99287	0.28322
1969.06431	0.28122
1967.13574	0.27938
1965.20718	0.27742
1963.27861	0.27535
1961.35005	0.27338
1959.42148	0.27156
1957.49292	0.26983
1955.56436	0.26804
1953.63579	0.26623
1951.70723	0.26452
1949.77866	0.26287
1947.85010	0.26123
1945.92153	0.25969
1943.99297	0.25831
1942.06440	0.25693
1940.13584	0.25536
1938.20728	0.25380
1936.27871	0.25240
1934.35015	0.25112
1932.42158	0.24995
1930.49302	0.24878
1928.56445	0.24757
1926.63589	0.24644
1924.70732	0.24557
1922.77876	0.24484
1920.85020	0.24390
1918.92163	0.24293
1916.99307	0.24204
1915.06450	0.24105
1913.13594	0.24011
1911.20737	0.23942
1909.27881	0.23886
1907.35024	0.23816
1905.42168	0.23732
1903.49312	0.23661
1901.56455	0.23606
1899.63599	0.23551
1897.70742	0.23506
1895.77886	0.23478
1893.85029	0.23450
1891.92173	0.23418
1889.99316	0.23407
1888.06460	0.23386
1886.13604	0.23344
1884.20747	0.23309
1882.27891	0.23289
1880.35034	0.23281
1878.42178	0.23272
1876.49321	0.23264
1874.56465	0.23259
1872.63608	0.23262
1870.70752	0.23296
1868.77896	0.23381
1866.85039	0.23426
1864.92183	0.23392
1862.99326	0.23364
1861.06470	0.23374
1859.13613	0.23406
1857.20757	0.23436
1855.27900	0.23474
1853.35044	0.23520
1851.42187	0.23575
1849.49331	0.23639
1847.56475	0.23724
1845.63618	0.23837
1843.70762	0.23950
1841.77905	0.24001
1839.85049	0.24014
1837.92192	0.24071
1835.99336	0.24153
1834.06479	0.24244
1832.13623	0.24361
1830.20767	0.24535
1828.27910	0.24698
1826.35054	0.24795
1824.42197	0.24907
1822.49341	0.25017
1820.56484	0.25119
1818.63628	0.25245
1816.70771	0.25407
1814.77915	0.25568
1812.85059	0.25740
1810.92202	0.25945
1808.99346	0.26152
1807.06489	0.26340
1805.13633	0.26523
1803.20776	0.26748
1801.27920	0.27023
1799.35063	0.27316
1797.42207	0.27559
1795.49351	0.27793
1793.56494	0.28082
1791.63638	0.28447
1789.70781	0.28763
1787.77925	0.28992
1785.85068	0.29288
1783.92212	0.29659
1781.99355	0.30062
1780.06499	0.30482
1778.13643	0.30901
1776.20786	0.31297
1774.27930	0.31737
1772.35073	0.32335
1770.42217	0.32963
1768.49360	0.33464
1766.56504	0.33940
1764.63647	0.34449
1762.70791	0.35036
1760.77935	0.35782
1758.85078	0.36468
1756.92222	0.37157
1754.99365	0.37919
1753.06509	0.38621
1751.13652	0.39469
1749.20796	0.40542
1747.27939	0.41582
1745.35083	0.42467
1743.42227	0.43397
1741.49370	0.44436
1739.56514	0.45674
1737.63657	0.46924
1735.70801	0.48026
1733.77944	0.49664
1731.85088	0.51610
1729.92231	0.53131
1727.99375	0.54657
1726.06519	0.56320
1724.13662	0.58156
1722.20806	0.60134
1720.27949	0.61958
1718.35093	0.64106
1716.42236	0.67276
1714.49380	0.70281
1712.56523	0.72712
1710.63667	0.75067
1708.70811	0.77602
1706.77954	0.80492
1704.85098	0.83955
1702.92241	0.87059
1700.99385	0.90131
1699.06528	0.94669
1697.13672	0.98865
1695.20815	1.03174
1693.27959	1.07316
1691.35103	1.10650
1689.42246	1.14530
1687.49390	1.18634
1685.56533	1.22584
1683.63677	1.28646
1681.70820	1.34919
1679.77964	1.38940
1677.85107	1.42808
1675.92251	1.47327
1673.99395	1.52873
1672.06538	1.57762
1670.13682	1.62612
1668.20825	1.68810
1666.27969	1.73702
1664.35112	1.77885
1662.42256	1.83344
1660.49399	1.89547
1658.56543	1.94336
1656.63687	1.98168
1654.70830	2.01692
1652.77974	2.07286
1650.85117	2.12771
1648.92261	2.14901
1646.99404	2.17451
1645.06548	2.20321
1643.13691	2.22187
1641.20835	2.23199
1639.27979	2.24109
1637.35122	2.24686
1635.42266	2.24656
1633.49409	2.23962
1631.56553	2.22682
1629.63696	2.21002
1627.70840	2.18282
1625.77983	2.15132
1623.85127	2.11105
1621.92271	2.06175
1619.99414	2.01823
1618.06558	1.97500
1616.13701	1.91274
1614.20845	1.84935
1612.27988	1.80145
1610.35132	1.75210
1608.42275	1.69773
1606.49419	1.64280
1604.56562	1.59196
1602.63706	1.54340
1600.70850	1.49647
1598.77993	1.45328
1596.85137	1.41248
1594.92280	1.37274
1592.99424	1.33433
1591.06567	1.29918
1589.13711	1.26643
1587.20854	1.23616
1585.27998	1.20825
1583.35142	1.18202
1581.42285	1.15780
1579.49429	1.13695
1577.56572	1.11836
1575.63716	1.09599
1573.70859	1.07620
1571.78003	1.06346
1569.85146	1.05023
1567.92290	1.03515
1565.99434	1.02360
1564.06577	1.01463
1562.13721	1.00768
1560.20864	1.00335
1558.28008	0.99817
1556.35151	0.99235
1554.42295	0.98813
1552.49438	0.98437
1550.56582	0.98011
1548.63726	0.97414
1546.70869	0.96696
1544.78013	0.95866
1542.85156	0.94884
1540.92300	0.93540
1538.99443	0.91394
1537.06587	0.89700
1535.13730	0.88570
1533.20874	0.87172
1531.28018	0.85642
1529.35161	0.84505
1527.42305	0.83472
1525.49448	0.82421
1523.56592	0.81518
1521.63735	0.80635
1519.70879	0.79667
1517.78022	0.78816
1515.85166	0.77904
1513.92310	0.76974
1511.99453	0.76174
1510.06597	0.75471
1508.13740	0.74814
1506.20884	0.73751
1504.28027	0.72729
1502.35171	0.72122
1500.42314	0.71616
1498.49458	0.71114
1496.56602	0.70534
1494.63745	0.69922
1492.70889	0.69440
1490.78032	0.69049
1488.85176	0.68585
1486.92319	0.68060
1484.99463	0.67619
1483.06606	0.67288
1481.13750	0.67003
1479.20894	0.66746
1477.28037	0.66574
1475.35181	0.66487
1473.42324	0.66431
1471.49468	0.66272
1469.56611	0.66002
1467.63755	0.65748
1465.70898	0.65545
1463.78042	0.65360
1461.85186	0.65201
1459.92329	0.65117
1457.99473	0.65103
1456.06616	0.65007
1454.13760	0.64734
1452.20903	0.64464
1450.28047	0.64245
1448.35190	0.64063
1446.42334	0.63880
1444.49478	0.63679
1442.56621	0.63458
1440.63765	0.63221
1438.70908	0.62998
1436.78052	0.62745
1434.85195	0.62450
1432.92339	0.62213
1430.99482	0.62045
1429.06626	0.61908
1427.13770	0.61804
1425.20913	0.61760
1423.28057	0.61749
1421.35200	0.61731
1419.42344	0.61721
1417.49487	0.61653
1415.56631	0.61480
1413.63774	0.61319
1411.70918	0.61230
1409.78062	0.61207
1407.85205	0.61221
1405.92349	0.61261
1403.99492	0.61293
1402.06636	0.61266
1400.13779	0.61203
1398.20923	0.61105
1396.28066	0.60925
1394.35210	0.60642
1392.42354	0.60333
1390.49497	0.60073
1388.56641	0.59815
1386.63784	0.59488
1384.70928	0.59125
1382.78071	0.58794
1380.85215	0.58500
1378.92358	0.58257
1376.99502	0.58071
1375.06646	0.57924
1373.13789	0.57796
1371.20933	0.57692
1369.28076	0.57610
1367.35220	0.57516
1365.42363	0.57409
1363.49507	0.57317
1361.56650	0.57220
1359.63794	0.57098
1357.70937	0.56978
1355.78081	0.56867
1353.85225	0.56771
1351.92368	0.56692
1349.99512	0.56627
1348.06655	0.56559
1346.13799	0.56480
1344.20942	0.56407
1342.28086	0.56350
1340.35229	0.56311
1338.42373	0.56258
1336.49517	0.56181
1334.56660	0.56108
1332.63804	0.56055
1330.70947	0.56019
1328.78091	0.55999
1326.85234	0.55993
1324.92378	0.56001
1322.99521	0.56013
1321.06665	0.56015
1319.13809	0.56016
1317.20952	0.56010
1315.28096	0.55976
1313.35239	0.55921
1311.42383	0.55861
1309.49526	0.55808
1307.56670	0.55765
1305.63813	0.55727
1303.70957	0.55678
1301.78101	0.55616
1299.85244	0.55543
1297.92388	0.55455
1295.99531	0.55360
1294.06675	0.55272
1292.13818	0.55188
1290.20962	0.55098
1288.28105	0.55004
1286.35249	0.54906
1284.42393	0.54802
1282.49536	0.54699
1280.56680	0.54609
1278.63823	0.54522
1276.70967	0.54431
1274.78110	0.54348
1272.85254	0.54272
1270.92397	0.54198
1268.99541	0.54131
1267.06685	0.54062
1265.13828	0.53987
1263.20972	0.53914
1261.28115	0.53836
1259.35259	0.53765
1257.42402	0.53712
1255.49546	0.53668
1253.56689	0.53640
1251.63833	0.53635
1249.70977	0.53634
1247.78120	0.53625
1245.85264	0.53612
1243.92407	0.53571
1241.99551	0.53495
1240.06694	0.53411
1238.13838	0.53318
1236.20981	0.53185
1234.28125	0.53028
1232.35269	0.52874
1230.42412	0.52725
1228.49556	0.52586
1226.56699	0.52460
1224.63843	0.52340
1222.70986	0.52226
1220.78130	0.52139
1218.85273	0.52080
1216.92417	0.52012
1214.99561	0.51929
1213.06704	0.51855
1211.13848	0.51791
1209.20991	0.51726
1207.28135	0.51658
1205.35278	0.51583
1203.42422	0.51516
1201.49565	0.51461
1199.56709	0.51404
1197.63853	0.51346
1195.70996	0.51294
1193.78140	0.51250
1191.85283	0.51219
1189.92427	0.51194
1187.99570	0.51157
1186.06714	0.51122
1184.13857	0.51117
1182.21001	0.51150
1180.28145	0.51213
1178.35288	0.51291
1176.42432	0.51366
1174.49575	0.51435
1172.56719	0.51493
1170.63862	0.51527
1168.71006	0.51534
1166.78149	0.51524
1164.85293	0.51514
1162.92437	0.51495
1160.99580	0.51459
1159.06724	0.51413
1157.13867	0.51356
1155.21011	0.51275
1153.28154	0.51157
1151.35298	0.50999
1149.42441	0.50817
1147.49585	0.50616
1145.56729	0.50373
1143.63872	0.50107
1141.71016	0.49865
1139.78159	0.49656
1137.85303	0.49473
1135.92446	0.49329
1133.99590	0.49226
1132.06733	0.49133
1130.13877	0.49034
1128.21021	0.48924
1126.28164	0.48813
1124.35308	0.48704
1122.42451	0.48605
1120.49595	0.48546
1118.56738	0.48519
1116.63882	0.48480
1114.71025	0.48437
1112.78169	0.48434
1110.85312	0.48476
1108.92456	0.48551
1106.99600	0.48652
1105.06743	0.48771
1103.13887	0.48904
1101.21030	0.49059
1099.28174	0.49256
1097.35317	0.49507
1095.42461	0.49807
1093.49604	0.50136
1091.56748	0.50483
1089.63892	0.50886
1087.71035	0.51394
1085.78179	0.51986
1083.85322	0.52606
1081.92466	0.53198
1079.99609	0.53684
1078.06753	0.53995
1076.13896	0.54087
1074.21040	0.53941
1072.28184	0.53548
1070.35327	0.52948
1068.42471	0.52262
1066.49614	0.51588
1064.56758	0.50962
1062.63901	0.50407
1060.71045	0.49908
1058.78188	0.49448
1056.85332	0.49058
1054.92476	0.48737
1052.99619	0.48445
1051.06763	0.48190
1049.13906	0.47978
1047.21050	0.47783
1045.28193	0.47602
1043.35337	0.47447
1041.42480	0.47340
1039.49624	0.47287
1037.56768	0.47275
1035.63911	0.47290
1033.71055	0.47328
1031.78198	0.47352
1029.85342	0.47329
1027.92485	0.47293
1025.99629	0.47305
1024.06772	0.47365
1022.13916	0.47435
1020.21060	0.47505
1018.28203	0.47583
1016.35347	0.47670
1014.42490	0.47754
1012.49634	0.47837
1010.56777	0.47955
1008.63921	0.48110
1006.71064	0.48270
1004.78208	0.48455
1002.85352	0.48693
1000.92495	0.48985
998.99639	0.49322
997.06782	0.49692
995.13926	0.50081
993.21069	0.50453
991.28213	0.50762
989.35356	0.51003
987.42500	0.51192
985.49644	0.51319
983.56787	0.51395
981.63931	0.51478
979.71074	0.51606
977.78218	0.51773
975.85361	0.51981
973.92505	0.52259
971.99648	0.52592
970.06792	0.52943
968.13936	0.53317
966.21079	0.53734
964.28223	0.54175
962.35366	0.54623
960.42510	0.55102
958.49653	0.55617
956.56797	0.56159
954.63940	0.56748
952.71084	0.57385
950.78228	0.58037
948.85371	0.58683
946.92515	0.59311
944.99658	0.59935
943.06802	0.60569
941.13945	0.61186
939.21089	0.61773
937.28232	0.62344
935.35376	0.62895
933.42520	0.63428
931.49663	0.63977
929.56807	0.64536
927.63950	0.65098
925.71094	0.65709
923.78237	0.66334
921.85381	0.66955
919.92524	0.67609
917.99668	0.68246
916.06812	0.68861
914.13955	0.69531
912.21099	0.70297
910.28242	0.71133
908.35386	0.71984
906.42529	0.72832
904.49673	0.73659
902.56816	0.74477
900.63960	0.75349
898.71104	0.76297
896.78247	0.77300
894.85391	0.78281
892.92534	0.79175
890.99678	0.80039
889.06821	0.81013
887.13965	0.82159
885.21108	0.83335
883.28252	0.84471
881.35396	0.85615
879.42539	0.86764
877.49683	0.87905
875.56826	0.89033
873.63970	0.90180
871.71113	0.91358
869.78257	0.92532
867.85400	0.93695
865.92544	0.94835
863.99687	0.95910
862.06831	0.96946
860.13975	0.98016
858.21118	0.99139
856.28262	1.00275
854.35405	1.01454
852.42549	1.02694
850.49692	1.03877
848.56836	1.04967
846.63979	1.06064
844.71123	1.07220
842.78267	1.08448
840.85410	1.09753
838.92554	1.10900
836.99697	1.11794
835.06841	1.12791
833.13984	1.13886
831.21128	1.14981
829.28271	1.16488
827.35415	1.18106
825.42559	1.19026
823.49702	1.19821
821.56846	1.21072
819.63989	1.22146
817.71133	1.22900
815.78276	1.23886
813.85420	1.25255
811.92563	1.26457
809.99707	1.27425
808.06851	1.28988
806.13994	1.30900
804.21138	1.31489
802.28281	1.30391
800.35425	1.30021
798.42568	1.31858
796.49712	1.33973
794.56855	1.36298
792.63999	1.39765
790.71143	1.40211
788.78286	1.38744
786.85430	1.41975
784.92573	1.45343
782.99717	1.38341
781.06860	1.27495
779.14004	1.23814
777.21147	1.27810
775.28291	1.30921
773.35435	1.25729
771.42578	1.20268
769.49722	1.19003
767.56865	1.19096
765.64009	1.18435
763.71152	1.15213
761.78296	1.13096
759.85439	1.17456
757.92583	1.23208
755.99727	1.19622
754.06870	1.11278
752.14014	1.03456
750.21157	0.98803
748.28301	0.96623
746.35444	0.92736
744.42588	0.87778
742.49731	0.83142
740.56875	0.78675
738.64019	0.74864
736.71162	0.68555
734.78306	0.59571
732.85449	0.49964
730.92593	0.38498
728.99736	0.28562
727.06880	0.21003
725.14023	0.12307
723.21167	0.05739
721.28311	0.04616
719.35454	0.06208
717.42598	0.03799
715.49741	-0.07182
713.56885	-0.20352
711.64028	-0.29285
709.71172	-0.31411
707.78315	-0.24815
705.85459	-0.17611
703.92603	-0.12819
701.99746	-0.11272
700.06890	-0.10504
698.14033	-0.10380
696.21177	-0.15258
694.28320	-0.16885
692.35464	-0.06795
690.42607	0.06907
688.49751	0.05464
686.56895	-0.01395
684.64038	-0.01950
682.71182	-0.00007
680.78325	-0.03081
678.85469	-0.05148
676.92612	-0.03482
674.99756	-0.02797
673.06899	-0.07106
671.14043	-0.12515
669.21187	-0.10235
667.28330	-0.02308
665.35474	-0.01861
663.42617	-0.07222
661.49761	-0.08178
659.56904	-0.02065
657.64048	-0.00690
655.71191	-0.01641
653.78335	-0.02692
651.85479	-0.07464
649.92622	-0.10559
647.99766	-0.05779
646.06909	-0.01589
644.14053	-0.00943
642.21196	0.00462
640.28340	0.03391
638.35483	0.04574
636.42627	0.00170
634.49771	-0.05223
632.56914	-0.05678
630.64058	-0.01067
628.71201	0.06913
626.78345	0.12017
624.85488	0.08087
622.92632	-0.00059
620.99775	-0.05459
619.06919	-0.04732
617.14062	-0.02164
615.21206	-0.02921
613.28350	-0.04621
611.35493	-0.03193
609.42637	0.00678
607.49780	0.04358
605.56924	0.03068
603.64067	-0.05400
601.71211	-0.15733
599.78354	-0.23026
597.85498	-0.24181
595.92642	-0.20920
593.99785	-0.20040
592.06929	-0.17463
590.14072	-0.10837
588.21216	-0.07290
586.28359	-0.05180
584.35503	-0.03910
582.42646	-0.05770
580.49790	-0.04670
578.56934	0.02995
576.64077	0.09599
574.71221	0.08734
572.78364	0.02082
570.85508	0.00404
568.92651	0.05403
566.99795	0.04092
565.06938	-0.05353
563.14082	-0.10341
561.21226	-0.09908
559.28369	-0.07455
557.35513	-0.03356
555.42656	0.02867
553.49800	0.06075
551.56943	0.01804
549.64087	-0.00636
547.71230	0.02370
545.78374	0.06615
543.85518	0.10100
541.92661	0.12736
539.99805	0.12301
538.06948	0.05124
536.14092	-0.03589
534.21235	-0.03892
532.28379	0.00850
530.35522	0.04814
528.42666	0.07426
526.49810	0.05487
524.56953	-0.01754
522.64097	-0.05886
520.71240	-0.05234
518.78384	-0.02349
516.85527	0.01530
514.92671	0.02669
512.99814	0.02914
511.06958	0.04149
509.14102	0.03553
507.21245	0.01438
505.28389	0.01406
503.35532	0.02924
501.42676	0.02530
499.49819	0.02136
