3997.91411	0.06251
3995.98555	0.06300
3994.05698	0.06388
3992.12842	0.06465
3990.19985	0.06476
3988.27129	0.06430
3986.34272	0.06406
3984.41416	0.06438
3982.48560	0.06443
3980.55703	0.06415
3978.62847	0.06448
3976.69990	0.06553
3974.77134	0.06642
3972.84277	0.06650
3970.91421	0.06615
3968.98564	0.06603
3967.05708	0.06622
3965.12852	0.06635
3963.19995	0.06642
3961.27139	0.06674
3959.34282	0.06710
3957.41426	0.06727
3955.48569	0.06732
3953.55713	0.06741
3951.62856	0.06793
3949.70000	0.06900
3947.77144	0.06961
3945.84287	0.06899
3943.91431	0.06818
3941.98574	0.06796
3940.05718	0.06765
3938.12861	0.06724
3936.20005	0.06733
3934.27148	0.06801
3932.34292	0.06898
3930.41436	0.06959
3928.48579	0.06938
3926.55723	0.06896
3924.62866	0.06906
3922.70010	0.06895
3920.77153	0.06808
3918.84297	0.06759
3916.91440	0.06827
3914.98584	0.06873
3913.05728	0.06772
3911.12871	0.06644
3909.20015	0.06627
3907.27158	0.06734
3905.34302	0.06949
3903.41445	0.07214
3901.48589	0.07334
3899.55732	0.07246
3897.62876	0.07052
3895.70020	0.06881
3893.77163	0.06828
3891.84307	0.06890
3889.91450	0.06943
3887.98594	0.06901
3886.05737	0.06919
3884.12881	0.07022
3882.20024	0.07061
3880.27168	0.07079
3878.34312	0.07061
3876.41455	0.06992
3874.48599	0.07010
3872.55742	0.07124
3870.62886	0.07281
3868.70029	0.07418
3866.77173	0.07419
3864.84316	0.07423
3862.91460	0.07470
3860.98604	0.07398
3859.05747	0.07290
3857.12891	0.07303
3855.20034	0.07460
3853.27178	0.07777
3851.34321	0.08009
3849.41465	0.07824
3847.48608	0.07588
3845.55752	0.07539
3843.62896	0.07682
3841.70039	0.07912
3839.77183	0.08120
3837.84326	0.08275
3835.91470	0.08310
3833.98613	0.08226
3832.05757	0.08144
3830.12900	0.08133
3828.20044	0.08178
3826.27187	0.08273
3824.34331	0.08407
3822.41475	0.08593
3820.48618	0.08832
3818.55762	0.08893
3816.62905	0.08865
3814.70049	0.08906
3812.77192	0.08868
3810.84336	0.08816
3808.91479	0.08898
3806.98623	0.09127
3805.05767	0.09358
3803.12910	0.09514
3801.20054	0.09746
3799.27197	0.09938
3797.34341	0.09936
3795.41484	0.09869
3793.48628	0.09772
3791.55771	0.09745
3789.62915	0.09866
3787.70059	0.10072
3785.77202	0.10297
3783.84346	0.10505
3781.91489	0.10665
3779.98633	0.10845
3778.05776	0.11050
3776.12920	0.11155
3774.20063	0.11211
3772.27207	0.11338
3770.34351	0.11581
3768.41494	0.11869
3766.48638	0.12070
3764.55781	0.12247
3762.62925	0.12429
3760.70068	0.12639
3758.77212	0.12957
3756.84355	0.13302
3754.91499	0.13579
3752.98643	0.13908
3751.05786	0.14438
3749.12930	0.14975
3747.20073	0.15153
3745.27217	0.15271
3743.34360	0.15587
3741.41504	0.15860
3739.48647	0.16039
3737.55791	0.16397
3735.62935	0.17080
3733.70078	0.17829
3731.77222	0.18203
3729.84365	0.18400
3727.91509	0.18703
3725.98652	0.19246
3724.05796	0.19958
3722.12939	0.20656
3720.20083	0.21338
3718.27227	0.21997
3716.34370	0.22660
3714.41514	0.23426
3712.48657	0.24496
3710.55801	0.26012
3708.62944	0.27422
3706.70088	0.28400
3704.77231	0.29388
3702.84375	0.30685
3700.91519	0.32399
3698.98662	0.34216
3697.05806	0.35944
3695.12949	0.37849
3693.20093	0.39890
3691.27236	0.42112
3689.34380	0.44998
3687.41523	0.48417
3685.48667	0.51305
3683.55811	0.53824
3681.62954	0.56635
3679.70098	0.59882
3677.77241	0.63284
3675.84385	0.67249
3673.91528	0.72577
3671.98672	0.76920
3670.05815	0.80765
3668.12959	0.86026
3666.20103	0.90760
3664.27246	0.94721
3662.34390	0.99054
3660.41533	1.03809
3658.48677	1.08522
3656.55820	1.13524
3654.62964	1.19078
3652.70107	1.23711
3650.77251	1.27784
3648.84395	1.33513
3646.91538	1.40465
3644.98682	1.45405
3643.05825	1.49161
3641.12969	1.53054
3639.20112	1.57418
3637.27256	1.61891
3635.34399	1.66248
3633.41543	1.70597
3631.48687	1.74746
3629.55830	1.79001
3627.62974	1.84427
3625.70117	1.89313
3623.77261	1.92548
3621.84404	1.95698
3619.91548	1.99436
3617.98691	2.04114
3616.05835	2.08678
3614.12979	2.12542
3612.20122	2.16597
3610.27266	2.20489
3608.34409	2.24219
3606.41553	2.28280
3604.48696	2.32231
3602.55840	2.35803
3600.62983	2.39639
3598.70127	2.43779
3596.77271	2.47684
3594.84414	2.51568
3592.91558	2.55658
3590.98701	2.59586
3589.05845	2.63329
3587.12988	2.67875
3585.20132	2.72831
3583.27275	2.76880
3581.34419	2.80568
3579.41562	2.84493
3577.48706	2.88555
3575.55850	2.92702
3573.62993	2.97166
3571.70137	3.01615
3569.77280	3.05721
3567.84424	3.09850
3565.91567	3.14869
3563.98711	3.20011
3562.05854	3.24387
3560.12998	3.28565
3558.20142	3.32745
3556.27285	3.36914
3554.34429	3.41018
3552.41572	3.45436
3550.48716	3.50175
3548.55859	3.54767
3546.63003	3.59368
3544.70146	3.64356
3542.77290	3.69321
3540.84434	3.73972
3538.91577	3.78611
3536.98721	3.83198
3535.05864	3.87764
3533.13008	3.92274
3531.20151	3.96736
3529.27295	4.01445
3527.34438	4.06713
3525.41582	4.11887
3523.48726	4.16461
3521.55869	4.21209
3519.63013	4.26327
3517.70156	4.31272
3515.77300	4.35452
3513.84443	4.39299
3511.91587	4.43778
3509.98730	4.48982
3508.05874	4.54502
3506.13018	4.59718
3504.20161	4.64356
3502.27305	4.68919
3500.34448	4.73806
3498.41592	4.78376
3496.48735	4.82103
3494.55879	4.85970
3492.63022	4.91206
3490.70166	4.96900
3488.77310	5.01762
3486.84453	5.06047
3484.91597	5.10140
3482.98740	5.14182
3481.05884	5.18402
3479.13027	5.23143
3477.20171	5.28788
3475.27314	5.35049
3473.34458	5.40883
3471.41602	5.45306
3469.48745	5.49103
3467.55889	5.53312
3465.63032	5.57843
3463.70176	5.63134
3461.77319	5.68994
3459.84463	5.74804
3457.91606	5.80328
3455.98750	5.85561
3454.05894	5.90221
3452.13037	5.93971
3450.20181	5.98012
3448.27324	6.02988
3446.34468	6.08288
3444.41611	6.12915
3442.48755	6.16560
3440.55898	6.20579
3438.63042	6.26336
3436.70186	6.32613
3434.77329	6.37823
3432.84473	6.42191
3430.91616	6.46474
3428.98760	6.51603
3427.05903	6.57559
3425.13047	6.63068
3423.20190	6.65892
3421.27334	6.68450
3419.34478	6.74098
3417.41621	6.79594
3415.48765	6.83009
3413.55908	6.88049
3411.63052	6.95428
3409.70195	7.02036
3407.77339	7.08489
3405.84482	7.14941
3403.91626	7.20099
3401.98770	7.21646
3400.05913	7.20494
3398.13057	7.21514
3396.20200	7.24845
3394.27344	7.29011
3392.34487	7.34403
3390.41631	7.40187
3388.48774	7.43138
3386.55918	7.47371
3384.63062	7.52936
3382.70205	7.52150
3380.77349	7.48731
3378.84492	7.49084
3376.91636	7.52739
3374.98779	7.58838
3373.05923	7.66297
3371.13066	7.68898
3369.20210	7.66572
3367.27354	7.64972
3365.34497	7.67534
3363.41641	7.74081
3361.48784	7.80807
3359.55928	7.83167
3357.63071	7.84746
3355.70215	7.91989
3353.77358	7.96640
3351.84502	7.96667
3349.91646	7.95603
3347.98789	7.93647
3346.05933	7.94504
3344.13076	7.98313
3342.20220	8.03050
3340.27363	8.05465
3338.34507	8.05810
3336.41650	8.05483
3334.48794	8.05419
3332.55937	8.01664
3330.63081	7.94855
3328.70225	7.95453
3326.77368	8.04689
3324.84512	8.11048
3322.91655	8.10613
3320.98799	8.12789
3319.05942	8.16986
3317.13086	8.15867
3315.20229	8.09733
3313.27373	8.03741
3311.34517	7.98030
3309.41660	7.96298
3307.48804	8.00434
3305.55947	8.04394
3303.63091	8.09660
3301.70234	8.16517
3299.77378	8.24364
3297.84521	8.28325
3295.91665	8.18816
3293.98809	8.04906
3292.05952	8.05015
3290.13096	8.18237
3288.20239	8.19994
3286.27383	8.07697
3284.34526	8.04381
3282.41670	8.13564
3280.48813	8.21405
3278.55957	8.25729
3276.63101	8.27798
3274.70244	8.24214
3272.77388	8.17950
3270.84531	8.07764
3268.91675	7.98581
3266.98818	7.99752
3265.05962	8.08550
3263.13105	8.13128
3261.20249	8.09624
3259.27393	8.05454
3257.34536	8.05836
3255.41680	8.12077
3253.48823	8.21441
3251.55967	8.22218
3249.63110	8.15220
3247.70254	8.09795
3245.77397	8.02013
3243.84541	7.93935
3241.91685	7.90489
3239.98828	7.94309
3238.05972	8.05206
3236.13115	8.09329
3234.20259	8.04507
3232.27402	8.01830
3230.34546	7.96487
3228.41689	7.87651
3226.48833	7.88235
3224.55977	7.99868
3222.63120	8.05986
3220.70264	7.98079
3218.77407	7.93407
3216.84551	7.98834
3214.91694	8.04224
3212.98838	8.06208
3211.05981	8.00548
3209.13125	7.87498
3207.20269	7.81011
3205.27412	7.81297
3203.34556	7.79101
3201.41699	7.77087
3199.48843	7.75252
3197.55986	7.69851
3195.63130	7.63927
3193.70273	7.58572
3191.77417	7.53289
3189.84561	7.50071
3187.91704	7.50185
3185.98848	7.48589
3184.05991	7.41570
3182.13135	7.33852
3180.20278	7.26038
3178.27422	7.17230
3176.34565	7.10650
3174.41709	7.04778
3172.48853	6.98840
3170.55996	6.95138
3168.63140	6.90540
3166.70283	6.81811
3164.77427	6.72853
3162.84570	6.68722
3160.91714	6.66853
3158.98857	6.61648
3157.06001	6.54136
3155.13145	6.47299
3153.20288	6.40330
3151.27432	6.32521
3149.34575	6.25676
3147.41719	6.19817
3145.48862	6.13022
3143.56006	6.05757
3141.63149	5.98536
3139.70293	5.91060
3137.77437	5.84442
3135.84580	5.78413
3133.91724	5.71689
3131.98867	5.63859
3130.06011	5.55652
3128.13154	5.48220
3126.20298	5.41176
3124.27441	5.33712
3122.34585	5.25889
3120.41729	5.19036
3118.48872	5.13721
3116.56016	5.07941
3114.63159	5.00643
3112.70303	4.93073
3110.77446	4.85920
3108.84590	4.79004
3106.91733	4.72492
3104.98877	4.66403
3103.06021	4.60251
3101.13164	4.53675
3099.20308	4.46756
3097.27451	4.39775
3095.34595	4.32737
3093.41738	4.25640
3091.48882	4.18896
3089.56025	4.12742
3087.63169	4.06878
3085.70312	4.00872
3083.77456	3.94702
3081.84600	3.88755
3079.91743	3.82905
3077.98887	3.76743
3076.06030	3.70575
3074.13174	3.64750
3072.20317	3.58954
3070.27461	3.52996
3068.34604	3.47193
3066.41748	3.41654
3064.48892	3.36130
3062.56035	3.30567
3060.63179	3.25056
3058.70322	3.19584
3056.77466	3.14250
3054.84609	3.09091
3052.91753	3.03952
3050.98896	2.98799
3049.06040	2.93720
3047.13184	2.88729
3045.20327	2.83800
3043.27471	2.78950
3041.34614	2.74117
3039.41758	2.69301
3037.48901	2.64660
3035.56045	2.60184
3033.63188	2.55783
3031.70332	2.51460
3029.77476	2.47129
3027.84619	2.42767
3025.91763	2.38477
3023.98906	2.34322
3022.06050	2.30298
3020.13193	2.26272
3018.20337	2.22193
3016.27480	2.18203
3014.34624	2.14373
3012.41768	2.10615
3010.48911	2.06857
3008.56055	2.03185
3006.63198	1.99654
3004.70342	1.96157
3002.77485	1.92639
3000.84629	1.89195
2998.91772	1.85881
2996.98916	1.82632
2995.06060	1.79391
2993.13203	1.76187
2991.20347	1.73065
2989.27490	1.70007
2987.34634	1.67015
2985.41777	1.64107
2983.48921	1.61264
2981.56064	1.58457
2979.63208	1.55651
2977.70352	1.52862
2975.77495	1.50154
2973.84639	1.47523
2971.91782	1.44923
2969.98926	1.42367
2968.06069	1.39879
2966.13213	1.37405
2964.20356	1.34926
2962.27500	1.32513
2960.34644	1.30171
2958.41787	1.27837
2956.48931	1.25503
2954.56074	1.23233
2952.63218	1.21057
2950.70361	1.18932
2948.77505	1.16802
2946.84648	1.14663
2944.91792	1.12560
2942.98936	1.10502
2941.06079	1.08505
2939.13223	1.06595
2937.20366	1.04722
2935.27510	1.02837
2933.34653	1.00946
2931.41797	0.99073
2929.48940	0.97246
2927.56084	0.95453
2925.63228	0.93676
2923.70371	0.91948
2921.77515	0.90288
2919.84658	0.88689
2917.91802	0.87106
2915.98945	0.85508
2914.06089	0.83942
2912.13232	0.82456
2910.20376	0.81009
2908.27520	0.79571
2906.34663	0.78174
2904.41807	0.76812
2902.48950	0.75466
2900.56094	0.74166
2898.63237	0.72907
2896.70381	0.71646
2894.77524	0.70411
2892.84668	0.69230
2890.91812	0.68063
2888.98955	0.66913
2887.06099	0.65823
2885.13242	0.64773
2883.20386	0.63727
2881.27529	0.62689
2879.34673	0.61677
2877.41816	0.60685
2875.48960	0.59697
2873.56104	0.58702
2871.63247	0.57707
2869.70391	0.56709
2867.77534	0.55681
2865.84678	0.54634
2863.91821	0.53608
2861.98965	0.52617
2860.06108	0.51663
2858.13252	0.50742
2856.20396	0.49854
2854.27539	0.48996
2852.34683	0.48156
2850.41826	0.47344
2848.48970	0.46574
2846.56113	0.45822
2844.63257	0.45081
2842.70400	0.44390
2840.77544	0.43760
2838.84687	0.43172
2836.91831	0.42586
2834.98975	0.41977
2833.06118	0.41365
2831.13262	0.40767
2829.20405	0.40180
2827.27549	0.39589
2825.34692	0.38991
2823.41836	0.38411
2821.48979	0.37853
2819.56123	0.37299
2817.63267	0.36747
2815.70410	0.36210
2813.77554	0.35675
2811.84697	0.35128
2809.91841	0.34602
2807.98984	0.34103
2806.06128	0.33602
2804.13271	0.33116
2802.20415	0.32660
2800.27559	0.32200
2798.34702	0.31725
2796.41846	0.31260
2794.48989	0.30813
2792.56133	0.30383
2790.63276	0.29968
2788.70420	0.29552
2786.77563	0.29125
2784.84707	0.28698
2782.91851	0.28296
2780.98994	0.27915
2779.06138	0.27548
2777.13281	0.27193
2775.20425	0.26838
2773.27568	0.26484
2771.34712	0.26142
2769.41855	0.25796
2767.48999	0.25436
2765.56143	0.25088
2763.63286	0.24767
2761.70430	0.24471
2759.77573	0.24188
2757.84717	0.23884
2755.91860	0.23560
2753.99004	0.23262
2752.06147	0.23000
2750.13291	0.22742
2748.20435	0.22472
2746.27578	0.22194
2744.34722	0.21921
2742.41865	0.21674
2740.49009	0.21450
2738.56152	0.21220
2736.63296	0.20978
2734.70439	0.20745
2732.77583	0.20520
2730.84727	0.20296
2728.91870	0.20079
2726.99014	0.19878
2725.06157	0.19691
2723.13301	0.19505
2721.20444	0.19313
2719.27588	0.19118
2717.34731	0.18928
2715.41875	0.18745
2713.49019	0.18563
2711.56162	0.18384
2709.63306	0.18213
2707.70449	0.18056
2705.77593	0.17905
2703.84736	0.17738
2701.91880	0.17577
2699.99023	0.17441
2698.06167	0.17311
2696.13311	0.17164
2694.20454	0.17006
2692.27598	0.16862
2690.34741	0.16744
2688.41885	0.16638
2686.49028	0.16529
2684.56172	0.16415
2682.63315	0.16285
2680.70459	0.16160
2678.77603	0.16067
2676.84746	0.15974
2674.91890	0.15855
2672.99033	0.15732
2671.06177	0.15634
2669.13320	0.15554
2667.20464	0.15471
2665.27607	0.15383
2663.34751	0.15285
2661.41895	0.15182
2659.49038	0.15093
2657.56182	0.15024
2655.63325	0.14964
2653.70469	0.14902
2651.77612	0.14834
2649.84756	0.14766
2647.91899	0.14707
2645.99043	0.14663
2644.06187	0.14623
2642.13330	0.14581
2640.20474	0.14534
2638.27617	0.14475
2636.34761	0.14406
2634.41904	0.14357
2632.49048	0.14337
2630.56191	0.14308
2628.63335	0.14261
2626.70479	0.14239
2624.77622	0.14231
2622.84766	0.14194
2620.91909	0.14150
2618.99053	0.14126
2617.06196	0.14113
2615.13340	0.14104
2613.20483	0.14084
2611.27627	0.14050
2609.34771	0.14028
2607.41914	0.14035
2605.49058	0.14057
2603.56201	0.14069
2601.63345	0.14071
2599.70488	0.14070
2597.77632	0.14075
2595.84775	0.14095
2593.91919	0.14123
2591.99062	0.14140
2590.06206	0.14142
2588.13350	0.14149
2586.20493	0.14179
2584.27637	0.14221
2582.34780	0.14247
2580.41924	0.14250
2578.49067	0.14261
2576.56211	0.14295
2574.63354	0.14336
2572.70498	0.14376
2570.77642	0.14409
2568.84785	0.14436
2566.91929	0.14472
2564.99072	0.14515
2563.06216	0.14551
2561.13359	0.14594
2559.20503	0.14653
2557.27646	0.14713
2555.34790	0.14766
2553.41934	0.14819
2551.49077	0.14868
2549.56221	0.14917
2547.63364	0.14971
2545.70508	0.15033
2543.77651	0.15094
2541.84795	0.15159
2539.91938	0.15221
2537.99082	0.15283
2536.06226	0.15356
2534.13369	0.15430
2532.20513	0.15498
2530.27656	0.15561
2528.34800	0.15618
2526.41943	0.15684
2524.49087	0.15769
2522.56230	0.15859
2520.63374	0.15945
2518.70518	0.16019
2516.77661	0.16080
2514.84805	0.16150
2512.91948	0.16246
2510.99092	0.16349
2509.06235	0.16432
2507.13379	0.16504
2505.20522	0.16575
2503.27666	0.16645
2501.34810	0.16719
2499.41953	0.16798
2497.49097	0.16878
2495.56240	0.16953
2493.63384	0.17024
2491.70527	0.17102
2489.77671	0.17196
2487.84814	0.17295
2485.91958	0.17386
2483.99102	0.17469
2482.06245	0.17553
2480.13389	0.17639
2478.20532	0.17735
2476.27676	0.17839
2474.34819	0.17941
2472.41963	0.18034
2470.49106	0.18123
2468.56250	0.18218
2466.63394	0.18311
2464.70537	0.18398
2462.77681	0.18483
2460.84824	0.18574
2458.91968	0.18673
2456.99111	0.18775
2455.06255	0.18872
2453.13398	0.18961
2451.20542	0.19049
2449.27686	0.19139
2447.34829	0.19231
2445.41973	0.19332
2443.49116	0.19444
2441.56260	0.19552
2439.63403	0.19653
2437.70547	0.19758
2435.77690	0.19856
2433.84834	0.19955
2431.91978	0.20060
2429.99121	0.20163
2428.06265	0.20270
2426.13408	0.20383
2424.20552	0.20486
2422.27695	0.20568
2420.34839	0.20653
2418.41982	0.20771
2416.49126	0.20904
2414.56270	0.21030
2412.63413	0.21157
2410.70557	0.21284
2408.77700	0.21399
2406.84844	0.21508
2404.91987	0.21622
2402.99131	0.21734
2401.06274	0.21848
2399.13418	0.21967
2397.20562	0.22086
2395.27705	0.22216
2393.34849	0.22364
2391.41992	0.22508
2389.49136	0.22637
2387.56279	0.22774
2385.63423	0.22939
2383.70566	0.23126
2381.77710	0.23333
2379.84854	0.23565
2377.91997	0.23807
2375.99141	0.24050
2374.06284	0.24337
2372.13428	0.24694
2370.20571	0.25068
2368.27715	0.25357
2366.34858	0.25535
2364.42002	0.25706
2362.49146	0.25996
2360.56289	0.26347
2358.63433	0.26617
2356.70576	0.26691
2354.77720	0.26593
2352.84863	0.26529
2350.92007	0.26525
2348.99150	0.26519
2347.06294	0.26552
2345.13437	0.26718
2343.20581	0.27059
2341.27725	0.27472
2339.34868	0.27755
2337.42012	0.27833
2335.49155	0.27878
2333.56299	0.28007
2331.63442	0.28209
2329.70586	0.28396
2327.77729	0.28547
2325.84873	0.28668
2323.92017	0.28741
2321.99160	0.28794
2320.06304	0.28867
2318.13447	0.28963
2316.20591	0.29059
2314.27734	0.29155
2312.34878	0.29288
2310.42021	0.29457
2308.49165	0.29593
2306.56309	0.29682
2304.63452	0.29773
2302.70596	0.29889
2300.77739	0.30031
2298.84883	0.30194
2296.92026	0.30355
2294.99170	0.30501
2293.06313	0.30648
2291.13457	0.30814
2289.20601	0.30997
2287.27744	0.31171
2285.34888	0.31325
2283.42031	0.31488
2281.49175	0.31669
2279.56318	0.31859
2277.63462	0.32055
2275.70605	0.32253
2273.77749	0.32454
2271.84893	0.32665
2269.92036	0.32886
2267.99180	0.33095
2266.06323	0.33292
2264.13467	0.33490
2262.20610	0.33691
2260.27754	0.33898
2258.34897	0.34114
2256.42041	0.34332
2254.49185	0.34547
2252.56328	0.34755
2250.63472	0.34962
2248.70615	0.35175
2246.77759	0.35382
2244.84902	0.35590
2242.92046	0.35811
2240.99189	0.36039
2239.06333	0.36257
2237.13477	0.36469
2235.20620	0.36687
2233.27764	0.36905
2231.34907	0.37120
2229.42051	0.37341
2227.49194	0.37572
2225.56338	0.37797
2223.63481	0.38005
2221.70625	0.38214
2219.77769	0.38440
2217.84912	0.38667
2215.92056	0.38885
2213.99199	0.39102
2212.06343	0.39317
2210.13486	0.39524
2208.20630	0.39734
2206.27773	0.39951
2204.34917	0.40153
2202.42061	0.40343
2200.49204	0.40548
2198.56348	0.40761
2196.63491	0.40961
2194.70635	0.41147
2192.77778	0.41333
2190.84922	0.41524
2188.92065	0.41708
2186.99209	0.41882
2185.06353	0.42052
2183.13496	0.42220
2181.20640	0.42391
2179.27783	0.42560
2177.34927	0.42726
2175.42070	0.42889
2173.49214	0.43040
2171.56357	0.43183
2169.63501	0.43328
2167.70645	0.43467
2165.77788	0.43596
2163.84932	0.43724
2161.92075	0.43851
2159.99219	0.43962
2158.06362	0.44055
2156.13506	0.44146
2154.20649	0.44239
2152.27793	0.44325
2150.34937	0.44391
2148.42080	0.44448
2146.49224	0.44509
2144.56367	0.44573
2142.63511	0.44635
2140.70654	0.44682
2138.77798	0.44712
2136.84941	0.44736
2134.92085	0.44758
2132.99229	0.44773
2131.06372	0.44782
2129.13516	0.44777
2127.20659	0.44748
2125.27803	0.44701
2123.34946	0.44658
2121.42090	0.44627
2119.49233	0.44590
2117.56377	0.44537
2115.63521	0.44473
2113.70664	0.44402
2111.77808	0.44323
2109.84951	0.44237
2107.92095	0.44143
2105.99238	0.44039
2104.06382	0.43933
2102.13525	0.43823
2100.20669	0.43700
2098.27812	0.43567
2096.34956	0.43421
2094.42100	0.43268
2092.49243	0.43121
2090.56387	0.42976
2088.63530	0.42813
2086.70674	0.42632
2084.77817	0.42450
2082.84961	0.42280
2080.92104	0.42111
2078.99248	0.41920
2077.06392	0.41707
2075.13535	0.41487
2073.20679	0.41273
2071.27822	0.41067
2069.34966	0.40859
2067.42109	0.40647
2065.49253	0.40425
2063.56396	0.40189
2061.63540	0.39950
2059.70684	0.39709
2057.77827	0.39462
2055.84971	0.39216
2053.92114	0.38969
2051.99258	0.38716
2050.06401	0.38459
2048.13545	0.38200
2046.20688	0.37934
2044.27832	0.37678
2042.34976	0.37430
2040.42119	0.37164
2038.49263	0.36884
2036.56406	0.36612
2034.63550	0.36353
2032.70693	0.36095
2030.77837	0.35826
2028.84980	0.35552
2026.92124	0.35282
2024.99268	0.35014
2023.06411	0.34748
2021.13555	0.34482
2019.20698	0.34223
2017.27842	0.33962
2015.34985	0.33682
2013.42129	0.33397
2011.49272	0.33122
2009.56416	0.32850
2007.63560	0.32573
2005.70703	0.32305
2003.77847	0.32047
2001.84990	0.31785
1999.92134	0.31518
1997.99277	0.31263
1996.06421	0.31025
1994.13564	0.30796
1992.20708	0.30561
1990.27852	0.30313
1988.34995	0.30064
1986.42139	0.29821
1984.49282	0.29578
1982.56426	0.29332
1980.63569	0.29092
1978.70713	0.28866
1976.77856	0.28640
1974.85000	0.28417
1972.92144	0.28201
1970.99287	0.27987
1969.06431	0.27786
1967.13574	0.27595
1965.20718	0.27390
1963.27861	0.27184
1961.35005	0.26989
1959.42148	0.26801
1957.49292	0.26618
1955.56436	0.26436
1953.63579	0.26259
1951.70723	0.26093
1949.77866	0.25943
1947.85010	0.25804
1945.92153	0.25669
1943.99297	0.25535
1942.06440	0.25388
1940.13584	0.25216
1938.20728	0.25049
1936.27871	0.24906
1934.35015	0.24768
1932.42158	0.24636
1930.49302	0.24520
1928.56445	0.24413
1926.63589	0.24308
1924.70732	0.24226
1922.77876	0.24164
1920.85020	0.24081
1918.92163	0.23985
1916.99307	0.23883
1915.06450	0.23764
1913.13594	0.23656
1911.20737	0.23589
1909.27881	0.23537
1907.35024	0.23468
1905.42168	0.23385
1903.49312	0.23315
1901.56455	0.23260
1899.63599	0.23210
1897.70742	0.23171
1895.77886	0.23142
1893.85029	0.23112
1891.92173	0.23085
1889.99316	0.23074
1888.06460	0.23036
1886.13604	0.22976
1884.20747	0.22938
1882.27891	0.22914
1880.35034	0.22892
1878.42178	0.22882
1876.49321	0.22885
1874.56465	0.22889
1872.63608	0.22900
1870.70752	0.22949
1868.77896	0.23045
1866.85039	0.23089
1864.92183	0.23051
1862.99326	0.23025
1861.06470	0.23035
1859.13613	0.23062
1857.20757	0.23091
1855.27900	0.23130
1853.35044	0.23167
1851.42187	0.23212
1849.49331	0.23280
1847.56475	0.23382
1845.63618	0.23511
1843.70762	0.23635
1841.77905	0.23684
1839.85049	0.23690
1837.92192	0.23753
1835.99336	0.23849
1834.06479	0.23941
1832.13623	0.24053
1830.20767	0.24222
1828.27910	0.24375
1826.35054	0.24467
1824.42197	0.24580
1822.49341	0.24684
1820.56484	0.24779
1818.63628	0.24905
1816.70771	0.25075
1814.77915	0.25243
1812.85059	0.25422
1810.92202	0.25634
1808.99346	0.25835
1807.06489	0.26009
1805.13633	0.26198
1803.20776	0.26443
1801.27920	0.26728
1799.35063	0.27019
1797.42207	0.27255
1795.49351	0.27480
1793.56494	0.27774
1791.63638	0.28155
1789.70781	0.28467
1787.77925	0.28670
1785.85068	0.28953
1783.92212	0.29327
1781.99355	0.29746
1780.06499	0.30187
1778.13643	0.30613
1776.20786	0.31012
1774.27930	0.31471
1772.35073	0.32096
1770.42217	0.32729
1768.49360	0.33221
1766.56504	0.33685
1764.63647	0.34179
1762.70791	0.34764
1760.77935	0.35523
1758.85078	0.36230
1756.92222	0.36935
1754.99365	0.37697
1753.06509	0.38398
1751.13652	0.39274
1749.20796	0.40387
1747.27939	0.41417
1745.35083	0.42269
1743.42227	0.43193
1741.49370	0.44252
1739.56514	0.45515
1737.63657	0.46768
1735.70801	0.47873
1733.77944	0.49544
1731.85088	0.51489
1729.92231	0.52974
1727.99375	0.54471
1726.06519	0.56098
1724.13662	0.57918
1722.20806	0.59911
1720.27949	0.61763
1718.35093	0.63958
1716.42236	0.67186
1714.49380	0.70163
1712.56523	0.72532
1710.63667	0.74859
1708.70811	0.77402
1706.77954	0.80326
1704.85098	0.83818
1702.92241	0.86898
1700.99385	0.89926
1699.06528	0.94463
1697.13672	0.98618
1695.20815	1.02811
1693.27959	1.06838
1691.35103	1.10080
1689.42246	1.13861
1687.49390	1.17872
1685.56533	1.21753
1683.63677	1.27732
1681.70820	1.33868
1679.77964	1.37778
1677.85107	1.41521
1675.92251	1.45825
1673.99395	1.51142
1672.06538	1.55843
1670.13682	1.60435
1668.20825	1.66389
1666.27969	1.71189
1664.35112	1.75224
1662.42256	1.80295
1660.49399	1.86002
1658.56543	1.90413
1656.63687	1.94008
1654.70830	1.97423
1652.77974	2.02819
1650.85117	2.07900
1648.92261	2.09871
1646.99404	2.12604
1645.06548	2.15848
1643.13691	2.17994
1641.20835	2.19366
1639.27979	2.20616
1637.35122	2.21419
1635.42266	2.21572
1633.49409	2.20968
1631.56553	2.19734
1629.63696	2.18229
1627.70840	2.15765
1625.77983	2.12792
1623.85127	2.08934
1621.92271	2.04125
1619.99414	1.99854
1618.06558	1.95702
1616.13701	1.89718
1614.20845	1.83578
1612.27988	1.78915
1610.35132	1.74024
1608.42275	1.68671
1606.49419	1.63383
1604.56562	1.58544
1602.63706	1.53874
1600.70850	1.49220
1598.77993	1.44854
1596.85137	1.40753
1594.92280	1.36801
1592.99424	1.32992
1591.06567	1.29513
1589.13711	1.26233
1587.20854	1.23107
1585.27998	1.20177
1583.35142	1.17445
1581.42285	1.14939
1579.49429	1.12784
1577.56572	1.10866
1575.63716	1.08521
1573.70859	1.06359
1571.78003	1.04893
1569.85146	1.03366
1567.92290	1.01671
1565.99434	1.00348
1564.06577	0.99234
1562.13721	0.98327
1560.20864	0.97696
1558.28008	0.96713
1556.35151	0.95596
1554.42295	0.94817
1552.49438	0.94089
1550.56582	0.93329
1548.63726	0.92470
1546.70869	0.91666
1544.78013	0.90900
1542.85156	0.90048
1540.92300	0.88866
1538.99443	0.86901
1537.06587	0.85402
1535.13730	0.84473
1533.20874	0.83336
1531.28018	0.82069
1529.35161	0.81132
1527.42305	0.80280
1525.49448	0.79385
1523.56592	0.78606
1521.63735	0.77845
1519.70879	0.76994
1517.78022	0.76252
1515.85166	0.75443
1513.92310	0.74607
1511.99453	0.73927
1510.06597	0.73381
1508.13740	0.72918
1506.20884	0.72091
1504.28027	0.71189
1502.35171	0.70656
1500.42314	0.70252
1498.49458	0.69856
1496.56602	0.69369
1494.63745	0.68850
1492.70889	0.68454
1490.78032	0.68170
1488.85176	0.67847
1486.92319	0.67432
1484.99463	0.67038
1483.06606	0.66721
1481.13750	0.66462
1479.20894	0.66248
1477.28037	0.66110
1475.35181	0.66037
1473.42324	0.65975
1471.49468	0.65794
1469.56611	0.65492
1467.63755	0.65229
1465.70898	0.65066
1463.78042	0.64946
1461.85186	0.64806
1459.92329	0.64712
1457.99473	0.64669
1456.06616	0.64492
1454.13760	0.64183
1452.20903	0.63925
1450.28047	0.63705
1448.35190	0.63507
1446.42334	0.63284
1444.49478	0.63049
1442.56621	0.62839
1440.63765	0.62647
1438.70908	0.62487
1436.78052	0.62326
1434.85195	0.62095
1432.92339	0.61865
1430.99482	0.61699
1429.06626	0.61576
1427.13770	0.61479
1425.20913	0.61414
1423.28057	0.61362
1421.35200	0.61308
1419.42344	0.61277
1417.49487	0.61202
1415.56631	0.61034
1413.63774	0.60870
1411.70918	0.60747
1409.78062	0.60657
1407.85205	0.60597
1405.92349	0.60557
1403.99492	0.60488
1402.06636	0.60373
1400.13779	0.60268
1398.20923	0.60168
1396.28066	0.60016
1394.35210	0.59785
1392.42354	0.59515
1390.49497	0.59288
1388.56641	0.59108
1386.63784	0.58898
1384.70928	0.58634
1382.78071	0.58379
1380.85215	0.58161
1378.92358	0.57982
1376.99502	0.57846
1375.06646	0.57761
1373.13789	0.57688
1371.20933	0.57598
1369.28076	0.57519
1367.35220	0.57438
1365.42363	0.57335
1363.49507	0.57236
1361.56650	0.57132
1359.63794	0.56996
1357.70937	0.56855
1355.78081	0.56721
1353.85225	0.56609
1351.92368	0.56523
1349.99512	0.56444
1348.06655	0.56349
1346.13799	0.56245
1344.20942	0.56153
1342.28086	0.56092
1340.35229	0.56050
1338.42373	0.55975
1336.49517	0.55857
1334.56660	0.55740
1332.63804	0.55651
1330.70947	0.55597
1328.78091	0.55565
1326.85234	0.55537
1324.92378	0.55514
1322.99521	0.55508
1321.06665	0.55505
1319.13809	0.55485
1317.20952	0.55440
1315.28096	0.55378
1313.35239	0.55316
1311.42383	0.55250
1309.49526	0.55163
1307.56670	0.55065
1305.63813	0.54975
1303.70957	0.54898
1301.78101	0.54818
1299.85244	0.54729
1297.92388	0.54642
1295.99531	0.54556
1294.06675	0.54464
1292.13818	0.54383
1290.20962	0.54325
1288.28105	0.54260
1286.35249	0.54174
1284.42393	0.54081
1282.49536	0.53993
1280.56680	0.53926
1278.63823	0.53873
1276.70967	0.53799
1274.78110	0.53709
1272.85254	0.53636
1270.92397	0.53591
1268.99541	0.53547
1267.06685	0.53488
1265.13828	0.53418
1263.20972	0.53352
1261.28115	0.53293
1259.35259	0.53241
1257.42402	0.53205
1255.49546	0.53180
1253.56689	0.53152
1251.63833	0.53124
1249.70977	0.53110
1247.78120	0.53104
1245.85264	0.53086
1243.92407	0.53027
1241.99551	0.52942
1240.06694	0.52868
1238.13838	0.52794
1236.20981	0.52692
1234.28125	0.52572
1232.35269	0.52449
1230.42412	0.52324
1228.49556	0.52203
1226.56699	0.52081
1224.63843	0.51953
1222.70986	0.51835
1220.78130	0.51734
1218.85273	0.51649
1216.92417	0.51574
1214.99561	0.51500
1213.06704	0.51430
1211.13848	0.51372
1209.20991	0.51321
1207.28135	0.51276
1205.35278	0.51225
1203.42422	0.51153
1201.49565	0.51072
1199.56709	0.51000
1197.63853	0.50932
1195.70996	0.50864
1193.78140	0.50805
1191.85283	0.50754
1189.92427	0.50707
1187.99570	0.50667
1186.06714	0.50638
1184.13857	0.50621
1182.21001	0.50630
1180.28145	0.50672
1178.35288	0.50742
1176.42432	0.50835
1174.49575	0.50930
1172.56719	0.51007
1170.63862	0.51069
1168.71006	0.51119
1166.78149	0.51163
1164.85293	0.51210
1162.92437	0.51260
1160.99580	0.51304
1159.06724	0.51320
1157.13867	0.51295
1155.21011	0.51240
1153.28154	0.51147
1151.35298	0.51003
1149.42441	0.50814
1147.49585	0.50585
1145.56729	0.50335
1143.63872	0.50085
1141.71016	0.49839
1139.78159	0.49621
1137.85303	0.49457
1135.92446	0.49340
1133.99590	0.49260
1132.06733	0.49195
1130.13877	0.49126
1128.21021	0.49058
1126.28164	0.49005
1124.35308	0.48971
1122.42451	0.48930
1120.49595	0.48882
1118.56738	0.48852
1116.63882	0.48863
1114.71025	0.48917
1112.78169	0.48995
1110.85312	0.49079
1108.92456	0.49157
1106.99600	0.49226
1105.06743	0.49306
1103.13887	0.49406
1101.21030	0.49514
1099.28174	0.49645
1097.35317	0.49839
1095.42461	0.50119
1093.49604	0.50490
1091.56748	0.50977
1089.63892	0.51604
1087.71035	0.52353
1085.78179	0.53177
1083.85322	0.54013
1081.92466	0.54771
1079.99609	0.55357
1078.06753	0.55673
1076.13896	0.55668
1074.21040	0.55361
1072.28184	0.54820
1070.35327	0.54146
1068.42471	0.53427
1066.49614	0.52720
1064.56758	0.52088
1062.63901	0.51565
1060.71045	0.51128
1058.78188	0.50730
1056.85332	0.50352
1054.92476	0.50004
1052.99619	0.49697
1051.06763	0.49458
1049.13906	0.49313
1047.21050	0.49256
1045.28193	0.49256
1043.35337	0.49285
1041.42480	0.49323
1039.49624	0.49357
1037.56768	0.49378
1035.63911	0.49374
1033.71055	0.49332
1031.78198	0.49259
1029.85342	0.49155
1027.92485	0.49012
1025.99629	0.48857
1024.06772	0.48741
1022.13916	0.48682
1020.21060	0.48666
1018.28203	0.48674
1016.35347	0.48679
1014.42490	0.48680
1012.49634	0.48681
1010.56777	0.48671
1008.63921	0.48680
1006.71064	0.48745
1004.78208	0.48855
1002.85352	0.49008
1000.92495	0.49237
998.99639	0.49560
997.06782	0.49944
995.13926	0.50345
993.21069	0.50741
991.28213	0.51089
989.35356	0.51309
987.42500	0.51386
985.49644	0.51396
983.56787	0.51406
981.63931	0.51429
979.71074	0.51482
977.78218	0.51598
975.85361	0.51802
973.92505	0.52076
971.99648	0.52380
970.06792	0.52713
968.13936	0.53087
966.21079	0.53482
964.28223	0.53896
962.35366	0.54346
960.42510	0.54845
958.49653	0.55394
956.56797	0.55951
954.63940	0.56513
952.71084	0.57124
950.78228	0.57789
948.85371	0.58468
946.92515	0.59109
944.99658	0.59682
943.06802	0.60230
941.13945	0.60807
939.21089	0.61393
937.28232	0.61974
935.35376	0.62562
933.42520	0.63105
931.49663	0.63573
929.56807	0.64073
927.63950	0.64659
925.71094	0.65237
923.78237	0.65838
921.85381	0.66575
919.92524	0.67353
917.99668	0.67993
916.06812	0.68580
914.13955	0.69307
912.21099	0.70133
910.28242	0.70943
908.35386	0.71758
906.42529	0.72587
904.49673	0.73397
902.56816	0.74200
900.63960	0.75002
898.71104	0.75854
896.78247	0.76824
894.85391	0.77861
892.92534	0.78843
890.99678	0.79759
889.06821	0.80793
887.13965	0.81959
885.21108	0.83031
883.28252	0.84049
881.35396	0.85209
879.42539	0.86492
877.49683	0.87712
875.56826	0.88807
873.63970	0.89887
871.71113	0.90996
869.78257	0.92077
867.85400	0.93130
865.92544	0.94224
863.99687	0.95443
862.06831	0.96720
860.13975	0.97827
858.21118	0.98814
856.28262	0.99838
854.35405	1.00897
852.42549	1.02010
850.49692	1.03170
848.56836	1.04322
846.63979	1.05540
844.71123	1.06926
842.78267	1.08232
840.85410	1.09240
838.92554	1.10102
836.99697	1.10964
835.06841	1.11881
833.13984	1.13024
831.21128	1.14465
829.28271	1.15952
827.35415	1.17190
825.42559	1.18086
823.49702	1.18897
821.56846	1.19519
819.63989	1.19840
817.71133	1.20520
815.78276	1.21707
813.85420	1.22977
811.92563	1.24569
809.99707	1.26575
808.06851	1.27754
806.13994	1.27956
804.21138	1.28823
802.28281	1.30050
800.35425	1.30233
798.42568	1.30773
796.49712	1.31261
794.56855	1.29836
792.63999	1.29335
790.71143	1.29957
788.78286	1.30758
786.85430	1.34245
784.92573	1.37179
782.99717	1.33439
781.06860	1.26667
779.14004	1.22776
777.21147	1.23923
775.28291	1.27586
773.35435	1.28952
771.42578	1.29231
769.49722	1.31796
767.56865	1.34143
765.64009	1.33693
763.71152	1.33371
761.78296	1.26967
759.85439	1.16913
757.92583	1.14738
755.99727	1.22657
754.06870	1.45326
752.14014	1.76120
750.21157	1.50959
748.28301	1.31124
746.35444	1.17401
744.42588	1.04391
742.49731	1.06614
740.56875	1.19300
738.64019	1.04182
736.71162	0.85045
734.78306	0.73806
732.85449	0.59777
730.92593	0.49076
728.99736	0.56160
727.06880	0.72976
725.14023	0.42832
723.21167	0.17019
721.28311	0.06506
719.35454	0.00426
717.42598	-0.00727
715.49741	0.18561
713.56885	0.99926
711.64028	1.22099
709.71172	0.37530
707.78315	0.25067
705.85459	0.30400
703.92603	0.32423
701.99746	0.36790
700.06890	0.39887
698.14033	0.35588
696.21177	0.27746
694.28320	0.16797
692.35464	0.11995
690.42607	0.16679
688.49751	0.19207
686.56895	0.23155
684.64038	0.42053
682.71182	0.53392
680.78325	0.34444
678.85469	0.29748
676.92612	0.44119
674.99756	0.64225
673.06899	0.55312
671.14043	0.35766
669.21187	0.28272
667.28330	0.31884
665.35474	0.45131
663.42617	0.55625
661.49761	0.43470
659.56904	0.37768
657.64048	0.49126
655.71191	0.63896
653.78335	0.74023
651.85479	0.80011
649.92622	0.61351
647.99766	0.47477
646.06909	0.40049
644.14053	0.26747
642.21196	0.18756
640.28340	0.25365
638.35483	0.32920
636.42627	0.31082
634.49771	0.34215
632.56914	0.39990
630.64058	0.36992
628.71201	0.35954
626.78345	0.47136
624.85488	0.86447
622.92632	3.73756
620.99775	1.10486
619.06919	0.51478
617.14062	0.32060
615.21206	0.19611
613.28350	0.16314
611.35493	0.25228
609.42637	0.32433
607.49780	0.32345
605.56924	0.36537
603.64067	0.39378
601.71211	0.36888
599.78354	0.33611
597.85498	0.29719
595.92642	0.26018
593.99785	0.19391
592.06929	0.12625
590.14072	0.12288
588.21216	0.16147
586.28359	0.14715
584.35503	0.11369
582.42646	0.13971
580.49790	0.18252
578.56934	0.21418
576.64077	0.25042
574.71221	0.30985
572.78364	0.39199
570.85508	0.47553
568.92651	0.50049
566.99795	0.43119
565.06938	0.37847
563.14082	0.44017
561.21226	0.54408
559.28369	0.42533
557.35513	0.27358
555.42656	0.22562
553.49800	0.22941
551.56943	0.19506
549.64087	0.15350
547.71230	0.16779
545.78374	0.24944
543.85518	0.37395
541.92661	0.48502
539.99805	0.62378
538.06948	3.22842
536.14092	3.21685
534.21235	0.34322
532.28379	0.23205
530.35522	0.27591
528.42666	0.37539
526.49810	0.43273
524.56953	0.39115
522.64097	0.31023
520.71240	0.25559
518.78384	0.29013
516.85527	0.32316
514.92671	0.26128
512.99814	0.25769
511.06958	0.30379
509.14102	0.29934
507.21245	0.30645
505.28389	0.37752
503.35532	0.39374
501.42676	0.32842
499.49819	0.32387
