3997.91411	0.06144
3995.98555	0.06234
3994.05698	0.06341
3992.12842	0.06395
3990.19985	0.06375
3988.27129	0.06336
3986.34272	0.06335
3984.41416	0.06385
3982.48560	0.06447
3980.55703	0.06455
3978.62847	0.06441
3976.69990	0.06507
3974.77134	0.06630
3972.84277	0.06706
3970.91421	0.06710
3968.98564	0.06692
3967.05708	0.06655
3965.12852	0.06592
3963.19995	0.06580
3961.27139	0.06647
3959.34282	0.06713
3957.41426	0.06761
3955.48569	0.06793
3953.55713	0.06782
3951.62856	0.06795
3949.70000	0.06895
3947.77144	0.06984
3945.84287	0.06984
3943.91431	0.07014
3941.98574	0.07053
3940.05718	0.06931
3938.12861	0.06773
3936.20005	0.06745
3934.27148	0.06843
3932.34292	0.07039
3930.41436	0.07183
3928.48579	0.07123
3926.55723	0.07014
3924.62866	0.07007
3922.70010	0.07011
3920.77153	0.06996
3918.84297	0.07053
3916.91440	0.07119
3914.98584	0.07026
3913.05728	0.06819
3911.12871	0.06666
3909.20015	0.06621
3907.27158	0.06751
3905.34302	0.07118
3903.41445	0.07541
3901.48589	0.07675
3899.55732	0.07540
3897.62876	0.07322
3895.70020	0.07112
3893.77163	0.07062
3891.84307	0.07212
3889.91450	0.07284
3887.98594	0.07187
3886.05737	0.07226
3884.12881	0.07354
3882.20024	0.07429
3880.27168	0.07526
3878.34312	0.07441
3876.41455	0.07244
3874.48599	0.07317
3872.55742	0.07633
3870.62886	0.07938
3868.70029	0.08028
3866.77173	0.07862
3864.84316	0.07807
3862.91460	0.07889
3860.98604	0.07773
3859.05747	0.07596
3857.12891	0.07655
3855.20034	0.07984
3853.27178	0.08506
3851.34321	0.08662
3849.41465	0.08212
3847.48608	0.07839
3845.55752	0.07796
3843.62896	0.08042
3841.70039	0.08425
3839.77183	0.08807
3837.84326	0.09022
3835.91470	0.08902
3833.98613	0.08665
3832.05757	0.08532
3830.12900	0.08473
3828.20044	0.08498
3826.27187	0.08651
3824.34331	0.08853
3822.41475	0.09152
3820.48618	0.09592
3818.55762	0.09731
3816.62905	0.09603
3814.70049	0.09432
3812.77192	0.09180
3810.84336	0.09046
3808.91479	0.09175
3806.98623	0.09542
3805.05767	0.09912
3803.12910	0.10210
3801.20054	0.10543
3799.27197	0.10603
3797.34341	0.10432
3795.41484	0.10337
3793.48628	0.10234
3791.55771	0.10143
3789.62915	0.10162
3787.70059	0.10314
3785.77202	0.10574
3783.84346	0.10827
3781.91489	0.11013
3779.98633	0.11245
3778.05776	0.11468
3776.12920	0.11503
3774.20063	0.11514
3772.27207	0.11715
3770.34351	0.12119
3768.41494	0.12513
3766.48638	0.12706
3764.55781	0.12799
3762.62925	0.12875
3760.70068	0.13110
3758.77212	0.13576
3756.84355	0.13940
3754.91499	0.14142
3752.98643	0.14564
3751.05786	0.15338
3749.12930	0.16002
3747.20073	0.16189
3745.27217	0.16387
3743.34360	0.16802
3741.41504	0.17125
3739.48647	0.17443
3737.55791	0.18079
3735.62935	0.19100
3733.70078	0.20042
3731.77222	0.20369
3729.84365	0.20512
3727.91509	0.20899
3725.98652	0.21584
3724.05796	0.22331
3722.12939	0.22867
3720.20083	0.23218
3718.27227	0.23490
3716.34370	0.23833
3714.41514	0.24463
3712.48657	0.25685
3710.55801	0.27571
3708.62944	0.29193
3706.70088	0.30158
3704.77231	0.31120
3702.84375	0.32424
3700.91519	0.34132
3698.98662	0.35914
3697.05806	0.37575
3695.12949	0.39383
3693.20093	0.41416
3691.27236	0.43758
3689.34380	0.46696
3687.41523	0.49953
3685.48667	0.52648
3683.55811	0.55074
3681.62954	0.57902
3679.70098	0.61287
3677.77241	0.64916
3675.84385	0.69064
3673.91528	0.74287
3671.98672	0.78447
3670.05815	0.82271
3668.12959	0.87443
3666.20103	0.92023
3664.27246	0.95935
3662.34390	1.00273
3660.41533	1.05034
3658.48677	1.09815
3656.55820	1.14943
3654.62964	1.20585
3652.70107	1.25360
3650.77251	1.29715
3648.84395	1.35660
3646.91538	1.42362
3644.98682	1.46957
3643.05825	1.50649
3641.12969	1.54693
3639.20112	1.59211
3637.27256	1.63742
3635.34399	1.68236
3633.41543	1.72824
3631.48687	1.77157
3629.55830	1.81611
3627.62974	1.87234
3625.70117	1.92063
3623.77261	1.95153
3621.84404	1.98217
3619.91548	2.01962
3617.98691	2.06645
3616.05835	2.10985
3614.12979	2.14419
3612.20122	2.18101
3610.27266	2.21998
3608.34409	2.26121
3606.41553	2.30510
3604.48696	2.34397
3602.55840	2.37844
3600.62983	2.41697
3598.70127	2.45876
3596.77271	2.49862
3594.84414	2.53933
3592.91558	2.58121
3590.98701	2.61943
3589.05845	2.65573
3587.12988	2.70021
3585.20132	2.74752
3583.27275	2.78548
3581.34419	2.82051
3579.41562	2.85955
3577.48706	2.90224
3575.55850	2.94546
3573.62993	2.98839
3571.70137	3.02904
3569.77280	3.06876
3567.84424	3.11308
3565.91567	3.16452
3563.98711	3.21186
3562.05854	3.25337
3560.12998	3.29583
3558.20142	3.34031
3556.27285	3.38492
3554.34429	3.42636
3552.41572	3.46977
3550.48716	3.51728
3548.55859	3.56319
3546.63003	3.60677
3544.70146	3.65226
3542.77290	3.69870
3540.84434	3.74314
3538.91577	3.78865
3536.98721	3.83647
3535.05864	3.88574
3533.13008	3.93438
3531.20151	3.98320
3529.27295	4.03344
3527.34438	4.08387
3525.41582	4.13254
3523.48726	4.18016
3521.55869	4.22888
3519.63013	4.27693
3517.70156	4.32292
3515.77300	4.36569
3513.84443	4.40726
3511.91587	4.45179
3509.98730	4.50074
3508.05874	4.55354
3506.13018	4.60526
3504.20161	4.65158
3502.27305	4.69508
3500.34448	4.73941
3498.41592	4.78474
3496.48735	4.83057
3494.55879	4.87896
3492.63022	4.93197
3490.70166	4.98362
3488.77310	5.03012
3486.84453	5.07661
3484.91597	5.12558
3482.98740	5.17731
3481.05884	5.23611
3479.13027	5.29539
3477.20171	5.34346
3475.27314	5.38438
3473.34458	5.42495
3471.41602	5.46832
3469.48745	5.51209
3467.55889	5.54933
3465.63032	5.59023
3463.70176	5.64721
3461.77319	5.71029
3459.84463	5.77109
3457.91606	5.82482
3455.98750	5.86621
3454.05894	5.89905
3452.13037	5.94185
3450.20181	6.00892
3448.27324	6.07980
3446.34468	6.14182
3444.41611	6.20071
3442.48755	6.23704
3440.55898	6.24709
3438.63042	6.27243
3436.70186	6.32530
3434.77329	6.38968
3432.84473	6.46036
3430.91616	6.52391
3428.98760	6.57625
3427.05903	6.61988
3425.13047	6.64995
3423.20190	6.67138
3421.27334	6.70677
3419.34478	6.75903
3417.41621	6.83658
3415.48765	6.93145
3413.55908	6.98152
3411.63052	6.99868
3409.70195	7.03993
3407.77339	7.10003
3405.84482	7.13640
3403.91626	7.16153
3401.98770	7.19876
3400.05913	7.21521
3398.13057	7.22636
3396.20200	7.28178
3394.27344	7.33538
3392.34487	7.33445
3390.41631	7.35227
3388.48774	7.41535
3386.55918	7.47476
3384.63062	7.50262
3382.70205	7.51495
3380.77349	7.55031
3378.84492	7.61785
3376.91636	7.68126
3374.98779	7.69534
3373.05923	7.70167
3371.13066	7.73386
3369.20210	7.79364
3367.27354	7.87080
3365.34497	7.93665
3363.41641	7.97333
3361.48784	7.95736
3359.55928	7.91840
3357.63071	7.90016
3355.70215	7.89560
3353.77358	7.88498
3351.84502	7.91354
3349.91646	7.99001
3347.98789	7.98938
3346.05933	7.87697
3344.13076	7.84869
3342.20220	7.97447
3340.27363	8.08270
3338.34507	8.09278
3336.41650	8.06191
3334.48794	8.03694
3332.55937	8.06475
3330.63081	8.13382
3328.70225	8.15906
3326.77368	8.12041
3324.84512	8.05905
3322.91655	7.99746
3320.98799	7.97784
3319.05942	8.00832
3317.13086	8.05945
3315.20229	8.10959
3313.27373	8.16992
3311.34517	8.20190
3309.41660	8.16838
3307.48804	8.12852
3305.55947	8.13509
3303.63091	8.15137
3301.70234	8.13548
3299.77378	8.16247
3297.84521	8.22084
3295.91665	8.19888
3293.98809	8.11404
3292.05952	8.05602
3290.13096	8.03271
3288.20239	8.04626
3286.27383	8.10600
3284.34526	8.11135
3282.41670	8.03867
3280.48813	8.02279
3278.55957	8.08083
3276.63101	8.09811
3274.70244	8.10393
3272.77388	8.14286
3270.84531	8.18904
3268.91675	8.26565
3266.98818	8.30844
3265.05962	8.26261
3263.13105	8.20638
3261.20249	8.21789
3259.27393	8.23178
3257.34536	8.22169
3255.41680	8.26043
3253.48823	8.26984
3251.55967	8.21488
3249.63110	8.15049
3247.70254	8.05576
3245.77397	7.96466
3243.84541	7.94471
3241.91685	8.02548
3239.98828	8.14606
3238.05972	8.15077
3236.13115	8.08029
3234.20259	8.06481
3232.27402	8.09367
3230.34546	8.11326
3228.41689	8.09391
3226.48833	8.05742
3224.55977	8.02547
3222.63120	8.04345
3220.70264	8.11300
3218.77407	8.10416
3216.84551	7.96350
3214.91694	7.83159
3212.98838	7.81495
3211.05981	7.86796
3209.13125	7.89538
3207.20269	7.87089
3205.27412	7.81920
3203.34556	7.75585
3201.41699	7.69336
3199.48843	7.64532
3197.55986	7.62617
3195.63130	7.64221
3193.70273	7.64016
3191.77417	7.56560
3189.84561	7.45795
3187.91704	7.37838
3185.98848	7.32967
3184.05991	7.28564
3182.13135	7.24222
3180.20278	7.21214
3178.27422	7.17930
3176.34565	7.12863
3174.41709	7.08237
3172.48853	7.03869
3170.55996	6.96581
3168.63140	6.87133
3166.70283	6.79003
3164.77427	6.73644
3162.84570	6.70204
3160.91714	6.65831
3158.98857	6.58853
3157.06001	6.51847
3155.13145	6.47779
3153.20288	6.44539
3151.27432	6.37615
3149.34575	6.27824
3147.41719	6.20023
3145.48862	6.14634
3143.56006	6.07539
3141.63149	5.98670
3139.70293	5.91067
3137.77437	5.84497
3135.84580	5.77733
3133.91724	5.70946
3131.98867	5.63951
3130.06011	5.57244
3128.13154	5.50920
3126.20298	5.43115
3124.27441	5.34236
3122.34585	5.26318
3120.41729	5.19404
3118.48872	5.12721
3116.56016	5.06030
3114.63159	4.99096
3112.70303	4.91707
3110.77446	4.84279
3108.84590	4.77134
3106.91733	4.70144
3104.98877	4.63410
3103.06021	4.56831
3101.13164	4.49989
3099.20308	4.43284
3097.27451	4.37198
3095.34595	4.31043
3093.41738	4.24306
3091.48882	4.17549
3089.56025	4.11070
3087.63169	4.04577
3085.70312	3.97957
3083.77456	3.91392
3081.84600	3.85278
3079.91743	3.79543
3077.98887	3.73596
3076.06030	3.67340
3074.13174	3.61067
3072.20317	3.54933
3070.27461	3.49040
3068.34604	3.43491
3066.41748	3.38206
3064.48892	3.32857
3062.56035	3.27304
3060.63179	3.21757
3058.70322	3.16224
3056.77466	3.10625
3054.84609	3.05162
3052.91753	3.00019
3050.98896	2.95090
3049.06040	2.90181
3047.13184	2.85301
3045.20327	2.80528
3043.27471	2.75775
3041.34614	2.70911
3039.41758	2.65982
3037.48901	2.61200
3035.56045	2.56699
3033.63188	2.52364
3031.70332	2.47987
3029.77476	2.43548
3027.84619	2.39217
3025.91763	2.35023
3023.98906	2.30877
3022.06050	2.26798
3020.13193	2.22797
3018.20337	2.18830
3016.27480	2.14873
3014.34624	2.10910
3012.41768	2.07030
3010.48911	2.03353
3008.56055	1.99804
3006.63198	1.96246
3004.70342	1.92681
3002.77485	1.89137
3000.84629	1.85657
2998.91772	1.82287
2996.98916	1.78979
2995.06060	1.75702
2993.13203	1.72476
2991.20347	1.69282
2989.27490	1.66125
2987.34634	1.63056
2985.41777	1.60061
2983.48921	1.57115
2981.56064	1.54252
2979.63208	1.51464
2977.70352	1.48684
2975.77495	1.45898
2973.84639	1.43141
2971.91782	1.40446
2969.98926	1.37817
2968.06069	1.35225
2966.13213	1.32629
2964.20356	1.30015
2962.27500	1.27483
2960.34644	1.25115
2958.41787	1.22860
2956.48931	1.20641
2954.56074	1.18399
2952.63218	1.16126
2950.70361	1.13930
2948.77505	1.11870
2946.84648	1.09844
2944.91792	1.07782
2942.98936	1.05728
2941.06079	1.03745
2939.13223	1.01839
2937.20366	0.99952
2935.27510	0.98064
2933.34653	0.96189
2931.41797	0.94379
2929.48940	0.92630
2927.56084	0.90874
2925.63228	0.89114
2923.70371	0.87398
2921.77515	0.85768
2919.84658	0.84235
2917.91802	0.82748
2915.98945	0.81235
2914.06089	0.79690
2912.13232	0.78199
2910.20376	0.76819
2908.27520	0.75502
2906.34663	0.74159
2904.41807	0.72785
2902.48950	0.71460
2900.56094	0.70232
2898.63237	0.69055
2896.70381	0.67859
2894.77524	0.66656
2892.84668	0.65491
2890.91812	0.64364
2888.98955	0.63258
2887.06099	0.62159
2885.13242	0.61056
2883.20386	0.59967
2881.27529	0.58911
2879.34673	0.57876
2877.41816	0.56839
2875.48960	0.55814
2873.56104	0.54850
2871.63247	0.53943
2869.70391	0.53030
2867.77534	0.52092
2865.84678	0.51154
2863.91821	0.50247
2861.98965	0.49387
2860.06108	0.48560
2858.13252	0.47729
2856.20396	0.46883
2854.27539	0.46061
2852.34683	0.45293
2850.41826	0.44549
2848.48970	0.43819
2846.56113	0.43117
2844.63257	0.42438
2842.70400	0.41800
2840.77544	0.41207
2838.84687	0.40637
2836.91831	0.40083
2834.98975	0.39530
2833.06118	0.38966
2831.13262	0.38398
2829.20405	0.37840
2827.27549	0.37285
2825.34692	0.36719
2823.41836	0.36155
2821.48979	0.35603
2819.56123	0.35064
2817.63267	0.34537
2815.70410	0.34029
2813.77554	0.33532
2811.84697	0.33026
2809.91841	0.32522
2807.98984	0.32020
2806.06128	0.31519
2804.13271	0.31046
2802.20415	0.30610
2800.27559	0.30188
2798.34702	0.29756
2796.41846	0.29311
2794.48989	0.28872
2792.56133	0.28467
2790.63276	0.28090
2788.70420	0.27708
2786.77563	0.27315
2784.84707	0.26924
2782.91851	0.26543
2780.98994	0.26177
2779.06138	0.25826
2777.13281	0.25488
2775.20425	0.25148
2773.27568	0.24807
2771.34712	0.24472
2769.41855	0.24137
2767.48999	0.23815
2765.56143	0.23515
2763.63286	0.23231
2761.70430	0.22953
2759.77573	0.22668
2757.84717	0.22382
2755.91860	0.22106
2753.99004	0.21835
2752.06147	0.21583
2750.13291	0.21345
2748.20435	0.21091
2746.27578	0.20826
2744.34722	0.20569
2742.41865	0.20314
2740.49009	0.20072
2738.56152	0.19850
2736.63296	0.19638
2734.70439	0.19434
2732.77583	0.19228
2730.84727	0.19016
2728.91870	0.18817
2726.99014	0.18639
2725.06157	0.18459
2723.13301	0.18262
2721.20444	0.18068
2719.27588	0.17905
2717.34731	0.17755
2715.41875	0.17586
2713.49019	0.17407
2711.56162	0.17237
2709.63306	0.17097
2707.70449	0.16980
2705.77593	0.16848
2703.84736	0.16698
2701.91880	0.16545
2699.99023	0.16398
2698.06167	0.16264
2696.13311	0.16132
2694.20454	0.15992
2692.27598	0.15852
2690.34741	0.15731
2688.41885	0.15626
2686.49028	0.15515
2684.56172	0.15404
2682.63315	0.15310
2680.70459	0.15221
2678.77603	0.15127
2676.84746	0.15032
2674.91890	0.14936
2672.99033	0.14837
2671.06177	0.14737
2669.13320	0.14637
2667.20464	0.14554
2665.27607	0.14499
2663.34751	0.14449
2661.41895	0.14386
2659.49038	0.14312
2657.56182	0.14229
2655.63325	0.14147
2653.70469	0.14077
2651.77612	0.14016
2649.84756	0.13969
2647.91899	0.13932
2645.99043	0.13890
2644.06187	0.13851
2642.13330	0.13817
2640.20474	0.13783
2638.27617	0.13747
2636.34761	0.13705
2634.41904	0.13666
2632.49048	0.13643
2630.56191	0.13632
2628.63335	0.13612
2626.70479	0.13577
2624.77622	0.13550
2622.84766	0.13542
2620.91909	0.13540
2618.99053	0.13527
2617.06196	0.13508
2615.13340	0.13488
2613.20483	0.13467
2611.27627	0.13461
2609.34771	0.13478
2607.41914	0.13494
2605.49058	0.13487
2603.56201	0.13474
2601.63345	0.13483
2599.70488	0.13511
2597.77632	0.13536
2595.84775	0.13554
2593.91919	0.13568
2591.99062	0.13577
2590.06206	0.13593
2588.13350	0.13621
2586.20493	0.13659
2584.27637	0.13709
2582.34780	0.13755
2580.41924	0.13790
2578.49067	0.13818
2576.56211	0.13845
2574.63354	0.13878
2572.70498	0.13918
2570.77642	0.13963
2568.84785	0.14020
2566.91929	0.14087
2564.99072	0.14143
2563.06216	0.14178
2561.13359	0.14214
2559.20503	0.14262
2557.27646	0.14300
2555.34790	0.14337
2553.41934	0.14399
2551.49077	0.14478
2549.56221	0.14554
2547.63364	0.14613
2545.70508	0.14665
2543.77651	0.14734
2541.84795	0.14821
2539.91938	0.14895
2537.99082	0.14958
2536.06226	0.15036
2534.13369	0.15115
2532.20513	0.15175
2530.27656	0.15238
2528.34800	0.15318
2526.41943	0.15404
2524.49087	0.15484
2522.56230	0.15559
2520.63374	0.15640
2518.70518	0.15727
2516.77661	0.15808
2514.84805	0.15879
2512.91948	0.15955
2510.99092	0.16042
2509.06235	0.16138
2507.13379	0.16235
2505.20522	0.16317
2503.27666	0.16390
2501.34810	0.16467
2499.41953	0.16561
2497.49097	0.16668
2495.56240	0.16768
2493.63384	0.16851
2491.70527	0.16922
2489.77671	0.17008
2487.84814	0.17114
2485.91958	0.17211
2483.99102	0.17293
2482.06245	0.17393
2480.13389	0.17509
2478.20532	0.17613
2476.27676	0.17705
2474.34819	0.17811
2472.41963	0.17925
2470.49106	0.18018
2468.56250	0.18090
2466.63394	0.18170
2464.70537	0.18275
2462.77681	0.18399
2460.84824	0.18513
2458.91968	0.18603
2456.99111	0.18687
2455.06255	0.18777
2453.13398	0.18871
2451.20542	0.18966
2449.27686	0.19071
2447.34829	0.19182
2445.41973	0.19285
2443.49116	0.19385
2441.56260	0.19485
2439.63403	0.19594
2437.70547	0.19707
2435.77690	0.19816
2433.84834	0.19929
2431.91978	0.20042
2429.99121	0.20141
2428.06265	0.20238
2426.13408	0.20359
2424.20552	0.20490
2422.27695	0.20605
2420.34839	0.20718
2418.41982	0.20837
2416.49126	0.20943
2414.56270	0.21043
2412.63413	0.21159
2410.70557	0.21286
2408.77700	0.21413
2406.84844	0.21537
2404.91987	0.21669
2402.99131	0.21801
2401.06274	0.21926
2399.13418	0.22048
2397.20562	0.22172
2395.27705	0.22298
2393.34849	0.22431
2391.41992	0.22573
2389.49136	0.22746
2387.56279	0.23004
2385.63423	0.23424
2383.70566	0.24079
2381.77710	0.24988
2379.84854	0.26106
2377.91997	0.27388
2375.99141	0.28853
2374.06284	0.30564
2372.13428	0.32515
2370.20571	0.34602
2368.27715	0.36744
2366.34858	0.38871
2364.42002	0.40745
2362.49146	0.42099
2360.56289	0.42838
2358.63433	0.42935
2356.70576	0.42220
2354.77720	0.40601
2352.84863	0.38446
2350.92007	0.36310
2348.99150	0.35035
2347.06294	0.35111
2345.13437	0.36547
2343.20581	0.38456
2341.27725	0.39417
2339.34868	0.39475
2337.42012	0.39304
2335.49155	0.39127
2333.56299	0.38931
2331.63442	0.38785
2329.70586	0.38643
2327.77729	0.38345
2325.84873	0.37847
2323.92017	0.37265
2321.99160	0.36666
2320.06304	0.35986
2318.13447	0.35227
2316.20591	0.34546
2314.27734	0.34102
2312.34878	0.33879
2310.42021	0.33693
2308.49165	0.33392
2306.56309	0.32996
2304.63452	0.32634
2302.70596	0.32423
2300.77739	0.32340
2298.84883	0.32279
2296.92026	0.32206
2294.99170	0.32129
2293.06313	0.32050
2291.13457	0.31983
2289.20601	0.31943
2287.27744	0.31925
2285.34888	0.31930
2283.42031	0.31991
2281.49175	0.32150
2279.56318	0.32398
2277.63462	0.32671
2275.70605	0.32920
2273.77749	0.33130
2271.84893	0.33323
2269.92036	0.33523
2267.99180	0.33732
2266.06323	0.33937
2264.13467	0.34133
2262.20610	0.34308
2260.27754	0.34456
2258.34897	0.34605
2256.42041	0.34782
2254.49185	0.34973
2252.56328	0.35152
2250.63472	0.35325
2248.70615	0.35509
2246.77759	0.35703
2244.84902	0.35900
2242.92046	0.36102
2240.99189	0.36311
2239.06333	0.36522
2237.13477	0.36728
2235.20620	0.36931
2233.27764	0.37149
2231.34907	0.37381
2229.42051	0.37608
2227.49194	0.37823
2225.56338	0.38037
2223.63481	0.38256
2221.70625	0.38479
2219.77769	0.38699
2217.84912	0.38913
2215.92056	0.39126
2213.99199	0.39346
2212.06343	0.39569
2210.13486	0.39775
2208.20630	0.39967
2206.27773	0.40172
2204.34917	0.40388
2202.42061	0.40597
2200.49204	0.40795
2198.56348	0.40988
2196.63491	0.41177
2194.70635	0.41368
2192.77778	0.41573
2190.84922	0.41778
2188.92065	0.41955
2186.99209	0.42127
2185.06353	0.42311
2183.13496	0.42486
2181.20640	0.42651
2179.27783	0.42823
2177.34927	0.42997
2175.42070	0.43156
2173.49214	0.43303
2171.56357	0.43445
2169.63501	0.43582
2167.70645	0.43716
2165.77788	0.43844
2163.84932	0.43962
2161.92075	0.44073
2159.99219	0.44175
2158.06362	0.44266
2156.13506	0.44367
2154.20649	0.44477
2152.27793	0.44577
2150.34937	0.44660
2148.42080	0.44720
2146.49224	0.44762
2144.56367	0.44810
2142.63511	0.44873
2140.70654	0.44932
2138.77798	0.44973
2136.84941	0.44991
2134.92085	0.44994
2132.99229	0.44995
2131.06372	0.44996
2129.13516	0.44983
2127.20659	0.44972
2125.27803	0.44972
2123.34946	0.44950
2121.42090	0.44889
2119.49233	0.44809
2117.56377	0.44738
2115.63521	0.44685
2113.70664	0.44636
2111.77808	0.44568
2109.84951	0.44473
2107.92095	0.44370
2105.99238	0.44269
2104.06382	0.44163
2102.13525	0.44052
2100.20669	0.43937
2098.27812	0.43813
2096.34956	0.43682
2094.42100	0.43539
2092.49243	0.43385
2090.56387	0.43223
2088.63530	0.43052
2086.70674	0.42891
2084.77817	0.42736
2082.84961	0.42561
2080.92104	0.42361
2078.99248	0.42164
2077.06392	0.41972
2075.13535	0.41770
2073.20679	0.41554
2071.27822	0.41328
2069.34966	0.41109
2067.42109	0.40904
2065.49253	0.40705
2063.56396	0.40484
2061.63540	0.40239
2059.70684	0.39990
2057.77827	0.39745
2055.84971	0.39504
2053.92114	0.39258
2051.99258	0.39009
2050.06401	0.38755
2048.13545	0.38501
2046.20688	0.38244
2044.27832	0.37984
2042.34976	0.37722
2040.42119	0.37462
2038.49263	0.37202
2036.56406	0.36930
2034.63550	0.36652
2032.70693	0.36377
2030.77837	0.36107
2028.84980	0.35839
2026.92124	0.35575
2024.99268	0.35310
2023.06411	0.35042
2021.13555	0.34778
2019.20698	0.34532
2017.27842	0.34279
2015.34985	0.33980
2013.42129	0.33673
2011.49272	0.33395
2009.56416	0.33136
2007.63560	0.32884
2005.70703	0.32632
2003.77847	0.32367
2001.84990	0.32095
1999.92134	0.31831
1997.99277	0.31572
1996.06421	0.31322
1994.13564	0.31098
1992.20708	0.30882
1990.27852	0.30637
1988.34995	0.30377
1986.42139	0.30119
1984.49282	0.29858
1982.56426	0.29604
1980.63569	0.29367
1978.70713	0.29144
1976.77856	0.28930
1974.85000	0.28710
1972.92144	0.28479
1970.99287	0.28260
1969.06431	0.28084
1967.13574	0.27916
1965.20718	0.27697
1963.27861	0.27468
1961.35005	0.27269
1959.42148	0.27081
1957.49292	0.26900
1955.56436	0.26724
1953.63579	0.26542
1951.70723	0.26364
1949.77866	0.26199
1947.85010	0.26046
1945.92153	0.25922
1943.99297	0.25835
1942.06440	0.25726
1940.13584	0.25535
1938.20728	0.25333
1936.27871	0.25179
1934.35015	0.25046
1932.42158	0.24916
1930.49302	0.24792
1928.56445	0.24676
1926.63589	0.24577
1924.70732	0.24522
1922.77876	0.24483
1920.85020	0.24399
1918.92163	0.24302
1916.99307	0.24193
1915.06450	0.24048
1913.13594	0.23929
1911.20737	0.23872
1909.27881	0.23833
1907.35024	0.23759
1905.42168	0.23664
1903.49312	0.23588
1901.56455	0.23528
1899.63599	0.23473
1897.70742	0.23443
1895.77886	0.23434
1893.85029	0.23411
1891.92173	0.23383
1889.99316	0.23386
1888.06460	0.23354
1886.13604	0.23281
1884.20747	0.23232
1882.27891	0.23201
1880.35034	0.23175
1878.42178	0.23158
1876.49321	0.23152
1874.56465	0.23157
1872.63608	0.23198
1870.70752	0.23313
1868.77896	0.23474
1866.85039	0.23500
1864.92183	0.23384
1862.99326	0.23302
1861.06470	0.23302
1859.13613	0.23341
1857.20757	0.23376
1855.27900	0.23413
1853.35044	0.23452
1851.42187	0.23512
1849.49331	0.23607
1847.56475	0.23735
1845.63618	0.23889
1843.70762	0.24015
1841.77905	0.24021
1839.85049	0.23995
1837.92192	0.24054
1835.99336	0.24141
1834.06479	0.24227
1832.13623	0.24372
1830.20767	0.24598
1828.27910	0.24764
1826.35054	0.24825
1824.42197	0.24912
1822.49341	0.24995
1820.56484	0.25073
1818.63628	0.25183
1816.70771	0.25332
1814.77915	0.25502
1812.85059	0.25720
1810.92202	0.25974
1808.99346	0.26174
1807.06489	0.26322
1805.13633	0.26492
1803.20776	0.26745
1801.27920	0.27067
1799.35063	0.27378
1797.42207	0.27610
1795.49351	0.27856
1793.56494	0.28205
1791.63638	0.28617
1789.70781	0.28881
1787.77925	0.29040
1785.85068	0.29320
1783.92212	0.29700
1781.99355	0.30120
1780.06499	0.30556
1778.13643	0.30974
1776.20786	0.31388
1774.27930	0.31908
1772.35073	0.32612
1770.42217	0.33241
1768.49360	0.33660
1766.56504	0.34068
1764.63647	0.34562
1762.70791	0.35190
1760.77935	0.35972
1758.85078	0.36665
1756.92222	0.37364
1754.99365	0.38122
1753.06509	0.38842
1751.13652	0.39781
1749.20796	0.40946
1747.27939	0.41986
1745.35083	0.42855
1743.42227	0.43789
1741.49370	0.44828
1739.56514	0.46055
1737.63657	0.47292
1735.70801	0.48423
1733.77944	0.50146
1731.85088	0.52082
1729.92231	0.53523
1727.99375	0.54985
1726.06519	0.56598
1724.13662	0.58419
1722.20806	0.60413
1720.27949	0.62304
1718.35093	0.64609
1716.42236	0.67930
1714.49380	0.70866
1712.56523	0.73138
1710.63667	0.75397
1708.70811	0.77931
1706.77954	0.80883
1704.85098	0.84383
1702.92241	0.87454
1700.99385	0.90499
1699.06528	0.95033
1697.13672	0.99110
1695.20815	1.03089
1693.27959	1.06856
1691.35103	1.09947
1689.42246	1.13613
1687.49390	1.17493
1685.56533	1.21245
1683.63677	1.26926
1681.70820	1.32628
1679.77964	1.36262
1677.85107	1.39836
1675.92251	1.44005
1673.99395	1.49025
1672.06538	1.53366
1670.13682	1.57603
1668.20825	1.63019
1666.27969	1.67337
1664.35112	1.70970
1662.42256	1.75366
1660.49399	1.80099
1658.56543	1.83803
1656.63687	1.87001
1654.70830	1.90264
1652.77974	1.95723
1650.85117	2.00832
1648.92261	2.02911
1646.99404	2.05836
1645.06548	2.09232
1643.13691	2.11438
1641.20835	2.12934
1639.27979	2.14350
1637.35122	2.15433
1635.42266	2.15924
1633.49409	2.15539
1631.56553	2.14583
1629.63696	2.13383
1627.70840	2.11170
1625.77983	2.08428
1623.85127	2.04991
1621.92271	2.00758
1619.99414	1.96905
1618.06558	1.93022
1616.13701	1.87276
1614.20845	1.81278
1612.27988	1.76716
1610.35132	1.72014
1608.42275	1.66900
1606.49419	1.61797
1604.56562	1.57054
1602.63706	1.52459
1600.70850	1.47919
1598.77993	1.43670
1596.85137	1.39649
1594.92280	1.35741
1592.99424	1.31915
1591.06567	1.28362
1589.13711	1.25005
1587.20854	1.21771
1585.27998	1.18663
1583.35142	1.15725
1581.42285	1.13039
1579.49429	1.10742
1577.56572	1.08684
1575.63716	1.06035
1573.70859	1.03502
1571.78003	1.01802
1569.85146	1.00022
1567.92290	0.97940
1565.99434	0.96220
1564.06577	0.94731
1562.13721	0.93518
1560.20864	0.92582
1558.28008	0.90796
1556.35151	0.88846
1554.42295	0.87576
1552.49438	0.86388
1550.56582	0.85273
1548.63726	0.84156
1546.70869	0.83222
1544.78013	0.82514
1542.85156	0.81876
1540.92300	0.81091
1538.99443	0.79710
1537.06587	0.78551
1535.13730	0.77892
1533.20874	0.77180
1531.28018	0.76331
1529.35161	0.75692
1527.42305	0.75173
1525.49448	0.74662
1523.56592	0.74217
1521.63735	0.73721
1519.70879	0.73019
1517.78022	0.72380
1515.85166	0.71756
1513.92310	0.71149
1511.99453	0.70730
1510.06597	0.70499
1508.13740	0.70414
1506.20884	0.69964
1504.28027	0.69131
1502.35171	0.68604
1500.42314	0.68287
1498.49458	0.68068
1496.56602	0.67776
1494.63745	0.67360
1492.70889	0.67057
1490.78032	0.66943
1488.85176	0.66799
1486.92319	0.66421
1484.99463	0.66004
1483.06606	0.65709
1481.13750	0.65492
1479.20894	0.65292
1477.28037	0.65150
1475.35181	0.65083
1473.42324	0.64984
1471.49468	0.64623
1469.56611	0.64144
1467.63755	0.63820
1465.70898	0.63605
1463.78042	0.63360
1461.85186	0.63124
1459.92329	0.63030
1457.99473	0.63021
1456.06616	0.62744
1454.13760	0.62260
1452.20903	0.61921
1450.28047	0.61689
1448.35190	0.61493
1446.42334	0.61246
1444.49478	0.60984
1442.56621	0.60785
1440.63765	0.60642
1438.70908	0.60557
1436.78052	0.60473
1434.85195	0.60285
1432.92339	0.60098
1430.99482	0.59984
1429.06626	0.59846
1427.13770	0.59656
1425.20913	0.59506
1423.28057	0.59388
1421.35200	0.59282
1419.42344	0.59214
1417.49487	0.59059
1415.56631	0.58780
1413.63774	0.58545
1411.70918	0.58377
1409.78062	0.58218
1407.85205	0.58059
1405.92349	0.57927
1403.99492	0.57788
1402.06636	0.57649
1400.13779	0.57574
1398.20923	0.57523
1396.28066	0.57417
1394.35210	0.57227
1392.42354	0.56991
1390.49497	0.56820
1388.56641	0.56737
1386.63784	0.56653
1384.70928	0.56499
1382.78071	0.56345
1380.85215	0.56232
1378.92358	0.56153
1376.99502	0.56109
1375.06646	0.56086
1373.13789	0.55997
1371.20933	0.55856
1369.28076	0.55764
1367.35220	0.55695
1365.42363	0.55624
1363.49507	0.55598
1361.56650	0.55558
1359.63794	0.55422
1357.70937	0.55272
1355.78081	0.55162
1353.85225	0.55061
1351.92368	0.54963
1349.99512	0.54884
1348.06655	0.54808
1346.13799	0.54717
1344.20942	0.54633
1342.28086	0.54580
1340.35229	0.54553
1338.42373	0.54485
1336.49517	0.54346
1334.56660	0.54204
1332.63804	0.54100
1330.70947	0.54018
1328.78091	0.53941
1326.85234	0.53870
1324.92378	0.53800
1322.99521	0.53729
1321.06665	0.53678
1319.13809	0.53636
1317.20952	0.53570
1315.28096	0.53486
1313.35239	0.53393
1311.42383	0.53287
1309.49526	0.53189
1307.56670	0.53108
1305.63813	0.53027
1303.70957	0.52944
1301.78101	0.52859
1299.85244	0.52768
1297.92388	0.52687
1295.99531	0.52625
1294.06675	0.52564
1292.13818	0.52495
1290.20962	0.52432
1288.28105	0.52377
1286.35249	0.52318
1284.42393	0.52264
1282.49536	0.52221
1280.56680	0.52187
1278.63823	0.52149
1276.70967	0.52103
1274.78110	0.52055
1272.85254	0.52008
1270.92397	0.51956
1268.99541	0.51895
1267.06685	0.51838
1265.13828	0.51792
1263.20972	0.51749
1261.28115	0.51708
1259.35259	0.51671
1257.42402	0.51630
1255.49546	0.51589
1253.56689	0.51557
1251.63833	0.51530
1249.70977	0.51505
1247.78120	0.51484
1245.85264	0.51457
1243.92407	0.51409
1241.99551	0.51352
1240.06694	0.51308
1238.13838	0.51271
1236.20981	0.51224
1234.28125	0.51164
1232.35269	0.51107
1230.42412	0.51061
1228.49556	0.51013
1226.56699	0.50956
1224.63843	0.50901
1222.70986	0.50847
1220.78130	0.50784
1218.85273	0.50709
1216.92417	0.50639
1214.99561	0.50587
1213.06704	0.50547
1211.13848	0.50511
1209.20991	0.50465
1207.28135	0.50412
1205.35278	0.50359
1203.42422	0.50304
1201.49565	0.50250
1199.56709	0.50204
1197.63853	0.50161
1195.70996	0.50115
1193.78140	0.50077
1191.85283	0.50054
1189.92427	0.50027
1187.99570	0.49989
1186.06714	0.49952
1184.13857	0.49915
1182.21001	0.49893
1180.28145	0.49898
1178.35288	0.49924
1176.42432	0.49975
1174.49575	0.50044
1172.56719	0.50109
1170.63862	0.50171
1168.71006	0.50238
1166.78149	0.50296
1164.85293	0.50328
1162.92437	0.50342
1160.99580	0.50358
1159.06724	0.50358
1157.13867	0.50308
1155.21011	0.50219
1153.28154	0.50099
1151.35298	0.49944
1149.42441	0.49760
1147.49585	0.49558
1145.56729	0.49349
1143.63872	0.49130
1141.71016	0.48896
1139.78159	0.48658
1137.85303	0.48428
1135.92446	0.48226
1133.99590	0.48067
1132.06733	0.47925
1130.13877	0.47788
1128.21021	0.47672
1126.28164	0.47563
1124.35308	0.47447
1122.42451	0.47342
1120.49595	0.47268
1118.56738	0.47218
1116.63882	0.47177
1114.71025	0.47146
1112.78169	0.47141
1110.85312	0.47188
1108.92456	0.47270
1106.99600	0.47342
1105.06743	0.47417
1103.13887	0.47537
1101.21030	0.47706
1099.28174	0.47913
1097.35317	0.48158
1095.42461	0.48454
1093.49604	0.48810
1091.56748	0.49226
1089.63892	0.49714
1087.71035	0.50258
1085.78179	0.50852
1083.85322	0.51508
1081.92466	0.52159
1079.99609	0.52703
1078.06753	0.53062
1076.13896	0.53173
1074.21040	0.53005
1072.28184	0.52590
1070.35327	0.51994
1068.42471	0.51308
1066.49614	0.50638
1064.56758	0.50052
1062.63901	0.49542
1060.71045	0.49056
1058.78188	0.48594
1056.85332	0.48195
1054.92476	0.47875
1052.99619	0.47619
1051.06763	0.47403
1049.13906	0.47217
1047.21050	0.47066
1045.28193	0.46961
1043.35337	0.46899
1041.42480	0.46871
1039.49624	0.46885
1037.56768	0.46898
1035.63911	0.46867
1033.71055	0.46820
1031.78198	0.46788
1029.85342	0.46788
1027.92485	0.46817
1025.99629	0.46844
1024.06772	0.46868
1022.13916	0.46918
1020.21060	0.46980
1018.28203	0.47033
1016.35347	0.47101
1014.42490	0.47214
1012.49634	0.47353
1010.56777	0.47487
1008.63921	0.47629
1006.71064	0.47778
1004.78208	0.47931
1002.85352	0.48132
1000.92495	0.48415
998.99639	0.48738
997.06782	0.49077
995.13926	0.49455
993.21069	0.49848
991.28213	0.50189
989.35356	0.50440
987.42500	0.50595
985.49644	0.50678
983.56787	0.50751
981.63931	0.50865
979.71074	0.51021
977.78218	0.51202
975.85361	0.51403
973.92505	0.51648
971.99648	0.51955
970.06792	0.52307
968.13936	0.52691
966.21079	0.53113
964.28223	0.53572
962.35366	0.54055
960.42510	0.54557
958.49653	0.55069
956.56797	0.55598
954.63940	0.56194
952.71084	0.56833
950.78228	0.57441
948.85371	0.58046
946.92515	0.58687
944.99658	0.59315
943.06802	0.59922
941.13945	0.60546
939.21089	0.61148
937.28232	0.61691
935.35376	0.62223
933.42520	0.62755
931.49663	0.63281
929.56807	0.63845
927.63950	0.64424
925.71094	0.64978
923.78237	0.65563
921.85381	0.66198
919.92524	0.66837
917.99668	0.67511
916.06812	0.68237
914.13955	0.68954
912.21099	0.69694
910.28242	0.70478
908.35386	0.71247
906.42529	0.72034
904.49673	0.72876
902.56816	0.73760
900.63960	0.74679
898.71104	0.75608
896.78247	0.76581
894.85391	0.77583
892.92534	0.78536
890.99678	0.79510
889.06821	0.80571
887.13965	0.81598
885.21108	0.82582
883.28252	0.83653
881.35396	0.84855
879.42539	0.86116
877.49683	0.87258
875.56826	0.88238
873.63970	0.89263
871.71113	0.90476
869.78257	0.91740
867.85400	0.92891
865.92544	0.93923
863.99687	0.94959
862.06831	0.96105
860.13975	0.97260
858.21118	0.98387
856.28262	0.99518
854.35405	1.00530
852.42549	1.01476
850.49692	1.02593
848.56836	1.03895
846.63979	1.05157
844.71123	1.06253
842.78267	1.07327
840.85410	1.08427
838.92554	1.09393
836.99697	1.10333
835.06841	1.11401
833.13984	1.12506
831.21128	1.13546
829.28271	1.14565
827.35415	1.15728
825.42559	1.16760
823.49702	1.17347
821.56846	1.17956
819.63989	1.18975
817.71133	1.20019
815.78276	1.21205
813.85420	1.23034
811.92563	1.25195
809.99707	1.26625
808.06851	1.25869
806.13994	1.24049
804.21138	1.24068
802.28281	1.26223
800.35425	1.28437
798.42568	1.29847
796.49712	1.31195
794.56855	1.32751
792.63999	1.33155
790.71143	1.31052
788.78286	1.30178
786.85430	1.33765
784.92573	1.38127
782.99717	1.35748
781.06860	1.28281
779.14004	1.24465
777.21147	1.27280
775.28291	1.32052
773.35435	1.33606
771.42578	1.30505
769.49722	1.23117
767.56865	1.19412
765.64009	1.22232
763.71152	1.26585
761.78296	1.27530
759.85439	1.22814
757.92583	1.15569
755.99727	1.11829
754.06870	1.14257
752.14014	1.17726
750.21157	1.16117
748.28301	1.19454
746.35444	1.35645
744.42588	1.26722
742.49731	1.01504
740.56875	0.90528
738.64019	0.86592
736.71162	0.84255
734.78306	0.84830
732.85449	0.87188
730.92593	0.83076
728.99736	0.64403
727.06880	0.41541
725.14023	0.25240
723.21167	0.24248
721.28311	0.44211
719.35454	0.78752
717.42598	0.67237
715.49741	0.43999
713.56885	0.76249
711.64028	4.26984
709.71172	4.25827
707.78315	0.62947
705.85459	0.35123
703.92603	0.33437
701.99746	0.22786
700.06890	0.16684
698.14033	0.24776
696.21177	0.34092
694.28320	0.39081
692.35464	0.40191
690.42607	0.41871
688.49751	0.36603
686.56895	0.26061
684.64038	0.22344
682.71182	0.22445
680.78325	0.21035
678.85469	0.22013
676.92612	0.24612
674.99756	0.25287
673.06899	0.26230
671.14043	0.20649
669.21187	0.11240
667.28330	0.10540
665.35474	0.14963
663.42617	0.16679
661.49761	0.17755
659.56904	0.23924
657.64048	0.30218
655.71191	0.33882
653.78335	0.34601
651.85479	0.28868
649.92622	0.26176
647.99766	0.29596
646.06909	0.34470
644.14053	0.35031
642.21196	0.32766
640.28340	0.34728
638.35483	0.51719
636.42627	0.92499
634.49771	0.74956
632.56914	0.67493
630.64058	0.74685
628.71201	0.52715
626.78345	0.42125
624.85488	0.49639
622.92632	0.50603
620.99775	0.38164
619.06919	0.27734
617.14062	0.22145
615.21206	0.20988
613.28350	0.24643
611.35493	0.35262
609.42637	0.49755
607.49780	0.47174
605.56924	0.33740
603.64067	0.27878
601.71211	0.26907
599.78354	0.25954
597.85498	0.27623
595.92642	0.31645
593.99785	0.31627
592.06929	0.35363
590.14072	0.47227
588.21216	0.42973
586.28359	0.27816
584.35503	0.22967
582.42646	0.25709
580.49790	0.26111
578.56934	0.20674
576.64077	0.15150
574.71221	0.14306
572.78364	0.18783
570.85508	0.30876
568.92651	0.55349
566.99795	0.46410
565.06938	0.24906
563.14082	0.15556
561.21226	0.13217
559.28369	0.17285
557.35513	0.23227
555.42656	0.26910
553.49800	0.28257
551.56943	0.24946
549.64087	0.19480
547.71230	0.15405
545.78374	0.15109
543.85518	0.19278
541.92661	0.24457
539.99805	0.27590
538.06948	0.28701
536.14092	0.27876
534.21235	0.25476
532.28379	0.25215
530.35522	0.29222
528.42666	0.31658
526.49810	0.29861
524.56953	0.33774
522.64097	0.46564
520.71240	0.50747
518.78384	0.46945
516.85527	0.44091
514.92671	0.39232
512.99814	0.33578
511.06958	0.26261
509.14102	0.22247
507.21245	0.23355
505.28389	0.28675
503.35532	0.41672
501.42676	0.45589
499.49819	0.32853
