3997.91411	0.06602
3995.98555	0.06680
3994.05698	0.06731
3992.12842	0.06722
3990.19985	0.06685
3988.27129	0.06681
3986.34272	0.06723
3984.41416	0.06797
3982.48560	0.06862
3980.55703	0.06879
3978.62847	0.06874
3976.69990	0.06895
3974.77134	0.06937
3972.84277	0.06985
3970.91421	0.07042
3968.98564	0.07055
3967.05708	0.07013
3965.12852	0.07005
3963.19995	0.07067
3961.27139	0.07144
3959.34282	0.07180
3957.41426	0.07149
3955.48569	0.07085
3953.55713	0.07068
3951.62856	0.07148
3949.70000	0.07302
3947.77144	0.07409
3945.84287	0.07385
3943.91431	0.07358
3941.98574	0.07384
3940.05718	0.07319
3938.12861	0.07187
3936.20005	0.07135
3934.27148	0.07226
3932.34292	0.07431
3930.41436	0.07553
3928.48579	0.07447
3926.55723	0.07314
3924.62866	0.07332
3922.70010	0.07373
3920.77153	0.07357
3918.84297	0.07410
3916.91440	0.07481
3914.98584	0.07378
3913.05728	0.07159
3911.12871	0.07021
3909.20015	0.07020
3907.27158	0.07178
3905.34302	0.07551
3903.41445	0.07989
3901.48589	0.08138
3899.55732	0.07999
3897.62876	0.07741
3895.70020	0.07461
3893.77163	0.07360
3891.84307	0.07512
3889.91450	0.07653
3887.98594	0.07588
3886.05737	0.07576
3884.12881	0.07689
3882.20024	0.07803
3880.27168	0.07914
3878.34312	0.07830
3876.41455	0.07626
3874.48599	0.07656
3872.55742	0.07870
3870.62886	0.08089
3868.70029	0.08198
3866.77173	0.08083
3864.84316	0.08057
3862.91460	0.08175
3860.98604	0.08085
3859.05747	0.07897
3857.12891	0.07923
3855.20034	0.08248
3853.27178	0.08830
3851.34321	0.09058
3849.41465	0.08622
3847.48608	0.08214
3845.55752	0.08100
3843.62896	0.08296
3841.70039	0.08647
3839.77183	0.08987
3837.84326	0.09232
3835.91470	0.09218
3833.98613	0.09014
3832.05757	0.08827
3830.12900	0.08703
3828.20044	0.08683
3826.27187	0.08818
3824.34331	0.09027
3822.41475	0.09339
3820.48618	0.09813
3818.55762	0.09948
3816.62905	0.09786
3814.70049	0.09643
3812.77192	0.09394
3810.84336	0.09202
3808.91479	0.09276
3806.98623	0.09630
3805.05767	0.09997
3803.12910	0.10248
3801.20054	0.10617
3799.27197	0.10821
3797.34341	0.10697
3795.41484	0.10563
3793.48628	0.10404
3791.55771	0.10283
3789.62915	0.10308
3787.70059	0.10454
3785.77202	0.10697
3783.84346	0.10948
3781.91489	0.11112
3779.98633	0.11296
3778.05776	0.11501
3776.12920	0.11542
3774.20063	0.11541
3772.27207	0.11713
3770.34351	0.12094
3768.41494	0.12507
3766.48638	0.12749
3764.55781	0.12910
3762.62925	0.13042
3760.70068	0.13252
3758.77212	0.13640
3756.84355	0.13970
3754.91499	0.14151
3752.98643	0.14519
3751.05786	0.15307
3749.12930	0.16099
3747.20073	0.16289
3745.27217	0.16356
3743.34360	0.16655
3741.41504	0.16924
3739.48647	0.17162
3737.55791	0.17672
3735.62935	0.18581
3733.70078	0.19478
3731.77222	0.19754
3729.84365	0.19764
3727.91509	0.19974
3725.98652	0.20523
3724.05796	0.21282
3722.12939	0.21991
3720.20083	0.22561
3718.27227	0.23028
3716.34370	0.23528
3714.41514	0.24206
3712.48657	0.25353
3710.55801	0.27135
3708.62944	0.28668
3706.70088	0.29518
3704.77231	0.30385
3702.84375	0.31646
3700.91519	0.33382
3698.98662	0.35223
3697.05806	0.36904
3695.12949	0.38726
3693.20093	0.40813
3691.27236	0.43240
3689.34380	0.46234
3687.41523	0.49474
3685.48667	0.52141
3683.55811	0.54565
3681.62954	0.57367
3679.70098	0.60649
3677.77241	0.64184
3675.84385	0.68423
3673.91528	0.73918
3671.98672	0.78178
3670.05815	0.81935
3668.12959	0.87060
3666.20103	0.91615
3664.27246	0.95471
3662.34390	0.99770
3660.41533	1.04526
3658.48677	1.09259
3656.55820	1.14285
3654.62964	1.19865
3652.70107	1.24615
3650.77251	1.28967
3648.84395	1.35067
3646.91538	1.42047
3644.98682	1.46672
3643.05825	1.50197
3641.12969	1.54022
3639.20112	1.58387
3637.27256	1.62847
3635.34399	1.67216
3633.41543	1.71658
3631.48687	1.75939
3629.55830	1.80331
3627.62974	1.85909
3625.70117	1.90860
3623.77261	1.94097
3621.84404	1.97316
3619.91548	2.01185
3617.98691	2.05926
3616.05835	2.10381
3614.12979	2.13982
3612.20122	2.17752
3610.27266	2.21576
3608.34409	2.25526
3606.41553	2.29827
3604.48696	2.33783
3602.55840	2.37250
3600.62983	2.40979
3598.70127	2.45079
3596.77271	2.49138
3594.84414	2.53280
3592.91558	2.57516
3590.98701	2.61351
3589.05845	2.64835
3587.12988	2.69164
3585.20132	2.74000
3583.27275	2.77947
3581.34419	2.81487
3579.41562	2.85231
3577.48706	2.89403
3575.55850	2.93915
3573.62993	2.98379
3571.70137	3.02480
3569.77280	3.06533
3567.84424	3.11121
3565.91567	3.16550
3563.98711	3.21233
3562.05854	3.24746
3560.12998	3.28633
3558.20142	3.33231
3556.27285	3.37878
3554.34429	3.42316
3552.41572	3.47034
3550.48716	3.51893
3548.55859	3.56496
3546.63003	3.61144
3544.70146	3.66095
3542.77290	3.70945
3540.84434	3.75494
3538.91577	3.79841
3536.98721	3.83869
3535.05864	3.88108
3533.13008	3.92824
3531.20151	3.97747
3529.27295	4.02973
3527.34438	4.08280
3525.41582	4.12834
3523.48726	4.16871
3521.55869	4.21314
3519.63013	4.26193
3517.70156	4.31353
3515.77300	4.36438
3513.84443	4.41163
3511.91587	4.45745
3509.98730	4.50561
3508.05874	4.55877
3506.13018	4.61153
3504.20161	4.65830
3502.27305	4.70196
3500.34448	4.74185
3498.41592	4.78020
3496.48735	4.82791
3494.55879	4.88313
3492.63022	4.93499
3490.70166	4.98303
3488.77310	5.03331
3486.84453	5.08504
3484.91597	5.13385
3482.98740	5.18190
3481.05884	5.22997
3479.13027	5.27423
3477.20171	5.31789
3475.27314	5.36802
3473.34458	5.42569
3471.41602	5.48094
3469.48745	5.52094
3467.55889	5.54839
3465.63032	5.58026
3463.70176	5.62823
3461.77319	5.68751
3459.84463	5.75013
3457.91606	5.80651
3455.98750	5.85410
3454.05894	5.90279
3452.13037	5.95545
3450.20181	6.00848
3448.27324	6.06571
3446.34468	6.12238
3444.41611	6.15403
3442.48755	6.17618
3440.55898	6.21943
3438.63042	6.27586
3436.70186	6.33178
3434.77329	6.39629
3432.84473	6.46933
3430.91616	6.52535
3428.98760	6.56962
3427.05903	6.62980
3425.13047	6.69845
3423.20190	6.74437
3421.27334	6.77246
3419.34478	6.79530
3417.41621	6.82174
3415.48765	6.87892
3413.55908	6.96998
3411.63052	7.05507
3409.70195	7.08669
3407.77339	7.08122
3405.84482	7.07733
3403.91626	7.11385
3401.98770	7.18769
3400.05913	7.24736
3398.13057	7.28972
3396.20200	7.32733
3394.27344	7.33778
3392.34487	7.33246
3390.41631	7.37988
3388.48774	7.45638
3386.55918	7.48799
3384.63062	7.50143
3382.70205	7.55341
3380.77349	7.61222
3378.84492	7.64827
3376.91636	7.68991
3374.98779	7.71250
3373.05923	7.73374
3371.13066	7.78413
3369.20210	7.82404
3367.27354	7.82461
3365.34497	7.80862
3363.41641	7.81372
3361.48784	7.86030
3359.55928	7.89174
3357.63071	7.86964
3355.70215	7.88250
3353.77358	7.91640
3351.84502	7.91080
3349.91646	7.91095
3347.98789	7.96431
3346.05933	8.01566
3344.13076	8.00272
3342.20220	7.96805
3340.27363	7.96458
3338.34507	8.01663
3336.41650	8.06894
3334.48794	8.05845
3332.55937	8.01727
3330.63081	8.04414
3328.70225	8.11670
3326.77368	8.09720
3324.84512	8.02795
3322.91655	7.98994
3320.98799	7.95014
3319.05942	7.92291
3317.13086	7.93925
3315.20229	7.97133
3313.27373	8.04981
3311.34517	8.15721
3309.41660	8.20070
3307.48804	8.20530
3305.55947	8.23624
3303.63091	8.23219
3301.70234	8.18299
3299.77378	8.22093
3297.84521	8.25765
3295.91665	8.17809
3293.98809	8.07727
3292.05952	8.02028
3290.13096	8.01894
3288.20239	8.06825
3286.27383	8.16677
3284.34526	8.26862
3282.41670	8.31122
3280.48813	8.29075
3278.55957	8.27342
3276.63101	8.27558
3274.70244	8.26548
3272.77388	8.24765
3270.84531	8.22648
3268.91675	8.22645
3266.98818	8.24343
3265.05962	8.23538
3263.13105	8.20851
3261.20249	8.19878
3259.27393	8.18057
3257.34536	8.14826
3255.41680	8.14658
3253.48823	8.16996
3251.55967	8.18007
3249.63110	8.20157
3247.70254	8.26607
3245.77397	8.25879
3243.84541	8.13391
3241.91685	8.07721
3239.98828	8.16801
3238.05972	8.23391
3236.13115	8.17425
3234.20259	8.14491
3232.27402	8.17834
3230.34546	8.14484
3228.41689	8.07821
3226.48833	8.09015
3224.55977	8.12026
3222.63120	8.11794
3220.70264	8.13236
3218.77407	8.13060
3216.84551	8.07940
3214.91694	8.05734
3212.98838	8.05498
3211.05981	7.99463
3209.13125	7.92261
3207.20269	7.85197
3205.27412	7.76206
3203.34556	7.71729
3201.41699	7.70869
3199.48843	7.65397
3197.55986	7.59393
3195.63130	7.58392
3193.70273	7.56310
3191.77417	7.50558
3189.84561	7.45594
3187.91704	7.41932
3185.98848	7.38836
3184.05991	7.34826
3182.13135	7.27881
3180.20278	7.23426
3178.27422	7.23818
3176.34565	7.20743
3174.41709	7.12309
3172.48853	7.05840
3170.55996	7.02156
3168.63140	6.97332
3166.70283	6.90438
3164.77427	6.82581
3162.84570	6.74254
3160.91714	6.65885
3158.98857	6.58423
3157.06001	6.50835
3155.13145	6.42680
3153.20288	6.36624
3151.27432	6.33984
3149.34575	6.30722
3147.41719	6.23356
3145.48862	6.15246
3143.56006	6.08955
3141.63149	6.02130
3139.70293	5.93119
3137.77437	5.84158
3135.84580	5.76804
3133.91724	5.70287
3131.98867	5.64146
3130.06011	5.57873
3128.13154	5.50985
3126.20298	5.43790
3124.27441	5.36976
3122.34585	5.30216
3120.41729	5.22840
3118.48872	5.15275
3116.56016	5.07743
3114.63159	5.00247
3112.70303	4.93277
3110.77446	4.86630
3108.84590	4.79782
3106.91733	4.72982
3104.98877	4.66301
3103.06021	4.59485
3101.13164	4.52725
3099.20308	4.46317
3097.27451	4.39901
3095.34595	4.33173
3093.41738	4.26591
3091.48882	4.20277
3089.56025	4.13949
3087.63169	4.07758
3085.70312	4.01845
3083.77456	3.95803
3081.84600	3.89327
3079.91743	3.82650
3077.98887	3.76185
3076.06030	3.70166
3074.13174	3.64468
3072.20317	3.58765
3070.27461	3.52877
3068.34604	3.46956
3066.41748	3.41263
3064.48892	3.35801
3062.56035	3.30411
3060.63179	3.25049
3058.70322	3.19776
3056.77466	3.14644
3054.84609	3.09525
3052.91753	3.04216
3050.98896	2.98855
3049.06040	2.93676
3047.13184	2.88631
3045.20327	2.83669
3043.27471	2.78886
3041.34614	2.74244
3039.41758	2.69656
3037.48901	2.65143
3035.56045	2.60621
3033.63188	2.56027
3031.70332	2.51495
3029.77476	2.47132
3027.84619	2.42891
3025.91763	2.38694
3023.98906	2.34467
3022.06050	2.30217
3020.13193	2.26090
3018.20337	2.22140
3016.27480	2.18289
3014.34624	2.14497
3012.41768	2.10752
3010.48911	2.07032
3008.56055	2.03329
3006.63198	1.99659
3004.70342	1.96047
3002.77485	1.92527
3000.84629	1.89111
2998.91772	1.85778
2996.98916	1.82508
2995.06060	1.79254
2993.13203	1.76028
2991.20347	1.72910
2989.27490	1.69887
2987.34634	1.66881
2985.41777	1.63850
2983.48921	1.60872
2981.56064	1.58049
2979.63208	1.55332
2977.70352	1.52591
2975.77495	1.49822
2973.84639	1.47131
2971.91782	1.44521
2969.98926	1.41925
2968.06069	1.39367
2966.13213	1.36878
2964.20356	1.34412
2962.27500	1.31980
2960.34644	1.29593
2958.41787	1.27226
2956.48931	1.24941
2954.56074	1.22754
2952.63218	1.20572
2950.70361	1.18354
2948.77505	1.16166
2946.84648	1.14063
2944.91792	1.12010
2942.98936	1.09962
2941.06079	1.07921
2939.13223	1.05927
2937.20366	1.04015
2935.27510	1.02143
2933.34653	1.00279
2931.41797	0.98445
2929.48940	0.96680
2927.56084	0.94976
2925.63228	0.93243
2923.70371	0.91486
2921.77515	0.89806
2919.84658	0.88226
2917.91802	0.86694
2915.98945	0.85115
2914.06089	0.83492
2912.13232	0.81962
2910.20376	0.80531
2908.27520	0.79109
2906.34663	0.77724
2904.41807	0.76404
2902.48950	0.75091
2900.56094	0.73774
2898.63237	0.72500
2896.70381	0.71264
2894.77524	0.70048
2892.84668	0.68866
2890.91812	0.67712
2888.98955	0.66573
2887.06099	0.65452
2885.13242	0.64362
2883.20386	0.63293
2881.27529	0.62253
2879.34673	0.61262
2877.41816	0.60298
2875.48960	0.59319
2873.56104	0.58304
2871.63247	0.57271
2869.70391	0.56246
2867.77534	0.55238
2865.84678	0.54240
2863.91821	0.53253
2861.98965	0.52292
2860.06108	0.51370
2858.13252	0.50486
2856.20396	0.49634
2854.27539	0.48813
2852.34683	0.48001
2850.41826	0.47184
2848.48970	0.46390
2846.56113	0.45638
2844.63257	0.44914
2842.70400	0.44224
2840.77544	0.43589
2838.84687	0.42995
2836.91831	0.42412
2834.98975	0.41825
2833.06118	0.41239
2831.13262	0.40655
2829.20405	0.40064
2827.27549	0.39478
2825.34692	0.38896
2823.41836	0.38304
2821.48979	0.37727
2819.56123	0.37193
2817.63267	0.36675
2815.70410	0.36146
2813.77554	0.35612
2811.84697	0.35082
2809.91841	0.34554
2807.98984	0.34021
2806.06128	0.33513
2804.13271	0.33051
2802.20415	0.32591
2800.27559	0.32112
2798.34702	0.31649
2796.41846	0.31207
2794.48989	0.30770
2792.56133	0.30349
2790.63276	0.29939
2788.70420	0.29531
2786.77563	0.29125
2784.84707	0.28717
2782.91851	0.28317
2780.98994	0.27935
2779.06138	0.27561
2777.13281	0.27194
2775.20425	0.26846
2773.27568	0.26509
2771.34712	0.26171
2769.41855	0.25838
2767.48999	0.25502
2765.56143	0.25165
2763.63286	0.24849
2761.70430	0.24549
2759.77573	0.24238
2757.84717	0.23909
2755.91860	0.23588
2753.99004	0.23301
2752.06147	0.23040
2750.13291	0.22786
2748.20435	0.22525
2746.27578	0.22256
2744.34722	0.22009
2742.41865	0.21789
2740.49009	0.21561
2738.56152	0.21319
2736.63296	0.21076
2734.70439	0.20827
2732.77583	0.20590
2730.84727	0.20384
2728.91870	0.20189
2726.99014	0.19982
2725.06157	0.19778
2723.13301	0.19586
2721.20444	0.19396
2719.27588	0.19214
2717.34731	0.19041
2715.41875	0.18867
2713.49019	0.18693
2711.56162	0.18516
2709.63306	0.18343
2707.70449	0.18186
2705.77593	0.18022
2703.84736	0.17839
2701.91880	0.17661
2699.99023	0.17511
2698.06167	0.17391
2696.13311	0.17274
2694.20454	0.17143
2692.27598	0.17010
2690.34741	0.16890
2688.41885	0.16780
2686.49028	0.16663
2684.56172	0.16529
2682.63315	0.16393
2680.70459	0.16274
2678.77603	0.16178
2676.84746	0.16087
2674.91890	0.15979
2672.99033	0.15863
2671.06177	0.15767
2669.13320	0.15691
2667.20464	0.15611
2665.27607	0.15515
2663.34751	0.15408
2661.41895	0.15321
2659.49038	0.15254
2657.56182	0.15184
2655.63325	0.15132
2653.70469	0.15096
2651.77612	0.15040
2649.84756	0.14955
2647.91899	0.14867
2645.99043	0.14809
2644.06187	0.14772
2642.13330	0.14715
2640.20474	0.14641
2638.27617	0.14594
2636.34761	0.14587
2634.41904	0.14577
2632.49048	0.14537
2630.56191	0.14479
2628.63335	0.14426
2626.70479	0.14385
2624.77622	0.14354
2622.84766	0.14346
2620.91909	0.14350
2618.99053	0.14342
2617.06196	0.14320
2615.13340	0.14295
2613.20483	0.14272
2611.27627	0.14260
2609.34771	0.14258
2607.41914	0.14262
2605.49058	0.14260
2603.56201	0.14249
2601.63345	0.14242
2599.70488	0.14242
2597.77632	0.14245
2595.84775	0.14259
2593.91919	0.14279
2591.99062	0.14294
2590.06206	0.14308
2588.13350	0.14327
2586.20493	0.14353
2584.27637	0.14382
2582.34780	0.14406
2580.41924	0.14437
2578.49067	0.14477
2576.56211	0.14516
2574.63354	0.14556
2572.70498	0.14594
2570.77642	0.14615
2568.84785	0.14632
2566.91929	0.14665
2564.99072	0.14710
2563.06216	0.14764
2561.13359	0.14821
2559.20503	0.14872
2557.27646	0.14914
2555.34790	0.14955
2553.41934	0.15003
2551.49077	0.15049
2549.56221	0.15097
2547.63364	0.15163
2545.70508	0.15236
2543.77651	0.15299
2541.84795	0.15358
2539.91938	0.15420
2537.99082	0.15494
2536.06226	0.15584
2534.13369	0.15668
2532.20513	0.15723
2530.27656	0.15776
2528.34800	0.15841
2526.41943	0.15909
2524.49087	0.15974
2522.56230	0.16037
2520.63374	0.16111
2518.70518	0.16204
2516.77661	0.16307
2514.84805	0.16408
2512.91948	0.16493
2510.99092	0.16557
2509.06235	0.16615
2507.13379	0.16692
2505.20522	0.16787
2503.27666	0.16878
2501.34810	0.16958
2499.41953	0.17033
2497.49097	0.17112
2495.56240	0.17201
2493.63384	0.17292
2491.70527	0.17380
2489.77671	0.17465
2487.84814	0.17553
2485.91958	0.17642
2483.99102	0.17726
2482.06245	0.17807
2480.13389	0.17896
2478.20532	0.18000
2476.27676	0.18107
2474.34819	0.18204
2472.41963	0.18294
2470.49106	0.18377
2468.56250	0.18462
2466.63394	0.18556
2464.70537	0.18658
2462.77681	0.18763
2460.84824	0.18862
2458.91968	0.18959
2456.99111	0.19051
2455.06255	0.19139
2453.13398	0.19237
2451.20542	0.19345
2449.27686	0.19454
2447.34829	0.19563
2445.41973	0.19668
2443.49116	0.19764
2441.56260	0.19863
2439.63403	0.19965
2437.70547	0.20054
2435.77690	0.20140
2433.84834	0.20244
2431.91978	0.20353
2429.99121	0.20452
2428.06265	0.20560
2426.13408	0.20675
2424.20552	0.20783
2422.27695	0.20900
2420.34839	0.21027
2418.41982	0.21137
2416.49126	0.21234
2414.56270	0.21339
2412.63413	0.21452
2410.70557	0.21568
2408.77700	0.21678
2406.84844	0.21788
2404.91987	0.21908
2402.99131	0.22028
2401.06274	0.22142
2399.13418	0.22257
2397.20562	0.22380
2395.27705	0.22508
2393.34849	0.22631
2391.41992	0.22761
2389.49136	0.22921
2387.56279	0.23129
2385.63423	0.23412
2383.70566	0.23815
2381.77710	0.24350
2379.84854	0.24971
2377.91997	0.25669
2375.99141	0.26485
2374.06284	0.27416
2372.13428	0.28415
2370.20571	0.29469
2368.27715	0.30586
2366.34858	0.31732
2364.42002	0.32842
2362.49146	0.33830
2360.56289	0.34441
2358.63433	0.34482
2356.70576	0.34024
2354.77720	0.33224
2352.84863	0.32232
2350.92007	0.31188
2348.99150	0.30532
2347.06294	0.30567
2345.13437	0.31404
2343.20581	0.32655
2341.27725	0.33345
2339.34868	0.33378
2337.42012	0.33275
2335.49155	0.33248
2333.56299	0.33169
2331.63442	0.33059
2329.70586	0.33091
2327.77729	0.33188
2325.84873	0.33081
2323.92017	0.32761
2321.99160	0.32446
2320.06304	0.32236
2318.13447	0.32054
2316.20591	0.31861
2314.27734	0.31722
2312.34878	0.31672
2310.42021	0.31662
2308.49165	0.31612
2306.56309	0.31497
2304.63452	0.31364
2302.70596	0.31290
2300.77739	0.31301
2298.84883	0.31360
2296.92026	0.31421
2294.99170	0.31466
2293.06313	0.31512
2291.13457	0.31578
2289.20601	0.31649
2287.27744	0.31720
2285.34888	0.31800
2283.42031	0.31908
2281.49175	0.32075
2279.56318	0.32307
2277.63462	0.32561
2275.70605	0.32791
2273.77749	0.32986
2271.84893	0.33175
2269.92036	0.33367
2267.99180	0.33563
2266.06323	0.33770
2264.13467	0.33982
2262.20610	0.34188
2260.27754	0.34386
2258.34897	0.34579
2256.42041	0.34760
2254.49185	0.34929
2252.56328	0.35111
2250.63472	0.35314
2248.70615	0.35527
2246.77759	0.35746
2244.84902	0.35959
2242.92046	0.36157
2240.99189	0.36356
2239.06333	0.36565
2237.13477	0.36782
2235.20620	0.36992
2233.27764	0.37199
2231.34907	0.37419
2229.42051	0.37652
2227.49194	0.37879
2225.56338	0.38101
2223.63481	0.38324
2221.70625	0.38546
2219.77769	0.38768
2217.84912	0.38980
2215.92056	0.39177
2213.99199	0.39377
2212.06343	0.39590
2210.13486	0.39812
2208.20630	0.40036
2206.27773	0.40249
2204.34917	0.40448
2202.42061	0.40651
2200.49204	0.40865
2198.56348	0.41061
2196.63491	0.41233
2194.70635	0.41412
2192.77778	0.41613
2190.84922	0.41816
2188.92065	0.42004
2186.99209	0.42182
2185.06353	0.42361
2183.13496	0.42535
2181.20640	0.42701
2179.27783	0.42875
2177.34927	0.43052
2175.42070	0.43212
2173.49214	0.43359
2171.56357	0.43503
2169.63501	0.43643
2167.70645	0.43772
2165.77788	0.43894
2163.84932	0.44020
2161.92075	0.44144
2159.99219	0.44253
2158.06362	0.44350
2156.13506	0.44454
2154.20649	0.44562
2152.27793	0.44649
2150.34937	0.44711
2148.42080	0.44772
2146.49224	0.44841
2144.56367	0.44899
2142.63511	0.44945
2140.70654	0.44986
2138.77798	0.45020
2136.84941	0.45039
2134.92085	0.45040
2132.99229	0.45032
2131.06372	0.45027
2129.13516	0.45029
2127.20659	0.45033
2125.27803	0.45024
2123.34946	0.44985
2121.42090	0.44928
2119.49233	0.44877
2117.56377	0.44832
2115.63521	0.44769
2113.70664	0.44690
2111.77808	0.44614
2109.84951	0.44532
2107.92095	0.44436
2105.99238	0.44327
2104.06382	0.44206
2102.13525	0.44082
2100.20669	0.43965
2098.27812	0.43838
2096.34956	0.43689
2094.42100	0.43531
2092.49243	0.43382
2090.56387	0.43237
2088.63530	0.43078
2086.70674	0.42905
2084.77817	0.42729
2082.84961	0.42552
2080.92104	0.42366
2078.99248	0.42175
2077.06392	0.41980
2075.13535	0.41776
2073.20679	0.41560
2071.27822	0.41341
2069.34966	0.41126
2067.42109	0.40919
2065.49253	0.40717
2063.56396	0.40496
2061.63540	0.40248
2059.70684	0.39997
2057.77827	0.39751
2055.84971	0.39493
2053.92114	0.39225
2051.99258	0.38972
2050.06401	0.38729
2048.13545	0.38479
2046.20688	0.38220
2044.27832	0.37966
2042.34976	0.37716
2040.42119	0.37456
2038.49263	0.37184
2036.56406	0.36910
2034.63550	0.36636
2032.70693	0.36364
2030.77837	0.36095
2028.84980	0.35825
2026.92124	0.35555
2024.99268	0.35282
2023.06411	0.35003
2021.13555	0.34731
2019.20698	0.34481
2017.27842	0.34242
2015.34985	0.33966
2013.42129	0.33664
2011.49272	0.33381
2009.56416	0.33126
2007.63560	0.32873
2005.70703	0.32607
2003.77847	0.32332
2001.84990	0.32067
1999.92134	0.31817
1997.99277	0.31563
1996.06421	0.31305
1994.13564	0.31077
1992.20708	0.30865
1990.27852	0.30607
1988.34995	0.30323
1986.42139	0.30061
1984.49282	0.29815
1982.56426	0.29576
1980.63569	0.29340
1978.70713	0.29107
1976.77856	0.28883
1974.85000	0.28668
1972.92144	0.28452
1970.99287	0.28242
1969.06431	0.28061
1967.13574	0.27892
1965.20718	0.27687
1963.27861	0.27469
1961.35005	0.27267
1959.42148	0.27064
1957.49292	0.26864
1955.56436	0.26679
1953.63579	0.26502
1951.70723	0.26322
1949.77866	0.26154
1947.85010	0.26012
1945.92153	0.25900
1943.99297	0.25811
1942.06440	0.25692
1940.13584	0.25492
1938.20728	0.25281
1936.27871	0.25128
1934.35015	0.25003
1932.42158	0.24878
1930.49302	0.24757
1928.56445	0.24647
1926.63589	0.24546
1924.70732	0.24485
1922.77876	0.24443
1920.85020	0.24360
1918.92163	0.24261
1916.99307	0.24154
1915.06450	0.24010
1913.13594	0.23885
1911.20737	0.23827
1909.27881	0.23796
1907.35024	0.23728
1905.42168	0.23626
1903.49312	0.23547
1901.56455	0.23492
1899.63599	0.23440
1897.70742	0.23407
1895.77886	0.23395
1893.85029	0.23372
1891.92173	0.23344
1889.99316	0.23347
1888.06460	0.23322
1886.13604	0.23247
1884.20747	0.23189
1882.27891	0.23156
1880.35034	0.23135
1878.42178	0.23127
1876.49321	0.23126
1874.56465	0.23122
1872.63608	0.23149
1870.70752	0.23258
1868.77896	0.23432
1866.85039	0.23480
1864.92183	0.23367
1862.99326	0.23275
1861.06470	0.23263
1859.13613	0.23290
1857.20757	0.23314
1855.27900	0.23350
1853.35044	0.23407
1851.42187	0.23472
1849.49331	0.23551
1847.56475	0.23674
1845.63618	0.23844
1843.70762	0.23987
1841.77905	0.23994
1839.85049	0.23957
1837.92192	0.24012
1835.99336	0.24111
1834.06479	0.24200
1832.13623	0.24331
1830.20767	0.24553
1828.27910	0.24729
1826.35054	0.24792
1824.42197	0.24875
1822.49341	0.24949
1820.56484	0.25022
1818.63628	0.25148
1816.70771	0.25314
1814.77915	0.25477
1812.85059	0.25679
1810.92202	0.25933
1808.99346	0.26143
1807.06489	0.26296
1805.13633	0.26465
1803.20776	0.26721
1801.27920	0.27039
1799.35063	0.27334
1797.42207	0.27558
1795.49351	0.27807
1793.56494	0.28154
1791.63638	0.28561
1789.70781	0.28818
1787.77925	0.28961
1785.85068	0.29234
1783.92212	0.29628
1781.99355	0.30061
1780.06499	0.30497
1778.13643	0.30913
1776.20786	0.31325
1774.27930	0.31843
1772.35073	0.32545
1770.42217	0.33168
1768.49360	0.33581
1766.56504	0.33992
1764.63647	0.34475
1762.70791	0.35083
1760.77935	0.35866
1758.85078	0.36579
1756.92222	0.37286
1754.99365	0.38034
1753.06509	0.38743
1751.13652	0.39690
1749.20796	0.40875
1747.27939	0.41924
1745.35083	0.42779
1743.42227	0.43695
1741.49370	0.44726
1739.56514	0.45947
1737.63657	0.47160
1735.70801	0.48287
1733.77944	0.50057
1731.85088	0.52019
1729.92231	0.53432
1727.99375	0.54870
1726.06519	0.56474
1724.13662	0.58309
1722.20806	0.60332
1720.27949	0.62226
1718.35093	0.64502
1716.42236	0.67804
1714.49380	0.70773
1712.56523	0.73093
1710.63667	0.75383
1708.70811	0.77936
1706.77954	0.80901
1704.85098	0.84415
1702.92241	0.87513
1700.99385	0.90624
1699.06528	0.95275
1697.13672	0.99462
1695.20815	1.03621
1693.27959	1.07594
1691.35103	1.10829
1689.42246	1.14646
1687.49390	1.18675
1685.56533	1.22583
1683.63677	1.28597
1681.70820	1.34659
1679.77964	1.38462
1677.85107	1.42128
1675.92251	1.46415
1673.99395	1.51762
1672.06538	1.56528
1670.13682	1.61157
1668.20825	1.66996
1666.27969	1.71634
1664.35112	1.75593
1662.42256	1.80573
1660.49399	1.86000
1658.56543	1.90068
1656.63687	1.93430
1654.70830	1.96792
1652.77974	2.02346
1650.85117	2.07633
1648.92261	2.09766
1646.99404	2.12586
1645.06548	2.15723
1643.13691	2.17786
1641.20835	2.19145
1639.27979	2.20330
1637.35122	2.21110
1635.42266	2.21417
1633.49409	2.20992
1631.56553	2.19856
1629.63696	2.18464
1627.70840	2.16117
1625.77983	2.13221
1623.85127	2.09545
1621.92271	2.05035
1619.99414	2.00902
1618.06558	1.96770
1616.13701	1.90769
1614.20845	1.84485
1612.27988	1.79719
1610.35132	1.74912
1608.42275	1.69695
1606.49419	1.64423
1604.56562	1.59537
1602.63706	1.54840
1600.70850	1.50218
1598.77993	1.45952
1596.85137	1.41942
1594.92280	1.37990
1592.99424	1.34100
1591.06567	1.30502
1589.13711	1.27118
1587.20854	1.23949
1585.27998	1.20982
1583.35142	1.18157
1581.42285	1.15534
1579.49429	1.13279
1577.56572	1.11273
1575.63716	1.08747
1573.70859	1.06373
1571.78003	1.04821
1569.85146	1.03212
1567.92290	1.01293
1565.99434	0.99728
1564.06577	0.98457
1562.13721	0.97475
1560.20864	0.96808
1558.28008	0.95605
1556.35151	0.94162
1554.42295	0.93207
1552.49438	0.92336
1550.56582	0.91473
1548.63726	0.90541
1546.70869	0.89689
1544.78013	0.88938
1542.85156	0.88175
1540.92300	0.87197
1538.99443	0.85457
1537.06587	0.83971
1535.13730	0.83059
1533.20874	0.82038
1531.28018	0.80889
1529.35161	0.80038
1527.42305	0.79305
1525.49448	0.78552
1523.56592	0.77918
1521.63735	0.77307
1519.70879	0.76520
1517.78022	0.75775
1515.85166	0.74985
1513.92310	0.74179
1511.99453	0.73568
1510.06597	0.73162
1508.13740	0.72917
1506.20884	0.72243
1504.28027	0.71223
1502.35171	0.70609
1500.42314	0.70225
1498.49458	0.69896
1496.56602	0.69440
1494.63745	0.68912
1492.70889	0.68567
1490.78032	0.68403
1488.85176	0.68181
1486.92319	0.67756
1484.99463	0.67323
1483.06606	0.67020
1481.13750	0.66815
1479.20894	0.66654
1477.28037	0.66558
1475.35181	0.66538
1473.42324	0.66524
1471.49468	0.66296
1469.56611	0.65904
1467.63755	0.65605
1465.70898	0.65421
1463.78042	0.65227
1461.85186	0.65027
1459.92329	0.64971
1457.99473	0.65035
1456.06616	0.64845
1454.13760	0.64367
1452.20903	0.63976
1450.28047	0.63694
1448.35190	0.63469
1446.42334	0.63199
1444.49478	0.62906
1442.56621	0.62673
1440.63765	0.62495
1438.70908	0.62376
1436.78052	0.62263
1434.85195	0.62022
1432.92339	0.61754
1430.99482	0.61583
1429.06626	0.61442
1427.13770	0.61283
1425.20913	0.61174
1423.28057	0.61106
1421.35200	0.61040
1419.42344	0.61004
1417.49487	0.60885
1415.56631	0.60628
1413.63774	0.60412
1411.70918	0.60293
1409.78062	0.60209
1407.85205	0.60123
1405.92349	0.60066
1403.99492	0.59990
1402.06636	0.59859
1400.13779	0.59763
1398.20923	0.59694
1396.28066	0.59573
1394.35210	0.59361
1392.42354	0.59079
1390.49497	0.58836
1388.56641	0.58672
1386.63784	0.58496
1384.70928	0.58245
1382.78071	0.58002
1380.85215	0.57821
1378.92358	0.57688
1376.99502	0.57595
1375.06646	0.57543
1373.13789	0.57463
1371.20933	0.57341
1369.28076	0.57244
1367.35220	0.57157
1365.42363	0.57072
1363.49507	0.57019
1361.56650	0.56927
1359.63794	0.56753
1357.70937	0.56594
1355.78081	0.56480
1353.85225	0.56384
1351.92368	0.56301
1349.99512	0.56220
1348.06655	0.56113
1346.13799	0.55994
1344.20942	0.55897
1342.28086	0.55847
1340.35229	0.55839
1338.42373	0.55781
1336.49517	0.55625
1334.56660	0.55464
1332.63804	0.55362
1330.70947	0.55311
1328.78091	0.55274
1326.85234	0.55233
1324.92378	0.55194
1322.99521	0.55171
1321.06665	0.55163
1319.13809	0.55150
1317.20952	0.55103
1315.28096	0.55022
1313.35239	0.54930
1311.42383	0.54838
1309.49526	0.54748
1307.56670	0.54654
1305.63813	0.54561
1303.70957	0.54473
1301.78101	0.54389
1299.85244	0.54306
1297.92388	0.54233
1295.99531	0.54162
1294.06675	0.54079
1292.13818	0.54000
1290.20962	0.53936
1288.28105	0.53880
1286.35249	0.53809
1284.42393	0.53721
1282.49536	0.53638
1280.56680	0.53572
1278.63823	0.53517
1276.70967	0.53461
1274.78110	0.53404
1272.85254	0.53364
1270.92397	0.53336
1268.99541	0.53297
1267.06685	0.53238
1265.13828	0.53169
1263.20972	0.53113
1261.28115	0.53078
1259.35259	0.53047
1257.42402	0.53003
1255.49546	0.52961
1253.56689	0.52937
1251.63833	0.52918
1249.70977	0.52891
1247.78120	0.52861
1245.85264	0.52826
1243.92407	0.52781
1241.99551	0.52727
1240.06694	0.52665
1238.13838	0.52592
1236.20981	0.52494
1234.28125	0.52383
1232.35269	0.52288
1230.42412	0.52207
1228.49556	0.52123
1226.56699	0.52028
1224.63843	0.51927
1222.70986	0.51832
1220.78130	0.51741
1218.85273	0.51648
1216.92417	0.51562
1214.99561	0.51492
1213.06704	0.51434
1211.13848	0.51378
1209.20991	0.51315
1207.28135	0.51258
1205.35278	0.51218
1203.42422	0.51169
1201.49565	0.51103
1199.56709	0.51044
1197.63853	0.50989
1195.70996	0.50918
1193.78140	0.50842
1191.85283	0.50788
1189.92427	0.50761
1187.99570	0.50738
1186.06714	0.50717
1184.13857	0.50711
1182.21001	0.50719
1180.28145	0.50760
1178.35288	0.50834
1176.42432	0.50912
1174.49575	0.50979
1172.56719	0.51045
1170.63862	0.51123
1168.71006	0.51213
1166.78149	0.51297
1164.85293	0.51359
1162.92437	0.51413
1160.99580	0.51457
1159.06724	0.51471
1157.13867	0.51451
1155.21011	0.51392
1153.28154	0.51289
1151.35298	0.51147
1149.42441	0.50972
1147.49585	0.50769
1145.56729	0.50535
1143.63872	0.50268
1141.71016	0.49988
1139.78159	0.49739
1137.85303	0.49553
1135.92446	0.49404
1133.99590	0.49265
1132.06733	0.49155
1130.13877	0.49089
1128.21021	0.49043
1126.28164	0.48973
1124.35308	0.48877
1122.42451	0.48796
1120.49595	0.48747
1118.56738	0.48730
1116.63882	0.48740
1114.71025	0.48775
1112.78169	0.48833
1110.85312	0.48902
1108.92456	0.48985
1106.99600	0.49094
1105.06743	0.49220
1103.13887	0.49344
1101.21030	0.49466
1099.28174	0.49609
1097.35317	0.49809
1095.42461	0.50088
1093.49604	0.50441
1091.56748	0.50874
1089.63892	0.51432
1087.71035	0.52134
1085.78179	0.52933
1083.85322	0.53750
1081.92466	0.54505
1079.99609	0.55094
1078.06753	0.55417
1076.13896	0.55453
1074.21040	0.55214
1072.28184	0.54721
1070.35327	0.54075
1068.42471	0.53381
1066.49614	0.52687
1064.56758	0.52051
1062.63901	0.51507
1060.71045	0.51015
1058.78188	0.50557
1056.85332	0.50164
1054.92476	0.49839
1052.99619	0.49567
1051.06763	0.49355
1049.13906	0.49201
1047.21050	0.49087
1045.28193	0.49024
1043.35337	0.49031
1041.42480	0.49068
1039.49624	0.49076
1037.56768	0.49044
1035.63911	0.49018
1033.71055	0.49001
1031.78198	0.48940
1029.85342	0.48840
1027.92485	0.48742
1025.99629	0.48655
1024.06772	0.48584
1022.13916	0.48533
1020.21060	0.48518
1018.28203	0.48534
1016.35347	0.48554
1014.42490	0.48585
1012.49634	0.48623
1010.56777	0.48652
1008.63921	0.48709
1006.71064	0.48814
1004.78208	0.48943
1002.85352	0.49103
1000.92495	0.49327
998.99639	0.49627
997.06782	0.50001
995.13926	0.50427
993.21069	0.50839
991.28213	0.51155
989.35356	0.51348
987.42500	0.51442
985.49644	0.51475
983.56787	0.51492
981.63931	0.51535
979.71074	0.51630
977.78218	0.51780
975.85361	0.51993
973.92505	0.52263
971.99648	0.52557
970.06792	0.52869
968.13936	0.53232
966.21079	0.53640
964.28223	0.54056
962.35366	0.54491
960.42510	0.54979
958.49653	0.55522
956.56797	0.56095
954.63940	0.56672
952.71084	0.57259
950.78228	0.57873
948.85371	0.58491
946.92515	0.59079
944.99658	0.59667
943.06802	0.60298
941.13945	0.60902
939.21089	0.61405
937.28232	0.61899
935.35376	0.62478
933.42520	0.63084
931.49663	0.63664
929.56807	0.64259
927.63950	0.64899
925.71094	0.65551
923.78237	0.66168
921.85381	0.66731
919.92524	0.67297
917.99668	0.67941
916.06812	0.68658
914.13955	0.69447
912.21099	0.70276
910.28242	0.71033
908.35386	0.71755
906.42529	0.72603
904.49673	0.73535
902.56816	0.74415
900.63960	0.75316
898.71104	0.76270
896.78247	0.77210
894.85391	0.78178
892.92534	0.79158
890.99678	0.80126
889.06821	0.81093
887.13965	0.82024
885.21108	0.83066
883.28252	0.84280
881.35396	0.85431
879.42539	0.86514
877.49683	0.87672
875.56826	0.88861
873.63970	0.90036
871.71113	0.91173
869.78257	0.92195
867.85400	0.93211
865.92544	0.94419
863.99687	0.95712
862.06831	0.96818
860.13975	0.97712
858.21118	0.98656
856.28262	0.99775
854.35405	1.00933
852.42549	1.02063
850.49692	1.03248
848.56836	1.04482
846.63979	1.05727
844.71123	1.07065
842.78267	1.08330
840.85410	1.09231
838.92554	1.09951
836.99697	1.10832
835.06841	1.11876
833.13984	1.13091
831.21128	1.14454
829.28271	1.15697
827.35415	1.16773
825.42559	1.17709
823.49702	1.18706
821.56846	1.19835
819.63989	1.20549
817.71133	1.21011
815.78276	1.22298
813.85420	1.24322
811.92563	1.25432
809.99707	1.25609
808.06851	1.26945
806.13994	1.29500
804.21138	1.30804
802.28281	1.31035
800.35425	1.31869
798.42568	1.31378
796.49712	1.29322
794.56855	1.30646
792.63999	1.37637
790.71143	1.44728
788.78286	1.42381
786.85430	1.35770
784.92573	1.34474
782.99717	1.38077
781.06860	1.42428
779.14004	1.41527
777.21147	1.37595
775.28291	1.37961
773.35435	1.38191
771.42578	1.35868
769.49722	1.34547
767.56865	1.31444
765.64009	1.25585
763.71152	1.27293
761.78296	1.42305
759.85439	1.57233
757.92583	1.46389
755.99727	1.32585
754.06870	1.26745
752.14014	1.23090
750.21157	1.17358
748.28301	1.08212
746.35444	1.01705
744.42588	1.00371
742.49731	0.95194
740.56875	0.86957
738.64019	0.86820
736.71162	0.88028
734.78306	0.78680
732.85449	0.67906
730.92593	0.59218
728.99736	0.52139
727.06880	0.47473
725.14023	0.41375
723.21167	0.31819
721.28311	0.20431
719.35454	0.13541
717.42598	0.11171
715.49741	-0.00827
713.56885	-0.20969
711.64028	-0.28935
709.71172	-0.33222
707.78315	-0.66471
705.85459	-0.66290
703.92603	-0.75871
701.99746	-0.47194
700.06890	-0.25736
698.14033	-0.16245
696.21177	-0.07549
694.28320	0.09618
692.35464	0.27842
690.42607	0.35943
688.49751	0.25250
686.56895	0.10138
684.64038	-0.00499
682.71182	-0.07494
680.78325	-0.12118
678.85469	-0.08657
676.92612	0.04677
674.99756	0.14118
673.06899	0.15293
671.14043	0.16525
669.21187	0.26049
667.28330	0.29405
665.35474	0.27712
663.42617	0.30436
661.49761	0.30579
659.56904	0.22859
657.64048	0.19343
655.71191	0.21769
653.78335	0.23703
651.85479	0.25411
649.92622	0.25302
647.99766	0.19555
646.06909	0.16126
644.14053	0.17534
642.21196	0.17579
640.28340	0.16769
638.35483	0.19999
636.42627	0.26179
634.49771	0.30357
632.56914	0.23536
630.64058	0.14762
628.71201	0.14892
626.78345	0.15168
624.85488	0.10435
622.92632	0.09728
620.99775	0.12698
619.06919	0.12665
617.14062	0.11267
615.21206	0.05679
613.28350	-0.01315
611.35493	-0.02205
609.42637	0.03874
607.49780	0.09853
605.56924	0.06683
603.64067	0.03936
601.71211	0.10053
599.78354	0.18206
597.85498	0.18638
595.92642	0.08799
593.99785	0.00426
592.06929	0.02418
590.14072	0.09489
588.21216	0.12648
586.28359	0.09408
584.35503	0.06992
582.42646	0.11630
580.49790	0.14890
578.56934	0.18255
576.64077	0.19820
574.71221	0.16861
572.78364	0.13365
570.85508	0.08731
568.92651	0.03799
566.99795	0.02642
565.06938	0.08439
563.14082	0.19272
561.21226	0.21901
559.28369	0.15201
557.35513	0.13507
555.42656	0.17666
553.49800	0.21003
551.56943	0.21978
549.64087	0.21453
547.71230	0.19571
545.78374	0.20315
543.85518	0.22641
541.92661	0.23412
539.99805	0.23873
538.06948	0.21540
536.14092	0.14650
534.21235	0.06382
532.28379	0.03396
530.35522	0.05187
528.42666	0.04421
526.49810	0.01664
524.56953	0.02196
522.64097	0.05001
520.71240	0.07765
518.78384	0.05740
516.85527	0.03917
514.92671	0.06572
512.99814	0.07580
511.06958	0.07451
509.14102	0.09932
507.21245	0.12114
505.28389	0.12562
503.35532	0.12999
501.42676	0.13223
499.49819	0.13962
