3997.91411	0.10950
3995.98555	0.10968
3994.05698	0.10945
3992.12842	0.10941
3990.19985	0.10979
3988.27129	0.11029
3986.34272	0.11063
3984.41416	0.11094
3982.48560	0.11134
3980.55703	0.11150
3978.62847	0.11146
3976.69990	0.11162
3974.77134	0.11201
3972.84277	0.11237
3970.91421	0.11249
3968.98564	0.11227
3967.05708	0.11202
3965.12852	0.11213
3963.19995	0.11246
3961.27139	0.11278
3959.34282	0.11313
3957.41426	0.11328
3955.48569	0.11310
3953.55713	0.11269
3951.62856	0.11213
3949.70000	0.11138
3947.77144	0.11099
3945.84287	0.11143
3943.91431	0.11187
3941.98574	0.11199
3940.05718	0.11247
3938.12861	0.11304
3936.20005	0.11310
3934.27148	0.11256
3932.34292	0.11143
3930.41436	0.11059
3928.48579	0.11082
3926.55723	0.11132
3924.62866	0.11150
3922.70010	0.11140
3920.77153	0.11120
3918.84297	0.11084
3916.91440	0.11039
3914.98584	0.11029
3913.05728	0.11070
3911.12871	0.11104
3909.20015	0.11084
3907.27158	0.11012
3905.34302	0.10883
3903.41445	0.10770
3901.48589	0.10774
3899.55732	0.10839
3897.62876	0.10932
3895.70020	0.11003
3893.77163	0.10965
3891.84307	0.10843
3889.91450	0.10801
3887.98594	0.10868
3886.05737	0.10903
3884.12881	0.10915
3882.20024	0.10920
3880.27168	0.10895
3878.34312	0.10934
3876.41455	0.10993
3874.48599	0.10944
3872.55742	0.10850
3870.62886	0.10817
3868.70029	0.10845
3866.77173	0.10898
3864.84316	0.10892
3862.91460	0.10867
3860.98604	0.10974
3859.05747	0.11114
3857.12891	0.11123
3855.20034	0.10992
3853.27178	0.10790
3851.34321	0.10846
3849.41465	0.11178
3847.48608	0.11398
3845.55752	0.11456
3843.62896	0.11445
3841.70039	0.11407
3839.77183	0.11292
3837.84326	0.11211
3835.91470	0.11333
3833.98613	0.11530
3832.05757	0.11702
3830.12900	0.11885
3828.20044	0.12020
3826.27187	0.12063
3824.34331	0.12059
3822.41475	0.12006
3820.48618	0.11942
3818.55762	0.12018
3816.62905	0.12173
3814.70049	0.12373
3812.77192	0.12648
3810.84336	0.12860
3808.91479	0.12928
3806.98623	0.12904
3805.05767	0.12916
3803.12910	0.12928
3801.20054	0.12883
3799.27197	0.12996
3797.34341	0.13265
3795.41484	0.13542
3793.48628	0.13818
3791.55771	0.14037
3789.62915	0.14191
3787.70059	0.14297
3785.77202	0.14364
3783.84346	0.14439
3781.91489	0.14544
3779.98633	0.14633
3778.05776	0.14774
3776.12920	0.15041
3774.20063	0.15288
3772.27207	0.15417
3770.34351	0.15477
3768.41494	0.15591
3766.48638	0.15781
3764.55781	0.16014
3762.62925	0.16264
3760.70068	0.16434
3758.77212	0.16539
3756.84355	0.16698
3754.91499	0.16885
3752.98643	0.17001
3751.05786	0.17063
3749.12930	0.17265
3747.20073	0.17591
3745.27217	0.17847
3743.34360	0.18148
3741.41504	0.18528
3739.48647	0.18794
3737.55791	0.18921
3735.62935	0.19024
3733.70078	0.19380
3731.77222	0.20048
3729.84365	0.20698
3727.91509	0.21203
3725.98652	0.21699
3724.05796	0.22308
3722.12939	0.23036
3720.20083	0.23918
3718.27227	0.24935
3716.34370	0.25962
3714.41514	0.26823
3712.48657	0.27503
3710.55801	0.28311
3708.62944	0.29565
3706.70088	0.30966
3704.77231	0.32254
3702.84375	0.33552
3700.91519	0.35188
3698.98662	0.37116
3697.05806	0.39007
3695.12949	0.40936
3693.20093	0.42862
3691.27236	0.44776
3689.34380	0.47277
3687.41523	0.50794
3685.48667	0.54212
3683.55811	0.57145
3681.62954	0.60068
3679.70098	0.63118
3677.77241	0.66175
3675.84385	0.69771
3673.91528	0.74893
3671.98672	0.79348
3670.05815	0.83260
3668.12959	0.88726
3666.20103	0.94022
3664.27246	0.98415
3662.34390	1.02886
3660.41533	1.07589
3658.48677	1.12155
3656.55820	1.16955
3654.62964	1.22347
3652.70107	1.26861
3650.77251	1.30538
3648.84395	1.35541
3646.91538	1.42404
3644.98682	1.48022
3643.05825	1.52320
3641.12969	1.56485
3639.20112	1.60931
3637.27256	1.65287
3635.34399	1.69425
3633.41543	1.73574
3631.48687	1.77410
3629.55830	1.81110
3627.62974	1.86207
3625.70117	1.91550
3623.77261	1.95379
3621.84404	1.98859
3619.91548	2.02556
3617.98691	2.06983
3616.05835	2.11561
3614.12979	2.15544
3612.20122	2.19577
3610.27266	2.23430
3608.34409	2.27173
3606.41553	2.31311
3604.48696	2.35318
3602.55840	2.38811
3600.62983	2.42441
3598.70127	2.46445
3596.77271	2.50543
3594.84414	2.54772
3592.91558	2.59067
3590.98701	2.63053
3589.05845	2.66692
3587.12988	2.71066
3585.20132	2.76095
3583.27275	2.80347
3581.34419	2.84175
3579.41562	2.88327
3577.48706	2.92782
3575.55850	2.97174
3573.62993	3.01478
3571.70137	3.05574
3569.77280	3.09411
3567.84424	3.13481
3565.91567	3.18678
3563.98711	3.23944
3562.05854	3.28196
3560.12998	3.32449
3558.20142	3.37171
3556.27285	3.41798
3554.34429	3.45987
3552.41572	3.50467
3550.48716	3.55372
3548.55859	3.59950
3546.63003	3.64124
3544.70146	3.68478
3542.77290	3.73091
3540.84434	3.77771
3538.91577	3.82706
3536.98721	3.87643
3535.05864	3.92252
3533.13008	3.96682
3531.20151	4.01266
3529.27295	4.05933
3527.34438	4.10589
3525.41582	4.15147
3523.48726	4.19768
3521.55869	4.24836
3519.63013	4.30116
3517.70156	4.35202
3515.77300	4.39829
3513.84443	4.44430
3511.91587	4.49328
3509.98730	4.54266
3508.05874	4.59226
3506.13018	4.63787
3504.20161	4.67899
3502.27305	4.72608
3500.34448	4.77926
3498.41592	4.82928
3496.48735	4.87613
3494.55879	4.92418
3492.63022	4.97468
3490.70166	5.01952
3488.77310	5.05592
3486.84453	5.09522
3484.91597	5.14529
3482.98740	5.20284
3481.05884	5.25745
3479.13027	5.30182
3477.20171	5.34554
3475.27314	5.39757
3473.34458	5.45188
3471.41602	5.49744
3469.48745	5.53154
3467.55889	5.56642
3465.63032	5.61308
3463.70176	5.67175
3461.77319	5.73285
3459.84463	5.78328
3457.91606	5.82419
3455.98750	5.86718
3454.05894	5.91715
3452.13037	5.97413
3450.20181	6.02669
3448.27324	6.06125
3446.34468	6.08952
3444.41611	6.13213
3442.48755	6.19446
3440.55898	6.25721
3438.63042	6.31439
3436.70186	6.37324
3434.77329	6.42302
3432.84473	6.46104
3430.91616	6.50489
3428.98760	6.57354
3427.05903	6.63826
3425.13047	6.67474
3423.20190	6.71603
3421.27334	6.78062
3419.34478	6.83922
3417.41621	6.86772
3415.48765	6.88152
3413.55908	6.90050
3411.63052	6.92514
3409.70195	6.96083
3407.77339	7.03172
3405.84482	7.09966
3403.91626	7.11810
3401.98770	7.13281
3400.05913	7.20243
3398.13057	7.30590
3396.20200	7.36933
3394.27344	7.37099
3392.34487	7.35099
3390.41631	7.37314
3388.48774	7.45613
3386.55918	7.55282
3384.63062	7.61578
3382.70205	7.65467
3380.77349	7.67221
3378.84492	7.69245
3376.91636	7.75365
3374.98779	7.77342
3373.05923	7.72522
3371.13066	7.67799
3369.20210	7.65202
3367.27354	7.67064
3365.34497	7.75172
3363.41641	7.82849
3361.48784	7.86175
3359.55928	7.86550
3357.63071	7.85290
3355.70215	7.88466
3353.77358	7.93045
3351.84502	7.92517
3349.91646	7.93136
3347.98789	8.00664
3346.05933	8.03818
3344.13076	7.97176
3342.20220	7.92752
3340.27363	7.95921
3338.34507	8.02827
3336.41650	8.05874
3334.48794	8.04743
3332.55937	8.00218
3330.63081	7.96432
3328.70225	7.98018
3326.77368	8.03738
3324.84512	8.07312
3322.91655	7.99404
3320.98799	7.94197
3319.05942	8.05527
3317.13086	8.17086
3315.20229	8.14585
3313.27373	8.12886
3311.34517	8.14568
3309.41660	8.12607
3307.48804	8.14081
3305.55947	8.21479
3303.63091	8.24253
3301.70234	8.16954
3299.77378	8.10745
3297.84521	8.11848
3295.91665	8.18616
3293.98809	8.25624
3292.05952	8.25644
3290.13096	8.23913
3288.20239	8.26803
3286.27383	8.24209
3284.34526	8.15297
3282.41670	8.14212
3280.48813	8.19441
3278.55957	8.23183
3276.63101	8.24055
3274.70244	8.26209
3272.77388	8.25405
3270.84531	8.15409
3268.91675	8.09351
3266.98818	8.17737
3265.05962	8.36968
3263.13105	8.48240
3261.20249	8.43366
3259.27393	8.34398
3257.34536	8.26420
3255.41680	8.20427
3253.48823	8.15153
3251.55967	8.10318
3249.63110	8.12070
3247.70254	8.21487
3245.77397	8.26628
3243.84541	8.26877
3241.91685	8.29698
3239.98828	8.22385
3238.05972	8.05388
3236.13115	8.01289
3234.20259	8.11508
3232.27402	8.17607
3230.34546	8.11889
3228.41689	8.01090
3226.48833	7.95027
3224.55977	7.99823
3222.63120	8.09622
3220.70264	8.13343
3218.77407	8.12429
3216.84551	8.07312
3214.91694	7.94383
3212.98838	7.84405
3211.05981	7.88920
3209.13125	8.00825
3207.20269	8.00861
3205.27412	7.87543
3203.34556	7.74654
3201.41699	7.70244
3199.48843	7.73435
3197.55986	7.74239
3195.63130	7.64339
3193.70273	7.51401
3191.77417	7.43698
3189.84561	7.39764
3187.91704	7.38178
3185.98848	7.36868
3184.05991	7.31692
3182.13135	7.23365
3180.20278	7.16226
3178.27422	7.11087
3176.34565	7.05892
3174.41709	7.00644
3172.48853	6.96158
3170.55996	6.92826
3168.63140	6.88996
3166.70283	6.81944
3164.77427	6.73725
3162.84570	6.67069
3160.91714	6.61432
3158.98857	6.55297
3157.06001	6.48330
3155.13145	6.42875
3153.20288	6.39184
3151.27432	6.34224
3149.34575	6.26270
3147.41719	6.16988
3145.48862	6.08368
3143.56006	6.00283
3141.63149	5.93393
3139.70293	5.87430
3137.77437	5.80908
3135.84580	5.74335
3133.91724	5.68193
3131.98867	5.61892
3130.06011	5.55183
3128.13154	5.48406
3126.20298	5.41743
3124.27441	5.35096
3122.34585	5.28597
3120.41729	5.21778
3118.48872	5.14265
3116.56016	5.07068
3114.63159	5.00185
3112.70303	4.93174
3110.77446	4.86587
3108.84590	4.79875
3106.91733	4.72728
3104.98877	4.66109
3103.06021	4.60152
3101.13164	4.54031
3099.20308	4.47380
3097.27451	4.40730
3095.34595	4.34278
3093.41738	4.27759
3091.48882	4.21403
3089.56025	4.15185
3087.63169	4.08866
3085.70312	4.02686
3083.77456	3.96667
3081.84600	3.90750
3079.91743	3.85024
3077.98887	3.79374
3076.06030	3.73802
3074.13174	3.68303
3072.20317	3.62593
3070.27461	3.56713
3068.34604	3.51038
3066.41748	3.45635
3064.48892	3.40274
3062.56035	3.34885
3060.63179	3.29625
3058.70322	3.24436
3056.77466	3.19216
3054.84609	3.14045
3052.91753	3.08917
3050.98896	3.03772
3049.06040	2.98646
3047.13184	2.93711
3045.20327	2.89014
3043.27471	2.84374
3041.34614	2.79701
3039.41758	2.75088
3037.48901	2.70577
3035.56045	2.66109
3033.63188	2.61672
3031.70332	2.57235
3029.77476	2.52852
3027.84619	2.48638
3025.91763	2.44451
3023.98906	2.40201
3022.06050	2.36075
3020.13193	2.32070
3018.20337	2.28042
3016.27480	2.24056
3014.34624	2.20176
3012.41768	2.16399
3010.48911	2.12721
3008.56055	2.09092
3006.63198	2.05508
3004.70342	2.01993
3002.77485	1.98578
3000.84629	1.95280
2998.91772	1.92048
2996.98916	1.88874
2995.06060	1.85777
2993.13203	1.82731
2991.20347	1.79760
2989.27490	1.76896
2987.34634	1.74110
2985.41777	1.71390
2983.48921	1.68725
2981.56064	1.66071
2979.63208	1.63438
2977.70352	1.60875
2975.77495	1.58425
2973.84639	1.56102
2971.91782	1.53840
2969.98926	1.51589
2968.06069	1.49328
2966.13213	1.47036
2964.20356	1.44759
2962.27500	1.42518
2960.34644	1.40260
2958.41787	1.37984
2956.48931	1.35706
2954.56074	1.33404
2952.63218	1.31088
2950.70361	1.28819
2948.77505	1.26636
2946.84648	1.24513
2944.91792	1.22421
2942.98936	1.20347
2941.06079	1.18330
2939.13223	1.16426
2937.20366	1.14611
2935.27510	1.12780
2933.34653	1.10834
2931.41797	1.08852
2929.48940	1.06977
2927.56084	1.05193
2925.63228	1.03409
2923.70371	1.01622
2921.77515	0.99847
2919.84658	0.98045
2917.91802	0.96255
2915.98945	0.94542
2914.06089	0.92866
2912.13232	0.91204
2910.20376	0.89628
2908.27520	0.88153
2906.34663	0.86680
2904.41807	0.85186
2902.48950	0.83757
2900.56094	0.82407
2898.63237	0.81063
2896.70381	0.79722
2894.77524	0.78448
2892.84668	0.77226
2890.91812	0.76010
2888.98955	0.74831
2887.06099	0.73719
2885.13242	0.72656
2883.20386	0.71648
2881.27529	0.70707
2879.34673	0.69788
2877.41816	0.68848
2875.48960	0.67894
2873.56104	0.66940
2871.63247	0.65952
2869.70391	0.64880
2867.77534	0.63726
2865.84678	0.62537
2863.91821	0.61360
2861.98965	0.60221
2860.06108	0.59113
2858.13252	0.58049
2856.20396	0.57067
2854.27539	0.56130
2852.34683	0.55180
2850.41826	0.54239
2848.48970	0.53360
2846.56113	0.52562
2844.63257	0.51801
2842.70400	0.51040
2840.77544	0.50307
2838.84687	0.49625
2836.91831	0.48985
2834.98975	0.48372
2833.06118	0.47776
2831.13262	0.47183
2829.20405	0.46570
2827.27549	0.45947
2825.34692	0.45342
2823.41836	0.44756
2821.48979	0.44174
2819.56123	0.43593
2817.63267	0.43015
2815.70410	0.42434
2813.77554	0.41860
2811.84697	0.41308
2809.91841	0.40773
2807.98984	0.40230
2806.06128	0.39682
2804.13271	0.39162
2802.20415	0.38673
2800.27559	0.38182
2798.34702	0.37680
2796.41846	0.37182
2794.48989	0.36704
2792.56133	0.36241
2790.63276	0.35788
2788.70420	0.35348
2786.77563	0.34914
2784.84707	0.34483
2782.91851	0.34065
2780.98994	0.33635
2779.06138	0.33197
2777.13281	0.32784
2775.20425	0.32393
2773.27568	0.32022
2771.34712	0.31669
2769.41855	0.31310
2767.48999	0.30938
2765.56143	0.30566
2763.63286	0.30203
2761.70430	0.29849
2759.77573	0.29501
2757.84717	0.29162
2755.91860	0.28844
2753.99004	0.28542
2752.06147	0.28238
2750.13291	0.27935
2748.20435	0.27648
2746.27578	0.27367
2744.34722	0.27076
2742.41865	0.26788
2740.49009	0.26524
2738.56152	0.26279
2736.63296	0.26029
2734.70439	0.25765
2732.77583	0.25515
2730.84727	0.25288
2728.91870	0.25054
2726.99014	0.24803
2725.06157	0.24568
2723.13301	0.24362
2721.20444	0.24161
2719.27588	0.23947
2717.34731	0.23724
2715.41875	0.23511
2713.49019	0.23326
2711.56162	0.23160
2709.63306	0.22996
2707.70449	0.22829
2705.77593	0.22658
2703.84736	0.22479
2701.91880	0.22298
2699.99023	0.22133
2698.06167	0.21992
2696.13311	0.21861
2694.20454	0.21724
2692.27598	0.21586
2690.34741	0.21447
2688.41885	0.21304
2686.49028	0.21162
2684.56172	0.21029
2682.63315	0.20908
2680.70459	0.20800
2678.77603	0.20696
2676.84746	0.20571
2674.91890	0.20432
2672.99033	0.20311
2671.06177	0.20201
2669.13320	0.20088
2667.20464	0.19984
2665.27607	0.19887
2663.34751	0.19794
2661.41895	0.19706
2659.49038	0.19613
2657.56182	0.19520
2655.63325	0.19443
2653.70469	0.19375
2651.77612	0.19302
2649.84756	0.19221
2647.91899	0.19144
2645.99043	0.19078
2644.06187	0.19005
2642.13330	0.18925
2640.20474	0.18871
2638.27617	0.18843
2636.34761	0.18793
2634.41904	0.18718
2632.49048	0.18656
2630.56191	0.18602
2628.63335	0.18542
2626.70479	0.18497
2624.77622	0.18469
2622.84766	0.18446
2620.91909	0.18431
2618.99053	0.18404
2617.06196	0.18361
2615.13340	0.18332
2613.20483	0.18323
2611.27627	0.18310
2609.34771	0.18286
2607.41914	0.18260
2605.49058	0.18236
2603.56201	0.18214
2601.63345	0.18203
2599.70488	0.18205
2597.77632	0.18202
2595.84775	0.18177
2593.91919	0.18158
2591.99062	0.18164
2590.06206	0.18177
2588.13350	0.18193
2586.20493	0.18209
2584.27637	0.18213
2582.34780	0.18214
2580.41924	0.18231
2578.49067	0.18258
2576.56211	0.18281
2574.63354	0.18298
2572.70498	0.18320
2570.77642	0.18345
2568.84785	0.18369
2566.91929	0.18397
2564.99072	0.18434
2563.06216	0.18472
2561.13359	0.18496
2559.20503	0.18513
2557.27646	0.18546
2555.34790	0.18603
2553.41934	0.18669
2551.49077	0.18723
2549.56221	0.18767
2547.63364	0.18806
2545.70508	0.18836
2543.77651	0.18867
2541.84795	0.18923
2539.91938	0.18991
2537.99082	0.19049
2536.06226	0.19101
2534.13369	0.19156
2532.20513	0.19214
2530.27656	0.19274
2528.34800	0.19335
2526.41943	0.19393
2524.49087	0.19447
2522.56230	0.19506
2520.63374	0.19575
2518.70518	0.19647
2516.77661	0.19721
2514.84805	0.19793
2512.91948	0.19859
2510.99092	0.19925
2509.06235	0.19988
2507.13379	0.20052
2505.20522	0.20131
2503.27666	0.20216
2501.34810	0.20291
2499.41953	0.20358
2497.49097	0.20418
2495.56240	0.20479
2493.63384	0.20553
2491.70527	0.20628
2489.77671	0.20704
2487.84814	0.20789
2485.91958	0.20870
2483.99102	0.20938
2482.06245	0.21006
2480.13389	0.21086
2478.20532	0.21167
2476.27676	0.21244
2474.34819	0.21323
2472.41963	0.21406
2470.49106	0.21496
2468.56250	0.21582
2466.63394	0.21649
2464.70537	0.21710
2462.77681	0.21789
2460.84824	0.21891
2458.91968	0.21990
2456.99111	0.22078
2455.06255	0.22160
2453.13398	0.22243
2451.20542	0.22331
2449.27686	0.22423
2447.34829	0.22511
2445.41973	0.22591
2443.49116	0.22675
2441.56260	0.22761
2439.63403	0.22839
2437.70547	0.22918
2435.77690	0.23012
2433.84834	0.23119
2431.91978	0.23224
2429.99121	0.23329
2428.06265	0.23433
2426.13408	0.23535
2424.20552	0.23640
2422.27695	0.23745
2420.34839	0.23842
2418.41982	0.23938
2416.49126	0.24040
2414.56270	0.24145
2412.63413	0.24255
2410.70557	0.24363
2408.77700	0.24459
2406.84844	0.24553
2404.91987	0.24652
2402.99131	0.24759
2401.06274	0.24879
2399.13418	0.25009
2397.20562	0.25127
2395.27705	0.25228
2393.34849	0.25327
2391.41992	0.25436
2389.49136	0.25535
2387.56279	0.25585
2385.63423	0.25543
2383.70566	0.25384
2381.77710	0.25111
2379.84854	0.24742
2377.91997	0.24280
2375.99141	0.23690
2374.06284	0.22940
2372.13428	0.22042
2370.20571	0.21052
2368.27715	0.20026
2366.34858	0.18971
2364.42002	0.17967
2362.49146	0.17314
2360.56289	0.17088
2358.63433	0.17212
2356.70576	0.18035
2354.77720	0.19516
2352.84863	0.21120
2350.92007	0.22542
2348.99150	0.23411
2347.06294	0.23547
2345.13437	0.22989
2343.20581	0.22095
2341.27725	0.21644
2339.34868	0.21825
2337.42012	0.22217
2335.49155	0.22607
2333.56299	0.22991
2331.63442	0.23343
2329.70586	0.23692
2327.77729	0.24100
2325.84873	0.24635
2323.92017	0.25293
2321.99160	0.25960
2320.06304	0.26599
2318.13447	0.27233
2316.20591	0.27796
2314.27734	0.28262
2312.34878	0.28669
2310.42021	0.29080
2308.49165	0.29542
2306.56309	0.30029
2304.63452	0.30472
2302.70596	0.30834
2300.77739	0.31143
2298.84883	0.31455
2296.92026	0.31786
2294.99170	0.32115
2293.06313	0.32439
2291.13457	0.32751
2289.20601	0.33052
2287.27744	0.33349
2285.34888	0.33642
2283.42031	0.33915
2281.49175	0.34145
2279.56318	0.34324
2277.63462	0.34480
2275.70605	0.34642
2273.77749	0.34817
2271.84893	0.35011
2269.92036	0.35230
2267.99180	0.35458
2266.06323	0.35676
2264.13467	0.35877
2262.20610	0.36079
2260.27754	0.36302
2258.34897	0.36544
2256.42041	0.36788
2254.49185	0.37020
2252.56328	0.37245
2250.63472	0.37476
2248.70615	0.37715
2246.77759	0.37950
2244.84902	0.38179
2242.92046	0.38406
2240.99189	0.38628
2239.06333	0.38847
2237.13477	0.39069
2235.20620	0.39283
2233.27764	0.39492
2231.34907	0.39706
2229.42051	0.39926
2227.49194	0.40147
2225.56338	0.40359
2223.63481	0.40572
2221.70625	0.40796
2219.77769	0.41017
2217.84912	0.41224
2215.92056	0.41428
2213.99199	0.41630
2212.06343	0.41836
2210.13486	0.42051
2208.20630	0.42260
2206.27773	0.42453
2204.34917	0.42650
2202.42061	0.42866
2200.49204	0.43084
2198.56348	0.43284
2196.63491	0.43466
2194.70635	0.43648
2192.77778	0.43840
2190.84922	0.44036
2188.92065	0.44221
2186.99209	0.44394
2185.06353	0.44567
2183.13496	0.44734
2181.20640	0.44889
2179.27783	0.45046
2177.34927	0.45209
2175.42070	0.45365
2173.49214	0.45517
2171.56357	0.45668
2169.63501	0.45800
2167.70645	0.45915
2165.77788	0.46040
2163.84932	0.46162
2161.92075	0.46266
2159.99219	0.46362
2158.06362	0.46463
2156.13506	0.46572
2154.20649	0.46676
2152.27793	0.46760
2150.34937	0.46820
2148.42080	0.46872
2146.49224	0.46938
2144.56367	0.47010
2142.63511	0.47069
2140.70654	0.47104
2138.77798	0.47112
2136.84941	0.47111
2134.92085	0.47136
2132.99229	0.47159
2131.06372	0.47145
2129.13516	0.47122
2127.20659	0.47106
2125.27803	0.47080
2123.34946	0.47038
2121.42090	0.46986
2119.49233	0.46923
2117.56377	0.46860
2115.63521	0.46803
2113.70664	0.46741
2111.77808	0.46664
2109.84951	0.46578
2107.92095	0.46490
2105.99238	0.46395
2104.06382	0.46286
2102.13525	0.46155
2100.20669	0.46019
2098.27812	0.45894
2096.34956	0.45761
2094.42100	0.45601
2092.49243	0.45436
2090.56387	0.45276
2088.63530	0.45113
2086.70674	0.44947
2084.77817	0.44779
2082.84961	0.44596
2080.92104	0.44395
2078.99248	0.44194
2077.06392	0.44003
2075.13535	0.43806
2073.20679	0.43594
2071.27822	0.43369
2069.34966	0.43141
2067.42109	0.42910
2065.49253	0.42670
2063.56396	0.42437
2061.63540	0.42228
2059.70684	0.42020
2057.77827	0.41784
2055.84971	0.41527
2053.92114	0.41266
2051.99258	0.41008
2050.06401	0.40758
2048.13545	0.40518
2046.20688	0.40268
2044.27832	0.40007
2042.34976	0.39730
2040.42119	0.39443
2038.49263	0.39172
2036.56406	0.38923
2034.63550	0.38676
2032.70693	0.38414
2030.77837	0.38137
2028.84980	0.37847
2026.92124	0.37566
2024.99268	0.37302
2023.06411	0.37039
2021.13555	0.36766
2019.20698	0.36482
2017.27842	0.36198
2015.34985	0.35928
2013.42129	0.35678
2011.49272	0.35426
2009.56416	0.35161
2007.63560	0.34887
2005.70703	0.34615
2003.77847	0.34344
2001.84990	0.34071
1999.92134	0.33808
1997.99277	0.33558
1996.06421	0.33301
1994.13564	0.33032
1992.20708	0.32758
1990.27852	0.32501
1988.34995	0.32275
1986.42139	0.32061
1984.49282	0.31839
1982.56426	0.31605
1980.63569	0.31371
1978.70713	0.31145
1976.77856	0.30921
1974.85000	0.30704
1972.92144	0.30498
1970.99287	0.30288
1969.06431	0.30059
1967.13574	0.29829
1965.20718	0.29629
1963.27861	0.29449
1961.35005	0.29263
1959.42148	0.29075
1957.49292	0.28890
1955.56436	0.28709
1953.63579	0.28533
1951.70723	0.28360
1949.77866	0.28192
1947.85010	0.28029
1945.92153	0.27863
1943.99297	0.27686
1942.06440	0.27512
1940.13584	0.27386
1938.20728	0.27292
1936.27871	0.27180
1934.35015	0.27038
1932.42158	0.26896
1930.49302	0.26766
1928.56445	0.26639
1926.63589	0.26520
1924.70732	0.26406
1922.77876	0.26290
1920.85020	0.26184
1918.92163	0.26081
1916.99307	0.25983
1915.06450	0.25917
1913.13594	0.25851
1911.20737	0.25765
1909.27881	0.25677
1907.35024	0.25617
1905.42168	0.25575
1903.49312	0.25528
1901.56455	0.25475
1899.63599	0.25422
1897.70742	0.25365
1895.77886	0.25298
1893.85029	0.25244
1891.92173	0.25203
1889.99316	0.25163
1888.06460	0.25141
1886.13604	0.25140
1884.20747	0.25128
1882.27891	0.25109
1880.35034	0.25102
1878.42178	0.25101
1876.49321	0.25099
1874.56465	0.25091
1872.63608	0.25072
1870.70752	0.25023
1868.77896	0.24973
1866.85039	0.24990
1864.92183	0.25061
1862.99326	0.25120
1861.06470	0.25150
1859.13613	0.25175
1857.20757	0.25207
1855.27900	0.25257
1853.35044	0.25318
1851.42187	0.25378
1849.49331	0.25413
1847.56475	0.25423
1845.63618	0.25431
1843.70762	0.25486
1841.77905	0.25609
1839.85049	0.25715
1837.92192	0.25801
1835.99336	0.25893
1834.06479	0.25997
1832.13623	0.26063
1830.20767	0.26112
1828.27910	0.26213
1826.35054	0.26343
1824.42197	0.26500
1822.49341	0.26671
1820.56484	0.26827
1818.63628	0.26970
1816.70771	0.27129
1814.77915	0.27286
1812.85059	0.27426
1810.92202	0.27571
1808.99346	0.27762
1807.06489	0.27984
1805.13633	0.28184
1803.20776	0.28371
1801.27920	0.28563
1799.35063	0.28804
1797.42207	0.29054
1795.49351	0.29280
1793.56494	0.29500
1791.63638	0.29807
1789.70781	0.30210
1787.77925	0.30560
1785.85068	0.30895
1783.92212	0.31243
1781.99355	0.31596
1780.06499	0.31970
1778.13643	0.32380
1776.20786	0.32748
1774.27930	0.33078
1772.35073	0.33521
1770.42217	0.34133
1768.49360	0.34774
1766.56504	0.35389
1764.63647	0.35949
1762.70791	0.36477
1760.77935	0.37152
1758.85078	0.37841
1756.92222	0.38543
1754.99365	0.39313
1753.06509	0.39987
1751.13652	0.40708
1749.20796	0.41635
1747.27939	0.42665
1745.35083	0.43624
1743.42227	0.44607
1741.49370	0.45649
1739.56514	0.46873
1737.63657	0.48128
1735.70801	0.49175
1733.77944	0.50660
1731.85088	0.52568
1729.92231	0.54204
1727.99375	0.55860
1726.06519	0.57578
1724.13662	0.59371
1722.20806	0.61287
1720.27949	0.63027
1718.35093	0.64966
1716.42236	0.67938
1714.49380	0.71035
1712.56523	0.73628
1710.63667	0.76067
1708.70811	0.78600
1706.77954	0.81393
1704.85098	0.84773
1702.92241	0.87883
1700.99385	0.90929
1699.06528	0.95461
1697.13672	0.99803
1695.20815	1.04463
1693.27959	1.09053
1691.35103	1.12691
1689.42246	1.16814
1687.49390	1.21215
1685.56533	1.25431
1683.63677	1.31909
1681.70820	1.38896
1679.77964	1.43509
1677.85107	1.47797
1675.92251	1.52646
1673.99395	1.58748
1672.06538	1.64252
1670.13682	1.69589
1668.20825	1.76717
1666.27969	1.82814
1664.35112	1.88012
1662.42256	1.94528
1660.49399	2.02004
1658.56543	2.07782
1656.63687	2.12232
1654.70830	2.16085
1652.77974	2.22119
1650.85117	2.28157
1648.92261	2.30139
1646.99404	2.32264
1645.06548	2.35018
1643.13691	2.37180
1641.20835	2.38200
1639.27979	2.38754
1637.35122	2.38837
1635.42266	2.38311
1633.49409	2.37107
1631.56553	2.35455
1629.63696	2.33468
1627.70840	2.30211
1625.77983	2.26454
1623.85127	2.21892
1621.92271	2.16375
1619.99414	2.11450
1618.06558	2.06573
1616.13701	1.99641
1614.20845	1.92803
1612.27988	1.87753
1610.35132	1.82464
1608.42275	1.76613
1606.49419	1.70814
1604.56562	1.65509
1602.63706	1.60447
1600.70850	1.55607
1598.77993	1.51215
1596.85137	1.47077
1594.92280	1.43083
1592.99424	1.39319
1591.06567	1.35895
1589.13711	1.32676
1587.20854	1.29716
1585.27998	1.27046
1583.35142	1.24621
1581.42285	1.22445
1579.49429	1.20579
1577.56572	1.18897
1575.63716	1.17011
1573.70859	1.15567
1571.78003	1.14667
1569.85146	1.13719
1567.92290	1.12828
1565.99434	1.12321
1564.06577	1.12015
1562.13721	1.11804
1560.20864	1.11781
1558.28008	1.12433
1556.35151	1.13406
1554.42295	1.14014
1552.49438	1.14557
1550.56582	1.14880
1548.63726	1.14902
1546.70869	1.14520
1544.78013	1.13584
1542.85156	1.12134
1540.92300	1.09989
1538.99443	1.06907
1537.06587	1.04792
1535.13730	1.03225
1533.20874	1.00952
1531.28018	0.98553
1529.35161	0.96835
1527.42305	0.95149
1525.49448	0.93366
1523.56592	0.91844
1521.63735	0.90425
1519.70879	0.89119
1517.78022	0.88041
1515.85166	0.86768
1513.92310	0.85467
1511.99453	0.84271
1510.06597	0.83054
1508.13740	0.81760
1506.20884	0.79953
1504.28027	0.78681
1502.35171	0.78031
1500.42314	0.77354
1498.49458	0.76533
1496.56602	0.75621
1494.63745	0.74820
1492.70889	0.74188
1490.78032	0.73539
1488.85176	0.72795
1486.92319	0.72217
1484.99463	0.71825
1483.06606	0.71515
1481.13750	0.71245
1479.20894	0.71023
1477.28037	0.70867
1475.35181	0.70781
1473.42324	0.70780
1471.49468	0.70840
1469.56611	0.70869
1467.63755	0.70786
1465.70898	0.70613
1463.78042	0.70479
1461.85186	0.70469
1459.92329	0.70471
1457.99473	0.70430
1456.06616	0.70430
1454.13760	0.70423
1452.20903	0.70315
1450.28047	0.70105
1448.35190	0.69844
1446.42334	0.69611
1444.49478	0.69420
1442.56621	0.69197
1440.63765	0.68909
1438.70908	0.68559
1436.78052	0.68108
1434.85195	0.67683
1432.92339	0.67403
1430.99482	0.67200
1429.06626	0.67099
1427.13770	0.67118
1425.20913	0.67184
1423.28057	0.67283
1421.35200	0.67381
1419.42344	0.67439
1417.49487	0.67466
1415.56631	0.67458
1413.63774	0.67447
1411.70918	0.67483
1409.78062	0.67606
1407.85205	0.67789
1405.92349	0.68002
1403.99492	0.68220
1402.06636	0.68336
1400.13779	0.68296
1398.20923	0.68109
1396.28066	0.67807
1394.35210	0.67405
1392.42354	0.66970
1390.49497	0.66538
1388.56641	0.66046
1386.63784	0.65476
1384.70928	0.64920
1382.78071	0.64401
1380.85215	0.63888
1378.92358	0.63435
1376.99502	0.63083
1375.06646	0.62827
1373.13789	0.62677
1371.20933	0.62621
1369.28076	0.62577
1367.35220	0.62477
1365.42363	0.62296
1363.49507	0.62071
1361.56650	0.61888
1359.63794	0.61761
1357.70937	0.61631
1355.78081	0.61492
1353.85225	0.61381
1351.92368	0.61296
1349.99512	0.61210
1348.06655	0.61138
1346.13799	0.61074
1344.20942	0.60989
1342.28086	0.60882
1340.35229	0.60776
1338.42373	0.60698
1336.49517	0.60662
1334.56660	0.60658
1332.63804	0.60677
1330.70947	0.60714
1328.78091	0.60775
1326.85234	0.60864
1324.92378	0.60971
1322.99521	0.61082
1321.06665	0.61170
1319.13809	0.61238
1317.20952	0.61302
1315.28096	0.61342
1313.35239	0.61324
1311.42383	0.61253
1309.49526	0.61181
1307.56670	0.61138
1305.63813	0.61108
1303.70957	0.61062
1301.78101	0.60990
1299.85244	0.60897
1297.92388	0.60781
1295.99531	0.60653
1294.06675	0.60534
1292.13818	0.60413
1290.20962	0.60266
1288.28105	0.60106
1286.35249	0.59956
1284.42393	0.59818
1282.49536	0.59679
1280.56680	0.59531
1278.63823	0.59370
1276.70967	0.59204
1274.78110	0.59056
1272.85254	0.58943
1270.92397	0.58856
1268.99541	0.58787
1267.06685	0.58722
1265.13828	0.58636
1263.20972	0.58533
1261.28115	0.58428
1259.35259	0.58325
1257.42402	0.58239
1255.49546	0.58191
1253.56689	0.58178
1251.63833	0.58187
1249.70977	0.58200
1247.78120	0.58193
1245.85264	0.58158
1243.92407	0.58083
1241.99551	0.57974
1240.06694	0.57838
1238.13838	0.57652
1236.20981	0.57412
1234.28125	0.57144
1232.35269	0.56872
1230.42412	0.56608
1228.49556	0.56359
1226.56699	0.56119
1224.63843	0.55894
1222.70986	0.55698
1220.78130	0.55524
1218.85273	0.55350
1216.92417	0.55197
1214.99561	0.55082
1213.06704	0.54983
1211.13848	0.54893
1209.20991	0.54818
1207.28135	0.54748
1205.35278	0.54676
1203.42422	0.54588
1201.49565	0.54478
1199.56709	0.54363
1197.63853	0.54254
1195.70996	0.54156
1193.78140	0.54080
1191.85283	0.54019
1189.92427	0.53969
1187.99570	0.53937
1186.06714	0.53911
1184.13857	0.53892
1182.21001	0.53910
1180.28145	0.53989
1178.35288	0.54138
1176.42432	0.54318
1174.49575	0.54463
1172.56719	0.54553
1170.63862	0.54599
1168.71006	0.54622
1166.78149	0.54626
1164.85293	0.54619
1162.92437	0.54621
1160.99580	0.54634
1159.06724	0.54629
1157.13867	0.54576
1155.21011	0.54477
1153.28154	0.54346
1151.35298	0.54169
1149.42441	0.53928
1147.49585	0.53635
1145.56729	0.53330
1143.63872	0.53052
1141.71016	0.52825
1139.78159	0.52656
1137.85303	0.52540
1135.92446	0.52467
1133.99590	0.52441
1132.06733	0.52457
1130.13877	0.52487
1128.21021	0.52503
1126.28164	0.52488
1124.35308	0.52454
1122.42451	0.52424
1120.49595	0.52409
1118.56738	0.52432
1116.63882	0.52512
1114.71025	0.52610
1112.78169	0.52682
1110.85312	0.52748
1108.92456	0.52847
1106.99600	0.52957
1105.06743	0.53056
1103.13887	0.53151
1101.21030	0.53238
1099.28174	0.53336
1097.35317	0.53500
1095.42461	0.53753
1093.49604	0.54086
1091.56748	0.54522
1089.63892	0.55106
1087.71035	0.55840
1085.78179	0.56684
1083.85322	0.57553
1081.92466	0.58328
1079.99609	0.58878
1078.06753	0.59106
1076.13896	0.59021
1074.21040	0.58669
1072.28184	0.58107
1070.35327	0.57427
1068.42471	0.56706
1066.49614	0.55990
1064.56758	0.55341
1062.63901	0.54797
1060.71045	0.54325
1058.78188	0.53899
1056.85332	0.53522
1054.92476	0.53184
1052.99619	0.52872
1051.06763	0.52621
1049.13906	0.52467
1047.21050	0.52384
1045.28193	0.52332
1043.35337	0.52302
1041.42480	0.52299
1039.49624	0.52317
1037.56768	0.52326
1035.63911	0.52294
1033.71055	0.52208
1031.78198	0.52079
1029.85342	0.51929
1027.92485	0.51763
1025.99629	0.51581
1024.06772	0.51420
1022.13916	0.51317
1020.21060	0.51268
1018.28203	0.51242
1016.35347	0.51210
1014.42490	0.51156
1012.49634	0.51087
1010.56777	0.51027
1008.63921	0.50997
1006.71064	0.51019
1004.78208	0.51104
1002.85352	0.51262
1000.92495	0.51508
998.99639	0.51836
997.06782	0.52224
995.13926	0.52652
993.21069	0.53071
991.28213	0.53407
989.35356	0.53611
987.42500	0.53676
985.49644	0.53643
983.56787	0.53600
981.63931	0.53606
979.71074	0.53659
977.78218	0.53760
975.85361	0.53948
973.92505	0.54207
971.99648	0.54482
970.06792	0.54767
968.13936	0.55086
966.21079	0.55453
964.28223	0.55875
962.35366	0.56348
960.42510	0.56841
958.49653	0.57345
956.56797	0.57875
954.63940	0.58430
952.71084	0.59017
950.78228	0.59650
948.85371	0.60294
946.92515	0.60901
944.99658	0.61492
943.06802	0.62142
941.13945	0.62821
939.21089	0.63441
937.28232	0.64013
935.35376	0.64561
933.42520	0.65085
931.49663	0.65608
929.56807	0.66145
927.63950	0.66689
925.71094	0.67238
923.78237	0.67844
921.85381	0.68531
919.92524	0.69246
917.99668	0.69922
916.06812	0.70556
914.13955	0.71231
912.21099	0.72005
910.28242	0.72836
908.35386	0.73646
906.42529	0.74399
904.49673	0.75197
902.56816	0.76147
900.63960	0.77144
898.71104	0.78103
896.78247	0.79079
894.85391	0.80048
892.92534	0.80945
890.99678	0.81810
889.06821	0.82811
887.13965	0.84003
885.21108	0.85168
883.28252	0.86220
881.35396	0.87311
879.42539	0.88462
877.49683	0.89589
875.56826	0.90737
873.63970	0.91917
871.71113	0.93104
869.78257	0.94295
867.85400	0.95442
865.92544	0.96634
863.99687	0.97931
862.06831	0.99129
860.13975	1.00069
858.21118	1.00987
856.28262	1.02180
854.35405	1.03494
852.42549	1.04729
850.49692	1.06054
848.56836	1.07348
846.63979	1.08229
844.71123	1.08934
842.78267	1.09961
840.85410	1.11268
838.92554	1.12447
836.99697	1.13490
835.06841	1.14603
833.13984	1.15637
831.21128	1.16558
829.28271	1.17526
827.35415	1.18507
825.42559	1.19627
823.49702	1.20934
821.56846	1.22039
819.63989	1.23245
817.71133	1.24929
815.78276	1.26669
813.85420	1.28481
811.92563	1.29862
809.99707	1.29772
808.06851	1.29400
806.13994	1.30093
804.21138	1.31197
802.28281	1.32776
800.35425	1.35289
798.42568	1.37589
796.49712	1.39219
794.56855	1.41349
792.63999	1.42786
790.71143	1.41418
788.78286	1.37857
786.85430	1.34479
784.92573	1.37377
782.99717	1.50800
781.06860	1.69138
779.14004	1.71699
777.21147	1.57761
775.28291	1.44473
773.35435	1.39481
771.42578	1.43201
769.49722	1.44481
767.56865	1.39460
765.64009	1.39545
763.71152	1.44554
761.78296	1.39091
759.85439	1.29057
757.92583	1.26883
755.99727	1.28416
754.06870	1.28986
752.14014	1.31143
750.21157	1.27854
748.28301	1.18477
746.35444	1.13738
744.42588	1.12912
742.49731	1.16580
740.56875	1.21808
738.64019	1.22248
736.71162	4.42027
734.78306	4.40870
732.85449	4.39713
730.92593	4.38556
728.99736	0.92890
727.06880	0.81868
725.14023	1.14312
723.21167	0.77064
721.28311	0.32308
719.35454	0.20543
717.42598	0.39110
715.49741	0.57936
713.56885	0.51263
711.64028	0.20256
709.71172	-0.07692
707.78315	-0.17059
705.85459	-0.04566
703.92603	0.11306
701.99746	0.29317
700.06890	0.51381
698.14033	0.39275
696.21177	0.25386
694.28320	0.35471
692.35464	0.70110
690.42607	2.88394
688.49751	0.92967
686.56895	0.52635
684.64038	0.36412
682.71182	0.28562
680.78325	0.22074
678.85469	0.17774
676.92612	0.15265
674.99756	0.15142
673.06899	0.27858
671.14043	0.49670
669.21187	0.60948
667.28330	0.51612
665.35474	0.58531
663.42617	1.86136
661.49761	0.86672
659.56904	0.37028
657.64048	0.31023
655.71191	0.40029
653.78335	0.59481
651.85479	0.69175
649.92622	0.48285
647.99766	0.30024
646.06909	0.22024
644.14053	0.22153
642.21196	0.26531
640.28340	0.33664
638.35483	0.39545
636.42627	0.34345
634.49771	0.30162
632.56914	0.37663
630.64058	0.46997
628.71201	0.56038
626.78345	0.75125
624.85488	0.65351
622.92632	0.43822
620.99775	0.38293
619.06919	0.36261
617.14062	0.29486
615.21206	0.25326
613.28350	0.23191
611.35493	0.24753
609.42637	0.47584
607.49780	3.64499
605.56924	3.63342
603.64067	0.73069
601.71211	0.45345
599.78354	0.24611
597.85498	0.20521
595.92642	0.27308
593.99785	0.25418
592.06929	0.18352
590.14072	0.21826
588.21216	0.35457
586.28359	0.39614
584.35503	0.35779
582.42646	0.34027
580.49790	0.26622
578.56934	0.18850
576.64077	0.19982
574.71221	0.27158
572.78364	0.26374
570.85508	0.18832
568.92651	0.18000
566.99795	0.26761
565.06938	0.39985
563.14082	0.41186
561.21226	0.34315
559.28369	0.31195
557.35513	0.31958
555.42656	0.37141
553.49800	0.44841
551.56943	0.50773
549.64087	0.47865
547.71230	0.40931
545.78374	0.38512
543.85518	0.38060
541.92661	0.35711
539.99805	0.31963
538.06948	0.29755
536.14092	0.29792
534.21235	0.32097
532.28379	0.38848
530.35522	0.46500
528.42666	0.43616
526.49810	0.33381
524.56953	0.24390
522.64097	0.20169
520.71240	0.20564
518.78384	0.26333
516.85527	0.36852
514.92671	0.44103
512.99814	0.40250
511.06958	0.36654
509.14102	0.34830
507.21245	0.32527
505.28389	0.29834
503.35532	0.27039
501.42676	0.24485
499.49819	0.22617
