3997.91411	0.06411
3995.98555	0.06467
3994.05698	0.06540
3992.12842	0.06624
3990.19985	0.06697
3988.27129	0.06719
3986.34272	0.06703
3984.41416	0.06688
3982.48560	0.06705
3980.55703	0.06758
3978.62847	0.06793
3976.69990	0.06789
3974.77134	0.06784
3972.84277	0.06801
3970.91421	0.06830
3968.98564	0.06854
3967.05708	0.06876
3965.12852	0.06918
3963.19995	0.06971
3961.27139	0.06984
3959.34282	0.06959
3957.41426	0.06964
3955.48569	0.06995
3953.55713	0.06988
3951.62856	0.06918
3949.70000	0.06850
3947.77144	0.06881
3945.84287	0.06966
3943.91431	0.06996
3941.98574	0.06994
3940.05718	0.06999
3938.12861	0.07014
3936.20005	0.07030
3934.27148	0.07031
3932.34292	0.07036
3930.41436	0.07034
3928.48579	0.06997
3926.55723	0.06966
3924.62866	0.06988
3922.70010	0.07026
3920.77153	0.07022
3918.84297	0.07009
3916.91440	0.07038
3914.98584	0.07051
3913.05728	0.06997
3911.12871	0.06944
3909.20015	0.06918
3907.27158	0.06886
3905.34302	0.06872
3903.41445	0.06932
3901.48589	0.07037
3899.55732	0.07104
3897.62876	0.07069
3895.70020	0.06957
3893.77163	0.06885
3891.84307	0.06882
3889.91450	0.06910
3887.98594	0.06957
3886.05737	0.07027
3884.12881	0.07068
3882.20024	0.07062
3880.27168	0.07092
3878.34312	0.07102
3876.41455	0.07050
3874.48599	0.07042
3872.55742	0.07103
3870.62886	0.07181
3868.70029	0.07246
3866.77173	0.07261
3864.84316	0.07286
3862.91460	0.07349
3860.98604	0.07358
3859.05747	0.07332
3857.12891	0.07338
3855.20034	0.07406
3853.27178	0.07577
3851.34321	0.07738
3849.41465	0.07695
3847.48608	0.07591
3845.55752	0.07529
3843.62896	0.07563
3841.70039	0.07682
3839.77183	0.07821
3837.84326	0.07976
3835.91470	0.08064
3833.98613	0.08034
3832.05757	0.08041
3830.12900	0.08117
3828.20044	0.08197
3826.27187	0.08291
3824.34331	0.08380
3822.41475	0.08460
3820.48618	0.08604
3818.55762	0.08711
3816.62905	0.08738
3814.70049	0.08783
3812.77192	0.08819
3810.84336	0.08863
3808.91479	0.08958
3806.98623	0.09130
3805.05767	0.09335
3803.12910	0.09482
3801.20054	0.09640
3799.27197	0.09788
3797.34341	0.09841
3795.41484	0.09908
3793.48628	0.09995
3791.55771	0.10071
3789.62915	0.10161
3787.70059	0.10269
3785.77202	0.10422
3783.84346	0.10615
3781.91489	0.10773
3779.98633	0.10905
3778.05776	0.11076
3776.12920	0.11247
3774.20063	0.11416
3772.27207	0.11593
3770.34351	0.11746
3768.41494	0.11900
3766.48638	0.12080
3764.55781	0.12310
3762.62925	0.12551
3760.70068	0.12764
3758.77212	0.13005
3756.84355	0.13255
3754.91499	0.13462
3752.98643	0.13704
3751.05786	0.14057
3749.12930	0.14436
3747.20073	0.14630
3745.27217	0.14758
3743.34360	0.15120
3741.41504	0.15615
3739.48647	0.15988
3737.55791	0.16380
3735.62935	0.16925
3733.70078	0.17531
3731.77222	0.18020
3729.84365	0.18468
3727.91509	0.18939
3725.98652	0.19494
3724.05796	0.20102
3722.12939	0.20711
3720.20083	0.21387
3718.27227	0.22114
3716.34370	0.22834
3714.41514	0.23544
3712.48657	0.24442
3710.55801	0.25846
3708.62944	0.27417
3706.70088	0.28603
3704.77231	0.29643
3702.84375	0.30897
3700.91519	0.32572
3698.98662	0.34417
3697.05806	0.36201
3695.12949	0.38097
3693.20093	0.40058
3691.27236	0.42168
3689.34380	0.44963
3687.41523	0.48445
3685.48667	0.51531
3683.55811	0.54206
3681.62954	0.57047
3679.70098	0.60208
3677.77241	0.63477
3675.84385	0.67298
3673.91528	0.72585
3671.98672	0.77023
3670.05815	0.80914
3668.12959	0.86247
3666.20103	0.91154
3664.27246	0.95252
3662.34390	0.99659
3660.41533	1.04398
3658.48677	1.09022
3656.55820	1.13923
3654.62964	1.19433
3652.70107	1.24107
3650.77251	1.28145
3648.84395	1.33726
3646.91538	1.40765
3644.98682	1.45955
3643.05825	1.49785
3641.12969	1.53681
3639.20112	1.58101
3637.27256	1.62618
3635.34399	1.66978
3633.41543	1.71286
3631.48687	1.75334
3629.55830	1.79500
3627.62974	1.84920
3625.70117	1.89886
3623.77261	1.93268
3621.84404	1.96600
3619.91548	2.00394
3617.98691	2.04938
3616.05835	2.09352
3614.12979	2.12950
3612.20122	2.16690
3610.27266	2.20558
3608.34409	2.24554
3606.41553	2.28897
3604.48696	2.32906
3602.55840	2.36412
3600.62983	2.40131
3598.70127	2.44146
3596.77271	2.48149
3594.84414	2.52275
3592.91558	2.56441
3590.98701	2.60282
3589.05845	2.63952
3587.12988	2.68371
3585.20132	2.73095
3583.27275	2.77077
3581.34419	2.80927
3579.41562	2.85118
3577.48706	2.89432
3575.55850	2.93613
3573.62993	2.97762
3571.70137	3.01827
3569.77280	3.05826
3567.84424	3.10134
3565.91567	3.15363
3563.98711	3.20422
3562.05854	3.24506
3560.12998	3.28476
3558.20142	3.32726
3556.27285	3.37181
3554.34429	3.41550
3552.41572	3.45964
3550.48716	3.50381
3548.55859	3.54661
3546.63003	3.59186
3544.70146	3.64150
3542.77290	3.69143
3540.84434	3.73990
3538.91577	3.78700
3536.98721	3.83252
3535.05864	3.87954
3533.13008	3.92812
3531.20151	3.97766
3529.27295	4.02651
3527.34438	4.07269
3525.41582	4.11620
3523.48726	4.16087
3521.55869	4.20940
3519.63013	4.25888
3517.70156	4.30922
3515.77300	4.35765
3513.84443	4.40196
3511.91587	4.44723
3509.98730	4.49819
3508.05874	4.54899
3506.13018	4.59272
3504.20161	4.63606
3502.27305	4.68676
3500.34448	4.74083
3498.41592	4.78821
3496.48735	4.82901
3494.55879	4.86999
3492.63022	4.91524
3490.70166	4.96652
3488.77310	5.02178
3486.84453	5.07584
3484.91597	5.12420
3482.98740	5.16571
3481.05884	5.20655
3479.13027	5.25355
3477.20171	5.30968
3475.27314	5.37383
3473.34458	5.43653
3471.41602	5.48382
3469.48745	5.51697
3467.55889	5.55560
3465.63032	5.60475
3463.70176	5.65370
3461.77319	5.70178
3459.84463	5.75581
3457.91606	5.81031
3455.98750	5.85445
3454.05894	5.89116
3452.13037	5.93200
3450.20181	5.98155
3448.27324	6.03844
3446.34468	6.09545
3444.41611	6.13692
3442.48755	6.17809
3440.55898	6.23553
3438.63042	6.29500
3436.70186	6.34473
3434.77329	6.39029
3432.84473	6.43605
3430.91616	6.47021
3428.98760	6.49708
3427.05903	6.53158
3425.13047	6.58602
3423.20190	6.67201
3421.27334	6.76588
3419.34478	6.80838
3417.41621	6.82911
3415.48765	6.90006
3413.55908	6.98713
3411.63052	7.04511
3409.70195	7.09298
3407.77339	7.13969
3405.84482	7.16876
3403.91626	7.19065
3401.98770	7.20101
3400.05913	7.21298
3398.13057	7.27544
3396.20200	7.37622
3394.27344	7.43700
3392.34487	7.40405
3390.41631	7.34710
3388.48774	7.34677
3386.55918	7.40038
3384.63062	7.44203
3382.70205	7.46862
3380.77349	7.54078
3378.84492	7.63292
3376.91636	7.68864
3374.98779	7.70378
3373.05923	7.71142
3371.13066	7.71861
3369.20210	7.73257
3367.27354	7.75370
3365.34497	7.77434
3363.41641	7.79509
3361.48784	7.83965
3359.55928	7.94018
3357.63071	8.03380
3355.70215	8.05672
3353.77358	8.04047
3351.84502	8.05282
3349.91646	8.10211
3347.98789	8.13707
3346.05933	8.11726
3344.13076	8.08628
3342.20220	8.07375
3340.27363	8.04261
3338.34507	8.03229
3336.41650	8.06857
3334.48794	8.11939
3332.55937	8.14077
3330.63081	8.12581
3328.70225	8.10925
3326.77368	8.11590
3324.84512	8.12245
3322.91655	8.09737
3320.98799	8.05352
3319.05942	8.01645
3317.13086	8.03151
3315.20229	8.09025
3313.27373	8.16824
3311.34517	8.20031
3309.41660	8.15049
3307.48804	8.09714
3305.55947	8.06028
3303.63091	8.04352
3301.70234	8.06445
3299.77378	8.14022
3297.84521	8.23525
3295.91665	8.25374
3293.98809	8.16605
3292.05952	8.08109
3290.13096	8.07223
3288.20239	8.09797
3286.27383	8.12496
3284.34526	8.15615
3282.41670	8.20041
3280.48813	8.20126
3278.55957	8.16910
3276.63101	8.20297
3274.70244	8.27136
3272.77388	8.24905
3270.84531	8.17049
3268.91675	8.13919
3266.98818	8.13184
3265.05962	8.14199
3263.13105	8.15211
3261.20249	8.09384
3259.27393	8.03742
3257.34536	8.06651
3255.41680	8.11996
3253.48823	8.15936
3251.55967	8.14964
3249.63110	8.08757
3247.70254	8.11166
3245.77397	8.20323
3243.84541	8.23103
3241.91685	8.17950
3239.98828	8.07393
3238.05972	8.00004
3236.13115	8.03550
3234.20259	8.12396
3232.27402	8.19817
3230.34546	8.23673
3228.41689	8.20985
3226.48833	8.16722
3224.55977	8.12963
3222.63120	8.13614
3220.70264	8.23995
3218.77407	8.28814
3216.84551	8.18655
3214.91694	8.07563
3212.98838	8.00942
3211.05981	7.98194
3209.13125	7.93579
3207.20269	7.81254
3205.27412	7.72986
3203.34556	7.71858
3201.41699	7.64623
3199.48843	7.53736
3197.55986	7.50224
3195.63130	7.52025
3193.70273	7.52371
3191.77417	7.49009
3189.84561	7.43907
3187.91704	7.41734
3185.98848	7.41815
3184.05991	7.37560
3182.13135	7.29093
3180.20278	7.22181
3178.27422	7.19713
3176.34565	7.20061
3174.41709	7.16286
3172.48853	7.07379
3170.55996	7.00098
3168.63140	6.94814
3166.70283	6.87215
3164.77427	6.77947
3162.84570	6.69338
3160.91714	6.61214
3158.98857	6.54815
3157.06001	6.50833
3155.13145	6.45976
3153.20288	6.37593
3151.27432	6.28240
3149.34575	6.20516
3147.41719	6.14402
3145.48862	6.09815
3143.56006	6.05204
3141.63149	5.98704
3139.70293	5.90780
3137.77437	5.83188
3135.84580	5.76567
3133.91724	5.70689
3131.98867	5.64662
3130.06011	5.57056
3128.13154	5.49176
3126.20298	5.42286
3124.27441	5.34718
3122.34585	5.26421
3120.41729	5.19134
3118.48872	5.12671
3116.56016	5.06084
3114.63159	4.99001
3112.70303	4.91800
3110.77446	4.85298
3108.84590	4.79055
3106.91733	4.72522
3104.98877	4.66063
3103.06021	4.59365
3101.13164	4.51999
3099.20308	4.44634
3097.27451	4.37993
3095.34595	4.31857
3093.41738	4.25407
3091.48882	4.18587
3089.56025	4.12002
3087.63169	4.05632
3085.70312	3.99443
3083.77456	3.93602
3081.84600	3.87815
3079.91743	3.81735
3077.98887	3.75452
3076.06030	3.69226
3074.13174	3.63210
3072.20317	3.57488
3070.27461	3.51904
3068.34604	3.46222
3066.41748	3.40368
3064.48892	3.34566
3062.56035	3.29129
3060.63179	3.23925
3058.70322	3.18694
3056.77466	3.13418
3054.84609	3.08029
3052.91753	3.02626
3050.98896	2.97481
3049.06040	2.92536
3047.13184	2.87644
3045.20327	2.82797
3043.27471	2.77904
3041.34614	2.72984
3039.41758	2.68212
3037.48901	2.63592
3035.56045	2.59049
3033.63188	2.54604
3031.70332	2.50199
3029.77476	2.45774
3027.84619	2.41392
3025.91763	2.37146
3023.98906	2.33042
3022.06050	2.29008
3020.13193	2.25016
3018.20337	2.21042
3016.27480	2.17066
3014.34624	2.13176
3012.41768	2.09390
3010.48911	2.05634
3008.56055	2.01947
3006.63198	1.98386
3004.70342	1.94912
3002.77485	1.91485
3000.84629	1.88091
2998.91772	1.84748
2996.98916	1.81481
2995.06060	1.78255
2993.13203	1.75055
2991.20347	1.71913
2989.27490	1.68848
2987.34634	1.65863
2985.41777	1.62926
2983.48921	1.59987
2981.56064	1.57042
2979.63208	1.54175
2977.70352	1.51449
2975.77495	1.48804
2973.84639	1.46171
2971.91782	1.43546
2969.98926	1.40945
2968.06069	1.38383
2966.13213	1.35864
2964.20356	1.33390
2962.27500	1.30958
2960.34644	1.28542
2958.41787	1.26158
2956.48931	1.23853
2954.56074	1.21615
2952.63218	1.19391
2950.70361	1.17176
2948.77505	1.15006
2946.84648	1.12921
2944.91792	1.10900
2942.98936	1.08842
2941.06079	1.06739
2939.13223	1.04705
2937.20366	1.02785
2935.27510	1.00924
2933.34653	0.99086
2931.41797	0.97287
2929.48940	0.95518
2927.56084	0.93762
2925.63228	0.92037
2923.70371	0.90362
2921.77515	0.88736
2919.84658	0.87136
2917.91802	0.85511
2915.98945	0.83873
2914.06089	0.82301
2912.13232	0.80848
2910.20376	0.79478
2908.27520	0.78083
2906.34663	0.76653
2904.41807	0.75256
2902.48950	0.73912
2900.56094	0.72615
2898.63237	0.71346
2896.70381	0.70092
2894.77524	0.68868
2892.84668	0.67670
2890.91812	0.66484
2888.98955	0.65338
2887.06099	0.64256
2885.13242	0.63226
2883.20386	0.62212
2881.27529	0.61192
2879.34673	0.60167
2877.41816	0.59155
2875.48960	0.58171
2873.56104	0.57184
2871.63247	0.56175
2869.70391	0.55178
2867.77534	0.54198
2865.84678	0.53221
2863.91821	0.52243
2861.98965	0.51282
2860.06108	0.50379
2858.13252	0.49538
2856.20396	0.48716
2854.27539	0.47889
2852.34683	0.47066
2850.41826	0.46254
2848.48970	0.45456
2846.56113	0.44689
2844.63257	0.43980
2842.70400	0.43330
2840.77544	0.42713
2838.84687	0.42122
2836.91831	0.41552
2834.98975	0.40974
2833.06118	0.40368
2831.13262	0.39756
2829.20405	0.39165
2827.27549	0.38598
2825.34692	0.38039
2823.41836	0.37483
2821.48979	0.36950
2819.56123	0.36434
2817.63267	0.35891
2815.70410	0.35324
2813.77554	0.34783
2811.84697	0.34293
2809.91841	0.33821
2807.98984	0.33322
2806.06128	0.32806
2804.13271	0.32306
2802.20415	0.31836
2800.27559	0.31394
2798.34702	0.30965
2796.41846	0.30533
2794.48989	0.30089
2792.56133	0.29646
2790.63276	0.29221
2788.70420	0.28812
2786.77563	0.28408
2784.84707	0.27999
2782.91851	0.27591
2780.98994	0.27216
2779.06138	0.26874
2777.13281	0.26527
2775.20425	0.26167
2773.27568	0.25823
2771.34712	0.25493
2769.41855	0.25163
2767.48999	0.24837
2765.56143	0.24515
2763.63286	0.24197
2761.70430	0.23891
2759.77573	0.23594
2757.84717	0.23311
2755.91860	0.23035
2753.99004	0.22745
2752.06147	0.22460
2750.13291	0.22194
2748.20435	0.21934
2746.27578	0.21676
2744.34722	0.21425
2742.41865	0.21182
2740.49009	0.20942
2738.56152	0.20707
2736.63296	0.20482
2734.70439	0.20268
2732.77583	0.20051
2730.84727	0.19827
2728.91870	0.19613
2726.99014	0.19414
2725.06157	0.19224
2723.13301	0.19035
2721.20444	0.18837
2719.27588	0.18641
2717.34731	0.18460
2715.41875	0.18289
2713.49019	0.18125
2711.56162	0.17967
2709.63306	0.17815
2707.70449	0.17665
2705.77593	0.17521
2703.84736	0.17377
2701.91880	0.17216
2699.99023	0.17057
2698.06167	0.16913
2696.13311	0.16770
2694.20454	0.16637
2692.27598	0.16525
2690.34741	0.16412
2688.41885	0.16294
2686.49028	0.16180
2684.56172	0.16073
2682.63315	0.15978
2680.70459	0.15878
2678.77603	0.15758
2676.84746	0.15640
2674.91890	0.15540
2672.99033	0.15439
2671.06177	0.15335
2669.13320	0.15248
2667.20464	0.15160
2665.27607	0.15062
2663.34751	0.14987
2661.41895	0.14941
2659.49038	0.14884
2657.56182	0.14809
2655.63325	0.14745
2653.70469	0.14693
2651.77612	0.14628
2649.84756	0.14560
2647.91899	0.14508
2645.99043	0.14460
2644.06187	0.14415
2642.13330	0.14364
2640.20474	0.14299
2638.27617	0.14243
2636.34761	0.14209
2634.41904	0.14184
2632.49048	0.14162
2630.56191	0.14148
2628.63335	0.14127
2626.70479	0.14078
2624.77622	0.14029
2622.84766	0.14009
2620.91909	0.14000
2618.99053	0.13991
2617.06196	0.13977
2615.13340	0.13967
2613.20483	0.13972
2611.27627	0.13977
2609.34771	0.13974
2607.41914	0.13973
2605.49058	0.13969
2603.56201	0.13968
2601.63345	0.13981
2599.70488	0.13998
2597.77632	0.13996
2595.84775	0.13979
2593.91919	0.13982
2591.99062	0.14003
2590.06206	0.14018
2588.13350	0.14034
2586.20493	0.14058
2584.27637	0.14085
2582.34780	0.14115
2580.41924	0.14145
2578.49067	0.14176
2576.56211	0.14209
2574.63354	0.14237
2572.70498	0.14264
2570.77642	0.14306
2568.84785	0.14359
2566.91929	0.14408
2564.99072	0.14451
2563.06216	0.14497
2561.13359	0.14543
2559.20503	0.14587
2557.27646	0.14631
2555.34790	0.14681
2553.41934	0.14742
2551.49077	0.14809
2549.56221	0.14869
2547.63364	0.14912
2545.70508	0.14955
2543.77651	0.15022
2541.84795	0.15105
2539.91938	0.15181
2537.99082	0.15248
2536.06226	0.15306
2534.13369	0.15365
2532.20513	0.15438
2530.27656	0.15518
2528.34800	0.15598
2526.41943	0.15680
2524.49087	0.15752
2522.56230	0.15814
2520.63374	0.15886
2518.70518	0.15968
2516.77661	0.16052
2514.84805	0.16130
2512.91948	0.16202
2510.99092	0.16275
2509.06235	0.16354
2507.13379	0.16445
2505.20522	0.16544
2503.27666	0.16639
2501.34810	0.16721
2499.41953	0.16793
2497.49097	0.16870
2495.56240	0.16961
2493.63384	0.17048
2491.70527	0.17128
2489.77671	0.17220
2487.84814	0.17320
2485.91958	0.17420
2483.99102	0.17521
2482.06245	0.17611
2480.13389	0.17688
2478.20532	0.17769
2476.27676	0.17862
2474.34819	0.17965
2472.41963	0.18070
2470.49106	0.18171
2468.56250	0.18268
2466.63394	0.18365
2464.70537	0.18461
2462.77681	0.18548
2460.84824	0.18626
2458.91968	0.18709
2456.99111	0.18798
2455.06255	0.18886
2453.13398	0.18980
2451.20542	0.19088
2449.27686	0.19207
2447.34829	0.19325
2445.41973	0.19438
2443.49116	0.19548
2441.56260	0.19650
2439.63403	0.19743
2437.70547	0.19838
2435.77690	0.19934
2433.84834	0.20029
2431.91978	0.20130
2429.99121	0.20241
2428.06265	0.20366
2426.13408	0.20496
2424.20552	0.20614
2422.27695	0.20722
2420.34839	0.20827
2418.41982	0.20928
2416.49126	0.21035
2414.56270	0.21157
2412.63413	0.21288
2410.70557	0.21405
2408.77700	0.21508
2406.84844	0.21610
2404.91987	0.21717
2402.99131	0.21835
2401.06274	0.21966
2399.13418	0.22095
2397.20562	0.22214
2395.27705	0.22330
2393.34849	0.22449
2391.41992	0.22578
2389.49136	0.22717
2387.56279	0.22870
2385.63423	0.23054
2383.70566	0.23290
2381.77710	0.23564
2379.84854	0.23842
2377.91997	0.24138
2375.99141	0.24498
2374.06284	0.24918
2372.13428	0.25353
2370.20571	0.25811
2368.27715	0.26317
2366.34858	0.26845
2364.42002	0.27323
2362.49146	0.27689
2360.56289	0.27924
2358.63433	0.28149
2356.70576	0.28347
2354.77720	0.28212
2352.84863	0.27833
2350.92007	0.27523
2348.99150	0.27404
2347.06294	0.27491
2345.13437	0.27800
2343.20581	0.28259
2341.27725	0.28642
2339.34868	0.28830
2337.42012	0.28891
2335.49155	0.28913
2333.56299	0.28958
2331.63442	0.29079
2329.70586	0.29224
2327.77729	0.29344
2325.84873	0.29442
2323.92017	0.29510
2321.99160	0.29517
2320.06304	0.29477
2318.13447	0.29453
2316.20591	0.29469
2314.27734	0.29552
2312.34878	0.29688
2310.42021	0.29810
2308.49165	0.29901
2306.56309	0.29980
2304.63452	0.30053
2302.70596	0.30155
2300.77739	0.30301
2298.84883	0.30451
2296.92026	0.30597
2294.99170	0.30745
2293.06313	0.30888
2291.13457	0.31028
2289.20601	0.31166
2287.27744	0.31309
2285.34888	0.31462
2283.42031	0.31628
2281.49175	0.31820
2279.56318	0.32037
2277.63462	0.32255
2275.70605	0.32461
2273.77749	0.32660
2271.84893	0.32860
2269.92036	0.33072
2267.99180	0.33290
2266.06323	0.33499
2264.13467	0.33703
2262.20610	0.33911
2260.27754	0.34118
2258.34897	0.34314
2256.42041	0.34507
2254.49185	0.34707
2252.56328	0.34905
2250.63472	0.35101
2248.70615	0.35308
2246.77759	0.35528
2244.84902	0.35756
2242.92046	0.35982
2240.99189	0.36209
2239.06333	0.36434
2237.13477	0.36644
2235.20620	0.36839
2233.27764	0.37044
2231.34907	0.37267
2229.42051	0.37489
2227.49194	0.37701
2225.56338	0.37919
2223.63481	0.38148
2221.70625	0.38369
2219.77769	0.38573
2217.84912	0.38782
2215.92056	0.39004
2213.99199	0.39233
2212.06343	0.39458
2210.13486	0.39671
2208.20630	0.39871
2206.27773	0.40066
2204.34917	0.40277
2202.42061	0.40503
2200.49204	0.40713
2198.56348	0.40896
2196.63491	0.41086
2194.70635	0.41292
2192.77778	0.41494
2190.84922	0.41686
2188.92065	0.41868
2186.99209	0.42052
2185.06353	0.42237
2183.13496	0.42404
2181.20640	0.42561
2179.27783	0.42732
2177.34927	0.42909
2175.42070	0.43069
2173.49214	0.43216
2171.56357	0.43363
2169.63501	0.43509
2167.70645	0.43644
2165.77788	0.43773
2163.84932	0.43899
2161.92075	0.44006
2159.99219	0.44104
2158.06362	0.44209
2156.13506	0.44313
2154.20649	0.44405
2152.27793	0.44494
2150.34937	0.44575
2148.42080	0.44634
2146.49224	0.44697
2144.56367	0.44770
2142.63511	0.44824
2140.70654	0.44858
2138.77798	0.44886
2136.84941	0.44905
2134.92085	0.44917
2132.99229	0.44918
2131.06372	0.44916
2129.13516	0.44910
2127.20659	0.44894
2125.27803	0.44878
2123.34946	0.44855
2121.42090	0.44811
2119.49233	0.44750
2117.56377	0.44691
2115.63521	0.44634
2113.70664	0.44567
2111.77808	0.44483
2109.84951	0.44397
2107.92095	0.44315
2105.99238	0.44217
2104.06382	0.44091
2102.13525	0.43959
2100.20669	0.43845
2098.27812	0.43733
2096.34956	0.43597
2094.42100	0.43445
2092.49243	0.43297
2090.56387	0.43154
2088.63530	0.42997
2086.70674	0.42829
2084.77817	0.42650
2082.84961	0.42461
2080.92104	0.42266
2078.99248	0.42065
2077.06392	0.41863
2075.13535	0.41664
2073.20679	0.41466
2071.27822	0.41261
2069.34966	0.41049
2067.42109	0.40830
2065.49253	0.40599
2063.56396	0.40356
2061.63540	0.40116
2059.70684	0.39872
2057.77827	0.39627
2055.84971	0.39386
2053.92114	0.39140
2051.99258	0.38891
2050.06401	0.38642
2048.13545	0.38390
2046.20688	0.38127
2044.27832	0.37859
2042.34976	0.37594
2040.42119	0.37333
2038.49263	0.37068
2036.56406	0.36798
2034.63550	0.36529
2032.70693	0.36260
2030.77837	0.35992
2028.84980	0.35719
2026.92124	0.35449
2024.99268	0.35189
2023.06411	0.34928
2021.13555	0.34655
2019.20698	0.34379
2017.27842	0.34111
2015.34985	0.33844
2013.42129	0.33571
2011.49272	0.33296
2009.56416	0.33027
2007.63560	0.32769
2005.70703	0.32518
2003.77847	0.32259
2001.84990	0.31982
1999.92134	0.31710
1997.99277	0.31457
1996.06421	0.31218
1994.13564	0.30979
1992.20708	0.30736
1990.27852	0.30487
1988.34995	0.30234
1986.42139	0.29981
1984.49282	0.29735
1982.56426	0.29497
1980.63569	0.29264
1978.70713	0.29044
1976.77856	0.28826
1974.85000	0.28598
1972.92144	0.28371
1970.99287	0.28158
1969.06431	0.27954
1967.13574	0.27754
1965.20718	0.27551
1963.27861	0.27350
1961.35005	0.27157
1959.42148	0.26969
1957.49292	0.26790
1955.56436	0.26619
1953.63579	0.26446
1951.70723	0.26262
1949.77866	0.26084
1947.85010	0.25920
1945.92153	0.25772
1943.99297	0.25644
1942.06440	0.25514
1940.13584	0.25355
1938.20728	0.25196
1936.27871	0.25058
1934.35015	0.24926
1932.42158	0.24794
1930.49302	0.24665
1928.56445	0.24551
1926.63589	0.24450
1924.70732	0.24358
1922.77876	0.24265
1920.85020	0.24163
1918.92163	0.24058
1916.99307	0.23955
1915.06450	0.23857
1913.13594	0.23770
1911.20737	0.23713
1909.27881	0.23670
1907.35024	0.23612
1905.42168	0.23533
1903.49312	0.23460
1901.56455	0.23401
1899.63599	0.23349
1897.70742	0.23302
1895.77886	0.23257
1893.85029	0.23217
1891.92173	0.23180
1889.99316	0.23160
1888.06460	0.23140
1886.13604	0.23103
1884.20747	0.23064
1882.27891	0.23038
1880.35034	0.23030
1878.42178	0.23031
1876.49321	0.23032
1874.56465	0.23027
1872.63608	0.23035
1870.70752	0.23061
1868.77896	0.23114
1866.85039	0.23148
1864.92183	0.23139
1862.99326	0.23135
1861.06470	0.23160
1859.13613	0.23205
1857.20757	0.23239
1855.27900	0.23274
1853.35044	0.23315
1851.42187	0.23355
1849.49331	0.23394
1847.56475	0.23453
1845.63618	0.23540
1843.70762	0.23646
1841.77905	0.23732
1839.85049	0.23783
1837.92192	0.23852
1835.99336	0.23936
1834.06479	0.24022
1832.13623	0.24122
1830.20767	0.24270
1828.27910	0.24419
1826.35054	0.24527
1824.42197	0.24658
1822.49341	0.24788
1820.56484	0.24900
1818.63628	0.25029
1816.70771	0.25190
1814.77915	0.25348
1812.85059	0.25520
1810.92202	0.25725
1808.99346	0.25932
1807.06489	0.26129
1805.13633	0.26320
1803.20776	0.26528
1801.27920	0.26763
1799.35063	0.27034
1797.42207	0.27288
1795.49351	0.27533
1793.56494	0.27816
1791.63638	0.28178
1789.70781	0.28531
1787.77925	0.28795
1785.85068	0.29096
1783.92212	0.29450
1781.99355	0.29833
1780.06499	0.30251
1778.13643	0.30687
1776.20786	0.31084
1774.27930	0.31500
1772.35073	0.32068
1770.42217	0.32693
1768.49360	0.33233
1766.56504	0.33768
1764.63647	0.34312
1762.70791	0.34895
1760.77935	0.35636
1758.85078	0.36335
1756.92222	0.37033
1754.99365	0.37808
1753.06509	0.38513
1751.13652	0.39330
1749.20796	0.40358
1747.27939	0.41398
1745.35083	0.42324
1743.42227	0.43295
1741.49370	0.44344
1739.56514	0.45566
1737.63657	0.46807
1735.70801	0.47900
1733.77944	0.49534
1731.85088	0.51518
1729.92231	0.53085
1727.99375	0.54641
1726.06519	0.56311
1724.13662	0.58142
1722.20806	0.60119
1720.27949	0.61927
1718.35093	0.64025
1716.42236	0.67179
1714.49380	0.70231
1712.56523	0.72692
1710.63667	0.75060
1708.70811	0.77603
1706.77954	0.80477
1704.85098	0.83911
1702.92241	0.86977
1700.99385	0.89990
1699.06528	0.94502
1697.13672	0.98674
1695.20815	1.02926
1693.27959	1.07030
1691.35103	1.10303
1689.42246	1.14058
1687.49390	1.18007
1685.56533	1.21781
1683.63677	1.27598
1681.70820	1.33701
1679.77964	1.37670
1677.85107	1.41443
1675.92251	1.45756
1673.99395	1.51080
1672.06538	1.55800
1670.13682	1.60352
1668.20825	1.66150
1666.27969	1.70810
1664.35112	1.74722
1662.42256	1.79589
1660.49399	1.85027
1658.56543	1.89210
1656.63687	1.92589
1654.70830	1.95776
1652.77974	2.00965
1650.85117	2.06030
1648.92261	2.08132
1646.99404	2.11151
1645.06548	2.14799
1643.13691	2.17018
1641.20835	2.18207
1639.27979	2.19277
1637.35122	2.20052
1635.42266	2.20420
1633.49409	2.20245
1631.56553	2.19324
1629.63696	2.17972
1627.70840	2.15631
1625.77983	2.12831
1623.85127	2.09086
1621.92271	2.04304
1619.99414	2.00067
1618.06558	1.95967
1616.13701	1.90056
1614.20845	1.83992
1612.27988	1.79398
1610.35132	1.74569
1608.42275	1.69287
1606.49419	1.64102
1604.56562	1.59305
1602.63706	1.54580
1600.70850	1.49888
1598.77993	1.45545
1596.85137	1.41473
1594.92280	1.37531
1592.99424	1.33713
1591.06567	1.30162
1589.13711	1.26745
1587.20854	1.23509
1585.27998	1.20534
1583.35142	1.17735
1581.42285	1.15082
1579.49429	1.12741
1577.56572	1.10585
1575.63716	1.07913
1573.70859	1.05593
1571.78003	1.04093
1569.85146	1.02426
1567.92290	1.00501
1565.99434	0.99013
1564.06577	0.97776
1562.13721	0.96743
1560.20864	0.95867
1558.28008	0.94344
1556.35151	0.92950
1554.42295	0.92104
1552.49438	0.91266
1550.56582	0.90398
1548.63726	0.89458
1546.70869	0.88587
1544.78013	0.87740
1542.85156	0.86797
1540.92300	0.85620
1538.99443	0.83981
1537.06587	0.82831
1535.13730	0.82075
1533.20874	0.81072
1531.28018	0.79967
1529.35161	0.79160
1527.42305	0.78403
1525.49448	0.77592
1523.56592	0.76856
1521.63735	0.76115
1519.70879	0.75331
1517.78022	0.74677
1515.85166	0.74007
1513.92310	0.73342
1511.99453	0.72781
1510.06597	0.72290
1508.13740	0.71828
1506.20884	0.71087
1504.28027	0.70392
1502.35171	0.69971
1500.42314	0.69588
1498.49458	0.69187
1496.56602	0.68762
1494.63745	0.68363
1492.70889	0.68046
1490.78032	0.67774
1488.85176	0.67465
1486.92319	0.67134
1484.99463	0.66831
1483.06606	0.66584
1481.13750	0.66381
1479.20894	0.66198
1477.28037	0.66028
1475.35181	0.65867
1473.42324	0.65715
1471.49468	0.65512
1469.56611	0.65264
1467.63755	0.65030
1465.70898	0.64815
1463.78042	0.64589
1461.85186	0.64379
1459.92329	0.64217
1457.99473	0.64041
1456.06616	0.63757
1454.13760	0.63458
1452.20903	0.63215
1450.28047	0.62980
1448.35190	0.62742
1446.42334	0.62500
1444.49478	0.62267
1442.56621	0.62045
1440.63765	0.61837
1438.70908	0.61647
1436.78052	0.61430
1434.85195	0.61199
1432.92339	0.61011
1430.99482	0.60853
1429.06626	0.60694
1427.13770	0.60548
1425.20913	0.60438
1423.28057	0.60353
1421.35200	0.60278
1419.42344	0.60201
1417.49487	0.60069
1415.56631	0.59883
1413.63774	0.59728
1411.70918	0.59613
1409.78062	0.59519
1407.85205	0.59435
1405.92349	0.59367
1403.99492	0.59297
1402.06636	0.59194
1400.13779	0.59074
1398.20923	0.58951
1396.28066	0.58806
1394.35210	0.58615
1392.42354	0.58401
1390.49497	0.58206
1388.56641	0.58027
1386.63784	0.57830
1384.70928	0.57615
1382.78071	0.57420
1380.85215	0.57246
1378.92358	0.57085
1376.99502	0.56947
1375.06646	0.56837
1373.13789	0.56734
1371.20933	0.56636
1369.28076	0.56550
1367.35220	0.56458
1365.42363	0.56349
1363.49507	0.56237
1361.56650	0.56139
1359.63794	0.56044
1357.70937	0.55948
1355.78081	0.55864
1353.85225	0.55783
1351.92368	0.55696
1349.99512	0.55605
1348.06655	0.55514
1346.13799	0.55428
1344.20942	0.55350
1342.28086	0.55275
1340.35229	0.55203
1338.42373	0.55121
1336.49517	0.55031
1334.56660	0.54951
1332.63804	0.54877
1330.70947	0.54812
1328.78091	0.54770
1326.85234	0.54732
1324.92378	0.54682
1322.99521	0.54638
1321.06665	0.54600
1319.13809	0.54560
1317.20952	0.54511
1315.28096	0.54450
1313.35239	0.54378
1311.42383	0.54302
1309.49526	0.54218
1307.56670	0.54134
1305.63813	0.54068
1303.70957	0.54011
1301.78101	0.53941
1299.85244	0.53862
1297.92388	0.53784
1295.99531	0.53704
1294.06675	0.53621
1292.13818	0.53540
1290.20962	0.53465
1288.28105	0.53404
1286.35249	0.53351
1284.42393	0.53293
1282.49536	0.53229
1280.56680	0.53166
1278.63823	0.53104
1276.70967	0.53042
1274.78110	0.52981
1272.85254	0.52924
1270.92397	0.52885
1268.99541	0.52858
1267.06685	0.52828
1265.13828	0.52777
1263.20972	0.52708
1261.28115	0.52638
1259.35259	0.52584
1257.42402	0.52544
1255.49546	0.52513
1253.56689	0.52493
1251.63833	0.52475
1249.70977	0.52452
1247.78120	0.52426
1245.85264	0.52408
1243.92407	0.52381
1241.99551	0.52336
1240.06694	0.52281
1238.13838	0.52213
1236.20981	0.52127
1234.28125	0.52025
1232.35269	0.51926
1230.42412	0.51840
1228.49556	0.51757
1226.56699	0.51660
1224.63843	0.51564
1222.70986	0.51488
1220.78130	0.51428
1218.85273	0.51365
1216.92417	0.51292
1214.99561	0.51212
1213.06704	0.51133
1211.13848	0.51071
1209.20991	0.51021
1207.28135	0.50968
1205.35278	0.50908
1203.42422	0.50847
1201.49565	0.50790
1199.56709	0.50737
1197.63853	0.50681
1195.70996	0.50640
1193.78140	0.50612
1191.85283	0.50563
1189.92427	0.50504
1187.99570	0.50469
1186.06714	0.50458
1184.13857	0.50467
1182.21001	0.50494
1180.28145	0.50533
1178.35288	0.50581
1176.42432	0.50643
1174.49575	0.50711
1172.56719	0.50770
1170.63862	0.50823
1168.71006	0.50878
1166.78149	0.50917
1164.85293	0.50928
1162.92437	0.50934
1160.99580	0.50935
1159.06724	0.50916
1157.13867	0.50869
1155.21011	0.50794
1153.28154	0.50675
1151.35298	0.50509
1149.42441	0.50320
1147.49585	0.50118
1145.56729	0.49891
1143.63872	0.49637
1141.71016	0.49390
1139.78159	0.49176
1137.85303	0.48977
1135.92446	0.48784
1133.99590	0.48611
1132.06733	0.48457
1130.13877	0.48312
1128.21021	0.48184
1126.28164	0.48077
1124.35308	0.47984
1122.42451	0.47921
1120.49595	0.47902
1118.56738	0.47879
1116.63882	0.47816
1114.71025	0.47763
1112.78169	0.47769
1110.85312	0.47823
1108.92456	0.47892
1106.99600	0.47951
1105.06743	0.48023
1103.13887	0.48154
1101.21030	0.48356
1099.28174	0.48591
1097.35317	0.48828
1095.42461	0.49092
1093.49604	0.49430
1091.56748	0.49850
1089.63892	0.50337
1087.71035	0.50903
1085.78179	0.51538
1083.85322	0.52210
1081.92466	0.52868
1079.99609	0.53432
1078.06753	0.53794
1076.13896	0.53901
1074.21040	0.53748
1072.28184	0.53337
1070.35327	0.52728
1068.42471	0.52044
1066.49614	0.51372
1064.56758	0.50746
1062.63901	0.50188
1060.71045	0.49694
1058.78188	0.49247
1056.85332	0.48864
1054.92476	0.48546
1052.99619	0.48271
1051.06763	0.48035
1049.13906	0.47835
1047.21050	0.47664
1045.28193	0.47544
1043.35337	0.47472
1041.42480	0.47409
1039.49624	0.47349
1037.56768	0.47301
1035.63911	0.47254
1033.71055	0.47219
1031.78198	0.47203
1029.85342	0.47189
1027.92485	0.47181
1025.99629	0.47192
1024.06772	0.47205
1022.13916	0.47237
1020.21060	0.47308
1018.28203	0.47380
1016.35347	0.47447
1014.42490	0.47534
1012.49634	0.47637
1010.56777	0.47747
1008.63921	0.47867
1006.71064	0.48000
1004.78208	0.48171
1002.85352	0.48387
1000.92495	0.48641
998.99639	0.48945
997.06782	0.49309
995.13926	0.49707
993.21069	0.50092
991.28213	0.50416
989.35356	0.50651
987.42500	0.50802
985.49644	0.50893
983.56787	0.50951
981.63931	0.51027
979.71074	0.51164
977.78218	0.51364
975.85361	0.51606
973.92505	0.51877
971.99648	0.52188
970.06792	0.52532
968.13936	0.52911
966.21079	0.53328
964.28223	0.53762
962.35366	0.54220
960.42510	0.54739
958.49653	0.55308
956.56797	0.55862
954.63940	0.56410
952.71084	0.57019
950.78228	0.57656
948.85371	0.58265
946.92515	0.58877
944.99658	0.59496
943.06802	0.60092
941.13945	0.60689
939.21089	0.61288
937.28232	0.61848
935.35376	0.62366
933.42520	0.62871
931.49663	0.63397
929.56807	0.63953
927.63950	0.64534
925.71094	0.65151
923.78237	0.65773
921.85381	0.66407
919.92524	0.67063
917.99668	0.67696
916.06812	0.68329
914.13955	0.69035
912.21099	0.69814
910.28242	0.70637
908.35386	0.71501
906.42529	0.72374
904.49673	0.73240
902.56816	0.74101
900.63960	0.74936
898.71104	0.75796
896.78247	0.76752
894.85391	0.77766
892.92534	0.78747
890.99678	0.79693
889.06821	0.80663
887.13965	0.81690
885.21108	0.82779
883.28252	0.83902
881.35396	0.85066
879.42539	0.86249
877.49683	0.87384
875.56826	0.88482
873.63970	0.89573
871.71113	0.90631
869.78257	0.91677
867.85400	0.92799
865.92544	0.93974
863.99687	0.95174
862.06831	0.96438
860.13975	0.97704
858.21118	0.98824
856.28262	0.99797
854.35405	1.00784
852.42549	1.01864
850.49692	1.03106
848.56836	1.04468
846.63979	1.05705
844.71123	1.06731
842.78267	1.07645
840.85410	1.08590
838.92554	1.09573
836.99697	1.10585
835.06841	1.11645
833.13984	1.12621
831.21128	1.13542
829.28271	1.14652
827.35415	1.15991
825.42559	1.17133
823.49702	1.17732
821.56846	1.18263
819.63989	1.19367
817.71133	1.21133
815.78276	1.23251
813.85420	1.25080
811.92563	1.26462
809.99707	1.27583
808.06851	1.28536
806.13994	1.29230
804.21138	1.28769
802.28281	1.28338
800.35425	1.29828
798.42568	1.31576
796.49712	1.31402
794.56855	1.32052
792.63999	1.33668
790.71143	1.31457
788.78286	1.28417
786.85430	1.28327
784.92573	1.29603
782.99717	1.31656
781.06860	1.37620
779.14004	1.48033
777.21147	1.53459
775.28291	1.51504
773.35435	1.49851
771.42578	1.47606
769.49722	1.39899
767.56865	1.33861
765.64009	1.34078
763.71152	1.36581
761.78296	1.40692
759.85439	1.44943
757.92583	1.45080
755.99727	1.45539
754.06870	1.47747
752.14014	1.41741
750.21157	1.34116
748.28301	1.25791
746.35444	1.12005
744.42588	1.07322
742.49731	1.23811
740.56875	1.73566
738.64019	1.62840
736.71162	1.13448
734.78306	0.87764
732.85449	0.76621
730.92593	0.73109
728.99736	0.69692
727.06880	0.66820
725.14023	0.54967
723.21167	0.39820
721.28311	0.39636
719.35454	0.44904
717.42598	0.36321
715.49741	0.25032
713.56885	0.16201
711.64028	0.19438
709.71172	0.43015
707.78315	4.24670
705.85459	4.23513
703.92603	4.22356
701.99746	0.74481
700.06890	0.54157
698.14033	0.40183
696.21177	0.33563
694.28320	0.33423
692.35464	0.33082
690.42607	0.35152
688.49751	0.43909
686.56895	0.45216
684.64038	0.40830
682.71182	0.39592
680.78325	0.32595
678.85469	0.21657
676.92612	0.21745
674.99756	0.34223
673.06899	0.46123
671.14043	0.41832
669.21187	0.30143
667.28330	0.20271
665.35474	0.18525
663.42617	0.25574
661.49761	0.31776
659.56904	0.38257
657.64048	0.52644
655.71191	0.75168
653.78335	0.86935
651.85479	0.52836
649.92622	0.33697
647.99766	0.33163
646.06909	0.44662
644.14053	0.52917
642.21196	0.40079
640.28340	0.26360
638.35483	0.23863
636.42627	0.30757
634.49771	0.33143
632.56914	0.24040
630.64058	0.21801
628.71201	0.29839
626.78345	0.40607
624.85488	0.52333
622.92632	0.50385
620.99775	0.42258
619.06919	0.42320
617.14062	0.43044
615.21206	0.37412
613.28350	0.30804
611.35493	0.28491
609.42637	0.26538
607.49780	0.22827
605.56924	0.25006
603.64067	0.32975
601.71211	0.34678
599.78354	0.26684
597.85498	0.24034
595.92642	0.33814
593.99785	0.44983
592.06929	0.33188
590.14072	0.28881
588.21216	0.43200
586.28359	0.48148
584.35503	0.31266
582.42646	0.29966
580.49790	0.47894
578.56934	0.74780
576.64077	0.60938
574.71221	0.39611
572.78364	0.27357
570.85508	0.23092
568.92651	0.22537
566.99795	0.16935
565.06938	0.09907
563.14082	0.10863
561.21226	0.21273
559.28369	0.33382
557.35513	0.38901
555.42656	0.45506
553.49800	0.51288
551.56943	0.39351
549.64087	0.32378
547.71230	0.31993
545.78374	0.33903
543.85518	0.45984
541.92661	1.08685
539.99805	0.81036
538.06948	0.34077
536.14092	0.23925
534.21235	0.25563
532.28379	0.27991
530.35522	0.27374
528.42666	0.31277
526.49810	0.37969
524.56953	0.35431
522.64097	0.28321
520.71240	0.23189
518.78384	0.24584
516.85527	0.30295
514.92671	0.35942
512.99814	0.46205
511.06958	0.45962
509.14102	0.28349
507.21245	0.20827
505.28389	0.24901
503.35532	0.36636
501.42676	0.45592
499.49819	0.32618
