3997.91411	0.06891
3995.98555	0.06963
3994.05698	0.07009
3992.12842	0.07023
3990.19985	0.07065
3988.27129	0.07129
3986.34272	0.07155
3984.41416	0.07156
3982.48560	0.07188
3980.55703	0.07265
3978.62847	0.07322
3976.69990	0.07321
3974.77134	0.07309
3972.84277	0.07345
3970.91421	0.07402
3968.98564	0.07409
3967.05708	0.07361
3965.12852	0.07344
3963.19995	0.07415
3961.27139	0.07509
3959.34282	0.07556
3957.41426	0.07564
3955.48569	0.07554
3953.55713	0.07535
3951.62856	0.07525
3949.70000	0.07529
3947.77144	0.07546
3945.84287	0.07535
3943.91431	0.07512
3941.98574	0.07539
3940.05718	0.07538
3938.12861	0.07487
3936.20005	0.07476
3934.27148	0.07514
3932.34292	0.07609
3930.41436	0.07716
3928.48579	0.07704
3926.55723	0.07617
3924.62866	0.07575
3922.70010	0.07556
3920.77153	0.07532
3918.84297	0.07551
3916.91440	0.07619
3914.98584	0.07661
3913.05728	0.07595
3911.12871	0.07483
3909.20015	0.07430
3907.27158	0.07460
3905.34302	0.07570
3903.41445	0.07750
3901.48589	0.07884
3899.55732	0.07890
3897.62876	0.07791
3895.70020	0.07622
3893.77163	0.07487
3891.84307	0.07477
3889.91450	0.07546
3887.98594	0.07579
3886.05737	0.07645
3884.12881	0.07751
3882.20024	0.07778
3880.27168	0.07774
3878.34312	0.07727
3876.41455	0.07636
3874.48599	0.07640
3872.55742	0.07750
3870.62886	0.07893
3868.70029	0.08009
3866.77173	0.07997
3864.84316	0.07959
3862.91460	0.07990
3860.98604	0.07995
3859.05747	0.07966
3857.12891	0.07989
3855.20034	0.08120
3853.27178	0.08409
3851.34321	0.08608
3849.41465	0.08440
3847.48608	0.08227
3845.55752	0.08154
3843.62896	0.08239
3841.70039	0.08401
3839.77183	0.08562
3837.84326	0.08726
3835.91470	0.08785
3833.98613	0.08729
3832.05757	0.08726
3830.12900	0.08789
3828.20044	0.08870
3826.27187	0.08994
3824.34331	0.09134
3822.41475	0.09296
3820.48618	0.09536
3818.55762	0.09606
3816.62905	0.09503
3814.70049	0.09443
3812.77192	0.09386
3810.84336	0.09354
3808.91479	0.09437
3806.98623	0.09672
3805.05767	0.09931
3803.12910	0.10108
3801.20054	0.10332
3799.27197	0.10488
3797.34341	0.10485
3795.41484	0.10516
3793.48628	0.10557
3791.55771	0.10598
3789.62915	0.10685
3787.70059	0.10787
3785.77202	0.10923
3783.84346	0.11105
3781.91489	0.11263
3779.98633	0.11412
3778.05776	0.11597
3776.12920	0.11746
3774.20063	0.11890
3772.27207	0.12077
3770.34351	0.12291
3768.41494	0.12514
3766.48638	0.12714
3764.55781	0.12923
3762.62925	0.13141
3760.70068	0.13375
3758.77212	0.13675
3756.84355	0.13940
3754.91499	0.14103
3752.98643	0.14350
3751.05786	0.14853
3749.12930	0.15438
3747.20073	0.15695
3745.27217	0.15875
3743.34360	0.16371
3741.41504	0.16939
3739.48647	0.17336
3737.55791	0.17864
3735.62935	0.18734
3733.70078	0.19668
3731.77222	0.20255
3729.84365	0.20725
3727.91509	0.21230
3725.98652	0.21806
3724.05796	0.22367
3722.12939	0.22818
3720.20083	0.23248
3718.27227	0.23651
3716.34370	0.24033
3714.41514	0.24537
3712.48657	0.25484
3710.55801	0.27199
3708.62944	0.29015
3706.70088	0.30209
3704.77231	0.31227
3702.84375	0.32488
3700.91519	0.34147
3698.98662	0.35933
3697.05806	0.37618
3695.12949	0.39411
3693.20093	0.41339
3691.27236	0.43443
3689.34380	0.46094
3687.41523	0.49341
3685.48667	0.52319
3683.55811	0.54926
3681.62954	0.57676
3679.70098	0.60773
3677.77241	0.64023
3675.84385	0.67849
3673.91528	0.73067
3671.98672	0.77393
3670.05815	0.81247
3668.12959	0.86516
3666.20103	0.91316
3664.27246	0.95353
3662.34390	0.99708
3660.41533	1.04404
3658.48677	1.09001
3656.55820	1.13869
3654.62964	1.19358
3652.70107	1.24060
3650.77251	1.28250
3648.84395	1.34067
3646.91538	1.41045
3644.98682	1.45984
3643.05825	1.49782
3641.12969	1.53810
3639.20112	1.58310
3637.27256	1.62839
3635.34399	1.67325
3633.41543	1.71890
3631.48687	1.76147
3629.55830	1.80402
3627.62974	1.85983
3625.70117	1.91172
3623.77261	1.94477
3621.84404	1.97513
3619.91548	2.01102
3617.98691	2.05609
3616.05835	2.09983
3614.12979	2.13584
3612.20122	2.17373
3610.27266	2.21265
3608.34409	2.25274
3606.41553	2.29647
3604.48696	2.33725
3602.55840	2.37317
3600.62983	2.41160
3598.70127	2.45313
3596.77271	2.49335
3594.84414	2.53366
3592.91558	2.57443
3590.98701	2.61258
3589.05845	2.64870
3587.12988	2.69160
3585.20132	2.73870
3583.27275	2.77924
3581.34419	2.81640
3579.41562	2.85516
3577.48706	2.89696
3575.55850	2.94065
3573.62993	2.98458
3571.70137	3.02587
3569.77280	3.06500
3567.84424	3.10801
3565.91567	3.16359
3563.98711	3.21671
3562.05854	3.25560
3560.12998	3.29354
3558.20142	3.33619
3556.27285	3.38006
3554.34429	3.42216
3552.41572	3.46560
3550.48716	3.51159
3548.55859	3.55816
3546.63003	3.60530
3544.70146	3.65535
3542.77290	3.70734
3540.84434	3.75659
3538.91577	3.80177
3536.98721	3.84498
3535.05864	3.88979
3533.13008	3.93445
3531.20151	3.97962
3529.27295	4.02816
3527.34438	4.07868
3525.41582	4.12656
3523.48726	4.17293
3521.55869	4.22525
3519.63013	4.28023
3517.70156	4.33130
3515.77300	4.37954
3513.84443	4.42636
3511.91587	4.46977
3509.98730	4.51151
3508.05874	4.55696
3506.13018	4.60573
3504.20161	4.65199
3502.27305	4.69716
3500.34448	4.74607
3498.41592	4.79600
3496.48735	4.84607
3494.55879	4.89564
3492.63022	4.94488
3490.70166	4.99662
3488.77310	5.04575
3486.84453	5.08963
3484.91597	5.13512
3482.98740	5.18335
3481.05884	5.23605
3479.13027	5.29070
3477.20171	5.33679
3475.27314	5.38164
3473.34458	5.43465
3471.41602	5.49021
3469.48745	5.54201
3467.55889	5.58549
3465.63032	5.62540
3463.70176	5.67115
3461.77319	5.72252
3459.84463	5.77869
3457.91606	5.83285
3455.98750	5.88180
3454.05894	5.92647
3452.13037	5.96668
3450.20181	6.00834
3448.27324	6.04862
3446.34468	6.08438
3444.41611	6.12437
3442.48755	6.18392
3440.55898	6.24819
3438.63042	6.28634
3436.70186	6.30906
3434.77329	6.34437
3432.84473	6.40134
3430.91616	6.47342
3428.98760	6.53871
3427.05903	6.58192
3425.13047	6.62279
3423.20190	6.67251
3421.27334	6.73786
3419.34478	6.80967
3417.41621	6.86015
3415.48765	6.89803
3413.55908	6.92910
3411.63052	6.94929
3409.70195	6.98670
3407.77339	7.05934
3405.84482	7.10885
3403.91626	7.11385
3401.98770	7.13019
3400.05913	7.17817
3398.13057	7.23601
3396.20200	7.29367
3394.27344	7.33737
3392.34487	7.35072
3390.41631	7.37272
3388.48774	7.41642
3386.55918	7.48438
3384.63062	7.56272
3382.70205	7.61430
3380.77349	7.63574
3378.84492	7.60459
3376.91636	7.55543
3374.98779	7.58251
3373.05923	7.67958
3371.13066	7.74388
3369.20210	7.78358
3367.27354	7.83383
3365.34497	7.85460
3363.41641	7.83871
3361.48784	7.83575
3359.55928	7.86922
3357.63071	7.88782
3355.70215	7.89727
3353.77358	7.91983
3351.84502	7.94205
3349.91646	7.95262
3347.98789	7.95266
3346.05933	7.95714
3344.13076	7.99829
3342.20220	8.09065
3340.27363	8.16693
3338.34507	8.15384
3336.41650	8.07205
3334.48794	8.00698
3332.55937	7.96637
3330.63081	7.94790
3328.70225	7.96472
3326.77368	7.99724
3324.84512	8.03917
3322.91655	8.08297
3320.98799	8.09688
3319.05942	8.06032
3317.13086	8.02142
3315.20229	7.99495
3313.27373	7.98959
3311.34517	8.00442
3309.41660	8.01214
3307.48804	8.02660
3305.55947	8.05371
3303.63091	8.09018
3301.70234	8.09475
3299.77378	8.09638
3297.84521	8.18036
3295.91665	8.25969
3293.98809	8.19684
3292.05952	8.12304
3290.13096	8.18331
3288.20239	8.27556
3286.27383	8.27054
3284.34526	8.26636
3282.41670	8.30055
3280.48813	8.24512
3278.55957	8.16072
3276.63101	8.15458
3274.70244	8.20391
3272.77388	8.24033
3270.84531	8.24212
3268.91675	8.27121
3266.98818	8.32034
3265.05962	8.33108
3263.13105	8.27750
3261.20249	8.16300
3259.27393	8.05458
3257.34536	8.03512
3255.41680	8.06749
3253.48823	8.07691
3251.55967	8.07414
3249.63110	8.10087
3247.70254	8.17668
3245.77397	8.20077
3243.84541	8.11207
3241.91685	8.04053
3239.98828	8.05473
3238.05972	8.12176
3236.13115	8.18178
3234.20259	8.15303
3232.27402	8.10675
3230.34546	8.12150
3228.41689	8.09430
3226.48833	8.01787
3224.55977	7.96697
3222.63120	7.94504
3220.70264	7.92321
3218.77407	7.87605
3216.84551	7.83529
3214.91694	7.84224
3212.98838	7.88555
3211.05981	7.91175
3209.13125	7.87918
3207.20269	7.82594
3205.27412	7.80006
3203.34556	7.76990
3201.41699	7.71498
3199.48843	7.66772
3197.55986	7.64313
3195.63130	7.60289
3193.70273	7.52726
3191.77417	7.47867
3189.84561	7.47475
3187.91704	7.44876
3185.98848	7.38729
3184.05991	7.33638
3182.13135	7.30422
3180.20278	7.27407
3178.27422	7.22794
3176.34565	7.14951
3174.41709	7.04959
3172.48853	6.97500
3170.55996	6.95421
3168.63140	6.94404
3166.70283	6.88186
3164.77427	6.78517
3162.84570	6.70887
3160.91714	6.65719
3158.98857	6.60874
3157.06001	6.54203
3155.13145	6.44834
3153.20288	6.35117
3151.27432	6.28006
3149.34575	6.23414
3147.41719	6.18469
3145.48862	6.11632
3143.56006	6.03225
3141.63149	5.95099
3139.70293	5.89614
3137.77437	5.84975
3135.84580	5.78399
3133.91724	5.71365
3131.98867	5.64619
3130.06011	5.57456
3128.13154	5.50482
3126.20298	5.43312
3124.27441	5.35675
3122.34585	5.28434
3120.41729	5.21925
3118.48872	5.15499
3116.56016	5.08255
3114.63159	5.00522
3112.70303	4.93293
3110.77446	4.86606
3108.84590	4.80031
3106.91733	4.73359
3104.98877	4.66718
3103.06021	4.60292
3101.13164	4.53624
3099.20308	4.46601
3097.27451	4.39730
3095.34595	4.33282
3093.41738	4.27059
3091.48882	4.20670
3089.56025	4.14248
3087.63169	4.07942
3085.70312	4.01614
3083.77456	3.95395
3081.84600	3.89600
3079.91743	3.84084
3077.98887	3.78322
3076.06030	3.72263
3074.13174	3.66326
3072.20317	3.60700
3070.27461	3.55130
3068.34604	3.49370
3066.41748	3.43607
3064.48892	3.38232
3062.56035	3.33100
3060.63179	3.27775
3058.70322	3.22325
3056.77466	3.16920
3054.84609	3.11588
3052.91753	3.06418
3050.98896	3.01330
3049.06040	2.96268
3047.13184	2.91322
3045.20327	2.86415
3043.27471	2.81597
3041.34614	2.76986
3039.41758	2.72408
3037.48901	2.67791
3035.56045	2.63241
3033.63188	2.58764
3031.70332	2.54276
3029.77476	2.49811
3027.84619	2.45536
3025.91763	2.41369
3023.98906	2.37163
3022.06050	2.33050
3020.13193	2.29056
3018.20337	2.25026
3016.27480	2.20990
3014.34624	2.17097
3012.41768	2.13370
3010.48911	2.09755
3008.56055	2.06183
3006.63198	2.02543
3004.70342	1.98860
3002.77485	1.95305
3000.84629	1.91914
2998.91772	1.88646
2996.98916	1.85511
2995.06060	1.82420
2993.13203	1.79293
2991.20347	1.76219
2989.27490	1.73236
2987.34634	1.70289
2985.41777	1.67381
2983.48921	1.64557
2981.56064	1.61849
2979.63208	1.59240
2977.70352	1.56699
2975.77495	1.54186
2973.84639	1.51656
2971.91782	1.49138
2969.98926	1.46671
2968.06069	1.44267
2966.13213	1.41908
2964.20356	1.39553
2962.27500	1.37210
2960.34644	1.34906
2958.41787	1.32655
2956.48931	1.30424
2954.56074	1.28138
2952.63218	1.25794
2950.70361	1.23487
2948.77505	1.21276
2946.84648	1.19182
2944.91792	1.17199
2942.98936	1.15258
2941.06079	1.13299
2939.13223	1.11332
2937.20366	1.09387
2935.27510	1.07474
2933.34653	1.05619
2931.41797	1.03835
2929.48940	1.02045
2927.56084	1.00186
2925.63228	0.98334
2923.70371	0.96591
2921.77515	0.94917
2919.84658	0.93238
2917.91802	0.91547
2915.98945	0.89831
2914.06089	0.88114
2912.13232	0.86468
2910.20376	0.84926
2908.27520	0.83449
2906.34663	0.81991
2904.41807	0.80550
2902.48950	0.79134
2900.56094	0.77749
2898.63237	0.76419
2896.70381	0.75144
2894.77524	0.73906
2892.84668	0.72697
2890.91812	0.71512
2888.98955	0.70359
2887.06099	0.69242
2885.13242	0.68166
2883.20386	0.67128
2881.27529	0.66139
2879.34673	0.65191
2877.41816	0.64242
2875.48960	0.63271
2873.56104	0.62276
2871.63247	0.61248
2869.70391	0.60193
2867.77534	0.59120
2865.84678	0.58015
2863.91821	0.56904
2861.98965	0.55837
2860.06108	0.54819
2858.13252	0.53850
2856.20396	0.52935
2854.27539	0.52054
2852.34683	0.51175
2850.41826	0.50294
2848.48970	0.49445
2846.56113	0.48643
2844.63257	0.47862
2842.70400	0.47108
2840.77544	0.46402
2838.84687	0.45738
2836.91831	0.45110
2834.98975	0.44490
2833.06118	0.43860
2831.13262	0.43242
2829.20405	0.42639
2827.27549	0.42034
2825.34692	0.41420
2823.41836	0.40815
2821.48979	0.40246
2819.56123	0.39702
2817.63267	0.39133
2815.70410	0.38547
2813.77554	0.37984
2811.84697	0.37438
2809.91841	0.36893
2807.98984	0.36364
2806.06128	0.35850
2804.13271	0.35335
2802.20415	0.34834
2800.27559	0.34352
2798.34702	0.33880
2796.41846	0.33411
2794.48989	0.32937
2792.56133	0.32468
2790.63276	0.32012
2788.70420	0.31560
2786.77563	0.31125
2784.84707	0.30719
2782.91851	0.30322
2780.98994	0.29931
2779.06138	0.29557
2777.13281	0.29177
2775.20425	0.28786
2773.27568	0.28415
2771.34712	0.28064
2769.41855	0.27712
2767.48999	0.27352
2765.56143	0.26987
2763.63286	0.26636
2761.70430	0.26311
2759.77573	0.26003
2757.84717	0.25695
2755.91860	0.25391
2753.99004	0.25091
2752.06147	0.24793
2750.13291	0.24491
2748.20435	0.24190
2746.27578	0.23900
2744.34722	0.23638
2742.41865	0.23404
2740.49009	0.23165
2738.56152	0.22901
2736.63296	0.22628
2734.70439	0.22372
2732.77583	0.22135
2730.84727	0.21907
2728.91870	0.21695
2726.99014	0.21492
2725.06157	0.21283
2723.13301	0.21071
2721.20444	0.20865
2719.27588	0.20658
2717.34731	0.20459
2715.41875	0.20267
2713.49019	0.20069
2711.56162	0.19871
2709.63306	0.19692
2707.70449	0.19538
2705.77593	0.19404
2703.84736	0.19265
2701.91880	0.19100
2699.99023	0.18925
2698.06167	0.18763
2696.13311	0.18618
2694.20454	0.18487
2692.27598	0.18373
2690.34741	0.18259
2688.41885	0.18124
2686.49028	0.17975
2684.56172	0.17836
2682.63315	0.17716
2680.70459	0.17615
2678.77603	0.17521
2676.84746	0.17412
2674.91890	0.17290
2672.99033	0.17165
2671.06177	0.17047
2669.13320	0.16944
2667.20464	0.16850
2665.27607	0.16754
2663.34751	0.16665
2661.41895	0.16582
2659.49038	0.16489
2657.56182	0.16398
2655.63325	0.16326
2653.70469	0.16262
2651.77612	0.16188
2649.84756	0.16107
2647.91899	0.16034
2645.99043	0.15966
2644.06187	0.15904
2642.13330	0.15850
2640.20474	0.15799
2638.27617	0.15749
2636.34761	0.15701
2634.41904	0.15650
2632.49048	0.15596
2630.56191	0.15564
2628.63335	0.15546
2626.70479	0.15503
2624.77622	0.15441
2622.84766	0.15402
2620.91909	0.15391
2618.99053	0.15385
2617.06196	0.15372
2615.13340	0.15349
2613.20483	0.15316
2611.27627	0.15282
2609.34771	0.15258
2607.41914	0.15247
2605.49058	0.15241
2603.56201	0.15243
2601.63345	0.15250
2599.70488	0.15243
2597.77632	0.15222
2595.84775	0.15217
2593.91919	0.15234
2591.99062	0.15255
2590.06206	0.15266
2588.13350	0.15274
2586.20493	0.15280
2584.27637	0.15285
2582.34780	0.15300
2580.41924	0.15330
2578.49067	0.15363
2576.56211	0.15393
2574.63354	0.15427
2572.70498	0.15464
2570.77642	0.15492
2568.84785	0.15515
2566.91929	0.15544
2564.99072	0.15576
2563.06216	0.15606
2561.13359	0.15639
2559.20503	0.15681
2557.27646	0.15725
2555.34790	0.15769
2553.41934	0.15816
2551.49077	0.15868
2549.56221	0.15927
2547.63364	0.15984
2545.70508	0.16037
2543.77651	0.16097
2541.84795	0.16164
2539.91938	0.16225
2537.99082	0.16280
2536.06226	0.16334
2534.13369	0.16391
2532.20513	0.16456
2530.27656	0.16529
2528.34800	0.16603
2526.41943	0.16673
2524.49087	0.16733
2522.56230	0.16790
2520.63374	0.16854
2518.70518	0.16925
2516.77661	0.17001
2514.84805	0.17081
2512.91948	0.17158
2510.99092	0.17242
2509.06235	0.17328
2507.13379	0.17408
2505.20522	0.17491
2503.27666	0.17562
2501.34810	0.17622
2499.41953	0.17696
2497.49097	0.17785
2495.56240	0.17870
2493.63384	0.17945
2491.70527	0.18019
2489.77671	0.18104
2487.84814	0.18198
2485.91958	0.18290
2483.99102	0.18373
2482.06245	0.18453
2480.13389	0.18530
2478.20532	0.18600
2476.27676	0.18669
2474.34819	0.18760
2472.41963	0.18875
2470.49106	0.18983
2468.56250	0.19057
2466.63394	0.19118
2464.70537	0.19201
2462.77681	0.19293
2460.84824	0.19376
2458.91968	0.19462
2456.99111	0.19557
2455.06255	0.19645
2453.13398	0.19731
2451.20542	0.19825
2449.27686	0.19931
2447.34829	0.20033
2445.41973	0.20127
2443.49116	0.20232
2441.56260	0.20333
2439.63403	0.20423
2437.70547	0.20527
2435.77690	0.20633
2433.84834	0.20712
2431.91978	0.20791
2429.99121	0.20904
2428.06265	0.21035
2426.13408	0.21152
2424.20552	0.21260
2422.27695	0.21370
2420.34839	0.21472
2418.41982	0.21564
2416.49126	0.21660
2414.56270	0.21769
2412.63413	0.21883
2410.70557	0.21991
2408.77700	0.22095
2406.84844	0.22202
2404.91987	0.22318
2402.99131	0.22439
2401.06274	0.22561
2399.13418	0.22688
2397.20562	0.22814
2395.27705	0.22935
2393.34849	0.23058
2391.41992	0.23202
2389.49136	0.23390
2387.56279	0.23668
2385.63423	0.24110
2383.70566	0.24800
2381.77710	0.25754
2379.84854	0.26915
2377.91997	0.28254
2375.99141	0.29811
2374.06284	0.31616
2372.13428	0.33678
2370.20571	0.35976
2368.27715	0.38362
2366.34858	0.40617
2364.42002	0.42578
2362.49146	0.44082
2360.56289	0.44902
2358.63433	0.44868
2356.70576	0.43942
2354.77720	0.42228
2352.84863	0.39955
2350.92007	0.37622
2348.99150	0.36238
2347.06294	0.36284
2345.13437	0.37785
2343.20581	0.39972
2341.27725	0.41196
2339.34868	0.41248
2337.42012	0.40955
2335.49155	0.40720
2333.56299	0.40476
2331.63442	0.40230
2329.70586	0.40055
2327.77729	0.39810
2325.84873	0.39277
2323.92017	0.38555
2321.99160	0.37832
2320.06304	0.37100
2318.13447	0.36329
2316.20591	0.35641
2314.27734	0.35185
2312.34878	0.34945
2310.42021	0.34730
2308.49165	0.34359
2306.56309	0.33850
2304.63452	0.33383
2302.70596	0.33126
2300.77739	0.33045
2298.84883	0.32985
2296.92026	0.32912
2294.99170	0.32835
2293.06313	0.32732
2291.13457	0.32636
2289.20601	0.32579
2287.27744	0.32530
2285.34888	0.32479
2283.42031	0.32492
2281.49175	0.32632
2279.56318	0.32879
2277.63462	0.33152
2275.70605	0.33405
2273.77749	0.33632
2271.84893	0.33843
2269.92036	0.34044
2267.99180	0.34235
2266.06323	0.34423
2264.13467	0.34600
2262.20610	0.34765
2260.27754	0.34933
2258.34897	0.35101
2256.42041	0.35253
2254.49185	0.35398
2252.56328	0.35565
2250.63472	0.35748
2248.70615	0.35933
2246.77759	0.36116
2244.84902	0.36303
2242.92046	0.36500
2240.99189	0.36707
2239.06333	0.36910
2237.13477	0.37102
2235.20620	0.37290
2233.27764	0.37491
2231.34907	0.37717
2229.42051	0.37951
2227.49194	0.38176
2225.56338	0.38395
2223.63481	0.38614
2221.70625	0.38830
2219.77769	0.39036
2217.84912	0.39251
2215.92056	0.39478
2213.99199	0.39697
2212.06343	0.39901
2210.13486	0.40104
2208.20630	0.40310
2206.27773	0.40515
2204.34917	0.40724
2202.42061	0.40941
2200.49204	0.41147
2198.56348	0.41330
2196.63491	0.41511
2194.70635	0.41709
2192.77778	0.41914
2190.84922	0.42100
2188.92065	0.42275
2186.99209	0.42459
2185.06353	0.42639
2183.13496	0.42803
2181.20640	0.42968
2179.27783	0.43139
2177.34927	0.43302
2175.42070	0.43449
2173.49214	0.43593
2171.56357	0.43743
2169.63501	0.43894
2167.70645	0.44026
2165.77788	0.44141
2163.84932	0.44258
2161.92075	0.44378
2159.99219	0.44499
2158.06362	0.44612
2156.13506	0.44704
2154.20649	0.44788
2152.27793	0.44881
2150.34937	0.44964
2148.42080	0.45024
2146.49224	0.45076
2144.56367	0.45123
2142.63511	0.45163
2140.70654	0.45197
2138.77798	0.45233
2136.84941	0.45265
2134.92085	0.45283
2132.99229	0.45285
2131.06372	0.45289
2129.13516	0.45291
2127.20659	0.45265
2125.27803	0.45217
2123.34946	0.45177
2121.42090	0.45142
2119.49233	0.45102
2117.56377	0.45059
2115.63521	0.44996
2113.70664	0.44907
2111.77808	0.44808
2109.84951	0.44709
2107.92095	0.44609
2105.99238	0.44509
2104.06382	0.44414
2102.13525	0.44319
2100.20669	0.44213
2098.27812	0.44083
2096.34956	0.43932
2094.42100	0.43773
2092.49243	0.43613
2090.56387	0.43457
2088.63530	0.43313
2086.70674	0.43167
2084.77817	0.42983
2082.84961	0.42769
2080.92104	0.42559
2078.99248	0.42371
2077.06392	0.42188
2075.13535	0.41990
2073.20679	0.41781
2071.27822	0.41565
2069.34966	0.41351
2067.42109	0.41140
2065.49253	0.40926
2063.56396	0.40694
2061.63540	0.40444
2059.70684	0.40186
2057.77827	0.39931
2055.84971	0.39681
2053.92114	0.39426
2051.99258	0.39175
2050.06401	0.38926
2048.13545	0.38669
2046.20688	0.38405
2044.27832	0.38147
2042.34976	0.37891
2040.42119	0.37631
2038.49263	0.37371
2036.56406	0.37114
2034.63550	0.36850
2032.70693	0.36573
2030.77837	0.36293
2028.84980	0.36018
2026.92124	0.35755
2024.99268	0.35500
2023.06411	0.35241
2021.13555	0.34969
2019.20698	0.34690
2017.27842	0.34418
2015.34985	0.34153
2013.42129	0.33883
2011.49272	0.33599
2009.56416	0.33315
2007.63560	0.33043
2005.70703	0.32780
2003.77847	0.32519
2001.84990	0.32257
1999.92134	0.32001
1997.99277	0.31750
1996.06421	0.31499
1994.13564	0.31262
1992.20708	0.31034
1990.27852	0.30782
1988.34995	0.30521
1986.42139	0.30276
1984.49282	0.30035
1982.56426	0.29789
1980.63569	0.29554
1978.70713	0.29341
1976.77856	0.29131
1974.85000	0.28905
1972.92144	0.28677
1970.99287	0.28469
1969.06431	0.28284
1967.13574	0.28097
1965.20718	0.27880
1963.27861	0.27656
1961.35005	0.27455
1959.42148	0.27270
1957.49292	0.27094
1955.56436	0.26929
1953.63579	0.26763
1951.70723	0.26583
1949.77866	0.26402
1947.85010	0.26238
1945.92153	0.26099
1943.99297	0.25980
1942.06440	0.25850
1940.13584	0.25681
1938.20728	0.25510
1936.27871	0.25368
1934.35015	0.25237
1932.42158	0.25107
1930.49302	0.24987
1928.56445	0.24881
1926.63589	0.24784
1924.70732	0.24700
1922.77876	0.24613
1920.85020	0.24504
1918.92163	0.24406
1916.99307	0.24324
1915.06450	0.24226
1913.13594	0.24126
1911.20737	0.24059
1909.27881	0.24010
1907.35024	0.23946
1905.42168	0.23867
1903.49312	0.23797
1901.56455	0.23740
1899.63599	0.23690
1897.70742	0.23646
1895.77886	0.23611
1893.85029	0.23578
1891.92173	0.23541
1889.99316	0.23519
1888.06460	0.23482
1886.13604	0.23427
1884.20747	0.23390
1882.27891	0.23377
1880.35034	0.23373
1878.42178	0.23367
1876.49321	0.23361
1874.56465	0.23359
1872.63608	0.23373
1870.70752	0.23415
1868.77896	0.23495
1866.85039	0.23530
1864.92183	0.23495
1862.99326	0.23474
1861.06470	0.23492
1859.13613	0.23529
1857.20757	0.23557
1855.27900	0.23590
1853.35044	0.23634
1851.42187	0.23689
1849.49331	0.23752
1847.56475	0.23832
1845.63618	0.23932
1843.70762	0.24042
1841.77905	0.24103
1839.85049	0.24124
1837.92192	0.24185
1835.99336	0.24274
1834.06479	0.24365
1832.13623	0.24471
1830.20767	0.24630
1828.27910	0.24788
1826.35054	0.24890
1824.42197	0.25006
1822.49341	0.25118
1820.56484	0.25226
1818.63628	0.25359
1816.70771	0.25523
1814.77915	0.25685
1812.85059	0.25862
1810.92202	0.26077
1808.99346	0.26284
1807.06489	0.26468
1805.13633	0.26657
1803.20776	0.26887
1801.27920	0.27147
1799.35063	0.27424
1797.42207	0.27661
1795.49351	0.27891
1793.56494	0.28180
1791.63638	0.28552
1789.70781	0.28877
1787.77925	0.29102
1785.85068	0.29393
1783.92212	0.29762
1781.99355	0.30163
1780.06499	0.30587
1778.13643	0.31014
1776.20786	0.31409
1774.27930	0.31850
1772.35073	0.32455
1770.42217	0.33071
1768.49360	0.33560
1766.56504	0.34049
1764.63647	0.34574
1762.70791	0.35169
1760.77935	0.35921
1758.85078	0.36607
1756.92222	0.37298
1754.99365	0.38067
1753.06509	0.38764
1751.13652	0.39606
1749.20796	0.40688
1747.27939	0.41742
1745.35083	0.42645
1743.42227	0.43592
1741.49370	0.44638
1739.56514	0.45863
1737.63657	0.47083
1735.70801	0.48167
1733.77944	0.49819
1731.85088	0.51769
1729.92231	0.53280
1727.99375	0.54803
1726.06519	0.56450
1724.13662	0.58262
1722.20806	0.60217
1720.27949	0.62016
1718.35093	0.64155
1716.42236	0.67357
1714.49380	0.70374
1712.56523	0.72789
1710.63667	0.75141
1708.70811	0.77692
1706.77954	0.80602
1704.85098	0.84086
1702.92241	0.87186
1700.99385	0.90263
1699.06528	0.94887
1697.13672	0.99142
1695.20815	1.03519
1693.27959	1.07786
1691.35103	1.11248
1689.42246	1.15289
1687.49390	1.19563
1685.56533	1.23630
1683.63677	1.29923
1681.70820	1.36530
1679.77964	1.40721
1677.85107	1.44681
1675.92251	1.49328
1673.99395	1.55135
1672.06538	1.60241
1670.13682	1.65278
1668.20825	1.71914
1666.27969	1.77305
1664.35112	1.81872
1662.42256	1.87659
1660.49399	1.94235
1658.56543	1.99376
1656.63687	2.03510
1654.70830	2.07220
1652.77974	2.12878
1650.85117	2.18402
1648.92261	2.20510
1646.99404	2.23094
1645.06548	2.25932
1643.13691	2.27804
1641.20835	2.28899
1639.27979	2.29779
1637.35122	2.30188
1635.42266	2.30018
1633.49409	2.29170
1631.56553	2.27702
1629.63696	2.25921
1627.70840	2.23077
1625.77983	2.19811
1623.85127	2.15732
1621.92271	2.10537
1619.99414	2.05764
1618.06558	2.01136
1616.13701	1.94697
1614.20845	1.88226
1612.27988	1.83297
1610.35132	1.78178
1608.42275	1.72641
1606.49419	1.67110
1604.56562	1.61980
1602.63706	1.57074
1600.70850	1.52280
1598.77993	1.47837
1596.85137	1.43691
1594.92280	1.39719
1592.99424	1.35894
1591.06567	1.32369
1589.13711	1.29078
1587.20854	1.26045
1585.27998	1.23261
1583.35142	1.20678
1581.42285	1.18342
1579.49429	1.16374
1577.56572	1.14658
1575.63716	1.12606
1573.70859	1.10786
1571.78003	1.09615
1569.85146	1.08429
1567.92290	1.07137
1565.99434	1.06219
1564.06577	1.05564
1562.13721	1.05074
1560.20864	1.04833
1558.28008	1.04770
1556.35151	1.04694
1554.42295	1.04604
1552.49438	1.04510
1550.56582	1.04293
1548.63726	1.03894
1546.70869	1.03338
1544.78013	1.02551
1542.85156	1.01487
1540.92300	0.99887
1538.99443	0.97232
1537.06587	0.95220
1535.13730	0.93897
1533.20874	0.92195
1531.28018	0.90345
1529.35161	0.88978
1527.42305	0.87695
1525.49448	0.86380
1523.56592	0.85283
1521.63735	0.84249
1519.70879	0.83148
1517.78022	0.82161
1515.85166	0.81037
1513.92310	0.79889
1511.99453	0.78924
1510.06597	0.78096
1508.13740	0.77340
1506.20884	0.76046
1504.28027	0.74802
1502.35171	0.74108
1500.42314	0.73543
1498.49458	0.72974
1496.56602	0.72294
1494.63745	0.71578
1492.70889	0.71036
1490.78032	0.70598
1488.85176	0.70100
1486.92319	0.69597
1484.99463	0.69168
1483.06606	0.68815
1481.13750	0.68529
1479.20894	0.68319
1477.28037	0.68209
1475.35181	0.68195
1473.42324	0.68245
1471.49468	0.68203
1469.56611	0.68002
1467.63755	0.67779
1465.70898	0.67614
1463.78042	0.67513
1461.85186	0.67449
1459.92329	0.67439
1457.99473	0.67496
1456.06616	0.67468
1454.13760	0.67242
1452.20903	0.66989
1450.28047	0.66743
1448.35190	0.66509
1446.42334	0.66266
1444.49478	0.66020
1442.56621	0.65773
1440.63765	0.65514
1438.70908	0.65259
1436.78052	0.64976
1434.85195	0.64664
1432.92339	0.64419
1430.99482	0.64261
1429.06626	0.64149
1427.13770	0.64067
1425.20913	0.64053
1423.28057	0.64096
1421.35200	0.64124
1419.42344	0.64139
1417.49487	0.64115
1415.56631	0.63997
1413.63774	0.63882
1411.70918	0.63827
1409.78062	0.63838
1407.85205	0.63898
1405.92349	0.63998
1403.99492	0.64096
1402.06636	0.64113
1400.13779	0.64054
1398.20923	0.63922
1396.28066	0.63700
1394.35210	0.63390
1392.42354	0.63034
1390.49497	0.62697
1388.56641	0.62360
1386.63784	0.61951
1384.70928	0.61502
1382.78071	0.61102
1380.85215	0.60753
1378.92358	0.60452
1376.99502	0.60228
1375.06646	0.60090
1373.13789	0.59978
1371.20933	0.59879
1369.28076	0.59812
1367.35220	0.59723
1365.42363	0.59588
1363.49507	0.59449
1361.56650	0.59301
1359.63794	0.59139
1357.70937	0.58998
1355.78081	0.58875
1353.85225	0.58758
1351.92368	0.58655
1349.99512	0.58574
1348.06655	0.58492
1346.13799	0.58394
1344.20942	0.58305
1342.28086	0.58233
1340.35229	0.58166
1338.42373	0.58091
1336.49517	0.58006
1334.56660	0.57933
1332.63804	0.57890
1330.70947	0.57881
1328.78091	0.57902
1326.85234	0.57936
1324.92378	0.57976
1322.99521	0.58026
1321.06665	0.58078
1319.13809	0.58115
1317.20952	0.58116
1315.28096	0.58080
1313.35239	0.58025
1311.42383	0.57963
1309.49526	0.57892
1307.56670	0.57820
1305.63813	0.57759
1303.70957	0.57711
1301.78101	0.57652
1299.85244	0.57556
1297.92388	0.57443
1295.99531	0.57335
1294.06675	0.57232
1292.13818	0.57133
1290.20962	0.57028
1288.28105	0.56912
1286.35249	0.56798
1284.42393	0.56695
1282.49536	0.56591
1280.56680	0.56480
1278.63823	0.56365
1276.70967	0.56239
1274.78110	0.56107
1272.85254	0.56000
1270.92397	0.55952
1268.99541	0.55935
1267.06685	0.55885
1265.13828	0.55796
1263.20972	0.55695
1261.28115	0.55597
1259.35259	0.55523
1257.42402	0.55481
1255.49546	0.55462
1253.56689	0.55448
1251.63833	0.55430
1249.70977	0.55406
1247.78120	0.55376
1245.85264	0.55333
1243.92407	0.55271
1241.99551	0.55190
1240.06694	0.55077
1238.13838	0.54923
1236.20981	0.54746
1234.28125	0.54558
1232.35269	0.54369
1230.42412	0.54192
1228.49556	0.54024
1226.56699	0.53850
1224.63843	0.53673
1222.70986	0.53498
1220.78130	0.53339
1218.85273	0.53210
1216.92417	0.53098
1214.99561	0.52989
1213.06704	0.52888
1211.13848	0.52808
1209.20991	0.52757
1207.28135	0.52713
1205.35278	0.52647
1203.42422	0.52567
1201.49565	0.52480
1199.56709	0.52387
1197.63853	0.52292
1195.70996	0.52204
1193.78140	0.52129
1191.85283	0.52063
1189.92427	0.52011
1187.99570	0.51970
1186.06714	0.51940
1184.13857	0.51937
1182.21001	0.51973
1180.28145	0.52055
1178.35288	0.52172
1176.42432	0.52298
1174.49575	0.52409
1172.56719	0.52495
1170.63862	0.52560
1168.71006	0.52609
1166.78149	0.52643
1164.85293	0.52673
1162.92437	0.52717
1160.99580	0.52766
1159.06724	0.52789
1157.13867	0.52769
1155.21011	0.52708
1153.28154	0.52606
1151.35298	0.52457
1149.42441	0.52247
1147.49585	0.51984
1145.56729	0.51706
1143.63872	0.51439
1141.71016	0.51196
1139.78159	0.51000
1137.85303	0.50854
1135.92446	0.50750
1133.99590	0.50694
1132.06733	0.50673
1130.13877	0.50662
1128.21021	0.50637
1126.28164	0.50590
1124.35308	0.50560
1122.42451	0.50576
1120.49595	0.50609
1118.56738	0.50634
1116.63882	0.50662
1114.71025	0.50721
1112.78169	0.50822
1110.85312	0.50923
1108.92456	0.50998
1106.99600	0.51077
1105.06743	0.51183
1103.13887	0.51283
1101.21030	0.51358
1099.28174	0.51451
1097.35317	0.51623
1095.42461	0.51892
1093.49604	0.52254
1091.56748	0.52740
1089.63892	0.53372
1087.71035	0.54142
1085.78179	0.55012
1083.85322	0.55886
1081.92466	0.56650
1079.99609	0.57206
1078.06753	0.57495
1076.13896	0.57488
1074.21040	0.57158
1072.28184	0.56569
1070.35327	0.55860
1068.42471	0.55123
1066.49614	0.54429
1064.56758	0.53823
1062.63901	0.53284
1060.71045	0.52811
1058.78188	0.52422
1056.85332	0.52075
1054.92476	0.51733
1052.99619	0.51436
1051.06763	0.51228
1049.13906	0.51078
1047.21050	0.50972
1045.28193	0.50940
1043.35337	0.50954
1041.42480	0.50974
1039.49624	0.51022
1037.56768	0.51082
1035.63911	0.51092
1033.71055	0.51033
1031.78198	0.50921
1029.85342	0.50757
1027.92485	0.50571
1025.99629	0.50407
1024.06772	0.50278
1022.13916	0.50173
1020.21060	0.50104
1018.28203	0.50087
1016.35347	0.50078
1014.42490	0.50026
1012.49634	0.49950
1010.56777	0.49899
1008.63921	0.49877
1006.71064	0.49877
1004.78208	0.49933
1002.85352	0.50081
1000.92495	0.50310
998.99639	0.50617
997.06782	0.51017
995.13926	0.51477
993.21069	0.51908
991.28213	0.52232
989.35356	0.52411
987.42500	0.52466
985.49644	0.52446
983.56787	0.52415
981.63931	0.52431
979.71074	0.52503
977.78218	0.52619
975.85361	0.52790
973.92505	0.53023
971.99648	0.53297
970.06792	0.53595
968.13936	0.53936
966.21079	0.54340
964.28223	0.54794
962.35366	0.55263
960.42510	0.55743
958.49653	0.56248
956.56797	0.56790
954.63940	0.57367
952.71084	0.57956
950.78228	0.58556
948.85371	0.59178
946.92515	0.59799
944.99658	0.60404
943.06802	0.61018
941.13945	0.61656
939.21089	0.62279
937.28232	0.62854
935.35376	0.63377
933.42520	0.63863
931.49663	0.64377
929.56807	0.64955
927.63950	0.65568
925.71094	0.66190
923.78237	0.66805
921.85381	0.67439
919.92524	0.68104
917.99668	0.68732
916.06812	0.69348
914.13955	0.70070
912.21099	0.70887
910.28242	0.71692
908.35386	0.72479
906.42529	0.73303
904.49673	0.74182
902.56816	0.75100
900.63960	0.75999
898.71104	0.76870
896.78247	0.77781
894.85391	0.78770
892.92534	0.79855
890.99678	0.80951
889.06821	0.81885
887.13965	0.82760
885.21108	0.83864
883.28252	0.85076
881.35396	0.86122
879.42539	0.87233
877.49683	0.88603
875.56826	0.89861
873.63970	0.90807
871.71113	0.91762
869.78257	0.92884
867.85400	0.94031
865.92544	0.95161
863.99687	0.96282
862.06831	0.97361
860.13975	0.98421
858.21118	0.99561
856.28262	1.00772
854.35405	1.01977
852.42549	1.03165
850.49692	1.04282
848.56836	1.05289
846.63979	1.06331
844.71123	1.07587
842.78267	1.08836
840.85410	1.09830
838.92554	1.10862
836.99697	1.12048
835.06841	1.13064
833.13984	1.14028
831.21128	1.15214
829.28271	1.16530
827.35415	1.17973
825.42559	1.19216
823.49702	1.19889
821.56846	1.20495
819.63989	1.21434
817.71133	1.22300
815.78276	1.22644
813.85420	1.22721
811.92563	1.23838
809.99707	1.26808
808.06851	1.29901
806.13994	1.31131
804.21138	1.30848
802.28281	1.30387
800.35425	1.31067
798.42568	1.32756
796.49712	1.33464
794.56855	1.34331
792.63999	1.38742
790.71143	1.44439
788.78286	1.46091
786.85430	1.42761
784.92573	1.39368
782.99717	1.41158
781.06860	1.48781
779.14004	1.62389
777.21147	1.64941
775.28291	1.44197
773.35435	1.33666
771.42578	1.40293
769.49722	1.46651
767.56865	1.32713
765.64009	1.20962
763.71152	1.21189
761.78296	1.29048
759.85439	1.39910
757.92583	1.49660
755.99727	1.41435
754.06870	1.28200
752.14014	1.24019
750.21157	1.26324
748.28301	1.35353
746.35444	1.56045
744.42588	1.89217
742.49731	1.56240
740.56875	1.20023
738.64019	1.00165
736.71162	0.83892
734.78306	0.72599
732.85449	0.69059
730.92593	0.65373
728.99736	0.55620
727.06880	0.54924
725.14023	0.74414
723.21167	0.65636
721.28311	0.32639
719.35454	0.28717
717.42598	0.50951
715.49741	0.88498
713.56885	0.61325
711.64028	0.40315
709.71172	0.29676
707.78315	0.26503
705.85459	0.41149
703.92603	2.30827
701.99746	4.21198
700.06890	0.52080
698.14033	0.48972
696.21177	0.56985
694.28320	0.38086
692.35464	0.20238
690.42607	0.23264
688.49751	0.39756
686.56895	0.48021
684.64038	0.43225
682.71182	0.34730
680.78325	0.33562
678.85469	0.41984
676.92612	0.57462
674.99756	0.60543
673.06899	0.51580
671.14043	0.49426
669.21187	0.49863
667.28330	0.35084
665.35474	0.20060
663.42617	0.23246
661.49761	0.35776
659.56904	0.35664
657.64048	0.33759
655.71191	0.44849
653.78335	0.52214
651.85479	0.39760
649.92622	0.32383
647.99766	0.27894
646.06909	0.25097
644.14053	0.34299
642.21196	0.74116
640.28340	3.84170
638.35483	3.83013
636.42627	0.83828
634.49771	0.63947
632.56914	0.39995
630.64058	0.26459
628.71201	0.24726
626.78345	0.26973
624.85488	0.33278
622.92632	0.41639
620.99775	0.45072
619.06919	0.41557
617.14062	0.32889
615.21206	0.27673
613.28350	0.29820
611.35493	0.38971
609.42637	0.51641
607.49780	0.51798
605.56924	0.38051
603.64067	0.28666
601.71211	0.34398
599.78354	0.52533
597.85498	0.46836
595.92642	0.34989
593.99785	0.33696
592.06929	0.38104
590.14072	0.38197
588.21216	0.35017
586.28359	0.42900
584.35503	0.60406
582.42646	0.43463
580.49790	0.29049
578.56934	0.35015
576.64077	0.41857
574.71221	0.31697
572.78364	0.19312
570.85508	0.09955
568.92651	0.04385
566.99795	0.05337
565.06938	0.11742
563.14082	0.19547
561.21226	0.29802
559.28369	0.42068
557.35513	0.54424
555.42656	0.52372
553.49800	0.38335
551.56943	0.34303
549.64087	0.36649
547.71230	0.38357
545.78374	0.39250
543.85518	0.34823
541.92661	0.33013
539.99805	0.42548
538.06948	0.53419
536.14092	0.42292
534.21235	0.32867
532.28379	0.35291
530.35522	0.42672
528.42666	0.39400
526.49810	0.37923
524.56953	0.40154
522.64097	0.31034
520.71240	0.22293
518.78384	0.23949
516.85527	0.34670
514.92671	0.59271
512.99814	0.62469
511.06958	0.34919
509.14102	0.25671
507.21245	0.28261
505.28389	0.29596
503.35532	0.25198
501.42676	0.21586
499.49819	0.23496
