3997.91411	0.11071
3995.98555	0.11044
3994.05698	0.11032
3992.12842	0.11069
3990.19985	0.11132
3988.27129	0.11173
3986.34272	0.11163
3984.41416	0.11151
3982.48560	0.11189
3980.55703	0.11242
3978.62847	0.11287
3976.69990	0.11349
3974.77134	0.11407
3972.84277	0.11424
3970.91421	0.11389
3968.98564	0.11342
3967.05708	0.11317
3965.12852	0.11302
3963.19995	0.11321
3961.27139	0.11389
3959.34282	0.11468
3957.41426	0.11507
3955.48569	0.11483
3953.55713	0.11440
3951.62856	0.11428
3949.70000	0.11429
3947.77144	0.11414
3945.84287	0.11401
3943.91431	0.11418
3941.98574	0.11466
3940.05718	0.11489
3938.12861	0.11460
3936.20005	0.11436
3934.27148	0.11457
3932.34292	0.11493
3930.41436	0.11516
3928.48579	0.11519
3926.55723	0.11528
3924.62866	0.11579
3922.70010	0.11595
3920.77153	0.11539
3918.84297	0.11498
3916.91440	0.11464
3914.98584	0.11383
3913.05728	0.11313
3911.12871	0.11286
3909.20015	0.11267
3907.27158	0.11295
3905.34302	0.11414
3903.41445	0.11559
3901.48589	0.11627
3899.55732	0.11618
3897.62876	0.11533
3895.70020	0.11397
3893.77163	0.11345
3891.84307	0.11400
3889.91450	0.11427
3887.98594	0.11413
3886.05737	0.11465
3884.12881	0.11553
3882.20024	0.11586
3880.27168	0.11592
3878.34312	0.11557
3876.41455	0.11520
3874.48599	0.11570
3872.55742	0.11674
3870.62886	0.11765
3868.70029	0.11802
3866.77173	0.11772
3864.84316	0.11768
3862.91460	0.11797
3860.98604	0.11790
3859.05747	0.11786
3857.12891	0.11853
3855.20034	0.12021
3853.27178	0.12205
3851.34321	0.12157
3849.41465	0.11993
3847.48608	0.11910
3845.55752	0.11922
3843.62896	0.12053
3841.70039	0.12248
3839.77183	0.12412
3837.84326	0.12539
3835.91470	0.12578
3833.98613	0.12530
3832.05757	0.12526
3830.12900	0.12599
3828.20044	0.12670
3826.27187	0.12711
3824.34331	0.12773
3822.41475	0.12920
3820.48618	0.13157
3818.55762	0.13317
3816.62905	0.13365
3814.70049	0.13337
3812.77192	0.13236
3810.84336	0.13203
3808.91479	0.13288
3806.98623	0.13453
3805.05767	0.13617
3803.12910	0.13781
3801.20054	0.14009
3799.27197	0.14182
3797.34341	0.14224
3795.41484	0.14235
3793.48628	0.14252
3791.55771	0.14313
3789.62915	0.14422
3787.70059	0.14568
3785.77202	0.14753
3783.84346	0.14931
3781.91489	0.15060
3779.98633	0.15201
3778.05776	0.15391
3776.12920	0.15537
3774.20063	0.15635
3772.27207	0.15774
3770.34351	0.15986
3768.41494	0.16209
3766.48638	0.16408
3764.55781	0.16629
3762.62925	0.16852
3760.70068	0.17085
3758.77212	0.17367
3756.84355	0.17608
3754.91499	0.17789
3752.98643	0.18065
3751.05786	0.18555
3749.12930	0.19096
3747.20073	0.19354
3745.27217	0.19497
3743.34360	0.19741
3741.41504	0.20052
3739.48647	0.20398
3737.55791	0.20871
3735.62935	0.21535
3733.70078	0.22219
3731.77222	0.22643
3729.84365	0.22966
3727.91509	0.23381
3725.98652	0.23963
3724.05796	0.24654
3722.12939	0.25320
3720.20083	0.25929
3718.27227	0.26534
3716.34370	0.27202
3714.41514	0.27944
3712.48657	0.28904
3710.55801	0.30245
3708.62944	0.31625
3706.70088	0.32775
3704.77231	0.33928
3702.84375	0.35257
3700.91519	0.36901
3698.98662	0.38715
3697.05806	0.40491
3695.12949	0.42368
3693.20093	0.44357
3691.27236	0.46536
3689.34380	0.49349
3687.41523	0.52743
3685.48667	0.55701
3683.55811	0.58300
3681.62954	0.61114
3679.70098	0.64275
3677.77241	0.67628
3675.84385	0.71634
3673.91528	0.76945
3671.98672	0.81232
3670.05815	0.85050
3668.12959	0.90291
3666.20103	0.95074
3664.27246	0.99122
3662.34390	1.03532
3660.41533	1.08311
3658.48677	1.12991
3656.55820	1.17932
3654.62964	1.23424
3652.70107	1.28043
3650.77251	1.32089
3648.84395	1.37751
3646.91538	1.44714
3644.98682	1.49707
3643.05825	1.53489
3641.12969	1.57393
3639.20112	1.61766
3637.27256	1.66264
3635.34399	1.70681
3633.41543	1.75033
3631.48687	1.79048
3629.55830	1.83185
3627.62974	1.88661
3625.70117	1.93642
3623.77261	1.96970
3621.84404	2.00265
3619.91548	2.04062
3617.98691	2.08580
3616.05835	2.12948
3614.12979	2.16672
3612.20122	2.20609
3610.27266	2.24552
3608.34409	2.28492
3606.41553	2.32638
3604.48696	2.36505
3602.55840	2.40042
3600.62983	2.43889
3598.70127	2.47998
3596.77271	2.51896
3594.84414	2.55881
3592.91558	2.60072
3590.98701	2.63928
3589.05845	2.67450
3587.12988	2.71676
3585.20132	2.76353
3583.27275	2.80413
3581.34419	2.84274
3579.41562	2.88285
3577.48706	2.92441
3575.55850	2.96848
3573.62993	3.01476
3571.70137	3.05733
3569.77280	3.09488
3567.84424	3.13550
3565.91567	3.18907
3563.98711	3.24199
3562.05854	3.28331
3560.12998	3.32307
3558.20142	3.36539
3556.27285	3.40907
3554.34429	3.45214
3552.41572	3.49774
3550.48716	3.54730
3548.55859	3.59550
3546.63003	3.64048
3544.70146	3.68670
3542.77290	3.73299
3540.84434	3.77575
3538.91577	3.81819
3536.98721	3.86361
3535.05864	3.91266
3533.13008	3.96192
3531.20151	4.01013
3529.27295	4.05659
3527.34438	4.10093
3525.41582	4.14567
3523.48726	4.19568
3521.55869	4.24948
3519.63013	4.29706
3517.70156	4.34197
3515.77300	4.39099
3513.84443	4.44094
3511.91587	4.49261
3509.98730	4.54565
3508.05874	4.59102
3506.13018	4.63096
3504.20161	4.67515
3502.27305	4.72437
3500.34448	4.77490
3498.41592	4.82491
3496.48735	4.87415
3494.55879	4.92268
3492.63022	4.97214
3490.70166	5.01780
3488.77310	5.05936
3486.84453	5.10646
3484.91597	5.15918
3482.98740	5.20757
3481.05884	5.24757
3479.13027	5.28903
3477.20171	5.33872
3475.27314	5.38907
3473.34458	5.43987
3471.41602	5.49698
3469.48745	5.55361
3467.55889	5.60345
3465.63032	5.65295
3463.70176	5.70545
3461.77319	5.75171
3459.84463	5.79416
3457.91606	5.84004
3455.98750	5.88709
3454.05894	5.94032
3452.13037	6.00246
3450.20181	6.05699
3448.27324	6.09282
3446.34468	6.12455
3444.41611	6.16320
3442.48755	6.21456
3440.55898	6.27372
3438.63042	6.32073
3436.70186	6.36426
3434.77329	6.42571
3432.84473	6.49188
3430.91616	6.55513
3428.98760	6.62028
3427.05903	6.66333
3425.13047	6.68411
3423.20190	6.70421
3421.27334	6.73978
3419.34478	6.79627
3417.41621	6.86960
3415.48765	6.94641
3413.55908	6.99651
3411.63052	7.01092
3409.70195	7.02108
3407.77339	7.06490
3405.84482	7.11450
3403.91626	7.14657
3401.98770	7.19264
3400.05913	7.26620
3398.13057	7.33082
3396.20200	7.36344
3394.27344	7.41688
3392.34487	7.51532
3390.41631	7.60518
3388.48774	7.63300
3386.55918	7.63409
3384.63062	7.62074
3382.70205	7.59890
3380.77349	7.62458
3378.84492	7.69698
3376.91636	7.75258
3374.98779	7.74226
3373.05923	7.70492
3371.13066	7.67801
3369.20210	7.68864
3367.27354	7.73483
3365.34497	7.78289
3363.41641	7.81351
3361.48784	7.85633
3359.55928	7.94324
3357.63071	7.96771
3355.70215	7.90127
3353.77358	7.87072
3351.84502	7.92957
3349.91646	7.99645
3347.98789	8.00962
3346.05933	8.04771
3344.13076	8.14118
3342.20220	8.17596
3340.27363	8.16856
3338.34507	8.21825
3336.41650	8.19656
3334.48794	8.09290
3332.55937	8.07731
3330.63081	8.17276
3328.70225	8.23577
3326.77368	8.19849
3324.84512	8.14153
3322.91655	8.09343
3320.98799	8.12303
3319.05942	8.23417
3317.13086	8.26023
3315.20229	8.13037
3313.27373	8.02909
3311.34517	8.05464
3309.41660	8.13245
3307.48804	8.21503
3305.55947	8.28002
3303.63091	8.26677
3301.70234	8.15969
3299.77378	8.06653
3297.84521	8.02564
3295.91665	7.99211
3293.98809	8.00046
3292.05952	8.09866
3290.13096	8.27671
3288.20239	8.45303
3286.27383	8.44926
3284.34526	8.31771
3282.41670	8.30344
3280.48813	8.37099
3278.55957	8.39436
3276.63101	8.38129
3274.70244	8.29826
3272.77388	8.16351
3270.84531	8.12486
3268.91675	8.22785
3266.98818	8.35381
3265.05962	8.42470
3263.13105	8.42263
3261.20249	8.38365
3259.27393	8.38363
3257.34536	8.34930
3255.41680	8.25012
3253.48823	8.20046
3251.55967	8.20008
3249.63110	8.23844
3247.70254	8.30673
3245.77397	8.32407
3243.84541	8.31960
3241.91685	8.34599
3239.98828	8.37270
3238.05972	8.34256
3236.13115	8.28467
3234.20259	8.23678
3232.27402	8.16808
3230.34546	8.10494
3228.41689	8.09242
3226.48833	8.15040
3224.55977	8.26292
3222.63120	8.36266
3220.70264	8.31117
3218.77407	8.09881
3216.84551	7.92124
3214.91694	7.86468
3212.98838	7.88469
3211.05981	7.93847
3209.13125	7.97166
3207.20269	7.92118
3205.27412	7.84463
3203.34556	7.83044
3201.41699	7.88077
3199.48843	7.94197
3197.55986	7.93734
3195.63130	7.83975
3193.70273	7.71192
3191.77417	7.60341
3189.84561	7.51749
3187.91704	7.45953
3185.98848	7.40605
3184.05991	7.34040
3182.13135	7.30547
3180.20278	7.29809
3178.27422	7.26483
3176.34565	7.20984
3174.41709	7.14210
3172.48853	7.06874
3170.55996	7.03171
3168.63140	7.00851
3166.70283	6.95092
3164.77427	6.88359
3162.84570	6.83334
3160.91714	6.78478
3158.98857	6.70356
3157.06001	6.58405
3155.13145	6.47144
3153.20288	6.39383
3151.27432	6.34155
3149.34575	6.29062
3147.41719	6.21794
3145.48862	6.13907
3143.56006	6.07988
3141.63149	6.02483
3139.70293	5.95359
3137.77437	5.87573
3135.84580	5.80411
3133.91724	5.73601
3131.98867	5.66562
3130.06011	5.59861
3128.13154	5.53685
3126.20298	5.47287
3124.27441	5.40061
3122.34585	5.31856
3120.41729	5.23825
3118.48872	5.17127
3116.56016	5.10636
3114.63159	5.03096
3112.70303	4.95661
3110.77446	4.89069
3108.84590	4.82514
3106.91733	4.75452
3104.98877	4.68058
3103.06021	4.61027
3101.13164	4.54142
3099.20308	4.46989
3097.27451	4.40420
3095.34595	4.34544
3093.41738	4.28167
3091.48882	4.21235
3089.56025	4.14625
3087.63169	4.08362
3085.70312	4.02225
3083.77456	3.96200
3081.84600	3.90208
3079.91743	3.84248
3077.98887	3.78287
3076.06030	3.72248
3074.13174	3.66300
3072.20317	3.60619
3070.27461	3.55005
3068.34604	3.49293
3066.41748	3.43534
3064.48892	3.37848
3062.56035	3.32465
3060.63179	3.27381
3058.70322	3.22258
3056.77466	3.16913
3054.84609	3.11521
3052.91753	3.06326
3050.98896	3.01252
3049.06040	2.96128
3047.13184	2.91074
3045.20327	2.86155
3043.27471	2.81264
3041.34614	2.76382
3039.41758	2.71612
3037.48901	2.67034
3035.56045	2.62596
3033.63188	2.58248
3031.70332	2.53985
3029.77476	2.49727
3027.84619	2.45410
3025.91763	2.41086
3023.98906	2.36791
3022.06050	2.32522
3020.13193	2.28410
3018.20337	2.24583
3016.27480	2.20860
3014.34624	2.17032
3012.41768	2.13203
3010.48911	2.09480
3008.56055	2.05819
3006.63198	2.02204
3004.70342	1.98631
3002.77485	1.95098
3000.84629	1.91693
2998.91772	1.88418
2996.98916	1.85162
2995.06060	1.81933
2993.13203	1.78758
2991.20347	1.75634
2989.27490	1.72641
2987.34634	1.69768
2985.41777	1.66905
2983.48921	1.64027
2981.56064	1.61176
2979.63208	1.58355
2977.70352	1.55555
2975.77495	1.52831
2973.84639	1.50218
2971.91782	1.47680
2969.98926	1.45190
2968.06069	1.42745
2966.13213	1.40319
2964.20356	1.37916
2962.27500	1.35529
2960.34644	1.33128
2958.41787	1.30723
2956.48931	1.28360
2954.56074	1.26091
2952.63218	1.23893
2950.70361	1.21694
2948.77505	1.19508
2946.84648	1.17355
2944.91792	1.15242
2942.98936	1.13210
2941.06079	1.11262
2939.13223	1.09348
2937.20366	1.07433
2935.27510	1.05499
2933.34653	1.03586
2931.41797	1.01740
2929.48940	0.99935
2927.56084	0.98189
2925.63228	0.96530
2923.70371	0.94897
2921.77515	0.93207
2919.84658	0.91481
2917.91802	0.89804
2915.98945	0.88179
2914.06089	0.86594
2912.13232	0.85103
2910.20376	0.83694
2908.27520	0.82301
2906.34663	0.80896
2904.41807	0.79509
2902.48950	0.78169
2900.56094	0.76865
2898.63237	0.75586
2896.70381	0.74321
2894.77524	0.73081
2892.84668	0.71904
2890.91812	0.70779
2888.98955	0.69645
2887.06099	0.68487
2885.13242	0.67367
2883.20386	0.66317
2881.27529	0.65307
2879.34673	0.64315
2877.41816	0.63327
2875.48960	0.62335
2873.56104	0.61363
2871.63247	0.60404
2869.70391	0.59414
2867.77534	0.58391
2865.84678	0.57351
2863.91821	0.56326
2861.98965	0.55356
2860.06108	0.54432
2858.13252	0.53531
2856.20396	0.52657
2854.27539	0.51808
2852.34683	0.50965
2850.41826	0.50136
2848.48970	0.49336
2846.56113	0.48567
2844.63257	0.47844
2842.70400	0.47178
2840.77544	0.46552
2838.84687	0.45937
2836.91831	0.45341
2834.98975	0.44767
2833.06118	0.44193
2831.13262	0.43605
2829.20405	0.42995
2827.27549	0.42387
2825.34692	0.41817
2823.41836	0.41263
2821.48979	0.40687
2819.56123	0.40109
2817.63267	0.39564
2815.70410	0.39038
2813.77554	0.38513
2811.84697	0.37995
2809.91841	0.37480
2807.98984	0.36982
2806.06128	0.36505
2804.13271	0.36025
2802.20415	0.35542
2800.27559	0.35077
2798.34702	0.34639
2796.41846	0.34211
2794.48989	0.33776
2792.56133	0.33339
2790.63276	0.32901
2788.70420	0.32468
2786.77563	0.32052
2784.84707	0.31651
2782.91851	0.31268
2780.98994	0.30882
2779.06138	0.30485
2777.13281	0.30107
2775.20425	0.29759
2773.27568	0.29423
2771.34712	0.29085
2769.41855	0.28739
2767.48999	0.28392
2765.56143	0.28062
2763.63286	0.27745
2761.70430	0.27421
2759.77573	0.27093
2757.84717	0.26781
2755.91860	0.26499
2753.99004	0.26236
2752.06147	0.25964
2750.13291	0.25678
2748.20435	0.25398
2746.27578	0.25146
2744.34722	0.24911
2742.41865	0.24667
2740.49009	0.24412
2738.56152	0.24163
2736.63296	0.23923
2734.70439	0.23686
2732.77583	0.23457
2730.84727	0.23245
2728.91870	0.23040
2726.99014	0.22840
2725.06157	0.22649
2723.13301	0.22457
2721.20444	0.22267
2719.27588	0.22079
2717.34731	0.21876
2715.41875	0.21680
2713.49019	0.21505
2711.56162	0.21338
2709.63306	0.21183
2707.70449	0.21027
2705.77593	0.20863
2703.84736	0.20703
2701.91880	0.20557
2699.99023	0.20417
2698.06167	0.20278
2696.13311	0.20147
2694.20454	0.20028
2692.27598	0.19909
2690.34741	0.19772
2688.41885	0.19630
2686.49028	0.19503
2684.56172	0.19386
2682.63315	0.19271
2680.70459	0.19161
2678.77603	0.19055
2676.84746	0.18940
2674.91890	0.18823
2672.99033	0.18723
2671.06177	0.18633
2669.13320	0.18550
2667.20464	0.18483
2665.27607	0.18417
2663.34751	0.18337
2661.41895	0.18244
2659.49038	0.18145
2657.56182	0.18061
2655.63325	0.17999
2653.70469	0.17949
2651.77612	0.17897
2649.84756	0.17836
2647.91899	0.17780
2645.99043	0.17736
2644.06187	0.17682
2642.13330	0.17621
2640.20474	0.17574
2638.27617	0.17536
2636.34761	0.17487
2634.41904	0.17431
2632.49048	0.17388
2630.56191	0.17350
2628.63335	0.17306
2626.70479	0.17278
2624.77622	0.17267
2622.84766	0.17255
2620.91909	0.17241
2618.99053	0.17215
2617.06196	0.17179
2615.13340	0.17163
2613.20483	0.17174
2611.27627	0.17180
2609.34771	0.17163
2607.41914	0.17140
2605.49058	0.17128
2603.56201	0.17126
2601.63345	0.17133
2599.70488	0.17149
2597.77632	0.17155
2595.84775	0.17151
2593.91919	0.17154
2591.99062	0.17163
2590.06206	0.17177
2588.13350	0.17202
2586.20493	0.17230
2584.27637	0.17248
2582.34780	0.17266
2580.41924	0.17304
2578.49067	0.17347
2576.56211	0.17371
2574.63354	0.17386
2572.70498	0.17410
2570.77642	0.17443
2568.84785	0.17479
2566.91929	0.17524
2564.99072	0.17579
2563.06216	0.17624
2561.13359	0.17662
2559.20503	0.17704
2557.27646	0.17751
2555.34790	0.17811
2553.41934	0.17874
2551.49077	0.17932
2549.56221	0.17989
2547.63364	0.18042
2545.70508	0.18086
2543.77651	0.18127
2541.84795	0.18172
2539.91938	0.18225
2537.99082	0.18289
2536.06226	0.18360
2534.13369	0.18435
2532.20513	0.18506
2530.27656	0.18574
2528.34800	0.18643
2526.41943	0.18716
2524.49087	0.18793
2522.56230	0.18867
2520.63374	0.18934
2518.70518	0.19001
2516.77661	0.19075
2514.84805	0.19152
2512.91948	0.19233
2510.99092	0.19318
2509.06235	0.19395
2507.13379	0.19466
2505.20522	0.19548
2503.27666	0.19638
2501.34810	0.19719
2499.41953	0.19802
2497.49097	0.19882
2495.56240	0.19950
2493.63384	0.20017
2491.70527	0.20096
2489.77671	0.20193
2487.84814	0.20293
2485.91958	0.20376
2483.99102	0.20456
2482.06245	0.20551
2480.13389	0.20642
2478.20532	0.20717
2476.27676	0.20802
2474.34819	0.20907
2472.41963	0.20998
2470.49106	0.21075
2468.56250	0.21165
2466.63394	0.21263
2464.70537	0.21350
2462.77681	0.21427
2460.84824	0.21517
2458.91968	0.21623
2456.99111	0.21727
2455.06255	0.21813
2453.13398	0.21893
2451.20542	0.21989
2449.27686	0.22096
2447.34829	0.22198
2445.41973	0.22296
2443.49116	0.22399
2441.56260	0.22505
2439.63403	0.22604
2437.70547	0.22691
2435.77690	0.22783
2433.84834	0.22885
2431.91978	0.22983
2429.99121	0.23080
2428.06265	0.23183
2426.13408	0.23292
2424.20552	0.23404
2422.27695	0.23514
2420.34839	0.23613
2418.41982	0.23722
2416.49126	0.23853
2414.56270	0.23975
2412.63413	0.24080
2410.70557	0.24180
2408.77700	0.24285
2406.84844	0.24394
2404.91987	0.24508
2402.99131	0.24626
2401.06274	0.24742
2399.13418	0.24863
2397.20562	0.24991
2395.27705	0.25112
2393.34849	0.25229
2391.41992	0.25356
2389.49136	0.25501
2387.56279	0.25672
2385.63423	0.25876
2383.70566	0.26135
2381.77710	0.26471
2379.84854	0.26889
2377.91997	0.27394
2375.99141	0.27961
2374.06284	0.28574
2372.13428	0.29305
2370.20571	0.30188
2368.27715	0.31082
2366.34858	0.31803
2364.42002	0.32360
2362.49146	0.32868
2360.56289	0.33230
2358.63433	0.33294
2356.70576	0.33128
2354.77720	0.32816
2352.84863	0.32252
2350.92007	0.31563
2348.99150	0.31186
2347.06294	0.31280
2345.13437	0.31846
2343.20581	0.32669
2341.27725	0.33239
2339.34868	0.33462
2337.42012	0.33478
2335.49155	0.33412
2333.56299	0.33401
2331.63442	0.33431
2329.70586	0.33438
2327.77729	0.33434
2325.84873	0.33409
2323.92017	0.33360
2321.99160	0.33266
2320.06304	0.33148
2318.13447	0.33050
2316.20591	0.32975
2314.27734	0.32957
2312.34878	0.32987
2310.42021	0.33011
2308.49165	0.33027
2306.56309	0.33036
2304.63452	0.33048
2302.70596	0.33109
2300.77739	0.33219
2298.84883	0.33340
2296.92026	0.33458
2294.99170	0.33572
2293.06313	0.33681
2291.13457	0.33788
2289.20601	0.33899
2287.27744	0.34018
2285.34888	0.34148
2283.42031	0.34300
2281.49175	0.34480
2279.56318	0.34684
2277.63462	0.34898
2275.70605	0.35114
2273.77749	0.35328
2271.84893	0.35542
2269.92036	0.35763
2267.99180	0.35975
2266.06323	0.36171
2264.13467	0.36352
2262.20610	0.36532
2260.27754	0.36728
2258.34897	0.36938
2256.42041	0.37141
2254.49185	0.37328
2252.56328	0.37512
2250.63472	0.37713
2248.70615	0.37932
2246.77759	0.38149
2244.84902	0.38361
2242.92046	0.38571
2240.99189	0.38779
2239.06333	0.38998
2237.13477	0.39228
2235.20620	0.39439
2233.27764	0.39636
2231.34907	0.39843
2229.42051	0.40063
2227.49194	0.40279
2225.56338	0.40490
2223.63481	0.40705
2221.70625	0.40930
2219.77769	0.41157
2217.84912	0.41373
2215.92056	0.41578
2213.99199	0.41782
2212.06343	0.41996
2210.13486	0.42221
2208.20630	0.42436
2206.27773	0.42627
2204.34917	0.42809
2202.42061	0.43010
2200.49204	0.43224
2198.56348	0.43432
2196.63491	0.43637
2194.70635	0.43839
2192.77778	0.44030
2190.84922	0.44212
2188.92065	0.44390
2186.99209	0.44568
2185.06353	0.44744
2183.13496	0.44909
2181.20640	0.45069
2179.27783	0.45238
2177.34927	0.45405
2175.42070	0.45557
2173.49214	0.45706
2171.56357	0.45854
2169.63501	0.45991
2167.70645	0.46123
2165.77788	0.46245
2163.84932	0.46356
2161.92075	0.46476
2159.99219	0.46607
2158.06362	0.46721
2156.13506	0.46810
2154.20649	0.46890
2152.27793	0.46975
2150.34937	0.47051
2148.42080	0.47109
2146.49224	0.47168
2144.56367	0.47225
2142.63511	0.47269
2140.70654	0.47295
2138.77798	0.47308
2136.84941	0.47322
2134.92085	0.47348
2132.99229	0.47370
2131.06372	0.47363
2129.13516	0.47329
2127.20659	0.47296
2125.27803	0.47274
2123.34946	0.47250
2121.42090	0.47222
2119.49233	0.47180
2117.56377	0.47118
2115.63521	0.47045
2113.70664	0.46969
2111.77808	0.46886
2109.84951	0.46799
2107.92095	0.46716
2105.99238	0.46621
2104.06382	0.46504
2102.13525	0.46367
2100.20669	0.46224
2098.27812	0.46087
2096.34956	0.45959
2094.42100	0.45824
2092.49243	0.45680
2090.56387	0.45520
2088.63530	0.45342
2086.70674	0.45165
2084.77817	0.44990
2082.84961	0.44806
2080.92104	0.44615
2078.99248	0.44425
2077.06392	0.44235
2075.13535	0.44030
2073.20679	0.43808
2071.27822	0.43578
2069.34966	0.43349
2067.42109	0.43126
2065.49253	0.42910
2063.56396	0.42680
2061.63540	0.42438
2059.70684	0.42200
2057.77827	0.41958
2055.84971	0.41701
2053.92114	0.41451
2051.99258	0.41217
2050.06401	0.40976
2048.13545	0.40728
2046.20688	0.40470
2044.27832	0.40200
2042.34976	0.39922
2040.42119	0.39643
2038.49263	0.39375
2036.56406	0.39122
2034.63550	0.38866
2032.70693	0.38600
2030.77837	0.38330
2028.84980	0.38053
2026.92124	0.37773
2024.99268	0.37491
2023.06411	0.37213
2021.13555	0.36939
2019.20698	0.36671
2017.27842	0.36404
2015.34985	0.36127
2013.42129	0.35854
2011.49272	0.35586
2009.56416	0.35321
2007.63560	0.35057
2005.70703	0.34789
2003.77847	0.34519
2001.84990	0.34246
1999.92134	0.33973
1997.99277	0.33707
1996.06421	0.33454
1994.13564	0.33215
1992.20708	0.32976
1990.27852	0.32722
1988.34995	0.32471
1986.42139	0.32229
1984.49282	0.31990
1982.56426	0.31754
1980.63569	0.31518
1978.70713	0.31289
1976.77856	0.31066
1974.85000	0.30849
1972.92144	0.30635
1970.99287	0.30422
1969.06431	0.30211
1967.13574	0.30004
1965.20718	0.29794
1963.27861	0.29584
1961.35005	0.29384
1959.42148	0.29198
1957.49292	0.29018
1955.56436	0.28840
1953.63579	0.28666
1951.70723	0.28489
1949.77866	0.28317
1947.85010	0.28158
1945.92153	0.28009
1943.99297	0.27865
1942.06440	0.27720
1940.13584	0.27563
1938.20728	0.27413
1936.27871	0.27274
1934.35015	0.27135
1932.42158	0.27008
1930.49302	0.26894
1928.56445	0.26783
1926.63589	0.26674
1924.70732	0.26572
1922.77876	0.26473
1920.85020	0.26374
1918.92163	0.26292
1916.99307	0.26206
1915.06450	0.26096
1913.13594	0.25985
1911.20737	0.25899
1909.27881	0.25838
1907.35024	0.25782
1905.42168	0.25720
1903.49312	0.25655
1901.56455	0.25590
1899.63599	0.25530
1897.70742	0.25483
1895.77886	0.25443
1893.85029	0.25408
1891.92173	0.25376
1889.99316	0.25360
1888.06460	0.25334
1886.13604	0.25289
1884.20747	0.25250
1882.27891	0.25221
1880.35034	0.25205
1878.42178	0.25198
1876.49321	0.25195
1874.56465	0.25192
1872.63608	0.25205
1870.70752	0.25248
1868.77896	0.25307
1866.85039	0.25317
1864.92183	0.25280
1862.99326	0.25260
1861.06470	0.25273
1859.13613	0.25316
1857.20757	0.25364
1855.27900	0.25411
1853.35044	0.25453
1851.42187	0.25499
1849.49331	0.25558
1847.56475	0.25632
1845.63618	0.25717
1843.70762	0.25803
1841.77905	0.25861
1839.85049	0.25899
1837.92192	0.25973
1835.99336	0.26070
1834.06479	0.26173
1832.13623	0.26281
1830.20767	0.26419
1828.27910	0.26550
1826.35054	0.26647
1824.42197	0.26766
1822.49341	0.26880
1820.56484	0.26992
1818.63628	0.27127
1816.70771	0.27291
1814.77915	0.27458
1812.85059	0.27637
1810.92202	0.27834
1808.99346	0.28027
1807.06489	0.28206
1805.13633	0.28377
1803.20776	0.28592
1801.27920	0.28863
1799.35063	0.29159
1797.42207	0.29409
1795.49351	0.29651
1793.56494	0.29939
1791.63638	0.30288
1789.70781	0.30601
1787.77925	0.30848
1785.85068	0.31164
1783.92212	0.31538
1781.99355	0.31926
1780.06499	0.32330
1778.13643	0.32749
1776.20786	0.33152
1774.27930	0.33594
1772.35073	0.34184
1770.42217	0.34803
1768.49360	0.35306
1766.56504	0.35794
1764.63647	0.36316
1762.70791	0.36902
1760.77935	0.37635
1758.85078	0.38322
1756.92222	0.39020
1754.99365	0.39794
1753.06509	0.40507
1751.13652	0.41353
1749.20796	0.42419
1747.27939	0.43472
1745.35083	0.44381
1743.42227	0.45325
1741.49370	0.46363
1739.56514	0.47597
1737.63657	0.48838
1735.70801	0.49920
1733.77944	0.51552
1731.85088	0.53502
1729.92231	0.55024
1727.99375	0.56567
1726.06519	0.58231
1724.13662	0.60043
1722.20806	0.62008
1720.27949	0.63840
1718.35093	0.65988
1716.42236	0.69143
1714.49380	0.72128
1712.56523	0.74545
1710.63667	0.76899
1708.70811	0.79432
1706.77954	0.82304
1704.85098	0.85767
1702.92241	0.88875
1700.99385	0.91904
1699.06528	0.96388
1697.13672	1.00516
1695.20815	1.04767
1693.27959	1.08907
1691.35103	1.12223
1689.42246	1.16016
1687.49390	1.20016
1685.56533	1.23875
1683.63677	1.29804
1681.70820	1.35941
1679.77964	1.39873
1677.85107	1.43594
1675.92251	1.47832
1673.99395	1.53109
1672.06538	1.57868
1670.13682	1.62558
1668.20825	1.68575
1666.27969	1.73421
1664.35112	1.77551
1662.42256	1.82677
1660.49399	1.88331
1658.56543	1.92814
1656.63687	1.96605
1654.70830	2.00234
1652.77974	2.05889
1650.85117	2.10970
1648.92261	2.12848
1646.99404	2.15538
1645.06548	2.18604
1643.13691	2.20582
1641.20835	2.21839
1639.27979	2.22943
1637.35122	2.23693
1635.42266	2.23875
1633.49409	2.23149
1631.56553	2.21830
1629.63696	2.20251
1627.70840	2.17730
1625.77983	2.14849
1623.85127	2.11084
1621.92271	2.06266
1619.99414	2.01977
1618.06558	1.97758
1616.13701	1.91539
1614.20845	1.85168
1612.27988	1.80423
1610.35132	1.75499
1608.42275	1.70077
1606.49419	1.64699
1604.56562	1.59760
1602.63706	1.55022
1600.70850	1.50398
1598.77993	1.46111
1596.85137	1.42043
1594.92280	1.38075
1592.99424	1.34259
1591.06567	1.30778
1589.13711	1.27520
1587.20854	1.24483
1585.27998	1.21646
1583.35142	1.18939
1581.42285	1.16442
1579.49429	1.14305
1577.56572	1.12376
1575.63716	1.10016
1573.70859	1.07931
1571.78003	1.06561
1569.85146	1.05084
1567.92290	1.03393
1565.99434	1.02100
1564.06577	1.01075
1562.13721	1.00257
1560.20864	0.99636
1558.28008	0.98622
1556.35151	0.97655
1554.42295	0.97081
1552.49438	0.96523
1550.56582	0.95902
1548.63726	0.95176
1546.70869	0.94457
1544.78013	0.93687
1542.85156	0.92752
1540.92300	0.91464
1538.99443	0.89472
1537.06587	0.88020
1535.13730	0.87096
1533.20874	0.85891
1531.28018	0.84535
1529.35161	0.83538
1527.42305	0.82627
1525.49448	0.81683
1523.56592	0.80872
1521.63735	0.80087
1519.70879	0.79237
1517.78022	0.78483
1515.85166	0.77641
1513.92310	0.76791
1511.99453	0.76100
1510.06597	0.75522
1508.13740	0.74999
1506.20884	0.74100
1504.28027	0.73195
1502.35171	0.72668
1500.42314	0.72238
1498.49458	0.71795
1496.56602	0.71255
1494.63745	0.70699
1492.70889	0.70289
1490.78032	0.69959
1488.85176	0.69531
1486.92319	0.69044
1484.99463	0.68637
1483.06606	0.68329
1481.13750	0.68070
1479.20894	0.67837
1477.28037	0.67654
1475.35181	0.67531
1473.42324	0.67426
1471.49468	0.67178
1469.56611	0.66856
1467.63755	0.66618
1465.70898	0.66439
1463.78042	0.66248
1461.85186	0.66078
1459.92329	0.65995
1457.99473	0.65961
1456.06616	0.65807
1454.13760	0.65544
1452.20903	0.65332
1450.28047	0.65146
1448.35190	0.64959
1446.42334	0.64760
1444.49478	0.64557
1442.56621	0.64352
1440.63765	0.64148
1438.70908	0.63978
1436.78052	0.63810
1434.85195	0.63576
1432.92339	0.63341
1430.99482	0.63171
1429.06626	0.63035
1427.13770	0.62920
1425.20913	0.62849
1423.28057	0.62800
1421.35200	0.62752
1419.42344	0.62724
1417.49487	0.62658
1415.56631	0.62499
1413.63774	0.62335
1411.70918	0.62223
1409.78062	0.62163
1407.85205	0.62138
1405.92349	0.62148
1403.99492	0.62152
1402.06636	0.62099
1400.13779	0.62006
1398.20923	0.61876
1396.28066	0.61706
1394.35210	0.61478
1392.42354	0.61213
1390.49497	0.60975
1388.56641	0.60750
1386.63784	0.60484
1384.70928	0.60189
1382.78071	0.59925
1380.85215	0.59695
1378.92358	0.59489
1376.99502	0.59317
1375.06646	0.59199
1373.13789	0.59109
1371.20933	0.59012
1369.28076	0.58910
1367.35220	0.58793
1365.42363	0.58665
1363.49507	0.58552
1361.56650	0.58442
1359.63794	0.58307
1357.70937	0.58178
1355.78081	0.58077
1353.85225	0.57992
1351.92368	0.57911
1349.99512	0.57833
1348.06655	0.57754
1346.13799	0.57659
1344.20942	0.57556
1342.28086	0.57479
1340.35229	0.57443
1338.42373	0.57391
1336.49517	0.57298
1334.56660	0.57210
1332.63804	0.57147
1330.70947	0.57095
1328.78091	0.57050
1326.85234	0.57022
1324.92378	0.57001
1322.99521	0.56979
1321.06665	0.56966
1319.13809	0.56950
1317.20952	0.56913
1315.28096	0.56855
1313.35239	0.56780
1311.42383	0.56702
1309.49526	0.56639
1307.56670	0.56584
1305.63813	0.56517
1303.70957	0.56435
1301.78101	0.56350
1299.85244	0.56263
1297.92388	0.56179
1295.99531	0.56095
1294.06675	0.56008
1292.13818	0.55920
1290.20962	0.55834
1288.28105	0.55752
1286.35249	0.55670
1284.42393	0.55592
1282.49536	0.55528
1280.56680	0.55467
1278.63823	0.55381
1276.70967	0.55283
1274.78110	0.55206
1272.85254	0.55148
1270.92397	0.55096
1268.99541	0.55045
1267.06685	0.54982
1265.13828	0.54907
1263.20972	0.54838
1261.28115	0.54788
1259.35259	0.54742
1257.42402	0.54692
1255.49546	0.54639
1253.56689	0.54586
1251.63833	0.54551
1249.70977	0.54541
1247.78120	0.54528
1245.85264	0.54494
1243.92407	0.54441
1241.99551	0.54381
1240.06694	0.54318
1238.13838	0.54238
1236.20981	0.54135
1234.28125	0.54013
1232.35269	0.53885
1230.42412	0.53763
1228.49556	0.53650
1226.56699	0.53545
1224.63843	0.53460
1222.70986	0.53375
1220.78130	0.53264
1218.85273	0.53140
1216.92417	0.53035
1214.99561	0.52961
1213.06704	0.52890
1211.13848	0.52813
1209.20991	0.52746
1207.28135	0.52682
1205.35278	0.52617
1203.42422	0.52562
1201.49565	0.52507
1199.56709	0.52437
1197.63853	0.52356
1195.70996	0.52282
1193.78140	0.52223
1191.85283	0.52165
1189.92427	0.52103
1187.99570	0.52050
1186.06714	0.52019
1184.13857	0.52003
1182.21001	0.51997
1180.28145	0.52029
1178.35288	0.52101
1176.42432	0.52182
1174.49575	0.52256
1172.56719	0.52316
1170.63862	0.52357
1168.71006	0.52384
1166.78149	0.52400
1164.85293	0.52402
1162.92437	0.52394
1160.99580	0.52387
1159.06724	0.52376
1157.13867	0.52332
1155.21011	0.52235
1153.28154	0.52095
1151.35298	0.51935
1149.42441	0.51758
1147.49585	0.51541
1145.56729	0.51276
1143.63872	0.51002
1141.71016	0.50763
1139.78159	0.50562
1137.85303	0.50385
1135.92446	0.50223
1133.99590	0.50077
1132.06733	0.49953
1130.13877	0.49843
1128.21021	0.49733
1126.28164	0.49629
1124.35308	0.49542
1122.42451	0.49465
1120.49595	0.49391
1118.56738	0.49353
1116.63882	0.49366
1114.71025	0.49399
1112.78169	0.49433
1110.85312	0.49484
1108.92456	0.49562
1106.99600	0.49659
1105.06743	0.49773
1103.13887	0.49902
1101.21030	0.50051
1099.28174	0.50228
1097.35317	0.50437
1095.42461	0.50701
1093.49604	0.51060
1091.56748	0.51510
1089.63892	0.52033
1087.71035	0.52629
1085.78179	0.53289
1083.85322	0.53999
1081.92466	0.54708
1079.99609	0.55293
1078.06753	0.55627
1076.13896	0.55660
1074.21040	0.55412
1072.28184	0.54945
1070.35327	0.54324
1068.42471	0.53643
1066.49614	0.53000
1064.56758	0.52406
1062.63901	0.51842
1060.71045	0.51336
1058.78188	0.50893
1056.85332	0.50487
1054.92476	0.50117
1052.99619	0.49814
1051.06763	0.49580
1049.13906	0.49393
1047.21050	0.49259
1045.28193	0.49168
1043.35337	0.49083
1041.42480	0.49006
1039.49624	0.48967
1037.56768	0.48959
1035.63911	0.48943
1033.71055	0.48907
1031.78198	0.48863
1029.85342	0.48812
1027.92485	0.48781
1025.99629	0.48771
1024.06772	0.48749
1022.13916	0.48733
1020.21060	0.48767
1018.28203	0.48830
1016.35347	0.48885
1014.42490	0.48939
1012.49634	0.49011
1010.56777	0.49102
1008.63921	0.49212
1006.71064	0.49345
1004.78208	0.49512
1002.85352	0.49727
1000.92495	0.49998
998.99639	0.50318
997.06782	0.50677
995.13926	0.51061
993.21069	0.51438
991.28213	0.51778
989.35356	0.52052
987.42500	0.52216
985.49644	0.52279
983.56787	0.52304
981.63931	0.52349
979.71074	0.52440
977.78218	0.52585
975.85361	0.52814
973.92505	0.53117
971.99648	0.53452
970.06792	0.53805
968.13936	0.54174
966.21079	0.54561
964.28223	0.54991
962.35366	0.55481
960.42510	0.56000
958.49653	0.56514
956.56797	0.57043
954.63940	0.57607
952.71084	0.58182
950.78228	0.58761
948.85371	0.59378
946.92515	0.60044
944.99658	0.60708
943.06802	0.61317
941.13945	0.61893
939.21089	0.62478
937.28232	0.63060
935.35376	0.63642
933.42520	0.64243
931.49663	0.64841
929.56807	0.65424
927.63950	0.65991
925.71094	0.66510
923.78237	0.67008
921.85381	0.67583
919.92524	0.68265
917.99668	0.68996
916.06812	0.69754
914.13955	0.70527
912.21099	0.71263
910.28242	0.71989
908.35386	0.72787
906.42529	0.73629
904.49673	0.74467
902.56816	0.75340
900.63960	0.76191
898.71104	0.77025
896.78247	0.78034
894.85391	0.79191
892.92534	0.80362
890.99678	0.81447
889.06821	0.82363
887.13965	0.83257
885.21108	0.84289
883.28252	0.85433
881.35396	0.86559
879.42539	0.87660
877.49683	0.88841
875.56826	0.89976
873.63970	0.90940
871.71113	0.91924
869.78257	0.93197
867.85400	0.94678
865.92544	0.95929
863.99687	0.96869
862.06831	0.97822
860.13975	0.98986
858.21118	1.00320
856.28262	1.01501
854.35405	1.02485
852.42549	1.03594
850.49692	1.04756
848.56836	1.05762
846.63979	1.06810
844.71123	1.08078
842.78267	1.09377
840.85410	1.10527
838.92554	1.11504
836.99697	1.12408
835.06841	1.13388
833.13984	1.14644
831.21128	1.16103
829.28271	1.17294
827.35415	1.18356
825.42559	1.19631
823.49702	1.20945
821.56846	1.22233
819.63989	1.23615
817.71133	1.24811
815.78276	1.25480
813.85420	1.26317
811.92563	1.28218
809.99707	1.30540
808.06851	1.31923
806.13994	1.32544
804.21138	1.32730
802.28281	1.32363
800.35425	1.33012
798.42568	1.35593
796.49712	1.37809
794.56855	1.38253
792.63999	1.39033
790.71143	1.43208
788.78286	1.48713
786.85430	1.48082
784.92573	1.49562
782.99717	1.59535
781.06860	1.64051
779.14004	1.55793
777.21147	1.47465
775.28291	1.49133
773.35435	1.59832
771.42578	1.73835
769.49722	1.78988
767.56865	1.63750
765.64009	1.53998
763.71152	1.44391
761.78296	1.34942
759.85439	1.47883
757.92583	2.08276
755.99727	1.83811
754.06870	1.49084
752.14014	1.56917
750.21157	2.04219
748.28301	1.90814
746.35444	1.65602
744.42588	1.62212
742.49731	1.52969
740.56875	1.29050
738.64019	1.03762
736.71162	0.86696
734.78306	0.84306
732.85449	1.04130
730.92593	1.20476
728.99736	0.75064
727.06880	0.50259
725.14023	0.36741
723.21167	0.24846
721.28311	0.10442
719.35454	0.01303
717.42598	0.06907
715.49741	0.10274
713.56885	0.07165
711.64028	0.08067
709.71172	0.08115
707.78315	0.05388
705.85459	0.10774
703.92603	0.18170
701.99746	0.22051
700.06890	0.23933
698.14033	0.24476
696.21177	0.31434
694.28320	0.41455
692.35464	0.39744
690.42607	0.35609
688.49751	0.36893
686.56895	0.47765
684.64038	0.72300
682.71182	0.85827
680.78325	1.28270
678.85469	4.07313
676.92612	0.95101
674.99756	0.27486
673.06899	0.19277
671.14043	0.24698
669.21187	0.33316
667.28330	0.43502
665.35474	0.45719
663.42617	0.34041
661.49761	0.19590
659.56904	0.16871
657.64048	0.17078
655.71191	0.11120
653.78335	0.11366
651.85479	0.28724
649.92622	0.59146
647.99766	0.53342
646.06909	0.41970
644.14053	0.41414
642.21196	0.39315
640.28340	0.45355
638.35483	0.78446
636.42627	1.06646
634.49771	0.57623
632.56914	0.39953
630.64058	0.40163
628.71201	0.43587
626.78345	0.37522
624.85488	0.33737
622.92632	0.39135
620.99775	0.48148
619.06919	0.68937
617.14062	1.67180
615.21206	0.99903
613.28350	0.73171
611.35493	0.57547
609.42637	0.36112
607.49780	0.31170
605.56924	0.41834
603.64067	0.42595
601.71211	0.26603
599.78354	0.16519
597.85498	0.19392
595.92642	0.31819
593.99785	0.45820
592.06929	0.43316
590.14072	0.35466
588.21216	0.47344
586.28359	0.75881
584.35503	0.97192
582.42646	0.59523
580.49790	0.29731
578.56934	0.20623
576.64077	0.23262
574.71221	0.29628
572.78364	0.37593
570.85508	0.50580
568.92651	0.53340
566.99795	0.39441
565.06938	0.35408
563.14082	0.34648
561.21226	0.21406
559.28369	0.12152
557.35513	0.14814
555.42656	0.22679
553.49800	0.26862
551.56943	0.28003
549.64087	0.29696
547.71230	0.32562
545.78374	0.33274
543.85518	0.33712
541.92661	0.36154
539.99805	0.39275
538.06948	0.44105
536.14092	0.41366
534.21235	0.33085
532.28379	0.30237
530.35522	0.34455
528.42666	0.38798
526.49810	0.35335
524.56953	0.28761
522.64097	0.24659
520.71240	0.25984
518.78384	0.31358
516.85527	0.32244
514.92671	0.26392
512.99814	0.17681
511.06958	0.14924
509.14102	0.22537
507.21245	0.36005
505.28389	0.45128
503.35532	0.40667
501.42676	0.29456
499.49819	0.20856
