3997.91411	0.06362
3995.98555	0.06429
3994.05698	0.06514
3992.12842	0.06563
3990.19985	0.06598
3988.27129	0.06596
3986.34272	0.06561
3984.41416	0.06600
3982.48560	0.06707
3980.55703	0.06752
3978.62847	0.06717
3976.69990	0.06720
3974.77134	0.06797
3972.84277	0.06882
3970.91421	0.06926
3968.98564	0.06886
3967.05708	0.06798
3965.12852	0.06770
3963.19995	0.06849
3961.27139	0.06978
3959.34282	0.07053
3957.41426	0.07040
3955.48569	0.07009
3953.55713	0.07029
3951.62856	0.07137
3949.70000	0.07311
3947.77144	0.07418
3945.84287	0.07379
3943.91431	0.07367
3941.98574	0.07386
3940.05718	0.07236
3938.12861	0.07021
3936.20005	0.06935
3934.27148	0.07044
3932.34292	0.07319
3930.41436	0.07507
3928.48579	0.07413
3926.55723	0.07269
3924.62866	0.07324
3922.70010	0.07409
3920.77153	0.07375
3918.84297	0.07418
3916.91440	0.07514
3914.98584	0.07383
3913.05728	0.07080
3911.12871	0.06866
3909.20015	0.06837
3907.27158	0.07077
3905.34302	0.07664
3903.41445	0.08334
3901.48589	0.08556
3899.55732	0.08341
3897.62876	0.07949
3895.70020	0.07548
3893.77163	0.07433
3891.84307	0.07659
3889.91450	0.07779
3887.98594	0.07604
3886.05737	0.07624
3884.12881	0.07886
3882.20024	0.08040
3880.27168	0.08087
3878.34312	0.07904
3876.41455	0.07661
3874.48599	0.07804
3872.55742	0.08184
3870.62886	0.08496
3868.70029	0.08623
3866.77173	0.08459
3864.84316	0.08401
3862.91460	0.08502
3860.98604	0.08313
3859.05747	0.08048
3857.12891	0.08133
3855.20034	0.08635
3853.27178	0.09497
3851.34321	0.09752
3849.41465	0.08953
3847.48608	0.08275
3845.55752	0.08114
3843.62896	0.08419
3841.70039	0.08962
3839.77183	0.09544
3837.84326	0.09971
3835.91470	0.09931
3833.98613	0.09584
3832.05757	0.09260
3830.12900	0.09023
3828.20044	0.08941
3826.27187	0.09051
3824.34331	0.09240
3822.41475	0.09628
3820.48618	0.10290
3818.55762	0.10490
3816.62905	0.10259
3814.70049	0.09983
3812.77192	0.09508
3810.84336	0.09166
3808.91479	0.09281
3806.98623	0.09808
3805.05767	0.10309
3803.12910	0.10637
3801.20054	0.11103
3799.27197	0.11263
3797.34341	0.10977
3795.41484	0.10694
3793.48628	0.10382
3791.55771	0.10154
3789.62915	0.10143
3787.70059	0.10309
3785.77202	0.10644
3783.84346	0.10994
3781.91489	0.11166
3779.98633	0.11346
3778.05776	0.11544
3776.12920	0.11486
3774.20063	0.11421
3772.27207	0.11673
3770.34351	0.12209
3768.41494	0.12698
3766.48638	0.12902
3764.55781	0.12993
3762.62925	0.13077
3760.70068	0.13360
3758.77212	0.13913
3756.84355	0.14328
3754.91499	0.14551
3752.98643	0.15085
3751.05786	0.16187
3749.12930	0.17186
3747.20073	0.17323
3745.27217	0.17396
3743.34360	0.17831
3741.41504	0.18199
3739.48647	0.18611
3737.55791	0.19524
3735.62935	0.21033
3733.70078	0.22375
3731.77222	0.22650
3729.84365	0.22605
3727.91509	0.22950
3725.98652	0.23691
3724.05796	0.24394
3722.12939	0.24732
3720.20083	0.24780
3718.27227	0.24643
3716.34370	0.24586
3714.41514	0.25012
3712.48657	0.26405
3710.55801	0.28792
3708.62944	0.30658
3706.70088	0.31484
3704.77231	0.32328
3702.84375	0.33615
3700.91519	0.35292
3698.98662	0.36989
3697.05806	0.38582
3695.12949	0.40348
3693.20093	0.42383
3691.27236	0.44842
3689.34380	0.47878
3687.41523	0.50884
3685.48667	0.53168
3683.55811	0.55324
3681.62954	0.57970
3679.70098	0.61206
3677.77241	0.64822
3675.84385	0.69223
3673.91528	0.74715
3671.98672	0.78795
3670.05815	0.82518
3668.12959	0.87555
3666.20103	0.91757
3664.27246	0.95337
3662.34390	0.99562
3660.41533	1.04335
3658.48677	1.09134
3656.55820	1.14312
3654.62964	1.20046
3652.70107	1.24917
3650.77251	1.29526
3648.84395	1.35955
3646.91538	1.42792
3644.98682	1.47001
3643.05825	1.50349
3641.12969	1.54199
3639.20112	1.58657
3637.27256	1.63246
3635.34399	1.67853
3633.41543	1.72632
3631.48687	1.77256
3629.55830	1.82073
3627.62974	1.88009
3625.70117	1.92822
3623.77261	1.95743
3621.84404	1.98714
3619.91548	2.02456
3617.98691	2.07057
3616.05835	2.11180
3614.12979	2.14488
3612.20122	2.18116
3610.27266	2.21950
3608.34409	2.26056
3606.41553	2.30398
3604.48696	2.34218
3602.55840	2.37736
3600.62983	2.41769
3598.70127	2.46050
3596.77271	2.50056
3594.84414	2.54194
3592.91558	2.58384
3590.98701	2.61985
3589.05845	2.65276
3587.12988	2.69559
3585.20132	2.74271
3583.27275	2.77909
3581.34419	2.81295
3579.41562	2.85173
3577.48706	2.89369
3575.55850	2.93576
3573.62993	2.97748
3571.70137	3.01723
3569.77280	3.05783
3567.84424	3.10636
3565.91567	3.16458
3563.98711	3.21302
3562.05854	3.24752
3560.12998	3.28256
3558.20142	3.32334
3556.27285	3.36862
3554.34429	3.41380
3552.41572	3.46023
3550.48716	3.50822
3548.55859	3.55398
3546.63003	3.60029
3544.70146	3.65065
3542.77290	3.70035
3540.84434	3.74440
3538.91577	3.78417
3536.98721	3.82506
3535.05864	3.87119
3533.13008	3.91786
3531.20151	3.96427
3529.27295	4.01453
3527.34438	4.06725
3525.41582	4.11601
3523.48726	4.16137
3521.55869	4.20986
3519.63013	4.25933
3517.70156	4.30448
3515.77300	4.34605
3513.84443	4.39033
3511.91587	4.43816
3509.98730	4.48685
3508.05874	4.53620
3506.13018	4.58504
3504.20161	4.63165
3502.27305	4.67950
3500.34448	4.73274
3498.41592	4.78194
3496.48735	4.82407
3494.55879	4.86907
3492.63022	4.91783
3490.70166	4.96543
3488.77310	5.01237
3486.84453	5.06035
3484.91597	5.10892
3482.98740	5.15640
3481.05884	5.19834
3479.13027	5.23618
3477.20171	5.28298
3475.27314	5.33949
3473.34458	5.39382
3471.41602	5.43876
3469.48745	5.47710
3467.55889	5.51783
3465.63032	5.56590
3463.70176	5.62198
3461.77319	5.67335
3459.84463	5.71212
3457.91606	5.75128
3455.98750	5.80047
3454.05894	5.86288
3452.13037	5.93552
3450.20181	5.99211
3448.27324	6.01652
3446.34468	6.04581
3444.41611	6.10553
3442.48755	6.17736
3440.55898	6.23961
3438.63042	6.27617
3436.70186	6.29486
3434.77329	6.32318
3432.84473	6.36349
3430.91616	6.41065
3428.98760	6.47414
3427.05903	6.54992
3425.13047	6.63204
3423.20190	6.70311
3421.27334	6.75595
3419.34478	6.80678
3417.41621	6.85392
3415.48765	6.87676
3413.55908	6.88828
3411.63052	6.92684
3409.70195	6.98641
3407.77339	7.04676
3405.84482	7.08301
3403.91626	7.10228
3401.98770	7.12546
3400.05913	7.15619
3398.13057	7.20732
3396.20200	7.25672
3394.27344	7.27879
3392.34487	7.28425
3390.41631	7.31254
3388.48774	7.36320
3386.55918	7.40891
3384.63062	7.45623
3382.70205	7.52238
3380.77349	7.56204
3378.84492	7.53283
3376.91636	7.51949
3374.98779	7.55212
3373.05923	7.57140
3371.13066	7.57355
3369.20210	7.59481
3367.27354	7.65742
3365.34497	7.74047
3363.41641	7.73596
3361.48784	7.64800
3359.55928	7.62043
3357.63071	7.68633
3355.70215	7.78056
3353.77358	7.82373
3351.84502	7.81766
3349.91646	7.83131
3347.98789	7.91756
3346.05933	8.01567
3344.13076	8.00052
3342.20220	7.92294
3340.27363	7.90495
3338.34507	7.95429
3336.41650	7.98597
3334.48794	7.96048
3332.55937	7.94202
3330.63081	7.99224
3328.70225	8.02961
3326.77368	8.00572
3324.84512	7.97982
3322.91655	7.93129
3320.98799	7.86806
3319.05942	7.83938
3317.13086	7.84534
3315.20229	7.86815
3313.27373	7.93937
3311.34517	8.03268
3309.41660	8.08310
3307.48804	8.08662
3305.55947	8.04696
3303.63091	8.00352
3301.70234	7.97863
3299.77378	7.98610
3297.84521	8.00442
3295.91665	7.99728
3293.98809	7.99965
3292.05952	8.03489
3290.13096	8.04367
3288.20239	8.02257
3286.27383	8.02462
3284.34526	8.02384
3282.41670	8.05510
3280.48813	8.13072
3278.55957	8.11541
3276.63101	8.02092
3274.70244	7.99603
3272.77388	7.97521
3270.84531	7.90628
3268.91675	7.95537
3266.98818	8.10211
3265.05962	8.10387
3263.13105	7.96085
3261.20249	7.89669
3259.27393	7.97987
3257.34536	8.11059
3255.41680	8.17732
3253.48823	8.20456
3251.55967	8.21526
3249.63110	8.16568
3247.70254	8.09178
3245.77397	8.03800
3243.84541	8.01869
3241.91685	8.01466
3239.98828	7.96562
3238.05972	7.89262
3236.13115	7.91228
3234.20259	8.00847
3232.27402	8.04540
3230.34546	7.99963
3228.41689	7.91449
3226.48833	7.87650
3224.55977	7.93348
3222.63120	8.00015
3220.70264	8.00104
3218.77407	7.91882
3216.84551	7.77280
3214.91694	7.69571
3212.98838	7.75756
3211.05981	7.81532
3209.13125	7.76229
3207.20269	7.72947
3205.27412	7.78385
3203.34556	7.80705
3201.41699	7.71811
3199.48843	7.58579
3197.55986	7.49475
3195.63130	7.45953
3193.70273	7.44614
3191.77417	7.42342
3189.84561	7.39636
3187.91704	7.37173
3185.98848	7.32611
3184.05991	7.26238
3182.13135	7.20889
3180.20278	7.17337
3178.27422	7.13180
3176.34565	7.06479
3174.41709	6.98346
3172.48853	6.92220
3170.55996	6.89466
3168.63140	6.84986
3166.70283	6.76167
3164.77427	6.68171
3162.84570	6.63957
3160.91714	6.60009
3158.98857	6.54780
3157.06001	6.50494
3155.13145	6.45518
3153.20288	6.38644
3151.27432	6.32164
3149.34575	6.25762
3147.41719	6.18118
3145.48862	6.10298
3143.56006	6.03110
3141.63149	5.95972
3139.70293	5.88474
3137.77437	5.80536
3135.84580	5.72442
3133.91724	5.65126
3131.98867	5.58988
3130.06011	5.53515
3128.13154	5.47385
3126.20298	5.39797
3124.27441	5.31981
3122.34585	5.25045
3120.41729	5.18653
3118.48872	5.12102
3116.56016	5.05037
3114.63159	4.97642
3112.70303	4.90203
3110.77446	4.82748
3108.84590	4.75666
3106.91733	4.69303
3104.98877	4.63219
3103.06021	4.57016
3101.13164	4.50464
3099.20308	4.43550
3097.27451	4.36757
3095.34595	4.30379
3093.41738	4.24175
3091.48882	4.17985
3089.56025	4.11940
3087.63169	4.05948
3085.70312	3.99749
3083.77456	3.93249
3081.84600	3.86720
3079.91743	3.80575
3077.98887	3.74805
3076.06030	3.69089
3074.13174	3.63412
3072.20317	3.57810
3070.27461	3.52187
3068.34604	3.46637
3066.41748	3.41092
3064.48892	3.35391
3062.56035	3.29764
3060.63179	3.24413
3058.70322	3.19133
3056.77466	3.13786
3054.84609	3.08545
3052.91753	3.03470
3050.98896	2.98464
3049.06040	2.93491
3047.13184	2.88517
3045.20327	2.83550
3043.27471	2.78724
3041.34614	2.74089
3039.41758	2.69479
3037.48901	2.64821
3035.56045	2.60269
3033.63188	2.55884
3031.70332	2.51502
3029.77476	2.47056
3027.84619	2.42743
3025.91763	2.38637
3023.98906	2.34521
3022.06050	2.30346
3020.13193	2.26305
3018.20337	2.22386
3016.27480	2.18467
3014.34624	2.14603
3012.41768	2.10788
3010.48911	2.07006
3008.56055	2.03357
3006.63198	1.99796
3004.70342	1.96235
3002.77485	1.92759
3000.84629	1.89431
2998.91772	1.86188
2996.98916	1.82963
2995.06060	1.79770
2993.13203	1.76643
2991.20347	1.73559
2989.27490	1.70536
2987.34634	1.67609
2985.41777	1.64728
2983.48921	1.61852
2981.56064	1.59039
2979.63208	1.56330
2977.70352	1.53676
2975.77495	1.51056
2973.84639	1.48517
2971.91782	1.46040
2969.98926	1.43553
2968.06069	1.41106
2966.13213	1.38761
2964.20356	1.36454
2962.27500	1.34131
2960.34644	1.31799
2958.41787	1.29493
2956.48931	1.27248
2954.56074	1.24997
2952.63218	1.22685
2950.70361	1.20398
2948.77505	1.18183
2946.84648	1.16017
2944.91792	1.13894
2942.98936	1.11816
2941.06079	1.09825
2939.13223	1.07958
2937.20366	1.06168
2935.27510	1.04357
2933.34653	1.02506
2931.41797	1.00696
2929.48940	0.98969
2927.56084	0.97314
2925.63228	0.95657
2923.70371	0.93974
2921.77515	0.92298
2919.84658	0.90574
2917.91802	0.88797
2915.98945	0.87053
2914.06089	0.85352
2912.13232	0.83692
2910.20376	0.82105
2908.27520	0.80584
2906.34663	0.79104
2904.41807	0.77687
2902.48950	0.76309
2900.56094	0.74922
2898.63237	0.73565
2896.70381	0.72281
2894.77524	0.71042
2892.84668	0.69808
2890.91812	0.68598
2888.98955	0.67424
2887.06099	0.66278
2885.13242	0.65200
2883.20386	0.64190
2881.27529	0.63174
2879.34673	0.62147
2877.41816	0.61170
2875.48960	0.60236
2873.56104	0.59275
2871.63247	0.58269
2869.70391	0.57248
2867.77534	0.56233
2865.84678	0.55220
2863.91821	0.54220
2861.98965	0.53259
2860.06108	0.52337
2858.13252	0.51442
2856.20396	0.50592
2854.27539	0.49796
2852.34683	0.48990
2850.41826	0.48136
2848.48970	0.47267
2846.56113	0.46405
2844.63257	0.45579
2842.70400	0.44832
2840.77544	0.44160
2838.84687	0.43521
2836.91831	0.42893
2834.98975	0.42279
2833.06118	0.41674
2831.13262	0.41061
2829.20405	0.40444
2827.27549	0.39843
2825.34692	0.39264
2823.41836	0.38682
2821.48979	0.38101
2819.56123	0.37545
2817.63267	0.37002
2815.70410	0.36458
2813.77554	0.35919
2811.84697	0.35390
2809.91841	0.34869
2807.98984	0.34349
2806.06128	0.33844
2804.13271	0.33368
2802.20415	0.32893
2800.27559	0.32410
2798.34702	0.31947
2796.41846	0.31503
2794.48989	0.31059
2792.56133	0.30621
2790.63276	0.30195
2788.70420	0.29774
2786.77563	0.29362
2784.84707	0.28963
2782.91851	0.28564
2780.98994	0.28178
2779.06138	0.27819
2777.13281	0.27468
2775.20425	0.27103
2773.27568	0.26725
2771.34712	0.26348
2769.41855	0.25997
2767.48999	0.25674
2765.56143	0.25350
2763.63286	0.25019
2761.70430	0.24709
2759.77573	0.24421
2757.84717	0.24128
2755.91860	0.23826
2753.99004	0.23534
2752.06147	0.23253
2750.13291	0.22974
2748.20435	0.22700
2746.27578	0.22432
2744.34722	0.22176
2742.41865	0.21933
2740.49009	0.21691
2738.56152	0.21448
2736.63296	0.21204
2734.70439	0.20957
2732.77583	0.20715
2730.84727	0.20492
2728.91870	0.20280
2726.99014	0.20072
2725.06157	0.19873
2723.13301	0.19673
2721.20444	0.19465
2719.27588	0.19268
2717.34731	0.19086
2715.41875	0.18906
2713.49019	0.18731
2711.56162	0.18559
2709.63306	0.18385
2707.70449	0.18217
2705.77593	0.18060
2703.84736	0.17901
2701.91880	0.17742
2699.99023	0.17608
2698.06167	0.17494
2696.13311	0.17368
2694.20454	0.17226
2692.27598	0.17091
2690.34741	0.16965
2688.41885	0.16842
2686.49028	0.16722
2684.56172	0.16596
2682.63315	0.16466
2680.70459	0.16346
2678.77603	0.16245
2676.84746	0.16164
2674.91890	0.16082
2672.99033	0.15987
2671.06177	0.15891
2669.13320	0.15795
2667.20464	0.15698
2665.27607	0.15602
2663.34751	0.15507
2661.41895	0.15435
2659.49038	0.15372
2657.56182	0.15294
2655.63325	0.15224
2653.70469	0.15176
2651.77612	0.15132
2649.84756	0.15079
2647.91899	0.15016
2645.99043	0.14946
2644.06187	0.14883
2642.13330	0.14830
2640.20474	0.14788
2638.27617	0.14756
2636.34761	0.14724
2634.41904	0.14681
2632.49048	0.14621
2630.56191	0.14557
2628.63335	0.14514
2626.70479	0.14496
2624.77622	0.14486
2622.84766	0.14467
2620.91909	0.14442
2618.99053	0.14418
2617.06196	0.14397
2615.13340	0.14375
2613.20483	0.14351
2611.27627	0.14342
2609.34771	0.14343
2607.41914	0.14342
2605.49058	0.14338
2603.56201	0.14330
2601.63345	0.14325
2599.70488	0.14327
2597.77632	0.14335
2595.84775	0.14352
2593.91919	0.14372
2591.99062	0.14383
2590.06206	0.14385
2588.13350	0.14397
2586.20493	0.14428
2584.27637	0.14458
2582.34780	0.14478
2580.41924	0.14495
2578.49067	0.14528
2576.56211	0.14575
2574.63354	0.14617
2572.70498	0.14649
2570.77642	0.14677
2568.84785	0.14702
2566.91929	0.14732
2564.99072	0.14771
2563.06216	0.14820
2561.13359	0.14875
2559.20503	0.14932
2557.27646	0.14977
2555.34790	0.15013
2553.41934	0.15061
2551.49077	0.15113
2549.56221	0.15154
2547.63364	0.15204
2545.70508	0.15271
2543.77651	0.15342
2541.84795	0.15404
2539.91938	0.15463
2537.99082	0.15528
2536.06226	0.15600
2534.13369	0.15664
2532.20513	0.15710
2530.27656	0.15757
2528.34800	0.15821
2526.41943	0.15901
2524.49087	0.15979
2522.56230	0.16055
2520.63374	0.16147
2518.70518	0.16248
2516.77661	0.16333
2514.84805	0.16399
2512.91948	0.16463
2510.99092	0.16533
2509.06235	0.16602
2507.13379	0.16677
2505.20522	0.16768
2503.27666	0.16864
2501.34810	0.16949
2499.41953	0.17026
2497.49097	0.17105
2495.56240	0.17198
2493.63384	0.17296
2491.70527	0.17378
2489.77671	0.17444
2487.84814	0.17515
2485.91958	0.17606
2483.99102	0.17704
2482.06245	0.17798
2480.13389	0.17889
2478.20532	0.17975
2476.27676	0.18062
2474.34819	0.18154
2472.41963	0.18247
2470.49106	0.18345
2468.56250	0.18444
2466.63394	0.18526
2464.70537	0.18595
2462.77681	0.18677
2460.84824	0.18778
2458.91968	0.18881
2456.99111	0.18973
2455.06255	0.19057
2453.13398	0.19148
2451.20542	0.19249
2449.27686	0.19353
2447.34829	0.19461
2445.41973	0.19574
2443.49116	0.19684
2441.56260	0.19782
2439.63403	0.19881
2437.70547	0.19985
2435.77690	0.20081
2433.84834	0.20173
2431.91978	0.20273
2429.99121	0.20383
2428.06265	0.20501
2426.13408	0.20615
2424.20552	0.20714
2422.27695	0.20818
2420.34839	0.20936
2418.41982	0.21043
2416.49126	0.21141
2414.56270	0.21254
2412.63413	0.21379
2410.70557	0.21493
2408.77700	0.21591
2406.84844	0.21692
2404.91987	0.21808
2402.99131	0.21931
2401.06274	0.22062
2399.13418	0.22196
2397.20562	0.22321
2395.27705	0.22446
2393.34849	0.22579
2391.41992	0.22732
2389.49136	0.22960
2387.56279	0.23369
2385.63423	0.24101
2383.70566	0.25281
2381.77710	0.26917
2379.84854	0.28933
2377.91997	0.31307
2375.99141	0.34117
2374.06284	0.37441
2372.13428	0.41254
2370.20571	0.45437
2368.27715	0.49806
2366.34858	0.54044
2364.42002	0.57729
2362.49146	0.60435
2360.56289	0.61827
2358.63433	0.61797
2356.70576	0.59953
2354.77720	0.56284
2352.84863	0.51619
2350.92007	0.47005
2348.99150	0.44287
2347.06294	0.44310
2345.13437	0.47061
2343.20581	0.51104
2341.27725	0.53319
2339.34868	0.53323
2337.42012	0.52772
2335.49155	0.52237
2333.56299	0.51505
2331.63442	0.50794
2329.70586	0.50302
2327.77729	0.49701
2325.84873	0.48554
2323.92017	0.46934
2321.99160	0.45212
2320.06304	0.43610
2318.13447	0.42147
2316.20591	0.40827
2314.27734	0.39770
2312.34878	0.39074
2310.42021	0.38534
2308.49165	0.37797
2306.56309	0.36802
2304.63452	0.35829
2302.70596	0.35181
2300.77739	0.34815
2298.84883	0.34509
2296.92026	0.34206
2294.99170	0.33912
2293.06313	0.33601
2291.13457	0.33294
2289.20601	0.33026
2287.27744	0.32766
2285.34888	0.32510
2283.42031	0.32374
2281.49175	0.32485
2279.56318	0.32794
2277.63462	0.33130
2275.70605	0.33416
2273.77749	0.33659
2271.84893	0.33870
2269.92036	0.34055
2267.99180	0.34226
2266.06323	0.34399
2264.13467	0.34575
2262.20610	0.34725
2260.27754	0.34841
2258.34897	0.34935
2256.42041	0.35026
2254.49185	0.35146
2252.56328	0.35306
2250.63472	0.35467
2248.70615	0.35616
2246.77759	0.35779
2244.84902	0.35952
2242.92046	0.36115
2240.99189	0.36283
2239.06333	0.36475
2237.13477	0.36678
2235.20620	0.36881
2233.27764	0.37087
2231.34907	0.37297
2229.42051	0.37513
2227.49194	0.37731
2225.56338	0.37949
2223.63481	0.38169
2221.70625	0.38384
2219.77769	0.38592
2217.84912	0.38797
2215.92056	0.38998
2213.99199	0.39203
2212.06343	0.39416
2210.13486	0.39634
2208.20630	0.39852
2206.27773	0.40064
2204.34917	0.40268
2202.42061	0.40472
2200.49204	0.40679
2198.56348	0.40882
2196.63491	0.41073
2194.70635	0.41263
2192.77778	0.41465
2190.84922	0.41670
2188.92065	0.41858
2186.99209	0.42038
2185.06353	0.42224
2183.13496	0.42392
2181.20640	0.42533
2179.27783	0.42683
2177.34927	0.42855
2175.42070	0.43025
2173.49214	0.43178
2171.56357	0.43315
2169.63501	0.43446
2167.70645	0.43570
2165.77788	0.43692
2163.84932	0.43822
2161.92075	0.43948
2159.99219	0.44057
2158.06362	0.44158
2156.13506	0.44264
2154.20649	0.44365
2152.27793	0.44451
2150.34937	0.44524
2148.42080	0.44585
2146.49224	0.44645
2144.56367	0.44711
2142.63511	0.44773
2140.70654	0.44816
2138.77798	0.44838
2136.84941	0.44849
2134.92085	0.44863
2132.99229	0.44869
2131.06372	0.44856
2129.13516	0.44832
2127.20659	0.44820
2125.27803	0.44819
2123.34946	0.44796
2121.42090	0.44744
2119.49233	0.44680
2117.56377	0.44619
2115.63521	0.44559
2113.70664	0.44501
2111.77808	0.44439
2109.84951	0.44353
2107.92095	0.44247
2105.99238	0.44140
2104.06382	0.44040
2102.13525	0.43936
2100.20669	0.43815
2098.27812	0.43675
2096.34956	0.43529
2094.42100	0.43384
2092.49243	0.43231
2090.56387	0.43076
2088.63530	0.42920
2086.70674	0.42748
2084.77817	0.42563
2082.84961	0.42389
2080.92104	0.42221
2078.99248	0.42039
2077.06392	0.41840
2075.13535	0.41620
2073.20679	0.41395
2071.27822	0.41179
2069.34966	0.40969
2067.42109	0.40759
2065.49253	0.40550
2063.56396	0.40316
2061.63540	0.40059
2059.70684	0.39810
2057.77827	0.39565
2055.84971	0.39313
2053.92114	0.39063
2051.99258	0.38822
2050.06401	0.38583
2048.13545	0.38332
2046.20688	0.38063
2044.27832	0.37801
2042.34976	0.37554
2040.42119	0.37304
2038.49263	0.37041
2036.56406	0.36765
2034.63550	0.36487
2032.70693	0.36209
2030.77837	0.35932
2028.84980	0.35659
2026.92124	0.35394
2024.99268	0.35127
2023.06411	0.34855
2021.13555	0.34588
2019.20698	0.34342
2017.27842	0.34102
2015.34985	0.33820
2013.42129	0.33511
2011.49272	0.33227
2009.56416	0.32969
2007.63560	0.32707
2005.70703	0.32438
2003.77847	0.32172
2001.84990	0.31913
1999.92134	0.31660
1997.99277	0.31404
1996.06421	0.31150
1994.13564	0.30933
1992.20708	0.30743
1990.27852	0.30502
1988.34995	0.30220
1986.42139	0.29941
1984.49282	0.29673
1982.56426	0.29430
1980.63569	0.29208
1978.70713	0.28990
1976.77856	0.28768
1974.85000	0.28546
1972.92144	0.28322
1970.99287	0.28111
1969.06431	0.27953
1967.13574	0.27817
1965.20718	0.27609
1963.27861	0.27358
1961.35005	0.27135
1959.42148	0.26934
1957.49292	0.26749
1955.56436	0.26575
1953.63579	0.26392
1951.70723	0.26206
1949.77866	0.26048
1947.85010	0.25924
1945.92153	0.25822
1943.99297	0.25746
1942.06440	0.25637
1940.13584	0.25415
1938.20728	0.25172
1936.27871	0.25006
1934.35015	0.24885
1932.42158	0.24765
1930.49302	0.24636
1928.56445	0.24524
1926.63589	0.24437
1924.70732	0.24398
1922.77876	0.24382
1920.85020	0.24306
1918.92163	0.24205
1916.99307	0.24088
1915.06450	0.23914
1913.13594	0.23775
1911.20737	0.23735
1909.27881	0.23719
1907.35024	0.23640
1905.42168	0.23524
1903.49312	0.23436
1901.56455	0.23370
1899.63599	0.23315
1897.70742	0.23299
1895.77886	0.23313
1893.85029	0.23291
1891.92173	0.23256
1889.99316	0.23280
1888.06460	0.23262
1886.13604	0.23166
1884.20747	0.23093
1882.27891	0.23055
1880.35034	0.23028
1878.42178	0.23013
1876.49321	0.23012
1874.56465	0.23013
1872.63608	0.23056
1870.70752	0.23226
1868.77896	0.23490
1866.85039	0.23534
1864.92183	0.23328
1862.99326	0.23175
1861.06470	0.23155
1859.13613	0.23192
1857.20757	0.23216
1855.27900	0.23234
1853.35044	0.23271
1851.42187	0.23339
1849.49331	0.23448
1847.56475	0.23616
1845.63618	0.23838
1843.70762	0.24011
1841.77905	0.23974
1839.85049	0.23879
1837.92192	0.23916
1835.99336	0.24004
1834.06479	0.24081
1832.13623	0.24241
1830.20767	0.24541
1828.27910	0.24755
1826.35054	0.24807
1824.42197	0.24869
1822.49341	0.24899
1820.56484	0.24932
1818.63628	0.25046
1816.70771	0.25209
1814.77915	0.25372
1812.85059	0.25600
1810.92202	0.25894
1808.99346	0.26109
1807.06489	0.26228
1805.13633	0.26373
1803.20776	0.26643
1801.27920	0.27008
1799.35063	0.27335
1797.42207	0.27557
1795.49351	0.27811
1793.56494	0.28199
1791.63638	0.28638
1789.70781	0.28841
1787.77925	0.28912
1785.85068	0.29162
1783.92212	0.29559
1781.99355	0.30006
1780.06499	0.30456
1778.13643	0.30857
1776.20786	0.31271
1774.27930	0.31861
1772.35073	0.32664
1770.42217	0.33282
1768.49360	0.33599
1766.56504	0.33924
1764.63647	0.34374
1762.70791	0.35014
1760.77935	0.35838
1758.85078	0.36553
1756.92222	0.37264
1754.99365	0.38022
1753.06509	0.38768
1751.13652	0.39818
1749.20796	0.41115
1747.27939	0.42160
1745.35083	0.42938
1743.42227	0.43798
1741.49370	0.44815
1739.56514	0.46043
1737.63657	0.47263
1735.70801	0.48413
1733.77944	0.50212
1731.85088	0.52131
1729.92231	0.53452
1727.99375	0.54794
1726.06519	0.56338
1724.13662	0.58149
1722.20806	0.60161
1720.27949	0.62102
1718.35093	0.64529
1716.42236	0.67971
1714.49380	0.70853
1712.56523	0.73007
1710.63667	0.75207
1708.70811	0.77756
1706.77954	0.80786
1704.85098	0.84391
1702.92241	0.87558
1700.99385	0.90766
1699.06528	0.95531
1697.13672	0.99734
1695.20815	1.03816
1693.27959	1.07679
1691.35103	1.10915
1689.42246	1.14871
1687.49390	1.19124
1685.56533	1.23318
1683.63677	1.29660
1681.70820	1.35817
1679.77964	1.39594
1677.85107	1.43323
1675.92251	1.47826
1673.99395	1.53484
1672.06538	1.58485
1670.13682	1.63425
1668.20825	1.69655
1666.27969	1.74507
1664.35112	1.78683
1662.42256	1.84081
1660.49399	1.90131
1658.56543	1.94840
1656.63687	1.98763
1654.70830	2.02557
1652.77974	2.08458
1650.85117	2.13797
1648.92261	2.15791
1646.99404	2.18405
1645.06548	2.21089
1643.13691	2.22737
1641.20835	2.23840
1639.27979	2.24954
1637.35122	2.25686
1635.42266	2.25668
1633.49409	2.24828
1631.56553	2.23444
1629.63696	2.21777
1627.70840	2.19096
1625.77983	2.15937
1623.85127	2.12010
1621.92271	2.07089
1619.99414	2.02522
1618.06558	1.98176
1616.13701	1.92106
1614.20845	1.85692
1612.27988	1.80723
1610.35132	1.75647
1608.42275	1.70161
1606.49419	1.64726
1604.56562	1.59714
1602.63706	1.54858
1600.70850	1.50077
1598.77993	1.45677
1596.85137	1.41596
1594.92280	1.37647
1592.99424	1.33783
1591.06567	1.30208
1589.13711	1.26883
1587.20854	1.23830
1585.27998	1.21018
1583.35142	1.18364
1581.42285	1.15941
1579.49429	1.13951
1577.56572	1.12292
1575.63716	1.10143
1573.70859	1.08016
1571.78003	1.06691
1569.85146	1.05473
1567.92290	1.04008
1565.99434	1.02807
1564.06577	1.01911
1562.13721	1.01287
1560.20864	1.01089
1558.28008	1.00938
1556.35151	1.00243
1554.42295	0.99571
1552.49438	0.99048
1550.56582	0.98562
1548.63726	0.97932
1546.70869	0.97267
1544.78013	0.96666
1542.85156	0.95996
1540.92300	0.94805
1538.99443	0.92378
1537.06587	0.90374
1535.13730	0.89213
1533.20874	0.87843
1531.28018	0.86179
1529.35161	0.84942
1527.42305	0.83972
1525.49448	0.83047
1523.56592	0.82269
1521.63735	0.81488
1519.70879	0.80485
1517.78022	0.79556
1515.85166	0.78503
1513.92310	0.77383
1511.99453	0.76540
1510.06597	0.76009
1508.13740	0.75708
1506.20884	0.74744
1504.28027	0.73281
1502.35171	0.72422
1500.42314	0.71905
1498.49458	0.71504
1496.56602	0.70923
1494.63745	0.70157
1492.70889	0.69636
1490.78032	0.69409
1488.85176	0.69096
1486.92319	0.68457
1484.99463	0.67814
1483.06606	0.67370
1481.13750	0.67067
1479.20894	0.66835
1477.28037	0.66744
1475.35181	0.66828
1473.42324	0.66940
1471.49468	0.66707
1469.56611	0.66212
1467.63755	0.65877
1465.70898	0.65735
1463.78042	0.65573
1461.85186	0.65383
1459.92329	0.65417
1457.99473	0.65696
1456.06616	0.65671
1454.13760	0.65148
1452.20903	0.64711
1450.28047	0.64432
1448.35190	0.64233
1446.42334	0.63974
1444.49478	0.63673
1442.56621	0.63426
1440.63765	0.63232
1438.70908	0.63109
1436.78052	0.62999
1434.85195	0.62715
1432.92339	0.62397
1430.99482	0.62216
1429.06626	0.62089
1427.13770	0.61956
1425.20913	0.61917
1423.28057	0.61965
1421.35200	0.62013
1419.42344	0.62076
1417.49487	0.62000
1415.56631	0.61724
1413.63774	0.61503
1411.70918	0.61421
1409.78062	0.61415
1407.85205	0.61449
1405.92349	0.61545
1403.99492	0.61605
1402.06636	0.61556
1400.13779	0.61523
1398.20923	0.61512
1396.28066	0.61401
1394.35210	0.61102
1392.42354	0.60664
1390.49497	0.60296
1388.56641	0.60049
1386.63784	0.59758
1384.70928	0.59349
1382.78071	0.58965
1380.85215	0.58673
1378.92358	0.58445
1376.99502	0.58291
1375.06646	0.58203
1373.13789	0.58054
1371.20933	0.57853
1369.28076	0.57719
1367.35220	0.57601
1365.42363	0.57475
1363.49507	0.57415
1361.56650	0.57331
1359.63794	0.57131
1357.70937	0.56950
1355.78081	0.56846
1353.85225	0.56759
1351.92368	0.56664
1349.99512	0.56588
1348.06655	0.56513
1346.13799	0.56427
1344.20942	0.56366
1342.28086	0.56368
1340.35229	0.56422
1338.42373	0.56401
1336.49517	0.56236
1334.56660	0.56062
1332.63804	0.55975
1330.70947	0.55949
1328.78091	0.55935
1326.85234	0.55934
1324.92378	0.55946
1322.99521	0.55961
1321.06665	0.55989
1319.13809	0.56019
1317.20952	0.55999
1315.28096	0.55942
1313.35239	0.55893
1311.42383	0.55838
1309.49526	0.55768
1307.56670	0.55698
1305.63813	0.55641
1303.70957	0.55601
1301.78101	0.55552
1299.85244	0.55472
1297.92388	0.55379
1295.99531	0.55288
1294.06675	0.55198
1292.13818	0.55116
1290.20962	0.55048
1288.28105	0.54974
1286.35249	0.54879
1284.42393	0.54772
1282.49536	0.54670
1280.56680	0.54575
1278.63823	0.54481
1276.70967	0.54396
1274.78110	0.54323
1272.85254	0.54263
1270.92397	0.54223
1268.99541	0.54185
1267.06685	0.54129
1265.13828	0.54055
1263.20972	0.53969
1261.28115	0.53897
1259.35259	0.53838
1257.42402	0.53767
1255.49546	0.53716
1253.56689	0.53710
1251.63833	0.53718
1249.70977	0.53714
1247.78120	0.53696
1245.85264	0.53675
1243.92407	0.53646
1241.99551	0.53587
1240.06694	0.53495
1238.13838	0.53391
1236.20981	0.53269
1234.28125	0.53126
1232.35269	0.52980
1230.42412	0.52835
1228.49556	0.52692
1226.56699	0.52559
1224.63843	0.52439
1222.70986	0.52328
1220.78130	0.52215
1218.85273	0.52097
1216.92417	0.51994
1214.99561	0.51918
1213.06704	0.51851
1211.13848	0.51784
1209.20991	0.51715
1207.28135	0.51649
1205.35278	0.51576
1203.42422	0.51486
1201.49565	0.51402
1199.56709	0.51347
1197.63853	0.51300
1195.70996	0.51243
1193.78140	0.51187
1191.85283	0.51145
1189.92427	0.51118
1187.99570	0.51096
1186.06714	0.51079
1184.13857	0.51079
1182.21001	0.51102
1180.28145	0.51147
1178.35288	0.51227
1176.42432	0.51327
1174.49575	0.51407
1172.56719	0.51449
1170.63862	0.51464
1168.71006	0.51475
1166.78149	0.51484
1164.85293	0.51467
1162.92437	0.51417
1160.99580	0.51365
1159.06724	0.51322
1157.13867	0.51261
1155.21011	0.51172
1153.28154	0.51062
1151.35298	0.50923
1149.42441	0.50743
1147.49585	0.50543
1145.56729	0.50339
1143.63872	0.50113
1141.71016	0.49871
1139.78159	0.49652
1137.85303	0.49471
1135.92446	0.49306
1133.99590	0.49153
1132.06733	0.49032
1130.13877	0.48943
1128.21021	0.48857
1126.28164	0.48748
1124.35308	0.48633
1122.42451	0.48547
1120.49595	0.48490
1118.56738	0.48457
1116.63882	0.48448
1114.71025	0.48457
1112.78169	0.48487
1110.85312	0.48541
1108.92456	0.48613
1106.99600	0.48705
1105.06743	0.48822
1103.13887	0.48951
1101.21030	0.49100
1099.28174	0.49306
1097.35317	0.49574
1095.42461	0.49875
1093.49604	0.50210
1091.56748	0.50612
1089.63892	0.51084
1087.71035	0.51613
1085.78179	0.52212
1083.85322	0.52876
1081.92466	0.53529
1079.99609	0.54061
1078.06753	0.54414
1076.13896	0.54542
1074.21040	0.54362
1072.28184	0.53901
1070.35327	0.53304
1068.42471	0.52663
1066.49614	0.52004
1064.56758	0.51360
1062.63901	0.50778
1060.71045	0.50266
1058.78188	0.49796
1056.85332	0.49378
1054.92476	0.49032
1052.99619	0.48755
1051.06763	0.48518
1049.13906	0.48280
1047.21050	0.48050
1045.28193	0.47867
1043.35337	0.47734
1041.42480	0.47638
1039.49624	0.47550
1037.56768	0.47468
1035.63911	0.47431
1033.71055	0.47427
1031.78198	0.47405
1029.85342	0.47363
1027.92485	0.47339
1025.99629	0.47360
1024.06772	0.47423
1022.13916	0.47489
1020.21060	0.47547
1018.28203	0.47610
1016.35347	0.47679
1014.42490	0.47756
1012.49634	0.47850
1010.56777	0.47963
1008.63921	0.48085
1006.71064	0.48221
1004.78208	0.48403
1002.85352	0.48646
1000.92495	0.48942
998.99639	0.49276
997.06782	0.49628
995.13926	0.49994
993.21069	0.50368
991.28213	0.50705
989.35356	0.50955
987.42500	0.51108
985.49644	0.51199
983.56787	0.51283
981.63931	0.51399
979.71074	0.51553
977.78218	0.51733
975.85361	0.51939
973.92505	0.52183
971.99648	0.52472
970.06792	0.52799
968.13936	0.53159
966.21079	0.53564
964.28223	0.54015
962.35366	0.54490
960.42510	0.54985
958.49653	0.55513
956.56797	0.56072
954.63940	0.56661
952.71084	0.57274
950.78228	0.57888
948.85371	0.58503
946.92515	0.59125
944.99658	0.59721
943.06802	0.60288
941.13945	0.60882
939.21089	0.61496
937.28232	0.62069
935.35376	0.62615
933.42520	0.63151
931.49663	0.63647
929.56807	0.64152
927.63950	0.64748
925.71094	0.65388
923.78237	0.65988
921.85381	0.66565
919.92524	0.67147
917.99668	0.67780
916.06812	0.68536
914.13955	0.69374
912.21099	0.70208
910.28242	0.70965
908.35386	0.71629
906.42529	0.72354
904.49673	0.73279
902.56816	0.74288
900.63960	0.75181
898.71104	0.75999
896.78247	0.76918
894.85391	0.77989
892.92534	0.79151
890.99678	0.80211
889.06821	0.81081
887.13965	0.82019
885.21108	0.83218
883.28252	0.84443
881.35396	0.85491
879.42539	0.86557
877.49683	0.87716
875.56826	0.88817
873.63970	0.89873
871.71113	0.90953
869.78257	0.92043
867.85400	0.93199
865.92544	0.94412
863.99687	0.95547
862.06831	0.96661
860.13975	0.97818
858.21118	0.98887
856.28262	0.99907
854.35405	1.01081
852.42549	1.02244
850.49692	1.03159
848.56836	1.04085
846.63979	1.05293
844.71123	1.06558
842.78267	1.07480
840.85410	1.08247
838.92554	1.09338
836.99697	1.10700
835.06841	1.11848
833.13984	1.12722
831.21128	1.13843
829.28271	1.15255
827.35415	1.16584
825.42559	1.17695
823.49702	1.18524
821.56846	1.19317
819.63989	1.20397
817.71133	1.21477
815.78276	1.22354
813.85420	1.23568
811.92563	1.25431
809.99707	1.26624
808.06851	1.25877
806.13994	1.24394
804.21138	1.23714
802.28281	1.24300
800.35425	1.25742
798.42568	1.27357
796.49712	1.28327
794.56855	1.28737
792.63999	1.30011
790.71143	1.31016
788.78286	1.29225
786.85430	1.25556
784.92573	1.23312
782.99717	1.23434
781.06860	1.25730
779.14004	1.30645
777.21147	1.34931
775.28291	1.35704
773.35435	1.36645
771.42578	1.36642
769.49722	1.31094
767.56865	1.25366
765.64009	1.23740
763.71152	1.23679
761.78296	1.20323
759.85439	1.14882
757.92583	1.13471
755.99727	1.20500
754.06870	1.34788
752.14014	1.35590
750.21157	1.25009
748.28301	1.23494
746.35444	1.28716
744.42588	1.30246
742.49731	1.22733
740.56875	1.11475
738.64019	1.08647
736.71162	1.06841
734.78306	0.90819
732.85449	0.78708
730.92593	0.72609
728.99736	0.61564
727.06880	0.47512
725.14023	0.39134
723.21167	0.36234
721.28311	0.31488
719.35454	0.28123
717.42598	0.25533
715.49741	0.13445
713.56885	-0.01590
711.64028	-0.08047
709.71172	-0.16372
707.78315	-0.43685
705.85459	-0.43566
703.92603	-0.34329
701.99746	-0.18100
700.06890	-0.00726
698.14033	0.06542
696.21177	0.09737
694.28320	0.21321
692.35464	0.30340
690.42607	0.32723
688.49751	0.34018
686.56895	0.32632
684.64038	0.26344
682.71182	0.25134
680.78325	0.31505
678.85469	0.35663
676.92612	0.36719
674.99756	0.34807
673.06899	0.26037
671.14043	0.17097
669.21187	0.18163
667.28330	0.20833
665.35474	0.21169
663.42617	0.21547
661.49761	0.21705
659.56904	0.25291
657.64048	0.30572
655.71191	0.19415
653.78335	0.07897
651.85479	0.08131
649.92622	0.17223
647.99766	0.19263
646.06909	0.13621
644.14053	0.09994
642.21196	0.11736
640.28340	0.18847
638.35483	0.18407
636.42627	0.12324
634.49771	0.12485
632.56914	0.16621
630.64058	0.18986
628.71201	0.19486
626.78345	0.18933
624.85488	0.14677
622.92632	0.10405
620.99775	0.11596
619.06919	0.15508
617.14062	0.21015
615.21206	0.21855
613.28350	0.15369
611.35493	0.12132
609.42637	0.14625
607.49780	0.14199
605.56924	0.06332
603.64067	0.02759
601.71211	0.07669
599.78354	0.12710
597.85498	0.14328
595.92642	0.13155
593.99785	0.09564
592.06929	0.12032
590.14072	0.22067
588.21216	0.26741
586.28359	0.19202
584.35503	0.10848
582.42646	0.11160
580.49790	0.14193
578.56934	0.18669
576.64077	0.24826
574.71221	0.30345
572.78364	0.35563
570.85508	0.39297
568.92651	0.32513
566.99795	0.15782
565.06938	0.06897
563.14082	0.08178
561.21226	0.13813
559.28369	0.18812
557.35513	0.20106
555.42656	0.18914
553.49800	0.16518
551.56943	0.12881
549.64087	0.10165
547.71230	0.09340
545.78374	0.09923
543.85518	0.12213
541.92661	0.16656
539.99805	0.21192
538.06948	0.22708
536.14092	0.21668
534.21235	0.20437
532.28379	0.17314
530.35522	0.10830
528.42666	0.05410
526.49810	0.07435
524.56953	0.18445
522.64097	0.36785
520.71240	0.41955
518.78384	0.23563
516.85527	0.13181
514.92671	0.14347
512.99814	0.18276
511.06958	0.16069
509.14102	0.13035
507.21245	0.14574
505.28389	0.19811
503.35532	0.25733
501.42676	0.28185
499.49819	0.24801
