3997.91411	0.06050
3995.98555	0.06078
3994.05698	0.06124
3992.12842	0.06177
3990.19985	0.06231
3988.27129	0.06266
3986.34272	0.06288
3984.41416	0.06300
3982.48560	0.06327
3980.55703	0.06394
3978.62847	0.06461
3976.69990	0.06476
3974.77134	0.06445
3972.84277	0.06426
3970.91421	0.06450
3968.98564	0.06470
3967.05708	0.06454
3965.12852	0.06448
3963.19995	0.06491
3961.27139	0.06534
3959.34282	0.06550
3957.41426	0.06556
3955.48569	0.06556
3953.55713	0.06548
3951.62856	0.06517
3949.70000	0.06470
3947.77144	0.06484
3945.84287	0.06543
3943.91431	0.06546
3941.98574	0.06530
3940.05718	0.06545
3938.12861	0.06564
3936.20005	0.06573
3934.27148	0.06567
3932.34292	0.06575
3930.41436	0.06641
3928.48579	0.06692
3926.55723	0.06651
3924.62866	0.06567
3922.70010	0.06497
3920.77153	0.06463
3918.84297	0.06462
3916.91440	0.06495
3914.98584	0.06549
3913.05728	0.06571
3911.12871	0.06552
3909.20015	0.06529
3907.27158	0.06497
3905.34302	0.06461
3903.41445	0.06472
3901.48589	0.06534
3899.55732	0.06583
3897.62876	0.06601
3895.70020	0.06592
3893.77163	0.06552
3891.84307	0.06484
3889.91450	0.06449
3887.98594	0.06448
3886.05737	0.06438
3884.12881	0.06451
3882.20024	0.06474
3880.27168	0.06506
3878.34312	0.06557
3876.41455	0.06553
3874.48599	0.06522
3872.55742	0.06529
3870.62886	0.06554
3868.70029	0.06611
3866.77173	0.06669
3864.84316	0.06680
3862.91460	0.06720
3860.98604	0.06798
3859.05747	0.06850
3857.12891	0.06861
3855.20034	0.06836
3853.27178	0.06844
3851.34321	0.06987
3849.41465	0.07108
3847.48608	0.07144
3845.55752	0.07134
3843.62896	0.07112
3841.70039	0.07117
3839.77183	0.07146
3837.84326	0.07238
3835.91470	0.07379
3833.98613	0.07452
3832.05757	0.07520
3830.12900	0.07654
3828.20044	0.07783
3826.27187	0.07877
3824.34331	0.07916
3822.41475	0.07893
3820.48618	0.07941
3818.55762	0.08076
3816.62905	0.08165
3814.70049	0.08278
3812.77192	0.08416
3810.84336	0.08490
3808.91479	0.08534
3806.98623	0.08646
3805.05767	0.08817
3803.12910	0.08906
3801.20054	0.08978
3799.27197	0.09119
3797.34341	0.09257
3795.41484	0.09426
3793.48628	0.09604
3791.55771	0.09737
3789.62915	0.09855
3787.70059	0.09968
3785.77202	0.10087
3783.84346	0.10235
3781.91489	0.10376
3779.98633	0.10506
3778.05776	0.10684
3776.12920	0.10858
3774.20063	0.11008
3772.27207	0.11148
3770.34351	0.11262
3768.41494	0.11406
3766.48638	0.11617
3764.55781	0.11876
3762.62925	0.12108
3760.70068	0.12266
3758.77212	0.12464
3756.84355	0.12746
3754.91499	0.12956
3752.98643	0.13072
3751.05786	0.13260
3749.12930	0.13659
3747.20073	0.13994
3745.27217	0.14186
3743.34360	0.14569
3741.41504	0.15058
3739.48647	0.15348
3737.55791	0.15574
3735.62935	0.15919
3733.70078	0.16430
3731.77222	0.16989
3729.84365	0.17540
3727.91509	0.18044
3725.98652	0.18575
3724.05796	0.19210
3722.12939	0.19913
3720.20083	0.20691
3718.27227	0.21515
3716.34370	0.22325
3714.41514	0.23062
3712.48657	0.23836
3710.55801	0.24992
3708.62944	0.26479
3706.70088	0.27803
3704.77231	0.28975
3702.84375	0.30280
3700.91519	0.31990
3698.98662	0.33879
3697.05806	0.35658
3695.12949	0.37543
3693.20093	0.39533
3691.27236	0.41634
3689.34380	0.44347
3687.41523	0.47824
3685.48667	0.51030
3683.55811	0.53798
3681.62954	0.56638
3679.70098	0.59742
3677.77241	0.62951
3675.84385	0.66702
3673.91528	0.71970
3671.98672	0.76492
3670.05815	0.80437
3668.12959	0.85817
3666.20103	0.90845
3664.27246	0.95068
3662.34390	0.99544
3660.41533	1.04277
3658.48677	1.08834
3656.55820	1.13697
3654.62964	1.19241
3652.70107	1.23852
3650.77251	1.27666
3648.84395	1.32958
3646.91538	1.39889
3644.98682	1.45264
3643.05825	1.49351
3641.12969	1.53408
3639.20112	1.57825
3637.27256	1.62264
3635.34399	1.66608
3633.41543	1.70940
3631.48687	1.74933
3629.55830	1.78924
3627.62974	1.84197
3625.70117	1.89298
3623.77261	1.92867
3621.84404	1.96198
3619.91548	1.99851
3617.98691	2.04322
3616.05835	2.08804
3614.12979	2.12516
3612.20122	2.16336
3610.27266	2.20190
3608.34409	2.24056
3606.41553	2.28337
3604.48696	2.32479
3602.55840	2.36083
3600.62983	2.39822
3598.70127	2.43845
3596.77271	2.47731
3594.84414	2.51654
3592.91558	2.55803
3590.98701	2.59735
3589.05845	2.63231
3587.12988	2.67392
3585.20132	2.72355
3583.27275	2.76813
3581.34419	2.80783
3579.41562	2.84722
3577.48706	2.88797
3575.55850	2.93016
3573.62993	2.97307
3571.70137	3.01356
3569.77280	3.05179
3567.84424	3.09230
3565.91567	3.14177
3563.98711	3.19246
3562.05854	3.23659
3560.12998	3.28038
3558.20142	3.32694
3556.27285	3.37246
3554.34429	3.41327
3552.41572	3.45700
3550.48716	3.50596
3548.55859	3.55092
3546.63003	3.59136
3544.70146	3.63753
3542.77290	3.68964
3540.84434	3.73832
3538.91577	3.78394
3536.98721	3.83043
3535.05864	3.87930
3533.13008	3.92684
3531.20151	3.97253
3529.27295	4.01840
3527.34438	4.06425
3525.41582	4.10941
3523.48726	4.15535
3521.55869	4.20690
3519.63013	4.26198
3517.70156	4.31407
3515.77300	4.35949
3513.84443	4.40059
3511.91587	4.44304
3509.98730	4.49069
3508.05874	4.54346
3506.13018	4.59452
3504.20161	4.64125
3502.27305	4.69215
3500.34448	4.74689
3498.41592	4.79192
3496.48735	4.82824
3494.55879	4.86708
3492.63022	4.90978
3490.70166	4.95486
3488.77310	5.00471
3486.84453	5.05872
3484.91597	5.11397
3482.98740	5.16643
3481.05884	5.21442
3479.13027	5.26229
3477.20171	5.31371
3475.27314	5.36328
3473.34458	5.40979
3471.41602	5.45705
3469.48745	5.50022
3467.55889	5.53896
3465.63032	5.58463
3463.70176	5.64265
3461.77319	5.69563
3459.84463	5.73632
3457.91606	5.78307
3455.98750	5.84209
3454.05894	5.89796
3452.13037	5.94251
3450.20181	5.98560
3448.27324	6.03642
3446.34468	6.09344
3444.41611	6.13628
3442.48755	6.17317
3440.55898	6.23027
3438.63042	6.29633
3436.70186	6.35097
3434.77329	6.40124
3432.84473	6.46512
3430.91616	6.53585
3428.98760	6.58457
3427.05903	6.60592
3425.13047	6.63609
3423.20190	6.68194
3421.27334	6.72257
3419.34478	6.75534
3417.41621	6.79576
3415.48765	6.84329
3413.55908	6.89026
3411.63052	6.94860
3409.70195	7.00468
3407.77339	7.05539
3405.84482	7.09972
3403.91626	7.14054
3401.98770	7.18272
3400.05913	7.20904
3398.13057	7.24829
3396.20200	7.32666
3394.27344	7.38572
3392.34487	7.37509
3390.41631	7.36913
3388.48774	7.41083
3386.55918	7.46482
3384.63062	7.51339
3382.70205	7.56165
3380.77349	7.58282
3378.84492	7.56779
3376.91636	7.56942
3374.98779	7.59806
3373.05923	7.66830
3371.13066	7.77748
3369.20210	7.85107
3367.27354	7.85069
3365.34497	7.85358
3363.41641	7.88214
3361.48784	7.85519
3359.55928	7.80666
3357.63071	7.82740
3355.70215	7.88611
3353.77358	7.88849
3351.84502	7.86259
3349.91646	7.84307
3347.98789	7.85839
3346.05933	7.94330
3344.13076	8.00413
3342.20220	7.95398
3340.27363	7.89532
3338.34507	7.93779
3336.41650	7.98906
3334.48794	7.98225
3332.55937	7.95540
3330.63081	7.90471
3328.70225	7.87691
3326.77368	7.93673
3324.84512	8.03568
3322.91655	8.07505
3320.98799	8.08654
3319.05942	8.11233
3317.13086	8.13163
3315.20229	8.10814
3313.27373	8.07854
3311.34517	8.11247
3309.41660	8.14528
3307.48804	8.13221
3305.55947	8.14899
3303.63091	8.16766
3301.70234	8.10405
3299.77378	8.00529
3297.84521	7.93025
3295.91665	7.91178
3293.98809	7.92873
3292.05952	7.94271
3290.13096	7.99242
3288.20239	8.05684
3286.27383	8.04524
3284.34526	8.03429
3282.41670	8.11242
3280.48813	8.12592
3278.55957	8.03137
3276.63101	7.97913
3274.70244	7.96041
3272.77388	7.92412
3270.84531	7.94093
3268.91675	8.00134
3266.98818	8.04800
3265.05962	8.12066
3263.13105	8.17830
3261.20249	8.18002
3259.27393	8.13132
3257.34536	8.06089
3255.41680	8.03417
3253.48823	8.03010
3251.55967	8.03550
3249.63110	8.05843
3247.70254	8.05954
3245.77397	8.04402
3243.84541	8.08424
3241.91685	8.18079
3239.98828	8.19766
3238.05972	8.09319
3236.13115	8.03017
3234.20259	8.05835
3232.27402	8.06210
3230.34546	7.99229
3228.41689	7.93551
3226.48833	7.92846
3224.55977	7.87668
3222.63120	7.79876
3220.70264	7.76905
3218.77407	7.73198
3216.84551	7.69311
3214.91694	7.71955
3212.98838	7.77768
3211.05981	7.81262
3209.13125	7.82984
3207.20269	7.82982
3205.27412	7.78741
3203.34556	7.71116
3201.41699	7.66212
3199.48843	7.67748
3197.55986	7.72764
3195.63130	7.72145
3193.70273	7.60546
3191.77417	7.45538
3189.84561	7.37171
3187.91704	7.35459
3185.98848	7.32319
3184.05991	7.25566
3182.13135	7.19907
3180.20278	7.19116
3178.27422	7.20973
3176.34565	7.18954
3174.41709	7.11996
3172.48853	7.02833
3170.55996	6.93690
3168.63140	6.87644
3166.70283	6.84381
3164.77427	6.80356
3162.84570	6.74428
3160.91714	6.65223
3158.98857	6.53759
3157.06001	6.45355
3155.13145	6.40825
3153.20288	6.36436
3151.27432	6.30630
3149.34575	6.24858
3147.41719	6.19450
3145.48862	6.13398
3143.56006	6.06406
3141.63149	5.98781
3139.70293	5.91766
3137.77437	5.86151
3135.84580	5.80535
3133.91724	5.73521
3131.98867	5.65183
3130.06011	5.56448
3128.13154	5.48888
3126.20298	5.42700
3124.27441	5.36229
3122.34585	5.28875
3120.41729	5.21812
3118.48872	5.15489
3116.56016	5.08903
3114.63159	5.01613
3112.70303	4.94241
3110.77446	4.87220
3108.84590	4.80498
3106.91733	4.73698
3104.98877	4.66509
3103.06021	4.59164
3101.13164	4.52160
3099.20308	4.45696
3097.27451	4.39526
3095.34595	4.33287
3093.41738	4.26936
3091.48882	4.20523
3089.56025	4.13825
3087.63169	4.06999
3085.70312	4.00528
3083.77456	3.94304
3081.84600	3.88046
3079.91743	3.81843
3077.98887	3.75866
3076.06030	3.70112
3074.13174	3.64371
3072.20317	3.58496
3070.27461	3.52548
3068.34604	3.46623
3066.41748	3.40827
3064.48892	3.35181
3062.56035	3.29589
3060.63179	3.24076
3058.70322	3.18666
3056.77466	3.13286
3054.84609	3.07985
3052.91753	3.02855
3050.98896	2.97726
3049.06040	2.92482
3047.13184	2.87387
3045.20327	2.82549
3043.27471	2.77773
3041.34614	2.73007
3039.41758	2.68320
3037.48901	2.63726
3035.56045	2.59228
3033.63188	2.54772
3031.70332	2.50309
3029.77476	2.45897
3027.84619	2.41553
3025.91763	2.37253
3023.98906	2.32995
3022.06050	2.28826
3020.13193	2.24784
3018.20337	2.20845
3016.27480	2.16976
3014.34624	2.13130
3012.41768	2.09284
3010.48911	2.05513
3008.56055	2.01880
3006.63198	1.98326
3004.70342	1.94790
3002.77485	1.91288
3000.84629	1.87837
2998.91772	1.84439
2996.98916	1.81100
2995.06060	1.77829
2993.13203	1.74639
2991.20347	1.71482
2989.27490	1.68315
2987.34634	1.65198
2985.41777	1.62200
2983.48921	1.59275
2981.56064	1.56345
2979.63208	1.53433
2977.70352	1.50627
2975.77495	1.47882
2973.84639	1.45083
2971.91782	1.42305
2969.98926	1.39668
2968.06069	1.37094
2966.13213	1.34521
2964.20356	1.32020
2962.27500	1.29586
2960.34644	1.27182
2958.41787	1.24848
2956.48931	1.22568
2954.56074	1.20314
2952.63218	1.18123
2950.70361	1.15992
2948.77505	1.13874
2946.84648	1.11764
2944.91792	1.09701
2942.98936	1.07686
2941.06079	1.05662
2939.13223	1.03639
2937.20366	1.01677
2935.27510	0.99785
2933.34653	0.97963
2931.41797	0.96180
2929.48940	0.94404
2927.56084	0.92683
2925.63228	0.91027
2923.70371	0.89400
2921.77515	0.87782
2919.84658	0.86185
2917.91802	0.84588
2915.98945	0.82968
2914.06089	0.81393
2912.13232	0.79940
2910.20376	0.78588
2908.27520	0.77247
2906.34663	0.75879
2904.41807	0.74512
2902.48950	0.73192
2900.56094	0.71932
2898.63237	0.70716
2896.70381	0.69519
2894.77524	0.68325
2892.84668	0.67148
2890.91812	0.65996
2888.98955	0.64860
2887.06099	0.63729
2885.13242	0.62610
2883.20386	0.61524
2881.27529	0.60463
2879.34673	0.59403
2877.41816	0.58372
2875.48960	0.57386
2873.56104	0.56387
2871.63247	0.55371
2869.70391	0.54389
2867.77534	0.53432
2865.84678	0.52490
2863.91821	0.51580
2861.98965	0.50691
2860.06108	0.49818
2858.13252	0.48979
2856.20396	0.48154
2854.27539	0.47329
2852.34683	0.46520
2850.41826	0.45742
2848.48970	0.44995
2846.56113	0.44259
2844.63257	0.43540
2842.70400	0.42864
2840.77544	0.42238
2838.84687	0.41655
2836.91831	0.41086
2834.98975	0.40491
2833.06118	0.39872
2831.13262	0.39269
2829.20405	0.38700
2827.27549	0.38138
2825.34692	0.37558
2823.41836	0.36982
2821.48979	0.36450
2819.56123	0.35936
2817.63267	0.35386
2815.70410	0.34820
2813.77554	0.34284
2811.84697	0.33783
2809.91841	0.33299
2807.98984	0.32805
2806.06128	0.32294
2804.13271	0.31787
2802.20415	0.31310
2800.27559	0.30869
2798.34702	0.30444
2796.41846	0.30018
2794.48989	0.29578
2792.56133	0.29125
2790.63276	0.28692
2788.70420	0.28294
2786.77563	0.27906
2784.84707	0.27512
2782.91851	0.27127
2780.98994	0.26762
2779.06138	0.26401
2777.13281	0.26029
2775.20425	0.25665
2773.27568	0.25331
2771.34712	0.25021
2769.41855	0.24714
2767.48999	0.24392
2765.56143	0.24059
2763.63286	0.23735
2761.70430	0.23437
2759.77573	0.23168
2757.84717	0.22904
2755.91860	0.22623
2753.99004	0.22340
2752.06147	0.22071
2750.13291	0.21813
2748.20435	0.21554
2746.27578	0.21279
2744.34722	0.21011
2742.41865	0.20772
2740.49009	0.20548
2738.56152	0.20318
2736.63296	0.20088
2734.70439	0.19874
2732.77583	0.19674
2730.84727	0.19466
2728.91870	0.19251
2726.99014	0.19049
2725.06157	0.18862
2723.13301	0.18680
2721.20444	0.18497
2719.27588	0.18313
2717.34731	0.18131
2715.41875	0.17951
2713.49019	0.17772
2711.56162	0.17603
2709.63306	0.17451
2707.70449	0.17310
2705.77593	0.17168
2703.84736	0.17020
2701.91880	0.16871
2699.99023	0.16728
2698.06167	0.16587
2696.13311	0.16443
2694.20454	0.16310
2692.27598	0.16194
2690.34741	0.16071
2688.41885	0.15940
2686.49028	0.15820
2684.56172	0.15713
2682.63315	0.15616
2680.70459	0.15521
2678.77603	0.15404
2676.84746	0.15274
2674.91890	0.15160
2672.99033	0.15058
2671.06177	0.14958
2669.13320	0.14871
2667.20464	0.14790
2665.27607	0.14712
2663.34751	0.14645
2661.41895	0.14577
2659.49038	0.14503
2657.56182	0.14437
2655.63325	0.14381
2653.70469	0.14324
2651.77612	0.14260
2649.84756	0.14190
2647.91899	0.14126
2645.99043	0.14076
2644.06187	0.14026
2642.13330	0.13967
2640.20474	0.13915
2638.27617	0.13881
2636.34761	0.13852
2634.41904	0.13822
2632.49048	0.13796
2630.56191	0.13770
2628.63335	0.13738
2626.70479	0.13705
2624.77622	0.13683
2622.84766	0.13672
2620.91909	0.13658
2618.99053	0.13634
2617.06196	0.13608
2615.13340	0.13592
2613.20483	0.13592
2611.27627	0.13596
2609.34771	0.13596
2607.41914	0.13605
2605.49058	0.13619
2603.56201	0.13620
2601.63345	0.13614
2599.70488	0.13618
2597.77632	0.13634
2595.84775	0.13650
2593.91919	0.13664
2591.99062	0.13678
2590.06206	0.13684
2588.13350	0.13694
2586.20493	0.13716
2584.27637	0.13750
2582.34780	0.13792
2580.41924	0.13833
2578.49067	0.13864
2576.56211	0.13899
2574.63354	0.13946
2572.70498	0.13988
2570.77642	0.14021
2568.84785	0.14060
2566.91929	0.14105
2564.99072	0.14147
2563.06216	0.14188
2561.13359	0.14242
2559.20503	0.14307
2557.27646	0.14357
2555.34790	0.14392
2553.41934	0.14436
2551.49077	0.14501
2549.56221	0.14567
2547.63364	0.14622
2545.70508	0.14674
2543.77651	0.14740
2541.84795	0.14820
2539.91938	0.14899
2537.99082	0.14975
2536.06226	0.15047
2534.13369	0.15115
2532.20513	0.15188
2530.27656	0.15272
2528.34800	0.15362
2526.41943	0.15443
2524.49087	0.15503
2522.56230	0.15554
2520.63374	0.15624
2518.70518	0.15713
2516.77661	0.15803
2514.84805	0.15878
2512.91948	0.15950
2510.99092	0.16040
2509.06235	0.16135
2507.13379	0.16231
2505.20522	0.16329
2503.27666	0.16405
2501.34810	0.16465
2499.41953	0.16543
2497.49097	0.16639
2495.56240	0.16740
2493.63384	0.16834
2491.70527	0.16921
2489.77671	0.17017
2487.84814	0.17115
2485.91958	0.17206
2483.99102	0.17297
2482.06245	0.17385
2480.13389	0.17467
2478.20532	0.17560
2476.27676	0.17666
2474.34819	0.17773
2472.41963	0.17873
2470.49106	0.17965
2468.56250	0.18052
2466.63394	0.18137
2464.70537	0.18233
2462.77681	0.18344
2460.84824	0.18450
2458.91968	0.18545
2456.99111	0.18636
2455.06255	0.18726
2453.13398	0.18815
2451.20542	0.18910
2449.27686	0.19020
2447.34829	0.19137
2445.41973	0.19248
2443.49116	0.19353
2441.56260	0.19458
2439.63403	0.19560
2437.70547	0.19667
2435.77690	0.19773
2433.84834	0.19863
2431.91978	0.19949
2429.99121	0.20054
2428.06265	0.20179
2426.13408	0.20310
2424.20552	0.20431
2422.27695	0.20544
2420.34839	0.20660
2418.41982	0.20767
2416.49126	0.20861
2414.56270	0.20969
2412.63413	0.21106
2410.70557	0.21236
2408.77700	0.21339
2406.84844	0.21436
2404.91987	0.21548
2402.99131	0.21674
2401.06274	0.21796
2399.13418	0.21916
2397.20562	0.22041
2395.27705	0.22163
2393.34849	0.22289
2391.41992	0.22435
2389.49136	0.22576
2387.56279	0.22695
2385.63423	0.22806
2383.70566	0.22914
2381.77710	0.22996
2379.84854	0.23056
2377.91997	0.23124
2375.99141	0.23190
2374.06284	0.23228
2372.13428	0.23231
2370.20571	0.23222
2368.27715	0.23247
2366.34858	0.23333
2364.42002	0.23392
2362.49146	0.23423
2360.56289	0.23526
2358.63433	0.23650
2356.70576	0.23838
2354.77720	0.24193
2352.84863	0.24645
2350.92007	0.24988
2348.99150	0.25159
2347.06294	0.25244
2345.13437	0.25308
2343.20581	0.25365
2341.27725	0.25434
2339.34868	0.25564
2337.42012	0.25746
2335.49155	0.25914
2333.56299	0.26078
2331.63442	0.26295
2329.70586	0.26511
2327.77729	0.26687
2325.84873	0.26876
2323.92017	0.27105
2321.99160	0.27350
2320.06304	0.27583
2318.13447	0.27796
2316.20591	0.28007
2314.27734	0.28230
2312.34878	0.28454
2310.42021	0.28673
2308.49165	0.28888
2306.56309	0.29084
2304.63452	0.29255
2302.70596	0.29430
2300.77739	0.29639
2298.84883	0.29871
2296.92026	0.30089
2294.99170	0.30280
2293.06313	0.30460
2291.13457	0.30642
2289.20601	0.30831
2287.27744	0.31036
2285.34888	0.31250
2283.42031	0.31456
2281.49175	0.31655
2279.56318	0.31850
2277.63462	0.32041
2275.70605	0.32237
2273.77749	0.32440
2271.84893	0.32649
2269.92036	0.32864
2267.99180	0.33085
2266.06323	0.33305
2264.13467	0.33514
2262.20610	0.33725
2260.27754	0.33945
2258.34897	0.34162
2256.42041	0.34373
2254.49185	0.34590
2252.56328	0.34812
2250.63472	0.35024
2248.70615	0.35224
2246.77759	0.35436
2244.84902	0.35669
2242.92046	0.35897
2240.99189	0.36107
2239.06333	0.36314
2237.13477	0.36530
2235.20620	0.36748
2233.27764	0.36973
2231.34907	0.37207
2229.42051	0.37429
2227.49194	0.37639
2225.56338	0.37860
2223.63481	0.38099
2221.70625	0.38337
2219.77769	0.38561
2217.84912	0.38775
2215.92056	0.38984
2213.99199	0.39191
2212.06343	0.39412
2210.13486	0.39643
2208.20630	0.39858
2206.27773	0.40047
2204.34917	0.40244
2202.42061	0.40460
2200.49204	0.40665
2198.56348	0.40857
2196.63491	0.41056
2194.70635	0.41259
2192.77778	0.41450
2190.84922	0.41630
2188.92065	0.41809
2186.99209	0.41996
2185.06353	0.42179
2183.13496	0.42349
2181.20640	0.42518
2179.27783	0.42695
2177.34927	0.42867
2175.42070	0.43026
2173.49214	0.43176
2171.56357	0.43325
2169.63501	0.43471
2167.70645	0.43613
2165.77788	0.43745
2163.84932	0.43867
2161.92075	0.43981
2159.99219	0.44088
2158.06362	0.44182
2156.13506	0.44274
2154.20649	0.44378
2152.27793	0.44483
2150.34937	0.44560
2148.42080	0.44615
2146.49224	0.44675
2144.56367	0.44741
2142.63511	0.44798
2140.70654	0.44840
2138.77798	0.44876
2136.84941	0.44900
2134.92085	0.44908
2132.99229	0.44912
2131.06372	0.44915
2129.13516	0.44915
2127.20659	0.44906
2125.27803	0.44880
2123.34946	0.44842
2121.42090	0.44796
2119.49233	0.44737
2117.56377	0.44675
2115.63521	0.44616
2113.70664	0.44542
2111.77808	0.44450
2109.84951	0.44356
2107.92095	0.44270
2105.99238	0.44178
2104.06382	0.44079
2102.13525	0.43978
2100.20669	0.43863
2098.27812	0.43722
2096.34956	0.43566
2094.42100	0.43410
2092.49243	0.43254
2090.56387	0.43093
2088.63530	0.42930
2086.70674	0.42777
2084.77817	0.42613
2082.84961	0.42426
2080.92104	0.42226
2078.99248	0.42033
2077.06392	0.41845
2075.13535	0.41643
2073.20679	0.41429
2071.27822	0.41214
2069.34966	0.40999
2067.42109	0.40777
2065.49253	0.40546
2063.56396	0.40307
2061.63540	0.40067
2059.70684	0.39828
2057.77827	0.39593
2055.84971	0.39346
2053.92114	0.39081
2051.99258	0.38824
2050.06401	0.38581
2048.13545	0.38340
2046.20688	0.38084
2044.27832	0.37816
2042.34976	0.37552
2040.42119	0.37289
2038.49263	0.37022
2036.56406	0.36751
2034.63550	0.36476
2032.70693	0.36199
2030.77837	0.35930
2028.84980	0.35664
2026.92124	0.35392
2024.99268	0.35115
2023.06411	0.34846
2021.13555	0.34582
2019.20698	0.34314
2017.27842	0.34042
2015.34985	0.33776
2013.42129	0.33521
2011.49272	0.33259
2009.56416	0.32980
2007.63560	0.32698
2005.70703	0.32428
2003.77847	0.32164
2001.84990	0.31895
1999.92134	0.31628
1997.99277	0.31370
1996.06421	0.31119
1994.13564	0.30867
1992.20708	0.30615
1990.27852	0.30368
1988.34995	0.30127
1986.42139	0.29887
1984.49282	0.29653
1982.56426	0.29425
1980.63569	0.29197
1978.70713	0.28972
1976.77856	0.28747
1974.85000	0.28518
1972.92144	0.28294
1970.99287	0.28079
1969.06431	0.27872
1967.13574	0.27667
1965.20718	0.27461
1963.27861	0.27259
1961.35005	0.27062
1959.42148	0.26873
1957.49292	0.26695
1955.56436	0.26524
1953.63579	0.26353
1951.70723	0.26177
1949.77866	0.26007
1947.85010	0.25846
1945.92153	0.25690
1943.99297	0.25538
1942.06440	0.25383
1940.13584	0.25228
1938.20728	0.25088
1936.27871	0.24967
1934.35015	0.24848
1932.42158	0.24720
1930.49302	0.24593
1928.56445	0.24476
1926.63589	0.24367
1924.70732	0.24266
1922.77876	0.24158
1920.85020	0.24046
1918.92163	0.23944
1916.99307	0.23851
1915.06450	0.23759
1913.13594	0.23665
1911.20737	0.23589
1909.27881	0.23539
1907.35024	0.23494
1905.42168	0.23431
1903.49312	0.23368
1901.56455	0.23317
1899.63599	0.23268
1897.70742	0.23219
1895.77886	0.23176
1893.85029	0.23144
1891.92173	0.23111
1889.99316	0.23079
1888.06460	0.23048
1886.13604	0.23019
1884.20747	0.22994
1882.27891	0.22978
1880.35034	0.22974
1878.42178	0.22969
1876.49321	0.22963
1874.56465	0.22961
1872.63608	0.22967
1870.70752	0.22966
1868.77896	0.22970
1866.85039	0.22994
1864.92183	0.23016
1862.99326	0.23041
1861.06470	0.23080
1859.13613	0.23129
1857.20757	0.23168
1855.27900	0.23208
1853.35044	0.23250
1851.42187	0.23296
1849.49331	0.23339
1847.56475	0.23385
1845.63618	0.23443
1843.70762	0.23532
1841.77905	0.23637
1839.85049	0.23708
1837.92192	0.23778
1835.99336	0.23858
1834.06479	0.23950
1832.13623	0.24043
1830.20767	0.24161
1828.27910	0.24302
1826.35054	0.24419
1824.42197	0.24554
1822.49341	0.24698
1820.56484	0.24830
1818.63628	0.24967
1816.70771	0.25132
1814.77915	0.25295
1812.85059	0.25453
1810.92202	0.25634
1808.99346	0.25839
1807.06489	0.26045
1805.13633	0.26235
1803.20776	0.26441
1801.27920	0.26674
1799.35063	0.26946
1797.42207	0.27200
1795.49351	0.27430
1793.56494	0.27680
1791.63638	0.28034
1789.70781	0.28425
1787.77925	0.28720
1785.85068	0.29027
1783.92212	0.29381
1781.99355	0.29764
1780.06499	0.30184
1778.13643	0.30628
1776.20786	0.31024
1774.27930	0.31413
1772.35073	0.31943
1770.42217	0.32570
1768.49360	0.33141
1766.56504	0.33695
1764.63647	0.34245
1762.70791	0.34816
1760.77935	0.35546
1758.85078	0.36254
1756.92222	0.36968
1754.99365	0.37751
1753.06509	0.38442
1751.13652	0.39218
1749.20796	0.40217
1747.27939	0.41276
1745.35083	0.42238
1743.42227	0.43232
1741.49370	0.44296
1739.56514	0.45529
1737.63657	0.46767
1735.70801	0.47841
1733.77944	0.49454
1731.85088	0.51446
1729.92231	0.53056
1727.99375	0.54670
1726.06519	0.56372
1724.13662	0.58197
1722.20806	0.60145
1720.27949	0.61917
1718.35093	0.63968
1716.42236	0.67084
1714.49380	0.70162
1712.56523	0.72680
1710.63667	0.75084
1708.70811	0.77625
1706.77954	0.80466
1704.85098	0.83846
1702.92241	0.86862
1700.99385	0.89796
1699.06528	0.94175
1697.13672	0.98261
1695.20815	1.02483
1693.27959	1.06563
1691.35103	1.09769
1689.42246	1.13383
1687.49390	1.17159
1685.56533	1.20726
1683.63677	1.26209
1681.70820	1.32032
1679.77964	1.35845
1677.85107	1.39456
1675.92251	1.43549
1673.99395	1.48542
1672.06538	1.52905
1670.13682	1.57149
1668.20825	1.62722
1666.27969	1.67187
1664.35112	1.70776
1662.42256	1.75105
1660.49399	1.79922
1658.56543	1.83710
1656.63687	1.86844
1654.70830	1.89758
1652.77974	1.94609
1650.85117	1.99725
1648.92261	2.01988
1646.99404	2.04962
1645.06548	2.08617
1643.13691	2.11113
1641.20835	2.12694
1639.27979	2.13999
1637.35122	2.14804
1635.42266	2.15233
1633.49409	2.15184
1631.56553	2.14254
1629.63696	2.12824
1627.70840	2.10473
1625.77983	2.07722
1623.85127	2.04171
1621.92271	1.99834
1619.99414	1.95971
1618.06558	1.92031
1616.13701	1.86320
1614.20845	1.80547
1612.27988	1.76156
1610.35132	1.71491
1608.42275	1.66315
1606.49419	1.61149
1604.56562	1.56408
1602.63706	1.51821
1600.70850	1.47271
1598.77993	1.43058
1596.85137	1.39082
1594.92280	1.35158
1592.99424	1.31312
1591.06567	1.27766
1589.13711	1.24410
1587.20854	1.21230
1585.27998	1.18234
1583.35142	1.15384
1581.42285	1.12707
1579.49429	1.10332
1577.56572	1.08135
1575.63716	1.05432
1573.70859	1.03040
1571.78003	1.01427
1569.85146	0.99597
1567.92290	0.97472
1565.99434	0.95763
1564.06577	0.94267
1562.13721	0.92986
1560.20864	0.91787
1558.28008	0.89653
1556.35151	0.87899
1554.42295	0.86898
1552.49438	0.85853
1550.56582	0.84797
1548.63726	0.83745
1546.70869	0.82840
1544.78013	0.81982
1542.85156	0.81026
1540.92300	0.79921
1538.99443	0.78683
1537.06587	0.77935
1535.13730	0.77400
1533.20874	0.76680
1531.28018	0.75921
1529.35161	0.75343
1527.42305	0.74749
1525.49448	0.74085
1523.56592	0.73461
1521.63735	0.72853
1519.70879	0.72256
1517.78022	0.71734
1515.85166	0.71180
1513.92310	0.70680
1511.99453	0.70276
1510.06597	0.69858
1508.13740	0.69396
1506.20884	0.68877
1504.28027	0.68528
1502.35171	0.68264
1500.42314	0.67974
1498.49458	0.67660
1496.56602	0.67334
1494.63745	0.67041
1492.70889	0.66787
1490.78032	0.66521
1488.85176	0.66221
1486.92319	0.65963
1484.99463	0.65741
1483.06606	0.65515
1481.13750	0.65270
1479.20894	0.65026
1477.28037	0.64799
1475.35181	0.64563
1473.42324	0.64315
1471.49468	0.64076
1469.56611	0.63873
1467.63755	0.63661
1465.70898	0.63437
1463.78042	0.63235
1461.85186	0.63048
1459.92329	0.62843
1457.99473	0.62586
1456.06616	0.62285
1454.13760	0.62052
1452.20903	0.61875
1450.28047	0.61699
1448.35190	0.61512
1446.42334	0.61317
1444.49478	0.61133
1442.56621	0.60954
1440.63765	0.60776
1438.70908	0.60616
1436.78052	0.60467
1434.85195	0.60326
1432.92339	0.60187
1430.99482	0.60044
1429.06626	0.59891
1427.13770	0.59749
1425.20913	0.59623
1423.28057	0.59497
1421.35200	0.59371
1419.42344	0.59242
1417.49487	0.59100
1415.56631	0.58947
1413.63774	0.58788
1411.70918	0.58617
1409.78062	0.58453
1407.85205	0.58308
1405.92349	0.58159
1403.99492	0.57992
1402.06636	0.57824
1400.13779	0.57673
1398.20923	0.57528
1396.28066	0.57378
1394.35210	0.57242
1392.42354	0.57134
1390.49497	0.57030
1388.56641	0.56926
1386.63784	0.56828
1384.70928	0.56725
1382.78071	0.56628
1380.85215	0.56545
1378.92358	0.56464
1376.99502	0.56373
1375.06646	0.56287
1373.13789	0.56226
1371.20933	0.56174
1369.28076	0.56100
1367.35220	0.56017
1365.42363	0.55931
1363.49507	0.55833
1361.56650	0.55740
1359.63794	0.55652
1357.70937	0.55557
1355.78081	0.55465
1353.85225	0.55367
1351.92368	0.55265
1349.99512	0.55177
1348.06655	0.55095
1346.13799	0.55001
1344.20942	0.54896
1342.28086	0.54790
1340.35229	0.54690
1338.42373	0.54594
1336.49517	0.54503
1334.56660	0.54418
1332.63804	0.54334
1330.70947	0.54251
1328.78091	0.54169
1326.85234	0.54088
1324.92378	0.54018
1322.99521	0.53964
1321.06665	0.53904
1319.13809	0.53823
1317.20952	0.53730
1315.28096	0.53647
1313.35239	0.53573
1311.42383	0.53488
1309.49526	0.53389
1307.56670	0.53293
1305.63813	0.53210
1303.70957	0.53122
1301.78101	0.53030
1299.85244	0.52947
1297.92388	0.52870
1295.99531	0.52792
1294.06675	0.52729
1292.13818	0.52671
1290.20962	0.52603
1288.28105	0.52539
1286.35249	0.52492
1284.42393	0.52455
1282.49536	0.52412
1280.56680	0.52362
1278.63823	0.52313
1276.70967	0.52261
1274.78110	0.52202
1272.85254	0.52144
1270.92397	0.52101
1268.99541	0.52079
1267.06685	0.52059
1265.13828	0.52018
1263.20972	0.51962
1261.28115	0.51921
1259.35259	0.51896
1257.42402	0.51857
1255.49546	0.51808
1253.56689	0.51774
1251.63833	0.51749
1249.70977	0.51721
1247.78120	0.51696
1245.85264	0.51676
1243.92407	0.51644
1241.99551	0.51604
1240.06694	0.51569
1238.13838	0.51527
1236.20981	0.51467
1234.28125	0.51407
1232.35269	0.51351
1230.42412	0.51288
1228.49556	0.51216
1226.56699	0.51138
1224.63843	0.51065
1222.70986	0.50997
1220.78130	0.50928
1218.85273	0.50859
1216.92417	0.50797
1214.99561	0.50741
1213.06704	0.50682
1211.13848	0.50617
1209.20991	0.50555
1207.28135	0.50496
1205.35278	0.50446
1203.42422	0.50407
1201.49565	0.50362
1199.56709	0.50317
1197.63853	0.50277
1195.70996	0.50231
1193.78140	0.50182
1191.85283	0.50126
1189.92427	0.50069
1187.99570	0.50029
1186.06714	0.49999
1184.13857	0.49978
1182.21001	0.49987
1180.28145	0.50020
1178.35288	0.50050
1176.42432	0.50076
1174.49575	0.50116
1172.56719	0.50179
1170.63862	0.50251
1168.71006	0.50324
1166.78149	0.50388
1164.85293	0.50446
1162.92437	0.50506
1160.99580	0.50556
1159.06724	0.50580
1157.13867	0.50569
1155.21011	0.50512
1153.28154	0.50414
1151.35298	0.50274
1149.42441	0.50086
1147.49585	0.49872
1145.56729	0.49656
1143.63872	0.49428
1141.71016	0.49165
1139.78159	0.48913
1137.85303	0.48727
1135.92446	0.48583
1133.99590	0.48456
1132.06733	0.48345
1130.13877	0.48247
1128.21021	0.48152
1126.28164	0.48054
1124.35308	0.47960
1122.42451	0.47891
1120.49595	0.47862
1118.56738	0.47866
1116.63882	0.47866
1114.71025	0.47863
1112.78169	0.47898
1110.85312	0.47983
1108.92456	0.48093
1106.99600	0.48183
1105.06743	0.48250
1103.13887	0.48337
1101.21030	0.48460
1099.28174	0.48616
1097.35317	0.48808
1095.42461	0.49061
1093.49604	0.49420
1091.56748	0.49912
1089.63892	0.50510
1087.71035	0.51190
1085.78179	0.51959
1083.85322	0.52778
1081.92466	0.53527
1079.99609	0.54100
1078.06753	0.54418
1076.13896	0.54437
1074.21040	0.54176
1072.28184	0.53700
1070.35327	0.53080
1068.42471	0.52392
1066.49614	0.51712
1064.56758	0.51094
1062.63901	0.50559
1060.71045	0.50105
1058.78188	0.49699
1056.85332	0.49318
1054.92476	0.48973
1052.99619	0.48693
1051.06763	0.48491
1049.13906	0.48346
1047.21050	0.48261
1045.28193	0.48264
1043.35337	0.48316
1041.42480	0.48346
1039.49624	0.48350
1037.56768	0.48346
1035.63911	0.48332
1033.71055	0.48303
1031.78198	0.48266
1029.85342	0.48203
1027.92485	0.48107
1025.99629	0.48014
1024.06772	0.47952
1022.13916	0.47925
1020.21060	0.47936
1018.28203	0.47968
1016.35347	0.47998
1014.42490	0.48035
1012.49634	0.48075
1010.56777	0.48115
1008.63921	0.48168
1006.71064	0.48250
1004.78208	0.48377
1002.85352	0.48554
1000.92495	0.48781
998.99639	0.49078
997.06782	0.49459
995.13926	0.49879
993.21069	0.50269
991.28213	0.50588
989.35356	0.50807
987.42500	0.50923
985.49644	0.50980
983.56787	0.51025
981.63931	0.51085
979.71074	0.51172
977.78218	0.51322
975.85361	0.51550
973.92505	0.51806
971.99648	0.52078
970.06792	0.52398
968.13936	0.52779
966.21079	0.53206
964.28223	0.53651
962.35366	0.54114
960.42510	0.54615
958.49653	0.55138
956.56797	0.55675
954.63940	0.56242
952.71084	0.56849
950.78228	0.57488
948.85371	0.58127
946.92515	0.58743
944.99658	0.59340
943.06802	0.59937
941.13945	0.60547
939.21089	0.61146
937.28232	0.61710
935.35376	0.62226
933.42520	0.62710
931.49663	0.63224
929.56807	0.63795
927.63950	0.64392
925.71094	0.64981
923.78237	0.65586
921.85381	0.66262
919.92524	0.66980
917.99668	0.67645
916.06812	0.68294
914.13955	0.69014
912.21099	0.69789
910.28242	0.70594
908.35386	0.71420
906.42529	0.72223
904.49673	0.72998
902.56816	0.73820
900.63960	0.74697
898.71104	0.75538
896.78247	0.76358
894.85391	0.77316
892.92534	0.78423
890.99678	0.79476
889.06821	0.80452
887.13965	0.81537
885.21108	0.82733
883.28252	0.83855
881.35396	0.84861
879.42539	0.85882
877.49683	0.86970
875.56826	0.88102
873.63970	0.89219
871.71113	0.90342
869.78257	0.91546
867.85400	0.92760
865.92544	0.93862
863.99687	0.94873
862.06831	0.95968
860.13975	0.97170
858.21118	0.98330
856.28262	0.99464
854.35405	1.00723
852.42549	1.02024
850.49692	1.03131
848.56836	1.04079
846.63979	1.05032
844.71123	1.06096
842.78267	1.07309
840.85410	1.08473
838.92554	1.09353
836.99697	1.10156
835.06841	1.11213
833.13984	1.12312
831.21128	1.13108
829.28271	1.14069
827.35415	1.15469
825.42559	1.16490
823.49702	1.17328
821.56846	1.18845
819.63989	1.20843
817.71133	1.22429
815.78276	1.22647
813.85420	1.21911
811.92563	1.21757
809.99707	1.22938
808.06851	1.24765
806.13994	1.26304
804.21138	1.27752
802.28281	1.29845
800.35425	1.31784
798.42568	1.31773
796.49712	1.29804
794.56855	1.27948
792.63999	1.28629
790.71143	1.32006
788.78286	1.35636
786.85430	1.35842
784.92573	1.31526
782.99717	1.26036
781.06860	1.23501
779.14004	1.26302
777.21147	1.31958
775.28291	1.31920
773.35435	1.28984
771.42578	1.30581
769.49722	1.32513
767.56865	1.30587
765.64009	1.26426
763.71152	1.21913
761.78296	1.17346
759.85439	1.11697
757.92583	1.07842
755.99727	1.05092
754.06870	1.01531
752.14014	0.99551
750.21157	0.99396
748.28301	0.98699
746.35444	0.96078
744.42588	0.93711
742.49731	0.93983
740.56875	0.90874
738.64019	0.82550
736.71162	0.75157
734.78306	0.65793
732.85449	0.56402
730.92593	0.49989
728.99736	0.40007
727.06880	0.28669
725.14023	0.20550
723.21167	0.13628
721.28311	0.09021
719.35454	0.09199
717.42598	0.10588
715.49741	0.08135
713.56885	-0.02646
711.64028	-0.11416
709.71172	-0.11862
707.78315	-0.06083
705.85459	-0.01002
703.92603	0.00329
701.99746	-0.00510
700.06890	0.10196
698.14033	0.28231
696.21177	0.31486
694.28320	0.21148
692.35464	0.10091
690.42607	0.06074
688.49751	0.08957
686.56895	0.11346
684.64038	0.13435
682.71182	0.17961
680.78325	0.22205
678.85469	0.20822
676.92612	0.15125
674.99756	0.13530
673.06899	0.17228
671.14043	0.21627
669.21187	0.19105
667.28330	0.09015
665.35474	0.00770
663.42617	0.01338
661.49761	0.06941
659.56904	0.13514
657.64048	0.18453
655.71191	0.20250
653.78335	0.18874
651.85479	0.15403
649.92622	0.10021
647.99766	0.04702
646.06909	0.04525
644.14053	0.08285
642.21196	0.08889
640.28340	0.08389
638.35483	0.10295
636.42627	0.16949
634.49771	0.28004
632.56914	0.29790
630.64058	0.17782
628.71201	0.09145
626.78345	0.06647
624.85488	0.09679
622.92632	0.15586
620.99775	0.14807
619.06919	0.09496
617.14062	0.06874
615.21206	0.06601
613.28350	0.05646
611.35493	0.05263
609.42637	0.10536
607.49780	0.17657
605.56924	0.17951
603.64067	0.12022
601.71211	0.05078
599.78354	0.01306
597.85498	0.01151
595.92642	0.04351
593.99785	0.10640
592.06929	0.13790
590.14072	0.10184
588.21216	0.07470
586.28359	0.11084
584.35503	0.17028
582.42646	0.18245
580.49790	0.17255
578.56934	0.18042
576.64077	0.16934
574.71221	0.15328
572.78364	0.16664
570.85508	0.15956
568.92651	0.07013
566.99795	0.00097
565.06938	0.01979
563.14082	0.05925
561.21226	0.09373
559.28369	0.15833
557.35513	0.20607
555.42656	0.14861
553.49800	0.08762
551.56943	0.13143
549.64087	0.21314
547.71230	0.20861
545.78374	0.14875
543.85518	0.10410
541.92661	0.08065
539.99805	0.08055
538.06948	0.11464
536.14092	0.12559
534.21235	0.08561
532.28379	0.04692
530.35522	0.03990
528.42666	0.07338
526.49810	0.12831
524.56953	0.15375
522.64097	0.13511
520.71240	0.07856
518.78384	0.02259
516.85527	-0.00045
514.92671	0.00256
512.99814	0.03278
511.06958	0.05423
509.14102	0.05865
507.21245	0.10152
505.28389	0.15807
503.35532	0.13108
501.42676	0.05458
499.49819	0.04991
