3997.91411	0.06820
3995.98555	0.06842
3994.05698	0.06906
3992.12842	0.06953
3990.19985	0.06972
3988.27129	0.06977
3986.34272	0.06987
3984.41416	0.07038
3982.48560	0.07101
3980.55703	0.07141
3978.62847	0.07171
3976.69990	0.07207
3974.77134	0.07250
3972.84277	0.07295
3970.91421	0.07327
3968.98564	0.07316
3967.05708	0.07273
3965.12852	0.07258
3963.19995	0.07300
3961.27139	0.07366
3959.34282	0.07412
3957.41426	0.07404
3955.48569	0.07366
3953.55713	0.07368
3951.62856	0.07436
3949.70000	0.07548
3947.77144	0.07626
3945.84287	0.07619
3943.91431	0.07633
3941.98574	0.07658
3940.05718	0.07557
3938.12861	0.07413
3936.20005	0.07353
3934.27148	0.07412
3932.34292	0.07579
3930.41436	0.07695
3928.48579	0.07635
3926.55723	0.07550
3924.62866	0.07576
3922.70010	0.07620
3920.77153	0.07613
3918.84297	0.07642
3916.91440	0.07676
3914.98584	0.07583
3913.05728	0.07400
3911.12871	0.07265
3909.20015	0.07246
3907.27158	0.07403
3905.34302	0.07753
3903.41445	0.08128
3901.48589	0.08267
3899.55732	0.08168
3897.62876	0.07954
3895.70020	0.07736
3893.77163	0.07673
3891.84307	0.07800
3889.91450	0.07872
3887.98594	0.07759
3886.05737	0.07746
3884.12881	0.07890
3882.20024	0.07999
3880.27168	0.08064
3878.34312	0.07999
3876.41455	0.07871
3874.48599	0.07949
3872.55742	0.08168
3870.62886	0.08355
3868.70029	0.08424
3866.77173	0.08319
3864.84316	0.08317
3862.91460	0.08430
3860.98604	0.08338
3859.05747	0.08167
3857.12891	0.08189
3855.20034	0.08492
3853.27178	0.09094
3851.34321	0.09330
3849.41465	0.08847
3847.48608	0.08424
3845.55752	0.08325
3843.62896	0.08517
3841.70039	0.08828
3839.77183	0.09133
3837.84326	0.09358
3835.91470	0.09346
3833.98613	0.09193
3832.05757	0.09061
3830.12900	0.08959
3828.20044	0.08932
3826.27187	0.09046
3824.34331	0.09229
3822.41475	0.09515
3820.48618	0.10003
3818.55762	0.10222
3816.62905	0.10078
3814.70049	0.09871
3812.77192	0.09596
3810.84336	0.09427
3808.91479	0.09524
3806.98623	0.09884
3805.05767	0.10243
3803.12910	0.10478
3801.20054	0.10835
3799.27197	0.11037
3797.34341	0.10901
3795.41484	0.10761
3793.48628	0.10627
3791.55771	0.10540
3789.62915	0.10566
3787.70059	0.10687
3785.77202	0.10922
3783.84346	0.11182
3781.91489	0.11347
3779.98633	0.11546
3778.05776	0.11774
3776.12920	0.11821
3774.20063	0.11825
3772.27207	0.12004
3770.34351	0.12381
3768.41494	0.12768
3766.48638	0.12965
3764.55781	0.13091
3762.62925	0.13234
3760.70068	0.13485
3758.77212	0.13898
3756.84355	0.14243
3754.91499	0.14464
3752.98643	0.14860
3751.05786	0.15620
3749.12930	0.16356
3747.20073	0.16523
3745.27217	0.16611
3743.34360	0.16936
3741.41504	0.17160
3739.48647	0.17330
3737.55791	0.17793
3735.62935	0.18652
3733.70078	0.19501
3731.77222	0.19789
3729.84365	0.19853
3727.91509	0.20100
3725.98652	0.20637
3724.05796	0.21346
3722.12939	0.22027
3720.20083	0.22609
3718.27227	0.23107
3716.34370	0.23654
3714.41514	0.24382
3712.48657	0.25551
3710.55801	0.27286
3708.62944	0.28754
3706.70088	0.29629
3704.77231	0.30557
3702.84375	0.31841
3700.91519	0.33547
3698.98662	0.35363
3697.05806	0.37058
3695.12949	0.38907
3693.20093	0.41002
3691.27236	0.43419
3689.34380	0.46471
3687.41523	0.49843
3685.48667	0.52563
3683.55811	0.54970
3681.62954	0.57757
3679.70098	0.61047
3677.77241	0.64596
3675.84385	0.68856
3673.91528	0.74387
3671.98672	0.78637
3670.05815	0.82380
3668.12959	0.87544
3666.20103	0.92100
3664.27246	0.95922
3662.34390	1.00216
3660.41533	1.04989
3658.48677	1.09735
3656.55820	1.14788
3654.62964	1.20414
3652.70107	1.25182
3650.77251	1.29555
3648.84395	1.35724
3646.91538	1.42713
3644.98682	1.47264
3643.05825	1.50763
3641.12969	1.54622
3639.20112	1.59023
3637.27256	1.63481
3635.34399	1.67828
3633.41543	1.72234
3631.48687	1.76438
3629.55830	1.80784
3627.62974	1.86483
3625.70117	1.91589
3623.77261	1.94828
3621.84404	1.98005
3619.91548	2.01886
3617.98691	2.06551
3616.05835	2.10826
3614.12979	2.14398
3612.20122	2.18282
3610.27266	2.22209
3608.34409	2.26161
3606.41553	2.30349
3604.48696	2.34202
3602.55840	2.37716
3600.62983	2.41619
3598.70127	2.45855
3596.77271	2.49846
3594.84414	2.53746
3592.91558	2.57853
3590.98701	2.61858
3589.05845	2.65628
3587.12988	2.70031
3585.20132	2.74640
3583.27275	2.78394
3581.34419	2.81986
3579.41562	2.86063
3577.48706	2.90438
3575.55850	2.94693
3573.62993	2.98932
3571.70137	3.03142
3569.77280	3.07375
3567.84424	3.12117
3565.91567	3.17612
3563.98711	3.22293
3562.05854	3.26055
3560.12998	3.30116
3558.20142	3.34432
3556.27285	3.38663
3554.34429	3.42865
3552.41572	3.47561
3550.48716	3.52422
3548.55859	3.56886
3546.63003	3.61500
3544.70146	3.66544
3542.77290	3.71177
3540.84434	3.75321
3538.91577	3.79834
3536.98721	3.84727
3535.05864	3.89649
3533.13008	3.94513
3531.20151	3.99435
3529.27295	4.04279
3527.34438	4.09128
3525.41582	4.14083
3523.48726	4.18789
3521.55869	4.23086
3519.63013	4.27312
3517.70156	4.32138
3515.77300	4.37229
3513.84443	4.41970
3511.91587	4.46686
3509.98730	4.51715
3508.05874	4.56723
3506.13018	4.61358
3504.20161	4.65860
3502.27305	4.70624
3500.34448	4.75915
3498.41592	4.81226
3496.48735	4.85884
3494.55879	4.90304
3492.63022	4.95050
3490.70166	5.00239
3488.77310	5.05581
3486.84453	5.10340
3484.91597	5.14817
3482.98740	5.19289
3481.05884	5.23303
3479.13027	5.27354
3477.20171	5.32435
3475.27314	5.38416
3473.34458	5.44070
3471.41602	5.48623
3469.48745	5.52329
3467.55889	5.56222
3465.63032	5.61073
3463.70176	5.66688
3461.77319	5.72934
3459.84463	5.79554
3457.91606	5.85448
3455.98750	5.90604
3454.05894	5.95107
3452.13037	5.98452
3450.20181	6.02289
3448.27324	6.08232
3446.34468	6.15008
3444.41611	6.20410
3442.48755	6.25117
3440.55898	6.29876
3438.63042	6.35085
3436.70186	6.41259
3434.77329	6.45969
3432.84473	6.49033
3430.91616	6.53583
3428.98760	6.58846
3427.05903	6.62157
3425.13047	6.65676
3423.20190	6.71723
3421.27334	6.78643
3419.34478	6.84046
3417.41621	6.87632
3415.48765	6.90249
3413.55908	6.94899
3411.63052	7.01769
3409.70195	7.05232
3407.77339	7.07590
3405.84482	7.13187
3403.91626	7.18605
3401.98770	7.20860
3400.05913	7.22762
3398.13057	7.26876
3396.20200	7.32162
3394.27344	7.37491
3392.34487	7.42871
3390.41631	7.47737
3388.48774	7.49945
3386.55918	7.53978
3384.63062	7.60865
3382.70205	7.65369
3380.77349	7.68871
3378.84492	7.72419
3376.91636	7.71631
3374.98779	7.69280
3373.05923	7.73124
3371.13066	7.79897
3369.20210	7.87299
3367.27354	7.93202
3365.34497	7.94914
3363.41641	7.96576
3361.48784	7.96030
3359.55928	7.90977
3357.63071	7.85055
3355.70215	7.81884
3353.77358	7.83871
3351.84502	7.92626
3349.91646	7.97853
3347.98789	7.93276
3346.05933	7.92032
3344.13076	7.99453
3342.20220	8.05822
3340.27363	8.06152
3338.34507	8.05429
3336.41650	8.04912
3334.48794	8.06009
3332.55937	8.07381
3330.63081	8.11621
3328.70225	8.18403
3326.77368	8.18820
3324.84512	8.17876
3322.91655	8.20978
3320.98799	8.23730
3319.05942	8.20450
3317.13086	8.12290
3315.20229	8.06565
3313.27373	8.06495
3311.34517	8.09336
3309.41660	8.13262
3307.48804	8.14070
3305.55947	8.10940
3303.63091	8.12711
3301.70234	8.21674
3299.77378	8.35077
3297.84521	8.46042
3295.91665	8.44344
3293.98809	8.32091
3292.05952	8.24745
3290.13096	8.26441
3288.20239	8.29797
3286.27383	8.34225
3284.34526	8.36828
3282.41670	8.30294
3280.48813	8.20376
3278.55957	8.22236
3276.63101	8.30247
3274.70244	8.29924
3272.77388	8.29541
3270.84531	8.31661
3268.91675	8.29080
3266.98818	8.26910
3265.05962	8.26336
3263.13105	8.23975
3261.20249	8.24595
3259.27393	8.24188
3257.34536	8.20172
3255.41680	8.17210
3253.48823	8.15966
3251.55967	8.19121
3249.63110	8.23434
3247.70254	8.21575
3245.77397	8.17004
3243.84541	8.19999
3241.91685	8.27091
3239.98828	8.27246
3238.05972	8.25209
3236.13115	8.27295
3234.20259	8.30199
3232.27402	8.26297
3230.34546	8.15836
3228.41689	8.14705
3226.48833	8.25309
3224.55977	8.29491
3222.63120	8.27203
3220.70264	8.28761
3218.77407	8.30888
3216.84551	8.28406
3214.91694	8.21284
3212.98838	8.12099
3211.05981	8.04481
3209.13125	8.01428
3207.20269	8.00113
3205.27412	7.95239
3203.34556	7.88514
3201.41699	7.85994
3199.48843	7.84617
3197.55986	7.76461
3195.63130	7.65446
3193.70273	7.60080
3191.77417	7.60473
3189.84561	7.59633
3187.91704	7.54170
3185.98848	7.48138
3184.05991	7.42232
3182.13135	7.35464
3180.20278	7.32046
3178.27422	7.31210
3176.34565	7.27264
3174.41709	7.20238
3172.48853	7.11990
3170.55996	7.03279
3168.63140	6.96917
3166.70283	6.93857
3164.77427	6.90508
3162.84570	6.84561
3160.91714	6.76625
3158.98857	6.67231
3157.06001	6.58404
3155.13145	6.51399
3153.20288	6.43752
3151.27432	6.34805
3149.34575	6.27558
3147.41719	6.23418
3145.48862	6.19306
3143.56006	6.11687
3141.63149	6.02628
3139.70293	5.95074
3137.77437	5.88237
3135.84580	5.81631
3133.91724	5.75863
3131.98867	5.69580
3130.06011	5.61626
3128.13154	5.53299
3126.20298	5.45827
3124.27441	5.38820
3122.34585	5.31598
3120.41729	5.24631
3118.48872	5.18168
3116.56016	5.11763
3114.63159	5.05030
3112.70303	4.97702
3110.77446	4.89895
3108.84590	4.82186
3106.91733	4.75234
3104.98877	4.68693
3103.06021	4.61838
3101.13164	4.54721
3099.20308	4.47713
3097.27451	4.41061
3095.34595	4.34704
3093.41738	4.28256
3091.48882	4.21514
3089.56025	4.14744
3087.63169	4.08227
3085.70312	4.02008
3083.77456	3.95857
3081.84600	3.89490
3079.91743	3.83023
3077.98887	3.76813
3076.06030	3.70901
3074.13174	3.65015
3072.20317	3.59007
3070.27461	3.52977
3068.34604	3.47139
3066.41748	3.41609
3064.48892	3.36188
3062.56035	3.30645
3060.63179	3.25139
3058.70322	3.19821
3056.77466	3.14507
3054.84609	3.09125
3052.91753	3.03901
3050.98896	2.98873
3049.06040	2.93845
3047.13184	2.88818
3045.20327	2.83859
3043.27471	2.78965
3041.34614	2.74183
3039.41758	2.69518
3037.48901	2.64880
3035.56045	2.60260
3033.63188	2.55749
3031.70332	2.51309
3029.77476	2.46862
3027.84619	2.42497
3025.91763	2.38257
3023.98906	2.34063
3022.06050	2.29931
3020.13193	2.25912
3018.20337	2.21935
3016.27480	2.17954
3014.34624	2.14052
3012.41768	2.10275
3010.48911	2.06564
3008.56055	2.02900
3006.63198	1.99295
3004.70342	1.95736
3002.77485	1.92245
3000.84629	1.88847
2998.91772	1.85522
2996.98916	1.82228
2995.06060	1.78944
2993.13203	1.75659
2991.20347	1.72392
2989.27490	1.69227
2987.34634	1.66192
2985.41777	1.63219
2983.48921	1.60273
2981.56064	1.57404
2979.63208	1.54599
2977.70352	1.51784
2975.77495	1.48988
2973.84639	1.46268
2971.91782	1.43584
2969.98926	1.40903
2968.06069	1.38266
2966.13213	1.35726
2964.20356	1.33258
2962.27500	1.30827
2960.34644	1.28407
2958.41787	1.25992
2956.48931	1.23660
2954.56074	1.21468
2952.63218	1.19344
2950.70361	1.17219
2948.77505	1.15103
2946.84648	1.13025
2944.91792	1.10964
2942.98936	1.08875
2941.06079	1.06812
2939.13223	1.04851
2937.20366	1.02961
2935.27510	1.01086
2933.34653	0.99242
2931.41797	0.97436
2929.48940	0.95641
2927.56084	0.93876
2925.63228	0.92160
2923.70371	0.90504
2921.77515	0.88911
2919.84658	0.87354
2917.91802	0.85808
2915.98945	0.84275
2914.06089	0.82761
2912.13232	0.81247
2910.20376	0.79746
2908.27520	0.78307
2906.34663	0.76950
2904.41807	0.75653
2902.48950	0.74397
2900.56094	0.73146
2898.63237	0.71881
2896.70381	0.70643
2894.77524	0.69447
2892.84668	0.68258
2890.91812	0.67074
2888.98955	0.65926
2887.06099	0.64830
2885.13242	0.63763
2883.20386	0.62701
2881.27529	0.61647
2879.34673	0.60601
2877.41816	0.59567
2875.48960	0.58566
2873.56104	0.57592
2871.63247	0.56617
2869.70391	0.55631
2867.77534	0.54648
2865.84678	0.53690
2863.91821	0.52741
2861.98965	0.51783
2860.06108	0.50850
2858.13252	0.49976
2856.20396	0.49150
2854.27539	0.48350
2852.34683	0.47555
2850.41826	0.46772
2848.48970	0.46012
2846.56113	0.45265
2844.63257	0.44541
2842.70400	0.43875
2840.77544	0.43256
2838.84687	0.42652
2836.91831	0.42055
2834.98975	0.41467
2833.06118	0.40889
2831.13262	0.40315
2829.20405	0.39732
2827.27549	0.39143
2825.34692	0.38554
2823.41836	0.37967
2821.48979	0.37406
2819.56123	0.36871
2817.63267	0.36336
2815.70410	0.35799
2813.77554	0.35266
2811.84697	0.34743
2809.91841	0.34232
2807.98984	0.33721
2806.06128	0.33209
2804.13271	0.32712
2802.20415	0.32235
2800.27559	0.31778
2798.34702	0.31337
2796.41846	0.30912
2794.48989	0.30492
2792.56133	0.30063
2790.63276	0.29637
2788.70420	0.29232
2786.77563	0.28843
2784.84707	0.28453
2782.91851	0.28052
2780.98994	0.27661
2779.06138	0.27299
2777.13281	0.26958
2775.20425	0.26631
2773.27568	0.26299
2771.34712	0.25946
2769.41855	0.25596
2767.48999	0.25267
2765.56143	0.24946
2763.63286	0.24638
2761.70430	0.24343
2759.77573	0.24044
2757.84717	0.23739
2755.91860	0.23445
2753.99004	0.23166
2752.06147	0.22888
2750.13291	0.22611
2748.20435	0.22339
2746.27578	0.22079
2744.34722	0.21841
2742.41865	0.21619
2740.49009	0.21392
2738.56152	0.21160
2736.63296	0.20925
2734.70439	0.20680
2732.77583	0.20443
2730.84727	0.20237
2728.91870	0.20050
2726.99014	0.19860
2725.06157	0.19665
2723.13301	0.19468
2721.20444	0.19277
2719.27588	0.19104
2717.34731	0.18930
2715.41875	0.18746
2713.49019	0.18572
2711.56162	0.18404
2709.63306	0.18242
2707.70449	0.18093
2705.77593	0.17935
2703.84736	0.17756
2701.91880	0.17583
2699.99023	0.17432
2698.06167	0.17300
2696.13311	0.17177
2694.20454	0.17058
2692.27598	0.16941
2690.34741	0.16816
2688.41885	0.16686
2686.49028	0.16566
2684.56172	0.16448
2682.63315	0.16325
2680.70459	0.16205
2678.77603	0.16102
2676.84746	0.16011
2674.91890	0.15907
2672.99033	0.15788
2671.06177	0.15690
2669.13320	0.15619
2667.20464	0.15544
2665.27607	0.15453
2663.34751	0.15362
2661.41895	0.15284
2659.49038	0.15212
2657.56182	0.15138
2655.63325	0.15070
2653.70469	0.15009
2651.77612	0.14944
2649.84756	0.14870
2647.91899	0.14800
2645.99043	0.14746
2644.06187	0.14699
2642.13330	0.14650
2640.20474	0.14609
2638.27617	0.14582
2636.34761	0.14562
2634.41904	0.14528
2632.49048	0.14472
2630.56191	0.14412
2628.63335	0.14370
2626.70479	0.14346
2624.77622	0.14328
2622.84766	0.14317
2620.91909	0.14306
2618.99053	0.14288
2617.06196	0.14268
2615.13340	0.14248
2613.20483	0.14232
2611.27627	0.14231
2609.34771	0.14235
2607.41914	0.14230
2605.49058	0.14216
2603.56201	0.14211
2601.63345	0.14219
2599.70488	0.14219
2597.77632	0.14211
2595.84775	0.14223
2593.91919	0.14255
2591.99062	0.14281
2590.06206	0.14295
2588.13350	0.14314
2586.20493	0.14343
2584.27637	0.14365
2582.34780	0.14384
2580.41924	0.14414
2578.49067	0.14454
2576.56211	0.14494
2574.63354	0.14534
2572.70498	0.14573
2570.77642	0.14597
2568.84785	0.14616
2566.91929	0.14659
2564.99072	0.14724
2563.06216	0.14788
2561.13359	0.14841
2559.20503	0.14889
2557.27646	0.14929
2555.34790	0.14970
2553.41934	0.15026
2551.49077	0.15077
2549.56221	0.15123
2547.63364	0.15188
2545.70508	0.15260
2543.77651	0.15326
2541.84795	0.15397
2539.91938	0.15468
2537.99082	0.15531
2536.06226	0.15597
2534.13369	0.15668
2532.20513	0.15741
2530.27656	0.15821
2528.34800	0.15902
2526.41943	0.15971
2524.49087	0.16029
2522.56230	0.16091
2520.63374	0.16169
2518.70518	0.16258
2516.77661	0.16350
2514.84805	0.16436
2512.91948	0.16518
2510.99092	0.16591
2509.06235	0.16658
2507.13379	0.16746
2505.20522	0.16857
2503.27666	0.16965
2501.34810	0.17057
2499.41953	0.17135
2497.49097	0.17205
2495.56240	0.17287
2493.63384	0.17379
2491.70527	0.17462
2489.77671	0.17545
2487.84814	0.17636
2485.91958	0.17725
2483.99102	0.17815
2482.06245	0.17908
2480.13389	0.17995
2478.20532	0.18080
2476.27676	0.18165
2474.34819	0.18257
2472.41963	0.18365
2470.49106	0.18478
2468.56250	0.18575
2466.63394	0.18664
2464.70537	0.18760
2462.77681	0.18860
2460.84824	0.18954
2458.91968	0.19045
2456.99111	0.19141
2455.06255	0.19238
2453.13398	0.19331
2451.20542	0.19423
2449.27686	0.19516
2447.34829	0.19617
2445.41973	0.19720
2443.49116	0.19827
2441.56260	0.19942
2439.63403	0.20055
2437.70547	0.20154
2435.77690	0.20246
2433.84834	0.20357
2431.91978	0.20480
2429.99121	0.20586
2428.06265	0.20682
2426.13408	0.20784
2424.20552	0.20892
2422.27695	0.21015
2420.34839	0.21140
2418.41982	0.21244
2416.49126	0.21345
2414.56270	0.21464
2412.63413	0.21584
2410.70557	0.21689
2408.77700	0.21798
2406.84844	0.21921
2404.91987	0.22045
2402.99131	0.22162
2401.06274	0.22275
2399.13418	0.22394
2397.20562	0.22519
2395.27705	0.22643
2393.34849	0.22762
2391.41992	0.22883
2389.49136	0.23030
2387.56279	0.23224
2385.63423	0.23486
2383.70566	0.23830
2381.77710	0.24248
2379.84854	0.24719
2377.91997	0.25245
2375.99141	0.25856
2374.06284	0.26560
2372.13428	0.27346
2370.20571	0.28210
2368.27715	0.29127
2366.34858	0.30029
2364.42002	0.30807
2362.49146	0.31328
2360.56289	0.31585
2358.63433	0.31753
2356.70576	0.31780
2354.77720	0.31365
2352.84863	0.30608
2350.92007	0.29860
2348.99150	0.29448
2347.06294	0.29520
2345.13437	0.30116
2343.20581	0.30955
2341.27725	0.31448
2339.34868	0.31575
2337.42012	0.31614
2335.49155	0.31643
2333.56299	0.31604
2331.63442	0.31586
2329.70586	0.31695
2327.77729	0.31839
2325.84873	0.31820
2323.92017	0.31631
2321.99160	0.31455
2320.06304	0.31373
2318.13447	0.31283
2316.20591	0.31155
2314.27734	0.31071
2312.34878	0.31075
2310.42021	0.31128
2308.49165	0.31146
2306.56309	0.31102
2304.63452	0.31056
2302.70596	0.31067
2300.77739	0.31140
2298.84883	0.31239
2296.92026	0.31335
2294.99170	0.31417
2293.06313	0.31490
2291.13457	0.31579
2289.20601	0.31687
2287.27744	0.31795
2285.34888	0.31895
2283.42031	0.32021
2281.49175	0.32195
2279.56318	0.32401
2277.63462	0.32623
2275.70605	0.32854
2273.77749	0.33071
2271.84893	0.33267
2269.92036	0.33463
2267.99180	0.33670
2266.06323	0.33877
2264.13467	0.34082
2262.20610	0.34284
2260.27754	0.34480
2258.34897	0.34676
2256.42041	0.34870
2254.49185	0.35064
2252.56328	0.35274
2250.63472	0.35494
2248.70615	0.35703
2246.77759	0.35905
2244.84902	0.36108
2242.92046	0.36315
2240.99189	0.36531
2239.06333	0.36756
2237.13477	0.36983
2235.20620	0.37204
2233.27764	0.37423
2231.34907	0.37636
2229.42051	0.37845
2227.49194	0.38059
2225.56338	0.38289
2223.63481	0.38523
2221.70625	0.38745
2219.77769	0.38964
2217.84912	0.39182
2215.92056	0.39386
2213.99199	0.39583
2212.06343	0.39785
2210.13486	0.40004
2208.20630	0.40235
2206.27773	0.40448
2204.34917	0.40640
2202.42061	0.40833
2200.49204	0.41034
2198.56348	0.41236
2196.63491	0.41434
2194.70635	0.41636
2192.77778	0.41844
2190.84922	0.42040
2188.92065	0.42221
2186.99209	0.42404
2185.06353	0.42585
2183.13496	0.42748
2181.20640	0.42899
2179.27783	0.43061
2177.34927	0.43239
2175.42070	0.43410
2173.49214	0.43557
2171.56357	0.43690
2169.63501	0.43833
2167.70645	0.43975
2165.77788	0.44104
2163.84932	0.44228
2161.92075	0.44353
2159.99219	0.44467
2158.06362	0.44565
2156.13506	0.44659
2154.20649	0.44756
2152.27793	0.44852
2150.34937	0.44928
2148.42080	0.44984
2146.49224	0.45042
2144.56367	0.45107
2142.63511	0.45159
2140.70654	0.45190
2138.77798	0.45212
2136.84941	0.45230
2134.92085	0.45241
2132.99229	0.45240
2131.06372	0.45238
2129.13516	0.45240
2127.20659	0.45239
2125.27803	0.45227
2123.34946	0.45200
2121.42090	0.45153
2119.49233	0.45089
2117.56377	0.45027
2115.63521	0.44969
2113.70664	0.44898
2111.77808	0.44813
2109.84951	0.44722
2107.92095	0.44622
2105.99238	0.44517
2104.06382	0.44419
2102.13525	0.44313
2100.20669	0.44188
2098.27812	0.44045
2096.34956	0.43894
2094.42100	0.43751
2092.49243	0.43611
2090.56387	0.43460
2088.63530	0.43294
2086.70674	0.43123
2084.77817	0.42942
2082.84961	0.42745
2080.92104	0.42548
2078.99248	0.42366
2077.06392	0.42186
2075.13535	0.41987
2073.20679	0.41769
2071.27822	0.41543
2069.34966	0.41323
2067.42109	0.41107
2065.49253	0.40890
2063.56396	0.40657
2061.63540	0.40412
2059.70684	0.40171
2057.77827	0.39930
2055.84971	0.39682
2053.92114	0.39434
2051.99258	0.39188
2050.06401	0.38933
2048.13545	0.38674
2046.20688	0.38421
2044.27832	0.38172
2042.34976	0.37919
2040.42119	0.37655
2038.49263	0.37382
2036.56406	0.37106
2034.63550	0.36829
2032.70693	0.36557
2030.77837	0.36296
2028.84980	0.36032
2026.92124	0.35756
2024.99268	0.35466
2023.06411	0.35185
2021.13555	0.34923
2019.20698	0.34672
2017.27842	0.34415
2015.34985	0.34127
2013.42129	0.33837
2011.49272	0.33572
2009.56416	0.33313
2007.63560	0.33044
2005.70703	0.32771
2003.77847	0.32502
2001.84990	0.32239
1999.92134	0.31984
1997.99277	0.31734
1996.06421	0.31489
1994.13564	0.31270
1992.20708	0.31055
1990.27852	0.30793
1988.34995	0.30512
1986.42139	0.30240
1984.49282	0.29986
1982.56426	0.29753
1980.63569	0.29525
1978.70713	0.29295
1976.77856	0.29068
1974.85000	0.28846
1972.92144	0.28627
1970.99287	0.28412
1969.06431	0.28219
1967.13574	0.28044
1965.20718	0.27845
1963.27861	0.27624
1961.35005	0.27412
1959.42148	0.27212
1957.49292	0.27025
1955.56436	0.26855
1953.63579	0.26683
1951.70723	0.26502
1949.77866	0.26336
1947.85010	0.26193
1945.92153	0.26068
1943.99297	0.25973
1942.06440	0.25870
1940.13584	0.25686
1938.20728	0.25477
1936.27871	0.25317
1934.35015	0.25186
1932.42158	0.25057
1930.49302	0.24935
1928.56445	0.24822
1926.63589	0.24720
1924.70732	0.24658
1922.77876	0.24613
1920.85020	0.24525
1918.92163	0.24426
1916.99307	0.24327
1915.06450	0.24191
1913.13594	0.24071
1911.20737	0.24010
1909.27881	0.23969
1907.35024	0.23896
1905.42168	0.23801
1903.49312	0.23723
1901.56455	0.23662
1899.63599	0.23610
1897.70742	0.23587
1895.77886	0.23580
1893.85029	0.23552
1891.92173	0.23515
1889.99316	0.23511
1888.06460	0.23481
1886.13604	0.23409
1884.20747	0.23356
1882.27891	0.23328
1880.35034	0.23315
1878.42178	0.23313
1876.49321	0.23312
1874.56465	0.23307
1872.63608	0.23331
1870.70752	0.23428
1868.77896	0.23590
1866.85039	0.23632
1864.92183	0.23520
1862.99326	0.23436
1861.06470	0.23433
1859.13613	0.23467
1857.20757	0.23492
1855.27900	0.23515
1853.35044	0.23551
1851.42187	0.23614
1849.49331	0.23709
1847.56475	0.23842
1845.63618	0.24007
1843.70762	0.24142
1841.77905	0.24144
1839.85049	0.24108
1837.92192	0.24165
1835.99336	0.24262
1834.06479	0.24351
1832.13623	0.24485
1830.20767	0.24717
1828.27910	0.24902
1826.35054	0.24970
1824.42197	0.25058
1822.49341	0.25136
1820.56484	0.25205
1818.63628	0.25322
1816.70771	0.25483
1814.77915	0.25651
1812.85059	0.25852
1810.92202	0.26091
1808.99346	0.26295
1807.06489	0.26455
1805.13633	0.26630
1803.20776	0.26881
1801.27920	0.27193
1799.35063	0.27496
1797.42207	0.27726
1795.49351	0.27970
1793.56494	0.28314
1791.63638	0.28721
1789.70781	0.28987
1787.77925	0.29143
1785.85068	0.29421
1783.92212	0.29813
1781.99355	0.30251
1780.06499	0.30693
1778.13643	0.31107
1776.20786	0.31514
1774.27930	0.32026
1772.35073	0.32726
1770.42217	0.33353
1768.49360	0.33769
1766.56504	0.34177
1764.63647	0.34664
1762.70791	0.35284
1760.77935	0.36072
1758.85078	0.36771
1756.92222	0.37473
1754.99365	0.38233
1753.06509	0.38947
1751.13652	0.39886
1749.20796	0.41078
1747.27939	0.42140
1745.35083	0.42996
1743.42227	0.43910
1741.49370	0.44951
1739.56514	0.46192
1737.63657	0.47422
1735.70801	0.48551
1733.77944	0.50323
1731.85088	0.52287
1729.92231	0.53686
1727.99375	0.55119
1726.06519	0.56742
1724.13662	0.58578
1722.20806	0.60577
1720.27949	0.62479
1718.35093	0.64807
1716.42236	0.68138
1714.49380	0.71080
1712.56523	0.73391
1710.63667	0.75693
1708.70811	0.78239
1706.77954	0.81177
1704.85098	0.84664
1702.92241	0.87740
1700.99385	0.90806
1699.06528	0.95388
1697.13672	0.99536
1695.20815	1.03627
1693.27959	1.07500
1691.35103	1.10666
1689.42246	1.14429
1687.49390	1.18389
1685.56533	1.22178
1683.63677	1.27985
1681.70820	1.33882
1679.77964	1.37586
1677.85107	1.41139
1675.92251	1.45299
1673.99395	1.50459
1672.06538	1.55002
1670.13682	1.59433
1668.20825	1.65039
1666.27969	1.69430
1664.35112	1.73130
1662.42256	1.77700
1660.49399	1.82629
1658.56543	1.86462
1656.63687	1.89771
1654.70830	1.93108
1652.77974	1.98569
1650.85117	2.03584
1648.92261	2.05593
1646.99404	2.08481
1645.06548	2.11796
1643.13691	2.13970
1641.20835	2.15461
1639.27979	2.16852
1637.35122	2.17888
1635.42266	2.18326
1633.49409	2.17832
1631.56553	2.16678
1629.63696	2.15322
1627.70840	2.13107
1625.77983	2.10438
1623.85127	2.06994
1621.92271	2.02631
1619.99414	1.98566
1618.06558	1.94541
1616.13701	1.88727
1614.20845	1.82610
1612.27988	1.77956
1610.35132	1.73244
1608.42275	1.68144
1606.49419	1.62988
1604.56562	1.58170
1602.63706	1.53545
1600.70850	1.48995
1598.77993	1.44737
1596.85137	1.40722
1594.92280	1.36806
1592.99424	1.32927
1591.06567	1.29304
1589.13711	1.25875
1587.20854	1.22627
1585.27998	1.19583
1583.35142	1.16700
1581.42285	1.14006
1579.49429	1.11680
1577.56572	1.09621
1575.63716	1.06983
1573.70859	1.04449
1571.78003	1.02772
1569.85146	1.01029
1567.92290	0.98948
1565.99434	0.97239
1564.06577	0.95820
1562.13721	0.94694
1560.20864	0.93885
1558.28008	0.92311
1556.35151	0.90386
1554.42295	0.89094
1552.49438	0.87938
1550.56582	0.86866
1548.63726	0.85800
1546.70869	0.84909
1544.78013	0.84214
1542.85156	0.83584
1540.92300	0.82792
1538.99443	0.81341
1537.06587	0.80109
1535.13730	0.79394
1533.20874	0.78636
1531.28018	0.77742
1529.35161	0.77067
1527.42305	0.76536
1525.49448	0.75995
1523.56592	0.75472
1521.63735	0.74897
1519.70879	0.74153
1517.78022	0.73503
1515.85166	0.72864
1513.92310	0.72203
1511.99453	0.71713
1510.06597	0.71426
1508.13740	0.71288
1506.20884	0.70790
1504.28027	0.69942
1502.35171	0.69405
1500.42314	0.69077
1498.49458	0.68829
1496.56602	0.68496
1494.63745	0.68059
1492.70889	0.67740
1490.78032	0.67617
1488.85176	0.67487
1486.92319	0.67127
1484.99463	0.66723
1483.06606	0.66436
1481.13750	0.66231
1479.20894	0.66048
1477.28037	0.65921
1475.35181	0.65867
1473.42324	0.65798
1471.49468	0.65513
1469.56611	0.65114
1467.63755	0.64830
1465.70898	0.64640
1463.78042	0.64419
1461.85186	0.64195
1459.92329	0.64119
1457.99473	0.64165
1456.06616	0.63926
1454.13760	0.63408
1452.20903	0.63027
1450.28047	0.62770
1448.35190	0.62566
1446.42334	0.62327
1444.49478	0.62072
1442.56621	0.61858
1440.63765	0.61684
1438.70908	0.61580
1436.78052	0.61520
1434.85195	0.61351
1432.92339	0.61117
1430.99482	0.60943
1429.06626	0.60784
1427.13770	0.60614
1425.20913	0.60489
1423.28057	0.60386
1421.35200	0.60282
1419.42344	0.60208
1417.49487	0.60054
1415.56631	0.59780
1413.63774	0.59543
1411.70918	0.59374
1409.78062	0.59228
1407.85205	0.59088
1405.92349	0.58975
1403.99492	0.58850
1402.06636	0.58706
1400.13779	0.58616
1398.20923	0.58549
1396.28066	0.58420
1394.35210	0.58221
1392.42354	0.57994
1390.49497	0.57820
1388.56641	0.57724
1386.63784	0.57620
1384.70928	0.57444
1382.78071	0.57275
1380.85215	0.57170
1378.92358	0.57112
1376.99502	0.57080
1375.06646	0.57073
1373.13789	0.57021
1371.20933	0.56902
1369.28076	0.56798
1367.35220	0.56705
1365.42363	0.56612
1363.49507	0.56557
1361.56650	0.56482
1359.63794	0.56331
1357.70937	0.56180
1355.78081	0.56064
1353.85225	0.55959
1351.92368	0.55842
1349.99512	0.55731
1348.06655	0.55636
1346.13799	0.55542
1344.20942	0.55456
1342.28086	0.55410
1340.35229	0.55402
1338.42373	0.55338
1336.49517	0.55174
1334.56660	0.54999
1332.63804	0.54873
1330.70947	0.54783
1328.78091	0.54710
1326.85234	0.54642
1324.92378	0.54573
1322.99521	0.54515
1321.06665	0.54469
1319.13809	0.54420
1317.20952	0.54353
1315.28096	0.54273
1313.35239	0.54183
1311.42383	0.54079
1309.49526	0.53980
1307.56670	0.53901
1305.63813	0.53820
1303.70957	0.53723
1301.78101	0.53626
1299.85244	0.53543
1297.92388	0.53470
1295.99531	0.53397
1294.06675	0.53334
1292.13818	0.53285
1290.20962	0.53228
1288.28105	0.53153
1286.35249	0.53073
1284.42393	0.53005
1282.49536	0.52949
1280.56680	0.52902
1278.63823	0.52863
1276.70967	0.52830
1274.78110	0.52792
1272.85254	0.52746
1270.92397	0.52705
1268.99541	0.52657
1267.06685	0.52602
1265.13828	0.52556
1263.20972	0.52520
1261.28115	0.52489
1259.35259	0.52453
1257.42402	0.52400
1255.49546	0.52355
1253.56689	0.52334
1251.63833	0.52314
1249.70977	0.52279
1247.78120	0.52244
1245.85264	0.52215
1243.92407	0.52173
1241.99551	0.52116
1240.06694	0.52065
1238.13838	0.52030
1236.20981	0.51985
1234.28125	0.51918
1232.35269	0.51846
1230.42412	0.51775
1228.49556	0.51698
1226.56699	0.51614
1224.63843	0.51532
1222.70986	0.51457
1220.78130	0.51385
1218.85273	0.51317
1216.92417	0.51253
1214.99561	0.51186
1213.06704	0.51123
1211.13848	0.51064
1209.20991	0.50996
1207.28135	0.50925
1205.35278	0.50871
1203.42422	0.50834
1201.49565	0.50797
1199.56709	0.50741
1197.63853	0.50665
1195.70996	0.50577
1193.78140	0.50495
1191.85283	0.50449
1189.92427	0.50438
1187.99570	0.50425
1186.06714	0.50402
1184.13857	0.50391
1182.21001	0.50399
1180.28145	0.50432
1178.35288	0.50487
1176.42432	0.50550
1174.49575	0.50622
1172.56719	0.50706
1170.63862	0.50779
1168.71006	0.50848
1166.78149	0.50934
1164.85293	0.51020
1162.92437	0.51108
1160.99580	0.51199
1159.06724	0.51247
1157.13867	0.51225
1155.21011	0.51160
1153.28154	0.51068
1151.35298	0.50938
1149.42441	0.50753
1147.49585	0.50525
1145.56729	0.50279
1143.63872	0.50030
1141.71016	0.49786
1139.78159	0.49562
1137.85303	0.49375
1135.92446	0.49219
1133.99590	0.49077
1132.06733	0.48962
1130.13877	0.48875
1128.21021	0.48803
1126.28164	0.48727
1124.35308	0.48650
1122.42451	0.48589
1120.49595	0.48550
1118.56738	0.48542
1116.63882	0.48560
1114.71025	0.48596
1112.78169	0.48655
1110.85312	0.48728
1108.92456	0.48807
1106.99600	0.48911
1105.06743	0.49035
1103.13887	0.49142
1101.21030	0.49237
1099.28174	0.49368
1097.35317	0.49570
1095.42461	0.49852
1093.49604	0.50216
1091.56748	0.50683
1089.63892	0.51285
1087.71035	0.52019
1085.78179	0.52849
1083.85322	0.53697
1081.92466	0.54449
1079.99609	0.55031
1078.06753	0.55393
1076.13896	0.55458
1074.21040	0.55184
1072.28184	0.54636
1070.35327	0.53969
1068.42471	0.53296
1066.49614	0.52643
1064.56758	0.52030
1062.63901	0.51486
1060.71045	0.51002
1058.78188	0.50569
1056.85332	0.50186
1054.92476	0.49859
1052.99619	0.49609
1051.06763	0.49426
1049.13906	0.49280
1047.21050	0.49166
1045.28193	0.49121
1043.35337	0.49163
1041.42480	0.49239
1039.49624	0.49290
1037.56768	0.49302
1035.63911	0.49285
1033.71055	0.49249
1031.78198	0.49190
1029.85342	0.49101
1027.92485	0.48984
1025.99629	0.48861
1024.06772	0.48770
1022.13916	0.48721
1020.21060	0.48706
1018.28203	0.48698
1016.35347	0.48696
1014.42490	0.48710
1012.49634	0.48739
1010.56777	0.48773
1008.63921	0.48807
1006.71064	0.48861
1004.78208	0.48969
1002.85352	0.49145
1000.92495	0.49384
998.99639	0.49683
997.06782	0.50052
995.13926	0.50470
993.21069	0.50878
991.28213	0.51208
989.35356	0.51410
987.42500	0.51486
985.49644	0.51496
983.56787	0.51514
981.63931	0.51567
979.71074	0.51647
977.78218	0.51770
975.85361	0.51954
973.92505	0.52194
971.99648	0.52493
970.06792	0.52844
968.13936	0.53217
966.21079	0.53600
964.28223	0.54013
962.35366	0.54471
960.42510	0.54973
958.49653	0.55505
956.56797	0.56061
954.63940	0.56649
952.71084	0.57250
950.78228	0.57848
948.85371	0.58465
946.92515	0.59100
944.99658	0.59714
943.06802	0.60281
941.13945	0.60803
939.21089	0.61328
937.28232	0.61957
935.35376	0.62647
933.42520	0.63235
931.49663	0.63731
929.56807	0.64244
927.63950	0.64797
925.71094	0.65396
923.78237	0.66026
921.85381	0.66663
919.92524	0.67349
917.99668	0.68078
916.06812	0.68810
914.13955	0.69545
912.21099	0.70232
910.28242	0.70882
908.35386	0.71652
906.42529	0.72589
904.49673	0.73507
902.56816	0.74343
900.63960	0.75224
898.71104	0.76166
896.78247	0.77145
894.85391	0.78170
892.92534	0.79142
890.99678	0.80024
889.06821	0.81033
887.13965	0.82209
885.21108	0.83357
883.28252	0.84454
881.35396	0.85589
879.42539	0.86858
877.49683	0.88111
875.56826	0.89180
873.63970	0.90249
871.71113	0.91420
869.78257	0.92560
867.85400	0.93662
865.92544	0.94783
863.99687	0.95849
862.06831	0.96921
860.13975	0.98088
858.21118	0.99207
856.28262	1.00157
854.35405	1.01140
852.42549	1.02400
850.49692	1.03645
848.56836	1.04638
846.63979	1.05715
844.71123	1.07050
842.78267	1.08298
840.85410	1.09297
838.92554	1.10318
836.99697	1.11386
835.06841	1.12292
833.13984	1.13209
831.21128	1.14282
829.28271	1.15310
827.35415	1.16352
825.42559	1.17616
823.49702	1.18815
821.56846	1.19456
819.63989	1.19986
817.71133	1.21269
815.78276	1.23157
813.85420	1.25027
811.92563	1.26894
809.99707	1.29057
808.06851	1.31291
806.13994	1.32916
804.21138	1.33110
802.28281	1.32115
800.35425	1.31567
798.42568	1.31821
796.49712	1.32357
794.56855	1.34894
792.63999	1.38127
790.71143	1.38813
788.78286	1.40372
786.85430	1.44413
784.92573	1.47507
782.99717	1.45769
781.06860	1.43544
779.14004	1.48024
777.21147	1.61278
775.28291	1.72351
773.35435	1.57790
771.42578	1.43903
769.49722	1.43114
767.56865	1.48556
765.64009	1.52191
763.71152	1.43901
761.78296	1.29987
759.85439	1.24780
757.92583	1.34417
755.99727	1.51221
754.06870	1.42244
752.14014	1.26678
750.21157	1.22246
748.28301	1.17579
746.35444	1.15170
744.42588	1.11762
742.49731	1.00064
740.56875	0.93671
738.64019	0.99937
736.71162	1.01171
734.78306	0.84688
732.85449	0.73973
730.92593	0.72636
728.99736	0.81393
727.06880	1.02200
725.14023	0.80211
723.21167	0.46508
721.28311	0.29342
719.35454	0.25319
717.42598	0.25285
715.49741	0.13526
713.56885	0.00774
711.64028	0.02394
709.71172	-0.08103
707.78315	-0.58443
705.85459	-0.58284
703.92603	-0.71423
701.99746	-0.37413
700.06890	-0.05954
698.14033	0.10020
696.21177	0.13167
694.28320	0.24000
692.35464	0.39834
690.42607	0.44105
688.49751	0.31806
686.56895	0.23236
684.64038	0.24849
682.71182	0.33352
680.78325	0.26500
678.85469	0.10510
676.92612	0.12244
674.99756	0.25681
673.06899	0.41804
671.14043	0.66400
669.21187	0.57358
667.28330	0.34868
665.35474	0.28539
663.42617	0.36526
661.49761	0.53461
659.56904	0.65562
657.64048	0.64046
655.71191	0.58151
653.78335	0.46441
651.85479	0.34438
649.92622	0.24400
647.99766	0.16471
646.06909	0.17629
644.14053	0.28671
642.21196	0.32320
640.28340	0.24661
638.35483	0.21879
636.42627	0.23949
634.49771	0.31276
632.56914	0.36208
630.64058	0.36232
628.71201	0.40581
626.78345	0.36777
624.85488	0.21835
622.92632	0.11656
620.99775	0.09306
619.06919	0.09230
617.14062	0.14139
615.21206	0.22274
613.28350	0.24735
611.35493	0.24743
609.42637	0.23121
607.49780	0.19835
605.56924	0.22033
603.64067	0.25367
601.71211	0.19242
599.78354	0.16796
597.85498	0.19865
595.92642	0.23540
593.99785	0.32482
592.06929	0.47762
590.14072	0.34338
588.21216	0.20245
586.28359	0.12070
584.35503	0.11821
582.42646	0.25454
580.49790	0.47588
578.56934	0.48839
576.64077	0.31253
574.71221	0.23404
572.78364	0.25060
570.85508	0.31514
568.92651	0.35217
566.99795	0.36338
565.06938	0.36367
563.14082	0.28090
561.21226	0.24159
559.28369	0.29578
557.35513	0.30776
555.42656	0.19416
553.49800	0.12207
551.56943	0.15544
549.64087	0.27389
547.71230	0.37367
545.78374	0.36492
543.85518	0.29039
541.92661	0.20752
539.99805	0.17302
538.06948	0.16452
536.14092	0.13687
534.21235	0.12081
532.28379	0.15331
530.35522	0.14058
528.42666	0.09469
526.49810	0.19892
524.56953	0.40636
522.64097	0.32661
520.71240	0.27109
518.78384	0.28749
516.85527	0.28029
514.92671	0.25530
512.99814	0.25367
511.06958	0.28040
509.14102	0.25252
507.21245	0.16591
505.28389	0.13865
503.35532	0.19619
501.42676	0.24555
499.49819	0.22329
