3997.91411	0.06417
3995.98555	0.06450
3994.05698	0.06452
3992.12842	0.06468
3990.19985	0.06499
3988.27129	0.06521
3986.34272	0.06531
3984.41416	0.06529
3982.48560	0.06533
3980.55703	0.06568
3978.62847	0.06618
3976.69990	0.06663
3974.77134	0.06715
3972.84277	0.06787
3970.91421	0.06876
3968.98564	0.06932
3967.05708	0.06904
3965.12852	0.06838
3963.19995	0.06842
3961.27139	0.06915
3959.34282	0.06959
3957.41426	0.06925
3955.48569	0.06861
3953.55713	0.06839
3951.62856	0.06874
3949.70000	0.06925
3947.77144	0.07009
3945.84287	0.07108
3943.91431	0.07144
3941.98574	0.07112
3940.05718	0.07023
3938.12861	0.06935
3936.20005	0.06905
3934.27148	0.06957
3932.34292	0.07055
3930.41436	0.07086
3928.48579	0.07035
3926.55723	0.07006
3924.62866	0.07015
3922.70010	0.06994
3920.77153	0.06968
3918.84297	0.07000
3916.91440	0.07030
3914.98584	0.06984
3913.05728	0.06895
3911.12871	0.06845
3909.20015	0.06863
3907.27158	0.06960
3905.34302	0.07165
3903.41445	0.07390
3901.48589	0.07448
3899.55732	0.07339
3897.62876	0.07165
3895.70020	0.07019
3893.77163	0.07012
3891.84307	0.07138
3889.91450	0.07186
3887.98594	0.07100
3886.05737	0.07126
3884.12881	0.07251
3882.20024	0.07282
3880.27168	0.07257
3878.34312	0.07187
3876.41455	0.07129
3874.48599	0.07242
3872.55742	0.07449
3870.62886	0.07562
3868.70029	0.07590
3866.77173	0.07572
3864.84316	0.07597
3862.91460	0.07668
3860.98604	0.07637
3859.05747	0.07549
3857.12891	0.07553
3855.20034	0.07705
3853.27178	0.07986
3851.34321	0.08100
3849.41465	0.07902
3847.48608	0.07722
3845.55752	0.07694
3843.62896	0.07830
3841.70039	0.08092
3839.77183	0.08388
3837.84326	0.08544
3835.91470	0.08465
3833.98613	0.08368
3832.05757	0.08369
3830.12900	0.08376
3828.20044	0.08367
3826.27187	0.08442
3824.34331	0.08587
3822.41475	0.08744
3820.48618	0.08971
3818.55762	0.09137
3816.62905	0.09173
3814.70049	0.09138
3812.77192	0.09021
3810.84336	0.08959
3808.91479	0.09043
3806.98623	0.09311
3805.05767	0.09608
3803.12910	0.09775
3801.20054	0.09982
3799.27197	0.10155
3797.34341	0.10157
3795.41484	0.10124
3793.48628	0.10077
3791.55771	0.10059
3789.62915	0.10108
3787.70059	0.10241
3785.77202	0.10474
3783.84346	0.10725
3781.91489	0.10904
3779.98633	0.11066
3778.05776	0.11218
3776.12920	0.11270
3774.20063	0.11336
3772.27207	0.11537
3770.34351	0.11852
3768.41494	0.12160
3766.48638	0.12369
3764.55781	0.12522
3762.62925	0.12643
3760.70068	0.12829
3758.77212	0.13178
3756.84355	0.13549
3754.91499	0.13816
3752.98643	0.14140
3751.05786	0.14674
3749.12930	0.15184
3747.20073	0.15350
3745.27217	0.15505
3743.34360	0.15872
3741.41504	0.16200
3739.48647	0.16431
3737.55791	0.16823
3735.62935	0.17486
3733.70078	0.18132
3731.77222	0.18439
3729.84365	0.18671
3727.91509	0.19026
3725.98652	0.19583
3724.05796	0.20297
3722.12939	0.20998
3720.20083	0.21660
3718.27227	0.22307
3716.34370	0.22969
3714.41514	0.23708
3712.48657	0.24725
3710.55801	0.26178
3708.62944	0.27620
3706.70088	0.28699
3704.77231	0.29720
3702.84375	0.31000
3700.91519	0.32713
3698.98662	0.34577
3697.05806	0.36342
3695.12949	0.38215
3693.20093	0.40241
3691.27236	0.42543
3689.34380	0.45522
3687.41523	0.48907
3685.48667	0.51704
3683.55811	0.54212
3681.62954	0.57048
3679.70098	0.60321
3677.77241	0.63830
3675.84385	0.67973
3673.91528	0.73319
3671.98672	0.77550
3670.05815	0.81364
3668.12959	0.86633
3666.20103	0.91367
3664.27246	0.95335
3662.34390	0.99674
3660.41533	1.04434
3658.48677	1.09174
3656.55820	1.14205
3654.62964	1.19740
3652.70107	1.24345
3650.77251	1.28409
3648.84395	1.34127
3646.91538	1.41077
3644.98682	1.46052
3643.05825	1.49877
3641.12969	1.53859
3639.20112	1.58215
3637.27256	1.62554
3635.34399	1.66807
3633.41543	1.71128
3631.48687	1.75253
3629.55830	1.79508
3627.62974	1.84997
3625.70117	1.89918
3623.77261	1.93122
3621.84404	1.96316
3619.91548	2.00185
3617.98691	2.04869
3616.05835	2.09321
3614.12979	2.13088
3612.20122	2.17027
3610.27266	2.20886
3608.34409	2.24760
3606.41553	2.28933
3604.48696	2.32787
3602.55840	2.36239
3600.62983	2.40028
3598.70127	2.44150
3596.77271	2.48057
3594.84414	2.51964
3592.91558	2.56129
3590.98701	2.60111
3589.05845	2.63791
3587.12988	2.68159
3585.20132	2.72895
3583.27275	2.76847
3581.34419	2.80546
3579.41562	2.84555
3577.48706	2.88778
3575.55850	2.93031
3573.62993	2.97386
3571.70137	3.01563
3569.77280	3.05584
3567.84424	3.10019
3565.91567	3.15346
3563.98711	3.20296
3562.05854	3.24338
3560.12998	3.28510
3558.20142	3.32851
3556.27285	3.37068
3554.34429	3.41372
3552.41572	3.46158
3550.48716	3.51123
3548.55859	3.55809
3546.63003	3.60424
3544.70146	3.65236
3542.77290	3.69867
3540.84434	3.74303
3538.91577	3.78900
3536.98721	3.83510
3535.05864	3.88306
3533.13008	3.93121
3531.20151	3.97683
3529.27295	4.02310
3527.34438	4.07115
3525.41582	4.11881
3523.48726	4.16735
3521.55869	4.21668
3519.63013	4.26382
3517.70156	4.31168
3515.77300	4.35939
3513.84443	4.40504
3511.91587	4.45271
3509.98730	4.50263
3508.05874	4.55088
3506.13018	4.59965
3504.20161	4.65192
3502.27305	4.70152
3500.34448	4.74382
3498.41592	4.78752
3496.48735	4.84093
3494.55879	4.89819
3492.63022	4.94687
3490.70166	4.98502
3488.77310	5.02348
3486.84453	5.06939
3484.91597	5.11947
3482.98740	5.16954
3481.05884	5.21784
3479.13027	5.26392
3477.20171	5.30948
3475.27314	5.35648
3473.34458	5.40648
3471.41602	5.45546
3469.48745	5.50567
3467.55889	5.56430
3465.63032	5.61841
3463.70176	5.66083
3461.77319	5.70337
3459.84463	5.75293
3457.91606	5.80472
3455.98750	5.85563
3454.05894	5.90615
3452.13037	5.95500
3450.20181	6.00727
3448.27324	6.05945
3446.34468	6.10329
3444.41611	6.14307
3442.48755	6.18935
3440.55898	6.23653
3438.63042	6.27766
3436.70186	6.32616
3434.77329	6.38333
3432.84473	6.42864
3430.91616	6.46674
3428.98760	6.51776
3427.05903	6.57945
3425.13047	6.65122
3423.20190	6.71001
3421.27334	6.74965
3419.34478	6.79278
3417.41621	6.82723
3415.48765	6.85736
3413.55908	6.90581
3411.63052	6.98051
3409.70195	7.05767
3407.77339	7.09329
3405.84482	7.10057
3403.91626	7.13044
3401.98770	7.16889
3400.05913	7.19933
3398.13057	7.25535
3396.20200	7.34506
3394.27344	7.42272
3392.34487	7.45259
3390.41631	7.46016
3388.48774	7.46921
3386.55918	7.52758
3384.63062	7.61578
3382.70205	7.63026
3380.77349	7.59894
3378.84492	7.60457
3376.91636	7.62783
3374.98779	7.63867
3373.05923	7.65293
3371.13066	7.68230
3369.20210	7.75985
3367.27354	7.82949
3365.34497	7.84047
3363.41641	7.85049
3361.48784	7.87666
3359.55928	7.92689
3357.63071	7.98658
3355.70215	7.99631
3353.77358	7.92148
3351.84502	7.86195
3349.91646	7.90880
3347.98789	8.03082
3346.05933	8.11241
3344.13076	8.09795
3342.20220	8.05690
3340.27363	7.98941
3338.34507	7.90695
3336.41650	7.88796
3334.48794	7.94190
3332.55937	7.99122
3330.63081	8.02413
3328.70225	8.05781
3326.77368	8.06931
3324.84512	8.08674
3322.91655	8.14160
3320.98799	8.20780
3319.05942	8.21966
3317.13086	8.15491
3315.20229	8.01588
3313.27373	7.88899
3311.34517	7.89139
3309.41660	8.00429
3307.48804	8.08438
3305.55947	8.10011
3303.63091	8.16156
3301.70234	8.25085
3299.77378	8.31948
3297.84521	8.37131
3295.91665	8.36966
3293.98809	8.29335
3292.05952	8.19866
3290.13096	8.09518
3288.20239	7.98742
3286.27383	7.94534
3284.34526	7.96923
3282.41670	8.06710
3280.48813	8.19867
3278.55957	8.23455
3276.63101	8.22107
3274.70244	8.22540
3272.77388	8.15725
3270.84531	8.03649
3268.91675	7.99373
3266.98818	8.04377
3265.05962	8.10830
3263.13105	8.10051
3261.20249	8.01486
3259.27393	7.94678
3257.34536	7.99567
3255.41680	8.12240
3253.48823	8.20471
3251.55967	8.21854
3249.63110	8.17611
3247.70254	8.13682
3245.77397	8.14374
3243.84541	8.16059
3241.91685	8.18100
3239.98828	8.17791
3238.05972	8.13379
3236.13115	8.11134
3234.20259	8.09993
3232.27402	8.06325
3230.34546	8.05511
3228.41689	8.08498
3226.48833	8.10557
3224.55977	8.13353
3222.63120	8.15309
3220.70264	8.08302
3218.77407	7.97933
3216.84551	7.90930
3214.91694	7.86771
3212.98838	7.89964
3211.05981	7.98529
3209.13125	7.97276
3207.20269	7.85335
3205.27412	7.77295
3203.34556	7.76949
3201.41699	7.78557
3199.48843	7.75089
3197.55986	7.68806
3195.63130	7.65206
3193.70273	7.58297
3191.77417	7.47582
3189.84561	7.42000
3187.91704	7.40539
3185.98848	7.35542
3184.05991	7.28632
3182.13135	7.25953
3180.20278	7.24729
3178.27422	7.21009
3176.34565	7.18387
3174.41709	7.17063
3172.48853	7.11985
3170.55996	7.01862
3168.63140	6.90447
3166.70283	6.82482
3164.77427	6.79002
3162.84570	6.76960
3160.91714	6.72977
3158.98857	6.65761
3157.06001	6.57259
3155.13145	6.50280
3153.20288	6.44554
3151.27432	6.38013
3149.34575	6.29582
3147.41719	6.20660
3145.48862	6.13118
3143.56006	6.06515
3141.63149	5.99354
3139.70293	5.91726
3137.77437	5.84757
3135.84580	5.78100
3133.91724	5.70806
3131.98867	5.62281
3130.06011	5.53882
3128.13154	5.47108
3126.20298	5.40467
3124.27441	5.33422
3122.34585	5.27182
3120.41729	5.21338
3118.48872	5.14776
3116.56016	5.07643
3114.63159	5.00419
3112.70303	4.93479
3110.77446	4.86888
3108.84590	4.79875
3106.91733	4.72258
3104.98877	4.64972
3103.06021	4.58528
3101.13164	4.52220
3099.20308	4.45684
3097.27451	4.39292
3095.34595	4.32758
3093.41738	4.25705
3091.48882	4.18710
3089.56025	4.12344
3087.63169	4.06374
3085.70312	4.00422
3083.77456	3.94293
3081.84600	3.88095
3079.91743	3.82003
3077.98887	3.75940
3076.06030	3.69899
3074.13174	3.63893
3072.20317	3.57950
3070.27461	3.52195
3068.34604	3.46566
3066.41748	3.40885
3064.48892	3.35131
3062.56035	3.29478
3060.63179	3.24131
3058.70322	3.18999
3056.77466	3.13849
3054.84609	3.08574
3052.91753	3.03236
3050.98896	2.98067
3049.06040	2.93090
3047.13184	2.88186
3045.20327	2.83376
3043.27471	2.78607
3041.34614	2.73767
3039.41758	2.68970
3037.48901	2.64359
3035.56045	2.59865
3033.63188	2.55432
3031.70332	2.50999
3029.77476	2.46550
3027.84619	2.42220
3025.91763	2.38039
3023.98906	2.33919
3022.06050	2.29817
3020.13193	2.25744
3018.20337	2.21744
3016.27480	2.17847
3014.34624	2.14036
3012.41768	2.10231
3010.48911	2.06442
3008.56055	2.02773
3006.63198	1.99217
3004.70342	1.95712
3002.77485	1.92221
3000.84629	1.88741
2998.91772	1.85350
2996.98916	1.82077
2995.06060	1.78851
2993.13203	1.75690
2991.20347	1.72629
2989.27490	1.69613
2987.34634	1.66639
2985.41777	1.63725
2983.48921	1.60838
2981.56064	1.57974
2979.63208	1.55167
2977.70352	1.52441
2975.77495	1.49767
2973.84639	1.47087
2971.91782	1.44429
2969.98926	1.41874
2968.06069	1.39414
2966.13213	1.36966
2964.20356	1.34540
2962.27500	1.32172
2960.34644	1.29819
2958.41787	1.27465
2956.48931	1.25117
2954.56074	1.22783
2952.63218	1.20519
2950.70361	1.18316
2948.77505	1.16132
2946.84648	1.13993
2944.91792	1.11897
2942.98936	1.09852
2941.06079	1.07897
2939.13223	1.05978
2937.20366	1.04026
2935.27510	1.02061
2933.34653	1.00122
2931.41797	0.98237
2929.48940	0.96410
2927.56084	0.94611
2925.63228	0.92882
2923.70371	0.91244
2921.77515	0.89598
2919.84658	0.87956
2917.91802	0.86390
2915.98945	0.84827
2914.06089	0.83241
2912.13232	0.81714
2910.20376	0.80253
2908.27520	0.78842
2906.34663	0.77475
2904.41807	0.76105
2902.48950	0.74759
2900.56094	0.73487
2898.63237	0.72229
2896.70381	0.70936
2894.77524	0.69665
2892.84668	0.68456
2890.91812	0.67291
2888.98955	0.66157
2887.06099	0.65055
2885.13242	0.63989
2883.20386	0.62969
2881.27529	0.61977
2879.34673	0.60964
2877.41816	0.59931
2875.48960	0.58922
2873.56104	0.57942
2871.63247	0.56967
2869.70391	0.55982
2867.77534	0.54985
2865.84678	0.53975
2863.91821	0.52953
2861.98965	0.51954
2860.06108	0.51018
2858.13252	0.50121
2856.20396	0.49234
2854.27539	0.48371
2852.34683	0.47536
2850.41826	0.46738
2848.48970	0.45976
2846.56113	0.45235
2844.63257	0.44533
2842.70400	0.43874
2840.77544	0.43260
2838.84687	0.42681
2836.91831	0.42091
2834.98975	0.41493
2833.06118	0.40903
2831.13262	0.40309
2829.20405	0.39725
2827.27549	0.39158
2825.34692	0.38591
2823.41836	0.38025
2821.48979	0.37464
2819.56123	0.36908
2817.63267	0.36366
2815.70410	0.35837
2813.77554	0.35309
2811.84697	0.34780
2809.91841	0.34267
2807.98984	0.33776
2806.06128	0.33292
2804.13271	0.32807
2802.20415	0.32321
2800.27559	0.31845
2798.34702	0.31391
2796.41846	0.30954
2794.48989	0.30521
2792.56133	0.30086
2790.63276	0.29649
2788.70420	0.29213
2786.77563	0.28798
2784.84707	0.28418
2782.91851	0.28054
2780.98994	0.27690
2779.06138	0.27318
2777.13281	0.26946
2775.20425	0.26586
2773.27568	0.26236
2771.34712	0.25895
2769.41855	0.25563
2767.48999	0.25233
2765.56143	0.24893
2763.63286	0.24553
2761.70430	0.24248
2759.77573	0.23973
2757.84717	0.23696
2755.91860	0.23404
2753.99004	0.23110
2752.06147	0.22822
2750.13291	0.22544
2748.20435	0.22281
2746.27578	0.22032
2744.34722	0.21783
2742.41865	0.21531
2740.49009	0.21284
2738.56152	0.21043
2736.63296	0.20822
2734.70439	0.20615
2732.77583	0.20405
2730.84727	0.20187
2728.91870	0.19965
2726.99014	0.19743
2725.06157	0.19530
2723.13301	0.19333
2721.20444	0.19150
2719.27588	0.18965
2717.34731	0.18784
2715.41875	0.18618
2713.49019	0.18457
2711.56162	0.18287
2709.63306	0.18110
2707.70449	0.17942
2705.77593	0.17793
2703.84736	0.17645
2701.91880	0.17486
2699.99023	0.17334
2698.06167	0.17198
2696.13311	0.17073
2694.20454	0.16955
2692.27598	0.16837
2690.34741	0.16712
2688.41885	0.16588
2686.49028	0.16466
2684.56172	0.16340
2682.63315	0.16219
2680.70459	0.16115
2678.77603	0.16020
2676.84746	0.15915
2674.91890	0.15814
2672.99033	0.15716
2671.06177	0.15614
2669.13320	0.15523
2667.20464	0.15444
2665.27607	0.15368
2663.34751	0.15294
2661.41895	0.15219
2659.49038	0.15137
2657.56182	0.15050
2655.63325	0.14967
2653.70469	0.14900
2651.77612	0.14844
2649.84756	0.14796
2647.91899	0.14750
2645.99043	0.14699
2644.06187	0.14641
2642.13330	0.14579
2640.20474	0.14525
2638.27617	0.14492
2636.34761	0.14470
2634.41904	0.14444
2632.49048	0.14417
2630.56191	0.14384
2628.63335	0.14340
2626.70479	0.14301
2624.77622	0.14277
2622.84766	0.14261
2620.91909	0.14249
2618.99053	0.14252
2617.06196	0.14253
2615.13340	0.14221
2613.20483	0.14172
2611.27627	0.14143
2609.34771	0.14146
2607.41914	0.14165
2605.49058	0.14172
2603.56201	0.14159
2601.63345	0.14154
2599.70488	0.14165
2597.77632	0.14181
2595.84775	0.14194
2593.91919	0.14206
2591.99062	0.14219
2590.06206	0.14230
2588.13350	0.14247
2586.20493	0.14274
2584.27637	0.14302
2582.34780	0.14331
2580.41924	0.14368
2578.49067	0.14406
2576.56211	0.14438
2574.63354	0.14472
2572.70498	0.14511
2570.77642	0.14549
2568.84785	0.14583
2566.91929	0.14623
2564.99072	0.14666
2563.06216	0.14697
2561.13359	0.14729
2559.20503	0.14778
2557.27646	0.14833
2555.34790	0.14887
2553.41934	0.14945
2551.49077	0.15012
2549.56221	0.15083
2547.63364	0.15148
2545.70508	0.15212
2543.77651	0.15278
2541.84795	0.15336
2539.91938	0.15390
2537.99082	0.15452
2536.06226	0.15513
2534.13369	0.15570
2532.20513	0.15634
2530.27656	0.15715
2528.34800	0.15800
2526.41943	0.15873
2524.49087	0.15945
2522.56230	0.16020
2520.63374	0.16092
2518.70518	0.16176
2516.77661	0.16270
2514.84805	0.16356
2512.91948	0.16434
2510.99092	0.16511
2509.06235	0.16583
2507.13379	0.16655
2505.20522	0.16733
2503.27666	0.16812
2501.34810	0.16886
2499.41953	0.16971
2497.49097	0.17077
2495.56240	0.17179
2493.63384	0.17253
2491.70527	0.17316
2489.77671	0.17395
2487.84814	0.17490
2485.91958	0.17579
2483.99102	0.17662
2482.06245	0.17753
2480.13389	0.17849
2478.20532	0.17954
2476.27676	0.18055
2474.34819	0.18146
2472.41963	0.18238
2470.49106	0.18334
2468.56250	0.18433
2466.63394	0.18538
2464.70537	0.18641
2462.77681	0.18733
2460.84824	0.18829
2458.91968	0.18925
2456.99111	0.19008
2455.06255	0.19095
2453.13398	0.19195
2451.20542	0.19295
2449.27686	0.19391
2447.34829	0.19487
2445.41973	0.19589
2443.49116	0.19696
2441.56260	0.19802
2439.63403	0.19904
2437.70547	0.20004
2435.77690	0.20106
2433.84834	0.20212
2431.91978	0.20321
2429.99121	0.20430
2428.06265	0.20532
2426.13408	0.20636
2424.20552	0.20748
2422.27695	0.20858
2420.34839	0.20964
2418.41982	0.21080
2416.49126	0.21203
2414.56270	0.21318
2412.63413	0.21437
2410.70557	0.21562
2408.77700	0.21669
2406.84844	0.21767
2404.91987	0.21880
2402.99131	0.21999
2401.06274	0.22120
2399.13418	0.22259
2397.20562	0.22399
2395.27705	0.22520
2393.34849	0.22634
2391.41992	0.22753
2389.49136	0.22871
2387.56279	0.23004
2385.63423	0.23169
2383.70566	0.23363
2381.77710	0.23592
2379.84854	0.23850
2377.91997	0.24110
2375.99141	0.24388
2374.06284	0.24705
2372.13428	0.25034
2370.20571	0.25357
2368.27715	0.25652
2366.34858	0.25939
2364.42002	0.26236
2362.49146	0.26514
2360.56289	0.26766
2358.63433	0.26902
2356.70576	0.26973
2354.77720	0.27052
2352.84863	0.27075
2350.92007	0.27009
2348.99150	0.26949
2347.06294	0.27011
2345.13437	0.27257
2343.20581	0.27620
2341.27725	0.27894
2339.34868	0.28044
2337.42012	0.28158
2335.49155	0.28269
2333.56299	0.28354
2331.63442	0.28481
2329.70586	0.28701
2327.77729	0.28924
2325.84873	0.29051
2323.92017	0.29086
2321.99160	0.29100
2320.06304	0.29150
2318.13447	0.29242
2316.20591	0.29344
2314.27734	0.29449
2312.34878	0.29578
2310.42021	0.29729
2308.49165	0.29863
2306.56309	0.29964
2304.63452	0.30062
2302.70596	0.30189
2300.77739	0.30343
2298.84883	0.30497
2296.92026	0.30645
2294.99170	0.30802
2293.06313	0.30972
2291.13457	0.31138
2289.20601	0.31301
2287.27744	0.31464
2285.34888	0.31623
2283.42031	0.31787
2281.49175	0.31976
2279.56318	0.32188
2277.63462	0.32387
2275.70605	0.32576
2273.77749	0.32783
2271.84893	0.32996
2269.92036	0.33192
2267.99180	0.33391
2266.06323	0.33604
2264.13467	0.33818
2262.20610	0.34023
2260.27754	0.34223
2258.34897	0.34425
2256.42041	0.34635
2254.49185	0.34855
2252.56328	0.35075
2250.63472	0.35292
2248.70615	0.35506
2246.77759	0.35715
2244.84902	0.35925
2242.92046	0.36143
2240.99189	0.36367
2239.06333	0.36596
2237.13477	0.36823
2235.20620	0.37038
2233.27764	0.37245
2231.34907	0.37451
2229.42051	0.37664
2227.49194	0.37890
2225.56338	0.38121
2223.63481	0.38347
2221.70625	0.38564
2219.77769	0.38777
2217.84912	0.38999
2215.92056	0.39216
2213.99199	0.39412
2212.06343	0.39610
2210.13486	0.39833
2208.20630	0.40057
2206.27773	0.40263
2204.34917	0.40470
2202.42061	0.40692
2200.49204	0.40908
2198.56348	0.41099
2196.63491	0.41277
2194.70635	0.41460
2192.77778	0.41654
2190.84922	0.41853
2188.92065	0.42044
2186.99209	0.42224
2185.06353	0.42408
2183.13496	0.42586
2181.20640	0.42745
2179.27783	0.42898
2177.34927	0.43055
2175.42070	0.43212
2173.49214	0.43362
2171.56357	0.43503
2169.63501	0.43642
2167.70645	0.43784
2165.77788	0.43923
2163.84932	0.44047
2161.92075	0.44160
2159.99219	0.44272
2158.06362	0.44388
2156.13506	0.44504
2154.20649	0.44599
2152.27793	0.44665
2150.34937	0.44718
2148.42080	0.44789
2146.49224	0.44866
2144.56367	0.44921
2142.63511	0.44970
2140.70654	0.45020
2138.77798	0.45056
2136.84941	0.45075
2134.92085	0.45084
2132.99229	0.45084
2131.06372	0.45078
2129.13516	0.45070
2127.20659	0.45057
2125.27803	0.45040
2123.34946	0.45013
2121.42090	0.44973
2119.49233	0.44921
2117.56377	0.44859
2115.63521	0.44795
2113.70664	0.44731
2111.77808	0.44658
2109.84951	0.44570
2107.92095	0.44464
2105.99238	0.44353
2104.06382	0.44249
2102.13525	0.44136
2100.20669	0.44004
2098.27812	0.43862
2096.34956	0.43720
2094.42100	0.43576
2092.49243	0.43425
2090.56387	0.43265
2088.63530	0.43104
2086.70674	0.42948
2084.77817	0.42780
2082.84961	0.42591
2080.92104	0.42393
2078.99248	0.42203
2077.06392	0.42016
2075.13535	0.41809
2073.20679	0.41591
2071.27822	0.41369
2069.34966	0.41137
2067.42109	0.40904
2065.49253	0.40685
2063.56396	0.40471
2061.63540	0.40240
2059.70684	0.39989
2057.77827	0.39740
2055.84971	0.39502
2053.92114	0.39260
2051.99258	0.39010
2050.06401	0.38752
2048.13545	0.38494
2046.20688	0.38235
2044.27832	0.37980
2042.34976	0.37736
2040.42119	0.37489
2038.49263	0.37223
2036.56406	0.36941
2034.63550	0.36658
2032.70693	0.36385
2030.77837	0.36119
2028.84980	0.35843
2026.92124	0.35562
2024.99268	0.35286
2023.06411	0.35021
2021.13555	0.34766
2019.20698	0.34516
2017.27842	0.34255
2015.34985	0.33973
2013.42129	0.33686
2011.49272	0.33411
2009.56416	0.33151
2007.63560	0.32892
2005.70703	0.32622
2003.77847	0.32346
2001.84990	0.32081
1999.92134	0.31834
1997.99277	0.31586
1996.06421	0.31329
1994.13564	0.31093
1992.20708	0.30873
1990.27852	0.30625
1988.34995	0.30357
1986.42139	0.30092
1984.49282	0.29841
1982.56426	0.29609
1980.63569	0.29387
1978.70713	0.29170
1976.77856	0.28949
1974.85000	0.28718
1972.92144	0.28486
1970.99287	0.28276
1969.06431	0.28095
1967.13574	0.27919
1965.20718	0.27712
1963.27861	0.27494
1961.35005	0.27291
1959.42148	0.27095
1957.49292	0.26908
1955.56436	0.26729
1953.63579	0.26550
1951.70723	0.26373
1949.77866	0.26210
1947.85010	0.26067
1945.92153	0.25937
1943.99297	0.25816
1942.06440	0.25685
1940.13584	0.25519
1938.20728	0.25348
1936.27871	0.25204
1934.35015	0.25078
1932.42158	0.24954
1930.49302	0.24828
1928.56445	0.24713
1926.63589	0.24605
1924.70732	0.24514
1922.77876	0.24437
1920.85020	0.24345
1918.92163	0.24250
1916.99307	0.24154
1915.06450	0.24040
1913.13594	0.23935
1911.20737	0.23870
1909.27881	0.23826
1907.35024	0.23766
1905.42168	0.23693
1903.49312	0.23622
1901.56455	0.23554
1899.63599	0.23498
1897.70742	0.23457
1895.77886	0.23426
1893.85029	0.23393
1891.92173	0.23363
1889.99316	0.23357
1888.06460	0.23327
1886.13604	0.23278
1884.20747	0.23250
1882.27891	0.23224
1880.35034	0.23198
1878.42178	0.23187
1876.49321	0.23190
1874.56465	0.23187
1872.63608	0.23199
1870.70752	0.23258
1868.77896	0.23357
1866.85039	0.23388
1864.92183	0.23340
1862.99326	0.23310
1861.06470	0.23318
1859.13613	0.23348
1857.20757	0.23379
1855.27900	0.23414
1853.35044	0.23454
1851.42187	0.23510
1849.49331	0.23584
1847.56475	0.23678
1845.63618	0.23798
1843.70762	0.23920
1841.77905	0.23970
1839.85049	0.23977
1837.92192	0.24034
1835.99336	0.24120
1834.06479	0.24208
1832.13623	0.24324
1830.20767	0.24499
1828.27910	0.24654
1826.35054	0.24742
1824.42197	0.24849
1822.49341	0.24948
1820.56484	0.25045
1818.63628	0.25178
1816.70771	0.25348
1814.77915	0.25512
1812.85059	0.25694
1810.92202	0.25918
1808.99346	0.26132
1807.06489	0.26306
1805.13633	0.26474
1803.20776	0.26694
1801.27920	0.26968
1799.35063	0.27273
1797.42207	0.27537
1795.49351	0.27786
1793.56494	0.28093
1791.63638	0.28471
1789.70781	0.28764
1787.77925	0.28960
1785.85068	0.29242
1783.92212	0.29613
1781.99355	0.30028
1780.06499	0.30468
1778.13643	0.30899
1776.20786	0.31302
1774.27930	0.31757
1772.35073	0.32367
1770.42217	0.32993
1768.49360	0.33494
1766.56504	0.33970
1764.63647	0.34474
1762.70791	0.35065
1760.77935	0.35823
1758.85078	0.36521
1756.92222	0.37215
1754.99365	0.37973
1753.06509	0.38676
1751.13652	0.39550
1749.20796	0.40653
1747.27939	0.41694
1745.35083	0.42578
1743.42227	0.43524
1741.49370	0.44578
1739.56514	0.45806
1737.63657	0.47023
1735.70801	0.48108
1733.77944	0.49765
1731.85088	0.51724
1729.92231	0.53237
1727.99375	0.54754
1726.06519	0.56400
1724.13662	0.58228
1722.20806	0.60205
1720.27949	0.62034
1718.35093	0.64216
1716.42236	0.67444
1714.49380	0.70440
1712.56523	0.72819
1710.63667	0.75147
1708.70811	0.77683
1706.77954	0.80588
1704.85098	0.84053
1702.92241	0.87122
1700.99385	0.90148
1699.06528	0.94649
1697.13672	0.98761
1695.20815	1.02917
1693.27959	1.06955
1691.35103	1.10262
1689.42246	1.14094
1687.49390	1.18093
1685.56533	1.21911
1683.63677	1.27793
1681.70820	1.33887
1679.77964	1.37794
1677.85107	1.41524
1675.92251	1.45846
1673.99395	1.51204
1672.06538	1.55978
1670.13682	1.60665
1668.20825	1.66638
1666.27969	1.71441
1664.35112	1.75508
1662.42256	1.80510
1660.49399	1.86065
1658.56543	1.90454
1656.63687	1.94135
1654.70830	1.97706
1652.77974	2.03404
1650.85117	2.08761
1648.92261	2.10890
1646.99404	2.13641
1645.06548	2.16524
1643.13691	2.18348
1641.20835	2.19620
1639.27979	2.20861
1637.35122	2.21711
1635.42266	2.21926
1633.49409	2.21290
1631.56553	2.20015
1629.63696	2.18506
1627.70840	2.15939
1625.77983	2.12789
1623.85127	2.08990
1621.92271	2.04429
1619.99414	2.00268
1618.06558	1.96100
1616.13701	1.89995
1614.20845	1.83669
1612.27988	1.78853
1610.35132	1.73871
1608.42275	1.68487
1606.49419	1.63177
1604.56562	1.58255
1602.63706	1.53488
1600.70850	1.48804
1598.77993	1.44437
1596.85137	1.40328
1594.92280	1.36365
1592.99424	1.32534
1591.06567	1.28997
1589.13711	1.25660
1587.20854	1.22532
1585.27998	1.19624
1583.35142	1.16902
1581.42285	1.14437
1579.49429	1.12351
1577.56572	1.10467
1575.63716	1.08089
1573.70859	1.05944
1571.78003	1.04570
1569.85146	1.03123
1567.92290	1.01430
1565.99434	1.00099
1564.06577	0.99025
1562.13721	0.98179
1560.20864	0.97614
1558.28008	0.96763
1556.35151	0.95813
1554.42295	0.95191
1552.49438	0.94612
1550.56582	0.93966
1548.63726	0.93183
1546.70869	0.92408
1544.78013	0.91640
1542.85156	0.90773
1540.92300	0.89584
1538.99443	0.87609
1537.06587	0.86059
1535.13730	0.85083
1533.20874	0.83899
1531.28018	0.82564
1529.35161	0.81560
1527.42305	0.80676
1525.49448	0.79796
1523.56592	0.79031
1521.63735	0.78230
1519.70879	0.77308
1517.78022	0.76542
1515.85166	0.75733
1513.92310	0.74894
1511.99453	0.74211
1510.06597	0.73663
1508.13740	0.73192
1506.20884	0.72301
1504.28027	0.71337
1502.35171	0.70800
1500.42314	0.70403
1498.49458	0.69998
1496.56602	0.69478
1494.63745	0.68929
1492.70889	0.68529
1490.78032	0.68240
1488.85176	0.67884
1486.92319	0.67415
1484.99463	0.66977
1483.06606	0.66634
1481.13750	0.66352
1479.20894	0.66119
1477.28037	0.65955
1475.35181	0.65845
1473.42324	0.65761
1471.49468	0.65542
1469.56611	0.65192
1467.63755	0.64897
1465.70898	0.64693
1463.78042	0.64520
1461.85186	0.64368
1459.92329	0.64300
1457.99473	0.64303
1456.06616	0.64164
1454.13760	0.63846
1452.20903	0.63584
1450.28047	0.63389
1448.35190	0.63215
1446.42334	0.63007
1444.49478	0.62782
1442.56621	0.62581
1440.63765	0.62400
1438.70908	0.62244
1436.78052	0.62081
1434.85195	0.61855
1432.92339	0.61627
1430.99482	0.61451
1429.06626	0.61308
1427.13770	0.61186
1425.20913	0.61111
1423.28057	0.61069
1421.35200	0.61020
1419.42344	0.60973
1417.49487	0.60875
1415.56631	0.60700
1413.63774	0.60552
1411.70918	0.60463
1409.78062	0.60421
1407.85205	0.60400
1405.92349	0.60384
1403.99492	0.60361
1402.06636	0.60311
1400.13779	0.60252
1398.20923	0.60173
1396.28066	0.60026
1394.35210	0.59774
1392.42354	0.59468
1390.49497	0.59203
1388.56641	0.58984
1386.63784	0.58741
1384.70928	0.58441
1382.78071	0.58153
1380.85215	0.57919
1378.92358	0.57737
1376.99502	0.57598
1375.06646	0.57496
1373.13789	0.57393
1371.20933	0.57272
1369.28076	0.57161
1367.35220	0.57059
1365.42363	0.56962
1363.49507	0.56883
1361.56650	0.56782
1359.63794	0.56648
1357.70937	0.56538
1355.78081	0.56456
1353.85225	0.56368
1351.92368	0.56266
1349.99512	0.56170
1348.06655	0.56083
1346.13799	0.55999
1344.20942	0.55924
1342.28086	0.55874
1340.35229	0.55848
1338.42373	0.55793
1336.49517	0.55680
1334.56660	0.55560
1332.63804	0.55476
1330.70947	0.55432
1328.78091	0.55406
1326.85234	0.55383
1324.92378	0.55368
1322.99521	0.55361
1321.06665	0.55355
1319.13809	0.55336
1317.20952	0.55290
1315.28096	0.55232
1313.35239	0.55167
1311.42383	0.55097
1309.49526	0.55031
1307.56670	0.54970
1305.63813	0.54906
1303.70957	0.54838
1301.78101	0.54776
1299.85244	0.54711
1297.92388	0.54631
1295.99531	0.54552
1294.06675	0.54480
1292.13818	0.54402
1290.20962	0.54319
1288.28105	0.54243
1286.35249	0.54169
1284.42393	0.54098
1282.49536	0.54026
1280.56680	0.53939
1278.63823	0.53849
1276.70967	0.53777
1274.78110	0.53711
1272.85254	0.53644
1270.92397	0.53587
1268.99541	0.53537
1267.06685	0.53487
1265.13828	0.53433
1263.20972	0.53366
1261.28115	0.53292
1259.35259	0.53228
1257.42402	0.53183
1255.49546	0.53165
1253.56689	0.53158
1251.63833	0.53139
1249.70977	0.53114
1247.78120	0.53098
1245.85264	0.53091
1243.92407	0.53061
1241.99551	0.52993
1240.06694	0.52900
1238.13838	0.52808
1236.20981	0.52709
1234.28125	0.52586
1232.35269	0.52465
1230.42412	0.52360
1228.49556	0.52255
1226.56699	0.52137
1224.63843	0.52015
1222.70986	0.51909
1220.78130	0.51820
1218.85273	0.51726
1216.92417	0.51634
1214.99561	0.51567
1213.06704	0.51510
1211.13848	0.51442
1209.20991	0.51369
1207.28135	0.51308
1205.35278	0.51256
1203.42422	0.51192
1201.49565	0.51115
1199.56709	0.51052
1197.63853	0.50998
1195.70996	0.50937
1193.78140	0.50877
1191.85283	0.50831
1189.92427	0.50800
1187.99570	0.50784
1186.06714	0.50772
1184.13857	0.50755
1182.21001	0.50746
1180.28145	0.50773
1178.35288	0.50838
1176.42432	0.50915
1174.49575	0.50977
1172.56719	0.51014
1170.63862	0.51034
1168.71006	0.51052
1166.78149	0.51076
1164.85293	0.51098
1162.92437	0.51111
1160.99580	0.51103
1159.06724	0.51067
1157.13867	0.51000
1155.21011	0.50908
1153.28154	0.50803
1151.35298	0.50677
1149.42441	0.50505
1147.49585	0.50291
1145.56729	0.50056
1143.63872	0.49809
1141.71016	0.49574
1139.78159	0.49378
1137.85303	0.49201
1135.92446	0.49024
1133.99590	0.48868
1132.06733	0.48725
1130.13877	0.48585
1128.21021	0.48476
1126.28164	0.48392
1124.35308	0.48308
1122.42451	0.48228
1120.49595	0.48171
1118.56738	0.48154
1116.63882	0.48170
1114.71025	0.48194
1112.78169	0.48224
1110.85312	0.48264
1108.92456	0.48323
1106.99600	0.48407
1105.06743	0.48528
1103.13887	0.48695
1101.21030	0.48876
1099.28174	0.49049
1097.35317	0.49261
1095.42461	0.49549
1093.49604	0.49903
1091.56748	0.50327
1089.63892	0.50841
1087.71035	0.51448
1085.78179	0.52131
1083.85322	0.52845
1081.92466	0.53510
1079.99609	0.54055
1078.06753	0.54421
1076.13896	0.54516
1074.21040	0.54282
1072.28184	0.53791
1070.35327	0.53168
1068.42471	0.52498
1066.49614	0.51831
1064.56758	0.51218
1062.63901	0.50680
1060.71045	0.50182
1058.78188	0.49720
1056.85332	0.49325
1054.92476	0.48985
1052.99619	0.48679
1051.06763	0.48413
1049.13906	0.48212
1047.21050	0.48069
1045.28193	0.47960
1043.35337	0.47892
1041.42480	0.47869
1039.49624	0.47850
1037.56768	0.47812
1035.63911	0.47784
1033.71055	0.47780
1031.78198	0.47774
1029.85342	0.47751
1027.92485	0.47725
1025.99629	0.47690
1024.06772	0.47651
1022.13916	0.47643
1020.21060	0.47680
1018.28203	0.47739
1016.35347	0.47806
1014.42490	0.47889
1012.49634	0.47975
1010.56777	0.48058
1008.63921	0.48166
1006.71064	0.48311
1004.78208	0.48477
1002.85352	0.48662
1000.92495	0.48906
998.99639	0.49235
997.06782	0.49615
995.13926	0.49999
993.21069	0.50379
991.28213	0.50730
989.35356	0.50999
987.42500	0.51166
985.49644	0.51256
983.56787	0.51294
981.63931	0.51332
979.71074	0.51445
977.78218	0.51644
975.85361	0.51894
973.92505	0.52164
971.99648	0.52460
970.06792	0.52797
968.13936	0.53172
966.21079	0.53573
964.28223	0.54005
962.35366	0.54483
960.42510	0.55007
958.49653	0.55563
956.56797	0.56112
954.63940	0.56648
952.71084	0.57224
950.78228	0.57863
948.85371	0.58505
946.92515	0.59101
944.99658	0.59709
943.06802	0.60357
941.13945	0.60961
939.21089	0.61502
937.28232	0.62044
935.35376	0.62626
933.42520	0.63206
931.49663	0.63760
929.56807	0.64315
927.63950	0.64880
925.71094	0.65480
923.78237	0.66115
921.85381	0.66746
919.92524	0.67391
917.99668	0.68088
916.06812	0.68805
914.13955	0.69523
912.21099	0.70256
910.28242	0.71038
908.35386	0.71864
906.42529	0.72619
904.49673	0.73331
902.56816	0.74211
900.63960	0.75224
898.71104	0.76189
896.78247	0.77154
894.85391	0.78155
892.92534	0.79092
890.99678	0.79993
889.06821	0.81046
887.13965	0.82239
885.21108	0.83274
883.28252	0.84148
881.35396	0.85208
879.42539	0.86525
877.49683	0.87859
875.56826	0.89068
873.63970	0.90168
871.71113	0.91215
869.78257	0.92262
867.85400	0.93404
865.92544	0.94619
863.99687	0.95726
862.06831	0.96771
860.13975	0.97836
858.21118	0.98926
856.28262	1.00150
854.35405	1.01348
852.42549	1.02395
850.49692	1.03583
848.56836	1.04854
846.63979	1.05884
844.71123	1.06785
842.78267	1.07775
840.85410	1.08823
838.92554	1.09860
836.99697	1.11036
835.06841	1.12276
833.13984	1.13352
831.21128	1.14416
829.28271	1.15696
827.35415	1.17165
825.42559	1.18377
823.49702	1.19375
821.56846	1.20559
819.63989	1.21400
817.71133	1.21806
815.78276	1.23015
813.85420	1.25332
811.92563	1.27241
809.99707	1.28042
808.06851	1.29096
806.13994	1.31511
804.21138	1.33668
802.28281	1.33809
800.35425	1.33388
798.42568	1.33782
796.49712	1.35107
794.56855	1.36941
792.63999	1.37377
790.71143	1.36197
788.78286	1.36345
786.85430	1.38842
784.92573	1.41896
782.99717	1.43539
781.06860	1.44954
779.14004	1.47870
777.21147	1.46867
775.28291	1.39446
773.35435	1.34145
771.42578	1.34422
769.49722	1.36936
767.56865	1.39446
765.64009	1.37545
763.71152	1.35264
761.78296	1.42553
759.85439	1.54488
757.92583	1.54564
755.99727	1.45109
754.06870	1.32574
752.14014	1.21420
750.21157	1.18928
748.28301	1.24657
746.35444	1.33206
744.42588	1.39573
742.49731	1.29461
740.56875	1.07167
738.64019	0.90208
736.71162	0.88995
734.78306	1.04397
732.85449	1.00351
730.92593	0.74600
728.99736	0.59353
727.06880	0.55752
725.14023	0.61317
723.21167	0.54005
721.28311	0.29769
719.35454	0.15138
717.42598	0.12668
715.49741	0.09445
713.56885	-0.03020
711.64028	-0.36652
709.71172	-0.36552
707.78315	0.17427
705.85459	0.44939
703.92603	0.46633
701.99746	0.33666
700.06890	0.33768
698.14033	0.39654
696.21177	0.54772
694.28320	0.70877
692.35464	0.73934
690.42607	0.66163
688.49751	0.68456
686.56895	0.68257
684.64038	0.49236
682.71182	0.40340
680.78325	0.38768
678.85469	0.33133
676.92612	0.32836
674.99756	0.38763
673.06899	0.38681
671.14043	0.37328
669.21187	0.39396
667.28330	0.42768
665.35474	0.46396
663.42617	0.45769
661.49761	0.49264
659.56904	0.42618
657.64048	0.29443
655.71191	0.24719
653.78335	0.27747
651.85479	0.35655
649.92622	0.35633
647.99766	0.25176
646.06909	0.23982
644.14053	0.30685
642.21196	0.34287
640.28340	0.34042
638.35483	0.35069
636.42627	0.41425
634.49771	0.54223
632.56914	0.64439
630.64058	0.53571
628.71201	0.40350
626.78345	0.36798
624.85488	0.33192
622.92632	0.25718
620.99775	0.23313
619.06919	0.30486
617.14062	0.37028
615.21206	0.35564
613.28350	0.33832
611.35493	0.33121
609.42637	0.32624
607.49780	0.37225
605.56924	0.57505
603.64067	0.89201
601.71211	0.57373
599.78354	0.49423
597.85498	0.64453
595.92642	0.66392
593.99785	0.44983
592.06929	0.40380
590.14072	0.46296
588.21216	0.49013
586.28359	0.42069
584.35503	0.34931
582.42646	0.28720
580.49790	0.21257
578.56934	0.19564
576.64077	0.23591
574.71221	0.24092
572.78364	0.23136
570.85508	0.24129
568.92651	0.27210
566.99795	0.31130
565.06938	0.28781
563.14082	0.20397
561.21226	0.21626
559.28369	0.37323
557.35513	0.57658
555.42656	0.43222
553.49800	0.34813
551.56943	0.44237
549.64087	0.37802
547.71230	0.21700
545.78374	0.17984
543.85518	0.23934
541.92661	0.29918
539.99805	0.31982
538.06948	0.27239
536.14092	0.21202
534.21235	0.22772
532.28379	0.23652
530.35522	0.18231
528.42666	0.15544
526.49810	0.21003
524.56953	0.30755
522.64097	0.29347
520.71240	0.20070
518.78384	0.16409
516.85527	0.16937
514.92671	0.20108
512.99814	0.34927
511.06958	0.74191
509.14102	0.46617
507.21245	0.18031
505.28389	0.09431
503.35532	0.12989
501.42676	0.20725
499.49819	0.25857
