3997.91411	0.06628
3995.98555	0.06626
3994.05698	0.06617
3992.12842	0.06631
3990.19985	0.06680
3988.27129	0.06717
3986.34272	0.06711
3984.41416	0.06719
3982.48560	0.06759
3980.55703	0.06780
3978.62847	0.06781
3976.69990	0.06798
3974.77134	0.06817
3972.84277	0.06830
3970.91421	0.06860
3968.98564	0.06913
3967.05708	0.06951
3965.12852	0.06971
3963.19995	0.06994
3961.27139	0.07007
3959.34282	0.06999
3957.41426	0.06955
3955.48569	0.06912
3953.55713	0.06919
3951.62856	0.06934
3949.70000	0.06912
3947.77144	0.06919
3945.84287	0.06988
3943.91431	0.07033
3941.98574	0.07013
3940.05718	0.06986
3938.12861	0.07010
3936.20005	0.07042
3934.27148	0.07032
3932.34292	0.06998
3930.41436	0.06968
3928.48579	0.06971
3926.55723	0.06966
3924.62866	0.06920
3922.70010	0.06878
3920.77153	0.06900
3918.84297	0.06965
3916.91440	0.06993
3914.98584	0.06987
3913.05728	0.06991
3911.12871	0.06995
3909.20015	0.06991
3907.27158	0.06959
3905.34302	0.06882
3903.41445	0.06812
3901.48589	0.06803
3899.55732	0.06819
3897.62876	0.06864
3895.70020	0.06957
3893.77163	0.07006
3891.84307	0.06969
3889.91450	0.06922
3887.98594	0.06909
3886.05737	0.06920
3884.12881	0.06949
3882.20024	0.06949
3880.27168	0.06934
3878.34312	0.06960
3876.41455	0.06993
3874.48599	0.07010
3872.55742	0.07033
3870.62886	0.07063
3868.70029	0.07113
3866.77173	0.07125
3864.84316	0.07094
3862.91460	0.07118
3860.98604	0.07200
3859.05747	0.07254
3857.12891	0.07258
3855.20034	0.07215
3853.27178	0.07166
3851.34321	0.07295
3849.41465	0.07475
3847.48608	0.07536
3845.55752	0.07556
3843.62896	0.07599
3841.70039	0.07652
3839.77183	0.07660
3837.84326	0.07663
3835.91470	0.07744
3833.98613	0.07871
3832.05757	0.07991
3830.12900	0.08096
3828.20044	0.08152
3826.27187	0.08188
3824.34331	0.08231
3822.41475	0.08225
3820.48618	0.08229
3818.55762	0.08339
3816.62905	0.08488
3814.70049	0.08683
3812.77192	0.08887
3810.84336	0.09000
3808.91479	0.09041
3806.98623	0.09096
3805.05767	0.09185
3803.12910	0.09230
3801.20054	0.09326
3799.27197	0.09540
3797.34341	0.09667
3795.41484	0.09730
3793.48628	0.09841
3791.55771	0.09988
3789.62915	0.10140
3787.70059	0.10272
3785.77202	0.10385
3783.84346	0.10506
3781.91489	0.10636
3779.98633	0.10784
3778.05776	0.10979
3776.12920	0.11181
3774.20063	0.11359
3772.27207	0.11515
3770.34351	0.11682
3768.41494	0.11921
3766.48638	0.12157
3764.55781	0.12339
3762.62925	0.12496
3760.70068	0.12653
3758.77212	0.12854
3756.84355	0.13078
3754.91499	0.13279
3752.98643	0.13462
3751.05786	0.13657
3749.12930	0.13915
3747.20073	0.14166
3745.27217	0.14378
3743.34360	0.14725
3741.41504	0.15141
3739.48647	0.15434
3737.55791	0.15693
3735.62935	0.16027
3733.70078	0.16463
3731.77222	0.16910
3729.84365	0.17330
3727.91509	0.17726
3725.98652	0.18211
3724.05796	0.18887
3722.12939	0.19688
3720.20083	0.20568
3718.27227	0.21505
3716.34370	0.22409
3714.41514	0.23207
3712.48657	0.24024
3710.55801	0.25101
3708.62944	0.26383
3706.70088	0.27614
3704.77231	0.28823
3702.84375	0.30179
3700.91519	0.31876
3698.98662	0.33742
3697.05806	0.35548
3695.12949	0.37446
3693.20093	0.39416
3691.27236	0.41539
3689.34380	0.44360
3687.41523	0.47920
3685.48667	0.51091
3683.55811	0.53833
3681.62954	0.56724
3679.70098	0.59884
3677.77241	0.63139
3675.84385	0.66990
3673.91528	0.72302
3671.98672	0.76759
3670.05815	0.80666
3668.12959	0.86021
3666.20103	0.91044
3664.27246	0.95261
3662.34390	0.99688
3660.41533	1.04400
3658.48677	1.08999
3656.55820	1.13885
3654.62964	1.19399
3652.70107	1.24025
3650.77251	1.27927
3648.84395	1.33338
3646.91538	1.40244
3644.98682	1.45422
3643.05825	1.49387
3641.12969	1.53418
3639.20112	1.57801
3637.27256	1.62151
3635.34399	1.66334
3633.41543	1.70547
3631.48687	1.74551
3629.55830	1.78555
3627.62974	1.83820
3625.70117	1.89016
3623.77261	1.92633
3621.84404	1.95935
3619.91548	1.99629
3617.98691	2.04158
3616.05835	2.08635
3614.12979	2.12481
3612.20122	2.16479
3610.27266	2.20338
3608.34409	2.24068
3606.41553	2.28112
3604.48696	2.32060
3602.55840	2.35574
3600.62983	2.39268
3598.70127	2.43411
3596.77271	2.47555
3594.84414	2.51647
3592.91558	2.55840
3590.98701	2.59741
3589.05845	2.63217
3587.12988	2.67415
3585.20132	2.72359
3583.27275	2.76693
3581.34419	2.80584
3579.41562	2.84621
3577.48706	2.88847
3575.55850	2.93022
3573.62993	2.97188
3571.70137	3.01292
3569.77280	3.05236
3567.84424	3.09274
3565.91567	3.14252
3563.98711	3.19446
3562.05854	3.23856
3560.12998	3.28169
3558.20142	3.32709
3556.27285	3.37213
3554.34429	3.41520
3552.41572	3.46224
3550.48716	3.51290
3548.55859	3.55975
3546.63003	3.60365
3544.70146	3.64919
3542.77290	3.69544
3540.84434	3.74221
3538.91577	3.78966
3536.98721	3.83456
3535.05864	3.88011
3533.13008	3.92781
3531.20151	3.97287
3529.27295	4.01704
3527.34438	4.06702
3525.41582	4.11757
3523.48726	4.16632
3521.55869	4.21891
3519.63013	4.26710
3517.70156	4.31037
3515.77300	4.35848
3513.84443	4.40702
3511.91587	4.44841
3509.98730	4.49242
3508.05874	4.54433
3506.13018	4.59309
3504.20161	4.63724
3502.27305	4.68384
3500.34448	4.73216
3498.41592	4.77646
3496.48735	4.81754
3494.55879	4.85978
3492.63022	4.90906
3490.70166	4.96738
3488.77310	5.02423
3486.84453	5.07058
3484.91597	5.11283
3482.98740	5.16016
3481.05884	5.21113
3479.13027	5.26135
3477.20171	5.31123
3475.27314	5.35827
3473.34458	5.40339
3471.41602	5.45193
3469.48745	5.50229
3467.55889	5.55109
3465.63032	5.59970
3463.70176	5.65209
3461.77319	5.70364
3459.84463	5.75061
3457.91606	5.80033
3455.98750	5.85251
3454.05894	5.89524
3452.13037	5.93858
3450.20181	5.99253
3448.27324	6.04302
3446.34468	6.10119
3444.41611	6.17123
3442.48755	6.23328
3440.55898	6.28700
3438.63042	6.33595
3436.70186	6.37317
3434.77329	6.40036
3432.84473	6.43714
3430.91616	6.49085
3428.98760	6.54425
3427.05903	6.58896
3425.13047	6.63817
3423.20190	6.68901
3421.27334	6.73794
3419.34478	6.78088
3417.41621	6.82390
3415.48765	6.88968
3413.55908	6.96522
3411.63052	7.01565
3409.70195	7.03963
3407.77339	7.08063
3405.84482	7.13171
3403.91626	7.16539
3401.98770	7.18857
3400.05913	7.21745
3398.13057	7.27725
3396.20200	7.35498
3394.27344	7.40847
3392.34487	7.42919
3390.41631	7.44954
3388.48774	7.47616
3386.55918	7.49927
3384.63062	7.52524
3382.70205	7.58513
3380.77349	7.65905
3378.84492	7.68057
3376.91636	7.67804
3374.98779	7.71338
3373.05923	7.76204
3371.13066	7.76778
3369.20210	7.78654
3367.27354	7.83672
3365.34497	7.86915
3363.41641	7.86041
3361.48784	7.80552
3359.55928	7.77809
3357.63071	7.83490
3355.70215	7.94834
3353.77358	8.03361
3351.84502	8.03946
3349.91646	7.97709
3347.98789	7.95102
3346.05933	7.99800
3344.13076	8.03310
3342.20220	8.07974
3340.27363	8.16336
3338.34507	8.22788
3336.41650	8.21089
3334.48794	8.12729
3332.55937	8.08541
3330.63081	8.14060
3328.70225	8.21292
3326.77368	8.20737
3324.84512	8.17131
3322.91655	8.15060
3320.98799	8.13151
3319.05942	8.15422
3317.13086	8.23493
3315.20229	8.28354
3313.27373	8.28046
3311.34517	8.28219
3309.41660	8.31387
3307.48804	8.36285
3305.55947	8.39193
3303.63091	8.35667
3301.70234	8.28986
3299.77378	8.28382
3297.84521	8.26786
3295.91665	8.21754
3293.98809	8.24870
3292.05952	8.32658
3290.13096	8.32263
3288.20239	8.29876
3286.27383	8.31585
3284.34526	8.27377
3282.41670	8.21113
3280.48813	8.19297
3278.55957	8.19343
3276.63101	8.21675
3274.70244	8.24765
3272.77388	8.28178
3270.84531	8.36681
3268.91675	8.45270
3266.98818	8.45665
3265.05962	8.42122
3263.13105	8.36590
3261.20249	8.31164
3259.27393	8.30704
3257.34536	8.33157
3255.41680	8.32426
3253.48823	8.29362
3251.55967	8.30782
3249.63110	8.40944
3247.70254	8.45793
3245.77397	8.32610
3243.84541	8.22584
3241.91685	8.24949
3239.98828	8.29965
3238.05972	8.26842
3236.13115	8.17975
3234.20259	8.17454
3232.27402	8.23170
3230.34546	8.25558
3228.41689	8.23853
3226.48833	8.22547
3224.55977	8.21571
3222.63120	8.15982
3220.70264	8.10376
3218.77407	8.13105
3216.84551	8.19218
3214.91694	8.17268
3212.98838	8.12014
3211.05981	8.08248
3209.13125	8.00468
3207.20269	7.92030
3205.27412	7.88946
3203.34556	7.90565
3201.41699	7.91867
3199.48843	7.87981
3197.55986	7.77982
3195.63130	7.64524
3193.70273	7.55784
3191.77417	7.55446
3189.84561	7.58331
3187.91704	7.58176
3185.98848	7.52689
3184.05991	7.44996
3182.13135	7.37842
3180.20278	7.30780
3178.27422	7.25423
3176.34565	7.21318
3174.41709	7.14328
3172.48853	7.08360
3170.55996	7.06978
3168.63140	7.03592
3166.70283	6.94060
3164.77427	6.84064
3162.84570	6.77788
3160.91714	6.71830
3158.98857	6.64267
3157.06001	6.55630
3155.13145	6.46758
3153.20288	6.40152
3151.27432	6.35585
3149.34575	6.31180
3147.41719	6.26102
3145.48862	6.19124
3143.56006	6.10288
3141.63149	6.01991
3139.70293	5.94738
3137.77437	5.87072
3135.84580	5.78657
3133.91724	5.70299
3131.98867	5.62999
3130.06011	5.56766
3128.13154	5.50714
3126.20298	5.44067
3124.27441	5.36790
3122.34585	5.29409
3120.41729	5.22115
3118.48872	5.14908
3116.56016	5.08045
3114.63159	5.01223
3112.70303	4.93845
3110.77446	4.86032
3108.84590	4.78569
3106.91733	4.71949
3104.98877	4.65701
3103.06021	4.59433
3101.13164	4.52778
3099.20308	4.45636
3097.27451	4.38665
3095.34595	4.31966
3093.41738	4.25139
3091.48882	4.18265
3089.56025	4.11799
3087.63169	4.05780
3085.70312	3.99948
3083.77456	3.94169
3081.84600	3.88112
3079.91743	3.81622
3077.98887	3.75285
3076.06030	3.69544
3074.13174	3.63979
3072.20317	3.58301
3070.27461	3.52724
3068.34604	3.47098
3066.41748	3.41197
3064.48892	3.35369
3062.56035	3.29856
3060.63179	3.24509
3058.70322	3.19249
3056.77466	3.14046
3054.84609	3.08852
3052.91753	3.03671
3050.98896	2.98556
3049.06040	2.93509
3047.13184	2.88497
3045.20327	2.83592
3043.27471	2.78789
3041.34614	2.73981
3039.41758	2.69221
3037.48901	2.64559
3035.56045	2.59931
3033.63188	2.55434
3031.70332	2.51095
3029.77476	2.46744
3027.84619	2.42361
3025.91763	2.38082
3023.98906	2.33964
3022.06050	2.29948
3020.13193	2.25969
3018.20337	2.21990
3016.27480	2.18063
3014.34624	2.14257
3012.41768	2.10467
3010.48911	2.06648
3008.56055	2.02941
3006.63198	1.99355
3004.70342	1.95780
3002.77485	1.92256
3000.84629	1.88871
2998.91772	1.85571
2996.98916	1.82279
2995.06060	1.79007
2993.13203	1.75827
2991.20347	1.72776
2989.27490	1.69807
2987.34634	1.66856
2985.41777	1.63910
2983.48921	1.60985
2981.56064	1.58115
2979.63208	1.55323
2977.70352	1.52587
2975.77495	1.49913
2973.84639	1.47308
2971.91782	1.44711
2969.98926	1.42107
2968.06069	1.39535
2966.13213	1.37041
2964.20356	1.34665
2962.27500	1.32344
2960.34644	1.29995
2958.41787	1.27644
2956.48931	1.25290
2954.56074	1.22946
2952.63218	1.20683
2950.70361	1.18496
2948.77505	1.16339
2946.84648	1.14192
2944.91792	1.12071
2942.98936	1.10015
2941.06079	1.08019
2939.13223	1.06070
2937.20366	1.04180
2935.27510	1.02312
2933.34653	1.00420
2931.41797	0.98520
2929.48940	0.96657
2927.56084	0.94879
2925.63228	0.93171
2923.70371	0.91462
2921.77515	0.89743
2919.84658	0.88054
2917.91802	0.86434
2915.98945	0.84887
2914.06089	0.83360
2912.13232	0.81861
2910.20376	0.80415
2908.27520	0.78980
2906.34663	0.77560
2904.41807	0.76178
2902.48950	0.74848
2900.56094	0.73598
2898.63237	0.72381
2896.70381	0.71124
2894.77524	0.69848
2892.84668	0.68601
2890.91812	0.67415
2888.98955	0.66286
2887.06099	0.65182
2885.13242	0.64114
2883.20386	0.63100
2881.27529	0.62106
2879.34673	0.61098
2877.41816	0.60074
2875.48960	0.59072
2873.56104	0.58099
2871.63247	0.57111
2869.70391	0.56112
2867.77534	0.55110
2865.84678	0.54084
2863.91821	0.53073
2861.98965	0.52118
2860.06108	0.51203
2858.13252	0.50310
2856.20396	0.49420
2854.27539	0.48544
2852.34683	0.47707
2850.41826	0.46905
2848.48970	0.46133
2846.56113	0.45399
2844.63257	0.44700
2842.70400	0.44028
2840.77544	0.43383
2838.84687	0.42776
2836.91831	0.42198
2834.98975	0.41625
2833.06118	0.41050
2831.13262	0.40468
2829.20405	0.39871
2827.27549	0.39273
2825.34692	0.38702
2823.41836	0.38146
2821.48979	0.37589
2819.56123	0.37030
2817.63267	0.36471
2815.70410	0.35929
2813.77554	0.35404
2811.84697	0.34876
2809.91841	0.34347
2807.98984	0.33841
2806.06128	0.33366
2804.13271	0.32896
2802.20415	0.32416
2800.27559	0.31948
2798.34702	0.31493
2796.41846	0.31044
2794.48989	0.30606
2792.56133	0.30174
2790.63276	0.29746
2788.70420	0.29341
2786.77563	0.28960
2784.84707	0.28576
2782.91851	0.28179
2780.98994	0.27786
2779.06138	0.27415
2777.13281	0.27065
2775.20425	0.26716
2773.27568	0.26348
2771.34712	0.25981
2769.41855	0.25645
2767.48999	0.25326
2765.56143	0.24990
2763.63286	0.24645
2761.70430	0.24327
2759.77573	0.24040
2757.84717	0.23758
2755.91860	0.23474
2753.99004	0.23200
2752.06147	0.22919
2750.13291	0.22632
2748.20435	0.22367
2746.27578	0.22122
2744.34722	0.21871
2742.41865	0.21615
2740.49009	0.21366
2738.56152	0.21117
2736.63296	0.20880
2734.70439	0.20666
2732.77583	0.20460
2730.84727	0.20247
2728.91870	0.20018
2726.99014	0.19790
2725.06157	0.19594
2723.13301	0.19416
2721.20444	0.19226
2719.27588	0.19028
2717.34731	0.18842
2715.41875	0.18673
2713.49019	0.18515
2711.56162	0.18361
2709.63306	0.18190
2707.70449	0.18006
2705.77593	0.17838
2703.84736	0.17689
2701.91880	0.17541
2699.99023	0.17389
2698.06167	0.17247
2696.13311	0.17130
2694.20454	0.17016
2692.27598	0.16886
2690.34741	0.16752
2688.41885	0.16628
2686.49028	0.16498
2684.56172	0.16364
2682.63315	0.16252
2680.70459	0.16159
2678.77603	0.16068
2676.84746	0.15975
2674.91890	0.15875
2672.99033	0.15762
2671.06177	0.15652
2669.13320	0.15562
2667.20464	0.15487
2665.27607	0.15416
2663.34751	0.15342
2661.41895	0.15261
2659.49038	0.15180
2657.56182	0.15101
2655.63325	0.15016
2653.70469	0.14948
2651.77612	0.14898
2649.84756	0.14843
2647.91899	0.14776
2645.99043	0.14716
2644.06187	0.14668
2642.13330	0.14625
2640.20474	0.14585
2638.27617	0.14546
2636.34761	0.14504
2634.41904	0.14472
2632.49048	0.14450
2630.56191	0.14417
2628.63335	0.14372
2626.70479	0.14332
2624.77622	0.14307
2622.84766	0.14295
2620.91909	0.14286
2618.99053	0.14270
2617.06196	0.14246
2615.13340	0.14222
2613.20483	0.14207
2611.27627	0.14206
2609.34771	0.14213
2607.41914	0.14217
2605.49058	0.14215
2603.56201	0.14204
2601.63345	0.14192
2599.70488	0.14201
2597.77632	0.14228
2595.84775	0.14245
2593.91919	0.14251
2591.99062	0.14255
2590.06206	0.14253
2588.13350	0.14263
2586.20493	0.14296
2584.27637	0.14333
2582.34780	0.14359
2580.41924	0.14382
2578.49067	0.14405
2576.56211	0.14438
2574.63354	0.14487
2572.70498	0.14529
2570.77642	0.14544
2568.84785	0.14567
2566.91929	0.14625
2564.99072	0.14686
2563.06216	0.14719
2561.13359	0.14744
2559.20503	0.14796
2557.27646	0.14862
2555.34790	0.14918
2553.41934	0.14962
2551.49077	0.15008
2549.56221	0.15072
2547.63364	0.15143
2545.70508	0.15209
2543.77651	0.15264
2541.84795	0.15317
2539.91938	0.15384
2537.99082	0.15468
2536.06226	0.15537
2534.13369	0.15583
2532.20513	0.15638
2530.27656	0.15713
2528.34800	0.15791
2526.41943	0.15860
2524.49087	0.15933
2522.56230	0.16023
2520.63374	0.16116
2518.70518	0.16195
2516.77661	0.16271
2514.84805	0.16358
2512.91948	0.16446
2510.99092	0.16513
2509.06235	0.16567
2507.13379	0.16632
2505.20522	0.16716
2503.27666	0.16805
2501.34810	0.16887
2499.41953	0.16974
2497.49097	0.17071
2495.56240	0.17161
2493.63384	0.17238
2491.70527	0.17310
2489.77671	0.17390
2487.84814	0.17491
2485.91958	0.17599
2483.99102	0.17684
2482.06245	0.17754
2480.13389	0.17838
2478.20532	0.17942
2476.27676	0.18047
2474.34819	0.18139
2472.41963	0.18223
2470.49106	0.18310
2468.56250	0.18397
2466.63394	0.18487
2464.70537	0.18583
2462.77681	0.18686
2460.84824	0.18793
2458.91968	0.18894
2456.99111	0.18984
2455.06255	0.19073
2453.13398	0.19169
2451.20542	0.19262
2449.27686	0.19357
2447.34829	0.19467
2445.41973	0.19584
2443.49116	0.19683
2441.56260	0.19765
2439.63403	0.19857
2437.70547	0.19966
2435.77690	0.20075
2433.84834	0.20179
2431.91978	0.20286
2429.99121	0.20393
2428.06265	0.20493
2426.13408	0.20599
2424.20552	0.20717
2422.27695	0.20837
2420.34839	0.20946
2418.41982	0.21048
2416.49126	0.21165
2414.56270	0.21291
2412.63413	0.21405
2410.70557	0.21512
2408.77700	0.21624
2406.84844	0.21740
2404.91987	0.21852
2402.99131	0.21953
2401.06274	0.22062
2399.13418	0.22192
2397.20562	0.22323
2395.27705	0.22440
2393.34849	0.22559
2391.41992	0.22680
2389.49136	0.22782
2387.56279	0.22855
2385.63423	0.22869
2383.70566	0.22784
2381.77710	0.22599
2379.84854	0.22327
2377.91997	0.21976
2375.99141	0.21556
2374.06284	0.21039
2372.13428	0.20381
2370.20571	0.19620
2368.27715	0.18834
2366.34858	0.18088
2364.42002	0.17442
2362.49146	0.16975
2360.56289	0.16813
2358.63433	0.17026
2356.70576	0.17673
2354.77720	0.18690
2352.84863	0.19924
2350.92007	0.21148
2348.99150	0.21932
2347.06294	0.22075
2345.13437	0.21598
2343.20581	0.20859
2341.27725	0.20572
2339.34868	0.20844
2337.42012	0.21243
2335.49155	0.21549
2333.56299	0.21834
2331.63442	0.22153
2329.70586	0.22506
2327.77729	0.22901
2325.84873	0.23372
2323.92017	0.23905
2321.99160	0.24427
2320.06304	0.24945
2318.13447	0.25489
2316.20591	0.26002
2314.27734	0.26424
2312.34878	0.26761
2310.42021	0.27095
2308.49165	0.27487
2306.56309	0.27910
2304.63452	0.28310
2302.70596	0.28667
2300.77739	0.28988
2298.84883	0.29275
2296.92026	0.29534
2294.99170	0.29784
2293.06313	0.30053
2291.13457	0.30349
2289.20601	0.30659
2287.27744	0.30966
2285.34888	0.31257
2283.42031	0.31513
2281.49175	0.31719
2279.56318	0.31891
2277.63462	0.32055
2275.70605	0.32239
2273.77749	0.32452
2271.84893	0.32669
2269.92036	0.32867
2267.99180	0.33058
2266.06323	0.33271
2264.13467	0.33501
2262.20610	0.33726
2260.27754	0.33942
2258.34897	0.34158
2256.42041	0.34382
2254.49185	0.34622
2252.56328	0.34874
2250.63472	0.35117
2248.70615	0.35341
2246.77759	0.35563
2244.84902	0.35799
2242.92046	0.36043
2240.99189	0.36279
2239.06333	0.36496
2237.13477	0.36705
2235.20620	0.36924
2233.27764	0.37150
2231.34907	0.37369
2229.42051	0.37584
2227.49194	0.37801
2225.56338	0.38019
2223.63481	0.38240
2221.70625	0.38463
2219.77769	0.38685
2217.84912	0.38900
2215.92056	0.39110
2213.99199	0.39312
2212.06343	0.39521
2210.13486	0.39744
2208.20630	0.39969
2206.27773	0.40182
2204.34917	0.40391
2202.42061	0.40605
2200.49204	0.40814
2198.56348	0.41006
2196.63491	0.41183
2194.70635	0.41361
2192.77778	0.41549
2190.84922	0.41756
2188.92065	0.41969
2186.99209	0.42167
2185.06353	0.42343
2183.13496	0.42495
2181.20640	0.42639
2179.27783	0.42800
2177.34927	0.42969
2175.42070	0.43129
2173.49214	0.43283
2171.56357	0.43427
2169.63501	0.43564
2167.70645	0.43702
2165.77788	0.43839
2163.84932	0.43966
2161.92075	0.44084
2159.99219	0.44199
2158.06362	0.44316
2156.13506	0.44428
2154.20649	0.44523
2152.27793	0.44596
2150.34937	0.44662
2148.42080	0.44738
2146.49224	0.44811
2144.56367	0.44868
2142.63511	0.44918
2140.70654	0.44949
2138.77798	0.44955
2136.84941	0.44965
2134.92085	0.44994
2132.99229	0.45013
2131.06372	0.45003
2129.13516	0.44983
2127.20659	0.44971
2125.27803	0.44957
2123.34946	0.44934
2121.42090	0.44900
2119.49233	0.44848
2117.56377	0.44781
2115.63521	0.44710
2113.70664	0.44642
2111.77808	0.44579
2109.84951	0.44506
2107.92095	0.44403
2105.99238	0.44282
2104.06382	0.44167
2102.13525	0.44052
2100.20669	0.43943
2098.27812	0.43833
2096.34956	0.43695
2094.42100	0.43530
2092.49243	0.43364
2090.56387	0.43212
2088.63530	0.43062
2086.70674	0.42898
2084.77817	0.42711
2082.84961	0.42510
2080.92104	0.42314
2078.99248	0.42125
2077.06392	0.41931
2075.13535	0.41728
2073.20679	0.41520
2071.27822	0.41298
2069.34966	0.41070
2067.42109	0.40844
2065.49253	0.40623
2063.56396	0.40400
2061.63540	0.40173
2059.70684	0.39937
2057.77827	0.39693
2055.84971	0.39447
2053.92114	0.39204
2051.99258	0.38964
2050.06401	0.38716
2048.13545	0.38461
2046.20688	0.38204
2044.27832	0.37945
2042.34976	0.37686
2040.42119	0.37424
2038.49263	0.37157
2036.56406	0.36892
2034.63550	0.36628
2032.70693	0.36350
2030.77837	0.36065
2028.84980	0.35785
2026.92124	0.35514
2024.99268	0.35252
2023.06411	0.34984
2021.13555	0.34701
2019.20698	0.34422
2017.27842	0.34156
2015.34985	0.33888
2013.42129	0.33622
2011.49272	0.33363
2009.56416	0.33103
2007.63560	0.32833
2005.70703	0.32558
2003.77847	0.32285
2001.84990	0.32024
1999.92134	0.31773
1997.99277	0.31522
1996.06421	0.31263
1994.13564	0.31000
1992.20708	0.30751
1990.27852	0.30512
1988.34995	0.30268
1986.42139	0.30022
1984.49282	0.29790
1982.56426	0.29567
1980.63569	0.29337
1978.70713	0.29107
1976.77856	0.28887
1974.85000	0.28671
1972.92144	0.28452
1970.99287	0.28233
1969.06431	0.28017
1967.13574	0.27810
1965.20718	0.27612
1963.27861	0.27420
1961.35005	0.27228
1959.42148	0.27039
1957.49292	0.26854
1955.56436	0.26670
1953.63579	0.26494
1951.70723	0.26329
1949.77866	0.26170
1947.85010	0.26008
1945.92153	0.25844
1943.99297	0.25690
1942.06440	0.25544
1940.13584	0.25402
1938.20728	0.25263
1936.27871	0.25128
1934.35015	0.24995
1932.42158	0.24865
1930.49302	0.24742
1928.56445	0.24627
1926.63589	0.24511
1924.70732	0.24402
1922.77876	0.24307
1920.85020	0.24218
1918.92163	0.24123
1916.99307	0.24031
1915.06450	0.23950
1913.13594	0.23863
1911.20737	0.23776
1909.27881	0.23704
1907.35024	0.23643
1905.42168	0.23588
1903.49312	0.23538
1901.56455	0.23484
1899.63599	0.23424
1897.70742	0.23368
1895.77886	0.23314
1893.85029	0.23273
1891.92173	0.23238
1889.99316	0.23211
1888.06460	0.23195
1886.13604	0.23189
1884.20747	0.23179
1882.27891	0.23160
1880.35034	0.23140
1878.42178	0.23131
1876.49321	0.23133
1874.56465	0.23127
1872.63608	0.23114
1870.70752	0.23105
1868.77896	0.23120
1866.85039	0.23152
1864.92183	0.23180
1862.99326	0.23203
1861.06470	0.23228
1859.13613	0.23262
1857.20757	0.23301
1855.27900	0.23347
1853.35044	0.23390
1851.42187	0.23438
1849.49331	0.23487
1847.56475	0.23541
1845.63618	0.23604
1843.70762	0.23691
1841.77905	0.23790
1839.85049	0.23854
1837.92192	0.23924
1835.99336	0.24012
1834.06479	0.24110
1832.13623	0.24196
1830.20767	0.24303
1828.27910	0.24427
1826.35054	0.24532
1824.42197	0.24663
1822.49341	0.24804
1820.56484	0.24940
1818.63628	0.25084
1816.70771	0.25253
1814.77915	0.25416
1812.85059	0.25569
1810.92202	0.25749
1808.99346	0.25961
1807.06489	0.26173
1805.13633	0.26361
1803.20776	0.26554
1801.27920	0.26772
1799.35063	0.27044
1797.42207	0.27303
1795.49351	0.27536
1793.56494	0.27795
1791.63638	0.28152
1789.70781	0.28526
1787.77925	0.28815
1785.85068	0.29130
1783.92212	0.29486
1781.99355	0.29862
1780.06499	0.30272
1778.13643	0.30711
1776.20786	0.31102
1774.27930	0.31479
1772.35073	0.31999
1770.42217	0.32633
1768.49360	0.33209
1766.56504	0.33759
1764.63647	0.34302
1762.70791	0.34868
1760.77935	0.35592
1758.85078	0.36296
1756.92222	0.36999
1754.99365	0.37767
1753.06509	0.38454
1751.13652	0.39237
1749.20796	0.40231
1747.27939	0.41268
1745.35083	0.42216
1743.42227	0.43208
1741.49370	0.44275
1739.56514	0.45512
1737.63657	0.46750
1735.70801	0.47817
1733.77944	0.49396
1731.85088	0.51347
1729.92231	0.52934
1727.99375	0.54523
1726.06519	0.56204
1724.13662	0.58016
1722.20806	0.59971
1720.27949	0.61758
1718.35093	0.63805
1716.42236	0.66895
1714.49380	0.69967
1712.56523	0.72491
1710.63667	0.74890
1708.70811	0.77402
1706.77954	0.80200
1704.85098	0.83581
1702.92241	0.86671
1700.99385	0.89705
1699.06528	0.94147
1697.13672	0.98269
1695.20815	1.02544
1693.27959	1.06706
1691.35103	1.10036
1689.42246	1.13816
1687.49390	1.17761
1685.56533	1.21543
1683.63677	1.27399
1681.70820	1.33528
1679.77964	1.37485
1677.85107	1.41242
1675.92251	1.45543
1673.99395	1.50866
1672.06538	1.55594
1670.13682	1.60186
1668.20825	1.66200
1666.27969	1.71144
1664.35112	1.75278
1662.42256	1.80408
1660.49399	1.86184
1658.56543	1.90700
1656.63687	1.94332
1654.70830	1.97654
1652.77974	2.03052
1650.85117	2.08503
1648.92261	2.10782
1646.99404	2.13647
1645.06548	2.16728
1643.13691	2.18647
1641.20835	2.19798
1639.27979	2.20815
1637.35122	2.21514
1635.42266	2.21708
1633.49409	2.21208
1631.56553	2.20103
1629.63696	2.18684
1627.70840	2.16218
1625.77983	2.13150
1623.85127	2.09208
1621.92271	2.04410
1619.99414	2.00109
1618.06558	1.95845
1616.13701	1.89767
1614.20845	1.83585
1612.27988	1.78835
1610.35132	1.73860
1608.42275	1.68494
1606.49419	1.63183
1604.56562	1.58207
1602.63706	1.53368
1600.70850	1.48669
1598.77993	1.44357
1596.85137	1.40288
1594.92280	1.36333
1592.99424	1.32510
1591.06567	1.28976
1589.13711	1.25657
1587.20854	1.22568
1585.27998	1.19689
1583.35142	1.16960
1581.42285	1.14440
1579.49429	1.12272
1577.56572	1.10287
1575.63716	1.07896
1573.70859	1.05864
1571.78003	1.04518
1569.85146	1.02994
1567.92290	1.01276
1565.99434	0.99987
1564.06577	0.98939
1562.13721	0.98073
1560.20864	0.97367
1558.28008	0.96272
1556.35151	0.95342
1554.42295	0.94811
1552.49438	0.94274
1550.56582	0.93645
1548.63726	0.92899
1546.70869	0.92124
1544.78013	0.91214
1542.85156	0.90089
1540.92300	0.88711
1538.99443	0.86912
1537.06587	0.85625
1535.13730	0.84704
1533.20874	0.83492
1531.28018	0.82203
1529.35161	0.81241
1527.42305	0.80316
1525.49448	0.79346
1523.56592	0.78476
1521.63735	0.77621
1519.70879	0.76784
1517.78022	0.76064
1515.85166	0.75253
1513.92310	0.74469
1511.99453	0.73814
1510.06597	0.73193
1508.13740	0.72571
1506.20884	0.71719
1504.28027	0.71024
1502.35171	0.70593
1500.42314	0.70174
1498.49458	0.69711
1496.56602	0.69193
1494.63745	0.68701
1492.70889	0.68285
1490.78032	0.67872
1488.85176	0.67428
1486.92319	0.67062
1484.99463	0.66758
1483.06606	0.66476
1481.13750	0.66212
1479.20894	0.65970
1477.28037	0.65761
1475.35181	0.65576
1473.42324	0.65402
1471.49468	0.65199
1469.56611	0.64991
1467.63755	0.64783
1465.70898	0.64578
1463.78042	0.64396
1461.85186	0.64244
1459.92329	0.64109
1457.99473	0.63979
1456.06616	0.63832
1454.13760	0.63646
1452.20903	0.63448
1450.28047	0.63251
1448.35190	0.63062
1446.42334	0.62866
1444.49478	0.62669
1442.56621	0.62487
1440.63765	0.62315
1438.70908	0.62134
1436.78052	0.61903
1434.85195	0.61659
1432.92339	0.61456
1430.99482	0.61284
1429.06626	0.61162
1427.13770	0.61080
1425.20913	0.60999
1423.28057	0.60924
1421.35200	0.60861
1419.42344	0.60793
1417.49487	0.60703
1415.56631	0.60591
1413.63774	0.60489
1411.70918	0.60406
1409.78062	0.60349
1407.85205	0.60319
1405.92349	0.60301
1403.99492	0.60267
1402.06636	0.60198
1400.13779	0.60086
1398.20923	0.59926
1396.28066	0.59738
1394.35210	0.59536
1392.42354	0.59325
1390.49497	0.59112
1388.56641	0.58885
1386.63784	0.58626
1384.70928	0.58358
1382.78071	0.58113
1380.85215	0.57889
1378.92358	0.57685
1376.99502	0.57506
1375.06646	0.57368
1373.13789	0.57272
1371.20933	0.57195
1369.28076	0.57109
1367.35220	0.57001
1365.42363	0.56873
1363.49507	0.56740
1361.56650	0.56623
1359.63794	0.56528
1357.70937	0.56449
1355.78081	0.56373
1353.85225	0.56291
1351.92368	0.56202
1349.99512	0.56117
1348.06655	0.56039
1346.13799	0.55960
1344.20942	0.55871
1342.28086	0.55770
1340.35229	0.55667
1338.42373	0.55582
1336.49517	0.55523
1334.56660	0.55477
1332.63804	0.55432
1330.70947	0.55391
1328.78091	0.55367
1326.85234	0.55359
1324.92378	0.55350
1322.99521	0.55324
1321.06665	0.55288
1319.13809	0.55252
1317.20952	0.55221
1315.28096	0.55186
1313.35239	0.55129
1311.42383	0.55055
1309.49526	0.54985
1307.56670	0.54921
1305.63813	0.54862
1303.70957	0.54809
1301.78101	0.54753
1299.85244	0.54671
1297.92388	0.54570
1295.99531	0.54488
1294.06675	0.54422
1292.13818	0.54338
1290.20962	0.54233
1288.28105	0.54146
1286.35249	0.54082
1284.42393	0.54017
1282.49536	0.53941
1280.56680	0.53855
1278.63823	0.53766
1276.70967	0.53687
1274.78110	0.53629
1272.85254	0.53584
1270.92397	0.53534
1268.99541	0.53478
1267.06685	0.53428
1265.13828	0.53371
1263.20972	0.53308
1261.28115	0.53242
1259.35259	0.53178
1257.42402	0.53138
1255.49546	0.53115
1253.56689	0.53089
1251.63833	0.53063
1249.70977	0.53036
1247.78120	0.53006
1245.85264	0.52981
1243.92407	0.52943
1241.99551	0.52873
1240.06694	0.52792
1238.13838	0.52715
1236.20981	0.52628
1234.28125	0.52518
1232.35269	0.52394
1230.42412	0.52279
1228.49556	0.52180
1226.56699	0.52086
1224.63843	0.51990
1222.70986	0.51889
1220.78130	0.51786
1218.85273	0.51690
1216.92417	0.51601
1214.99561	0.51520
1213.06704	0.51450
1211.13848	0.51395
1209.20991	0.51343
1207.28135	0.51281
1205.35278	0.51209
1203.42422	0.51133
1201.49565	0.51061
1199.56709	0.51004
1197.63853	0.50957
1195.70996	0.50907
1193.78140	0.50850
1191.85283	0.50796
1189.92427	0.50761
1187.99570	0.50743
1186.06714	0.50728
1184.13857	0.50707
1182.21001	0.50700
1180.28145	0.50725
1178.35288	0.50771
1176.42432	0.50841
1174.49575	0.50922
1172.56719	0.50983
1170.63862	0.51023
1168.71006	0.51050
1166.78149	0.51065
1164.85293	0.51074
1162.92437	0.51073
1160.99580	0.51057
1159.06724	0.51026
1157.13867	0.50971
1155.21011	0.50889
1153.28154	0.50791
1151.35298	0.50664
1149.42441	0.50480
1147.49585	0.50257
1145.56729	0.50026
1143.63872	0.49789
1141.71016	0.49560
1139.78159	0.49362
1137.85303	0.49191
1135.92446	0.49026
1133.99590	0.48878
1132.06733	0.48765
1130.13877	0.48672
1128.21021	0.48579
1126.28164	0.48473
1124.35308	0.48362
1122.42451	0.48275
1120.49595	0.48233
1118.56738	0.48224
1116.63882	0.48221
1114.71025	0.48218
1112.78169	0.48239
1110.85312	0.48310
1108.92456	0.48401
1106.99600	0.48482
1105.06743	0.48579
1103.13887	0.48706
1101.21030	0.48852
1099.28174	0.49030
1097.35317	0.49266
1095.42461	0.49558
1093.49604	0.49891
1091.56748	0.50288
1089.63892	0.50789
1087.71035	0.51397
1085.78179	0.52068
1083.85322	0.52760
1081.92466	0.53443
1079.99609	0.54023
1078.06753	0.54381
1076.13896	0.54454
1074.21040	0.54232
1072.28184	0.53762
1070.35327	0.53144
1068.42471	0.52482
1066.49614	0.51833
1064.56758	0.51200
1062.63901	0.50617
1060.71045	0.50128
1058.78188	0.49706
1056.85332	0.49331
1054.92476	0.49009
1052.99619	0.48727
1051.06763	0.48471
1049.13906	0.48259
1047.21050	0.48107
1045.28193	0.48003
1043.35337	0.47935
1041.42480	0.47890
1039.49624	0.47850
1037.56768	0.47817
1035.63911	0.47797
1033.71055	0.47775
1031.78198	0.47752
1029.85342	0.47725
1027.92485	0.47684
1025.99629	0.47640
1024.06772	0.47618
1022.13916	0.47630
1020.21060	0.47664
1018.28203	0.47710
1016.35347	0.47777
1014.42490	0.47860
1012.49634	0.47944
1010.56777	0.48022
1008.63921	0.48114
1006.71064	0.48251
1004.78208	0.48421
1002.85352	0.48627
1000.92495	0.48897
998.99639	0.49221
997.06782	0.49571
995.13926	0.49930
993.21069	0.50298
991.28213	0.50648
989.35356	0.50919
987.42500	0.51074
985.49644	0.51144
983.56787	0.51194
981.63931	0.51277
979.71074	0.51413
977.78218	0.51604
975.85361	0.51850
973.92505	0.52132
971.99648	0.52428
970.06792	0.52745
968.13936	0.53094
966.21079	0.53488
964.28223	0.53928
962.35366	0.54399
960.42510	0.54899
958.49653	0.55433
956.56797	0.55988
954.63940	0.56563
952.71084	0.57169
950.78228	0.57790
948.85371	0.58418
946.92515	0.59068
944.99658	0.59705
943.06802	0.60294
941.13945	0.60881
939.21089	0.61483
937.28232	0.62063
935.35376	0.62628
933.42520	0.63184
931.49663	0.63737
929.56807	0.64313
927.63950	0.64861
925.71094	0.65405
923.78237	0.66040
921.85381	0.66713
919.92524	0.67354
917.99668	0.67986
916.06812	0.68620
914.13955	0.69319
912.21099	0.70150
910.28242	0.71038
908.35386	0.71865
906.42529	0.72667
904.49673	0.73549
902.56816	0.74441
900.63960	0.75303
898.71104	0.76270
896.78247	0.77331
894.85391	0.78341
892.92534	0.79241
890.99678	0.80133
889.06821	0.81119
887.13965	0.82190
885.21108	0.83323
883.28252	0.84513
881.35396	0.85706
879.42539	0.86829
877.49683	0.87912
875.56826	0.89099
873.63970	0.90344
871.71113	0.91389
869.78257	0.92217
867.85400	0.93182
865.92544	0.94427
863.99687	0.95667
862.06831	0.96816
860.13975	0.98075
858.21118	0.99364
856.28262	1.00544
854.35405	1.01775
852.42549	1.03075
850.49692	1.04231
848.56836	1.05081
846.63979	1.05865
844.71123	1.07009
842.78267	1.08322
840.85410	1.09386
838.92554	1.10270
836.99697	1.11428
835.06841	1.12957
833.13984	1.14258
831.21128	1.15215
829.28271	1.16417
827.35415	1.17915
825.42559	1.19142
823.49702	1.20009
821.56846	1.21027
819.63989	1.22230
817.71133	1.23631
815.78276	1.25122
813.85420	1.25639
811.92563	1.25659
809.99707	1.26377
808.06851	1.27988
806.13994	1.31019
804.21138	1.33993
802.28281	1.34558
800.35425	1.33751
798.42568	1.34749
796.49712	1.38035
794.56855	1.39042
792.63999	1.38031
790.71143	1.40856
788.78286	1.47106
786.85430	1.51923
784.92573	1.57396
782.99717	1.65492
781.06860	1.68900
779.14004	1.62603
777.21147	1.56148
775.28291	1.51293
773.35435	1.48611
771.42578	1.43926
769.49722	1.34621
767.56865	1.32937
765.64009	1.37563
763.71152	1.37397
761.78296	1.35340
759.85439	1.30880
757.92583	1.19834
755.99727	1.10403
754.06870	1.10591
752.14014	1.18322
750.21157	1.26923
748.28301	1.25924
746.35444	1.18062
744.42588	1.17655
742.49731	1.16631
740.56875	1.03191
738.64019	0.92744
736.71162	0.88358
734.78306	0.79037
732.85449	0.65254
730.92593	0.55259
728.99736	0.51218
727.06880	0.48721
725.14023	0.40561
723.21167	0.26092
721.28311	0.08142
719.35454	-0.06309
717.42598	-0.13281
715.49741	-0.17786
713.56885	-0.28634
711.64028	-0.69239
709.71172	-0.69052
707.78315	-0.03851
705.85459	0.08476
703.92603	-0.01291
701.99746	0.08063
700.06890	0.19871
698.14033	0.23565
696.21177	0.25406
694.28320	0.22254
692.35464	0.12832
690.42607	0.08600
688.49751	0.12575
686.56895	0.18424
684.64038	0.26713
682.71182	0.34674
680.78325	0.30400
678.85469	0.24337
676.92612	0.27676
674.99756	0.31888
673.06899	0.26695
671.14043	0.21498
669.21187	0.26298
667.28330	0.34490
665.35474	0.28167
663.42617	0.19572
661.49761	0.23282
659.56904	0.27247
657.64048	0.24437
655.71191	0.20423
653.78335	0.17605
651.85479	0.18101
649.92622	0.16986
647.99766	0.10263
646.06909	0.06277
644.14053	0.09561
642.21196	0.17850
640.28340	0.23191
638.35483	0.20216
636.42627	0.21853
634.49771	0.32357
632.56914	0.38998
630.64058	0.30418
628.71201	0.24230
626.78345	0.27414
624.85488	0.28898
622.92632	0.20658
620.99775	0.12818
619.06919	0.15421
617.14062	0.29228
615.21206	0.41332
613.28350	0.32395
611.35493	0.19373
609.42637	0.15528
607.49780	0.16689
605.56924	0.17175
603.64067	0.16035
601.71211	0.15519
599.78354	0.13865
597.85498	0.10398
595.92642	0.09538
593.99785	0.15139
592.06929	0.23983
590.14072	0.27613
588.21216	0.27669
586.28359	0.24614
584.35503	0.21074
582.42646	0.24013
580.49790	0.28894
578.56934	0.25396
576.64077	0.21829
574.71221	0.24379
572.78364	0.24225
570.85508	0.21312
568.92651	0.25154
566.99795	0.33689
565.06938	0.26384
563.14082	0.20151
561.21226	0.31167
559.28369	0.42757
557.35513	0.31502
555.42656	0.18582
553.49800	0.11034
551.56943	0.07747
549.64087	0.06475
547.71230	0.08250
545.78374	0.14454
543.85518	0.21683
541.92661	0.20849
539.99805	0.14828
538.06948	0.11148
536.14092	0.12910
534.21235	0.16115
532.28379	0.16094
530.35522	0.16401
528.42666	0.21686
526.49810	0.30550
524.56953	0.32029
522.64097	0.29806
520.71240	0.34015
518.78384	0.41776
516.85527	0.37307
514.92671	0.23387
512.99814	0.16023
511.06958	0.16439
509.14102	0.14760
507.21245	0.11397
505.28389	0.13174
503.35532	0.18035
501.42676	0.23250
499.49819	0.27651
