3997.91411	0.06868
3995.98555	0.06821
3994.05698	0.06840
3992.12842	0.06889
3990.19985	0.06924
3988.27129	0.06970
3986.34272	0.06997
3984.41416	0.07021
3982.48560	0.07085
3980.55703	0.07119
3978.62847	0.07089
3976.69990	0.07087
3974.77134	0.07144
3972.84277	0.07202
3970.91421	0.07218
3968.98564	0.07225
3967.05708	0.07240
3965.12852	0.07246
3963.19995	0.07268
3961.27139	0.07317
3959.34282	0.07348
3957.41426	0.07332
3955.48569	0.07286
3953.55713	0.07234
3951.62856	0.07224
3949.70000	0.07270
3947.77144	0.07316
3945.84287	0.07331
3943.91431	0.07362
3941.98574	0.07393
3940.05718	0.07356
3938.12861	0.07303
3936.20005	0.07290
3934.27148	0.07321
3932.34292	0.07428
3930.41436	0.07533
3928.48579	0.07514
3926.55723	0.07468
3924.62866	0.07488
3922.70010	0.07481
3920.77153	0.07414
3918.84297	0.07376
3916.91440	0.07380
3914.98584	0.07343
3913.05728	0.07264
3911.12871	0.07221
3909.20015	0.07225
3907.27158	0.07282
3905.34302	0.07399
3903.41445	0.07502
3901.48589	0.07524
3899.55732	0.07512
3897.62876	0.07470
3895.70020	0.07381
3893.77163	0.07332
3891.84307	0.07381
3889.91450	0.07430
3887.98594	0.07397
3886.05737	0.07421
3884.12881	0.07545
3882.20024	0.07624
3880.27168	0.07659
3878.34312	0.07641
3876.41455	0.07539
3874.48599	0.07514
3872.55742	0.07622
3870.62886	0.07768
3868.70029	0.07872
3866.77173	0.07843
3864.84316	0.07802
3862.91460	0.07827
3860.98604	0.07806
3859.05747	0.07754
3857.12891	0.07778
3855.20034	0.07914
3853.27178	0.08163
3851.34321	0.08337
3849.41465	0.08222
3847.48608	0.08076
3845.55752	0.08046
3843.62896	0.08122
3841.70039	0.08240
3839.77183	0.08373
3837.84326	0.08560
3835.91470	0.08731
3833.98613	0.08744
3832.05757	0.08633
3830.12900	0.08554
3828.20044	0.08599
3826.27187	0.08737
3824.34331	0.08884
3822.41475	0.09037
3820.48618	0.09238
3818.55762	0.09302
3816.62905	0.09260
3814.70049	0.09296
3812.77192	0.09321
3810.84336	0.09314
3808.91479	0.09380
3806.98623	0.09552
3805.05767	0.09743
3803.12910	0.09937
3801.20054	0.10197
3799.27197	0.10331
3797.34341	0.10314
3795.41484	0.10342
3793.48628	0.10351
3791.55771	0.10343
3789.62915	0.10411
3787.70059	0.10553
3785.77202	0.10756
3783.84346	0.10982
3781.91489	0.11147
3779.98633	0.11284
3778.05776	0.11475
3776.12920	0.11638
3774.20063	0.11744
3772.27207	0.11864
3770.34351	0.12049
3768.41494	0.12278
3766.48638	0.12459
3764.55781	0.12651
3762.62925	0.12877
3760.70068	0.13125
3758.77212	0.13437
3756.84355	0.13713
3754.91499	0.13890
3752.98643	0.14134
3751.05786	0.14572
3749.12930	0.15071
3747.20073	0.15311
3745.27217	0.15455
3743.34360	0.15790
3741.41504	0.16147
3739.48647	0.16366
3737.55791	0.16656
3735.62935	0.17204
3733.70078	0.17891
3731.77222	0.18329
3729.84365	0.18607
3727.91509	0.18932
3725.98652	0.19410
3724.05796	0.20044
3722.12939	0.20753
3720.20083	0.21514
3718.27227	0.22276
3716.34370	0.23036
3714.41514	0.23831
3712.48657	0.24811
3710.55801	0.26153
3708.62944	0.27500
3706.70088	0.28558
3704.77231	0.29620
3702.84375	0.30952
3700.91519	0.32706
3698.98662	0.34564
3697.05806	0.36272
3695.12949	0.38110
3693.20093	0.40132
3691.27236	0.42397
3689.34380	0.45330
3687.41523	0.48826
3685.48667	0.51787
3683.55811	0.54301
3681.62954	0.57050
3679.70098	0.60241
3677.77241	0.63634
3675.84385	0.67606
3673.91528	0.72929
3671.98672	0.77249
3670.05815	0.81085
3668.12959	0.86447
3666.20103	0.91306
3664.27246	0.95316
3662.34390	0.99664
3660.41533	1.04358
3658.48677	1.08945
3656.55820	1.13861
3654.62964	1.19394
3652.70107	1.24016
3650.77251	1.28007
3648.84395	1.33589
3646.91538	1.40554
3644.98682	1.45618
3643.05825	1.49424
3641.12969	1.53383
3639.20112	1.57872
3637.27256	1.62412
3635.34399	1.66734
3633.41543	1.70976
3631.48687	1.74905
3629.55830	1.78824
3627.62974	1.84140
3625.70117	1.89359
3623.77261	1.92852
3621.84404	1.96136
3619.91548	1.99916
3617.98691	2.04410
3616.05835	2.08705
3614.12979	2.12393
3612.20122	2.16369
3610.27266	2.20295
3608.34409	2.24154
3606.41553	2.28416
3604.48696	2.32507
3602.55840	2.36136
3600.62983	2.39931
3598.70127	2.43918
3596.77271	2.47805
3594.84414	2.51816
3592.91558	2.55977
3590.98701	2.59930
3589.05845	2.63607
3587.12988	2.67888
3585.20132	2.72485
3583.27275	2.76384
3581.34419	2.80153
3579.41562	2.84323
3577.48706	2.88743
3575.55850	2.93143
3573.62993	2.97566
3571.70137	3.01722
3569.77280	3.05531
3567.84424	3.09671
3565.91567	3.14895
3563.98711	3.19927
3562.05854	3.24048
3560.12998	3.28240
3558.20142	3.32686
3556.27285	3.37106
3554.34429	3.41408
3552.41572	3.46042
3550.48716	3.50875
3548.55859	3.55363
3546.63003	3.59675
3544.70146	3.64350
3542.77290	3.69383
3540.84434	3.74148
3538.91577	3.78576
3536.98721	3.83074
3535.05864	3.87845
3533.13008	3.92647
3531.20151	3.97355
3529.27295	4.01945
3527.34438	4.06725
3525.41582	4.11537
3523.48726	4.16102
3521.55869	4.21020
3519.63013	4.25962
3517.70156	4.30376
3515.77300	4.34797
3513.84443	4.39816
3511.91587	4.45150
3509.98730	4.50325
3508.05874	4.55232
3506.13018	4.59953
3504.20161	4.64520
3502.27305	4.69069
3500.34448	4.73879
3498.41592	4.78555
3496.48735	4.82884
3494.55879	4.87428
3492.63022	4.92557
3490.70166	4.98030
3488.77310	5.03532
3486.84453	5.08713
3484.91597	5.13460
3482.98740	5.18203
3481.05884	5.23020
3479.13027	5.27678
3477.20171	5.32352
3475.27314	5.37336
3473.34458	5.42267
3471.41602	5.46254
3469.48745	5.49676
3467.55889	5.53946
3465.63032	5.59675
3463.70176	5.66297
3461.77319	5.72388
3459.84463	5.76964
3457.91606	5.80725
3455.98750	5.84931
3454.05894	5.89317
3452.13037	5.94204
3450.20181	5.99826
3448.27324	6.05074
3446.34468	6.10984
3444.41611	6.17360
3442.48755	6.22960
3440.55898	6.29361
3438.63042	6.35525
3436.70186	6.37623
3434.77329	6.38884
3432.84473	6.44409
3430.91616	6.51512
3428.98760	6.56620
3427.05903	6.61134
3425.13047	6.67372
3423.20190	6.73091
3421.27334	6.77374
3419.34478	6.83282
3417.41621	6.90852
3415.48765	6.96611
3413.55908	6.99622
3411.63052	7.02768
3409.70195	7.05542
3407.77339	7.07966
3405.84482	7.12695
3403.91626	7.18416
3401.98770	7.21942
3400.05913	7.24922
3398.13057	7.28855
3396.20200	7.34984
3394.27344	7.43793
3392.34487	7.49995
3390.41631	7.53023
3388.48774	7.54258
3386.55918	7.56353
3384.63062	7.63743
3382.70205	7.74448
3380.77349	7.78522
3378.84492	7.73932
3376.91636	7.71368
3374.98779	7.73727
3373.05923	7.79009
3371.13066	7.84281
3369.20210	7.85777
3367.27354	7.84905
3365.34497	7.87754
3363.41641	7.92402
3361.48784	7.93810
3359.55928	7.94755
3357.63071	7.93400
3355.70215	7.88547
3353.77358	7.87954
3351.84502	7.95423
3349.91646	8.03142
3347.98789	8.07700
3346.05933	8.09044
3344.13076	8.10649
3342.20220	8.13069
3340.27363	8.05451
3338.34507	7.99406
3336.41650	8.10383
3334.48794	8.27145
3332.55937	8.27439
3330.63081	8.20402
3328.70225	8.25089
3326.77368	8.37298
3324.84512	8.36906
3322.91655	8.21930
3320.98799	8.14269
3319.05942	8.16767
3317.13086	8.16867
3315.20229	8.13856
3313.27373	8.14953
3311.34517	8.12538
3309.41660	8.06092
3307.48804	8.06106
3305.55947	8.07997
3303.63091	8.08760
3301.70234	8.14711
3299.77378	8.25438
3297.84521	8.24342
3295.91665	8.12308
3293.98809	8.07725
3292.05952	8.10083
3290.13096	8.14760
3288.20239	8.25692
3286.27383	8.37465
3284.34526	8.39356
3282.41670	8.36395
3280.48813	8.32309
3278.55957	8.22693
3276.63101	8.08585
3274.70244	8.02858
3272.77388	8.08286
3270.84531	8.11582
3268.91675	8.09503
3266.98818	8.13147
3265.05962	8.25341
3263.13105	8.27637
3261.20249	8.22133
3259.27393	8.31434
3257.34536	8.49550
3255.41680	8.53033
3253.48823	8.48170
3251.55967	8.46031
3249.63110	8.32366
3247.70254	8.13407
3245.77397	8.04775
3243.84541	8.05387
3241.91685	8.12597
3239.98828	8.21064
3238.05972	8.25705
3236.13115	8.30588
3234.20259	8.27364
3232.27402	8.13890
3230.34546	8.08478
3228.41689	8.12455
3226.48833	8.17823
3224.55977	8.24485
3222.63120	8.25164
3220.70264	8.12566
3218.77407	8.01988
3216.84551	8.04139
3214.91694	8.08291
3212.98838	8.02158
3211.05981	7.89587
3209.13125	7.81977
3207.20269	7.80864
3205.27412	7.80410
3203.34556	7.77472
3201.41699	7.73716
3199.48843	7.72265
3197.55986	7.70682
3195.63130	7.65749
3193.70273	7.59217
3191.77417	7.53400
3189.84561	7.50030
3187.91704	7.48636
3185.98848	7.47289
3184.05991	7.45013
3182.13135	7.40379
3180.20278	7.32033
3178.27422	7.20831
3176.34565	7.11257
3174.41709	7.05994
3172.48853	7.03603
3170.55996	7.03541
3168.63140	7.04569
3166.70283	7.01740
3164.77427	6.91534
3162.84570	6.78420
3160.91714	6.69728
3158.98857	6.64562
3157.06001	6.57535
3155.13145	6.49285
3153.20288	6.42400
3151.27432	6.35983
3149.34575	6.28179
3147.41719	6.19934
3145.48862	6.13016
3143.56006	6.07446
3141.63149	6.02988
3139.70293	5.97327
3137.77437	5.88687
3135.84580	5.79835
3133.91724	5.72832
3131.98867	5.66328
3130.06011	5.59516
3128.13154	5.52738
3126.20298	5.45336
3124.27441	5.36805
3122.34585	5.28315
3120.41729	5.21296
3118.48872	5.15173
3116.56016	5.08749
3114.63159	5.01769
3112.70303	4.94573
3110.77446	4.87518
3108.84590	4.80363
3106.91733	4.73186
3104.98877	4.66355
3103.06021	4.59528
3101.13164	4.52401
3099.20308	4.45592
3097.27451	4.39476
3095.34595	4.33356
3093.41738	4.26610
3091.48882	4.19599
3089.56025	4.12939
3087.63169	4.06658
3085.70312	4.00424
3083.77456	3.94019
3081.84600	3.87706
3079.91743	3.81754
3077.98887	3.75947
3076.06030	3.70087
3074.13174	3.64232
3072.20317	3.58326
3070.27461	3.52366
3068.34604	3.46622
3066.41748	3.41075
3064.48892	3.35581
3062.56035	3.30165
3060.63179	3.24850
3058.70322	3.19703
3056.77466	3.14536
3054.84609	3.09163
3052.91753	3.03815
3050.98896	2.98594
3049.06040	2.93348
3047.13184	2.88244
3045.20327	2.83448
3043.27471	2.78700
3041.34614	2.73906
3039.41758	2.69186
3037.48901	2.64555
3035.56045	2.60071
3033.63188	2.55677
3031.70332	2.51212
3029.77476	2.46742
3027.84619	2.42412
3025.91763	2.38202
3023.98906	2.34075
3022.06050	2.30024
3020.13193	2.26011
3018.20337	2.22037
3016.27480	2.18130
3014.34624	2.14294
3012.41768	2.10561
3010.48911	2.06901
3008.56055	2.03223
3006.63198	1.99539
3004.70342	1.95939
3002.77485	1.92462
3000.84629	1.89080
2998.91772	1.85715
2996.98916	1.82341
2995.06060	1.79054
2993.13203	1.75915
2991.20347	1.72875
2989.27490	1.69861
2987.34634	1.66880
2985.41777	1.63984
2983.48921	1.61135
2981.56064	1.58301
2979.63208	1.55502
2977.70352	1.52716
2975.77495	1.49972
2973.84639	1.47341
2971.91782	1.44798
2969.98926	1.42297
2968.06069	1.39817
2966.13213	1.37331
2964.20356	1.34874
2962.27500	1.32497
2960.34644	1.30164
2958.41787	1.27847
2956.48931	1.25541
2954.56074	1.23235
2952.63218	1.20938
2950.70361	1.18684
2948.77505	1.16500
2946.84648	1.14376
2944.91792	1.12296
2942.98936	1.10251
2941.06079	1.08256
2939.13223	1.06315
2937.20366	1.04402
2935.27510	1.02519
2933.34653	1.00676
2931.41797	0.98866
2929.48940	0.97093
2927.56084	0.95320
2925.63228	0.93515
2923.70371	0.91790
2921.77515	0.90207
2919.84658	0.88614
2917.91802	0.86948
2915.98945	0.85319
2914.06089	0.83786
2912.13232	0.82313
2910.20376	0.80852
2908.27520	0.79397
2906.34663	0.77981
2904.41807	0.76616
2902.48950	0.75311
2900.56094	0.74042
2898.63237	0.72765
2896.70381	0.71516
2894.77524	0.70330
2892.84668	0.69152
2890.91812	0.67986
2888.98955	0.66871
2887.06099	0.65783
2885.13242	0.64726
2883.20386	0.63710
2881.27529	0.62687
2879.34673	0.61668
2877.41816	0.60691
2875.48960	0.59711
2873.56104	0.58683
2871.63247	0.57648
2869.70391	0.56655
2867.77534	0.55691
2865.84678	0.54713
2863.91821	0.53718
2861.98965	0.52721
2860.06108	0.51742
2858.13252	0.50798
2856.20396	0.49901
2854.27539	0.49049
2852.34683	0.48228
2850.41826	0.47425
2848.48970	0.46660
2846.56113	0.45940
2844.63257	0.45233
2842.70400	0.44554
2840.77544	0.43925
2838.84687	0.43317
2836.91831	0.42716
2834.98975	0.42119
2833.06118	0.41534
2831.13262	0.40958
2829.20405	0.40376
2827.27549	0.39790
2825.34692	0.39205
2823.41836	0.38613
2821.48979	0.38044
2819.56123	0.37518
2817.63267	0.36993
2815.70410	0.36432
2813.77554	0.35869
2811.84697	0.35334
2809.91841	0.34819
2807.98984	0.34321
2806.06128	0.33832
2804.13271	0.33343
2802.20415	0.32863
2800.27559	0.32396
2798.34702	0.31938
2796.41846	0.31492
2794.48989	0.31058
2792.56133	0.30619
2790.63276	0.30185
2788.70420	0.29777
2786.77563	0.29370
2784.84707	0.28956
2782.91851	0.28555
2780.98994	0.28167
2779.06138	0.27798
2777.13281	0.27451
2775.20425	0.27100
2773.27568	0.26739
2771.34712	0.26393
2769.41855	0.26061
2767.48999	0.25723
2765.56143	0.25385
2763.63286	0.25062
2761.70430	0.24757
2759.77573	0.24461
2757.84717	0.24163
2755.91860	0.23868
2753.99004	0.23585
2752.06147	0.23318
2750.13291	0.23060
2748.20435	0.22799
2746.27578	0.22538
2744.34722	0.22286
2742.41865	0.22041
2740.49009	0.21796
2738.56152	0.21549
2736.63296	0.21303
2734.70439	0.21061
2732.77583	0.20825
2730.84727	0.20608
2728.91870	0.20417
2726.99014	0.20234
2725.06157	0.20030
2723.13301	0.19807
2721.20444	0.19592
2719.27588	0.19396
2717.34731	0.19216
2715.41875	0.19043
2713.49019	0.18871
2711.56162	0.18691
2709.63306	0.18507
2707.70449	0.18349
2705.77593	0.18225
2703.84736	0.18105
2701.91880	0.17967
2699.99023	0.17824
2698.06167	0.17685
2696.13311	0.17536
2694.20454	0.17378
2692.27598	0.17231
2690.34741	0.17098
2688.41885	0.16985
2686.49028	0.16898
2684.56172	0.16808
2682.63315	0.16685
2680.70459	0.16553
2678.77603	0.16439
2676.84746	0.16332
2674.91890	0.16224
2672.99033	0.16112
2671.06177	0.16003
2669.13320	0.15913
2667.20464	0.15834
2665.27607	0.15740
2663.34751	0.15644
2661.41895	0.15559
2659.49038	0.15475
2657.56182	0.15406
2655.63325	0.15360
2653.70469	0.15318
2651.77612	0.15266
2649.84756	0.15204
2647.91899	0.15128
2645.99043	0.15056
2644.06187	0.14999
2642.13330	0.14944
2640.20474	0.14892
2638.27617	0.14845
2636.34761	0.14808
2634.41904	0.14781
2632.49048	0.14741
2630.56191	0.14690
2628.63335	0.14652
2626.70479	0.14626
2624.77622	0.14598
2622.84766	0.14570
2620.91909	0.14550
2618.99053	0.14543
2617.06196	0.14530
2615.13340	0.14507
2613.20483	0.14499
2611.27627	0.14497
2609.34771	0.14476
2607.41914	0.14452
2605.49058	0.14449
2603.56201	0.14458
2601.63345	0.14467
2599.70488	0.14474
2597.77632	0.14487
2595.84775	0.14505
2593.91919	0.14515
2591.99062	0.14518
2590.06206	0.14525
2588.13350	0.14542
2586.20493	0.14572
2584.27637	0.14602
2582.34780	0.14629
2580.41924	0.14663
2578.49067	0.14696
2576.56211	0.14728
2574.63354	0.14759
2572.70498	0.14789
2570.77642	0.14817
2568.84785	0.14842
2566.91929	0.14872
2564.99072	0.14910
2563.06216	0.14956
2561.13359	0.15009
2559.20503	0.15062
2557.27646	0.15116
2555.34790	0.15175
2553.41934	0.15241
2551.49077	0.15306
2549.56221	0.15361
2547.63364	0.15418
2545.70508	0.15489
2543.77651	0.15561
2541.84795	0.15621
2539.91938	0.15682
2537.99082	0.15746
2536.06226	0.15797
2534.13369	0.15845
2532.20513	0.15908
2530.27656	0.15979
2528.34800	0.16052
2526.41943	0.16124
2524.49087	0.16192
2522.56230	0.16262
2520.63374	0.16336
2518.70518	0.16413
2516.77661	0.16502
2514.84805	0.16595
2512.91948	0.16677
2510.99092	0.16749
2509.06235	0.16815
2507.13379	0.16878
2505.20522	0.16951
2503.27666	0.17037
2501.34810	0.17131
2499.41953	0.17232
2497.49097	0.17327
2495.56240	0.17405
2493.63384	0.17475
2491.70527	0.17556
2489.77671	0.17653
2487.84814	0.17747
2485.91958	0.17827
2483.99102	0.17907
2482.06245	0.18002
2480.13389	0.18103
2478.20532	0.18199
2476.27676	0.18297
2474.34819	0.18392
2472.41963	0.18472
2470.49106	0.18544
2468.56250	0.18625
2466.63394	0.18716
2464.70537	0.18826
2462.77681	0.18946
2460.84824	0.19046
2458.91968	0.19130
2456.99111	0.19226
2455.06255	0.19326
2453.13398	0.19413
2451.20542	0.19503
2449.27686	0.19611
2447.34829	0.19722
2445.41973	0.19818
2443.49116	0.19914
2441.56260	0.20027
2439.63403	0.20140
2437.70547	0.20244
2435.77690	0.20335
2433.84834	0.20424
2431.91978	0.20525
2429.99121	0.20631
2428.06265	0.20741
2426.13408	0.20858
2424.20552	0.20969
2422.27695	0.21077
2420.34839	0.21190
2418.41982	0.21303
2416.49126	0.21415
2414.56270	0.21522
2412.63413	0.21622
2410.70557	0.21725
2408.77700	0.21837
2406.84844	0.21957
2404.91987	0.22087
2402.99131	0.22223
2401.06274	0.22361
2399.13418	0.22486
2397.20562	0.22586
2395.27705	0.22676
2393.34849	0.22787
2391.41992	0.22926
2389.49136	0.23067
2387.56279	0.23187
2385.63423	0.23281
2383.70566	0.23343
2381.77710	0.23389
2379.84854	0.23457
2377.91997	0.23546
2375.99141	0.23614
2374.06284	0.23654
2372.13428	0.23681
2370.20571	0.23687
2368.27715	0.23670
2366.34858	0.23619
2364.42002	0.23495
2362.49146	0.23448
2360.56289	0.23614
2358.63433	0.23852
2356.70576	0.24183
2354.77720	0.24585
2352.84863	0.25002
2350.92007	0.25409
2348.99150	0.25658
2347.06294	0.25706
2345.13437	0.25613
2343.20581	0.25533
2341.27725	0.25622
2339.34868	0.25778
2337.42012	0.25924
2335.49155	0.26138
2333.56299	0.26409
2331.63442	0.26645
2329.70586	0.26815
2327.77729	0.27001
2325.84873	0.27251
2323.92017	0.27523
2321.99160	0.27782
2320.06304	0.28011
2318.13447	0.28219
2316.20591	0.28406
2314.27734	0.28575
2312.34878	0.28745
2310.42021	0.28935
2308.49165	0.29151
2306.56309	0.29377
2304.63452	0.29593
2302.70596	0.29802
2300.77739	0.30018
2298.84883	0.30225
2296.92026	0.30415
2294.99170	0.30604
2293.06313	0.30795
2291.13457	0.30989
2289.20601	0.31196
2287.27744	0.31404
2285.34888	0.31595
2283.42031	0.31778
2281.49175	0.31977
2279.56318	0.32197
2277.63462	0.32412
2275.70605	0.32620
2273.77749	0.32833
2271.84893	0.33052
2269.92036	0.33265
2267.99180	0.33469
2266.06323	0.33670
2264.13467	0.33875
2262.20610	0.34085
2260.27754	0.34295
2258.34897	0.34500
2256.42041	0.34704
2254.49185	0.34919
2252.56328	0.35138
2250.63472	0.35354
2248.70615	0.35569
2246.77759	0.35782
2244.84902	0.35997
2242.92046	0.36215
2240.99189	0.36432
2239.06333	0.36646
2237.13477	0.36856
2235.20620	0.37075
2233.27764	0.37312
2231.34907	0.37539
2229.42051	0.37748
2227.49194	0.37958
2225.56338	0.38179
2223.63481	0.38400
2221.70625	0.38620
2219.77769	0.38842
2217.84912	0.39063
2215.92056	0.39282
2213.99199	0.39493
2212.06343	0.39699
2210.13486	0.39911
2208.20630	0.40126
2206.27773	0.40333
2204.34917	0.40532
2202.42061	0.40738
2200.49204	0.40949
2198.56348	0.41144
2196.63491	0.41324
2194.70635	0.41506
2192.77778	0.41699
2190.84922	0.41900
2188.92065	0.42087
2186.99209	0.42260
2185.06353	0.42439
2183.13496	0.42625
2181.20640	0.42805
2179.27783	0.42968
2177.34927	0.43118
2175.42070	0.43267
2173.49214	0.43425
2171.56357	0.43578
2169.63501	0.43715
2167.70645	0.43844
2165.77788	0.43969
2163.84932	0.44098
2161.92075	0.44226
2159.99219	0.44340
2158.06362	0.44441
2156.13506	0.44540
2154.20649	0.44628
2152.27793	0.44697
2150.34937	0.44762
2148.42080	0.44823
2146.49224	0.44880
2144.56367	0.44942
2142.63511	0.45008
2140.70654	0.45053
2138.77798	0.45067
2136.84941	0.45073
2134.92085	0.45091
2132.99229	0.45103
2131.06372	0.45100
2129.13516	0.45093
2127.20659	0.45084
2125.27803	0.45065
2123.34946	0.45028
2121.42090	0.44973
2119.49233	0.44923
2117.56377	0.44886
2115.63521	0.44833
2113.70664	0.44757
2111.77808	0.44671
2109.84951	0.44579
2107.92095	0.44484
2105.99238	0.44379
2104.06382	0.44269
2102.13525	0.44152
2100.20669	0.44028
2098.27812	0.43905
2096.34956	0.43771
2094.42100	0.43615
2092.49243	0.43457
2090.56387	0.43303
2088.63530	0.43142
2086.70674	0.42970
2084.77817	0.42787
2082.84961	0.42600
2080.92104	0.42415
2078.99248	0.42225
2077.06392	0.42029
2075.13535	0.41822
2073.20679	0.41600
2071.27822	0.41371
2069.34966	0.41164
2067.42109	0.40976
2065.49253	0.40768
2063.56396	0.40525
2061.63540	0.40266
2059.70684	0.40007
2057.77827	0.39761
2055.84971	0.39531
2053.92114	0.39300
2051.99258	0.39056
2050.06401	0.38799
2048.13545	0.38537
2046.20688	0.38268
2044.27832	0.38006
2042.34976	0.37756
2040.42119	0.37489
2038.49263	0.37208
2036.56406	0.36941
2034.63550	0.36680
2032.70693	0.36419
2030.77837	0.36161
2028.84980	0.35896
2026.92124	0.35619
2024.99268	0.35339
2023.06411	0.35068
2021.13555	0.34810
2019.20698	0.34560
2017.27842	0.34305
2015.34985	0.34027
2013.42129	0.33734
2011.49272	0.33442
2009.56416	0.33167
2007.63560	0.32907
2005.70703	0.32649
2003.77847	0.32387
2001.84990	0.32126
1999.92134	0.31869
1997.99277	0.31611
1996.06421	0.31353
1994.13564	0.31112
1992.20708	0.30887
1990.27852	0.30646
1988.34995	0.30382
1986.42139	0.30118
1984.49282	0.29872
1982.56426	0.29641
1980.63569	0.29413
1978.70713	0.29178
1976.77856	0.28941
1974.85000	0.28721
1972.92144	0.28521
1970.99287	0.28328
1969.06431	0.28140
1967.13574	0.27950
1965.20718	0.27736
1963.27861	0.27512
1961.35005	0.27308
1959.42148	0.27122
1957.49292	0.26938
1955.56436	0.26761
1953.63579	0.26599
1951.70723	0.26439
1949.77866	0.26276
1947.85010	0.26118
1945.92153	0.25971
1943.99297	0.25836
1942.06440	0.25694
1940.13584	0.25522
1938.20728	0.25345
1936.27871	0.25202
1934.35015	0.25089
1932.42158	0.24978
1930.49302	0.24856
1928.56445	0.24737
1926.63589	0.24623
1924.70732	0.24536
1922.77876	0.24474
1920.85020	0.24391
1918.92163	0.24290
1916.99307	0.24187
1915.06450	0.24081
1913.13594	0.23990
1911.20737	0.23930
1909.27881	0.23873
1907.35024	0.23801
1905.42168	0.23727
1903.49312	0.23663
1901.56455	0.23600
1899.63599	0.23542
1897.70742	0.23497
1895.77886	0.23464
1893.85029	0.23439
1891.92173	0.23413
1889.99316	0.23394
1888.06460	0.23358
1886.13604	0.23307
1884.20747	0.23272
1882.27891	0.23253
1880.35034	0.23241
1878.42178	0.23228
1876.49321	0.23219
1874.56465	0.23219
1872.63608	0.23238
1870.70752	0.23279
1868.77896	0.23352
1866.85039	0.23386
1864.92183	0.23355
1862.99326	0.23334
1861.06470	0.23344
1859.13613	0.23376
1857.20757	0.23412
1855.27900	0.23459
1853.35044	0.23508
1851.42187	0.23557
1849.49331	0.23611
1847.56475	0.23687
1845.63618	0.23792
1843.70762	0.23905
1841.77905	0.23967
1839.85049	0.23995
1837.92192	0.24068
1835.99336	0.24159
1834.06479	0.24247
1832.13623	0.24354
1830.20767	0.24509
1828.27910	0.24653
1826.35054	0.24745
1824.42197	0.24861
1822.49341	0.24979
1820.56484	0.25091
1818.63628	0.25219
1816.70771	0.25378
1814.77915	0.25538
1812.85059	0.25713
1810.92202	0.25928
1808.99346	0.26146
1807.06489	0.26337
1805.13633	0.26526
1803.20776	0.26758
1801.27920	0.27019
1799.35063	0.27289
1797.42207	0.27534
1795.49351	0.27785
1793.56494	0.28089
1791.63638	0.28468
1789.70781	0.28792
1787.77925	0.29010
1785.85068	0.29291
1783.92212	0.29651
1781.99355	0.30047
1780.06499	0.30464
1778.13643	0.30888
1776.20786	0.31293
1774.27930	0.31743
1772.35073	0.32357
1770.42217	0.32993
1768.49360	0.33495
1766.56504	0.33971
1764.63647	0.34471
1762.70791	0.35056
1760.77935	0.35820
1758.85078	0.36521
1756.92222	0.37216
1754.99365	0.37990
1753.06509	0.38698
1751.13652	0.39551
1749.20796	0.40637
1747.27939	0.41686
1745.35083	0.42592
1743.42227	0.43555
1741.49370	0.44602
1739.56514	0.45821
1737.63657	0.47053
1735.70801	0.48154
1733.77944	0.49816
1731.85088	0.51770
1729.92231	0.53275
1727.99375	0.54797
1726.06519	0.56459
1724.13662	0.58285
1722.20806	0.60243
1720.27949	0.62055
1718.35093	0.64215
1716.42236	0.67421
1714.49380	0.70421
1712.56523	0.72820
1710.63667	0.75167
1708.70811	0.77721
1706.77954	0.80642
1704.85098	0.84138
1702.92241	0.87230
1700.99385	0.90230
1699.06528	0.94689
1697.13672	0.98818
1695.20815	1.03066
1693.27959	1.07154
1691.35103	1.10424
1689.42246	1.14222
1687.49390	1.18221
1685.56533	1.22022
1683.63677	1.27912
1681.70820	1.34054
1679.77964	1.37960
1677.85107	1.41721
1675.92251	1.46115
1673.99395	1.51483
1672.06538	1.56132
1670.13682	1.60655
1668.20825	1.66598
1666.27969	1.71438
1664.35112	1.75512
1662.42256	1.80588
1660.49399	1.86264
1658.56543	1.90643
1656.63687	1.94101
1654.70830	1.97263
1652.77974	2.02710
1650.85117	2.08248
1648.92261	2.10418
1646.99404	2.13161
1645.06548	2.16270
1643.13691	2.18248
1641.20835	2.19384
1639.27979	2.20411
1637.35122	2.21158
1635.42266	2.21327
1633.49409	2.20763
1631.56553	2.19600
1629.63696	2.18095
1627.70840	2.15525
1625.77983	2.12362
1623.85127	2.08449
1621.92271	2.03819
1619.99414	1.99665
1618.06558	1.95540
1616.13701	1.89532
1614.20845	1.83232
1612.27988	1.78422
1610.35132	1.73510
1608.42275	1.68209
1606.49419	1.62915
1604.56562	1.57958
1602.63706	1.53131
1600.70850	1.48395
1598.77993	1.44045
1596.85137	1.39979
1594.92280	1.36033
1592.99424	1.32219
1591.06567	1.28728
1589.13711	1.25423
1587.20854	1.22274
1585.27998	1.19330
1583.35142	1.16580
1581.42285	1.14063
1579.49429	1.11921
1577.56572	1.10024
1575.63716	1.07699
1573.70859	1.05606
1571.78003	1.04238
1569.85146	1.02785
1567.92290	1.01064
1565.99434	0.99674
1564.06577	0.98562
1562.13721	0.97712
1560.20864	0.97122
1558.28008	0.96141
1556.35151	0.95075
1554.42295	0.94400
1552.49438	0.93753
1550.56582	0.93047
1548.63726	0.92257
1546.70869	0.91502
1544.78013	0.90732
1542.85156	0.89846
1540.92300	0.88687
1538.99443	0.86866
1537.06587	0.85433
1535.13730	0.84491
1533.20874	0.83331
1531.28018	0.82060
1529.35161	0.81136
1527.42305	0.80323
1525.49448	0.79497
1523.56592	0.78747
1521.63735	0.77933
1519.70879	0.77029
1517.78022	0.76280
1515.85166	0.75486
1513.92310	0.74683
1511.99453	0.74024
1510.06597	0.73461
1508.13740	0.72954
1506.20884	0.72103
1504.28027	0.71243
1502.35171	0.70734
1500.42314	0.70321
1498.49458	0.69915
1496.56602	0.69424
1494.63745	0.68889
1492.70889	0.68484
1490.78032	0.68173
1488.85176	0.67781
1486.92319	0.67310
1484.99463	0.66914
1483.06606	0.66620
1481.13750	0.66361
1479.20894	0.66111
1477.28037	0.65916
1475.35181	0.65776
1473.42324	0.65657
1471.49468	0.65445
1469.56611	0.65163
1467.63755	0.64928
1465.70898	0.64736
1463.78042	0.64541
1461.85186	0.64373
1459.92329	0.64282
1457.99473	0.64245
1456.06616	0.64109
1454.13760	0.63844
1452.20903	0.63625
1450.28047	0.63454
1448.35190	0.63287
1446.42334	0.63086
1444.49478	0.62878
1442.56621	0.62685
1440.63765	0.62505
1438.70908	0.62348
1436.78052	0.62167
1434.85195	0.61916
1432.92339	0.61687
1430.99482	0.61521
1429.06626	0.61380
1427.13770	0.61261
1425.20913	0.61185
1423.28057	0.61132
1421.35200	0.61082
1419.42344	0.61046
1417.49487	0.60947
1415.56631	0.60755
1413.63774	0.60589
1411.70918	0.60492
1409.78062	0.60443
1407.85205	0.60415
1405.92349	0.60396
1403.99492	0.60356
1402.06636	0.60276
1400.13779	0.60182
1398.20923	0.60072
1396.28066	0.59926
1394.35210	0.59725
1392.42354	0.59470
1390.49497	0.59226
1388.56641	0.59019
1386.63784	0.58789
1384.70928	0.58515
1382.78071	0.58260
1380.85215	0.58055
1378.92358	0.57889
1376.99502	0.57751
1375.06646	0.57650
1373.13789	0.57569
1371.20933	0.57479
1369.28076	0.57386
1367.35220	0.57276
1365.42363	0.57160
1363.49507	0.57070
1361.56650	0.56970
1359.63794	0.56841
1357.70937	0.56723
1355.78081	0.56611
1353.85225	0.56495
1351.92368	0.56380
1349.99512	0.56271
1348.06655	0.56179
1346.13799	0.56106
1344.20942	0.56039
1342.28086	0.55970
1340.35229	0.55910
1338.42373	0.55838
1336.49517	0.55745
1334.56660	0.55655
1332.63804	0.55579
1330.70947	0.55525
1328.78091	0.55492
1326.85234	0.55464
1324.92378	0.55437
1322.99521	0.55413
1321.06665	0.55390
1319.13809	0.55360
1317.20952	0.55318
1315.28096	0.55267
1313.35239	0.55211
1311.42383	0.55142
1309.49526	0.55066
1307.56670	0.54999
1305.63813	0.54926
1303.70957	0.54842
1301.78101	0.54764
1299.85244	0.54686
1297.92388	0.54606
1295.99531	0.54527
1294.06675	0.54443
1292.13818	0.54353
1290.20962	0.54286
1288.28105	0.54237
1286.35249	0.54168
1284.42393	0.54080
1282.49536	0.54000
1280.56680	0.53938
1278.63823	0.53873
1276.70967	0.53787
1274.78110	0.53696
1272.85254	0.53633
1270.92397	0.53595
1268.99541	0.53563
1267.06685	0.53523
1265.13828	0.53463
1263.20972	0.53398
1261.28115	0.53345
1259.35259	0.53295
1257.42402	0.53250
1255.49546	0.53222
1253.56689	0.53203
1251.63833	0.53181
1249.70977	0.53153
1247.78120	0.53121
1245.85264	0.53088
1243.92407	0.53048
1241.99551	0.52994
1240.06694	0.52919
1238.13838	0.52830
1236.20981	0.52736
1234.28125	0.52624
1232.35269	0.52500
1230.42412	0.52387
1228.49556	0.52286
1226.56699	0.52181
1224.63843	0.52074
1222.70986	0.51976
1220.78130	0.51882
1218.85273	0.51791
1216.92417	0.51705
1214.99561	0.51619
1213.06704	0.51542
1211.13848	0.51482
1209.20991	0.51419
1207.28135	0.51353
1205.35278	0.51296
1203.42422	0.51235
1201.49565	0.51151
1199.56709	0.51070
1197.63853	0.51016
1195.70996	0.50960
1193.78140	0.50890
1191.85283	0.50829
1189.92427	0.50784
1187.99570	0.50753
1186.06714	0.50738
1184.13857	0.50732
1182.21001	0.50734
1180.28145	0.50758
1178.35288	0.50810
1176.42432	0.50873
1174.49575	0.50931
1172.56719	0.50986
1170.63862	0.51038
1168.71006	0.51084
1166.78149	0.51130
1164.85293	0.51177
1162.92437	0.51213
1160.99580	0.51232
1159.06724	0.51233
1157.13867	0.51206
1155.21011	0.51141
1153.28154	0.51051
1151.35298	0.50927
1149.42441	0.50751
1147.49585	0.50539
1145.56729	0.50315
1143.63872	0.50085
1141.71016	0.49847
1139.78159	0.49629
1137.85303	0.49448
1135.92446	0.49289
1133.99590	0.49160
1132.06733	0.49062
1130.13877	0.48970
1128.21021	0.48883
1126.28164	0.48801
1124.35308	0.48725
1122.42451	0.48671
1120.49595	0.48653
1118.56738	0.48668
1116.63882	0.48702
1114.71025	0.48738
1112.78169	0.48783
1110.85312	0.48847
1108.92456	0.48930
1106.99600	0.49033
1105.06743	0.49152
1103.13887	0.49269
1101.21030	0.49385
1099.28174	0.49534
1097.35317	0.49744
1095.42461	0.50019
1093.49604	0.50375
1091.56748	0.50832
1089.63892	0.51370
1087.71035	0.52011
1085.78179	0.52794
1083.85322	0.53630
1081.92466	0.54380
1079.99609	0.54964
1078.06753	0.55303
1076.13896	0.55325
1074.21040	0.55039
1072.28184	0.54532
1070.35327	0.53905
1068.42471	0.53238
1066.49614	0.52571
1064.56758	0.51917
1062.63901	0.51332
1060.71045	0.50873
1058.78188	0.50499
1056.85332	0.50158
1054.92476	0.49836
1052.99619	0.49544
1051.06763	0.49309
1049.13906	0.49132
1047.21050	0.48998
1045.28193	0.48911
1043.35337	0.48861
1041.42480	0.48821
1039.49624	0.48792
1037.56768	0.48782
1035.63911	0.48776
1033.71055	0.48757
1031.78198	0.48716
1029.85342	0.48645
1027.92485	0.48557
1025.99629	0.48473
1024.06772	0.48409
1022.13916	0.48380
1020.21060	0.48378
1018.28203	0.48399
1016.35347	0.48438
1014.42490	0.48474
1012.49634	0.48509
1010.56777	0.48567
1008.63921	0.48648
1006.71064	0.48742
1004.78208	0.48864
1002.85352	0.49036
1000.92495	0.49270
998.99639	0.49577
997.06782	0.49960
995.13926	0.50394
993.21069	0.50811
991.28213	0.51126
989.35356	0.51328
987.42500	0.51449
985.49644	0.51504
983.56787	0.51522
981.63931	0.51550
979.71074	0.51635
977.78218	0.51800
975.85361	0.52026
973.92505	0.52275
971.99648	0.52530
970.06792	0.52826
968.13936	0.53184
966.21079	0.53586
964.28223	0.54021
962.35366	0.54513
960.42510	0.55050
958.49653	0.55593
956.56797	0.56130
954.63940	0.56678
952.71084	0.57262
950.78228	0.57903
948.85371	0.58562
946.92515	0.59179
944.99658	0.59761
943.06802	0.60344
941.13945	0.60948
939.21089	0.61573
937.28232	0.62189
935.35376	0.62748
933.42520	0.63261
931.49663	0.63817
929.56807	0.64471
927.63950	0.65138
925.71094	0.65719
923.78237	0.66243
921.85381	0.66808
919.92524	0.67429
917.99668	0.68045
916.06812	0.68686
914.13955	0.69405
912.21099	0.70175
910.28242	0.70972
908.35386	0.71793
906.42529	0.72666
904.49673	0.73579
902.56816	0.74456
900.63960	0.75365
898.71104	0.76363
896.78247	0.77348
894.85391	0.78279
892.92534	0.79255
890.99678	0.80351
889.06821	0.81423
887.13965	0.82338
885.21108	0.83243
883.28252	0.84321
881.35396	0.85632
879.42539	0.87016
877.49683	0.88203
875.56826	0.89313
873.63970	0.90450
871.71113	0.91451
869.78257	0.92491
867.85400	0.93766
865.92544	0.95008
863.99687	0.95998
862.06831	0.96925
860.13975	0.97861
858.21118	0.98785
856.28262	0.99873
854.35405	1.01097
852.42549	1.02357
850.49692	1.03718
848.56836	1.05054
846.63979	1.06234
844.71123	1.07443
842.78267	1.08745
840.85410	1.09937
838.92554	1.10916
836.99697	1.11767
835.06841	1.12677
833.13984	1.13806
831.21128	1.15035
829.28271	1.16351
827.35415	1.17703
825.42559	1.18668
823.49702	1.19487
821.56846	1.20668
819.63989	1.22216
817.71133	1.23641
815.78276	1.24404
813.85420	1.25181
811.92563	1.26922
809.99707	1.29542
808.06851	1.32444
806.13994	1.35054
804.21138	1.37402
802.28281	1.39646
800.35425	1.40092
798.42568	1.38161
796.49712	1.35403
794.56855	1.34793
792.63999	1.38084
790.71143	1.41699
788.78286	1.46009
786.85430	1.53440
784.92573	1.58069
782.99717	1.60390
781.06860	1.60018
779.14004	1.54768
777.21147	1.53381
775.28291	1.49015
773.35435	1.39465
771.42578	1.39090
769.49722	1.49918
767.56865	1.61495
765.64009	1.60346
763.71152	1.58357
761.78296	1.60629
759.85439	1.58796
757.92583	1.65210
755.99727	1.69581
754.06870	1.48942
752.14014	1.37110
750.21157	1.37916
748.28301	1.32769
746.35444	1.24349
744.42588	1.23084
742.49731	1.24001
740.56875	1.23453
738.64019	1.20038
736.71162	1.17303
734.78306	1.20563
732.85449	1.22246
730.92593	1.17504
728.99736	1.07314
727.06880	0.87394
725.14023	0.68242
723.21167	0.48126
721.28311	0.27265
719.35454	0.17437
717.42598	0.06725
715.49741	-0.07500
713.56885	0.02166
711.64028	0.26187
709.71172	0.36520
707.78315	0.29148
705.85459	0.40596
703.92603	0.68161
701.99746	0.53313
700.06890	0.29832
698.14033	0.28198
696.21177	0.40760
694.28320	0.38053
692.35464	0.28185
690.42607	0.31879
688.49751	0.37994
686.56895	0.33483
684.64038	0.31210
682.71182	0.39217
680.78325	0.50380
678.85469	0.58597
676.92612	0.89830
674.99756	1.67489
673.06899	0.53795
671.14043	0.31136
669.21187	0.40864
667.28330	0.74958
665.35474	0.64932
663.42617	0.34877
661.49761	0.25988
659.56904	0.26959
657.64048	0.29737
655.71191	0.37939
653.78335	0.60191
651.85479	1.46810
649.92622	1.04785
647.99766	0.29707
646.06909	0.10622
644.14053	0.16619
642.21196	0.29956
640.28340	0.35975
638.35483	0.32606
636.42627	0.32243
634.49771	0.29420
632.56914	0.23871
630.64058	0.20940
628.71201	0.21852
626.78345	0.24021
624.85488	0.22115
622.92632	0.22475
620.99775	0.33724
619.06919	0.51416
617.14062	0.72416
615.21206	1.41127
613.28350	0.41582
611.35493	0.10609
609.42637	0.02655
607.49780	0.07450
605.56924	0.19772
603.64067	0.32891
601.71211	0.30011
599.78354	0.23684
597.85498	0.30389
595.92642	0.62935
593.99785	3.56399
592.06929	0.63147
590.14072	0.31655
588.21216	0.31544
586.28359	0.48189
584.35503	0.69055
582.42646	0.65330
580.49790	0.47272
578.56934	0.34002
576.64077	0.34339
574.71221	0.41531
572.78364	0.35922
570.85508	0.32276
568.92651	0.33564
566.99795	0.33099
565.06938	0.27081
563.14082	0.18167
561.21226	0.13462
559.28369	0.17781
557.35513	0.29969
555.42656	0.42730
553.49800	0.42235
551.56943	0.29055
549.64087	0.21050
547.71230	0.15514
545.78374	0.12091
543.85518	0.15818
541.92661	0.24463
539.99805	0.27081
538.06948	0.21961
536.14092	0.19130
534.21235	0.21716
532.28379	0.27298
530.35522	0.30656
528.42666	0.29541
526.49810	0.30981
524.56953	0.41719
522.64097	0.45943
520.71240	0.29030
518.78384	0.17221
516.85527	0.17154
514.92671	0.20575
512.99814	0.25814
511.06958	0.34395
509.14102	0.36095
507.21245	0.25469
505.28389	0.20088
503.35532	0.22911
501.42676	0.21664
499.49819	0.18514
