3997.91411	0.06943
3995.98555	0.06955
3994.05698	0.06987
3992.12842	0.07065
3990.19985	0.07134
3988.27129	0.07142
3986.34272	0.07126
3984.41416	0.07140
3982.48560	0.07172
3980.55703	0.07202
3978.62847	0.07237
3976.69990	0.07277
3974.77134	0.07317
3972.84277	0.07337
3970.91421	0.07313
3968.98564	0.07281
3967.05708	0.07282
3965.12852	0.07312
3963.19995	0.07375
3961.27139	0.07454
3959.34282	0.07473
3957.41426	0.07432
3955.48569	0.07408
3953.55713	0.07417
3951.62856	0.07450
3949.70000	0.07531
3947.77144	0.07629
3945.84287	0.07668
3943.91431	0.07661
3941.98574	0.07617
3940.05718	0.07522
3938.12861	0.07458
3936.20005	0.07462
3934.27148	0.07532
3932.34292	0.07653
3930.41436	0.07708
3928.48579	0.07645
3926.55723	0.07592
3924.62866	0.07622
3922.70010	0.07658
3920.77153	0.07621
3918.84297	0.07569
3916.91440	0.07566
3914.98584	0.07532
3913.05728	0.07442
3911.12871	0.07384
3909.20015	0.07381
3907.27158	0.07476
3905.34302	0.07714
3903.41445	0.07983
3901.48589	0.08088
3899.55732	0.07993
3897.62876	0.07769
3895.70020	0.07573
3893.77163	0.07548
3891.84307	0.07668
3889.91450	0.07735
3887.98594	0.07661
3886.05737	0.07641
3884.12881	0.07739
3882.20024	0.07823
3880.27168	0.07854
3878.34312	0.07760
3876.41455	0.07629
3874.48599	0.07712
3872.55742	0.07973
3870.62886	0.08207
3868.70029	0.08304
3866.77173	0.08222
3864.84316	0.08197
3862.91460	0.08271
3860.98604	0.08194
3859.05747	0.08060
3857.12891	0.08099
3855.20034	0.08347
3853.27178	0.08740
3851.34321	0.08892
3849.41465	0.08604
3847.48608	0.08296
3845.55752	0.08173
3843.62896	0.08303
3841.70039	0.08575
3839.77183	0.08828
3837.84326	0.09045
3835.91470	0.09111
3833.98613	0.08993
3832.05757	0.08860
3830.12900	0.08774
3828.20044	0.08755
3826.27187	0.08864
3824.34331	0.09046
3822.41475	0.09289
3820.48618	0.09652
3818.55762	0.09801
3816.62905	0.09728
3814.70049	0.09675
3812.77192	0.09534
3810.84336	0.09393
3808.91479	0.09425
3806.98623	0.09677
3805.05767	0.09969
3803.12910	0.10170
3801.20054	0.10435
3799.27197	0.10609
3797.34341	0.10592
3795.41484	0.10560
3793.48628	0.10490
3791.55771	0.10440
3789.62915	0.10476
3787.70059	0.10624
3785.77202	0.10910
3783.84346	0.11190
3781.91489	0.11316
3779.98633	0.11434
3778.05776	0.11598
3776.12920	0.11666
3774.20063	0.11736
3772.27207	0.11935
3770.34351	0.12270
3768.41494	0.12595
3766.48638	0.12747
3764.55781	0.12849
3762.62925	0.12990
3760.70068	0.13238
3758.77212	0.13609
3756.84355	0.13912
3754.91499	0.14124
3752.98643	0.14491
3751.05786	0.15179
3749.12930	0.15897
3747.20073	0.16103
3745.27217	0.16145
3743.34360	0.16407
3741.41504	0.16730
3739.48647	0.16998
3737.55791	0.17427
3735.62935	0.18160
3733.70078	0.18982
3731.77222	0.19425
3729.84365	0.19609
3727.91509	0.19860
3725.98652	0.20359
3724.05796	0.21024
3722.12939	0.21645
3720.20083	0.22195
3718.27227	0.22725
3716.34370	0.23331
3714.41514	0.24072
3712.48657	0.25107
3710.55801	0.26599
3708.62944	0.28056
3706.70088	0.29108
3704.77231	0.30105
3702.84375	0.31360
3700.91519	0.33061
3698.98662	0.34898
3697.05806	0.36582
3695.12949	0.38366
3693.20093	0.40331
3691.27236	0.42572
3689.34380	0.45468
3687.41523	0.48785
3685.48667	0.51538
3683.55811	0.53979
3681.62954	0.56727
3679.70098	0.59894
3677.77241	0.63303
3675.84385	0.67392
3673.91528	0.72770
3671.98672	0.77075
3670.05815	0.80906
3668.12959	0.86079
3666.20103	0.90680
3664.27246	0.94544
3662.34390	0.98784
3660.41533	1.03428
3658.48677	1.08067
3656.55820	1.13063
3654.62964	1.18642
3652.70107	1.23312
3650.77251	1.27420
3648.84395	1.33193
3646.91538	1.40149
3644.98682	1.45019
3643.05825	1.48721
3641.12969	1.52596
3639.20112	1.56994
3637.27256	1.61495
3635.34399	1.65824
3633.41543	1.70165
3631.48687	1.74348
3629.55830	1.78665
3627.62974	1.84224
3625.70117	1.89220
3623.77261	1.92515
3621.84404	1.95747
3619.91548	1.99584
3617.98691	2.04254
3616.05835	2.08594
3614.12979	2.12103
3612.20122	2.15776
3610.27266	2.19584
3608.34409	2.23718
3606.41553	2.28216
3604.48696	2.32160
3602.55840	2.35564
3600.62983	2.39389
3598.70127	2.43619
3596.77271	2.47683
3594.84414	2.51747
3592.91558	2.55888
3590.98701	2.59813
3589.05845	2.63505
3587.12988	2.67809
3585.20132	2.72516
3583.27275	2.76501
3581.34419	2.80174
3579.41562	2.84184
3577.48706	2.88481
3575.55850	2.92741
3573.62993	2.97058
3571.70137	3.01321
3569.77280	3.05358
3567.84424	3.09515
3565.91567	3.14627
3563.98711	3.19758
3562.05854	3.23916
3560.12998	3.27940
3558.20142	3.32263
3556.27285	3.36779
3554.34429	3.41300
3552.41572	3.45932
3550.48716	3.50580
3548.55859	3.55147
3546.63003	3.59804
3544.70146	3.64661
3542.77290	3.69457
3540.84434	3.74076
3538.91577	3.78581
3536.98721	3.82996
3535.05864	3.87599
3533.13008	3.92186
3531.20151	3.96753
3529.27295	4.01565
3527.34438	4.06561
3525.41582	4.11548
3523.48726	4.16871
3521.55869	4.22621
3519.63013	4.27710
3517.70156	4.32117
3515.77300	4.36551
3513.84443	4.40883
3511.91587	4.45120
3509.98730	4.49917
3508.05874	4.55219
3506.13018	4.60300
3504.20161	4.65240
3502.27305	4.70593
3500.34448	4.75827
3498.41592	4.80063
3496.48735	4.83748
3494.55879	4.87368
3492.63022	4.91354
3490.70166	4.96341
3488.77310	5.02231
3486.84453	5.08145
3484.91597	5.13179
3482.98740	5.17544
3481.05884	5.22433
3479.13027	5.27834
3477.20171	5.32748
3475.27314	5.37215
3473.34458	5.41278
3471.41602	5.44850
3469.48745	5.48699
3467.55889	5.53903
3465.63032	5.60357
3463.70176	5.66054
3461.77319	5.69769
3459.84463	5.72919
3457.91606	5.76657
3455.98750	5.80947
3454.05894	5.86373
3452.13037	5.93143
3450.20181	5.99243
3448.27324	6.03435
3446.34468	6.07104
3444.41611	6.11368
3442.48755	6.17085
3440.55898	6.23537
3438.63042	6.28833
3436.70186	6.32409
3434.77329	6.35751
3432.84473	6.39847
3430.91616	6.43913
3428.98760	6.49460
3427.05903	6.56413
3425.13047	6.62606
3423.20190	6.68738
3421.27334	6.76194
3419.34478	6.83178
3417.41621	6.87328
3415.48765	6.89612
3413.55908	6.92700
3411.63052	6.97861
3409.70195	7.03051
3407.77339	7.06917
3405.84482	7.10873
3403.91626	7.17339
3401.98770	7.23258
3400.05913	7.24947
3398.13057	7.25760
3396.20200	7.29063
3394.27344	7.34492
3392.34487	7.38409
3390.41631	7.40993
3388.48774	7.46509
3386.55918	7.55251
3384.63062	7.62559
3382.70205	7.68510
3380.77349	7.72817
3378.84492	7.72225
3376.91636	7.70131
3374.98779	7.71187
3373.05923	7.77449
3371.13066	7.82724
3369.20210	7.80216
3367.27354	7.74294
3365.34497	7.75095
3363.41641	7.81556
3361.48784	7.84802
3359.55928	7.86333
3357.63071	7.91363
3355.70215	7.99914
3353.77358	8.04137
3351.84502	7.99108
3349.91646	7.92505
3347.98789	7.95179
3346.05933	8.00827
3344.13076	7.98879
3342.20220	7.95772
3340.27363	7.97226
3338.34507	8.03526
3336.41650	8.10025
3334.48794	8.11817
3332.55937	8.06536
3330.63081	7.99638
3328.70225	7.95810
3326.77368	7.98570
3324.84512	8.10471
3322.91655	8.17370
3320.98799	8.15876
3319.05942	8.15776
3317.13086	8.12905
3315.20229	8.08782
3313.27373	8.15284
3311.34517	8.25439
3309.41660	8.24628
3307.48804	8.19285
3305.55947	8.15398
3303.63091	8.11146
3301.70234	8.11638
3299.77378	8.19427
3297.84521	8.21125
3295.91665	8.12409
3293.98809	8.03455
3292.05952	8.01532
3290.13096	8.05457
3288.20239	8.10662
3286.27383	8.15440
3284.34526	8.12878
3282.41670	8.07292
3280.48813	8.12446
3278.55957	8.27443
3276.63101	8.35102
3274.70244	8.35960
3272.77388	8.42159
3270.84531	8.40965
3268.91675	8.25934
3266.98818	8.15734
3265.05962	8.20427
3263.13105	8.26420
3261.20249	8.21918
3259.27393	8.15584
3257.34536	8.17133
3255.41680	8.24479
3253.48823	8.30016
3251.55967	8.34114
3249.63110	8.33203
3247.70254	8.26069
3245.77397	8.24408
3243.84541	8.26135
3241.91685	8.21942
3239.98828	8.20992
3238.05972	8.25962
3236.13115	8.26935
3234.20259	8.25398
3232.27402	8.26198
3230.34546	8.23985
3228.41689	8.17018
3226.48833	8.12816
3224.55977	8.13962
3222.63120	8.18383
3220.70264	8.20059
3218.77407	8.12995
3216.84551	8.02505
3214.91694	7.97448
3212.98838	7.97974
3211.05981	7.95805
3209.13125	7.87747
3207.20269	7.80686
3205.27412	7.78092
3203.34556	7.76164
3201.41699	7.72403
3199.48843	7.71406
3197.55986	7.75787
3195.63130	7.75191
3193.70273	7.64589
3191.77417	7.54696
3189.84561	7.52312
3187.91704	7.51946
3185.98848	7.45450
3184.05991	7.34512
3182.13135	7.25451
3180.20278	7.22262
3178.27422	7.21362
3176.34565	7.17508
3174.41709	7.11390
3172.48853	7.02057
3170.55996	6.90717
3168.63140	6.82922
3166.70283	6.78757
3164.77427	6.74648
3162.84570	6.70154
3160.91714	6.64380
3158.98857	6.56909
3157.06001	6.50103
3155.13145	6.44084
3153.20288	6.37442
3151.27432	6.30309
3149.34575	6.23668
3147.41719	6.18240
3145.48862	6.12812
3143.56006	6.05242
3141.63149	5.96356
3139.70293	5.89296
3137.77437	5.84920
3135.84580	5.79972
3133.91724	5.71973
3131.98867	5.62490
3130.06011	5.54066
3128.13154	5.47078
3126.20298	5.40375
3124.27441	5.33896
3122.34585	5.27314
3120.41729	5.20227
3118.48872	5.13558
3116.56016	5.07158
3114.63159	5.00226
3112.70303	4.93216
3110.77446	4.86483
3108.84590	4.79558
3106.91733	4.72323
3104.98877	4.65299
3103.06021	4.58805
3101.13164	4.52451
3099.20308	4.46132
3097.27451	4.39790
3095.34595	4.33042
3093.41738	4.26445
3091.48882	4.20479
3089.56025	4.14647
3087.63169	4.08524
3085.70312	4.02243
3083.77456	3.96136
3081.84600	3.90151
3079.91743	3.84135
3077.98887	3.78268
3076.06030	3.72586
3074.13174	3.66915
3072.20317	3.61181
3070.27461	3.55404
3068.34604	3.49743
3066.41748	3.44262
3064.48892	3.38878
3062.56035	3.33561
3060.63179	3.28310
3058.70322	3.23065
3056.77466	3.17752
3054.84609	3.12474
3052.91753	3.07400
3050.98896	3.02492
3049.06040	2.97585
3047.13184	2.92647
3045.20327	2.87750
3043.27471	2.82849
3041.34614	2.77966
3039.41758	2.73292
3037.48901	2.68840
3035.56045	2.64418
3033.63188	2.59980
3031.70332	2.55675
3029.77476	2.51458
3027.84619	2.47139
3025.91763	2.42798
3023.98906	2.38609
3022.06050	2.34545
3020.13193	2.30503
3018.20337	2.26477
3016.27480	2.22476
3014.34624	2.18483
3012.41768	2.14572
3010.48911	2.10872
3008.56055	2.07395
3006.63198	2.03960
3004.70342	2.00412
3002.77485	1.96866
3000.84629	1.93482
2998.91772	1.90207
2996.98916	1.87005
2995.06060	1.83921
2993.13203	1.80887
2991.20347	1.77886
2989.27490	1.74999
2987.34634	1.72190
2985.41777	1.69433
2983.48921	1.66768
2981.56064	1.64173
2979.63208	1.61617
2977.70352	1.59087
2975.77495	1.56601
2973.84639	1.54180
2971.91782	1.51809
2969.98926	1.49474
2968.06069	1.47163
2966.13213	1.44882
2964.20356	1.42665
2962.27500	1.40486
2960.34644	1.38267
2958.41787	1.35987
2956.48931	1.33682
2954.56074	1.31361
2952.63218	1.29038
2950.70361	1.26775
2948.77505	1.24594
2946.84648	1.22448
2944.91792	1.20313
2942.98936	1.18226
2941.06079	1.16253
2939.13223	1.14380
2937.20366	1.12492
2935.27510	1.10535
2933.34653	1.08559
2931.41797	1.06595
2929.48940	1.04635
2927.56084	1.02707
2925.63228	1.00843
2923.70371	0.99050
2921.77515	0.97317
2919.84658	0.95614
2917.91802	0.93925
2915.98945	0.92262
2914.06089	0.90610
2912.13232	0.88976
2910.20376	0.87419
2908.27520	0.85916
2906.34663	0.84397
2904.41807	0.82856
2902.48950	0.81364
2900.56094	0.79963
2898.63237	0.78632
2896.70381	0.77327
2894.77524	0.76033
2892.84668	0.74777
2890.91812	0.73579
2888.98955	0.72459
2887.06099	0.71409
2885.13242	0.70375
2883.20386	0.69348
2881.27529	0.68377
2879.34673	0.67448
2877.41816	0.66503
2875.48960	0.65554
2873.56104	0.64596
2871.63247	0.63571
2869.70391	0.62460
2867.77534	0.61290
2865.84678	0.60090
2863.91821	0.58889
2861.98965	0.57728
2860.06108	0.56628
2858.13252	0.55585
2856.20396	0.54578
2854.27539	0.53596
2852.34683	0.52657
2850.41826	0.51747
2848.48970	0.50862
2846.56113	0.50055
2844.63257	0.49323
2842.70400	0.48630
2840.77544	0.47957
2838.84687	0.47289
2836.91831	0.46631
2834.98975	0.45990
2833.06118	0.45378
2831.13262	0.44783
2829.20405	0.44170
2827.27549	0.43547
2825.34692	0.42937
2823.41836	0.42335
2821.48979	0.41740
2819.56123	0.41154
2817.63267	0.40563
2815.70410	0.39973
2813.77554	0.39409
2811.84697	0.38867
2809.91841	0.38324
2807.98984	0.37775
2806.06128	0.37230
2804.13271	0.36704
2802.20415	0.36204
2800.27559	0.35710
2798.34702	0.35218
2796.41846	0.34744
2794.48989	0.34278
2792.56133	0.33805
2790.63276	0.33338
2788.70420	0.32882
2786.77563	0.32432
2784.84707	0.31994
2782.91851	0.31572
2780.98994	0.31147
2779.06138	0.30725
2777.13281	0.30327
2775.20425	0.29945
2773.27568	0.29559
2771.34712	0.29170
2769.41855	0.28802
2767.48999	0.28448
2765.56143	0.28082
2763.63286	0.27716
2761.70430	0.27381
2759.77573	0.27067
2757.84717	0.26747
2755.91860	0.26424
2753.99004	0.26098
2752.06147	0.25767
2750.13291	0.25460
2748.20435	0.25187
2746.27578	0.24917
2744.34722	0.24629
2742.41865	0.24336
2740.49009	0.24055
2738.56152	0.23796
2736.63296	0.23553
2734.70439	0.23314
2732.77583	0.23069
2730.84727	0.22817
2728.91870	0.22566
2726.99014	0.22331
2725.06157	0.22112
2723.13301	0.21896
2721.20444	0.21678
2719.27588	0.21467
2717.34731	0.21268
2715.41875	0.21078
2713.49019	0.20889
2711.56162	0.20700
2709.63306	0.20515
2707.70449	0.20327
2705.77593	0.20144
2703.84736	0.19986
2701.91880	0.19833
2699.99023	0.19658
2698.06167	0.19478
2696.13311	0.19328
2694.20454	0.19198
2692.27598	0.19060
2690.34741	0.18914
2688.41885	0.18781
2686.49028	0.18668
2684.56172	0.18550
2682.63315	0.18418
2680.70459	0.18288
2678.77603	0.18172
2676.84746	0.18060
2674.91890	0.17948
2672.99033	0.17842
2671.06177	0.17735
2669.13320	0.17619
2667.20464	0.17511
2665.27607	0.17420
2663.34751	0.17325
2661.41895	0.17213
2659.49038	0.17104
2657.56182	0.17025
2655.63325	0.16961
2653.70469	0.16878
2651.77612	0.16782
2649.84756	0.16710
2647.91899	0.16658
2645.99043	0.16599
2644.06187	0.16526
2642.13330	0.16455
2640.20474	0.16390
2638.27617	0.16322
2636.34761	0.16260
2634.41904	0.16210
2632.49048	0.16160
2630.56191	0.16111
2628.63335	0.16073
2626.70479	0.16038
2624.77622	0.15993
2622.84766	0.15949
2620.91909	0.15915
2618.99053	0.15883
2617.06196	0.15847
2615.13340	0.15824
2613.20483	0.15812
2611.27627	0.15788
2609.34771	0.15754
2607.41914	0.15733
2605.49058	0.15727
2603.56201	0.15722
2601.63345	0.15711
2599.70488	0.15694
2597.77632	0.15684
2595.84775	0.15691
2593.91919	0.15696
2591.99062	0.15691
2590.06206	0.15690
2588.13350	0.15699
2586.20493	0.15714
2584.27637	0.15724
2582.34780	0.15728
2580.41924	0.15735
2578.49067	0.15748
2576.56211	0.15776
2574.63354	0.15821
2572.70498	0.15864
2570.77642	0.15889
2568.84785	0.15903
2566.91929	0.15926
2564.99072	0.15952
2563.06216	0.15974
2561.13359	0.16007
2559.20503	0.16057
2557.27646	0.16107
2555.34790	0.16155
2553.41934	0.16209
2551.49077	0.16253
2549.56221	0.16276
2547.63364	0.16303
2545.70508	0.16358
2543.77651	0.16425
2541.84795	0.16480
2539.91938	0.16522
2537.99082	0.16569
2536.06226	0.16624
2534.13369	0.16686
2532.20513	0.16751
2530.27656	0.16812
2528.34800	0.16876
2526.41943	0.16943
2524.49087	0.16996
2522.56230	0.17053
2520.63374	0.17124
2518.70518	0.17185
2516.77661	0.17244
2514.84805	0.17326
2512.91948	0.17413
2510.99092	0.17478
2509.06235	0.17540
2507.13379	0.17619
2505.20522	0.17694
2503.27666	0.17768
2501.34810	0.17848
2499.41953	0.17927
2497.49097	0.17992
2495.56240	0.18050
2493.63384	0.18124
2491.70527	0.18212
2489.77671	0.18299
2487.84814	0.18370
2485.91958	0.18439
2483.99102	0.18524
2482.06245	0.18612
2480.13389	0.18687
2478.20532	0.18763
2476.27676	0.18851
2474.34819	0.18936
2472.41963	0.19011
2470.49106	0.19095
2468.56250	0.19186
2466.63394	0.19269
2464.70537	0.19349
2462.77681	0.19436
2460.84824	0.19524
2458.91968	0.19605
2456.99111	0.19693
2455.06255	0.19789
2453.13398	0.19876
2451.20542	0.19957
2449.27686	0.20037
2447.34829	0.20120
2445.41973	0.20216
2443.49116	0.20325
2441.56260	0.20435
2439.63403	0.20528
2437.70547	0.20609
2435.77690	0.20697
2433.84834	0.20798
2431.91978	0.20909
2429.99121	0.21013
2428.06265	0.21097
2426.13408	0.21180
2424.20552	0.21277
2422.27695	0.21372
2420.34839	0.21463
2418.41982	0.21569
2416.49126	0.21684
2414.56270	0.21783
2412.63413	0.21882
2410.70557	0.22003
2408.77700	0.22135
2406.84844	0.22255
2404.91987	0.22363
2402.99131	0.22465
2401.06274	0.22573
2399.13418	0.22696
2397.20562	0.22829
2395.27705	0.22959
2393.34849	0.23079
2391.41992	0.23197
2389.49136	0.23344
2387.56279	0.23543
2385.63423	0.23817
2383.70566	0.24195
2381.77710	0.24676
2379.84854	0.25239
2377.91997	0.25881
2375.99141	0.26643
2374.06284	0.27571
2372.13428	0.28622
2370.20571	0.29755
2368.27715	0.31001
2366.34858	0.32324
2364.42002	0.33528
2362.49146	0.34403
2360.56289	0.34971
2358.63433	0.35275
2356.70576	0.34995
2354.77720	0.33971
2352.84863	0.32632
2350.92007	0.31401
2348.99150	0.30688
2347.06294	0.30669
2345.13437	0.31385
2343.20581	0.32534
2341.27725	0.33271
2339.34868	0.33402
2337.42012	0.33379
2335.49155	0.33420
2333.56299	0.33453
2331.63442	0.33478
2329.70586	0.33492
2327.77729	0.33403
2325.84873	0.33174
2323.92017	0.32875
2321.99160	0.32587
2320.06304	0.32350
2318.13447	0.32130
2316.20591	0.31913
2314.27734	0.31773
2312.34878	0.31736
2310.42021	0.31726
2308.49165	0.31671
2306.56309	0.31559
2304.63452	0.31436
2302.70596	0.31387
2300.77739	0.31433
2298.84883	0.31504
2296.92026	0.31561
2294.99170	0.31615
2293.06313	0.31675
2291.13457	0.31741
2289.20601	0.31811
2287.27744	0.31890
2285.34888	0.31989
2283.42031	0.32119
2281.49175	0.32286
2279.56318	0.32481
2277.63462	0.32680
2275.70605	0.32881
2273.77749	0.33091
2271.84893	0.33305
2269.92036	0.33521
2267.99180	0.33732
2266.06323	0.33934
2264.13467	0.34127
2262.20610	0.34309
2260.27754	0.34481
2258.34897	0.34660
2256.42041	0.34858
2254.49185	0.35066
2252.56328	0.35272
2250.63472	0.35467
2248.70615	0.35650
2246.77759	0.35847
2244.84902	0.36062
2242.92046	0.36265
2240.99189	0.36460
2239.06333	0.36671
2237.13477	0.36897
2235.20620	0.37130
2233.27764	0.37353
2231.34907	0.37559
2229.42051	0.37767
2227.49194	0.37985
2225.56338	0.38194
2223.63481	0.38402
2221.70625	0.38620
2219.77769	0.38844
2217.84912	0.39066
2215.92056	0.39279
2213.99199	0.39481
2212.06343	0.39687
2210.13486	0.39894
2208.20630	0.40100
2206.27773	0.40304
2204.34917	0.40506
2202.42061	0.40711
2200.49204	0.40911
2198.56348	0.41105
2196.63491	0.41295
2194.70635	0.41484
2192.77778	0.41678
2190.84922	0.41870
2188.92065	0.42050
2186.99209	0.42223
2185.06353	0.42403
2183.13496	0.42578
2181.20640	0.42729
2179.27783	0.42870
2177.34927	0.43026
2175.42070	0.43195
2173.49214	0.43364
2171.56357	0.43520
2169.63501	0.43665
2167.70645	0.43801
2165.77788	0.43926
2163.84932	0.44040
2161.92075	0.44148
2159.99219	0.44260
2158.06362	0.44361
2156.13506	0.44437
2154.20649	0.44506
2152.27793	0.44587
2150.34937	0.44666
2148.42080	0.44735
2146.49224	0.44798
2144.56367	0.44851
2142.63511	0.44894
2140.70654	0.44932
2138.77798	0.44965
2136.84941	0.44990
2134.92085	0.45008
2132.99229	0.45014
2131.06372	0.45005
2129.13516	0.44979
2127.20659	0.44952
2125.27803	0.44938
2123.34946	0.44911
2121.42090	0.44858
2119.49233	0.44800
2117.56377	0.44748
2115.63521	0.44693
2113.70664	0.44626
2111.77808	0.44543
2109.84951	0.44452
2107.92095	0.44359
2105.99238	0.44253
2104.06382	0.44136
2102.13525	0.44014
2100.20669	0.43883
2098.27812	0.43747
2096.34956	0.43606
2094.42100	0.43452
2092.49243	0.43296
2090.56387	0.43147
2088.63530	0.42987
2086.70674	0.42812
2084.77817	0.42639
2082.84961	0.42465
2080.92104	0.42271
2078.99248	0.42068
2077.06392	0.41872
2075.13535	0.41672
2073.20679	0.41457
2071.27822	0.41239
2069.34966	0.41023
2067.42109	0.40802
2065.49253	0.40578
2063.56396	0.40351
2061.63540	0.40111
2059.70684	0.39861
2057.77827	0.39617
2055.84971	0.39376
2053.92114	0.39121
2051.99258	0.38860
2050.06401	0.38602
2048.13545	0.38347
2046.20688	0.38093
2044.27832	0.37842
2042.34976	0.37585
2040.42119	0.37313
2038.49263	0.37036
2036.56406	0.36763
2034.63550	0.36494
2032.70693	0.36226
2030.77837	0.35963
2028.84980	0.35699
2026.92124	0.35434
2024.99268	0.35169
2023.06411	0.34895
2021.13555	0.34613
2019.20698	0.34344
2017.27842	0.34089
2015.34985	0.33816
2013.42129	0.33531
2011.49272	0.33258
2009.56416	0.33000
2007.63560	0.32741
2005.70703	0.32470
2003.77847	0.32196
2001.84990	0.31934
1999.92134	0.31685
1997.99277	0.31434
1996.06421	0.31186
1994.13564	0.30967
1992.20708	0.30761
1990.27852	0.30517
1988.34995	0.30248
1986.42139	0.29984
1984.49282	0.29728
1982.56426	0.29483
1980.63569	0.29250
1978.70713	0.29028
1976.77856	0.28810
1974.85000	0.28598
1972.92144	0.28393
1970.99287	0.28188
1969.06431	0.27993
1967.13574	0.27818
1965.20718	0.27622
1963.27861	0.27405
1961.35005	0.27202
1959.42148	0.27016
1957.49292	0.26840
1955.56436	0.26672
1953.63579	0.26498
1951.70723	0.26317
1949.77866	0.26141
1947.85010	0.25982
1945.92153	0.25859
1943.99297	0.25760
1942.06440	0.25631
1940.13584	0.25442
1938.20728	0.25256
1936.27871	0.25110
1934.35015	0.24981
1932.42158	0.24856
1930.49302	0.24735
1928.56445	0.24624
1926.63589	0.24524
1924.70732	0.24448
1922.77876	0.24384
1920.85020	0.24297
1918.92163	0.24204
1916.99307	0.24111
1915.06450	0.23996
1913.13594	0.23887
1911.20737	0.23820
1909.27881	0.23771
1907.35024	0.23704
1905.42168	0.23623
1903.49312	0.23558
1901.56455	0.23505
1899.63599	0.23455
1897.70742	0.23416
1895.77886	0.23389
1893.85029	0.23354
1891.92173	0.23320
1889.99316	0.23318
1888.06460	0.23293
1886.13604	0.23232
1884.20747	0.23190
1882.27891	0.23169
1880.35034	0.23151
1878.42178	0.23139
1876.49321	0.23136
1874.56465	0.23138
1872.63608	0.23164
1870.70752	0.23240
1868.77896	0.23358
1866.85039	0.23392
1864.92183	0.23318
1862.99326	0.23256
1861.06470	0.23250
1859.13613	0.23285
1857.20757	0.23326
1855.27900	0.23367
1853.35044	0.23406
1851.42187	0.23456
1849.49331	0.23530
1847.56475	0.23633
1845.63618	0.23765
1843.70762	0.23891
1841.77905	0.23923
1839.85049	0.23918
1837.92192	0.23981
1835.99336	0.24062
1834.06479	0.24138
1832.13623	0.24268
1830.20767	0.24480
1828.27910	0.24649
1826.35054	0.24728
1824.42197	0.24824
1822.49341	0.24908
1820.56484	0.24990
1818.63628	0.25111
1816.70771	0.25273
1814.77915	0.25445
1812.85059	0.25645
1810.92202	0.25879
1808.99346	0.26082
1807.06489	0.26243
1805.13633	0.26412
1803.20776	0.26652
1801.27920	0.26945
1799.35063	0.27237
1797.42207	0.27473
1795.49351	0.27714
1793.56494	0.28027
1791.63638	0.28418
1789.70781	0.28719
1787.77925	0.28907
1785.85068	0.29175
1783.92212	0.29535
1781.99355	0.29942
1780.06499	0.30367
1778.13643	0.30773
1776.20786	0.31165
1774.27930	0.31641
1772.35073	0.32293
1770.42217	0.32919
1768.49360	0.33370
1766.56504	0.33805
1764.63647	0.34297
1762.70791	0.34891
1760.77935	0.35641
1758.85078	0.36320
1756.92222	0.37016
1754.99365	0.37777
1753.06509	0.38470
1751.13652	0.39326
1749.20796	0.40411
1747.27939	0.41434
1745.35083	0.42290
1743.42227	0.43208
1741.49370	0.44247
1739.56514	0.45474
1737.63657	0.46695
1735.70801	0.47801
1733.77944	0.49495
1731.85088	0.51420
1729.92231	0.52857
1727.99375	0.54314
1726.06519	0.55915
1724.13662	0.57720
1722.20806	0.59709
1720.27949	0.61573
1718.35093	0.63811
1716.42236	0.67089
1714.49380	0.70052
1712.56523	0.72373
1710.63667	0.74675
1708.70811	0.77235
1706.77954	0.80209
1704.85098	0.83771
1702.92241	0.86930
1700.99385	0.90097
1699.06528	0.94851
1697.13672	0.99226
1695.20815	1.03718
1693.27959	1.08035
1691.35103	1.11560
1689.42246	1.15773
1687.49390	1.20301
1685.56533	1.24703
1683.63677	1.31499
1681.70820	1.38438
1679.77964	1.42774
1677.85107	1.46932
1675.92251	1.51800
1673.99395	1.57925
1672.06538	1.63463
1670.13682	1.68999
1668.20825	1.76241
1666.27969	1.82134
1664.35112	1.87177
1662.42256	1.93684
1660.49399	2.01197
1658.56543	2.07098
1656.63687	2.11757
1654.70830	2.15978
1652.77974	2.22486
1650.85117	2.28298
1648.92261	2.30217
1646.99404	2.32508
1645.06548	2.34512
1643.13691	2.35689
1641.20835	2.36309
1639.27979	2.36973
1637.35122	2.37375
1635.42266	2.36926
1633.49409	2.35562
1631.56553	2.33860
1629.63696	2.32076
1627.70840	2.29219
1625.77983	2.25605
1623.85127	2.20836
1621.92271	2.15095
1619.99414	2.10113
1618.06558	2.05353
1616.13701	1.98582
1614.20845	1.91645
1612.27988	1.86365
1610.35132	1.80903
1608.42275	1.75019
1606.49419	1.69290
1604.56562	1.64091
1602.63706	1.59111
1600.70850	1.54243
1598.77993	1.49777
1596.85137	1.45639
1594.92280	1.41651
1592.99424	1.37812
1591.06567	1.34342
1589.13711	1.31154
1587.20854	1.28220
1585.27998	1.25559
1583.35142	1.23168
1581.42285	1.21070
1579.49429	1.19343
1577.56572	1.17881
1575.63716	1.16131
1573.70859	1.14551
1571.78003	1.13593
1569.85146	1.12783
1567.92290	1.11943
1565.99434	1.11384
1564.06577	1.11159
1562.13721	1.11130
1560.20864	1.11407
1558.28008	1.12427
1556.35151	1.13251
1554.42295	1.13612
1552.49438	1.14052
1550.56582	1.14356
1548.63726	1.14309
1546.70869	1.13898
1544.78013	1.13172
1542.85156	1.12126
1540.92300	1.10337
1538.99443	1.07002
1537.06587	1.04365
1535.13730	1.02650
1533.20874	1.00416
1531.28018	0.97925
1529.35161	0.96112
1527.42305	0.94490
1525.49448	0.92842
1523.56592	0.91457
1521.63735	0.90141
1519.70879	0.88774
1517.78022	0.87624
1515.85166	0.86257
1513.92310	0.84777
1511.99453	0.83516
1510.06597	0.82429
1508.13740	0.81415
1506.20884	0.79666
1504.28027	0.77975
1502.35171	0.77054
1500.42314	0.76343
1498.49458	0.75641
1496.56602	0.74757
1494.63745	0.73783
1492.70889	0.73052
1490.78032	0.72489
1488.85176	0.71865
1486.92319	0.71201
1484.99463	0.70635
1483.06606	0.70226
1481.13750	0.69935
1479.20894	0.69734
1477.28037	0.69677
1475.35181	0.69777
1473.42324	0.69940
1471.49468	0.69934
1469.56611	0.69719
1467.63755	0.69503
1465.70898	0.69373
1463.78042	0.69304
1461.85186	0.69288
1459.92329	0.69386
1457.99473	0.69631
1456.06616	0.69758
1454.13760	0.69499
1452.20903	0.69181
1450.28047	0.68913
1448.35190	0.68666
1446.42334	0.68374
1444.49478	0.68081
1442.56621	0.67820
1440.63765	0.67561
1438.70908	0.67302
1436.78052	0.66960
1434.85195	0.66509
1432.92339	0.66155
1430.99482	0.65955
1429.06626	0.65858
1427.13770	0.65840
1425.20913	0.65922
1423.28057	0.66071
1421.35200	0.66203
1419.42344	0.66333
1417.49487	0.66370
1415.56631	0.66250
1413.63774	0.66166
1411.70918	0.66199
1409.78062	0.66329
1407.85205	0.66525
1405.92349	0.66783
1403.99492	0.67025
1402.06636	0.67131
1400.13779	0.67118
1398.20923	0.66986
1396.28066	0.66712
1394.35210	0.66284
1392.42354	0.65749
1390.49497	0.65256
1388.56641	0.64800
1386.63784	0.64253
1384.70928	0.63635
1382.78071	0.63049
1380.85215	0.62514
1378.92358	0.62072
1376.99502	0.61768
1375.06646	0.61582
1373.13789	0.61424
1371.20933	0.61283
1369.28076	0.61193
1367.35220	0.61087
1365.42363	0.60947
1363.49507	0.60830
1361.56650	0.60684
1359.63794	0.60467
1357.70937	0.60273
1355.78081	0.60138
1353.85225	0.60037
1351.92368	0.59954
1349.99512	0.59879
1348.06655	0.59793
1346.13799	0.59694
1344.20942	0.59606
1342.28086	0.59551
1340.35229	0.59533
1338.42373	0.59490
1336.49517	0.59402
1334.56660	0.59338
1332.63804	0.59335
1330.70947	0.59376
1328.78091	0.59442
1326.85234	0.59528
1324.92378	0.59625
1322.99521	0.59728
1321.06665	0.59842
1319.13809	0.59962
1317.20952	0.60045
1315.28096	0.60066
1313.35239	0.60039
1311.42383	0.59986
1309.49526	0.59921
1307.56670	0.59852
1305.63813	0.59807
1303.70957	0.59783
1301.78101	0.59727
1299.85244	0.59615
1297.92388	0.59484
1295.99531	0.59359
1294.06675	0.59229
1292.13818	0.59092
1290.20962	0.58958
1288.28105	0.58829
1286.35249	0.58703
1284.42393	0.58556
1282.49536	0.58379
1280.56680	0.58208
1278.63823	0.58058
1276.70967	0.57915
1274.78110	0.57790
1272.85254	0.57692
1270.92397	0.57614
1268.99541	0.57538
1267.06685	0.57449
1265.13828	0.57352
1263.20972	0.57271
1261.28115	0.57198
1259.35259	0.57113
1257.42402	0.57031
1255.49546	0.56971
1253.56689	0.56940
1251.63833	0.56939
1249.70977	0.56957
1247.78120	0.56968
1245.85264	0.56949
1243.92407	0.56888
1241.99551	0.56784
1240.06694	0.56634
1238.13838	0.56436
1236.20981	0.56199
1234.28125	0.55941
1232.35269	0.55679
1230.42412	0.55427
1228.49556	0.55179
1226.56699	0.54934
1224.63843	0.54707
1222.70986	0.54498
1220.78130	0.54309
1218.85273	0.54142
1216.92417	0.53995
1214.99561	0.53875
1213.06704	0.53777
1211.13848	0.53697
1209.20991	0.53633
1207.28135	0.53568
1205.35278	0.53474
1203.42422	0.53358
1201.49565	0.53242
1199.56709	0.53141
1197.63853	0.53054
1195.70996	0.52969
1193.78140	0.52884
1191.85283	0.52814
1189.92427	0.52768
1187.99570	0.52736
1186.06714	0.52713
1184.13857	0.52714
1182.21001	0.52764
1180.28145	0.52875
1178.35288	0.53019
1176.42432	0.53167
1174.49575	0.53311
1172.56719	0.53429
1170.63862	0.53490
1168.71006	0.53504
1166.78149	0.53510
1164.85293	0.53524
1162.92437	0.53536
1160.99580	0.53531
1159.06724	0.53509
1157.13867	0.53468
1155.21011	0.53395
1153.28154	0.53281
1151.35298	0.53121
1149.42441	0.52905
1147.49585	0.52644
1145.56729	0.52360
1143.63872	0.52088
1141.71016	0.51871
1139.78159	0.51712
1137.85303	0.51602
1135.92446	0.51543
1133.99590	0.51535
1132.06733	0.51562
1130.13877	0.51606
1128.21021	0.51631
1126.28164	0.51602
1124.35308	0.51541
1122.42451	0.51514
1120.49595	0.51541
1118.56738	0.51600
1116.63882	0.51690
1114.71025	0.51793
1112.78169	0.51871
1110.85312	0.51944
1108.92456	0.52028
1106.99600	0.52108
1105.06743	0.52190
1103.13887	0.52286
1101.21030	0.52384
1099.28174	0.52500
1097.35317	0.52674
1095.42461	0.52933
1093.49604	0.53283
1091.56748	0.53748
1089.63892	0.54364
1087.71035	0.55133
1085.78179	0.55997
1083.85322	0.56863
1081.92466	0.57634
1079.99609	0.58210
1078.06753	0.58486
1076.13896	0.58421
1074.21040	0.58060
1072.28184	0.57456
1070.35327	0.56699
1068.42471	0.55950
1066.49614	0.55284
1064.56758	0.54664
1062.63901	0.54088
1060.71045	0.53605
1058.78188	0.53204
1056.85332	0.52823
1054.92476	0.52467
1052.99619	0.52166
1051.06763	0.51929
1049.13906	0.51752
1047.21050	0.51609
1045.28193	0.51517
1043.35337	0.51497
1041.42480	0.51521
1039.49624	0.51545
1037.56768	0.51540
1035.63911	0.51511
1033.71055	0.51463
1031.78198	0.51365
1029.85342	0.51186
1027.92485	0.50959
1025.99629	0.50755
1024.06772	0.50615
1022.13916	0.50518
1020.21060	0.50430
1018.28203	0.50351
1016.35347	0.50302
1014.42490	0.50271
1012.49634	0.50221
1010.56777	0.50165
1008.63921	0.50150
1006.71064	0.50175
1004.78208	0.50239
1002.85352	0.50377
1000.92495	0.50612
998.99639	0.50934
997.06782	0.51336
995.13926	0.51781
993.21069	0.52203
991.28213	0.52546
989.35356	0.52768
987.42500	0.52847
985.49644	0.52822
983.56787	0.52774
981.63931	0.52757
979.71074	0.52797
977.78218	0.52896
975.85361	0.53040
973.92505	0.53234
971.99648	0.53478
970.06792	0.53769
968.13936	0.54121
966.21079	0.54524
964.28223	0.54950
962.35366	0.55409
960.42510	0.55918
958.49653	0.56461
956.56797	0.56997
954.63940	0.57526
952.71084	0.58095
950.78228	0.58714
948.85371	0.59341
946.92515	0.59962
944.99658	0.60590
943.06802	0.61216
941.13945	0.61821
939.21089	0.62402
937.28232	0.62958
935.35376	0.63513
933.42520	0.64107
931.49663	0.64711
929.56807	0.65273
927.63950	0.65820
925.71094	0.66386
923.78237	0.66976
921.85381	0.67623
919.92524	0.68343
917.99668	0.69050
916.06812	0.69684
914.13955	0.70358
912.21099	0.71174
910.28242	0.72037
908.35386	0.72825
906.42529	0.73551
904.49673	0.74284
902.56816	0.75103
900.63960	0.76101
898.71104	0.77251
896.78247	0.78374
894.85391	0.79351
892.92534	0.80235
890.99678	0.81176
889.06821	0.82254
887.13965	0.83395
885.21108	0.84519
883.28252	0.85557
881.35396	0.86551
879.42539	0.87686
877.49683	0.88976
875.56826	0.90228
873.63970	0.91302
871.71113	0.92365
869.78257	0.93515
867.85400	0.94561
865.92544	0.95622
863.99687	0.96896
862.06831	0.98136
860.13975	0.99229
858.21118	1.00450
856.28262	1.01707
854.35405	1.02714
852.42549	1.03671
850.49692	1.04793
848.56836	1.06067
846.63979	1.07446
844.71123	1.08829
842.78267	1.10010
840.85410	1.10981
838.92554	1.12100
836.99697	1.13416
835.06841	1.14684
833.13984	1.16016
831.21128	1.17463
829.28271	1.18812
827.35415	1.19945
825.42559	1.20923
823.49702	1.22018
821.56846	1.23278
819.63989	1.24141
817.71133	1.24638
815.78276	1.26041
813.85420	1.28142
811.92563	1.29304
809.99707	1.30222
808.06851	1.32030
806.13994	1.32949
804.21138	1.31794
802.28281	1.31254
800.35425	1.33329
798.42568	1.37348
796.49712	1.40869
794.56855	1.42384
792.63999	1.43576
790.71143	1.42773
788.78286	1.39832
786.85430	1.39749
784.92573	1.41450
782.99717	1.40225
781.06860	1.38135
779.14004	1.40095
777.21147	1.47341
775.28291	1.52161
773.35435	1.47463
771.42578	1.44802
769.49722	1.50321
767.56865	1.53788
765.64009	1.48423
763.71152	1.49237
761.78296	1.58430
759.85439	1.55504
757.92583	1.44960
755.99727	1.38828
754.06870	1.31482
752.14014	1.22607
750.21157	1.14929
748.28301	1.12315
746.35444	1.16249
744.42588	1.19297
742.49731	1.18464
740.56875	1.17207
738.64019	1.09999
736.71162	0.96899
734.78306	0.89909
732.85449	0.89501
730.92593	0.80386
728.99736	0.60964
727.06880	0.49758
725.14023	0.52945
723.21167	0.64454
721.28311	0.43359
719.35454	-0.12193
717.42598	-0.12160
715.49741	-0.34200
713.56885	-0.15766
711.64028	-0.03386
709.71172	0.08596
707.78315	0.25310
705.85459	0.51969
703.92603	0.95937
701.99746	0.82165
700.06890	0.62671
698.14033	0.59684
696.21177	0.57903
694.28320	0.44773
692.35464	0.33809
690.42607	0.29382
688.49751	0.29173
686.56895	0.41344
684.64038	0.75831
682.71182	4.09627
680.78325	4.08470
678.85469	1.61098
676.92612	0.65167
674.99756	0.57741
673.06899	0.64102
671.14043	0.58996
669.21187	0.41594
667.28330	0.35519
665.35474	0.41952
663.42617	0.52282
661.49761	0.52702
659.56904	0.46239
657.64048	0.45086
655.71191	0.51282
653.78335	0.46774
651.85479	0.35569
649.92622	0.38329
647.99766	0.53564
646.06909	0.49653
644.14053	0.33300
642.21196	0.31226
640.28340	0.42215
638.35483	0.57181
636.42627	0.53170
634.49771	0.38254
632.56914	0.31512
630.64058	0.30149
628.71201	0.32539
626.78345	0.44163
624.85488	0.66249
622.92632	0.69237
620.99775	0.42118
619.06919	0.27442
617.14062	0.27473
615.21206	0.39213
613.28350	0.60359
611.35493	0.63686
609.42637	0.41919
607.49780	0.29824
605.56924	0.25583
603.64067	0.27629
601.71211	0.39712
599.78354	0.58704
597.85498	0.53964
595.92642	0.36014
593.99785	0.30999
592.06929	0.35997
590.14072	0.38938
588.21216	0.38437
586.28359	0.50413
584.35503	0.65443
582.42646	0.35200
580.49790	0.16550
578.56934	0.12065
576.64077	0.18285
574.71221	0.27890
572.78364	0.26576
570.85508	0.27377
568.92651	0.42203
566.99795	0.74959
565.06938	0.76992
563.14082	0.52433
561.21226	0.45649
559.28369	0.42210
557.35513	0.36148
555.42656	0.36646
553.49800	0.47463
551.56943	0.67619
549.64087	0.78729
547.71230	0.53204
545.78374	0.41369
543.85518	0.39694
541.92661	0.35647
539.99805	0.33613
538.06948	0.33799
536.14092	0.31526
534.21235	0.31867
532.28379	0.34960
530.35522	0.29038
528.42666	0.18230
526.49810	0.16102
524.56953	0.22116
522.64097	0.29225
520.71240	0.30731
518.78384	0.28010
516.85527	0.24153
514.92671	0.21134
512.99814	0.22266
511.06958	0.26422
509.14102	0.29771
507.21245	0.29905
505.28389	0.27619
503.35532	0.29663
501.42676	0.36938
499.49819	0.43951
