3997.91411	0.07305
3995.98555	0.07380
3994.05698	0.07479
3992.12842	0.07528
3990.19985	0.07547
3988.27129	0.07555
3986.34272	0.07543
3984.41416	0.07560
3982.48560	0.07620
3980.55703	0.07661
3978.62847	0.07674
3976.69990	0.07728
3974.77134	0.07815
3972.84277	0.07870
3970.91421	0.07894
3968.98564	0.07894
3967.05708	0.07838
3965.12852	0.07772
3963.19995	0.07824
3961.27139	0.07944
3959.34282	0.07977
3957.41426	0.07963
3955.48569	0.07977
3953.55713	0.07993
3951.62856	0.08078
3949.70000	0.08305
3947.77144	0.08472
3945.84287	0.08416
3943.91431	0.08410
3941.98574	0.08513
3940.05718	0.08390
3938.12861	0.08110
3936.20005	0.07986
3934.27148	0.08138
3932.34292	0.08498
3930.41436	0.08718
3928.48579	0.08573
3926.55723	0.08430
3924.62866	0.08573
3922.70010	0.08680
3920.77153	0.08560
3918.84297	0.08560
3916.91440	0.08702
3914.98584	0.08546
3913.05728	0.08110
3911.12871	0.07813
3909.20015	0.07804
3907.27158	0.08126
3905.34302	0.08868
3903.41445	0.09790
3901.48589	0.10276
3899.55732	0.10137
3897.62876	0.09525
3895.70020	0.08844
3893.77163	0.08693
3891.84307	0.09066
3889.91450	0.09201
3887.98594	0.08959
3886.05737	0.09099
3884.12881	0.09501
3882.20024	0.09645
3880.27168	0.09663
3878.34312	0.09320
3876.41455	0.08902
3874.48599	0.09150
3872.55742	0.09816
3870.62886	0.10341
3868.70029	0.10446
3866.77173	0.10139
3864.84316	0.10103
3862.91460	0.10237
3860.98604	0.09850
3859.05747	0.09381
3857.12891	0.09515
3855.20034	0.10357
3853.27178	0.11698
3851.34321	0.11900
3849.41465	0.10538
3847.48608	0.09462
3845.55752	0.09199
3843.62896	0.09656
3841.70039	0.10484
3839.77183	0.11323
3837.84326	0.11848
3835.91470	0.11664
3833.98613	0.11110
3832.05757	0.10672
3830.12900	0.10337
3828.20044	0.10204
3826.27187	0.10389
3824.34331	0.10706
3822.41475	0.11301
3820.48618	0.12236
3818.55762	0.12479
3816.62905	0.12122
3814.70049	0.11611
3812.77192	0.10787
3810.84336	0.10268
3808.91479	0.10466
3806.98623	0.11219
3805.05767	0.11882
3803.12910	0.12358
3801.20054	0.13015
3799.27197	0.13138
3797.34341	0.12689
3795.41484	0.12261
3793.48628	0.11722
3791.55771	0.11294
3789.62915	0.11222
3787.70059	0.11428
3785.77202	0.11838
3783.84346	0.12243
3781.91489	0.12460
3779.98633	0.12758
3778.05776	0.13031
3776.12920	0.12863
3774.20063	0.12674
3772.27207	0.12946
3770.34351	0.13637
3768.41494	0.14239
3766.48638	0.14400
3764.55781	0.14389
3762.62925	0.14417
3760.70068	0.14793
3758.77212	0.15547
3756.84355	0.16065
3754.91499	0.16316
3752.98643	0.17055
3751.05786	0.18513
3749.12930	0.19541
3747.20073	0.19434
3745.27217	0.19417
3743.34360	0.19674
3741.41504	0.19642
3739.48647	0.19747
3737.55791	0.20530
3735.62935	0.22057
3733.70078	0.23289
3731.77222	0.23111
3729.84365	0.22503
3727.91509	0.22499
3725.98652	0.23202
3724.05796	0.24061
3722.12939	0.24595
3720.20083	0.24877
3718.27227	0.25024
3716.34370	0.25257
3714.41514	0.25997
3712.48657	0.27694
3710.55801	0.30040
3708.62944	0.31411
3706.70088	0.31789
3704.77231	0.32439
3702.84375	0.33806
3700.91519	0.35665
3698.98662	0.37338
3697.05806	0.38842
3695.12949	0.40678
3693.20093	0.42931
3691.27236	0.45786
3689.34380	0.49336
3687.41523	0.52537
3685.48667	0.54613
3683.55811	0.56603
3681.62954	0.59324
3679.70098	0.62890
3677.77241	0.67041
3675.84385	0.71998
3673.91528	0.77583
3671.98672	0.81490
3670.05815	0.85264
3668.12959	0.90238
3666.20103	0.94177
3664.27246	0.97614
3662.34390	1.01838
3660.41533	1.06690
3658.48677	1.11652
3656.55820	1.17028
3654.62964	1.22802
3652.70107	1.27690
3650.77251	1.32631
3648.84395	1.39593
3646.91538	1.46519
3644.98682	1.50376
3643.05825	1.53358
3641.12969	1.56998
3639.20112	1.61368
3637.27256	1.65896
3635.34399	1.70429
3633.41543	1.75132
3631.48687	1.79728
3629.55830	1.84610
3627.62974	1.90436
3625.70117	1.94884
3623.77261	1.97680
3621.84404	2.00899
3619.91548	2.05086
3617.98691	2.09994
3616.05835	2.14244
3614.12979	2.17768
3612.20122	2.21631
3610.27266	2.25522
3608.34409	2.29599
3606.41553	2.33827
3604.48696	2.37355
3602.55840	2.40629
3600.62983	2.44642
3598.70127	2.49079
3596.77271	2.53228
3594.84414	2.57350
3592.91558	2.61454
3590.98701	2.65129
3589.05845	2.68795
3587.12988	2.73473
3585.20132	2.78205
3583.27275	2.81740
3581.34419	2.85028
3579.41562	2.88919
3577.48706	2.93324
3575.55850	2.97716
3573.62993	3.01978
3571.70137	3.06136
3569.77280	3.10531
3567.84424	3.15692
3565.91567	3.21566
3563.98711	3.26395
3562.05854	3.29934
3560.12998	3.33503
3558.20142	3.37534
3556.27285	3.41937
3554.34429	3.46531
3552.41572	3.51382
3550.48716	3.56177
3548.55859	3.60691
3546.63003	3.65335
3544.70146	3.70307
3542.77290	3.75049
3540.84434	3.79530
3538.91577	3.84181
3536.98721	3.88844
3535.05864	3.93542
3533.13008	3.98326
3531.20151	4.03306
3529.27295	4.08445
3527.34438	4.13508
3525.41582	4.18213
3523.48726	4.22601
3521.55869	4.27166
3519.63013	4.32138
3517.70156	4.37445
3515.77300	4.42520
3513.84443	4.47165
3511.91587	4.51749
3509.98730	4.56480
3508.05874	4.61326
3506.13018	4.65986
3504.20161	4.70375
3502.27305	4.75002
3500.34448	4.80056
3498.41592	4.85099
3496.48735	4.90039
3494.55879	4.94972
3492.63022	5.00202
3490.70166	5.05535
3488.77310	5.10336
3486.84453	5.15163
3484.91597	5.20647
3482.98740	5.25954
3481.05884	5.30525
3479.13027	5.34805
3477.20171	5.39274
3475.27314	5.44176
3473.34458	5.49221
3471.41602	5.54110
3469.48745	5.59303
3467.55889	5.65034
3465.63032	5.70587
3463.70176	5.75288
3461.77319	5.79602
3459.84463	5.84795
3457.91606	5.90761
3455.98750	5.96361
3454.05894	6.00888
3452.13037	6.05655
3450.20181	6.12319
3448.27324	6.18788
3446.34468	6.23117
3444.41611	6.26688
3442.48755	6.31668
3440.55898	6.37859
3438.63042	6.42835
3436.70186	6.45388
3434.77329	6.48118
3432.84473	6.53929
3430.91616	6.61828
3428.98760	6.68656
3427.05903	6.72757
3425.13047	6.75859
3423.20190	6.79061
3421.27334	6.83887
3419.34478	6.91305
3417.41621	6.99154
3415.48765	7.05007
3413.55908	7.08752
3411.63052	7.13006
3409.70195	7.18638
3407.77339	7.24633
3405.84482	7.28466
3403.91626	7.32883
3401.98770	7.40018
3400.05913	7.44512
3398.13057	7.45594
3396.20200	7.47645
3394.27344	7.51591
3392.34487	7.55818
3390.41631	7.61884
3388.48774	7.67522
3386.55918	7.70404
3384.63062	7.71556
3382.70205	7.74124
3380.77349	7.80015
3378.84492	7.84852
3376.91636	7.88857
3374.98779	7.95479
3373.05923	8.01823
3371.13066	8.00086
3369.20210	7.96396
3367.27354	7.99676
3365.34497	8.07707
3363.41641	8.11920
3361.48784	8.05554
3359.55928	8.00511
3357.63071	8.06760
3355.70215	8.15919
3353.77358	8.17346
3351.84502	8.14398
3349.91646	8.12871
3347.98789	8.14695
3346.05933	8.18517
3344.13076	8.22077
3342.20220	8.22848
3340.27363	8.20281
3338.34507	8.24446
3336.41650	8.39493
3334.48794	8.52591
3332.55937	8.49186
3330.63081	8.38310
3328.70225	8.30381
3326.77368	8.26570
3324.84512	8.28185
3322.91655	8.34653
3320.98799	8.42952
3319.05942	8.47941
3317.13086	8.48362
3315.20229	8.37703
3313.27373	8.25228
3311.34517	8.28807
3309.41660	8.45361
3307.48804	8.55290
3305.55947	8.46252
3303.63091	8.30409
3301.70234	8.22163
3299.77378	8.27323
3297.84521	8.36551
3295.91665	8.38276
3293.98809	8.36037
3292.05952	8.39160
3290.13096	8.49415
3288.20239	8.53331
3286.27383	8.45407
3284.34526	8.38382
3282.41670	8.38159
3280.48813	8.37002
3278.55957	8.31825
3276.63101	8.26306
3274.70244	8.27647
3272.77388	8.41869
3270.84531	8.61199
3268.91675	8.67717
3266.98818	8.54936
3265.05962	8.40533
3263.13105	8.39713
3261.20249	8.49950
3259.27393	8.57668
3257.34536	8.58308
3255.41680	8.55393
3253.48823	8.51233
3251.55967	8.45669
3249.63110	8.37489
3247.70254	8.36410
3245.77397	8.45425
3243.84541	8.49239
3241.91685	8.42408
3239.98828	8.40465
3238.05972	8.46970
3236.13115	8.49639
3234.20259	8.43772
3232.27402	8.38362
3230.34546	8.40687
3228.41689	8.45464
3226.48833	8.47451
3224.55977	8.47945
3222.63120	8.42420
3220.70264	8.31372
3218.77407	8.25619
3216.84551	8.25966
3214.91694	8.31018
3212.98838	8.39092
3211.05981	8.38679
3209.13125	8.30534
3207.20269	8.22824
3205.27412	8.16929
3203.34556	8.12723
3201.41699	8.09915
3199.48843	8.07409
3197.55986	8.02690
3195.63130	7.96255
3193.70273	7.89762
3191.77417	7.83857
3189.84561	7.81661
3187.91704	7.83394
3185.98848	7.81402
3184.05991	7.70754
3182.13135	7.58916
3180.20278	7.52035
3178.27422	7.45096
3176.34565	7.35156
3174.41709	7.27774
3172.48853	7.24913
3170.55996	7.22862
3168.63140	7.19313
3166.70283	7.12978
3164.77427	7.04108
3162.84570	6.96113
3160.91714	6.89568
3158.98857	6.81820
3157.06001	6.72567
3155.13145	6.64293
3153.20288	6.58779
3151.27432	6.55908
3149.34575	6.52404
3147.41719	6.44765
3145.48862	6.34514
3143.56006	6.25983
3141.63149	6.20965
3139.70293	6.15284
3137.77437	6.05911
3135.84580	5.96693
3133.91724	5.90281
3131.98867	5.84387
3130.06011	5.77441
3128.13154	5.70440
3126.20298	5.63615
3124.27441	5.56192
3122.34585	5.47791
3120.41729	5.39784
3118.48872	5.32980
3116.56016	5.26153
3114.63159	5.18855
3112.70303	5.11375
3110.77446	5.03757
3108.84590	4.96171
3106.91733	4.88737
3104.98877	4.81436
3103.06021	4.74341
3101.13164	4.67451
3099.20308	4.60710
3097.27451	4.54023
3095.34595	4.47378
3093.41738	4.40917
3091.48882	4.34309
3089.56025	4.27447
3087.63169	4.20749
3085.70312	4.14128
3083.77456	4.07434
3081.84600	4.00895
3079.91743	3.94556
3077.98887	3.88335
3076.06030	3.82241
3074.13174	3.76190
3072.20317	3.70001
3070.27461	3.63668
3068.34604	3.57481
3066.41748	3.51677
3064.48892	3.46133
3062.56035	3.40566
3060.63179	3.34914
3058.70322	3.29266
3056.77466	3.23630
3054.84609	3.18101
3052.91753	3.12769
3050.98896	3.07512
3049.06040	3.02298
3047.13184	2.97180
3045.20327	2.92129
3043.27471	2.87136
3041.34614	2.82143
3039.41758	2.77161
3037.48901	2.72377
3035.56045	2.67812
3033.63188	2.63295
3031.70332	2.58721
3029.77476	2.54110
3027.84619	2.49591
3025.91763	2.45245
3023.98906	2.41010
3022.06050	2.36822
3020.13193	2.32663
3018.20337	2.28549
3016.27480	2.24487
3014.34624	2.20460
3012.41768	2.16514
3010.48911	2.12660
3008.56055	2.08857
3006.63198	2.05148
3004.70342	2.01533
3002.77485	1.97920
3000.84629	1.94325
2998.91772	1.90798
2996.98916	1.87333
2995.06060	1.83954
2993.13203	1.80662
2991.20347	1.77425
2989.27490	1.74206
2987.34634	1.70977
2985.41777	1.67758
2983.48921	1.64608
2981.56064	1.61556
2979.63208	1.58568
2977.70352	1.55638
2975.77495	1.52773
2973.84639	1.49905
2971.91782	1.47007
2969.98926	1.44157
2968.06069	1.41415
2966.13213	1.38780
2964.20356	1.36183
2962.27500	1.33557
2960.34644	1.30957
2958.41787	1.28446
2956.48931	1.26007
2954.56074	1.23632
2952.63218	1.21335
2950.70361	1.19080
2948.77505	1.16829
2946.84648	1.14602
2944.91792	1.12412
2942.98936	1.10246
2941.06079	1.08077
2939.13223	1.05911
2937.20366	1.03780
2935.27510	1.01723
2933.34653	0.99759
2931.41797	0.97864
2929.48940	0.96007
2927.56084	0.94176
2925.63228	0.92390
2923.70371	0.90670
2921.77515	0.88999
2919.84658	0.87386
2917.91802	0.85819
2915.98945	0.84265
2914.06089	0.82742
2912.13232	0.81272
2910.20376	0.79859
2908.27520	0.78489
2906.34663	0.77158
2904.41807	0.75857
2902.48950	0.74561
2900.56094	0.73275
2898.63237	0.72015
2896.70381	0.70779
2894.77524	0.69555
2892.84668	0.68350
2890.91812	0.67170
2888.98955	0.66004
2887.06099	0.64866
2885.13242	0.63769
2883.20386	0.62682
2881.27529	0.61582
2879.34673	0.60491
2877.41816	0.59424
2875.48960	0.58377
2873.56104	0.57354
2871.63247	0.56360
2869.70391	0.55374
2867.77534	0.54391
2865.84678	0.53425
2863.91821	0.52475
2861.98965	0.51555
2860.06108	0.50661
2858.13252	0.49768
2856.20396	0.48888
2854.27539	0.48039
2852.34683	0.47213
2850.41826	0.46413
2848.48970	0.45649
2846.56113	0.44929
2844.63257	0.44283
2842.70400	0.43692
2840.77544	0.43105
2838.84687	0.42527
2836.91831	0.41978
2834.98975	0.41446
2833.06118	0.40919
2831.13262	0.40372
2829.20405	0.39794
2827.27549	0.39204
2825.34692	0.38623
2823.41836	0.38063
2821.48979	0.37519
2819.56123	0.36982
2817.63267	0.36450
2815.70410	0.35912
2813.77554	0.35366
2811.84697	0.34837
2809.91841	0.34336
2807.98984	0.33841
2806.06128	0.33336
2804.13271	0.32830
2802.20415	0.32338
2800.27559	0.31879
2798.34702	0.31447
2796.41846	0.31020
2794.48989	0.30589
2792.56133	0.30157
2790.63276	0.29727
2788.70420	0.29302
2786.77563	0.28888
2784.84707	0.28491
2782.91851	0.28113
2780.98994	0.27750
2779.06138	0.27386
2777.13281	0.27011
2775.20425	0.26638
2773.27568	0.26283
2771.34712	0.25948
2769.41855	0.25629
2767.48999	0.25314
2765.56143	0.24998
2763.63286	0.24688
2761.70430	0.24389
2759.77573	0.24088
2757.84717	0.23788
2755.91860	0.23512
2753.99004	0.23241
2752.06147	0.22958
2750.13291	0.22684
2748.20435	0.22424
2746.27578	0.22166
2744.34722	0.21919
2742.41865	0.21672
2740.49009	0.21422
2738.56152	0.21185
2736.63296	0.20954
2734.70439	0.20719
2732.77583	0.20487
2730.84727	0.20258
2728.91870	0.20048
2726.99014	0.19861
2725.06157	0.19681
2723.13301	0.19500
2721.20444	0.19312
2719.27588	0.19119
2717.34731	0.18931
2715.41875	0.18749
2713.49019	0.18586
2711.56162	0.18435
2709.63306	0.18268
2707.70449	0.18089
2705.77593	0.17931
2703.84736	0.17795
2701.91880	0.17656
2699.99023	0.17509
2698.06167	0.17366
2696.13311	0.17240
2694.20454	0.17119
2692.27598	0.16990
2690.34741	0.16859
2688.41885	0.16739
2686.49028	0.16632
2684.56172	0.16524
2682.63315	0.16403
2680.70459	0.16287
2678.77603	0.16196
2676.84746	0.16114
2674.91890	0.16022
2672.99033	0.15918
2671.06177	0.15809
2669.13320	0.15708
2667.20464	0.15628
2665.27607	0.15564
2663.34751	0.15503
2661.41895	0.15424
2659.49038	0.15335
2657.56182	0.15268
2655.63325	0.15222
2653.70469	0.15174
2651.77612	0.15120
2649.84756	0.15067
2647.91899	0.15019
2645.99043	0.14966
2644.06187	0.14916
2642.13330	0.14876
2640.20474	0.14841
2638.27617	0.14799
2636.34761	0.14756
2634.41904	0.14729
2632.49048	0.14710
2630.56191	0.14684
2628.63335	0.14655
2626.70479	0.14623
2624.77622	0.14592
2622.84766	0.14572
2620.91909	0.14560
2618.99053	0.14555
2617.06196	0.14552
2615.13340	0.14544
2613.20483	0.14530
2611.27627	0.14514
2609.34771	0.14508
2607.41914	0.14518
2605.49058	0.14533
2603.56201	0.14541
2601.63345	0.14554
2599.70488	0.14577
2597.77632	0.14602
2595.84775	0.14621
2593.91919	0.14637
2591.99062	0.14650
2590.06206	0.14669
2588.13350	0.14698
2586.20493	0.14735
2584.27637	0.14766
2582.34780	0.14787
2580.41924	0.14814
2578.49067	0.14854
2576.56211	0.14893
2574.63354	0.14931
2572.70498	0.14978
2570.77642	0.15033
2568.84785	0.15092
2566.91929	0.15146
2564.99072	0.15195
2563.06216	0.15244
2561.13359	0.15298
2559.20503	0.15352
2557.27646	0.15409
2555.34790	0.15468
2553.41934	0.15523
2551.49077	0.15581
2549.56221	0.15648
2547.63364	0.15720
2545.70508	0.15793
2543.77651	0.15861
2541.84795	0.15924
2539.91938	0.15989
2537.99082	0.16059
2536.06226	0.16134
2534.13369	0.16209
2532.20513	0.16281
2530.27656	0.16348
2528.34800	0.16414
2526.41943	0.16490
2524.49087	0.16580
2522.56230	0.16677
2520.63374	0.16769
2518.70518	0.16850
2516.77661	0.16926
2514.84805	0.17013
2512.91948	0.17108
2510.99092	0.17195
2509.06235	0.17284
2507.13379	0.17383
2505.20522	0.17475
2503.27666	0.17553
2501.34810	0.17634
2499.41953	0.17726
2497.49097	0.17825
2495.56240	0.17924
2493.63384	0.18019
2491.70527	0.18105
2489.77671	0.18187
2487.84814	0.18271
2485.91958	0.18370
2483.99102	0.18481
2482.06245	0.18589
2480.13389	0.18691
2478.20532	0.18785
2476.27676	0.18878
2474.34819	0.18976
2472.41963	0.19069
2470.49106	0.19159
2468.56250	0.19258
2466.63394	0.19369
2464.70537	0.19482
2462.77681	0.19587
2460.84824	0.19689
2458.91968	0.19795
2456.99111	0.19903
2455.06255	0.20007
2453.13398	0.20111
2451.20542	0.20220
2449.27686	0.20326
2447.34829	0.20428
2445.41973	0.20534
2443.49116	0.20642
2441.56260	0.20749
2439.63403	0.20856
2437.70547	0.20962
2435.77690	0.21079
2433.84834	0.21203
2431.91978	0.21314
2429.99121	0.21418
2428.06265	0.21523
2426.13408	0.21628
2424.20552	0.21737
2422.27695	0.21851
2420.34839	0.21973
2418.41982	0.22100
2416.49126	0.22218
2414.56270	0.22337
2412.63413	0.22467
2410.70557	0.22600
2408.77700	0.22728
2406.84844	0.22850
2404.91987	0.22976
2402.99131	0.23103
2401.06274	0.23220
2399.13418	0.23338
2397.20562	0.23461
2395.27705	0.23586
2393.34849	0.23724
2391.41992	0.23880
2389.49136	0.24061
2387.56279	0.24309
2385.63423	0.24694
2383.70566	0.25283
2381.77710	0.26101
2379.84854	0.27121
2377.91997	0.28310
2375.99141	0.29665
2374.06284	0.31204
2372.13428	0.32958
2370.20571	0.34895
2368.27715	0.36888
2366.34858	0.38825
2364.42002	0.40584
2362.49146	0.41946
2360.56289	0.42721
2358.63433	0.42813
2356.70576	0.42071
2354.77720	0.40538
2352.84863	0.38575
2350.92007	0.36622
2348.99150	0.35441
2347.06294	0.35534
2345.13437	0.36935
2343.20581	0.38772
2341.27725	0.39713
2339.34868	0.39815
2337.42012	0.39664
2335.49155	0.39479
2333.56299	0.39245
2331.63442	0.39067
2329.70586	0.38961
2327.77729	0.38760
2325.84873	0.38369
2323.92017	0.37864
2321.99160	0.37329
2320.06304	0.36740
2318.13447	0.36080
2316.20591	0.35475
2314.27734	0.35073
2312.34878	0.34862
2310.42021	0.34692
2308.49165	0.34438
2306.56309	0.34104
2304.63452	0.33794
2302.70596	0.33613
2300.77739	0.33555
2298.84883	0.33519
2296.92026	0.33471
2294.99170	0.33436
2293.06313	0.33410
2291.13457	0.33389
2289.20601	0.33391
2287.27744	0.33408
2285.34888	0.33423
2283.42031	0.33482
2281.49175	0.33644
2279.56318	0.33896
2277.63462	0.34167
2275.70605	0.34421
2273.77749	0.34660
2271.84893	0.34886
2269.92036	0.35095
2267.99180	0.35299
2266.06323	0.35499
2264.13467	0.35684
2262.20610	0.35859
2260.27754	0.36041
2258.34897	0.36225
2256.42041	0.36399
2254.49185	0.36578
2252.56328	0.36773
2250.63472	0.36965
2248.70615	0.37155
2246.77759	0.37362
2244.84902	0.37579
2242.92046	0.37792
2240.99189	0.37995
2239.06333	0.38195
2237.13477	0.38407
2235.20620	0.38630
2233.27764	0.38855
2231.34907	0.39086
2229.42051	0.39324
2227.49194	0.39557
2225.56338	0.39780
2223.63481	0.39994
2221.70625	0.40206
2219.77769	0.40419
2217.84912	0.40636
2215.92056	0.40861
2213.99199	0.41087
2212.06343	0.41304
2210.13486	0.41517
2208.20630	0.41740
2206.27773	0.41967
2204.34917	0.42182
2202.42061	0.42385
2200.49204	0.42589
2198.56348	0.42802
2196.63491	0.43011
2194.70635	0.43212
2192.77778	0.43417
2190.84922	0.43616
2188.92065	0.43799
2186.99209	0.43980
2185.06353	0.44169
2183.13496	0.44351
2181.20640	0.44521
2179.27783	0.44685
2177.34927	0.44847
2175.42070	0.45011
2173.49214	0.45174
2171.56357	0.45324
2169.63501	0.45458
2167.70645	0.45588
2165.77788	0.45717
2163.84932	0.45840
2161.92075	0.45955
2159.99219	0.46064
2158.06362	0.46179
2156.13506	0.46299
2154.20649	0.46399
2152.27793	0.46475
2150.34937	0.46540
2148.42080	0.46599
2146.49224	0.46658
2144.56367	0.46713
2142.63511	0.46769
2140.70654	0.46824
2138.77798	0.46862
2136.84941	0.46874
2134.92085	0.46877
2132.99229	0.46875
2131.06372	0.46869
2129.13516	0.46860
2127.20659	0.46841
2125.27803	0.46805
2123.34946	0.46748
2121.42090	0.46693
2119.49233	0.46651
2117.56377	0.46609
2115.63521	0.46555
2113.70664	0.46481
2111.77808	0.46390
2109.84951	0.46291
2107.92095	0.46190
2105.99238	0.46084
2104.06382	0.45966
2102.13525	0.45835
2100.20669	0.45697
2098.27812	0.45554
2096.34956	0.45405
2094.42100	0.45257
2092.49243	0.45109
2090.56387	0.44952
2088.63530	0.44777
2086.70674	0.44590
2084.77817	0.44399
2082.84961	0.44207
2080.92104	0.44010
2078.99248	0.43805
2077.06392	0.43591
2075.13535	0.43373
2073.20679	0.43155
2071.27822	0.42935
2069.34966	0.42719
2067.42109	0.42516
2065.49253	0.42305
2063.56396	0.42052
2061.63540	0.41780
2059.70684	0.41523
2057.77827	0.41268
2055.84971	0.41002
2053.92114	0.40731
2051.99258	0.40464
2050.06401	0.40203
2048.13545	0.39944
2046.20688	0.39684
2044.27832	0.39436
2042.34976	0.39196
2040.42119	0.38934
2038.49263	0.38641
2036.56406	0.38342
2034.63550	0.38055
2032.70693	0.37774
2030.77837	0.37494
2028.84980	0.37206
2026.92124	0.36916
2024.99268	0.36634
2023.06411	0.36358
2021.13555	0.36089
2019.20698	0.35853
2017.27842	0.35629
2015.34985	0.35338
2013.42129	0.34992
2011.49272	0.34678
2009.56416	0.34410
2007.63560	0.34144
2005.70703	0.33860
2003.77847	0.33576
2001.84990	0.33303
1999.92134	0.33035
1997.99277	0.32773
1996.06421	0.32525
1994.13564	0.32334
1992.20708	0.32176
1990.27852	0.31932
1988.34995	0.31612
1986.42139	0.31296
1984.49282	0.31006
1982.56426	0.30748
1980.63569	0.30513
1978.70713	0.30281
1976.77856	0.30043
1974.85000	0.29802
1972.92144	0.29570
1970.99287	0.29368
1969.06431	0.29225
1967.13574	0.29094
1965.20718	0.28863
1963.27861	0.28578
1961.35005	0.28347
1959.42148	0.28149
1957.49292	0.27957
1955.56436	0.27781
1953.63579	0.27604
1951.70723	0.27416
1949.77866	0.27246
1947.85010	0.27114
1945.92153	0.27032
1943.99297	0.27007
1942.06440	0.26922
1940.13584	0.26659
1938.20728	0.26369
1936.27871	0.26182
1934.35015	0.26053
1932.42158	0.25931
1930.49302	0.25794
1928.56445	0.25660
1926.63589	0.25569
1924.70732	0.25579
1922.77876	0.25620
1920.85020	0.25546
1918.92163	0.25441
1916.99307	0.25325
1915.06450	0.25114
1913.13594	0.24949
1911.20737	0.24931
1909.27881	0.24947
1907.35024	0.24860
1905.42168	0.24700
1903.49312	0.24573
1901.56455	0.24489
1899.63599	0.24432
1897.70742	0.24427
1895.77886	0.24460
1893.85029	0.24445
1891.92173	0.24421
1889.99316	0.24476
1888.06460	0.24456
1886.13604	0.24318
1884.20747	0.24215
1882.27891	0.24161
1880.35034	0.24123
1878.42178	0.24107
1876.49321	0.24106
1874.56465	0.24114
1872.63608	0.24188
1870.70752	0.24441
1868.77896	0.24801
1866.85039	0.24831
1864.92183	0.24529
1862.99326	0.24315
1861.06470	0.24287
1859.13613	0.24330
1857.20757	0.24350
1855.27900	0.24363
1853.35044	0.24401
1851.42187	0.24482
1849.49331	0.24628
1847.56475	0.24852
1845.63618	0.25142
1843.70762	0.25345
1841.77905	0.25240
1839.85049	0.25073
1837.92192	0.25097
1835.99336	0.25201
1834.06479	0.25295
1832.13623	0.25521
1830.20767	0.25926
1828.27910	0.26158
1826.35054	0.26151
1824.42197	0.26166
1822.49341	0.26136
1820.56484	0.26121
1818.63628	0.26229
1816.70771	0.26397
1814.77915	0.26574
1812.85059	0.26846
1810.92202	0.27184
1808.99346	0.27395
1807.06489	0.27492
1805.13633	0.27645
1803.20776	0.27967
1801.27920	0.28400
1799.35063	0.28743
1797.42207	0.28943
1795.49351	0.29219
1793.56494	0.29700
1791.63638	0.30191
1789.70781	0.30305
1787.77925	0.30291
1785.85068	0.30543
1783.92212	0.30973
1781.99355	0.31452
1780.06499	0.31935
1778.13643	0.32354
1776.20786	0.32807
1774.27930	0.33497
1772.35073	0.34413
1770.42217	0.35032
1768.49360	0.35264
1766.56504	0.35518
1764.63647	0.35962
1762.70791	0.36673
1760.77935	0.37543
1758.85078	0.38234
1756.92222	0.38919
1754.99365	0.39661
1753.06509	0.40439
1751.13652	0.41605
1749.20796	0.42994
1747.27939	0.44009
1745.35083	0.44743
1743.42227	0.45603
1741.49370	0.46644
1739.56514	0.47877
1737.63657	0.49101
1735.70801	0.50359
1733.77944	0.52343
1731.85088	0.54273
1729.92231	0.55497
1727.99375	0.56775
1726.06519	0.58318
1724.13662	0.60204
1722.20806	0.62321
1720.27949	0.64440
1718.35093	0.67190
1716.42236	0.70850
1714.49380	0.73619
1712.56523	0.75621
1710.63667	0.77777
1708.70811	0.80389
1706.77954	0.83571
1704.85098	0.87279
1702.92241	0.90460
1700.99385	0.93711
1699.06528	0.98477
1697.13672	1.02532
1695.20815	1.06273
1693.27959	1.09811
1691.35103	1.12872
1689.42246	1.16679
1687.49390	1.20753
1685.56533	1.24807
1683.63677	1.30715
1681.70820	1.36197
1679.77964	1.39534
1677.85107	1.42916
1675.92251	1.47044
1673.99395	1.52187
1672.06538	1.56778
1670.13682	1.61256
1668.20825	1.66548
1666.27969	1.70527
1664.35112	1.74072
1662.42256	1.78542
1660.49399	1.83288
1658.56543	1.87062
1656.63687	1.90529
1654.70830	1.94279
1652.77974	2.00176
1650.85117	2.05132
1648.92261	2.07085
1646.99404	2.10083
1645.06548	2.13288
1643.13691	2.15260
1641.20835	2.16666
1639.27979	2.18128
1637.35122	2.19481
1635.42266	2.20180
1633.49409	2.19304
1631.56553	2.17798
1629.63696	2.16445
1627.70840	2.14308
1625.77983	2.11677
1623.85127	2.08269
1621.92271	2.03904
1619.99414	1.99875
1618.06558	1.96090
1616.13701	1.90611
1614.20845	1.84467
1612.27988	1.79595
1610.35132	1.74743
1608.42275	1.69573
1606.49419	1.64329
1604.56562	1.59377
1602.63706	1.54598
1600.70850	1.49896
1598.77993	1.45506
1596.85137	1.41381
1594.92280	1.37413
1592.99424	1.33560
1591.06567	1.29960
1589.13711	1.26516
1587.20854	1.23251
1585.27998	1.20223
1583.35142	1.17388
1581.42285	1.14773
1579.49429	1.12587
1577.56572	1.10748
1575.63716	1.08287
1573.70859	1.05664
1571.78003	1.03926
1569.85146	1.02310
1567.92290	1.00280
1565.99434	0.98467
1564.06577	0.96986
1562.13721	0.95918
1560.20864	0.95422
1558.28008	0.94250
1556.35151	0.92066
1554.42295	0.90420
1552.49438	0.89030
1550.56582	0.87853
1548.63726	0.86767
1546.70869	0.85922
1544.78013	0.85466
1542.85156	0.85242
1540.92300	0.84842
1538.99443	0.83300
1537.06587	0.81610
1535.13730	0.80760
1533.20874	0.80079
1531.28018	0.79142
1529.35161	0.78413
1527.42305	0.77988
1525.49448	0.77610
1523.56592	0.77266
1521.63735	0.76906
1519.70879	0.76202
1517.78022	0.75462
1515.85166	0.74696
1513.92310	0.73875
1511.99453	0.73368
1510.06597	0.73304
1508.13740	0.73609
1506.20884	0.73268
1504.28027	0.71890
1502.35171	0.71025
1500.42314	0.70675
1498.49458	0.70543
1496.56602	0.70240
1494.63745	0.69651
1492.70889	0.69268
1490.78032	0.69288
1488.85176	0.69240
1486.92319	0.68635
1484.99463	0.67920
1483.06606	0.67461
1481.13750	0.67172
1479.20894	0.66920
1477.28037	0.66803
1475.35181	0.66885
1473.42324	0.66945
1471.49468	0.66467
1469.56611	0.65658
1467.63755	0.65172
1465.70898	0.65014
1463.78042	0.64822
1461.85186	0.64558
1459.92329	0.64593
1457.99473	0.64932
1456.06616	0.64784
1454.13760	0.64031
1452.20903	0.63480
1450.28047	0.63191
1448.35190	0.63042
1446.42334	0.62820
1444.49478	0.62504
1442.56621	0.62262
1440.63765	0.62151
1438.70908	0.62203
1436.78052	0.62324
1434.85195	0.62187
1432.92339	0.61918
1430.99482	0.61777
1429.06626	0.61627
1427.13770	0.61395
1425.20913	0.61260
1423.28057	0.61203
1421.35200	0.61168
1419.42344	0.61222
1417.49487	0.61076
1415.56631	0.60622
1413.63774	0.60244
1411.70918	0.60030
1409.78062	0.59879
1407.85205	0.59767
1405.92349	0.59718
1403.99492	0.59610
1402.06636	0.59435
1400.13779	0.59386
1398.20923	0.59425
1396.28066	0.59376
1394.35210	0.59169
1392.42354	0.58833
1390.49497	0.58582
1388.56641	0.58525
1386.63784	0.58476
1384.70928	0.58253
1382.78071	0.58003
1380.85215	0.57860
1378.92358	0.57796
1376.99502	0.57796
1375.06646	0.57847
1373.13789	0.57762
1371.20933	0.57524
1369.28076	0.57342
1367.35220	0.57226
1365.42363	0.57173
1363.49507	0.57233
1361.56650	0.57206
1359.63794	0.56964
1357.70937	0.56745
1355.78081	0.56646
1353.85225	0.56566
1351.92368	0.56453
1349.99512	0.56350
1348.06655	0.56259
1346.13799	0.56154
1344.20942	0.56074
1342.28086	0.56092
1340.35229	0.56192
1338.42373	0.56181
1336.49517	0.55968
1334.56660	0.55721
1332.63804	0.55551
1330.70947	0.55443
1328.78091	0.55354
1326.85234	0.55275
1324.92378	0.55205
1322.99521	0.55142
1321.06665	0.55110
1319.13809	0.55088
1317.20952	0.55011
1315.28096	0.54906
1313.35239	0.54823
1311.42383	0.54727
1309.49526	0.54606
1307.56670	0.54500
1305.63813	0.54415
1303.70957	0.54338
1301.78101	0.54265
1299.85244	0.54193
1297.92388	0.54114
1295.99531	0.54028
1294.06675	0.53943
1292.13818	0.53868
1290.20962	0.53814
1288.28105	0.53775
1286.35249	0.53727
1284.42393	0.53664
1282.49536	0.53611
1280.56680	0.53572
1278.63823	0.53525
1276.70967	0.53464
1274.78110	0.53416
1272.85254	0.53401
1270.92397	0.53380
1268.99541	0.53324
1267.06685	0.53259
1265.13828	0.53203
1263.20972	0.53162
1261.28115	0.53142
1259.35259	0.53119
1257.42402	0.53090
1255.49546	0.53077
1253.56689	0.53066
1251.63833	0.53036
1249.70977	0.53009
1247.78120	0.52999
1245.85264	0.52996
1243.92407	0.52980
1241.99551	0.52939
1240.06694	0.52884
1238.13838	0.52840
1236.20981	0.52796
1234.28125	0.52733
1232.35269	0.52676
1230.42412	0.52633
1228.49556	0.52574
1226.56699	0.52501
1224.63843	0.52431
1222.70986	0.52363
1220.78130	0.52307
1218.85273	0.52260
1216.92417	0.52213
1214.99561	0.52165
1213.06704	0.52107
1211.13848	0.52036
1209.20991	0.51957
1207.28135	0.51890
1205.35278	0.51835
1203.42422	0.51781
1201.49565	0.51734
1199.56709	0.51696
1197.63853	0.51651
1195.70996	0.51604
1193.78140	0.51560
1191.85283	0.51510
1189.92427	0.51459
1187.99570	0.51419
1186.06714	0.51393
1184.13857	0.51373
1182.21001	0.51356
1180.28145	0.51356
1178.35288	0.51382
1176.42432	0.51415
1174.49575	0.51440
1172.56719	0.51458
1170.63862	0.51480
1168.71006	0.51504
1166.78149	0.51525
1164.85293	0.51540
1162.92437	0.51538
1160.99580	0.51512
1159.06724	0.51477
1157.13867	0.51434
1155.21011	0.51356
1153.28154	0.51235
1151.35298	0.51074
1149.42441	0.50893
1147.49585	0.50713
1145.56729	0.50522
1143.63872	0.50303
1141.71016	0.50053
1139.78159	0.49798
1137.85303	0.49566
1135.92446	0.49348
1133.99590	0.49132
1132.06733	0.48942
1130.13877	0.48778
1128.21021	0.48605
1126.28164	0.48434
1124.35308	0.48300
1122.42451	0.48198
1120.49595	0.48102
1118.56738	0.48031
1116.63882	0.48003
1114.71025	0.48001
1112.78169	0.48024
1110.85312	0.48082
1108.92456	0.48164
1106.99600	0.48262
1105.06743	0.48370
1103.13887	0.48498
1101.21030	0.48678
1099.28174	0.48906
1097.35317	0.49162
1095.42461	0.49454
1093.49604	0.49795
1091.56748	0.50191
1089.63892	0.50657
1087.71035	0.51206
1085.78179	0.51825
1083.85322	0.52489
1081.92466	0.53139
1079.99609	0.53690
1078.06753	0.54062
1076.13896	0.54180
1074.21040	0.54007
1072.28184	0.53585
1070.35327	0.53016
1068.42471	0.52377
1066.49614	0.51721
1064.56758	0.51093
1062.63901	0.50527
1060.71045	0.50027
1058.78188	0.49567
1056.85332	0.49145
1054.92476	0.48797
1052.99619	0.48517
1051.06763	0.48267
1049.13906	0.48056
1047.21050	0.47892
1045.28193	0.47749
1043.35337	0.47624
1041.42480	0.47531
1039.49624	0.47463
1037.56768	0.47416
1035.63911	0.47401
1033.71055	0.47412
1031.78198	0.47424
1029.85342	0.47430
1027.92485	0.47447
1025.99629	0.47487
1024.06772	0.47548
1022.13916	0.47626
1020.21060	0.47720
1018.28203	0.47837
1016.35347	0.47976
1014.42490	0.48118
1012.49634	0.48264
1010.56777	0.48414
1008.63921	0.48563
1006.71064	0.48738
1004.78208	0.48961
1002.85352	0.49224
1000.92495	0.49515
998.99639	0.49827
997.06782	0.50160
995.13926	0.50521
993.21069	0.50900
991.28213	0.51260
989.35356	0.51533
987.42500	0.51698
985.49644	0.51826
983.56787	0.51967
981.63931	0.52104
979.71074	0.52262
977.78218	0.52470
975.85361	0.52709
973.92505	0.52988
971.99648	0.53321
970.06792	0.53690
968.13936	0.54080
966.21079	0.54503
964.28223	0.54968
962.35366	0.55458
960.42510	0.55981
958.49653	0.56544
956.56797	0.57131
954.63940	0.57737
952.71084	0.58360
950.78228	0.59004
948.85371	0.59661
946.92515	0.60326
944.99658	0.61010
943.06802	0.61679
941.13945	0.62282
939.21089	0.62843
937.28232	0.63400
935.35376	0.63940
933.42520	0.64475
931.49663	0.65044
929.56807	0.65672
927.63950	0.66305
925.71094	0.66875
923.78237	0.67470
921.85381	0.68161
919.92524	0.68868
917.99668	0.69541
916.06812	0.70209
914.13955	0.70930
912.21099	0.71737
910.28242	0.72571
908.35386	0.73401
906.42529	0.74278
904.49673	0.75207
902.56816	0.76127
900.63960	0.76997
898.71104	0.77884
896.78247	0.78860
894.85391	0.79884
892.92534	0.80942
890.99678	0.82066
889.06821	0.83202
887.13965	0.84272
885.21108	0.85307
883.28252	0.86427
881.35396	0.87726
879.42539	0.89113
877.49683	0.90328
875.56826	0.91369
873.63970	0.92392
871.71113	0.93442
869.78257	0.94550
867.85400	0.95707
865.92544	0.96904
863.99687	0.98075
862.06831	0.99169
860.13975	1.00236
858.21118	1.01263
856.28262	1.02315
854.35405	1.03558
852.42549	1.05058
850.49692	1.06572
848.56836	1.07710
846.63979	1.08685
844.71123	1.09966
842.78267	1.11375
840.85410	1.12546
838.92554	1.13504
836.99697	1.14319
835.06841	1.15104
833.13984	1.16345
831.21128	1.17961
829.28271	1.19212
827.35415	1.20228
825.42559	1.21496
823.49702	1.22726
821.56846	1.23829
819.63989	1.25344
817.71133	1.27151
815.78276	1.28769
813.85420	1.29599
811.92563	1.29515
809.99707	1.29845
808.06851	1.31020
806.13994	1.32635
804.21138	1.34490
802.28281	1.36168
800.35425	1.37775
798.42568	1.38838
796.49712	1.39031
794.56855	1.40141
792.63999	1.42170
790.71143	1.44081
788.78286	1.47386
786.85430	1.48169
784.92573	1.41760
782.99717	1.36386
781.06860	1.40562
779.14004	1.53916
777.21147	1.60976
775.28291	1.56329
773.35435	1.52670
771.42578	1.51662
769.49722	1.58422
767.56865	1.99938
765.64009	4.59384
763.71152	4.58227
761.78296	1.77267
759.85439	1.43263
757.92583	1.35927
755.99727	1.46517
754.06870	1.61287
752.14014	1.54977
750.21157	1.46836
748.28301	1.33662
746.35444	1.16252
744.42588	1.08073
742.49731	1.03171
740.56875	0.98068
738.64019	0.98761
736.71162	0.93492
734.78306	0.77340
732.85449	0.64614
730.92593	0.57138
728.99736	0.52677
727.06880	0.47637
725.14023	0.41030
723.21167	0.37137
721.28311	0.33557
719.35454	0.34335
717.42598	0.37707
715.49741	0.31145
713.56885	0.27820
711.64028	0.28270
709.71172	0.17340
707.78315	0.15945
705.85459	0.17839
703.92603	0.24520
701.99746	0.31138
700.06890	0.36821
698.14033	0.44516
696.21177	0.47962
694.28320	0.40598
692.35464	0.34610
690.42607	0.36687
688.49751	0.43388
686.56895	0.54147
684.64038	0.65075
682.71182	0.53671
680.78325	0.31236
678.85469	0.17857
676.92612	0.18218
674.99756	0.31520
673.06899	0.37511
671.14043	0.32741
669.21187	0.31303
667.28330	0.30295
665.35474	0.26335
663.42617	0.25318
661.49761	0.27262
659.56904	0.29244
657.64048	0.33441
655.71191	0.35654
653.78335	0.25698
651.85479	0.17259
649.92622	0.17486
647.99766	0.23894
646.06909	0.26019
644.14053	0.20576
642.21196	0.19635
640.28340	0.28420
638.35483	0.33229
636.42627	0.22599
634.49771	0.12490
632.56914	0.10958
630.64058	0.13224
628.71201	0.16489
626.78345	0.18422
624.85488	0.16674
622.92632	0.17587
620.99775	0.26323
619.06919	0.28319
617.14062	0.21200
615.21206	0.19305
613.28350	0.27905
611.35493	0.43280
609.42637	0.66357
607.49780	0.81228
605.56924	0.49853
603.64067	0.33561
601.71211	0.37693
599.78354	0.53144
597.85498	0.46347
595.92642	0.30463
593.99785	0.29388
592.06929	0.37091
590.14072	0.39503
588.21216	0.36320
586.28359	0.32030
584.35503	0.27990
582.42646	0.25318
580.49790	0.24444
578.56934	0.26489
576.64077	0.30163
574.71221	0.29995
572.78364	0.26813
570.85508	0.23041
568.92651	0.18642
566.99795	0.17161
565.06938	0.19557
563.14082	0.21357
561.21226	0.24394
559.28369	0.33195
557.35513	0.40011
555.42656	0.29991
553.49800	0.23231
551.56943	0.30640
549.64087	0.44327
547.71230	0.37395
545.78374	0.23080
543.85518	0.18018
541.92661	0.21599
539.99805	0.27518
538.06948	0.26295
536.14092	0.22792
534.21235	0.25332
532.28379	0.31925
530.35522	0.32330
528.42666	0.26451
526.49810	0.21345
524.56953	0.19260
522.64097	0.19472
520.71240	0.21213
518.78384	0.25099
516.85527	0.28755
514.92671	0.32244
512.99814	0.37514
511.06958	0.36820
509.14102	0.32169
507.21245	0.27468
505.28389	0.20970
503.35532	0.18662
501.42676	0.22670
499.49819	0.27414
