3997.91411	0.07375
3995.98555	0.07436
3994.05698	0.07464
3992.12842	0.07484
3990.19985	0.07511
3988.27129	0.07536
3986.34272	0.07565
3984.41416	0.07592
3982.48560	0.07610
3980.55703	0.07616
3978.62847	0.07617
3976.69990	0.07649
3974.77134	0.07705
3972.84277	0.07732
3970.91421	0.07737
3968.98564	0.07740
3967.05708	0.07733
3965.12852	0.07729
3963.19995	0.07751
3961.27139	0.07791
3959.34282	0.07822
3957.41426	0.07820
3955.48569	0.07789
3953.55713	0.07754
3951.62856	0.07759
3949.70000	0.07816
3947.77144	0.07877
3945.84287	0.07882
3943.91431	0.07832
3941.98574	0.07769
3940.05718	0.07740
3938.12861	0.07767
3936.20005	0.07808
3934.27148	0.07824
3932.34292	0.07829
3930.41436	0.07820
3928.48579	0.07784
3926.55723	0.07761
3924.62866	0.07784
3922.70010	0.07812
3920.77153	0.07812
3918.84297	0.07817
3916.91440	0.07836
3914.98584	0.07825
3913.05728	0.07775
3911.12871	0.07743
3909.20015	0.07736
3907.27158	0.07720
3905.34302	0.07705
3903.41445	0.07721
3901.48589	0.07712
3899.55732	0.07672
3897.62876	0.07691
3895.70020	0.07733
3893.77163	0.07753
3891.84307	0.07773
3889.91450	0.07761
3887.98594	0.07711
3886.05737	0.07697
3884.12881	0.07717
3882.20024	0.07740
3880.27168	0.07800
3878.34312	0.07858
3876.41455	0.07854
3874.48599	0.07864
3872.55742	0.07936
3870.62886	0.08003
3868.70029	0.08000
3866.77173	0.07950
3864.84316	0.07946
3862.91460	0.07990
3860.98604	0.08018
3859.05747	0.08032
3857.12891	0.08053
3855.20034	0.08092
3853.27178	0.08170
3851.34321	0.08254
3849.41465	0.08300
3847.48608	0.08340
3845.55752	0.08372
3843.62896	0.08404
3841.70039	0.08454
3839.77183	0.08540
3837.84326	0.08668
3835.91470	0.08767
3833.98613	0.08816
3832.05757	0.08842
3830.12900	0.08867
3828.20044	0.08927
3826.27187	0.09032
3824.34331	0.09126
3822.41475	0.09180
3820.48618	0.09257
3818.55762	0.09331
3816.62905	0.09403
3814.70049	0.09536
3812.77192	0.09642
3810.84336	0.09699
3808.91479	0.09775
3806.98623	0.09899
3805.05767	0.10021
3803.12910	0.10084
3801.20054	0.10183
3799.27197	0.10351
3797.34341	0.10484
3795.41484	0.10606
3793.48628	0.10741
3791.55771	0.10874
3789.62915	0.11003
3787.70059	0.11126
3785.77202	0.11252
3783.84346	0.11373
3781.91489	0.11471
3779.98633	0.11603
3778.05776	0.11822
3776.12920	0.12016
3774.20063	0.12134
3772.27207	0.12248
3770.34351	0.12426
3768.41494	0.12679
3766.48638	0.12901
3764.55781	0.13076
3762.62925	0.13230
3760.70068	0.13391
3758.77212	0.13638
3756.84355	0.13934
3754.91499	0.14155
3752.98643	0.14330
3751.05786	0.14587
3749.12930	0.14987
3747.20073	0.15319
3745.27217	0.15583
3743.34360	0.15980
3741.41504	0.16338
3739.48647	0.16560
3737.55791	0.16844
3735.62935	0.17318
3733.70078	0.17929
3731.77222	0.18441
3729.84365	0.18830
3727.91509	0.19204
3725.98652	0.19692
3724.05796	0.20314
3722.12939	0.21007
3720.20083	0.21783
3718.27227	0.22596
3716.34370	0.23389
3714.41514	0.24161
3712.48657	0.25067
3710.55801	0.26329
3708.62944	0.27736
3706.70088	0.28947
3704.77231	0.30082
3702.84375	0.31372
3700.91519	0.33030
3698.98662	0.34868
3697.05806	0.36638
3695.12949	0.38513
3693.20093	0.40489
3691.27236	0.42619
3689.34380	0.45396
3687.41523	0.48888
3685.48667	0.52003
3683.55811	0.54675
3681.62954	0.57555
3679.70098	0.60806
3677.77241	0.64172
3675.84385	0.68058
3673.91528	0.73237
3671.98672	0.77600
3670.05815	0.81526
3668.12959	0.86898
3666.20103	0.91904
3664.27246	0.96064
3662.34390	1.00470
3660.41533	1.05246
3658.48677	1.09960
3656.55820	1.14934
3654.62964	1.20445
3652.70107	1.25100
3650.77251	1.29117
3648.84395	1.34517
3646.91538	1.41207
3644.98682	1.46431
3643.05825	1.50553
3641.12969	1.54698
3639.20112	1.59191
3637.27256	1.63705
3635.34399	1.68102
3633.41543	1.72454
3631.48687	1.76508
3629.55830	1.80647
3627.62974	1.85979
3625.70117	1.90933
3623.77261	1.94339
3621.84404	1.97668
3619.91548	2.01538
3617.98691	2.06216
3616.05835	2.10780
3614.12979	2.14531
3612.20122	2.18316
3610.27266	2.22185
3608.34409	2.26204
3606.41553	2.30530
3604.48696	2.34575
3602.55840	2.38219
3600.62983	2.42128
3598.70127	2.46328
3596.77271	2.50391
3594.84414	2.54469
3592.91558	2.58724
3590.98701	2.62783
3589.05845	2.66539
3587.12988	2.70944
3585.20132	2.75799
3583.27275	2.79901
3581.34419	2.83622
3579.41562	2.87707
3577.48706	2.92135
3575.55850	2.96463
3573.62993	3.00737
3571.70137	3.05020
3569.77280	3.09231
3567.84424	3.13559
3565.91567	3.18679
3563.98711	3.23727
3562.05854	3.27938
3560.12998	3.32228
3558.20142	3.36827
3556.27285	3.41359
3554.34429	3.45728
3552.41572	3.50278
3550.48716	3.55054
3548.55859	3.59801
3546.63003	3.64355
3544.70146	3.69051
3542.77290	3.74089
3540.84434	3.79127
3538.91577	3.83925
3536.98721	3.88452
3535.05864	3.93155
3533.13008	3.98224
3531.20151	4.03369
3529.27295	4.08124
3527.34438	4.12644
3525.41582	4.17560
3523.48726	4.22898
3521.55869	4.28071
3519.63013	4.32653
3517.70156	4.37028
3515.77300	4.41438
3513.84443	4.46052
3511.91587	4.50855
3509.98730	4.55813
3508.05874	4.61363
3506.13018	4.67118
3504.20161	4.71936
3502.27305	4.75963
3500.34448	4.80527
3498.41592	4.85782
3496.48735	4.90962
3494.55879	4.95941
3492.63022	5.01009
3490.70166	5.06061
3488.77310	5.10979
3486.84453	5.15685
3484.91597	5.20199
3482.98740	5.25061
3481.05884	5.30279
3479.13027	5.34986
3477.20171	5.39302
3475.27314	5.44207
3473.34458	5.49655
3471.41602	5.55038
3469.48745	5.60282
3467.55889	5.65245
3465.63032	5.70339
3463.70176	5.76102
3461.77319	5.81138
3459.84463	5.85475
3457.91606	5.90331
3455.98750	5.94796
3454.05894	5.98629
3452.13037	6.03482
3450.20181	6.09479
3448.27324	6.14966
3446.34468	6.20004
3444.41611	6.25004
3442.48755	6.29986
3440.55898	6.35116
3438.63042	6.40425
3436.70186	6.46042
3434.77329	6.51622
3432.84473	6.56032
3430.91616	6.59214
3428.98760	6.63149
3427.05903	6.69224
3425.13047	6.77752
3423.20190	6.85470
3421.27334	6.89781
3419.34478	6.92431
3417.41621	6.95648
3415.48765	6.99914
3413.55908	7.04352
3411.63052	7.08768
3409.70195	7.12835
3407.77339	7.18105
3405.84482	7.23138
3403.91626	7.25592
3401.98770	7.28192
3400.05913	7.33281
3398.13057	7.38830
3396.20200	7.42072
3394.27344	7.44448
3392.34487	7.49997
3390.41631	7.59003
3388.48774	7.64356
3386.55918	7.67905
3384.63062	7.73192
3382.70205	7.77268
3380.77349	7.80027
3378.84492	7.80507
3376.91636	7.79614
3374.98779	7.81931
3373.05923	7.91170
3371.13066	7.96490
3369.20210	7.89845
3367.27354	7.83634
3365.34497	7.87408
3363.41641	7.96351
3361.48784	8.00562
3359.55928	7.99983
3357.63071	8.00870
3355.70215	8.06183
3353.77358	8.08824
3351.84502	8.08241
3349.91646	8.09322
3347.98789	8.10248
3346.05933	8.11283
3344.13076	8.11501
3342.20220	8.08419
3340.27363	8.06525
3338.34507	8.11087
3336.41650	8.18333
3334.48794	8.23612
3332.55937	8.24488
3330.63081	8.25316
3328.70225	8.29178
3326.77368	8.33465
3324.84512	8.40305
3322.91655	8.45696
3320.98799	8.42235
3319.05942	8.34808
3317.13086	8.31802
3315.20229	8.33353
3313.27373	8.40447
3311.34517	8.45729
3309.41660	8.41619
3307.48804	8.37946
3305.55947	8.38497
3303.63091	8.37122
3301.70234	8.30549
3299.77378	8.28857
3297.84521	8.33019
3295.91665	8.33469
3293.98809	8.34477
3292.05952	8.38513
3290.13096	8.38068
3288.20239	8.33756
3286.27383	8.30659
3284.34526	8.29263
3282.41670	8.29414
3280.48813	8.35185
3278.55957	8.48750
3276.63101	8.51427
3274.70244	8.40751
3272.77388	8.41763
3270.84531	8.50987
3268.91675	8.47672
3266.98818	8.40466
3265.05962	8.42153
3263.13105	8.41702
3261.20249	8.34631
3259.27393	8.30642
3257.34536	8.35501
3255.41680	8.44693
3253.48823	8.48448
3251.55967	8.45016
3249.63110	8.40331
3247.70254	8.38007
3245.77397	8.36576
3243.84541	8.37140
3241.91685	8.41017
3239.98828	8.46248
3238.05972	8.48741
3236.13115	8.50486
3234.20259	8.50071
3232.27402	8.41443
3230.34546	8.31420
3228.41689	8.25717
3226.48833	8.27715
3224.55977	8.32586
3222.63120	8.28766
3220.70264	8.21301
3218.77407	8.17875
3216.84551	8.16304
3214.91694	8.14325
3212.98838	8.13031
3211.05981	8.12132
3209.13125	8.07971
3207.20269	8.03210
3205.27412	8.02907
3203.34556	8.01624
3201.41699	7.95807
3199.48843	7.89873
3197.55986	7.85587
3195.63130	7.82676
3193.70273	7.80461
3191.77417	7.76909
3189.84561	7.72263
3187.91704	7.68539
3185.98848	7.63428
3184.05991	7.55497
3182.13135	7.49072
3180.20278	7.44178
3178.27422	7.38913
3176.34565	7.36016
3174.41709	7.32953
3172.48853	7.25329
3170.55996	7.16322
3168.63140	7.09554
3166.70283	7.02625
3164.77427	6.94596
3162.84570	6.89771
3160.91714	6.85907
3158.98857	6.79080
3157.06001	6.72669
3155.13145	6.67273
3153.20288	6.59927
3151.27432	6.52377
3149.34575	6.47040
3147.41719	6.41766
3145.48862	6.34214
3143.56006	6.25264
3141.63149	6.16724
3139.70293	6.08701
3137.77437	6.01058
3135.84580	5.94322
3133.91724	5.88264
3131.98867	5.81627
3130.06011	5.73935
3128.13154	5.66139
3126.20298	5.58276
3124.27441	5.49986
3122.34585	5.42213
3120.41729	5.35757
3118.48872	5.29690
3116.56016	5.22827
3114.63159	5.15518
3112.70303	5.08623
3110.77446	5.01720
3108.84590	4.94278
3106.91733	4.87327
3104.98877	4.81185
3103.06021	4.74723
3101.13164	4.67694
3099.20308	4.60744
3097.27451	4.53959
3095.34595	4.47160
3093.41738	4.40488
3091.48882	4.34049
3089.56025	4.27700
3087.63169	4.21268
3085.70312	4.14814
3083.77456	4.08494
3081.84600	4.02457
3079.91743	3.96576
3077.98887	3.90580
3076.06030	3.84478
3074.13174	3.78403
3072.20317	3.72571
3070.27461	3.66975
3068.34604	3.61343
3066.41748	3.55693
3064.48892	3.50112
3062.56035	3.44497
3060.63179	3.38962
3058.70322	3.33627
3056.77466	3.28348
3054.84609	3.23121
3052.91753	3.18030
3050.98896	3.12916
3049.06040	3.07653
3047.13184	3.02416
3045.20327	2.97340
3043.27471	2.92419
3041.34614	2.87607
3039.41758	2.82832
3037.48901	2.78148
3035.56045	2.73491
3033.63188	2.68740
3031.70332	2.64009
3029.77476	2.59465
3027.84619	2.55154
3025.91763	2.50920
3023.98906	2.46603
3022.06050	2.42282
3020.13193	2.38091
3018.20337	2.34038
3016.27480	2.30007
3014.34624	2.25920
3012.41768	2.21916
3010.48911	2.18070
3008.56055	2.14283
3006.63198	2.10587
3004.70342	2.07027
3002.77485	2.03504
3000.84629	1.99957
2998.91772	1.96486
2996.98916	1.93199
2995.06060	1.90031
2993.13203	1.86894
2991.20347	1.83775
2989.27490	1.80657
2987.34634	1.77579
2985.41777	1.74634
2983.48921	1.71848
2981.56064	1.69138
2979.63208	1.66422
2977.70352	1.63717
2975.77495	1.61075
2973.84639	1.58503
2971.91782	1.55967
2969.98926	1.53441
2968.06069	1.50962
2966.13213	1.48560
2964.20356	1.46214
2962.27500	1.43859
2960.34644	1.41438
2958.41787	1.38968
2956.48931	1.36504
2954.56074	1.34100
2952.63218	1.31761
2950.70361	1.29404
2948.77505	1.26999
2946.84648	1.24667
2944.91792	1.22492
2942.98936	1.20384
2941.06079	1.18278
2939.13223	1.16230
2937.20366	1.14244
2935.27510	1.12244
2933.34653	1.10225
2931.41797	1.08255
2929.48940	1.06318
2927.56084	1.04372
2925.63228	1.02432
2923.70371	1.00521
2921.77515	0.98660
2919.84658	0.96846
2917.91802	0.95060
2915.98945	0.93351
2914.06089	0.91724
2912.13232	0.90084
2910.20376	0.88446
2908.27520	0.86893
2906.34663	0.85408
2904.41807	0.83934
2902.48950	0.82456
2900.56094	0.81024
2898.63237	0.79672
2896.70381	0.78362
2894.77524	0.77047
2892.84668	0.75757
2890.91812	0.74535
2888.98955	0.73370
2887.06099	0.72239
2885.13242	0.71154
2883.20386	0.70119
2881.27529	0.69113
2879.34673	0.68135
2877.41816	0.67201
2875.48960	0.66258
2873.56104	0.65232
2871.63247	0.64130
2869.70391	0.62997
2867.77534	0.61843
2865.84678	0.60649
2863.91821	0.59426
2861.98965	0.58247
2860.06108	0.57166
2858.13252	0.56157
2856.20396	0.55181
2854.27539	0.54240
2852.34683	0.53314
2850.41826	0.52376
2848.48970	0.51446
2846.56113	0.50592
2844.63257	0.49843
2842.70400	0.49141
2840.77544	0.48460
2838.84687	0.47828
2836.91831	0.47238
2834.98975	0.46654
2833.06118	0.46054
2831.13262	0.45436
2829.20405	0.44822
2827.27549	0.44213
2825.34692	0.43601
2823.41836	0.42985
2821.48979	0.42371
2819.56123	0.41772
2817.63267	0.41183
2815.70410	0.40592
2813.77554	0.40004
2811.84697	0.39438
2809.91841	0.38895
2807.98984	0.38360
2806.06128	0.37833
2804.13271	0.37319
2802.20415	0.36800
2800.27559	0.36270
2798.34702	0.35744
2796.41846	0.35231
2794.48989	0.34741
2792.56133	0.34277
2790.63276	0.33825
2788.70420	0.33383
2786.77563	0.32946
2784.84707	0.32504
2782.91851	0.32064
2780.98994	0.31634
2779.06138	0.31219
2777.13281	0.30813
2775.20425	0.30409
2773.27568	0.30016
2771.34712	0.29638
2769.41855	0.29265
2767.48999	0.28890
2765.56143	0.28522
2763.63286	0.28166
2761.70430	0.27821
2759.77573	0.27487
2757.84717	0.27151
2755.91860	0.26817
2753.99004	0.26503
2752.06147	0.26201
2750.13291	0.25897
2748.20435	0.25594
2746.27578	0.25305
2744.34722	0.25032
2742.41865	0.24763
2740.49009	0.24490
2738.56152	0.24211
2736.63296	0.23937
2734.70439	0.23682
2732.77583	0.23432
2730.84727	0.23182
2728.91870	0.22941
2726.99014	0.22704
2725.06157	0.22468
2723.13301	0.22251
2721.20444	0.22046
2719.27588	0.21836
2717.34731	0.21622
2715.41875	0.21412
2713.49019	0.21206
2711.56162	0.21012
2709.63306	0.20836
2707.70449	0.20673
2705.77593	0.20502
2703.84736	0.20322
2701.91880	0.20159
2699.99023	0.20021
2698.06167	0.19882
2696.13311	0.19734
2694.20454	0.19579
2692.27598	0.19424
2690.34741	0.19277
2688.41885	0.19143
2686.49028	0.19023
2684.56172	0.18918
2682.63315	0.18799
2680.70459	0.18655
2678.77603	0.18522
2676.84746	0.18418
2674.91890	0.18316
2672.99033	0.18199
2671.06177	0.18080
2669.13320	0.17970
2667.20464	0.17870
2665.27607	0.17770
2663.34751	0.17668
2661.41895	0.17573
2659.49038	0.17494
2657.56182	0.17428
2655.63325	0.17360
2653.70469	0.17280
2651.77612	0.17202
2649.84756	0.17144
2647.91899	0.17088
2645.99043	0.17013
2644.06187	0.16934
2642.13330	0.16874
2640.20474	0.16829
2638.27617	0.16786
2636.34761	0.16737
2634.41904	0.16680
2632.49048	0.16614
2630.56191	0.16553
2628.63335	0.16503
2626.70479	0.16466
2624.77622	0.16440
2622.84766	0.16412
2620.91909	0.16375
2618.99053	0.16339
2617.06196	0.16309
2615.13340	0.16279
2613.20483	0.16253
2611.27627	0.16245
2609.34771	0.16250
2607.41914	0.16243
2605.49058	0.16230
2603.56201	0.16229
2601.63345	0.16226
2599.70488	0.16210
2597.77632	0.16195
2595.84775	0.16197
2593.91919	0.16214
2591.99062	0.16221
2590.06206	0.16219
2588.13350	0.16232
2586.20493	0.16257
2584.27637	0.16276
2582.34780	0.16285
2580.41924	0.16298
2578.49067	0.16328
2576.56211	0.16359
2574.63354	0.16381
2572.70498	0.16404
2570.77642	0.16431
2568.84785	0.16458
2566.91929	0.16485
2564.99072	0.16525
2563.06216	0.16570
2561.13359	0.16603
2559.20503	0.16637
2557.27646	0.16686
2555.34790	0.16733
2553.41934	0.16772
2551.49077	0.16815
2549.56221	0.16869
2547.63364	0.16935
2545.70508	0.17002
2543.77651	0.17063
2541.84795	0.17120
2539.91938	0.17177
2537.99082	0.17248
2536.06226	0.17319
2534.13369	0.17368
2532.20513	0.17414
2530.27656	0.17477
2528.34800	0.17550
2526.41943	0.17622
2524.49087	0.17688
2522.56230	0.17754
2520.63374	0.17833
2518.70518	0.17916
2516.77661	0.17985
2514.84805	0.18046
2512.91948	0.18119
2510.99092	0.18203
2509.06235	0.18287
2507.13379	0.18371
2505.20522	0.18446
2503.27666	0.18503
2501.34810	0.18569
2499.41953	0.18655
2497.49097	0.18748
2495.56240	0.18831
2493.63384	0.18913
2491.70527	0.19005
2489.77671	0.19101
2487.84814	0.19184
2485.91958	0.19250
2483.99102	0.19311
2482.06245	0.19386
2480.13389	0.19477
2478.20532	0.19574
2476.27676	0.19669
2474.34819	0.19759
2472.41963	0.19846
2470.49106	0.19933
2468.56250	0.20019
2466.63394	0.20103
2464.70537	0.20195
2462.77681	0.20293
2460.84824	0.20387
2458.91968	0.20478
2456.99111	0.20575
2455.06255	0.20674
2453.13398	0.20771
2451.20542	0.20866
2449.27686	0.20959
2447.34829	0.21055
2445.41973	0.21157
2443.49116	0.21256
2441.56260	0.21354
2439.63403	0.21455
2437.70547	0.21554
2435.77690	0.21643
2433.84834	0.21730
2431.91978	0.21825
2429.99121	0.21927
2428.06265	0.22027
2426.13408	0.22133
2424.20552	0.22248
2422.27695	0.22370
2420.34839	0.22490
2418.41982	0.22610
2416.49126	0.22730
2414.56270	0.22843
2412.63413	0.22952
2410.70557	0.23065
2408.77700	0.23182
2406.84844	0.23298
2404.91987	0.23410
2402.99131	0.23516
2401.06274	0.23623
2399.13418	0.23740
2397.20562	0.23864
2395.27705	0.23990
2393.34849	0.24122
2391.41992	0.24246
2389.49136	0.24354
2387.56279	0.24458
2385.63423	0.24564
2383.70566	0.24669
2381.77710	0.24758
2379.84854	0.24810
2377.91997	0.24837
2375.99141	0.24860
2374.06284	0.24889
2372.13428	0.24915
2370.20571	0.24924
2368.27715	0.24923
2366.34858	0.24908
2364.42002	0.24887
2362.49146	0.24898
2360.56289	0.24956
2358.63433	0.25112
2356.70576	0.25405
2354.77720	0.25775
2352.84863	0.26189
2350.92007	0.26548
2348.99150	0.26731
2347.06294	0.26765
2345.13437	0.26755
2343.20581	0.26789
2341.27725	0.26883
2339.34868	0.27076
2337.42012	0.27348
2335.49155	0.27568
2333.56299	0.27693
2331.63442	0.27842
2329.70586	0.28078
2327.77729	0.28326
2325.84873	0.28526
2323.92017	0.28710
2321.99160	0.28926
2320.06304	0.29194
2318.13447	0.29479
2316.20591	0.29734
2314.27734	0.29962
2312.34878	0.30175
2310.42021	0.30371
2308.49165	0.30576
2306.56309	0.30800
2304.63452	0.31013
2302.70596	0.31216
2300.77739	0.31430
2298.84883	0.31647
2296.92026	0.31854
2294.99170	0.32046
2293.06313	0.32234
2291.13457	0.32440
2289.20601	0.32668
2287.27744	0.32892
2285.34888	0.33102
2283.42031	0.33309
2281.49175	0.33510
2279.56318	0.33698
2277.63462	0.33890
2275.70605	0.34095
2273.77749	0.34304
2271.84893	0.34519
2269.92036	0.34729
2267.99180	0.34935
2266.06323	0.35152
2264.13467	0.35383
2262.20610	0.35616
2260.27754	0.35837
2258.34897	0.36044
2256.42041	0.36249
2254.49185	0.36459
2252.56328	0.36679
2250.63472	0.36906
2248.70615	0.37133
2246.77759	0.37353
2244.84902	0.37572
2242.92046	0.37800
2240.99189	0.38035
2239.06333	0.38270
2237.13477	0.38494
2235.20620	0.38705
2233.27764	0.38925
2231.34907	0.39155
2229.42051	0.39383
2227.49194	0.39614
2225.56338	0.39846
2223.63481	0.40071
2221.70625	0.40293
2219.77769	0.40507
2217.84912	0.40718
2215.92056	0.40935
2213.99199	0.41158
2212.06343	0.41377
2210.13486	0.41581
2208.20630	0.41776
2206.27773	0.41981
2204.34917	0.42201
2202.42061	0.42425
2200.49204	0.42637
2198.56348	0.42833
2196.63491	0.43030
2194.70635	0.43236
2192.77778	0.43435
2190.84922	0.43619
2188.92065	0.43799
2186.99209	0.43983
2185.06353	0.44166
2183.13496	0.44336
2181.20640	0.44499
2179.27783	0.44665
2177.34927	0.44834
2175.42070	0.44998
2173.49214	0.45158
2171.56357	0.45309
2169.63501	0.45449
2167.70645	0.45581
2165.77788	0.45706
2163.84932	0.45822
2161.92075	0.45936
2159.99219	0.46042
2158.06362	0.46141
2156.13506	0.46246
2154.20649	0.46354
2152.27793	0.46446
2150.34937	0.46510
2148.42080	0.46557
2146.49224	0.46610
2144.56367	0.46667
2142.63511	0.46711
2140.70654	0.46746
2138.77798	0.46777
2136.84941	0.46795
2134.92085	0.46801
2132.99229	0.46802
2131.06372	0.46800
2129.13516	0.46796
2127.20659	0.46784
2125.27803	0.46750
2123.34946	0.46691
2121.42090	0.46629
2119.49233	0.46577
2117.56377	0.46519
2115.63521	0.46453
2113.70664	0.46382
2111.77808	0.46291
2109.84951	0.46181
2107.92095	0.46073
2105.99238	0.45963
2104.06382	0.45851
2102.13525	0.45732
2100.20669	0.45602
2098.27812	0.45459
2096.34956	0.45299
2094.42100	0.45132
2092.49243	0.44966
2090.56387	0.44796
2088.63530	0.44622
2086.70674	0.44447
2084.77817	0.44261
2082.84961	0.44064
2080.92104	0.43869
2078.99248	0.43679
2077.06392	0.43475
2075.13535	0.43259
2073.20679	0.43039
2071.27822	0.42814
2069.34966	0.42585
2067.42109	0.42349
2065.49253	0.42113
2063.56396	0.41874
2061.63540	0.41629
2059.70684	0.41380
2057.77827	0.41124
2055.84971	0.40860
2053.92114	0.40599
2051.99258	0.40344
2050.06401	0.40083
2048.13545	0.39816
2046.20688	0.39542
2044.27832	0.39268
2042.34976	0.38995
2040.42119	0.38717
2038.49263	0.38441
2036.56406	0.38173
2034.63550	0.37912
2032.70693	0.37637
2030.77837	0.37343
2028.84980	0.37050
2026.92124	0.36770
2024.99268	0.36493
2023.06411	0.36213
2021.13555	0.35927
2019.20698	0.35646
2017.27842	0.35376
2015.34985	0.35106
2013.42129	0.34828
2011.49272	0.34539
2009.56416	0.34252
2007.63560	0.33971
2005.70703	0.33698
2003.77847	0.33436
2001.84990	0.33174
1999.92134	0.32904
1997.99277	0.32635
1996.06421	0.32375
1994.13564	0.32123
1992.20708	0.31872
1990.27852	0.31620
1988.34995	0.31371
1986.42139	0.31125
1984.49282	0.30876
1982.56426	0.30627
1980.63569	0.30384
1978.70713	0.30152
1976.77856	0.29925
1974.85000	0.29703
1972.92144	0.29483
1970.99287	0.29265
1969.06431	0.29057
1967.13574	0.28855
1965.20718	0.28642
1963.27861	0.28434
1961.35005	0.28237
1959.42148	0.28044
1957.49292	0.27854
1955.56436	0.27664
1953.63579	0.27482
1951.70723	0.27313
1949.77866	0.27154
1947.85010	0.26997
1945.92153	0.26841
1943.99297	0.26692
1942.06440	0.26541
1940.13584	0.26386
1938.20728	0.26238
1936.27871	0.26095
1934.35015	0.25954
1932.42158	0.25827
1930.49302	0.25705
1928.56445	0.25583
1926.63589	0.25467
1924.70732	0.25363
1922.77876	0.25265
1920.85020	0.25165
1918.92163	0.25068
1916.99307	0.24974
1915.06450	0.24883
1913.13594	0.24800
1911.20737	0.24730
1909.27881	0.24666
1907.35024	0.24601
1905.42168	0.24534
1903.49312	0.24472
1901.56455	0.24416
1899.63599	0.24362
1897.70742	0.24315
1895.77886	0.24273
1893.85029	0.24235
1891.92173	0.24197
1889.99316	0.24170
1888.06460	0.24149
1886.13604	0.24123
1884.20747	0.24094
1882.27891	0.24064
1880.35034	0.24042
1878.42178	0.24031
1876.49321	0.24031
1874.56465	0.24035
1872.63608	0.24045
1870.70752	0.24060
1868.77896	0.24091
1866.85039	0.24115
1864.92183	0.24119
1862.99326	0.24132
1861.06470	0.24161
1859.13613	0.24199
1857.20757	0.24228
1855.27900	0.24258
1853.35044	0.24300
1851.42187	0.24356
1849.49331	0.24414
1847.56475	0.24480
1845.63618	0.24557
1843.70762	0.24648
1841.77905	0.24733
1839.85049	0.24788
1837.92192	0.24859
1835.99336	0.24953
1834.06479	0.25058
1832.13623	0.25163
1830.20767	0.25293
1828.27910	0.25430
1826.35054	0.25531
1824.42197	0.25652
1822.49341	0.25792
1820.56484	0.25930
1818.63628	0.26068
1816.70771	0.26225
1814.77915	0.26390
1812.85059	0.26567
1810.92202	0.26766
1808.99346	0.26973
1807.06489	0.27169
1805.13633	0.27358
1803.20776	0.27574
1801.27920	0.27815
1799.35063	0.28087
1797.42207	0.28352
1795.49351	0.28602
1793.56494	0.28872
1791.63638	0.29222
1789.70781	0.29580
1787.77925	0.29859
1785.85068	0.30177
1783.92212	0.30545
1781.99355	0.30929
1780.06499	0.31337
1778.13643	0.31770
1776.20786	0.32177
1774.27930	0.32598
1772.35073	0.33159
1770.42217	0.33786
1768.49360	0.34339
1766.56504	0.34870
1764.63647	0.35410
1762.70791	0.35997
1760.77935	0.36732
1758.85078	0.37438
1756.92222	0.38153
1754.99365	0.38933
1753.06509	0.39640
1751.13652	0.40458
1749.20796	0.41488
1747.27939	0.42531
1745.35083	0.43457
1743.42227	0.44415
1741.49370	0.45461
1739.56514	0.46684
1737.63657	0.47915
1735.70801	0.49006
1733.77944	0.50625
1731.85088	0.52583
1729.92231	0.54174
1727.99375	0.55779
1726.06519	0.57493
1724.13662	0.59351
1722.20806	0.61364
1720.27949	0.63243
1718.35093	0.65413
1716.42236	0.68546
1714.49380	0.71585
1712.56523	0.74111
1710.63667	0.76567
1708.70811	0.79213
1706.77954	0.82209
1704.85098	0.85734
1702.92241	0.88906
1700.99385	0.92084
1699.06528	0.96747
1697.13672	1.01084
1695.20815	1.05630
1693.27959	1.10161
1691.35103	1.13847
1689.42246	1.18045
1687.49390	1.22472
1685.56533	1.26796
1683.63677	1.33379
1681.70820	1.40301
1679.77964	1.44862
1677.85107	1.49138
1675.92251	1.54022
1673.99395	1.60096
1672.06538	1.65566
1670.13682	1.70875
1668.20825	1.77788
1666.27969	1.83639
1664.35112	1.88710
1662.42256	1.95083
1660.49399	2.02393
1658.56543	2.08195
1656.63687	2.12782
1654.70830	2.16873
1652.77974	2.22983
1650.85117	2.28636
1648.92261	2.30541
1646.99404	2.32827
1645.06548	2.35392
1643.13691	2.37391
1641.20835	2.38603
1639.27979	2.39453
1637.35122	2.39713
1635.42266	2.39333
1633.49409	2.38411
1631.56553	2.36858
1629.63696	2.34923
1627.70840	2.31890
1625.77983	2.28399
1623.85127	2.24018
1621.92271	2.18693
1619.99414	2.13828
1618.06558	2.08967
1616.13701	2.02244
1614.20845	1.95497
1612.27988	1.90324
1610.35132	1.84978
1608.42275	1.79231
1606.49419	1.73552
1604.56562	1.68328
1602.63706	1.63376
1600.70850	1.58604
1598.77993	1.54191
1596.85137	1.50034
1594.92280	1.46001
1592.99424	1.42083
1591.06567	1.38504
1589.13711	1.35236
1587.20854	1.32245
1585.27998	1.29471
1583.35142	1.26902
1581.42285	1.24611
1579.49429	1.22666
1577.56572	1.20927
1575.63716	1.18937
1573.70859	1.17247
1571.78003	1.16148
1569.85146	1.15079
1567.92290	1.13973
1565.99434	1.13205
1564.06577	1.12714
1562.13721	1.12405
1560.20864	1.12369
1558.28008	1.12825
1556.35151	1.13316
1554.42295	1.13555
1552.49438	1.13807
1550.56582	1.13914
1548.63726	1.13709
1546.70869	1.13153
1544.78013	1.12223
1542.85156	1.10951
1540.92300	1.09051
1538.99443	1.06042
1537.06587	1.03746
1535.13730	1.02142
1533.20874	1.00034
1531.28018	0.97774
1529.35161	0.96097
1527.42305	0.94522
1525.49448	0.92902
1523.56592	0.91526
1521.63735	0.90235
1519.70879	0.88960
1517.78022	0.87902
1515.85166	0.86700
1513.92310	0.85400
1511.99453	0.84213
1510.06597	0.83105
1508.13740	0.81997
1506.20884	0.80394
1504.28027	0.79059
1502.35171	0.78316
1500.42314	0.77658
1498.49458	0.76948
1496.56602	0.76141
1494.63745	0.75356
1492.70889	0.74727
1490.78032	0.74142
1488.85176	0.73502
1486.92319	0.72953
1484.99463	0.72535
1483.06606	0.72214
1481.13750	0.71974
1479.20894	0.71803
1477.28037	0.71707
1475.35181	0.71688
1473.42324	0.71724
1471.49468	0.71708
1469.56611	0.71558
1467.63755	0.71339
1465.70898	0.71146
1463.78042	0.71029
1461.85186	0.70978
1459.92329	0.70967
1457.99473	0.70987
1456.06616	0.70947
1454.13760	0.70736
1452.20903	0.70475
1450.28047	0.70202
1448.35190	0.69909
1446.42334	0.69597
1444.49478	0.69309
1442.56621	0.69042
1440.63765	0.68761
1438.70908	0.68458
1436.78052	0.68093
1434.85195	0.67697
1432.92339	0.67385
1430.99482	0.67177
1429.06626	0.67076
1427.13770	0.67067
1425.20913	0.67131
1423.28057	0.67246
1421.35200	0.67338
1419.42344	0.67409
1417.49487	0.67451
1415.56631	0.67388
1413.63774	0.67298
1411.70918	0.67272
1409.78062	0.67345
1407.85205	0.67485
1405.92349	0.67657
1403.99492	0.67820
1402.06636	0.67886
1400.13779	0.67844
1398.20923	0.67691
1396.28066	0.67414
1394.35210	0.67003
1392.42354	0.66527
1390.49497	0.66082
1388.56641	0.65635
1386.63784	0.65112
1384.70928	0.64555
1382.78071	0.64032
1380.85215	0.63546
1378.92358	0.63122
1376.99502	0.62788
1375.06646	0.62548
1373.13789	0.62392
1371.20933	0.62308
1369.28076	0.62245
1367.35220	0.62146
1365.42363	0.62000
1363.49507	0.61835
1361.56650	0.61669
1359.63794	0.61510
1357.70937	0.61361
1355.78081	0.61225
1353.85225	0.61113
1351.92368	0.61028
1349.99512	0.60958
1348.06655	0.60888
1346.13799	0.60809
1344.20942	0.60728
1342.28086	0.60654
1340.35229	0.60583
1338.42373	0.60504
1336.49517	0.60433
1334.56660	0.60389
1332.63804	0.60373
1330.70947	0.60394
1328.78091	0.60447
1326.85234	0.60517
1324.92378	0.60598
1322.99521	0.60689
1321.06665	0.60783
1319.13809	0.60866
1317.20952	0.60921
1315.28096	0.60937
1313.35239	0.60913
1311.42383	0.60848
1309.49526	0.60767
1307.56670	0.60698
1305.63813	0.60645
1303.70957	0.60590
1301.78101	0.60520
1299.85244	0.60419
1297.92388	0.60280
1295.99531	0.60133
1294.06675	0.59996
1292.13818	0.59849
1290.20962	0.59703
1288.28105	0.59575
1286.35249	0.59448
1284.42393	0.59313
1282.49536	0.59160
1280.56680	0.59003
1278.63823	0.58865
1276.70967	0.58739
1274.78110	0.58616
1272.85254	0.58505
1270.92397	0.58419
1268.99541	0.58354
1267.06685	0.58290
1265.13828	0.58198
1263.20972	0.58091
1261.28115	0.58006
1259.35259	0.57937
1257.42402	0.57873
1255.49546	0.57843
1253.56689	0.57850
1251.63833	0.57866
1249.70977	0.57873
1247.78120	0.57866
1245.85264	0.57849
1243.92407	0.57806
1241.99551	0.57713
1240.06694	0.57571
1238.13838	0.57393
1236.20981	0.57185
1234.28125	0.56957
1232.35269	0.56717
1230.42412	0.56480
1228.49556	0.56261
1226.56699	0.56046
1224.63843	0.55829
1222.70986	0.55630
1220.78130	0.55462
1218.85273	0.55312
1216.92417	0.55175
1214.99561	0.55057
1213.06704	0.54956
1211.13848	0.54882
1209.20991	0.54831
1207.28135	0.54762
1205.35278	0.54657
1203.42422	0.54548
1201.49565	0.54451
1199.56709	0.54353
1197.63853	0.54268
1195.70996	0.54206
1193.78140	0.54155
1191.85283	0.54111
1189.92427	0.54061
1187.99570	0.54005
1186.06714	0.53967
1184.13857	0.53971
1182.21001	0.54034
1180.28145	0.54143
1178.35288	0.54277
1176.42432	0.54430
1174.49575	0.54584
1172.56719	0.54691
1170.63862	0.54725
1168.71006	0.54716
1166.78149	0.54702
1164.85293	0.54702
1162.92437	0.54706
1160.99580	0.54689
1159.06724	0.54644
1157.13867	0.54577
1155.21011	0.54485
1153.28154	0.54352
1151.35298	0.54162
1149.42441	0.53917
1147.49585	0.53638
1145.56729	0.53350
1143.63872	0.53069
1141.71016	0.52808
1139.78159	0.52576
1137.85303	0.52405
1135.92446	0.52315
1133.99590	0.52283
1132.06733	0.52269
1130.13877	0.52265
1128.21021	0.52252
1126.28164	0.52209
1124.35308	0.52146
1122.42451	0.52087
1120.49595	0.52061
1118.56738	0.52068
1116.63882	0.52078
1114.71025	0.52086
1112.78169	0.52100
1110.85312	0.52134
1108.92456	0.52205
1106.99600	0.52302
1105.06743	0.52405
1103.13887	0.52513
1101.21030	0.52644
1099.28174	0.52828
1097.35317	0.53050
1095.42461	0.53302
1093.49604	0.53635
1091.56748	0.54085
1089.63892	0.54634
1087.71035	0.55268
1085.78179	0.55992
1083.85322	0.56760
1081.92466	0.57442
1079.99609	0.57939
1078.06753	0.58214
1076.13896	0.58231
1074.21040	0.57969
1072.28184	0.57479
1070.35327	0.56851
1068.42471	0.56140
1066.49614	0.55416
1064.56758	0.54766
1062.63901	0.54207
1060.71045	0.53711
1058.78188	0.53268
1056.85332	0.52880
1054.92476	0.52529
1052.99619	0.52216
1051.06763	0.51954
1049.13906	0.51757
1047.21050	0.51622
1045.28193	0.51518
1043.35337	0.51406
1041.42480	0.51294
1039.49624	0.51222
1037.56768	0.51196
1035.63911	0.51173
1033.71055	0.51126
1031.78198	0.51055
1029.85342	0.50947
1027.92485	0.50808
1025.99629	0.50686
1024.06772	0.50617
1022.13916	0.50589
1020.21060	0.50584
1018.28203	0.50602
1016.35347	0.50628
1014.42490	0.50642
1012.49634	0.50655
1010.56777	0.50687
1008.63921	0.50738
1006.71064	0.50808
1004.78208	0.50917
1002.85352	0.51099
1000.92495	0.51373
998.99639	0.51719
997.06782	0.52115
995.13926	0.52542
993.21069	0.52960
991.28213	0.53309
989.35356	0.53528
987.42500	0.53616
985.49644	0.53624
983.56787	0.53621
981.63931	0.53669
979.71074	0.53784
977.78218	0.53945
975.85361	0.54138
973.92505	0.54374
971.99648	0.54677
970.06792	0.55034
968.13936	0.55416
966.21079	0.55813
964.28223	0.56224
962.35366	0.56660
960.42510	0.57141
958.49653	0.57682
956.56797	0.58262
954.63940	0.58861
952.71084	0.59485
950.78228	0.60136
948.85371	0.60794
946.92515	0.61423
944.99658	0.62023
943.06802	0.62641
941.13945	0.63280
939.21089	0.63875
937.28232	0.64420
935.35376	0.64979
933.42520	0.65574
931.49663	0.66161
929.56807	0.66724
927.63950	0.67293
925.71094	0.67920
923.78237	0.68595
921.85381	0.69223
919.92524	0.69832
917.99668	0.70551
916.06812	0.71365
914.13955	0.72162
912.21099	0.72906
910.28242	0.73613
908.35386	0.74362
906.42529	0.75238
904.49673	0.76213
902.56816	0.77183
900.63960	0.78114
898.71104	0.79075
896.78247	0.80017
894.85391	0.80891
892.92534	0.81795
890.99678	0.82817
889.06821	0.83936
887.13965	0.85086
885.21108	0.86292
883.28252	0.87498
881.35396	0.88629
879.42539	0.89791
877.49683	0.90970
875.56826	0.92092
873.63970	0.93227
871.71113	0.94437
869.78257	0.95605
867.85400	0.96698
865.92544	0.97878
863.99687	0.99161
862.06831	1.00424
860.13975	1.01656
858.21118	1.02863
856.28262	1.03847
854.35405	1.04745
852.42549	1.06006
850.49692	1.07563
848.56836	1.08880
846.63979	1.09794
844.71123	1.10814
842.78267	1.12159
840.85410	1.13470
838.92554	1.14703
836.99697	1.16104
835.06841	1.17425
833.13984	1.18459
831.21128	1.19596
829.28271	1.20956
827.35415	1.22034
825.42559	1.22663
823.49702	1.23727
821.56846	1.25453
819.63989	1.27180
817.71133	1.28587
815.78276	1.29102
813.85420	1.29322
811.92563	1.31200
809.99707	1.34183
808.06851	1.35717
806.13994	1.35889
804.21138	1.35599
802.28281	1.35287
800.35425	1.36296
798.42568	1.38562
796.49712	1.39741
794.56855	1.39231
792.63999	1.39680
790.71143	1.41671
788.78286	1.42903
786.85430	1.44515
784.92573	1.49719
782.99717	1.59450
781.06860	1.70470
779.14004	1.74704
777.21147	1.83334
775.28291	2.07764
773.35435	1.80872
771.42578	1.52226
769.49722	1.42596
767.56865	1.42293
765.64009	1.42134
763.71152	1.40307
761.78296	1.43868
759.85439	1.48349
757.92583	1.43706
755.99727	1.32506
754.06870	1.17873
752.14014	1.12208
750.21157	1.23774
748.28301	1.43477
746.35444	1.30354
744.42588	1.07626
742.49731	0.95766
740.56875	0.93891
738.64019	0.96528
736.71162	0.99250
734.78306	1.07713
732.85449	1.37656
730.92593	1.47056
728.99736	0.83341
727.06880	0.53732
725.14023	0.44141
723.21167	0.41946
721.28311	0.24848
719.35454	0.08974
717.42598	0.12880
715.49741	0.19973
713.56885	0.28683
711.64028	0.30774
709.71172	0.13077
707.78315	0.03272
705.85459	0.08314
703.92603	0.13888
701.99746	0.21833
700.06890	0.33051
698.14033	0.40904
696.21177	0.47419
694.28320	0.49117
692.35464	0.36102
690.42607	0.29323
688.49751	0.38531
686.56895	0.69900
684.64038	4.10784
682.71182	0.85227
680.78325	0.50012
678.85469	0.42790
676.92612	0.43329
674.99756	0.40977
673.06899	0.37062
671.14043	0.31817
669.21187	0.28123
667.28330	0.28050
665.35474	0.29259
663.42617	0.27497
661.49761	0.21725
659.56904	0.17968
657.64048	0.22871
655.71191	0.30536
653.78335	0.30568
651.85479	0.31424
649.92622	0.31517
647.99766	0.26004
646.06909	0.22326
644.14053	0.22060
642.21196	0.21530
640.28340	0.19140
638.35483	0.21140
636.42627	0.33747
634.49771	0.40572
632.56914	0.32634
630.64058	0.29393
628.71201	0.31224
626.78345	0.30635
624.85488	0.30135
622.92632	0.30349
620.99775	0.26671
619.06919	0.25520
617.14062	0.29518
615.21206	0.29072
613.28350	0.25634
611.35493	0.28550
609.42637	0.34944
607.49780	0.37522
605.56924	0.36726
603.64067	0.38303
601.71211	0.41014
599.78354	0.35282
597.85498	0.25093
595.92642	0.21861
593.99785	0.26181
592.06929	0.33993
590.14072	0.37161
588.21216	0.31850
586.28359	0.27257
584.35503	0.23857
582.42646	0.23280
580.49790	0.25264
578.56934	0.24679
576.64077	0.20875
574.71221	0.17280
572.78364	0.17534
570.85508	0.21393
568.92651	0.27669
566.99795	0.34483
565.06938	0.40340
563.14082	0.39588
561.21226	0.31089
559.28369	0.25459
557.35513	0.25866
555.42656	0.26726
553.49800	0.20302
551.56943	0.14897
549.64087	0.15171
547.71230	0.16025
545.78374	0.19780
543.85518	0.27344
541.92661	0.27926
539.99805	0.23249
538.06948	0.23551
536.14092	0.26317
534.21235	0.24834
532.28379	0.21508
530.35522	0.18637
528.42666	0.18669
526.49810	0.23224
524.56953	0.26434
522.64097	0.24822
520.71240	0.20242
518.78384	0.16586
516.85527	0.18324
514.92671	0.26820
512.99814	0.29976
511.06958	0.21754
509.14102	0.15832
507.21245	0.16610
505.28389	0.20784
503.35532	0.23848
501.42676	0.26003
499.49819	0.25740
