3997.91411	0.07153
3995.98555	0.07224
3994.05698	0.07330
3992.12842	0.07425
3990.19985	0.07473
3988.27129	0.07462
3986.34272	0.07434
3984.41416	0.07450
3982.48560	0.07489
3980.55703	0.07502
3978.62847	0.07495
3976.69990	0.07554
3974.77134	0.07679
3972.84277	0.07753
3970.91421	0.07755
3968.98564	0.07750
3967.05708	0.07719
3965.12852	0.07648
3963.19995	0.07638
3961.27139	0.07716
3959.34282	0.07771
3957.41426	0.07779
3955.48569	0.07783
3953.55713	0.07798
3951.62856	0.07931
3949.70000	0.08219
3947.77144	0.08415
3945.84287	0.08360
3943.91431	0.08325
3941.98574	0.08389
3940.05718	0.08246
3938.12861	0.07969
3936.20005	0.07860
3934.27148	0.08016
3932.34292	0.08376
3930.41436	0.08622
3928.48579	0.08495
3926.55723	0.08336
3924.62866	0.08457
3922.70010	0.08554
3920.77153	0.08437
3918.84297	0.08452
3916.91440	0.08594
3914.98584	0.08443
3913.05728	0.08040
3911.12871	0.07772
3909.20015	0.07764
3907.27158	0.08074
3905.34302	0.08804
3903.41445	0.09712
3901.48589	0.10170
3899.55732	0.09978
3897.62876	0.09316
3895.70020	0.08623
3893.77163	0.08493
3891.84307	0.08903
3889.91450	0.09080
3887.98594	0.08862
3886.05737	0.08981
3884.12881	0.09342
3882.20024	0.09458
3880.27168	0.09459
3878.34312	0.09148
3876.41455	0.08792
3874.48599	0.09067
3872.55742	0.09716
3870.62886	0.10205
3868.70029	0.10279
3866.77173	0.09968
3864.84316	0.09962
3862.91460	0.10137
3860.98604	0.09774
3859.05747	0.09313
3857.12891	0.09453
3855.20034	0.10312
3853.27178	0.11639
3851.34321	0.11791
3849.41465	0.10444
3847.48608	0.09399
3845.55752	0.09137
3843.62896	0.09583
3841.70039	0.10404
3839.77183	0.11263
3837.84326	0.11821
3835.91470	0.11597
3833.98613	0.10966
3832.05757	0.10532
3830.12900	0.10264
3828.20044	0.10145
3826.27187	0.10264
3824.34331	0.10527
3822.41475	0.11144
3820.48618	0.12130
3818.55762	0.12381
3816.62905	0.12005
3814.70049	0.11483
3812.77192	0.10674
3810.84336	0.10176
3808.91479	0.10376
3806.98623	0.11102
3805.05767	0.11732
3803.12910	0.12207
3801.20054	0.12870
3799.27197	0.12972
3797.34341	0.12511
3795.41484	0.12104
3793.48628	0.11596
3791.55771	0.11208
3789.62915	0.11172
3787.70059	0.11386
3785.77202	0.11777
3783.84346	0.12144
3781.91489	0.12339
3779.98633	0.12637
3778.05776	0.12895
3776.12920	0.12712
3774.20063	0.12519
3772.27207	0.12781
3770.34351	0.13459
3768.41494	0.14074
3766.48638	0.14289
3764.55781	0.14336
3762.62925	0.14377
3760.70068	0.14725
3758.77212	0.15445
3756.84355	0.15945
3754.91499	0.16192
3752.98643	0.16922
3751.05786	0.18363
3749.12930	0.19385
3747.20073	0.19270
3745.27217	0.19208
3743.34360	0.19402
3741.41504	0.19322
3739.48647	0.19360
3737.55791	0.20062
3735.62935	0.21512
3733.70078	0.22651
3731.77222	0.22364
3729.84365	0.21661
3727.91509	0.21587
3725.98652	0.22241
3724.05796	0.23130
3722.12939	0.23788
3720.20083	0.24199
3718.27227	0.24483
3716.34370	0.24863
3714.41514	0.25674
3712.48657	0.27343
3710.55801	0.29624
3708.62944	0.30925
3706.70088	0.31225
3704.77231	0.31828
3702.84375	0.33188
3700.91519	0.35058
3698.98662	0.36750
3697.05806	0.38283
3695.12949	0.40180
3693.20093	0.42521
3691.27236	0.45450
3689.34380	0.49073
3687.41523	0.52342
3685.48667	0.54440
3683.55811	0.56460
3681.62954	0.59254
3679.70098	0.62892
3677.77241	0.67057
3675.84385	0.72014
3673.91528	0.77675
3671.98672	0.81723
3670.05815	0.85644
3668.12959	0.90694
3666.20103	0.94584
3664.27246	0.97935
3662.34390	1.02099
3660.41533	1.06922
3658.48677	1.11853
3656.55820	1.17206
3654.62964	1.23013
3652.70107	1.27937
3650.77251	1.32866
3648.84395	1.39764
3646.91538	1.46525
3644.98682	1.50213
3643.05825	1.53120
3641.12969	1.56719
3639.20112	1.61021
3637.27256	1.65474
3635.34399	1.69969
3633.41543	1.74663
3631.48687	1.79270
3629.55830	1.84193
3627.62974	1.90004
3625.70117	1.94337
3623.77261	1.97072
3621.84404	2.00306
3619.91548	2.04557
3617.98691	2.09573
3616.05835	2.13929
3614.12979	2.17502
3612.20122	2.21366
3610.27266	2.25209
3608.34409	2.29082
3606.41553	2.32984
3604.48696	2.36433
3602.55840	2.39849
3600.62983	2.43836
3598.70127	2.48103
3596.77271	2.52250
3594.84414	2.56459
3592.91558	2.60636
3590.98701	2.64425
3589.05845	2.68173
3587.12988	2.72866
3585.20132	2.77551
3583.27275	2.81027
3581.34419	2.84376
3579.41562	2.88299
3577.48706	2.92561
3575.55850	2.96845
3573.62993	3.01145
3571.70137	3.05452
3569.77280	3.10021
3567.84424	3.15281
3565.91567	3.21085
3563.98711	3.25475
3562.05854	3.28672
3560.12998	3.32523
3558.20142	3.36968
3556.27285	3.41342
3554.34429	3.45714
3552.41572	3.50441
3550.48716	3.55281
3548.55859	3.60012
3546.63003	3.64925
3544.70146	3.70247
3542.77290	3.75315
3540.84434	3.79741
3538.91577	3.84072
3536.98721	3.88473
3535.05864	3.93065
3533.13008	3.97878
3531.20151	4.02810
3529.27295	4.07819
3527.34438	4.12940
3525.41582	4.17801
3523.48726	4.22211
3521.55869	4.26804
3519.63013	4.31806
3517.70156	4.36880
3515.77300	4.41585
3513.84443	4.46167
3511.91587	4.51219
3509.98730	4.56692
3508.05874	4.61951
3506.13018	4.66543
3504.20161	4.70710
3502.27305	4.75045
3500.34448	4.79938
3498.41592	4.84968
3496.48735	4.89758
3494.55879	4.94669
3492.63022	4.99861
3490.70166	5.04829
3488.77310	5.09454
3486.84453	5.14086
3484.91597	5.18920
3482.98740	5.24182
3481.05884	5.29811
3479.13027	5.35066
3477.20171	5.40033
3475.27314	5.45069
3473.34458	5.49760
3471.41602	5.54443
3469.48745	5.59262
3467.55889	5.63457
3465.63032	5.67771
3463.70176	5.73521
3461.77319	5.79204
3459.84463	5.83759
3457.91606	5.88732
3455.98750	5.94712
3454.05894	6.00503
3452.13037	6.05237
3450.20181	6.09202
3448.27324	6.13725
3446.34468	6.20484
3444.41611	6.27889
3442.48755	6.33748
3440.55898	6.38402
3438.63042	6.43047
3436.70186	6.47739
3434.77329	6.51893
3432.84473	6.57291
3430.91616	6.63770
3428.98760	6.68896
3427.05903	6.73998
3425.13047	6.81014
3423.20190	6.87213
3421.27334	6.90471
3419.34478	6.91761
3417.41621	6.94428
3415.48765	6.99844
3413.55908	7.06050
3411.63052	7.12277
3409.70195	7.16255
3407.77339	7.18679
3405.84482	7.21999
3403.91626	7.25686
3401.98770	7.29451
3400.05913	7.35431
3398.13057	7.41099
3396.20200	7.44144
3394.27344	7.51503
3392.34487	7.59854
3390.41631	7.61731
3388.48774	7.64083
3386.55918	7.73115
3384.63062	7.81715
3382.70205	7.84486
3380.77349	7.84248
3378.84492	7.81603
3376.91636	7.78674
3374.98779	7.78814
3373.05923	7.86202
3371.13066	7.96573
3369.20210	8.01373
3367.27354	7.99754
3365.34497	7.94001
3363.41641	7.88154
3361.48784	7.88960
3359.55928	7.97829
3357.63071	8.04840
3355.70215	8.04275
3353.77358	8.03414
3351.84502	8.11174
3349.91646	8.20242
3347.98789	8.18960
3346.05933	8.14830
3344.13076	8.17132
3342.20220	8.23752
3340.27363	8.27240
3338.34507	8.23563
3336.41650	8.17590
3334.48794	8.19151
3332.55937	8.24226
3330.63081	8.25882
3328.70225	8.25544
3326.77368	8.23605
3324.84512	8.23417
3322.91655	8.28321
3320.98799	8.29873
3319.05942	8.20250
3317.13086	8.14367
3315.20229	8.21521
3313.27373	8.33417
3311.34517	8.35457
3309.41660	8.29769
3307.48804	8.33170
3305.55947	8.43044
3303.63091	8.46543
3301.70234	8.45436
3299.77378	8.41336
3297.84521	8.33223
3295.91665	8.32803
3293.98809	8.36234
3292.05952	8.33726
3290.13096	8.33563
3288.20239	8.40771
3286.27383	8.50928
3284.34526	8.53980
3282.41670	8.54055
3280.48813	8.57474
3278.55957	8.59869
3276.63101	8.61218
3274.70244	8.57584
3272.77388	8.46625
3270.84531	8.43051
3268.91675	8.50435
3266.98818	8.52380
3265.05962	8.45259
3263.13105	8.37622
3261.20249	8.37209
3259.27393	8.42246
3257.34536	8.42289
3255.41680	8.40829
3253.48823	8.47012
3251.55967	8.52159
3249.63110	8.44542
3247.70254	8.31488
3245.77397	8.24371
3243.84541	8.27909
3241.91685	8.33909
3239.98828	8.34493
3238.05972	8.35170
3236.13115	8.37866
3234.20259	8.38699
3232.27402	8.38452
3230.34546	8.37454
3228.41689	8.30690
3226.48833	8.19949
3224.55977	8.13703
3222.63120	8.16503
3220.70264	8.18133
3218.77407	8.10143
3216.84551	8.07146
3214.91694	8.15702
3212.98838	8.22579
3211.05981	8.19503
3209.13125	8.11178
3207.20269	8.05830
3205.27412	8.07799
3203.34556	8.09511
3201.41699	8.05805
3199.48843	8.01890
3197.55986	7.96946
3195.63130	7.90681
3193.70273	7.86794
3191.77417	7.81271
3189.84561	7.72917
3187.91704	7.69059
3185.98848	7.68717
3184.05991	7.64390
3182.13135	7.57026
3180.20278	7.48611
3178.27422	7.40811
3176.34565	7.37101
3174.41709	7.33038
3172.48853	7.26018
3170.55996	7.19123
3168.63140	7.13142
3166.70283	7.07969
3164.77427	7.01802
3162.84570	6.93638
3160.91714	6.85592
3158.98857	6.78571
3157.06001	6.71794
3155.13145	6.65541
3153.20288	6.58678
3151.27432	6.50414
3149.34575	6.43332
3147.41719	6.38587
3145.48862	6.32472
3143.56006	6.22786
3141.63149	6.13396
3139.70293	6.05755
3137.77437	5.98869
3135.84580	5.92990
3133.91724	5.86801
3131.98867	5.79324
3130.06011	5.71700
3128.13154	5.64430
3126.20298	5.56648
3124.27441	5.48669
3122.34585	5.41599
3120.41729	5.34578
3118.48872	5.26423
3116.56016	5.18251
3114.63159	5.11034
3112.70303	5.04118
3110.77446	4.97027
3108.84590	4.89839
3106.91733	4.82577
3104.98877	4.75212
3103.06021	4.67954
3101.13164	4.60913
3099.20308	4.54051
3097.27451	4.47381
3095.34595	4.40802
3093.41738	4.33887
3091.48882	4.26609
3089.56025	4.19627
3087.63169	4.13019
3085.70312	4.06569
3083.77456	4.00216
3081.84600	3.93718
3079.91743	3.87084
3077.98887	3.80616
3076.06030	3.74379
3074.13174	3.68171
3072.20317	3.61953
3070.27461	3.55847
3068.34604	3.49967
3066.41748	3.44255
3064.48892	3.38511
3062.56035	3.32647
3060.63179	3.26765
3058.70322	3.21085
3056.77466	3.15637
3054.84609	3.10235
3052.91753	3.04883
3050.98896	2.99668
3049.06040	2.94436
3047.13184	2.89135
3045.20327	2.83959
3043.27471	2.78962
3041.34614	2.74068
3039.41758	2.69222
3037.48901	2.64440
3035.56045	2.59732
3033.63188	2.55046
3031.70332	2.50412
3029.77476	2.45856
3027.84619	2.41371
3025.91763	2.36987
3023.98906	2.32694
3022.06050	2.28473
3020.13193	2.24301
3018.20337	2.20214
3016.27480	2.16241
3014.34624	2.12297
3012.41768	2.08359
3010.48911	2.04506
3008.56055	2.00739
3006.63198	1.97032
3004.70342	1.93393
3002.77485	1.89812
3000.84629	1.86306
2998.91772	1.82871
2996.98916	1.79447
2995.06060	1.76037
2993.13203	1.72706
2991.20347	1.69448
2989.27490	1.66227
2987.34634	1.63080
2985.41777	1.60002
2983.48921	1.56955
2981.56064	1.53980
2979.63208	1.51078
2977.70352	1.48193
2975.77495	1.45330
2973.84639	1.42492
2971.91782	1.39669
2969.98926	1.36892
2968.06069	1.34177
2966.13213	1.31528
2964.20356	1.28956
2962.27500	1.26457
2960.34644	1.24019
2958.41787	1.21625
2956.48931	1.19247
2954.56074	1.16885
2952.63218	1.14570
2950.70361	1.12319
2948.77505	1.10141
2946.84648	1.08024
2944.91792	1.05888
2942.98936	1.03717
2941.06079	1.01617
2939.13223	0.99618
2937.20366	0.97657
2935.27510	0.95719
2933.34653	0.93852
2931.41797	0.92071
2929.48940	0.90317
2927.56084	0.88564
2925.63228	0.86854
2923.70371	0.85210
2921.77515	0.83593
2919.84658	0.81971
2917.91802	0.80373
2915.98945	0.78787
2914.06089	0.77232
2912.13232	0.75774
2910.20376	0.74385
2908.27520	0.73004
2906.34663	0.71653
2904.41807	0.70377
2902.48950	0.69147
2900.56094	0.67901
2898.63237	0.66662
2896.70381	0.65469
2894.77524	0.64279
2892.84668	0.63089
2890.91812	0.61953
2888.98955	0.60853
2887.06099	0.59746
2885.13242	0.58662
2883.20386	0.57622
2881.27529	0.56604
2879.34673	0.55584
2877.41816	0.54573
2875.48960	0.53592
2873.56104	0.52637
2871.63247	0.51697
2869.70391	0.50769
2867.77534	0.49845
2865.84678	0.48928
2863.91821	0.48026
2861.98965	0.47149
2860.06108	0.46310
2858.13252	0.45518
2856.20396	0.44765
2854.27539	0.44017
2852.34683	0.43244
2850.41826	0.42456
2848.48970	0.41682
2846.56113	0.40944
2844.63257	0.40266
2842.70400	0.39662
2840.77544	0.39102
2838.84687	0.38548
2836.91831	0.37998
2834.98975	0.37459
2833.06118	0.36931
2831.13262	0.36405
2829.20405	0.35887
2827.27549	0.35370
2825.34692	0.34841
2823.41836	0.34303
2821.48979	0.33771
2819.56123	0.33255
2817.63267	0.32756
2815.70410	0.32254
2813.77554	0.31738
2811.84697	0.31234
2809.91841	0.30767
2807.98984	0.30316
2806.06128	0.29864
2804.13271	0.29413
2802.20415	0.28961
2800.27559	0.28523
2798.34702	0.28122
2796.41846	0.27739
2794.48989	0.27355
2792.56133	0.26966
2790.63276	0.26566
2788.70420	0.26157
2786.77563	0.25773
2784.84707	0.25418
2782.91851	0.25073
2780.98994	0.24741
2779.06138	0.24419
2777.13281	0.24094
2775.20425	0.23767
2773.27568	0.23438
2771.34712	0.23116
2769.41855	0.22812
2767.48999	0.22522
2765.56143	0.22238
2763.63286	0.21955
2761.70430	0.21680
2759.77573	0.21415
2757.84717	0.21151
2755.91860	0.20886
2753.99004	0.20628
2752.06147	0.20384
2750.13291	0.20149
2748.20435	0.19913
2746.27578	0.19684
2744.34722	0.19479
2742.41865	0.19283
2740.49009	0.19078
2738.56152	0.18863
2736.63296	0.18641
2734.70439	0.18428
2732.77583	0.18228
2730.84727	0.18030
2728.91870	0.17847
2726.99014	0.17693
2725.06157	0.17543
2723.13301	0.17379
2721.20444	0.17207
2719.27588	0.17032
2717.34731	0.16857
2715.41875	0.16691
2713.49019	0.16543
2711.56162	0.16403
2709.63306	0.16273
2707.70449	0.16154
2705.77593	0.16033
2703.84736	0.15905
2701.91880	0.15772
2699.99023	0.15641
2698.06167	0.15518
2696.13311	0.15406
2694.20454	0.15294
2692.27598	0.15173
2690.34741	0.15060
2688.41885	0.14973
2686.49028	0.14889
2684.56172	0.14795
2682.63315	0.14698
2680.70459	0.14608
2678.77603	0.14529
2676.84746	0.14455
2674.91890	0.14379
2672.99033	0.14302
2671.06177	0.14222
2669.13320	0.14141
2667.20464	0.14071
2665.27607	0.14004
2663.34751	0.13937
2661.41895	0.13878
2659.49038	0.13828
2657.56182	0.13779
2655.63325	0.13723
2653.70469	0.13667
2651.77612	0.13632
2649.84756	0.13614
2647.91899	0.13583
2645.99043	0.13538
2644.06187	0.13504
2642.13330	0.13479
2640.20474	0.13440
2638.27617	0.13393
2636.34761	0.13360
2634.41904	0.13342
2632.49048	0.13326
2630.56191	0.13309
2628.63335	0.13294
2626.70479	0.13283
2624.77622	0.13279
2622.84766	0.13279
2620.91909	0.13280
2618.99053	0.13288
2617.06196	0.13299
2615.13340	0.13300
2613.20483	0.13287
2611.27627	0.13267
2609.34771	0.13255
2607.41914	0.13264
2605.49058	0.13287
2603.56201	0.13304
2601.63345	0.13316
2599.70488	0.13336
2597.77632	0.13365
2595.84775	0.13388
2593.91919	0.13402
2591.99062	0.13417
2590.06206	0.13444
2588.13350	0.13475
2586.20493	0.13516
2584.27637	0.13575
2582.34780	0.13632
2580.41924	0.13676
2578.49067	0.13709
2576.56211	0.13745
2574.63354	0.13790
2572.70498	0.13836
2570.77642	0.13886
2568.84785	0.13940
2566.91929	0.13992
2564.99072	0.14041
2563.06216	0.14095
2561.13359	0.14152
2559.20503	0.14208
2557.27646	0.14265
2555.34790	0.14323
2553.41934	0.14377
2551.49077	0.14434
2549.56221	0.14503
2547.63364	0.14581
2545.70508	0.14657
2543.77651	0.14720
2541.84795	0.14780
2539.91938	0.14850
2537.99082	0.14932
2536.06226	0.15016
2534.13369	0.15098
2532.20513	0.15169
2530.27656	0.15230
2528.34800	0.15299
2526.41943	0.15388
2524.49087	0.15486
2522.56230	0.15573
2520.63374	0.15650
2518.70518	0.15731
2516.77661	0.15814
2514.84805	0.15893
2512.91948	0.15974
2510.99092	0.16065
2509.06235	0.16160
2507.13379	0.16253
2505.20522	0.16337
2503.27666	0.16410
2501.34810	0.16497
2499.41953	0.16606
2497.49097	0.16708
2495.56240	0.16796
2493.63384	0.16878
2491.70527	0.16967
2489.77671	0.17066
2487.84814	0.17163
2485.91958	0.17257
2483.99102	0.17355
2482.06245	0.17461
2480.13389	0.17565
2478.20532	0.17661
2476.27676	0.17756
2474.34819	0.17849
2472.41963	0.17939
2470.49106	0.18039
2468.56250	0.18150
2466.63394	0.18263
2464.70537	0.18371
2462.77681	0.18470
2460.84824	0.18571
2458.91968	0.18680
2456.99111	0.18790
2455.06255	0.18890
2453.13398	0.18987
2451.20542	0.19092
2449.27686	0.19203
2447.34829	0.19313
2445.41973	0.19424
2443.49116	0.19537
2441.56260	0.19649
2439.63403	0.19759
2437.70547	0.19866
2435.77690	0.19980
2433.84834	0.20094
2431.91978	0.20196
2429.99121	0.20295
2428.06265	0.20403
2426.13408	0.20526
2424.20552	0.20657
2422.27695	0.20786
2420.34839	0.20912
2418.41982	0.21036
2416.49126	0.21152
2414.56270	0.21273
2412.63413	0.21403
2410.70557	0.21535
2408.77700	0.21666
2406.84844	0.21795
2404.91987	0.21922
2402.99131	0.22053
2401.06274	0.22181
2399.13418	0.22301
2397.20562	0.22426
2395.27705	0.22561
2393.34849	0.22706
2391.41992	0.22857
2389.49136	0.23015
2387.56279	0.23209
2385.63423	0.23476
2383.70566	0.23836
2381.77710	0.24299
2379.84854	0.24856
2377.91997	0.25498
2375.99141	0.26222
2374.06284	0.27043
2372.13428	0.27971
2370.20571	0.28979
2368.27715	0.29985
2366.34858	0.30901
2364.42002	0.31689
2362.49146	0.32363
2360.56289	0.32845
2358.63433	0.33010
2356.70576	0.32809
2354.77720	0.32246
2352.84863	0.31457
2350.92007	0.30638
2348.99150	0.30144
2347.06294	0.30235
2345.13437	0.30964
2343.20581	0.31930
2341.27725	0.32460
2339.34868	0.32590
2337.42012	0.32612
2335.49155	0.32606
2333.56299	0.32603
2331.63442	0.32655
2329.70586	0.32690
2327.77729	0.32638
2325.84873	0.32541
2323.92017	0.32442
2321.99160	0.32322
2320.06304	0.32146
2318.13447	0.31938
2316.20591	0.31768
2314.27734	0.31687
2312.34878	0.31681
2310.42021	0.31695
2308.49165	0.31681
2306.56309	0.31634
2304.63452	0.31589
2302.70596	0.31598
2300.77739	0.31663
2298.84883	0.31737
2296.92026	0.31809
2294.99170	0.31895
2293.06313	0.31991
2291.13457	0.32090
2289.20601	0.32206
2287.27744	0.32331
2285.34888	0.32450
2283.42031	0.32590
2281.49175	0.32784
2279.56318	0.33020
2277.63462	0.33256
2275.70605	0.33479
2273.77749	0.33701
2271.84893	0.33920
2269.92036	0.34125
2267.99180	0.34332
2266.06323	0.34552
2264.13467	0.34772
2262.20610	0.34984
2260.27754	0.35194
2258.34897	0.35404
2256.42041	0.35605
2254.49185	0.35797
2252.56328	0.35994
2250.63472	0.36196
2248.70615	0.36404
2246.77759	0.36631
2244.84902	0.36862
2242.92046	0.37085
2240.99189	0.37306
2239.06333	0.37530
2237.13477	0.37754
2235.20620	0.37978
2233.27764	0.38195
2231.34907	0.38408
2229.42051	0.38634
2227.49194	0.38882
2225.56338	0.39136
2223.63481	0.39376
2221.70625	0.39597
2219.77769	0.39814
2217.84912	0.40032
2215.92056	0.40252
2213.99199	0.40469
2212.06343	0.40686
2210.13486	0.40912
2208.20630	0.41142
2206.27773	0.41364
2204.34917	0.41571
2202.42061	0.41772
2200.49204	0.41985
2198.56348	0.42208
2196.63491	0.42420
2194.70635	0.42626
2192.77778	0.42838
2190.84922	0.43047
2188.92065	0.43242
2186.99209	0.43431
2185.06353	0.43618
2183.13496	0.43799
2181.20640	0.43971
2179.27783	0.44136
2177.34927	0.44296
2175.42070	0.44459
2173.49214	0.44624
2171.56357	0.44784
2169.63501	0.44933
2167.70645	0.45069
2165.77788	0.45202
2163.84932	0.45336
2161.92075	0.45461
2159.99219	0.45576
2158.06362	0.45692
2156.13506	0.45802
2154.20649	0.45893
2152.27793	0.45971
2150.34937	0.46048
2148.42080	0.46128
2146.49224	0.46204
2144.56367	0.46267
2142.63511	0.46317
2140.70654	0.46363
2138.77798	0.46399
2136.84941	0.46421
2134.92085	0.46433
2132.99229	0.46435
2131.06372	0.46423
2129.13516	0.46403
2127.20659	0.46382
2125.27803	0.46359
2123.34946	0.46325
2121.42090	0.46281
2119.49233	0.46237
2117.56377	0.46188
2115.63521	0.46125
2113.70664	0.46053
2111.77808	0.45974
2109.84951	0.45883
2107.92095	0.45782
2105.99238	0.45669
2104.06382	0.45550
2102.13525	0.45429
2100.20669	0.45299
2098.27812	0.45156
2096.34956	0.45013
2094.42100	0.44869
2092.49243	0.44717
2090.56387	0.44560
2088.63530	0.44391
2086.70674	0.44206
2084.77817	0.44012
2082.84961	0.43814
2080.92104	0.43616
2078.99248	0.43414
2077.06392	0.43209
2075.13535	0.43005
2073.20679	0.42788
2071.27822	0.42556
2069.34966	0.42328
2067.42109	0.42120
2065.49253	0.41920
2063.56396	0.41680
2061.63540	0.41405
2059.70684	0.41140
2057.77827	0.40883
2055.84971	0.40622
2053.92114	0.40358
2051.99258	0.40090
2050.06401	0.39831
2048.13545	0.39588
2046.20688	0.39343
2044.27832	0.39090
2042.34976	0.38836
2040.42119	0.38566
2038.49263	0.38275
2036.56406	0.37980
2034.63550	0.37686
2032.70693	0.37395
2030.77837	0.37119
2028.84980	0.36846
2026.92124	0.36572
2024.99268	0.36303
2023.06411	0.36027
2021.13555	0.35752
2019.20698	0.35516
2017.27842	0.35288
2015.34985	0.34988
2013.42129	0.34645
2011.49272	0.34339
2009.56416	0.34072
2007.63560	0.33807
2005.70703	0.33531
2003.77847	0.33258
2001.84990	0.32992
1999.92134	0.32730
1997.99277	0.32465
1996.06421	0.32214
1994.13564	0.32030
1992.20708	0.31878
1990.27852	0.31631
1988.34995	0.31303
1986.42139	0.30985
1984.49282	0.30693
1982.56426	0.30427
1980.63569	0.30179
1978.70713	0.29940
1976.77856	0.29708
1974.85000	0.29483
1972.92144	0.29261
1970.99287	0.29059
1969.06431	0.28915
1967.13574	0.28782
1965.20718	0.28550
1963.27861	0.28262
1961.35005	0.28019
1959.42148	0.27819
1957.49292	0.27638
1955.56436	0.27471
1953.63579	0.27293
1951.70723	0.27098
1949.77866	0.26920
1947.85010	0.26786
1945.92153	0.26704
1943.99297	0.26677
1942.06440	0.26600
1940.13584	0.26347
1938.20728	0.26055
1936.27871	0.25863
1934.35015	0.25735
1932.42158	0.25620
1930.49302	0.25496
1928.56445	0.25370
1926.63589	0.25274
1924.70732	0.25264
1922.77876	0.25281
1920.85020	0.25202
1918.92163	0.25109
1916.99307	0.25006
1915.06450	0.24804
1913.13594	0.24637
1911.20737	0.24610
1909.27881	0.24621
1907.35024	0.24535
1905.42168	0.24381
1903.49312	0.24265
1901.56455	0.24186
1899.63599	0.24122
1897.70742	0.24105
1895.77886	0.24130
1893.85029	0.24117
1891.92173	0.24098
1889.99316	0.24153
1888.06460	0.24130
1886.13604	0.23992
1884.20747	0.23893
1882.27891	0.23842
1880.35034	0.23809
1878.42178	0.23794
1876.49321	0.23789
1874.56465	0.23795
1872.63608	0.23878
1870.70752	0.24135
1868.77896	0.24482
1866.85039	0.24501
1864.92183	0.24210
1862.99326	0.24006
1861.06470	0.23971
1859.13613	0.24008
1857.20757	0.24040
1855.27900	0.24069
1853.35044	0.24107
1851.42187	0.24175
1849.49331	0.24308
1847.56475	0.24527
1845.63618	0.24820
1843.70762	0.25023
1841.77905	0.24914
1839.85049	0.24746
1837.92192	0.24771
1835.99336	0.24872
1834.06479	0.24963
1832.13623	0.25185
1830.20767	0.25582
1828.27910	0.25811
1826.35054	0.25814
1824.42197	0.25845
1822.49341	0.25826
1820.56484	0.25807
1818.63628	0.25902
1816.70771	0.26063
1814.77915	0.26239
1812.85059	0.26514
1810.92202	0.26857
1808.99346	0.27068
1807.06489	0.27159
1805.13633	0.27309
1803.20776	0.27637
1801.27920	0.28077
1799.35063	0.28426
1797.42207	0.28620
1795.49351	0.28883
1793.56494	0.29358
1791.63638	0.29855
1789.70781	0.29972
1787.77925	0.29949
1785.85068	0.30189
1783.92212	0.30622
1781.99355	0.31114
1780.06499	0.31594
1778.13643	0.31995
1776.20786	0.32441
1774.27930	0.33139
1772.35073	0.34067
1770.42217	0.34694
1768.49360	0.34927
1766.56504	0.35168
1764.63647	0.35592
1762.70791	0.36293
1760.77935	0.37162
1758.85078	0.37858
1756.92222	0.38558
1754.99365	0.39316
1753.06509	0.40103
1751.13652	0.41265
1749.20796	0.42641
1747.27939	0.43651
1745.35083	0.44387
1743.42227	0.45252
1741.49370	0.46299
1739.56514	0.47537
1737.63657	0.48764
1735.70801	0.50011
1733.77944	0.51969
1731.85088	0.53879
1729.92231	0.55100
1727.99375	0.56385
1726.06519	0.57939
1724.13662	0.59823
1722.20806	0.61924
1720.27949	0.64025
1718.35093	0.66747
1716.42236	0.70367
1714.49380	0.73118
1712.56523	0.75129
1710.63667	0.77301
1708.70811	0.79914
1706.77954	0.83070
1704.85098	0.86736
1702.92241	0.89894
1700.99385	0.93143
1699.06528	0.97918
1697.13672	1.01982
1695.20815	1.05699
1693.27959	1.09185
1691.35103	1.12195
1689.42246	1.15929
1687.49390	1.19951
1685.56533	1.24035
1683.63677	1.29987
1681.70820	1.35388
1679.77964	1.38613
1677.85107	1.41924
1675.92251	1.46010
1673.99395	1.51043
1672.06538	1.55463
1670.13682	1.59893
1668.20825	1.65300
1666.27969	1.69330
1664.35112	1.72817
1662.42256	1.77270
1660.49399	1.82071
1658.56543	1.85798
1656.63687	1.89080
1654.70830	1.92526
1652.77974	1.98053
1650.85117	2.03083
1648.92261	2.05251
1646.99404	2.08319
1645.06548	2.11531
1643.13691	2.13463
1641.20835	2.14805
1639.27979	2.16226
1637.35122	2.17513
1635.42266	2.18340
1633.49409	2.17948
1631.56553	2.16585
1629.63696	2.15134
1627.70840	2.13094
1625.77983	2.10716
1623.85127	2.07477
1621.92271	2.03053
1619.99414	1.98821
1618.06558	1.94907
1616.13701	1.89461
1614.20845	1.83481
1612.27988	1.78781
1610.35132	1.74059
1608.42275	1.68935
1606.49419	1.63687
1604.56562	1.58750
1602.63706	1.54024
1600.70850	1.49340
1598.77993	1.44899
1596.85137	1.40777
1594.92280	1.36855
1592.99424	1.32962
1591.06567	1.29286
1589.13711	1.25852
1587.20854	1.22657
1585.27998	1.19647
1583.35142	1.16770
1581.42285	1.14112
1579.49429	1.11903
1577.56572	1.10081
1575.63716	1.07657
1573.70859	1.05032
1571.78003	1.03278
1569.85146	1.01658
1567.92290	0.99607
1565.99434	0.97751
1564.06577	0.96242
1562.13721	0.95169
1560.20864	0.94657
1558.28008	0.93425
1556.35151	0.91221
1554.42295	0.89611
1552.49438	0.88253
1550.56582	0.87058
1548.63726	0.85923
1546.70869	0.85050
1544.78013	0.84587
1542.85156	0.84359
1540.92300	0.83971
1538.99443	0.82480
1537.06587	0.80835
1535.13730	0.79997
1533.20874	0.79309
1531.28018	0.78388
1529.35161	0.77696
1527.42305	0.77293
1525.49448	0.76927
1523.56592	0.76598
1521.63735	0.76256
1519.70879	0.75574
1517.78022	0.74849
1515.85166	0.74094
1513.92310	0.73282
1511.99453	0.72783
1510.06597	0.72737
1508.13740	0.73068
1506.20884	0.72730
1504.28027	0.71350
1502.35171	0.70500
1500.42314	0.70173
1498.49458	0.70076
1496.56602	0.69802
1494.63745	0.69209
1492.70889	0.68803
1490.78032	0.68806
1488.85176	0.68768
1486.92319	0.68202
1484.99463	0.67521
1483.06606	0.67079
1481.13750	0.66801
1479.20894	0.66561
1477.28037	0.66443
1475.35181	0.66505
1473.42324	0.66555
1471.49468	0.66120
1469.56611	0.65351
1467.63755	0.64858
1465.70898	0.64674
1463.78042	0.64476
1461.85186	0.64223
1459.92329	0.64264
1457.99473	0.64608
1456.06616	0.64463
1454.13760	0.63690
1452.20903	0.63126
1450.28047	0.62851
1448.35190	0.62729
1446.42334	0.62525
1444.49478	0.62224
1442.56621	0.61995
1440.63765	0.61888
1438.70908	0.61939
1436.78052	0.62059
1434.85195	0.61920
1432.92339	0.61641
1430.99482	0.61484
1429.06626	0.61322
1427.13770	0.61089
1425.20913	0.60956
1423.28057	0.60899
1421.35200	0.60849
1419.42344	0.60881
1417.49487	0.60740
1415.56631	0.60312
1413.63774	0.59953
1411.70918	0.59751
1409.78062	0.59599
1407.85205	0.59470
1405.92349	0.59422
1403.99492	0.59344
1402.06636	0.59181
1400.13779	0.59117
1398.20923	0.59149
1396.28066	0.59112
1394.35210	0.58911
1392.42354	0.58571
1390.49497	0.58323
1388.56641	0.58275
1386.63784	0.58226
1384.70928	0.57992
1382.78071	0.57746
1380.85215	0.57623
1378.92358	0.57571
1376.99502	0.57563
1375.06646	0.57604
1373.13789	0.57526
1371.20933	0.57306
1369.28076	0.57137
1367.35220	0.57022
1365.42363	0.56967
1363.49507	0.57030
1361.56650	0.57004
1359.63794	0.56766
1357.70937	0.56548
1355.78081	0.56440
1353.85225	0.56351
1351.92368	0.56242
1349.99512	0.56144
1348.06655	0.56050
1346.13799	0.55936
1344.20942	0.55841
1342.28086	0.55846
1340.35229	0.55936
1338.42373	0.55910
1336.49517	0.55682
1334.56660	0.55431
1332.63804	0.55263
1330.70947	0.55154
1328.78091	0.55072
1326.85234	0.55001
1324.92378	0.54921
1322.99521	0.54831
1321.06665	0.54765
1319.13809	0.54713
1317.20952	0.54624
1315.28096	0.54513
1313.35239	0.54417
1311.42383	0.54310
1309.49526	0.54192
1307.56670	0.54083
1305.63813	0.53979
1303.70957	0.53879
1301.78101	0.53787
1299.85244	0.53698
1297.92388	0.53607
1295.99531	0.53510
1294.06675	0.53406
1292.13818	0.53307
1290.20962	0.53232
1288.28105	0.53181
1286.35249	0.53122
1284.42393	0.53045
1282.49536	0.52967
1280.56680	0.52895
1278.63823	0.52821
1276.70967	0.52737
1274.78110	0.52661
1272.85254	0.52612
1270.92397	0.52560
1268.99541	0.52472
1267.06685	0.52370
1265.13828	0.52281
1263.20972	0.52215
1261.28115	0.52164
1259.35259	0.52110
1257.42402	0.52046
1255.49546	0.51980
1253.56689	0.51922
1251.63833	0.51871
1249.70977	0.51824
1247.78120	0.51775
1245.85264	0.51719
1243.92407	0.51658
1241.99551	0.51589
1240.06694	0.51517
1238.13838	0.51447
1236.20981	0.51373
1234.28125	0.51286
1232.35269	0.51194
1230.42412	0.51111
1228.49556	0.51035
1226.56699	0.50958
1224.63843	0.50871
1222.70986	0.50777
1220.78130	0.50695
1218.85273	0.50616
1216.92417	0.50522
1214.99561	0.50424
1213.06704	0.50337
1211.13848	0.50256
1209.20991	0.50169
1207.28135	0.50073
1205.35278	0.49974
1203.42422	0.49882
1201.49565	0.49800
1199.56709	0.49721
1197.63853	0.49634
1195.70996	0.49537
1193.78140	0.49436
1191.85283	0.49340
1189.92427	0.49244
1187.99570	0.49135
1186.06714	0.49017
1184.13857	0.48913
1182.21001	0.48823
1180.28145	0.48727
1178.35288	0.48638
1176.42432	0.48558
1174.49575	0.48466
1172.56719	0.48365
1170.63862	0.48272
1168.71006	0.48179
1166.78149	0.48076
1164.85293	0.47968
1162.92437	0.47865
1160.99580	0.47768
1159.06724	0.47680
1157.13867	0.47598
1155.21011	0.47514
1153.28154	0.47429
1151.35298	0.47349
1149.42441	0.47270
1147.49585	0.47185
1145.56729	0.47092
1143.63872	0.47003
1141.71016	0.46919
1139.78159	0.46834
1137.85303	0.46754
1135.92446	0.46675
1133.99590	0.46579
1132.06733	0.46481
1130.13877	0.46403
1128.21021	0.46326
1126.28164	0.46239
1124.35308	0.46163
1122.42451	0.46089
1120.49595	0.46013
1118.56738	0.45959
1116.63882	0.45916
1114.71025	0.45859
1112.78169	0.45800
1110.85312	0.45760
1108.92456	0.45734
1106.99600	0.45709
1105.06743	0.45668
1103.13887	0.45620
1101.21030	0.45590
1099.28174	0.45562
1097.35317	0.45504
1095.42461	0.45439
1093.49604	0.45404
1091.56748	0.45380
1089.63892	0.45341
1087.71035	0.45310
1085.78179	0.45301
1083.85322	0.45290
1081.92466	0.45260
1079.99609	0.45219
1078.06753	0.45176
1076.13896	0.45137
1074.21040	0.45115
1072.28184	0.45120
1070.35327	0.45130
1068.42471	0.45126
1066.49614	0.45144
1064.56758	0.45189
1062.63901	0.45223
1060.71045	0.45246
1058.78188	0.45262
1056.85332	0.45268
1054.92476	0.45291
1052.99619	0.45338
1051.06763	0.45381
1049.13906	0.45420
1047.21050	0.45460
1045.28193	0.45492
1043.35337	0.45521
1041.42480	0.45567
1039.49624	0.45625
1037.56768	0.45686
1035.63911	0.45771
1033.71055	0.45881
1031.78198	0.45994
1029.85342	0.46100
1027.92485	0.46205
1025.99629	0.46312
1024.06772	0.46406
1022.13916	0.46498
1020.21060	0.46621
1018.28203	0.46769
1016.35347	0.46920
1014.42490	0.47062
1012.49634	0.47197
1010.56777	0.47337
1008.63921	0.47489
1006.71064	0.47654
1004.78208	0.47836
1002.85352	0.48031
1000.92495	0.48224
998.99639	0.48411
997.06782	0.48607
995.13926	0.48812
993.21069	0.49023
991.28213	0.49255
989.35356	0.49509
987.42500	0.49767
985.49644	0.50034
983.56787	0.50316
981.63931	0.50604
979.71074	0.50891
977.78218	0.51180
975.85361	0.51484
973.92505	0.51811
971.99648	0.52154
970.06792	0.52521
968.13936	0.52915
966.21079	0.53311
964.28223	0.53699
962.35366	0.54079
960.42510	0.54466
958.49653	0.54898
956.56797	0.55391
954.63940	0.55905
952.71084	0.56399
950.78228	0.56870
948.85371	0.57339
946.92515	0.57841
944.99658	0.58385
943.06802	0.58960
941.13945	0.59547
939.21089	0.60134
937.28232	0.60752
935.35376	0.61427
933.42520	0.62094
931.49663	0.62713
929.56807	0.63366
927.63950	0.64087
925.71094	0.64811
923.78237	0.65543
921.85381	0.66307
919.92524	0.67100
917.99668	0.67948
916.06812	0.68803
914.13955	0.69623
912.21099	0.70446
910.28242	0.71302
908.35386	0.72198
906.42529	0.73099
904.49673	0.74003
902.56816	0.74928
900.63960	0.75834
898.71104	0.76733
896.78247	0.77672
894.85391	0.78686
892.92534	0.79757
890.99678	0.80771
889.06821	0.81783
887.13965	0.82898
885.21108	0.83967
883.28252	0.84975
881.35396	0.86070
879.42539	0.87246
877.49683	0.88439
875.56826	0.89549
873.63970	0.90609
871.71113	0.91784
869.78257	0.93008
867.85400	0.94177
865.92544	0.95290
863.99687	0.96382
862.06831	0.97594
860.13975	0.98905
858.21118	1.00075
856.28262	1.01136
854.35405	1.02309
852.42549	1.03461
850.49692	1.04396
848.56836	1.05368
846.63979	1.06796
844.71123	1.08525
842.78267	1.09877
840.85410	1.10759
838.92554	1.11586
836.99697	1.12508
835.06841	1.13450
833.13984	1.14485
831.21128	1.15889
829.28271	1.17557
827.35415	1.18935
825.42559	1.19888
823.49702	1.20773
821.56846	1.22103
819.63989	1.24175
817.71133	1.26067
815.78276	1.27108
813.85420	1.27990
811.92563	1.29106
809.99707	1.29588
808.06851	1.28955
806.13994	1.28959
804.21138	1.30699
802.28281	1.33370
800.35425	1.34674
798.42568	1.33452
796.49712	1.33150
794.56855	1.35243
792.63999	1.35197
790.71143	1.32344
788.78286	1.31763
786.85430	1.33733
784.92573	1.35517
782.99717	1.36322
781.06860	1.38823
779.14004	1.45118
777.21147	1.54080
775.28291	1.58380
773.35435	1.51876
771.42578	1.51881
769.49722	1.62827
767.56865	1.62866
765.64009	1.50505
763.71152	1.40313
761.78296	1.33416
759.85439	1.36332
757.92583	1.56662
755.99727	1.75494
754.06870	1.57412
752.14014	1.49100
750.21157	1.52416
748.28301	1.37651
746.35444	1.21284
744.42588	1.17147
742.49731	1.16980
740.56875	1.17463
738.64019	1.19204
736.71162	1.06178
734.78306	0.86066
732.85449	0.76208
730.92593	0.78412
728.99736	0.84964
727.06880	0.89061
725.14023	0.90138
723.21167	0.70512
721.28311	0.45697
719.35454	0.43100
717.42598	0.86336
715.49741	4.29298
713.56885	4.28141
711.64028	4.26984
709.71172	0.79094
707.78315	0.45877
705.85459	0.23933
703.92603	0.15270
701.99746	0.24598
700.06890	0.48940
698.14033	0.69717
696.21177	0.58897
694.28320	0.40194
692.35464	0.33989
690.42607	0.42924
688.49751	0.66979
686.56895	1.10412
684.64038	0.94102
682.71182	0.64695
680.78325	0.50361
678.85469	0.39762
676.92612	0.39129
674.99756	0.65599
673.06899	4.03841
671.14043	0.97243
669.21187	0.78951
667.28330	0.95942
665.35474	0.92025
663.42617	0.74576
661.49761	0.58287
659.56904	0.41709
657.64048	0.39109
655.71191	0.43342
653.78335	0.41494
651.85479	0.45583
649.92622	0.54797
647.99766	0.54625
646.06909	0.50073
644.14053	0.46391
642.21196	0.44595
640.28340	0.45963
638.35483	0.46876
636.42627	0.41914
634.49771	0.38504
632.56914	0.46598
630.64058	0.59179
628.71201	0.61826
626.78345	0.48960
624.85488	0.30281
622.92632	0.18643
620.99775	0.17727
619.06919	0.20954
617.14062	0.22448
615.21206	0.23642
613.28350	0.27698
611.35493	0.37660
609.42637	0.59638
607.49780	1.35682
605.56924	3.63342
603.64067	3.62184
601.71211	0.56732
599.78354	0.27689
597.85498	0.20775
595.92642	0.25273
593.99785	0.30049
592.06929	0.25993
590.14072	0.24085
588.21216	0.28306
586.28359	0.30737
584.35503	0.30340
582.42646	0.38359
580.49790	0.49051
578.56934	0.44716
576.64077	0.33453
574.71221	0.27101
572.78364	0.28079
570.85508	0.30016
568.92651	0.26176
566.99795	0.22565
565.06938	0.23621
563.14082	0.23348
561.21226	0.21860
559.28369	0.24878
557.35513	0.29996
555.42656	0.34103
553.49800	0.46355
551.56943	0.60357
549.64087	0.44791
547.71230	0.29770
545.78374	0.28660
543.85518	0.33164
541.92661	0.31396
539.99805	0.28497
538.06948	0.27246
536.14092	0.25271
534.21235	0.26224
532.28379	0.29847
530.35522	0.28567
528.42666	0.26057
526.49810	0.26468
524.56953	0.23151
522.64097	0.20394
520.71240	0.23869
518.78384	0.32137
516.85527	0.39546
514.92671	0.38653
512.99814	0.42608
511.06958	0.61602
509.14102	0.64505
507.21245	0.42570
505.28389	0.32736
503.35532	0.31361
501.42676	0.32273
499.49819	0.30663
