3997.91411	0.05578
3995.98555	0.05613
3994.05698	0.05660
3992.12842	0.05701
3990.19985	0.05752
3988.27129	0.05812
3986.34272	0.05860
3984.41416	0.05879
3982.48560	0.05861
3980.55703	0.05861
3978.62847	0.05912
3976.69990	0.05981
3974.77134	0.06041
3972.84277	0.06089
3970.91421	0.06104
3968.98564	0.06076
3967.05708	0.06036
3965.12852	0.06036
3963.19995	0.06096
3961.27139	0.06174
3959.34282	0.06210
3957.41426	0.06210
3955.48569	0.06201
3953.55713	0.06193
3951.62856	0.06217
3949.70000	0.06282
3947.77144	0.06337
3945.84287	0.06323
3943.91431	0.06303
3941.98574	0.06324
3940.05718	0.06307
3938.12861	0.06253
3936.20005	0.06228
3934.27148	0.06262
3932.34292	0.06370
3930.41436	0.06463
3928.48579	0.06423
3926.55723	0.06349
3924.62866	0.06369
3922.70010	0.06407
3920.77153	0.06396
3918.84297	0.06420
3916.91440	0.06461
3914.98584	0.06400
3913.05728	0.06258
3911.12871	0.06156
3909.20015	0.06135
3907.27158	0.06208
3905.34302	0.06412
3903.41445	0.06670
3901.48589	0.06780
3899.55732	0.06707
3897.62876	0.06524
3895.70020	0.06352
3893.77163	0.06314
3891.84307	0.06407
3889.91450	0.06487
3887.98594	0.06479
3886.05737	0.06550
3884.12881	0.06664
3882.20024	0.06655
3880.27168	0.06654
3878.34312	0.06641
3876.41455	0.06569
3874.48599	0.06619
3872.55742	0.06786
3870.62886	0.06921
3868.70029	0.06962
3866.77173	0.06891
3864.84316	0.06876
3862.91460	0.06942
3860.98604	0.06906
3859.05747	0.06826
3857.12891	0.06836
3855.20034	0.06999
3853.27178	0.07404
3851.34321	0.07652
3849.41465	0.07354
3847.48608	0.07061
3845.55752	0.07011
3843.62896	0.07167
3841.70039	0.07425
3839.77183	0.07664
3837.84326	0.07839
3835.91470	0.07898
3833.98613	0.07843
3832.05757	0.07786
3830.12900	0.07740
3828.20044	0.07723
3826.27187	0.07823
3824.34331	0.07967
3822.41475	0.08129
3820.48618	0.08456
3818.55762	0.08673
3816.62905	0.08649
3814.70049	0.08625
3812.77192	0.08533
3810.84336	0.08418
3808.91479	0.08454
3806.98623	0.08697
3805.05767	0.08975
3803.12910	0.09145
3801.20054	0.09372
3799.27197	0.09559
3797.34341	0.09580
3795.41484	0.09609
3793.48628	0.09607
3791.55771	0.09567
3789.62915	0.09593
3787.70059	0.09726
3785.77202	0.09977
3783.84346	0.10256
3781.91489	0.10427
3779.98633	0.10565
3778.05776	0.10752
3776.12920	0.10871
3774.20063	0.10950
3772.27207	0.11102
3770.34351	0.11385
3768.41494	0.11705
3766.48638	0.11882
3764.55781	0.12018
3762.62925	0.12201
3760.70068	0.12455
3758.77212	0.12804
3756.84355	0.13094
3754.91499	0.13272
3752.98643	0.13583
3751.05786	0.14211
3749.12930	0.14846
3747.20073	0.15037
3745.27217	0.15134
3743.34360	0.15478
3741.41504	0.15851
3739.48647	0.16152
3737.55791	0.16641
3735.62935	0.17458
3733.70078	0.18304
3731.77222	0.18734
3729.84365	0.18957
3727.91509	0.19263
3725.98652	0.19789
3724.05796	0.20463
3722.12939	0.21086
3720.20083	0.21650
3718.27227	0.22207
3716.34370	0.22810
3714.41514	0.23514
3712.48657	0.24528
3710.55801	0.26067
3708.62944	0.27641
3706.70088	0.28762
3704.77231	0.29772
3702.84375	0.31054
3700.91519	0.32770
3698.98662	0.34617
3697.05806	0.36352
3695.12949	0.38193
3693.20093	0.40178
3691.27236	0.42390
3689.34380	0.45235
3687.41523	0.48636
3685.48667	0.51594
3683.55811	0.54150
3681.62954	0.56945
3679.70098	0.60163
3677.77241	0.63620
3675.84385	0.67715
3673.91528	0.72999
3671.98672	0.77306
3670.05815	0.81202
3668.12959	0.86423
3666.20103	0.91170
3664.27246	0.95187
3662.34390	0.99561
3660.41533	1.04354
3658.48677	1.09113
3656.55820	1.14136
3654.62964	1.19652
3652.70107	1.24338
3650.77251	1.28552
3648.84395	1.34333
3646.91538	1.41159
3644.98682	1.46085
3643.05825	1.49882
3641.12969	1.53883
3639.20112	1.58387
3637.27256	1.62953
3635.34399	1.67396
3633.41543	1.71881
3631.48687	1.76146
3629.55830	1.80465
3627.62974	1.85924
3625.70117	1.90909
3623.77261	1.94294
3621.84404	1.97625
3619.91548	2.01545
3617.98691	2.06196
3616.05835	2.10557
3614.12979	2.14165
3612.20122	2.17970
3610.27266	2.21946
3608.34409	2.26084
3606.41553	2.30406
3604.48696	2.34308
3602.55840	2.37828
3600.62983	2.41720
3598.70127	2.45973
3596.77271	2.50117
3594.84414	2.54316
3592.91558	2.58666
3590.98701	2.62699
3589.05845	2.66387
3587.12988	2.70786
3585.20132	2.75623
3583.27275	2.79750
3581.34419	2.83557
3579.41562	2.87538
3577.48706	2.91743
3575.55850	2.96180
3573.62993	3.00753
3571.70137	3.04958
3569.77280	3.08877
3567.84424	3.13117
3565.91567	3.18222
3563.98711	3.23290
3562.05854	3.27618
3560.12998	3.31862
3558.20142	3.36297
3556.27285	3.40828
3554.34429	3.45354
3552.41572	3.50152
3550.48716	3.55110
3548.55859	3.59794
3546.63003	3.64307
3544.70146	3.69070
3542.77290	3.73932
3540.84434	3.78664
3538.91577	3.83397
3536.98721	3.88175
3535.05864	3.93250
3533.13008	3.98273
3531.20151	4.03020
3529.27295	4.07825
3527.34438	4.12774
3525.41582	4.17670
3523.48726	4.22530
3521.55869	4.27589
3519.63013	4.32618
3517.70156	4.37620
3515.77300	4.42722
3513.84443	4.47645
3511.91587	4.52104
3509.98730	4.56496
3508.05874	4.61339
3506.13018	4.66249
3504.20161	4.70877
3502.27305	4.75486
3500.34448	4.80229
3498.41592	4.85066
3496.48735	4.89919
3494.55879	4.94641
3492.63022	4.99520
3490.70166	5.04772
3488.77310	5.09926
3486.84453	5.15104
3484.91597	5.21012
3482.98740	5.26930
3481.05884	5.32042
3479.13027	5.36702
3477.20171	5.41288
3475.27314	5.46199
3473.34458	5.51353
3471.41602	5.56043
3469.48745	5.60560
3467.55889	5.65472
3465.63032	5.69951
3463.70176	5.74099
3461.77319	5.79128
3459.84463	5.84771
3457.91606	5.90118
3455.98750	5.95294
3454.05894	6.00173
3452.13037	6.04242
3450.20181	6.08704
3448.27324	6.15302
3446.34468	6.22558
3444.41611	6.27562
3442.48755	6.31870
3440.55898	6.36524
3438.63042	6.40708
3436.70186	6.45396
3434.77329	6.51339
3432.84473	6.57599
3430.91616	6.62279
3428.98760	6.66114
3427.05903	6.71513
3425.13047	6.78723
3423.20190	6.85229
3421.27334	6.90373
3419.34478	6.95598
3417.41621	7.01433
3415.48765	7.05732
3413.55908	7.06947
3411.63052	7.08773
3409.70195	7.12571
3407.77339	7.18281
3405.84482	7.25300
3403.91626	7.29477
3401.98770	7.30469
3400.05913	7.34356
3398.13057	7.40974
3396.20200	7.45948
3394.27344	7.50669
3392.34487	7.53744
3390.41631	7.55748
3388.48774	7.59878
3386.55918	7.66135
3384.63062	7.72145
3382.70205	7.75488
3380.77349	7.77581
3378.84492	7.80474
3376.91636	7.84445
3374.98779	7.87504
3373.05923	7.87672
3371.13066	7.85839
3369.20210	7.87827
3367.27354	7.92427
3365.34497	7.95845
3363.41641	8.00288
3361.48784	8.03042
3359.55928	8.04155
3357.63071	8.07685
3355.70215	8.11778
3353.77358	8.16001
3351.84502	8.22416
3349.91646	8.22319
3347.98789	8.14058
3346.05933	8.08227
3344.13076	8.09327
3342.20220	8.12789
3340.27363	8.12461
3338.34507	8.11202
3336.41650	8.11888
3334.48794	8.16660
3332.55937	8.21934
3330.63081	8.21437
3328.70225	8.21041
3326.77368	8.26619
3324.84512	8.31777
3322.91655	8.31162
3320.98799	8.32044
3319.05942	8.35639
3317.13086	8.34249
3315.20229	8.26461
3313.27373	8.20517
3311.34517	8.20689
3309.41660	8.27100
3307.48804	8.35086
3305.55947	8.35987
3303.63091	8.35763
3301.70234	8.44166
3299.77378	8.53982
3297.84521	8.47903
3295.91665	8.34690
3293.98809	8.32053
3292.05952	8.38447
3290.13096	8.40636
3288.20239	8.34367
3286.27383	8.31523
3284.34526	8.35118
3282.41670	8.37890
3280.48813	8.38037
3278.55957	8.38923
3276.63101	8.37393
3274.70244	8.32704
3272.77388	8.30114
3270.84531	8.31651
3268.91675	8.39490
3266.98818	8.51513
3265.05962	8.63507
3263.13105	8.73341
3261.20249	8.72184
3259.27393	8.56787
3257.34536	8.40860
3255.41680	8.32869
3253.48823	8.36429
3251.55967	8.48604
3249.63110	8.53205
3247.70254	8.45755
3245.77397	8.38132
3243.84541	8.36340
3241.91685	8.34811
3239.98828	8.32384
3238.05972	8.32091
3236.13115	8.32799
3234.20259	8.33903
3232.27402	8.31666
3230.34546	8.28886
3228.41689	8.33522
3226.48833	8.38446
3224.55977	8.32879
3222.63120	8.27004
3220.70264	8.28416
3218.77407	8.28414
3216.84551	8.25661
3214.91694	8.29296
3212.98838	8.37387
3211.05981	8.38059
3209.13125	8.30985
3207.20269	8.23627
3205.27412	8.18404
3203.34556	8.13105
3201.41699	8.03320
3199.48843	7.90870
3197.55986	7.83061
3195.63130	7.82481
3193.70273	7.82907
3191.77417	7.78436
3189.84561	7.74064
3187.91704	7.72973
3185.98848	7.71440
3184.05991	7.68816
3182.13135	7.64723
3180.20278	7.55382
3178.27422	7.42414
3176.34565	7.34372
3174.41709	7.30572
3172.48853	7.22999
3170.55996	7.13888
3168.63140	7.08565
3166.70283	7.05558
3164.77427	7.02272
3162.84570	6.98329
3160.91714	6.94680
3158.98857	6.90876
3157.06001	6.84092
3155.13145	6.74594
3153.20288	6.64117
3151.27432	6.54563
3149.34575	6.48384
3147.41719	6.43921
3145.48862	6.37656
3143.56006	6.28525
3141.63149	6.18509
3139.70293	6.10825
3137.77437	6.05072
3135.84580	5.98107
3133.91724	5.90070
3131.98867	5.82222
3130.06011	5.74413
3128.13154	5.67276
3126.20298	5.60847
3124.27441	5.54125
3122.34585	5.46621
3120.41729	5.39045
3118.48872	5.31831
3116.56016	5.24502
3114.63159	5.17347
3112.70303	5.10552
3110.77446	5.03444
3108.84590	4.96070
3106.91733	4.88841
3104.98877	4.81641
3103.06021	4.74591
3101.13164	4.67900
3099.20308	4.61585
3097.27451	4.55392
3095.34595	4.48995
3093.41738	4.42408
3091.48882	4.35648
3089.56025	4.28832
3087.63169	4.22095
3085.70312	4.15519
3083.77456	4.09250
3081.84600	4.03052
3079.91743	3.96611
3077.98887	3.90205
3076.06030	3.84079
3074.13174	3.77965
3072.20317	3.71817
3070.27461	3.65913
3068.34604	3.60339
3066.41748	3.54888
3064.48892	3.49329
3062.56035	3.43694
3060.63179	3.38165
3058.70322	3.32721
3056.77466	3.27223
3054.84609	3.21754
3052.91753	3.16425
3050.98896	3.11152
3049.06040	3.05894
3047.13184	3.00737
3045.20327	2.95716
3043.27471	2.90793
3041.34614	2.85863
3039.41758	2.80923
3037.48901	2.76107
3035.56045	2.71454
3033.63188	2.66919
3031.70332	2.62423
3029.77476	2.57879
3027.84619	2.53374
3025.91763	2.48996
3023.98906	2.44635
3022.06050	2.40288
3020.13193	2.36069
3018.20337	2.31941
3016.27480	2.27886
3014.34624	2.23928
3012.41768	2.20017
3010.48911	2.16170
3008.56055	2.12408
3006.63198	2.08680
3004.70342	2.04978
3002.77485	2.01350
3000.84629	1.97847
2998.91772	1.94425
2996.98916	1.90998
2995.06060	1.87622
2993.13203	1.84385
2991.20347	1.81239
2989.27490	1.78136
2987.34634	1.75145
2985.41777	1.72282
2983.48921	1.69443
2981.56064	1.66570
2979.63208	1.63698
2977.70352	1.60858
2975.77495	1.58079
2973.84639	1.55370
2971.91782	1.52697
2969.98926	1.50052
2968.06069	1.47440
2966.13213	1.44820
2964.20356	1.42207
2962.27500	1.39682
2960.34644	1.37216
2958.41787	1.34744
2956.48931	1.32305
2954.56074	1.29894
2952.63218	1.27484
2950.70361	1.25164
2948.77505	1.22925
2946.84648	1.20642
2944.91792	1.18337
2942.98936	1.16116
2941.06079	1.13960
2939.13223	1.11783
2937.20366	1.09593
2935.27510	1.07447
2933.34653	1.05319
2931.41797	1.03181
2929.48940	1.01091
2927.56084	0.99031
2925.63228	0.96965
2923.70371	0.94995
2921.77515	0.93142
2919.84658	0.91363
2917.91802	0.89721
2915.98945	0.88239
2914.06089	0.86858
2912.13232	0.85498
2910.20376	0.84136
2908.27520	0.82821
2906.34663	0.81530
2904.41807	0.80183
2902.48950	0.78831
2900.56094	0.77557
2898.63237	0.76345
2896.70381	0.75162
2894.77524	0.73988
2892.84668	0.72817
2890.91812	0.71676
2888.98955	0.70564
2887.06099	0.69466
2885.13242	0.68407
2883.20386	0.67381
2881.27529	0.66356
2879.34673	0.65332
2877.41816	0.64304
2875.48960	0.63257
2873.56104	0.62208
2871.63247	0.61145
2869.70391	0.60051
2867.77534	0.58924
2865.84678	0.57759
2863.91821	0.56553
2861.98965	0.55323
2860.06108	0.54113
2858.13252	0.52944
2856.20396	0.51806
2854.27539	0.50735
2852.34683	0.49759
2850.41826	0.48864
2848.48970	0.48072
2846.56113	0.47436
2844.63257	0.46923
2842.70400	0.46450
2840.77544	0.45974
2838.84687	0.45475
2836.91831	0.44960
2834.98975	0.44445
2833.06118	0.43938
2831.13262	0.43423
2829.20405	0.42868
2827.27549	0.42289
2825.34692	0.41713
2823.41836	0.41123
2821.48979	0.40516
2819.56123	0.39920
2817.63267	0.39347
2815.70410	0.38783
2813.77554	0.38213
2811.84697	0.37656
2809.91841	0.37116
2807.98984	0.36568
2806.06128	0.36026
2804.13271	0.35508
2802.20415	0.35004
2800.27559	0.34509
2798.34702	0.34022
2796.41846	0.33542
2794.48989	0.33069
2792.56133	0.32602
2790.63276	0.32154
2788.70420	0.31724
2786.77563	0.31279
2784.84707	0.30817
2782.91851	0.30373
2780.98994	0.29962
2779.06138	0.29568
2777.13281	0.29173
2775.20425	0.28780
2773.27568	0.28402
2771.34712	0.28039
2769.41855	0.27678
2767.48999	0.27317
2765.56143	0.26968
2763.63286	0.26625
2761.70430	0.26275
2759.77573	0.25930
2757.84717	0.25606
2755.91860	0.25299
2753.99004	0.25003
2752.06147	0.24703
2750.13291	0.24395
2748.20435	0.24089
2746.27578	0.23812
2744.34722	0.23561
2742.41865	0.23297
2740.49009	0.23006
2738.56152	0.22718
2736.63296	0.22454
2734.70439	0.22219
2732.77583	0.21992
2730.84727	0.21761
2728.91870	0.21526
2726.99014	0.21285
2725.06157	0.21048
2723.13301	0.20834
2721.20444	0.20634
2719.27588	0.20433
2717.34731	0.20231
2715.41875	0.20046
2713.49019	0.19881
2711.56162	0.19714
2709.63306	0.19532
2707.70449	0.19340
2705.77593	0.19154
2703.84736	0.18980
2701.91880	0.18816
2699.99023	0.18660
2698.06167	0.18503
2696.13311	0.18356
2694.20454	0.18237
2692.27598	0.18121
2690.34741	0.17984
2688.41885	0.17845
2686.49028	0.17718
2684.56172	0.17593
2682.63315	0.17463
2680.70459	0.17337
2678.77603	0.17223
2676.84746	0.17123
2674.91890	0.17020
2672.99033	0.16906
2671.06177	0.16788
2669.13320	0.16666
2667.20464	0.16553
2665.27607	0.16459
2663.34751	0.16381
2661.41895	0.16303
2659.49038	0.16214
2657.56182	0.16132
2655.63325	0.16054
2653.70469	0.15959
2651.77612	0.15872
2649.84756	0.15813
2647.91899	0.15762
2645.99043	0.15709
2644.06187	0.15653
2642.13330	0.15597
2640.20474	0.15547
2638.27617	0.15492
2636.34761	0.15433
2634.41904	0.15383
2632.49048	0.15337
2630.56191	0.15287
2628.63335	0.15237
2626.70479	0.15197
2624.77622	0.15170
2622.84766	0.15153
2620.91909	0.15140
2618.99053	0.15119
2617.06196	0.15088
2615.13340	0.15068
2613.20483	0.15065
2611.27627	0.15060
2609.34771	0.15040
2607.41914	0.15020
2605.49058	0.15008
2603.56201	0.14997
2601.63345	0.14992
2599.70488	0.14997
2597.77632	0.15001
2595.84775	0.15005
2593.91919	0.15022
2591.99062	0.15052
2590.06206	0.15077
2588.13350	0.15085
2586.20493	0.15094
2584.27637	0.15115
2582.34780	0.15138
2580.41924	0.15166
2578.49067	0.15207
2576.56211	0.15239
2574.63354	0.15258
2572.70498	0.15285
2570.77642	0.15312
2568.84785	0.15337
2566.91929	0.15379
2564.99072	0.15432
2563.06216	0.15483
2561.13359	0.15528
2559.20503	0.15572
2557.27646	0.15620
2555.34790	0.15670
2553.41934	0.15723
2551.49077	0.15781
2549.56221	0.15845
2547.63364	0.15905
2545.70508	0.15961
2543.77651	0.16018
2541.84795	0.16080
2539.91938	0.16146
2537.99082	0.16207
2536.06226	0.16267
2534.13369	0.16336
2532.20513	0.16413
2530.27656	0.16483
2528.34800	0.16549
2526.41943	0.16621
2524.49087	0.16699
2522.56230	0.16783
2520.63374	0.16861
2518.70518	0.16928
2516.77661	0.16997
2514.84805	0.17071
2512.91948	0.17150
2510.99092	0.17242
2509.06235	0.17337
2507.13379	0.17419
2505.20522	0.17490
2503.27666	0.17564
2501.34810	0.17649
2499.41953	0.17742
2497.49097	0.17823
2495.56240	0.17891
2493.63384	0.17975
2491.70527	0.18080
2489.77671	0.18182
2487.84814	0.18270
2485.91958	0.18354
2483.99102	0.18438
2482.06245	0.18512
2480.13389	0.18596
2478.20532	0.18698
2476.27676	0.18791
2474.34819	0.18872
2472.41963	0.18961
2470.49106	0.19057
2468.56250	0.19148
2466.63394	0.19239
2464.70537	0.19337
2462.77681	0.19439
2460.84824	0.19537
2458.91968	0.19635
2456.99111	0.19734
2455.06255	0.19828
2453.13398	0.19923
2451.20542	0.20025
2449.27686	0.20133
2447.34829	0.20237
2445.41973	0.20334
2443.49116	0.20428
2441.56260	0.20520
2439.63403	0.20614
2437.70547	0.20721
2435.77690	0.20833
2433.84834	0.20943
2431.91978	0.21051
2429.99121	0.21158
2428.06265	0.21262
2426.13408	0.21362
2424.20552	0.21462
2422.27695	0.21577
2420.34839	0.21700
2418.41982	0.21816
2416.49126	0.21928
2414.56270	0.22041
2412.63413	0.22154
2410.70557	0.22266
2408.77700	0.22379
2406.84844	0.22492
2404.91987	0.22619
2402.99131	0.22761
2401.06274	0.22900
2399.13418	0.23025
2397.20562	0.23141
2395.27705	0.23253
2393.34849	0.23368
2391.41992	0.23503
2389.49136	0.23670
2387.56279	0.23876
2385.63423	0.24151
2383.70566	0.24533
2381.77710	0.25043
2379.84854	0.25661
2377.91997	0.26350
2375.99141	0.27122
2374.06284	0.28022
2372.13428	0.29062
2370.20571	0.30168
2368.27715	0.31220
2366.34858	0.32187
2364.42002	0.33086
2362.49146	0.33900
2360.56289	0.34551
2358.63433	0.34768
2356.70576	0.34407
2354.77720	0.33662
2352.84863	0.32751
2350.92007	0.31820
2348.99150	0.31211
2347.06294	0.31236
2345.13437	0.31987
2343.20581	0.33021
2341.27725	0.33628
2339.34868	0.33831
2337.42012	0.33849
2335.49155	0.33758
2333.56299	0.33665
2331.63442	0.33690
2329.70586	0.33779
2327.77729	0.33781
2325.84873	0.33637
2323.92017	0.33420
2321.99160	0.33220
2320.06304	0.33027
2318.13447	0.32783
2316.20591	0.32534
2314.27734	0.32396
2312.34878	0.32381
2310.42021	0.32382
2308.49165	0.32320
2306.56309	0.32213
2304.63452	0.32122
2302.70596	0.32093
2300.77739	0.32130
2298.84883	0.32200
2296.92026	0.32282
2294.99170	0.32362
2293.06313	0.32440
2291.13457	0.32521
2289.20601	0.32610
2287.27744	0.32708
2285.34888	0.32812
2283.42031	0.32932
2281.49175	0.33102
2279.56318	0.33328
2277.63462	0.33572
2275.70605	0.33803
2273.77749	0.34017
2271.84893	0.34219
2269.92036	0.34426
2267.99180	0.34651
2266.06323	0.34876
2264.13467	0.35086
2262.20610	0.35286
2260.27754	0.35477
2258.34897	0.35663
2256.42041	0.35860
2254.49185	0.36076
2252.56328	0.36293
2250.63472	0.36497
2248.70615	0.36695
2246.77759	0.36898
2244.84902	0.37105
2242.92046	0.37319
2240.99189	0.37542
2239.06333	0.37767
2237.13477	0.37995
2235.20620	0.38215
2233.27764	0.38429
2231.34907	0.38648
2229.42051	0.38875
2227.49194	0.39109
2225.56338	0.39342
2223.63481	0.39566
2221.70625	0.39783
2219.77769	0.40001
2217.84912	0.40218
2215.92056	0.40433
2213.99199	0.40651
2212.06343	0.40879
2210.13486	0.41112
2208.20630	0.41332
2206.27773	0.41539
2204.34917	0.41743
2202.42061	0.41953
2200.49204	0.42160
2198.56348	0.42366
2196.63491	0.42576
2194.70635	0.42784
2192.77778	0.42978
2190.84922	0.43157
2188.92065	0.43337
2186.99209	0.43530
2185.06353	0.43722
2183.13496	0.43897
2181.20640	0.44063
2179.27783	0.44229
2177.34927	0.44387
2175.42070	0.44536
2173.49214	0.44697
2171.56357	0.44866
2169.63501	0.45013
2167.70645	0.45135
2165.77788	0.45244
2163.84932	0.45351
2161.92075	0.45459
2159.99219	0.45570
2158.06362	0.45682
2156.13506	0.45797
2154.20649	0.45895
2152.27793	0.45969
2150.34937	0.46042
2148.42080	0.46119
2146.49224	0.46184
2144.56367	0.46232
2142.63511	0.46270
2140.70654	0.46300
2138.77798	0.46327
2136.84941	0.46345
2134.92085	0.46350
2132.99229	0.46348
2131.06372	0.46351
2129.13516	0.46347
2127.20659	0.46321
2125.27803	0.46285
2123.34946	0.46244
2121.42090	0.46187
2119.49233	0.46123
2117.56377	0.46065
2115.63521	0.46008
2113.70664	0.45941
2111.77808	0.45860
2109.84951	0.45763
2107.92095	0.45650
2105.99238	0.45523
2104.06382	0.45396
2102.13525	0.45272
2100.20669	0.45144
2098.27812	0.45005
2096.34956	0.44856
2094.42100	0.44699
2092.49243	0.44540
2090.56387	0.44381
2088.63530	0.44210
2086.70674	0.44019
2084.77817	0.43819
2082.84961	0.43621
2080.92104	0.43420
2078.99248	0.43212
2077.06392	0.42999
2075.13535	0.42781
2073.20679	0.42557
2071.27822	0.42334
2069.34966	0.42116
2067.42109	0.41897
2065.49253	0.41675
2063.56396	0.41435
2061.63540	0.41177
2059.70684	0.40911
2057.77827	0.40642
2055.84971	0.40382
2053.92114	0.40137
2051.99258	0.39887
2050.06401	0.39618
2048.13545	0.39350
2046.20688	0.39092
2044.27832	0.38831
2042.34976	0.38561
2040.42119	0.38284
2038.49263	0.37996
2036.56406	0.37708
2034.63550	0.37428
2032.70693	0.37154
2030.77837	0.36878
2028.84980	0.36589
2026.92124	0.36300
2024.99268	0.36019
2023.06411	0.35747
2021.13555	0.35473
2019.20698	0.35200
2017.27842	0.34931
2015.34985	0.34649
2013.42129	0.34359
2011.49272	0.34074
2009.56416	0.33798
2007.63560	0.33532
2005.70703	0.33267
2003.77847	0.32993
2001.84990	0.32716
1999.92134	0.32448
1997.99277	0.32179
1996.06421	0.31910
1994.13564	0.31670
1992.20708	0.31452
1990.27852	0.31212
1988.34995	0.30943
1986.42139	0.30672
1984.49282	0.30415
1982.56426	0.30174
1980.63569	0.29939
1978.70713	0.29707
1976.77856	0.29484
1974.85000	0.29266
1972.92144	0.29046
1970.99287	0.28832
1969.06431	0.28633
1967.13574	0.28442
1965.20718	0.28235
1963.27861	0.28017
1961.35005	0.27811
1959.42148	0.27619
1957.49292	0.27440
1955.56436	0.27267
1953.63579	0.27091
1951.70723	0.26914
1949.77866	0.26749
1947.85010	0.26592
1945.92153	0.26439
1943.99297	0.26302
1942.06440	0.26167
1940.13584	0.26001
1938.20728	0.25829
1936.27871	0.25685
1934.35015	0.25557
1932.42158	0.25431
1930.49302	0.25301
1928.56445	0.25181
1926.63589	0.25077
1924.70732	0.24993
1922.77876	0.24910
1920.85020	0.24806
1918.92163	0.24715
1916.99307	0.24639
1915.06450	0.24540
1913.13594	0.24432
1911.20737	0.24355
1909.27881	0.24300
1907.35024	0.24231
1905.42168	0.24148
1903.49312	0.24078
1901.56455	0.24025
1899.63599	0.23975
1897.70742	0.23934
1895.77886	0.23905
1893.85029	0.23869
1891.92173	0.23835
1889.99316	0.23832
1888.06460	0.23815
1886.13604	0.23761
1884.20747	0.23718
1882.27891	0.23693
1880.35034	0.23678
1878.42178	0.23673
1876.49321	0.23672
1874.56465	0.23670
1872.63608	0.23689
1870.70752	0.23753
1868.77896	0.23856
1866.85039	0.23894
1864.92183	0.23847
1862.99326	0.23820
1861.06470	0.23840
1859.13613	0.23884
1857.20757	0.23919
1855.27900	0.23949
1853.35044	0.23982
1851.42187	0.24031
1849.49331	0.24100
1847.56475	0.24193
1845.63618	0.24317
1843.70762	0.24444
1841.77905	0.24504
1839.85049	0.24521
1837.92192	0.24584
1835.99336	0.24670
1834.06479	0.24759
1832.13623	0.24881
1830.20767	0.25071
1828.27910	0.25240
1826.35054	0.25333
1824.42197	0.25447
1822.49341	0.25557
1820.56484	0.25655
1818.63628	0.25778
1816.70771	0.25935
1814.77915	0.26105
1812.85059	0.26303
1810.92202	0.26532
1808.99346	0.26743
1807.06489	0.26924
1805.13633	0.27107
1803.20776	0.27342
1801.27920	0.27625
1799.35063	0.27921
1797.42207	0.28172
1795.49351	0.28412
1793.56494	0.28715
1791.63638	0.29104
1789.70781	0.29429
1787.77925	0.29650
1785.85068	0.29948
1783.92212	0.30330
1781.99355	0.30748
1780.06499	0.31185
1778.13643	0.31615
1776.20786	0.32023
1774.27930	0.32485
1772.35073	0.33112
1770.42217	0.33746
1768.49360	0.34228
1766.56504	0.34687
1764.63647	0.35191
1762.70791	0.35789
1760.77935	0.36545
1758.85078	0.37240
1756.92222	0.37929
1754.99365	0.38679
1753.06509	0.39380
1751.13652	0.40240
1749.20796	0.41296
1747.27939	0.42280
1745.35083	0.43126
1743.42227	0.44043
1741.49370	0.45087
1739.56514	0.46315
1737.63657	0.47541
1735.70801	0.48667
1733.77944	0.50368
1731.85088	0.52336
1729.92231	0.53882
1727.99375	0.55453
1726.06519	0.57167
1724.13662	0.59055
1722.20806	0.61097
1720.27949	0.63035
1718.35093	0.65336
1716.42236	0.68586
1714.49380	0.71610
1712.56523	0.74092
1710.63667	0.76534
1708.70811	0.79177
1706.77954	0.82187
1704.85098	0.85736
1702.92241	0.88913
1700.99385	0.92116
1699.06528	0.96819
1697.13672	1.01100
1695.20815	1.05408
1693.27959	1.09693
1691.35103	1.13261
1689.42246	1.17373
1687.49390	1.21685
1685.56533	1.25883
1683.63677	1.32190
1681.70820	1.38690
1679.77964	1.42924
1677.85107	1.46972
1675.92251	1.51672
1673.99395	1.57458
1672.06538	1.62677
1670.13682	1.67772
1668.20825	1.74216
1666.27969	1.79584
1664.35112	1.84291
1662.42256	1.90121
1660.49399	1.96637
1658.56543	2.01853
1656.63687	2.06089
1654.70830	2.09813
1652.77974	2.15245
1650.85117	2.20776
1648.92261	2.23135
1646.99404	2.25729
1645.06548	2.28337
1643.13691	2.29974
1641.20835	2.30847
1639.27979	2.31830
1637.35122	2.32636
1635.42266	2.32764
1633.49409	2.31922
1631.56553	2.30285
1629.63696	2.28404
1627.70840	2.25669
1625.77983	2.22451
1623.85127	2.18183
1621.92271	2.13039
1619.99414	2.08480
1618.06558	2.03925
1616.13701	1.97518
1614.20845	1.91041
1612.27988	1.86077
1610.35132	1.80942
1608.42275	1.75373
1606.49419	1.69796
1604.56562	1.64628
1602.63706	1.59752
1600.70850	1.55064
1598.77993	1.50705
1596.85137	1.46590
1594.92280	1.42599
1592.99424	1.38704
1591.06567	1.35135
1589.13711	1.31863
1587.20854	1.28839
1585.27998	1.26029
1583.35142	1.23440
1581.42285	1.21137
1579.49429	1.19183
1577.56572	1.17418
1575.63716	1.15305
1573.70859	1.13416
1571.78003	1.12181
1569.85146	1.10991
1567.92290	1.09668
1565.99434	1.08611
1564.06577	1.07828
1562.13721	1.07279
1560.20864	1.07022
1558.28008	1.06931
1556.35151	1.06756
1554.42295	1.06565
1552.49438	1.06417
1550.56582	1.06170
1548.63726	1.05695
1546.70869	1.05035
1544.78013	1.04190
1542.85156	1.03091
1540.92300	1.01463
1538.99443	0.98900
1537.06587	0.96869
1535.13730	0.95491
1533.20874	0.93804
1531.28018	0.91976
1529.35161	0.90589
1527.42305	0.89342
1525.49448	0.88087
1523.56592	0.87003
1521.63735	0.85996
1519.70879	0.84967
1517.78022	0.84056
1515.85166	0.83003
1513.92310	0.81848
1511.99453	0.80836
1510.06597	0.79988
1508.13740	0.79238
1506.20884	0.78028
1504.28027	0.76770
1502.35171	0.76012
1500.42314	0.75419
1498.49458	0.74833
1496.56602	0.74164
1494.63745	0.73475
1492.70889	0.72920
1490.78032	0.72463
1488.85176	0.71976
1486.92319	0.71458
1484.99463	0.70996
1483.06606	0.70654
1481.13750	0.70394
1479.20894	0.70170
1477.28037	0.70030
1475.35181	0.69998
1473.42324	0.69995
1471.49468	0.69837
1469.56611	0.69535
1467.63755	0.69270
1465.70898	0.69090
1463.78042	0.68949
1461.85186	0.68849
1459.92329	0.68857
1457.99473	0.68968
1456.06616	0.68943
1454.13760	0.68658
1452.20903	0.68368
1450.28047	0.68125
1448.35190	0.67906
1446.42334	0.67662
1444.49478	0.67398
1442.56621	0.67153
1440.63765	0.66935
1438.70908	0.66757
1436.78052	0.66549
1434.85195	0.66241
1432.92339	0.65952
1430.99482	0.65767
1429.06626	0.65679
1427.13770	0.65650
1425.20913	0.65666
1423.28057	0.65711
1421.35200	0.65740
1419.42344	0.65770
1417.49487	0.65747
1415.56631	0.65599
1413.63774	0.65444
1411.70918	0.65364
1409.78062	0.65370
1407.85205	0.65443
1405.92349	0.65554
1403.99492	0.65623
1402.06636	0.65586
1400.13779	0.65495
1398.20923	0.65356
1396.28066	0.65136
1394.35210	0.64809
1392.42354	0.64404
1390.49497	0.64032
1388.56641	0.63700
1386.63784	0.63313
1384.70928	0.62877
1382.78071	0.62474
1380.85215	0.62111
1378.92358	0.61799
1376.99502	0.61567
1375.06646	0.61425
1373.13789	0.61339
1371.20933	0.61273
1369.28076	0.61213
1367.35220	0.61122
1365.42363	0.60999
1363.49507	0.60881
1361.56650	0.60743
1359.63794	0.60574
1357.70937	0.60423
1355.78081	0.60295
1353.85225	0.60173
1351.92368	0.60068
1349.99512	0.59984
1348.06655	0.59894
1346.13799	0.59783
1344.20942	0.59675
1342.28086	0.59607
1340.35229	0.59566
1338.42373	0.59481
1336.49517	0.59358
1334.56660	0.59274
1332.63804	0.59242
1330.70947	0.59222
1328.78091	0.59204
1326.85234	0.59212
1324.92378	0.59254
1322.99521	0.59311
1321.06665	0.59375
1319.13809	0.59430
1317.20952	0.59443
1315.28096	0.59404
1313.35239	0.59330
1311.42383	0.59238
1309.49526	0.59148
1307.56670	0.59069
1305.63813	0.59002
1303.70957	0.58921
1301.78101	0.58810
1299.85244	0.58688
1297.92388	0.58574
1295.99531	0.58457
1294.06675	0.58323
1292.13818	0.58182
1290.20962	0.58044
1288.28105	0.57920
1286.35249	0.57808
1284.42393	0.57701
1282.49536	0.57588
1280.56680	0.57470
1278.63823	0.57348
1276.70967	0.57226
1274.78110	0.57112
1272.85254	0.57016
1270.92397	0.56941
1268.99541	0.56881
1267.06685	0.56825
1265.13828	0.56761
1263.20972	0.56691
1261.28115	0.56622
1259.35259	0.56565
1257.42402	0.56518
1255.49546	0.56486
1253.56689	0.56477
1251.63833	0.56485
1249.70977	0.56494
1247.78120	0.56482
1245.85264	0.56442
1243.92407	0.56387
1241.99551	0.56326
1240.06694	0.56237
1238.13838	0.56094
1236.20981	0.55911
1234.28125	0.55727
1232.35269	0.55553
1230.42412	0.55375
1228.49556	0.55194
1226.56699	0.55020
1224.63843	0.54845
1222.70986	0.54662
1220.78130	0.54487
1218.85273	0.54351
1216.92417	0.54244
1214.99561	0.54137
1213.06704	0.54027
1211.13848	0.53936
1209.20991	0.53875
1207.28135	0.53831
1205.35278	0.53785
1203.42422	0.53721
1201.49565	0.53630
1199.56709	0.53517
1197.63853	0.53407
1195.70996	0.53317
1193.78140	0.53249
1191.85283	0.53193
1189.92427	0.53138
1187.99570	0.53082
1186.06714	0.53045
1184.13857	0.53047
1182.21001	0.53079
1180.28145	0.53132
1178.35288	0.53225
1176.42432	0.53358
1174.49575	0.53492
1172.56719	0.53592
1170.63862	0.53657
1168.71006	0.53706
1166.78149	0.53766
1164.85293	0.53842
1162.92437	0.53912
1160.99580	0.53955
1159.06724	0.53968
1157.13867	0.53949
1155.21011	0.53893
1153.28154	0.53784
1151.35298	0.53612
1149.42441	0.53381
1147.49585	0.53105
1145.56729	0.52813
1143.63872	0.52523
1141.71016	0.52257
1139.78159	0.52054
1137.85303	0.51924
1135.92446	0.51839
1133.99590	0.51785
1132.06733	0.51779
1130.13877	0.51807
1128.21021	0.51822
1126.28164	0.51796
1124.35308	0.51757
1122.42451	0.51737
1120.49595	0.51738
1118.56738	0.51753
1116.63882	0.51787
1114.71025	0.51848
1112.78169	0.51935
1110.85312	0.52051
1108.92456	0.52189
1106.99600	0.52319
1105.06743	0.52416
1103.13887	0.52494
1101.21030	0.52575
1099.28174	0.52680
1097.35317	0.52840
1095.42461	0.53079
1093.49604	0.53431
1091.56748	0.53931
1089.63892	0.54586
1087.71035	0.55393
1085.78179	0.56321
1083.85322	0.57252
1081.92466	0.58047
1079.99609	0.58615
1078.06753	0.58887
1076.13896	0.58832
1074.21040	0.58478
1072.28184	0.57887
1070.35327	0.57178
1068.42471	0.56471
1066.49614	0.55819
1064.56758	0.55220
1062.63901	0.54646
1060.71045	0.54109
1058.78188	0.53664
1056.85332	0.53310
1054.92476	0.52992
1052.99619	0.52700
1051.06763	0.52457
1049.13906	0.52276
1047.21050	0.52184
1045.28193	0.52186
1043.35337	0.52230
1041.42480	0.52261
1039.49624	0.52277
1037.56768	0.52297
1035.63911	0.52307
1033.71055	0.52272
1031.78198	0.52177
1029.85342	0.52012
1027.92485	0.51795
1025.99629	0.51587
1024.06772	0.51440
1022.13916	0.51352
1020.21060	0.51287
1018.28203	0.51217
1016.35347	0.51139
1014.42490	0.51075
1012.49634	0.51025
1010.56777	0.50991
1008.63921	0.50991
1006.71064	0.51022
1004.78208	0.51090
1002.85352	0.51239
1000.92495	0.51497
998.99639	0.51851
997.06782	0.52269
995.13926	0.52716
993.21069	0.53118
991.28213	0.53412
989.35356	0.53599
987.42500	0.53682
985.49644	0.53665
983.56787	0.53616
981.63931	0.53610
979.71074	0.53667
977.78218	0.53786
975.85361	0.53973
973.92505	0.54226
971.99648	0.54522
970.06792	0.54843
968.13936	0.55189
966.21079	0.55573
964.28223	0.56010
962.35366	0.56503
960.42510	0.57029
958.49653	0.57574
956.56797	0.58134
954.63940	0.58713
952.71084	0.59323
950.78228	0.59954
948.85371	0.60595
946.92515	0.61245
944.99658	0.61882
943.06802	0.62492
941.13945	0.63110
939.21089	0.63755
937.28232	0.64390
935.35376	0.64978
933.42520	0.65540
931.49663	0.66121
929.56807	0.66703
927.63950	0.67259
925.71094	0.67838
923.78237	0.68471
921.85381	0.69154
919.92524	0.69896
917.99668	0.70617
916.06812	0.71275
914.13955	0.71994
912.21099	0.72840
910.28242	0.73733
908.35386	0.74604
906.42529	0.75420
904.49673	0.76199
902.56816	0.77033
900.63960	0.78016
898.71104	0.79119
896.78247	0.80197
894.85391	0.81233
892.92534	0.82308
890.99678	0.83366
889.06821	0.84399
887.13965	0.85514
885.21108	0.86634
883.28252	0.87623
881.35396	0.88600
879.42539	0.89763
877.49683	0.91037
875.56826	0.92252
873.63970	0.93402
871.71113	0.94498
869.78257	0.95541
867.85400	0.96597
865.92544	0.97698
863.99687	0.98841
862.06831	1.00030
860.13975	1.01230
858.21118	1.02432
856.28262	1.03678
854.35405	1.04885
852.42549	1.05949
850.49692	1.07082
848.56836	1.08341
846.63979	1.09643
844.71123	1.11078
842.78267	1.12354
840.85410	1.13324
838.92554	1.14370
836.99697	1.15621
835.06841	1.16838
833.13984	1.17952
831.21128	1.18925
829.28271	1.19739
827.35415	1.20860
825.42559	1.21999
823.49702	1.22766
821.56846	1.24087
819.63989	1.25970
817.71133	1.27444
815.78276	1.28607
813.85420	1.30016
811.92563	1.31541
809.99707	1.32577
808.06851	1.33531
806.13994	1.35066
804.21138	1.35389
802.28281	1.34114
800.35425	1.34277
798.42568	1.37473
796.49712	1.41090
794.56855	1.42373
792.63999	1.43419
790.71143	1.44702
788.78286	1.44923
786.85430	1.43841
784.92573	1.42340
782.99717	1.40276
781.06860	1.39314
779.14004	1.44794
777.21147	1.54668
775.28291	1.62737
773.35435	1.68133
771.42578	1.65957
769.49722	1.60373
767.56865	1.58413
765.64009	1.57734
763.71152	1.58171
761.78296	1.59984
759.85439	1.53838
757.92583	1.41870
755.99727	1.37712
754.06870	1.43882
752.14014	1.51006
750.21157	1.47734
748.28301	1.38619
746.35444	1.31741
744.42588	1.27969
742.49731	1.23079
740.56875	1.16676
738.64019	1.17097
736.71162	1.19904
734.78306	1.03043
732.85449	0.84198
730.92593	0.76196
728.99736	0.75447
727.06880	0.71773
725.14023	0.63969
723.21167	0.62195
721.28311	0.60549
719.35454	0.54883
717.42598	0.54144
715.49741	0.61572
713.56885	0.39384
711.64028	-0.14816
709.71172	0.08196
707.78315	0.26487
705.85459	0.32428
703.92603	0.37983
701.99746	0.52337
700.06890	0.47948
698.14033	0.23198
696.21177	0.16533
694.28320	0.29038
692.35464	0.41670
690.42607	0.31148
688.49751	0.18058
686.56895	0.17551
684.64038	0.25538
682.71182	0.31512
680.78325	0.33310
678.85469	0.31101
676.92612	0.26068
674.99756	0.21983
673.06899	0.23169
671.14043	0.34450
669.21187	0.57874
667.28330	0.60036
665.35474	0.33990
663.42617	0.22067
661.49761	0.23174
659.56904	0.26552
657.64048	0.26293
655.71191	0.26666
653.78335	0.37728
651.85479	0.52987
649.92622	0.44230
647.99766	0.27795
646.06909	0.16889
644.14053	0.16468
642.21196	0.28437
640.28340	0.44721
638.35483	0.43853
636.42627	0.38306
634.49771	0.41123
632.56914	0.41582
630.64058	0.37759
628.71201	0.34035
626.78345	0.30657
624.85488	0.28959
622.92632	0.27384
620.99775	0.22569
619.06919	0.17665
617.14062	0.17747
615.21206	0.23083
613.28350	0.32271
611.35493	0.42213
609.42637	0.46220
607.49780	0.37422
605.56924	0.25500
603.64067	0.24023
601.71211	0.29028
599.78354	0.29653
597.85498	0.28135
595.92642	0.25366
593.99785	0.23973
592.06929	0.27551
590.14072	0.29432
588.21216	0.26974
586.28359	0.22956
584.35503	0.18972
582.42646	0.19236
580.49790	0.26029
578.56934	0.38333
576.64077	0.49065
574.71221	0.47824
572.78364	0.30560
570.85508	0.22188
568.92651	0.29077
566.99795	0.48487
565.06938	0.41637
563.14082	0.19261
561.21226	0.11560
559.28369	0.16208
557.35513	0.27669
555.42656	0.28509
553.49800	0.19590
551.56943	0.18192
549.64087	0.22926
547.71230	0.21153
545.78374	0.14695
543.85518	0.13867
541.92661	0.17956
539.99805	0.23073
538.06948	0.24791
536.14092	0.23628
534.21235	0.25381
532.28379	0.27983
530.35522	0.21317
528.42666	0.14705
526.49810	0.18759
524.56953	0.26803
522.64097	0.28304
520.71240	0.26335
518.78384	0.21085
516.85527	0.14299
514.92671	0.11923
512.99814	0.13866
511.06958	0.18363
509.14102	0.23354
507.21245	0.27131
505.28389	0.28179
503.35532	0.27086
501.42676	0.25429
499.49819	0.23277
