3997.91411	0.04846
3995.98555	0.04866
3994.05698	0.04913
3992.12842	0.04961
3990.19985	0.04999
3988.27129	0.05019
3986.34272	0.05031
3984.41416	0.05070
3982.48560	0.05134
3980.55703	0.05176
3978.62847	0.05192
3976.69990	0.05207
3974.77134	0.05226
3972.84277	0.05260
3970.91421	0.05288
3968.98564	0.05273
3967.05708	0.05233
3965.12852	0.05206
3963.19995	0.05226
3961.27139	0.05288
3959.34282	0.05346
3957.41426	0.05386
3955.48569	0.05407
3953.55713	0.05403
3951.62856	0.05427
3949.70000	0.05487
3947.77144	0.05512
3945.84287	0.05498
3943.91431	0.05517
3941.98574	0.05567
3940.05718	0.05534
3938.12861	0.05428
3936.20005	0.05376
3934.27148	0.05428
3932.34292	0.05558
3930.41436	0.05679
3928.48579	0.05691
3926.55723	0.05629
3924.62866	0.05610
3922.70010	0.05610
3920.77153	0.05581
3918.84297	0.05596
3916.91440	0.05637
3914.98584	0.05573
3913.05728	0.05440
3911.12871	0.05358
3909.20015	0.05333
3907.27158	0.05366
3905.34302	0.05537
3903.41445	0.05818
3901.48589	0.05982
3899.55732	0.05956
3897.62876	0.05817
3895.70020	0.05638
3893.77163	0.05572
3891.84307	0.05665
3889.91450	0.05755
3887.98594	0.05730
3886.05737	0.05744
3884.12881	0.05827
3882.20024	0.05859
3880.27168	0.05886
3878.34312	0.05856
3876.41455	0.05781
3874.48599	0.05857
3872.55742	0.06040
3870.62886	0.06192
3868.70029	0.06272
3866.77173	0.06208
3864.84316	0.06168
3862.91460	0.06236
3860.98604	0.06220
3859.05747	0.06122
3857.12891	0.06115
3855.20034	0.06311
3853.27178	0.06756
3851.34321	0.06994
3849.41465	0.06695
3847.48608	0.06391
3845.55752	0.06295
3843.62896	0.06397
3841.70039	0.06618
3839.77183	0.06888
3837.84326	0.07153
3835.91470	0.07240
3833.98613	0.07151
3832.05757	0.07083
3830.12900	0.07073
3828.20044	0.07060
3826.27187	0.07094
3824.34331	0.07205
3822.41475	0.07420
3820.48618	0.07779
3818.55762	0.07911
3816.62905	0.07798
3814.70049	0.07750
3812.77192	0.07674
3810.84336	0.07585
3808.91479	0.07659
3806.98623	0.07934
3805.05767	0.08215
3803.12910	0.08416
3801.20054	0.08687
3799.27197	0.08829
3797.34341	0.08774
3795.41484	0.08771
3793.48628	0.08766
3791.55771	0.08743
3789.62915	0.08794
3787.70059	0.08932
3785.77202	0.09150
3783.84346	0.09380
3781.91489	0.09542
3779.98633	0.09724
3778.05776	0.09936
3776.12920	0.10025
3774.20063	0.10068
3772.27207	0.10222
3770.34351	0.10550
3768.41494	0.10946
3766.48638	0.11185
3764.55781	0.11312
3762.62925	0.11421
3760.70068	0.11624
3758.77212	0.11997
3756.84355	0.12358
3754.91499	0.12599
3752.98643	0.12920
3751.05786	0.13500
3749.12930	0.14096
3747.20073	0.14301
3745.27217	0.14449
3743.34360	0.14823
3741.41504	0.15121
3739.48647	0.15310
3737.55791	0.15709
3735.62935	0.16461
3733.70078	0.17268
3731.77222	0.17665
3729.84365	0.17842
3727.91509	0.18128
3725.98652	0.18657
3724.05796	0.19338
3722.12939	0.20005
3720.20083	0.20654
3718.27227	0.21303
3716.34370	0.21975
3714.41514	0.22740
3712.48657	0.23825
3710.55801	0.25380
3708.62944	0.26865
3706.70088	0.27937
3704.77231	0.28972
3702.84375	0.30276
3700.91519	0.32000
3698.98662	0.33868
3697.05806	0.35642
3695.12949	0.37543
3693.20093	0.39606
3691.27236	0.41941
3689.34380	0.44943
3687.41523	0.48385
3685.48667	0.51282
3683.55811	0.53812
3681.62954	0.56628
3679.70098	0.59900
3677.77241	0.63425
3675.84385	0.67651
3673.91528	0.73127
3671.98672	0.77481
3670.05815	0.81371
3668.12959	0.86641
3666.20103	0.91378
3664.27246	0.95369
3662.34390	0.99746
3660.41533	1.04539
3658.48677	1.09313
3656.55820	1.14377
3654.62964	1.19910
3652.70107	1.24610
3650.77251	1.28927
3648.84395	1.34850
3646.91538	1.41627
3644.98682	1.46388
3643.05825	1.50113
3641.12969	1.54077
3639.20112	1.58502
3637.27256	1.62962
3635.34399	1.67333
3633.41543	1.71723
3631.48687	1.75811
3629.55830	1.79957
3627.62974	1.85369
3625.70117	1.90417
3623.77261	1.93827
3621.84404	1.97115
3619.91548	2.00956
3617.98691	2.05450
3616.05835	2.09603
3614.12979	2.13216
3612.20122	2.17242
3610.27266	2.21308
3608.34409	2.25308
3606.41553	2.29524
3604.48696	2.33442
3602.55840	2.36948
3600.62983	2.40706
3598.70127	2.44786
3596.77271	2.48838
3594.84414	2.53020
3592.91558	2.57323
3590.98701	2.61222
3589.05845	2.64811
3587.12988	2.69279
3585.20132	2.74124
3583.27275	2.78008
3581.34419	2.81618
3579.41562	2.85602
3577.48706	2.89858
3575.55850	2.94162
3573.62993	2.98529
3571.70137	3.02800
3569.77280	3.06957
3567.84424	3.11338
3565.91567	3.16413
3563.98711	3.21178
3562.05854	3.25214
3560.12998	3.29468
3558.20142	3.33927
3556.27285	3.38282
3554.34429	3.42706
3552.41572	3.47562
3550.48716	3.52556
3548.55859	3.57343
3546.63003	3.62002
3544.70146	3.66718
3542.77290	3.71466
3540.84434	3.76104
3538.91577	3.80835
3536.98721	3.85685
3535.05864	3.90470
3533.13008	3.95083
3531.20151	3.99830
3529.27295	4.04694
3527.34438	4.09589
3525.41582	4.14618
3523.48726	4.19473
3521.55869	4.24087
3519.63013	4.28724
3517.70156	4.33652
3515.77300	4.38667
3513.84443	4.43325
3511.91587	4.47935
3509.98730	4.53183
3508.05874	4.58660
3506.13018	4.63597
3504.20161	4.68377
3502.27305	4.73347
3500.34448	4.78116
3498.41592	4.82844
3496.48735	4.87637
3494.55879	4.92161
3492.63022	4.97036
3490.70166	5.02507
3488.77310	5.07814
3486.84453	5.12493
3484.91597	5.16981
3482.98740	5.22207
3481.05884	5.28040
3479.13027	5.33109
3477.20171	5.37016
3475.27314	5.40819
3473.34458	5.45379
3471.41602	5.50787
3469.48745	5.56577
3467.55889	5.62325
3465.63032	5.67836
3463.70176	5.72837
3461.77319	5.77129
3459.84463	5.81346
3457.91606	5.86007
3455.98750	5.90965
3454.05894	5.96086
3452.13037	6.01425
3450.20181	6.06300
3448.27324	6.10263
3446.34468	6.15202
3444.41611	6.21675
3442.48755	6.28333
3440.55898	6.34036
3438.63042	6.37660
3436.70186	6.39798
3434.77329	6.43477
3432.84473	6.49887
3430.91616	6.56718
3428.98760	6.63390
3427.05903	6.70121
3425.13047	6.75571
3423.20190	6.80510
3421.27334	6.87063
3419.34478	6.91472
3417.41621	6.93106
3415.48765	6.97129
3413.55908	7.01853
3411.63052	7.04935
3409.70195	7.08727
3407.77339	7.15757
3405.84482	7.24347
3403.91626	7.33764
3401.98770	7.41862
3400.05913	7.43374
3398.13057	7.41407
3396.20200	7.41578
3394.27344	7.44293
3392.34487	7.48245
3390.41631	7.54375
3388.48774	7.60275
3386.55918	7.63839
3384.63062	7.66196
3382.70205	7.68981
3380.77349	7.72011
3378.84492	7.74067
3376.91636	7.77738
3374.98779	7.83663
3373.05923	7.89827
3371.13066	7.92996
3369.20210	7.95233
3367.27354	7.97246
3365.34497	7.99195
3363.41641	8.05776
3361.48784	8.12510
3359.55928	8.14903
3357.63071	8.18618
3355.70215	8.25305
3353.77358	8.24277
3351.84502	8.15571
3349.91646	8.12609
3347.98789	8.19080
3346.05933	8.24800
3344.13076	8.24749
3342.20220	8.22934
3340.27363	8.20913
3338.34507	8.21535
3336.41650	8.20381
3334.48794	8.19079
3332.55937	8.23200
3330.63081	8.29555
3328.70225	8.34696
3326.77368	8.32447
3324.84512	8.23138
3322.91655	8.19041
3320.98799	8.24240
3319.05942	8.28295
3317.13086	8.28133
3315.20229	8.31015
3313.27373	8.38306
3311.34517	8.43878
3309.41660	8.43163
3307.48804	8.36803
3305.55947	8.30902
3303.63091	8.30829
3301.70234	8.35818
3299.77378	8.45069
3297.84521	8.49847
3295.91665	8.41078
3293.98809	8.26865
3292.05952	8.24806
3290.13096	8.36584
3288.20239	8.42723
3286.27383	8.36381
3284.34526	8.32519
3282.41670	8.39674
3280.48813	8.43594
3278.55957	8.36779
3276.63101	8.34911
3274.70244	8.42425
3272.77388	8.47725
3270.84531	8.46776
3268.91675	8.53505
3266.98818	8.68351
3265.05962	8.65832
3263.13105	8.47523
3261.20249	8.38599
3259.27393	8.36139
3257.34536	8.32567
3255.41680	8.30027
3253.48823	8.30521
3251.55967	8.35916
3249.63110	8.41041
3247.70254	8.40660
3245.77397	8.33148
3243.84541	8.24460
3241.91685	8.24419
3239.98828	8.32237
3238.05972	8.40191
3236.13115	8.42051
3234.20259	8.35956
3232.27402	8.25642
3230.34546	8.17084
3228.41689	8.13145
3226.48833	8.11832
3224.55977	8.11494
3222.63120	8.15919
3220.70264	8.22648
3218.77407	8.25309
3216.84551	8.26245
3214.91694	8.23589
3212.98838	8.15183
3211.05981	8.07833
3209.13125	8.05118
3207.20269	8.04753
3205.27412	8.02459
3203.34556	7.96916
3201.41699	7.93070
3199.48843	7.93192
3197.55986	7.89859
3195.63130	7.81565
3193.70273	7.75536
3191.77417	7.68512
3189.84561	7.57284
3187.91704	7.48949
3185.98848	7.47262
3184.05991	7.46445
3182.13135	7.42072
3180.20278	7.39836
3178.27422	7.42842
3176.34565	7.45220
3174.41709	7.40492
3172.48853	7.31490
3170.55996	7.22372
3168.63140	7.11639
3166.70283	7.01630
3164.77427	6.95287
3162.84570	6.90351
3160.91714	6.85394
3158.98857	6.80528
3157.06001	6.73992
3155.13145	6.65780
3153.20288	6.57801
3151.27432	6.50317
3149.34575	6.42982
3147.41719	6.35854
3145.48862	6.28987
3143.56006	6.22561
3141.63149	6.15596
3139.70293	6.06837
3137.77437	5.97786
3135.84580	5.89720
3133.91724	5.82221
3131.98867	5.75517
3130.06011	5.70144
3128.13154	5.64576
3126.20298	5.56736
3124.27441	5.48182
3122.34585	5.40578
3120.41729	5.32587
3118.48872	5.23899
3116.56016	5.16107
3114.63159	5.09227
3112.70303	5.02125
3110.77446	4.94884
3108.84590	4.87999
3106.91733	4.81059
3104.98877	4.73530
3103.06021	4.65921
3101.13164	4.58773
3099.20308	4.51992
3097.27451	4.45170
3095.34595	4.38065
3093.41738	4.30963
3091.48882	4.24215
3089.56025	4.17781
3087.63169	4.11203
3085.70312	4.04489
3083.77456	3.97928
3081.84600	3.91359
3079.91743	3.84819
3077.98887	3.78564
3076.06030	3.72422
3074.13174	3.66248
3072.20317	3.60284
3070.27461	3.54507
3068.34604	3.48630
3066.41748	3.42574
3064.48892	3.36512
3062.56035	3.30713
3060.63179	3.25235
3058.70322	3.19800
3056.77466	3.14155
3054.84609	3.08441
3052.91753	3.02924
3050.98896	2.97626
3049.06040	2.92389
3047.13184	2.87111
3045.20327	2.81932
3043.27471	2.76981
3041.34614	2.72128
3039.41758	2.67277
3037.48901	2.62523
3035.56045	2.57881
3033.63188	2.53311
3031.70332	2.48778
3029.77476	2.44220
3027.84619	2.39737
3025.91763	2.35393
3023.98906	2.31084
3022.06050	2.26826
3020.13193	2.22666
3018.20337	2.18528
3016.27480	2.14401
3014.34624	2.10397
3012.41768	2.06554
3010.48911	2.02763
3008.56055	1.99000
3006.63198	1.95329
3004.70342	1.91729
3002.77485	1.88186
3000.84629	1.84687
2998.91772	1.81151
2996.98916	1.77628
2995.06060	1.74252
2993.13203	1.70993
2991.20347	1.67777
2989.27490	1.64575
2987.34634	1.61414
2985.41777	1.58340
2983.48921	1.55297
2981.56064	1.52218
2979.63208	1.49164
2977.70352	1.46191
2975.77495	1.43282
2973.84639	1.40446
2971.91782	1.37703
2969.98926	1.34983
2968.06069	1.32217
2966.13213	1.29463
2964.20356	1.26804
2962.27500	1.24234
2960.34644	1.21758
2958.41787	1.19385
2956.48931	1.17051
2954.56074	1.14727
2952.63218	1.12430
2950.70361	1.10151
2948.77505	1.07914
2946.84648	1.05737
2944.91792	1.03587
2942.98936	1.01452
2941.06079	0.99344
2939.13223	0.97301
2937.20366	0.95340
2935.27510	0.93412
2933.34653	0.91489
2931.41797	0.89593
2929.48940	0.87738
2927.56084	0.85921
2925.63228	0.84164
2923.70371	0.82474
2921.77515	0.80802
2919.84658	0.79131
2917.91802	0.77509
2915.98945	0.75976
2914.06089	0.74524
2912.13232	0.73139
2910.20376	0.71807
2908.27520	0.70514
2906.34663	0.69265
2904.41807	0.68051
2902.48950	0.66837
2900.56094	0.65600
2898.63237	0.64373
2896.70381	0.63195
2894.77524	0.62071
2892.84668	0.60955
2890.91812	0.59831
2888.98955	0.58730
2887.06099	0.57642
2885.13242	0.56551
2883.20386	0.55493
2881.27529	0.54473
2879.34673	0.53455
2877.41816	0.52442
2875.48960	0.51466
2873.56104	0.50514
2871.63247	0.49564
2869.70391	0.48612
2867.77534	0.47683
2865.84678	0.46777
2863.91821	0.45864
2861.98965	0.44950
2860.06108	0.44068
2858.13252	0.43230
2856.20396	0.42419
2854.27539	0.41613
2852.34683	0.40803
2850.41826	0.40010
2848.48970	0.39269
2846.56113	0.38597
2844.63257	0.37995
2842.70400	0.37458
2840.77544	0.36970
2838.84687	0.36501
2836.91831	0.36029
2834.98975	0.35549
2833.06118	0.35060
2831.13262	0.34556
2829.20405	0.34040
2827.27549	0.33524
2825.34692	0.33017
2823.41836	0.32499
2821.48979	0.31963
2819.56123	0.31441
2817.63267	0.30937
2815.70410	0.30436
2813.77554	0.29944
2811.84697	0.29465
2809.91841	0.28990
2807.98984	0.28522
2806.06128	0.28063
2804.13271	0.27613
2802.20415	0.27180
2800.27559	0.26756
2798.34702	0.26340
2796.41846	0.25929
2794.48989	0.25522
2792.56133	0.25132
2790.63276	0.24761
2788.70420	0.24398
2786.77563	0.24040
2784.84707	0.23690
2782.91851	0.23352
2780.98994	0.23022
2779.06138	0.22688
2777.13281	0.22360
2775.20425	0.22037
2773.27568	0.21712
2771.34712	0.21404
2769.41855	0.21128
2767.48999	0.20865
2765.56143	0.20584
2763.63286	0.20288
2761.70430	0.19998
2759.77573	0.19721
2757.84717	0.19456
2755.91860	0.19208
2753.99004	0.18967
2752.06147	0.18721
2750.13291	0.18473
2748.20435	0.18237
2746.27578	0.18016
2744.34722	0.17806
2742.41865	0.17595
2740.49009	0.17374
2738.56152	0.17152
2736.63296	0.16949
2734.70439	0.16762
2732.77583	0.16580
2730.84727	0.16398
2728.91870	0.16212
2726.99014	0.16035
2725.06157	0.15873
2723.13301	0.15700
2721.20444	0.15522
2719.27588	0.15368
2717.34731	0.15230
2715.41875	0.15080
2713.49019	0.14928
2711.56162	0.14792
2709.63306	0.14660
2707.70449	0.14518
2705.77593	0.14378
2703.84736	0.14252
2701.91880	0.14134
2699.99023	0.14006
2698.06167	0.13878
2696.13311	0.13779
2694.20454	0.13696
2692.27598	0.13595
2690.34741	0.13480
2688.41885	0.13373
2686.49028	0.13273
2684.56172	0.13175
2682.63315	0.13076
2680.70459	0.12984
2678.77603	0.12904
2676.84746	0.12830
2674.91890	0.12758
2672.99033	0.12690
2671.06177	0.12625
2669.13320	0.12557
2667.20464	0.12485
2665.27607	0.12417
2663.34751	0.12358
2661.41895	0.12303
2659.49038	0.12253
2657.56182	0.12210
2655.63325	0.12166
2653.70469	0.12118
2651.77612	0.12079
2649.84756	0.12050
2647.91899	0.12015
2645.99043	0.11977
2644.06187	0.11942
2642.13330	0.11903
2640.20474	0.11870
2638.27617	0.11855
2636.34761	0.11844
2634.41904	0.11823
2632.49048	0.11795
2630.56191	0.11774
2628.63335	0.11765
2626.70479	0.11759
2624.77622	0.11753
2622.84766	0.11748
2620.91909	0.11740
2618.99053	0.11727
2617.06196	0.11719
2615.13340	0.11736
2613.20483	0.11762
2611.27627	0.11771
2609.34771	0.11775
2607.41914	0.11789
2605.49058	0.11808
2603.56201	0.11827
2601.63345	0.11847
2599.70488	0.11865
2597.77632	0.11890
2595.84775	0.11912
2593.91919	0.11921
2591.99062	0.11938
2590.06206	0.11973
2588.13350	0.12014
2586.20493	0.12053
2584.27637	0.12101
2582.34780	0.12152
2580.41924	0.12197
2578.49067	0.12244
2576.56211	0.12281
2574.63354	0.12310
2572.70498	0.12353
2570.77642	0.12406
2568.84785	0.12456
2566.91929	0.12513
2564.99072	0.12570
2563.06216	0.12617
2561.13359	0.12657
2559.20503	0.12701
2557.27646	0.12760
2555.34790	0.12829
2553.41934	0.12897
2551.49077	0.12967
2549.56221	0.13041
2547.63364	0.13119
2545.70508	0.13200
2543.77651	0.13273
2541.84795	0.13340
2539.91938	0.13412
2537.99082	0.13482
2536.06226	0.13547
2534.13369	0.13611
2532.20513	0.13680
2530.27656	0.13762
2528.34800	0.13851
2526.41943	0.13930
2524.49087	0.14015
2522.56230	0.14119
2520.63374	0.14218
2518.70518	0.14299
2516.77661	0.14383
2514.84805	0.14477
2512.91948	0.14567
2510.99092	0.14654
2509.06235	0.14746
2507.13379	0.14835
2505.20522	0.14919
2503.27666	0.15011
2501.34810	0.15108
2499.41953	0.15205
2497.49097	0.15310
2495.56240	0.15410
2493.63384	0.15497
2491.70527	0.15585
2489.77671	0.15681
2487.84814	0.15778
2485.91958	0.15869
2483.99102	0.15953
2482.06245	0.16044
2480.13389	0.16151
2478.20532	0.16269
2476.27676	0.16384
2474.34819	0.16484
2472.41963	0.16568
2470.49106	0.16665
2468.56250	0.16778
2466.63394	0.16881
2464.70537	0.16976
2462.77681	0.17078
2460.84824	0.17186
2458.91968	0.17288
2456.99111	0.17386
2455.06255	0.17490
2453.13398	0.17600
2451.20542	0.17712
2449.27686	0.17823
2447.34829	0.17931
2445.41973	0.18036
2443.49116	0.18142
2441.56260	0.18254
2439.63403	0.18375
2437.70547	0.18497
2435.77690	0.18607
2433.84834	0.18716
2431.91978	0.18843
2429.99121	0.18973
2428.06265	0.19088
2426.13408	0.19196
2424.20552	0.19314
2422.27695	0.19439
2420.34839	0.19567
2418.41982	0.19692
2416.49126	0.19809
2414.56270	0.19934
2412.63413	0.20075
2410.70557	0.20211
2408.77700	0.20327
2406.84844	0.20433
2404.91987	0.20557
2402.99131	0.20699
2401.06274	0.20840
2399.13418	0.20973
2397.20562	0.21106
2395.27705	0.21241
2393.34849	0.21374
2391.41992	0.21510
2389.49136	0.21666
2387.56279	0.21852
2385.63423	0.22073
2383.70566	0.22345
2381.77710	0.22688
2379.84854	0.23096
2377.91997	0.23545
2375.99141	0.24043
2374.06284	0.24626
2372.13428	0.25278
2370.20571	0.25939
2368.27715	0.26594
2366.34858	0.27261
2364.42002	0.27910
2362.49146	0.28471
2360.56289	0.28887
2358.63433	0.29079
2356.70576	0.28955
2354.77720	0.28573
2352.84863	0.28112
2350.92007	0.27662
2348.99150	0.27395
2347.06294	0.27482
2345.13437	0.28006
2343.20581	0.28720
2341.27725	0.29089
2339.34868	0.29157
2337.42012	0.29237
2335.49155	0.29382
2333.56299	0.29508
2331.63442	0.29593
2329.70586	0.29651
2327.77729	0.29695
2325.84873	0.29707
2323.92017	0.29689
2321.99160	0.29665
2320.06304	0.29617
2318.13447	0.29543
2316.20591	0.29499
2314.27734	0.29525
2312.34878	0.29609
2310.42021	0.29713
2308.49165	0.29791
2306.56309	0.29824
2304.63452	0.29856
2302.70596	0.29933
2300.77739	0.30043
2298.84883	0.30163
2296.92026	0.30289
2294.99170	0.30422
2293.06313	0.30565
2291.13457	0.30715
2289.20601	0.30860
2287.27744	0.30999
2285.34888	0.31149
2283.42031	0.31320
2281.49175	0.31512
2279.56318	0.31728
2277.63462	0.31963
2275.70605	0.32201
2273.77749	0.32420
2271.84893	0.32625
2269.92036	0.32837
2267.99180	0.33062
2266.06323	0.33293
2264.13467	0.33513
2262.20610	0.33723
2260.27754	0.33931
2258.34897	0.34138
2256.42041	0.34343
2254.49185	0.34554
2252.56328	0.34771
2250.63472	0.34985
2248.70615	0.35205
2246.77759	0.35440
2244.84902	0.35679
2242.92046	0.35911
2240.99189	0.36133
2239.06333	0.36349
2237.13477	0.36573
2235.20620	0.36810
2233.27764	0.37047
2231.34907	0.37270
2229.42051	0.37481
2227.49194	0.37704
2225.56338	0.37948
2223.63481	0.38196
2221.70625	0.38437
2219.77769	0.38666
2217.84912	0.38884
2215.92056	0.39105
2213.99199	0.39328
2212.06343	0.39551
2210.13486	0.39772
2208.20630	0.39992
2206.27773	0.40220
2204.34917	0.40453
2202.42061	0.40679
2200.49204	0.40892
2198.56348	0.41094
2196.63491	0.41286
2194.70635	0.41481
2192.77778	0.41689
2190.84922	0.41903
2188.92065	0.42102
2186.99209	0.42286
2185.06353	0.42472
2183.13496	0.42665
2181.20640	0.42846
2179.27783	0.43018
2177.34927	0.43190
2175.42070	0.43356
2173.49214	0.43513
2171.56357	0.43661
2169.63501	0.43807
2167.70645	0.43965
2165.77788	0.44121
2163.84932	0.44261
2161.92075	0.44377
2159.99219	0.44475
2158.06362	0.44577
2156.13506	0.44687
2154.20649	0.44787
2152.27793	0.44880
2150.34937	0.44969
2148.42080	0.45039
2146.49224	0.45093
2144.56367	0.45143
2142.63511	0.45192
2140.70654	0.45244
2138.77798	0.45284
2136.84941	0.45304
2134.92085	0.45327
2132.99229	0.45359
2131.06372	0.45368
2129.13516	0.45349
2127.20659	0.45328
2125.27803	0.45302
2123.34946	0.45257
2121.42090	0.45213
2119.49233	0.45176
2117.56377	0.45122
2115.63521	0.45048
2113.70664	0.44967
2111.77808	0.44886
2109.84951	0.44800
2107.92095	0.44704
2105.99238	0.44597
2104.06382	0.44482
2102.13525	0.44357
2100.20669	0.44229
2098.27812	0.44100
2096.34956	0.43958
2094.42100	0.43802
2092.49243	0.43647
2090.56387	0.43499
2088.63530	0.43333
2086.70674	0.43143
2084.77817	0.42949
2082.84961	0.42759
2080.92104	0.42566
2078.99248	0.42366
2077.06392	0.42158
2075.13535	0.41943
2073.20679	0.41731
2071.27822	0.41508
2069.34966	0.41275
2067.42109	0.41049
2065.49253	0.40836
2063.56396	0.40607
2061.63540	0.40363
2059.70684	0.40123
2057.77827	0.39875
2055.84971	0.39611
2053.92114	0.39350
2051.99258	0.39096
2050.06401	0.38841
2048.13545	0.38582
2046.20688	0.38316
2044.27832	0.38052
2042.34976	0.37789
2040.42119	0.37515
2038.49263	0.37236
2036.56406	0.36962
2034.63550	0.36688
2032.70693	0.36408
2030.77837	0.36132
2028.84980	0.35859
2026.92124	0.35588
2024.99268	0.35311
2023.06411	0.35030
2021.13555	0.34748
2019.20698	0.34482
2017.27842	0.34226
2015.34985	0.33952
2013.42129	0.33663
2011.49272	0.33383
2009.56416	0.33110
2007.63560	0.32833
2005.70703	0.32562
2003.77847	0.32299
2001.84990	0.32030
1999.92134	0.31755
1997.99277	0.31486
1996.06421	0.31228
1994.13564	0.30988
1992.20708	0.30761
1990.27852	0.30510
1988.34995	0.30240
1986.42139	0.29971
1984.49282	0.29717
1982.56426	0.29479
1980.63569	0.29241
1978.70713	0.29000
1976.77856	0.28766
1974.85000	0.28542
1972.92144	0.28317
1970.99287	0.28105
1969.06431	0.27918
1967.13574	0.27734
1965.20718	0.27519
1963.27861	0.27294
1961.35005	0.27088
1959.42148	0.26893
1957.49292	0.26705
1955.56436	0.26523
1953.63579	0.26343
1951.70723	0.26165
1949.77866	0.25995
1947.85010	0.25838
1945.92153	0.25697
1943.99297	0.25588
1942.06440	0.25475
1940.13584	0.25301
1938.20728	0.25112
1936.27871	0.24954
1934.35015	0.24813
1932.42158	0.24686
1930.49302	0.24565
1928.56445	0.24449
1926.63589	0.24354
1924.70732	0.24286
1922.77876	0.24211
1920.85020	0.24106
1918.92163	0.24016
1916.99307	0.23933
1915.06450	0.23813
1913.13594	0.23701
1911.20737	0.23640
1909.27881	0.23595
1907.35024	0.23527
1905.42168	0.23439
1903.49312	0.23353
1901.56455	0.23279
1899.63599	0.23227
1897.70742	0.23204
1895.77886	0.23191
1893.85029	0.23164
1891.92173	0.23122
1889.99316	0.23100
1888.06460	0.23075
1886.13604	0.23025
1884.20747	0.22987
1882.27891	0.22971
1880.35034	0.22966
1878.42178	0.22960
1876.49321	0.22961
1874.56465	0.22967
1872.63608	0.22988
1870.70752	0.23056
1868.77896	0.23171
1866.85039	0.23206
1864.92183	0.23137
1862.99326	0.23093
1861.06470	0.23108
1859.13613	0.23149
1857.20757	0.23187
1855.27900	0.23230
1853.35044	0.23274
1851.42187	0.23328
1849.49331	0.23405
1847.56475	0.23512
1845.63618	0.23643
1843.70762	0.23770
1841.77905	0.23817
1839.85049	0.23818
1837.92192	0.23879
1835.99336	0.23976
1834.06479	0.24070
1832.13623	0.24187
1830.20767	0.24376
1828.27910	0.24551
1826.35054	0.24645
1824.42197	0.24753
1822.49341	0.24851
1820.56484	0.24949
1818.63628	0.25087
1816.70771	0.25257
1814.77915	0.25426
1812.85059	0.25621
1810.92202	0.25855
1808.99346	0.26069
1807.06489	0.26247
1805.13633	0.26431
1803.20776	0.26674
1801.27920	0.26973
1799.35063	0.27280
1797.42207	0.27523
1795.49351	0.27762
1793.56494	0.28090
1791.63638	0.28505
1789.70781	0.28820
1787.77925	0.29018
1785.85068	0.29307
1783.92212	0.29693
1781.99355	0.30120
1780.06499	0.30567
1778.13643	0.31003
1776.20786	0.31425
1774.27930	0.31927
1772.35073	0.32596
1770.42217	0.33234
1768.49360	0.33714
1766.56504	0.34184
1764.63647	0.34702
1762.70791	0.35317
1760.77935	0.36091
1758.85078	0.36804
1756.92222	0.37516
1754.99365	0.38283
1753.06509	0.39001
1751.13652	0.39905
1749.20796	0.41028
1747.27939	0.42062
1745.35083	0.42932
1743.42227	0.43857
1741.49370	0.44905
1739.56514	0.46155
1737.63657	0.47412
1735.70801	0.48561
1733.77944	0.50281
1731.85088	0.52231
1729.92231	0.53729
1727.99375	0.55275
1726.06519	0.56980
1724.13662	0.58877
1722.20806	0.60948
1720.27949	0.62912
1718.35093	0.65224
1716.42236	0.68472
1714.49380	0.71457
1712.56523	0.73874
1710.63667	0.76255
1708.70811	0.78845
1706.77954	0.81802
1704.85098	0.85285
1702.92241	0.88393
1700.99385	0.91500
1699.06528	0.96006
1697.13672	1.00025
1695.20815	1.03996
1693.27959	1.07870
1691.35103	1.11046
1689.42246	1.14691
1687.49390	1.18474
1685.56533	1.22153
1683.63677	1.27685
1681.70820	1.33288
1679.77964	1.36934
1677.85107	1.40465
1675.92251	1.44566
1673.99395	1.49551
1672.06538	1.53921
1670.13682	1.58124
1668.20825	1.63391
1666.27969	1.67614
1664.35112	1.71185
1662.42256	1.75545
1660.49399	1.80339
1658.56543	1.84085
1656.63687	1.87256
1654.70830	1.90476
1652.77974	1.95689
1650.85117	2.00639
1648.92261	2.02773
1646.99404	2.05757
1645.06548	2.09368
1643.13691	2.11927
1641.20835	2.13563
1639.27979	2.14864
1637.35122	2.15775
1635.42266	2.16302
1633.49409	2.16019
1631.56553	2.14958
1629.63696	2.13666
1627.70840	2.11512
1625.77983	2.08912
1623.85127	2.05587
1621.92271	2.01430
1619.99414	1.97549
1618.06558	1.93694
1616.13701	1.88151
1614.20845	1.82142
1612.27988	1.77389
1610.35132	1.72569
1608.42275	1.67445
1606.49419	1.62335
1604.56562	1.57479
1602.63706	1.52730
1600.70850	1.48080
1598.77993	1.43753
1596.85137	1.39639
1594.92280	1.35648
1592.99424	1.31809
1591.06567	1.28235
1589.13711	1.24809
1587.20854	1.21582
1585.27998	1.18579
1583.35142	1.15738
1581.42285	1.13098
1579.49429	1.10767
1577.56572	1.08626
1575.63716	1.06032
1573.70859	1.03621
1571.78003	1.01933
1569.85146	1.00141
1567.92290	0.98056
1565.99434	0.96313
1564.06577	0.94829
1562.13721	0.93628
1560.20864	0.92676
1558.28008	0.90921
1556.35151	0.88981
1554.42295	0.87691
1552.49438	0.86491
1550.56582	0.85370
1548.63726	0.84282
1546.70869	0.83340
1544.78013	0.82561
1542.85156	0.81842
1540.92300	0.81000
1538.99443	0.79729
1537.06587	0.78692
1535.13730	0.78057
1533.20874	0.77393
1531.28018	0.76630
1529.35161	0.76005
1527.42305	0.75461
1525.49448	0.74927
1523.56592	0.74437
1521.63735	0.73910
1519.70879	0.73266
1517.78022	0.72670
1515.85166	0.72064
1513.92310	0.71478
1511.99453	0.71050
1510.06597	0.70787
1508.13740	0.70636
1506.20884	0.70195
1504.28027	0.69515
1502.35171	0.69073
1500.42314	0.68766
1498.49458	0.68510
1496.56602	0.68209
1494.63745	0.67834
1492.70889	0.67530
1490.78032	0.67339
1488.85176	0.67108
1486.92319	0.66742
1484.99463	0.66373
1483.06606	0.66069
1481.13750	0.65794
1479.20894	0.65524
1477.28037	0.65291
1475.35181	0.65092
1473.42324	0.64867
1471.49468	0.64458
1469.56611	0.63990
1467.63755	0.63674
1465.70898	0.63471
1463.78042	0.63252
1461.85186	0.63022
1459.92329	0.62890
1457.99473	0.62824
1456.06616	0.62588
1454.13760	0.62214
1452.20903	0.61933
1450.28047	0.61732
1448.35190	0.61582
1446.42334	0.61421
1444.49478	0.61232
1442.56621	0.61070
1440.63765	0.60949
1438.70908	0.60875
1436.78052	0.60822
1434.85195	0.60687
1432.92339	0.60504
1430.99482	0.60370
1429.06626	0.60250
1427.13770	0.60103
1425.20913	0.59965
1423.28057	0.59838
1421.35200	0.59710
1419.42344	0.59599
1417.49487	0.59443
1415.56631	0.59212
1413.63774	0.59010
1411.70918	0.58853
1409.78062	0.58698
1407.85205	0.58550
1405.92349	0.58442
1403.99492	0.58330
1402.06636	0.58183
1400.13779	0.58049
1398.20923	0.57936
1396.28066	0.57819
1394.35210	0.57681
1392.42354	0.57514
1390.49497	0.57366
1388.56641	0.57267
1386.63784	0.57171
1384.70928	0.57029
1382.78071	0.56880
1380.85215	0.56758
1378.92358	0.56665
1376.99502	0.56603
1375.06646	0.56570
1373.13789	0.56504
1371.20933	0.56374
1369.28076	0.56239
1367.35220	0.56127
1365.42363	0.56043
1363.49507	0.55992
1361.56650	0.55929
1359.63794	0.55818
1357.70937	0.55714
1355.78081	0.55639
1353.85225	0.55559
1351.92368	0.55455
1349.99512	0.55354
1348.06655	0.55269
1346.13799	0.55189
1344.20942	0.55107
1342.28086	0.55031
1340.35229	0.54973
1338.42373	0.54902
1336.49517	0.54788
1334.56660	0.54667
1332.63804	0.54560
1330.70947	0.54464
1328.78091	0.54380
1326.85234	0.54301
1324.92378	0.54205
1322.99521	0.54101
1321.06665	0.54011
1319.13809	0.53927
1317.20952	0.53829
1315.28096	0.53722
1313.35239	0.53614
1311.42383	0.53499
1309.49526	0.53399
1307.56670	0.53332
1305.63813	0.53265
1303.70957	0.53172
1301.78101	0.53072
1299.85244	0.52978
1297.92388	0.52883
1295.99531	0.52790
1294.06675	0.52694
1292.13818	0.52599
1290.20962	0.52518
1288.28105	0.52445
1286.35249	0.52363
1284.42393	0.52288
1282.49536	0.52235
1280.56680	0.52187
1278.63823	0.52114
1276.70967	0.52022
1274.78110	0.51945
1272.85254	0.51883
1270.92397	0.51802
1268.99541	0.51708
1267.06685	0.51638
1265.13828	0.51579
1263.20972	0.51513
1261.28115	0.51446
1259.35259	0.51386
1257.42402	0.51333
1255.49546	0.51290
1253.56689	0.51245
1251.63833	0.51187
1249.70977	0.51117
1247.78120	0.51050
1245.85264	0.50991
1243.92407	0.50933
1241.99551	0.50874
1240.06694	0.50822
1238.13838	0.50764
1236.20981	0.50681
1234.28125	0.50587
1232.35269	0.50497
1230.42412	0.50421
1228.49556	0.50369
1226.56699	0.50317
1224.63843	0.50235
1222.70986	0.50134
1220.78130	0.50050
1218.85273	0.49982
1216.92417	0.49913
1214.99561	0.49837
1213.06704	0.49742
1211.13848	0.49635
1209.20991	0.49536
1207.28135	0.49450
1205.35278	0.49373
1203.42422	0.49300
1201.49565	0.49223
1199.56709	0.49137
1197.63853	0.49038
1195.70996	0.48936
1193.78140	0.48840
1191.85283	0.48747
1189.92427	0.48648
1187.99570	0.48550
1186.06714	0.48455
1184.13857	0.48352
1182.21001	0.48251
1180.28145	0.48158
1178.35288	0.48069
1176.42432	0.47979
1174.49575	0.47882
1172.56719	0.47788
1170.63862	0.47704
1168.71006	0.47612
1166.78149	0.47506
1164.85293	0.47395
1162.92437	0.47285
1160.99580	0.47187
1159.06724	0.47099
1157.13867	0.47011
1155.21011	0.46927
1153.28154	0.46845
1151.35298	0.46765
1149.42441	0.46678
1147.49585	0.46569
1145.56729	0.46453
1143.63872	0.46350
1141.71016	0.46254
1139.78159	0.46159
1137.85303	0.46066
1135.92446	0.45980
1133.99590	0.45903
1132.06733	0.45834
1130.13877	0.45764
1128.21021	0.45689
1126.28164	0.45610
1124.35308	0.45523
1122.42451	0.45436
1120.49595	0.45370
1118.56738	0.45336
1116.63882	0.45314
1114.71025	0.45281
1112.78169	0.45238
1110.85312	0.45194
1108.92456	0.45147
1106.99600	0.45093
1105.06743	0.45038
1103.13887	0.44984
1101.21030	0.44937
1099.28174	0.44904
1097.35317	0.44882
1095.42461	0.44870
1093.49604	0.44857
1091.56748	0.44832
1089.63892	0.44794
1087.71035	0.44744
1085.78179	0.44687
1083.85322	0.44642
1081.92466	0.44615
1079.99609	0.44591
1078.06753	0.44550
1076.13896	0.44504
1074.21040	0.44489
1072.28184	0.44492
1070.35327	0.44481
1068.42471	0.44474
1066.49614	0.44502
1064.56758	0.44552
1062.63901	0.44606
1060.71045	0.44660
1058.78188	0.44703
1056.85332	0.44732
1054.92476	0.44762
1052.99619	0.44790
1051.06763	0.44811
1049.13906	0.44841
1047.21050	0.44885
1045.28193	0.44936
1043.35337	0.44992
1041.42480	0.45043
1039.49624	0.45085
1037.56768	0.45144
1035.63911	0.45235
1033.71055	0.45351
1031.78198	0.45485
1029.85342	0.45601
1027.92485	0.45686
1025.99629	0.45775
1024.06772	0.45889
1022.13916	0.46019
1020.21060	0.46163
1018.28203	0.46310
1016.35347	0.46449
1014.42490	0.46585
1012.49634	0.46718
1010.56777	0.46855
1008.63921	0.47009
1006.71064	0.47182
1004.78208	0.47365
1002.85352	0.47550
1000.92495	0.47745
998.99639	0.47958
997.06782	0.48171
995.13926	0.48369
993.21069	0.48582
991.28213	0.48831
989.35356	0.49090
987.42500	0.49343
985.49644	0.49602
983.56787	0.49867
981.63931	0.50131
979.71074	0.50417
977.78218	0.50737
975.85361	0.51071
973.92505	0.51412
971.99648	0.51765
970.06792	0.52128
968.13936	0.52499
966.21079	0.52875
964.28223	0.53264
962.35366	0.53677
960.42510	0.54111
958.49653	0.54558
956.56797	0.55004
954.63940	0.55438
952.71084	0.55895
950.78228	0.56397
948.85371	0.56917
946.92515	0.57446
944.99658	0.58008
943.06802	0.58602
941.13945	0.59208
939.21089	0.59806
937.28232	0.60401
935.35376	0.61031
933.42520	0.61702
931.49663	0.62374
929.56807	0.63038
927.63950	0.63722
925.71094	0.64447
923.78237	0.65170
921.85381	0.65905
919.92524	0.66720
917.99668	0.67580
916.06812	0.68423
914.13955	0.69238
912.21099	0.70024
910.28242	0.70820
908.35386	0.71685
906.42529	0.72626
904.49673	0.73644
902.56816	0.74714
900.63960	0.75723
898.71104	0.76632
896.78247	0.77531
894.85391	0.78491
892.92534	0.79485
890.99678	0.80466
889.06821	0.81549
887.13965	0.82752
885.21108	0.83923
883.28252	0.85011
881.35396	0.85995
879.42539	0.86979
877.49683	0.88149
875.56826	0.89439
873.63970	0.90669
871.71113	0.91759
869.78257	0.92770
867.85400	0.93850
865.92544	0.95010
863.99687	0.96205
862.06831	0.97474
860.13975	0.98712
858.21118	0.99816
856.28262	1.00931
854.35405	1.02208
852.42549	1.03490
850.49692	1.04573
848.56836	1.05636
846.63979	1.06856
844.71123	1.08061
842.78267	1.09251
840.85410	1.10606
838.92554	1.11908
836.99697	1.12981
835.06841	1.14161
833.13984	1.15629
831.21128	1.16844
829.28271	1.17465
827.35415	1.18125
825.42559	1.19310
823.49702	1.21042
821.56846	1.22883
819.63989	1.24134
817.71133	1.25088
815.78276	1.26480
813.85420	1.28014
811.92563	1.29021
809.99707	1.29634
808.06851	1.30360
806.13994	1.32028
804.21138	1.34221
802.28281	1.35566
800.35425	1.36330
798.42568	1.37136
796.49712	1.38240
794.56855	1.40134
792.63999	1.42895
790.71143	1.44322
788.78286	1.43081
786.85430	1.43877
784.92573	1.48479
782.99717	1.49428
781.06860	1.46858
779.14004	1.49123
777.21147	1.53133
775.28291	1.52290
773.35435	1.49989
771.42578	1.50456
769.49722	1.57210
767.56865	1.72211
765.64009	1.97482
763.71152	1.97134
761.78296	1.56208
759.85439	1.39835
757.92583	1.45835
755.99727	1.56829
754.06870	1.62117
752.14014	1.77001
750.21157	1.63507
748.28301	1.37752
746.35444	1.34756
744.42588	1.31514
742.49731	1.13552
740.56875	1.08210
738.64019	1.19011
736.71162	1.24877
734.78306	1.12157
732.85449	1.04222
730.92593	1.02567
728.99736	0.88160
727.06880	0.67135
725.14023	0.56874
723.21167	0.55586
721.28311	0.51054
719.35454	0.48385
717.42598	0.51447
715.49741	0.35997
713.56885	0.23939
711.64028	0.21944
709.71172	0.19529
707.78315	0.27315
705.85459	0.51516
703.92603	0.46956
701.99746	0.17517
700.06890	0.08537
698.14033	0.21518
696.21177	0.58666
694.28320	0.79359
692.35464	0.70773
690.42607	0.63534
688.49751	0.48893
686.56895	0.31273
684.64038	0.22204
682.71182	0.26887
680.78325	0.32120
678.85469	0.32023
676.92612	0.28891
674.99756	0.20329
673.06899	0.14052
671.14043	0.14885
669.21187	0.21078
667.28330	0.33486
665.35474	0.48709
663.42617	0.55921
661.49761	0.55132
659.56904	0.48767
657.64048	0.37720
655.71191	0.22236
653.78335	0.13993
651.85479	0.20615
649.92622	0.34922
647.99766	0.44220
646.06909	0.44233
644.14053	0.46290
642.21196	0.57241
640.28340	0.60403
638.35483	0.43657
636.42627	0.32093
634.49771	0.27641
632.56914	0.26972
630.64058	0.32153
628.71201	0.38318
626.78345	0.37193
624.85488	0.26783
622.92632	0.17376
620.99775	0.15743
619.06919	0.19952
617.14062	0.25677
615.21206	0.25384
613.28350	0.22435
611.35493	0.30267
609.42637	0.49472
607.49780	0.55531
605.56924	0.43538
603.64067	0.44427
601.71211	0.45823
599.78354	0.36506
597.85498	0.36956
595.92642	0.65734
593.99785	0.82607
592.06929	0.45558
590.14072	0.34266
588.21216	0.31446
586.28359	0.27950
584.35503	0.29740
582.42646	0.37619
580.49790	0.47356
578.56934	0.51272
576.64077	0.42044
574.71221	0.31096
572.78364	0.26748
570.85508	0.26807
568.92651	0.27169
566.99795	0.25993
565.06938	0.24346
563.14082	0.21690
561.21226	0.19726
559.28369	0.20248
557.35513	0.22659
555.42656	0.23669
553.49800	0.21772
551.56943	0.23208
549.64087	0.28767
547.71230	0.30124
545.78374	0.26882
543.85518	0.24793
541.92661	0.22077
539.99805	0.16924
538.06948	0.12468
536.14092	0.11447
534.21235	0.14073
532.28379	0.18308
530.35522	0.20882
528.42666	0.21555
526.49810	0.20234
524.56953	0.16130
522.64097	0.14339
520.71240	0.18642
518.78384	0.23231
516.85527	0.24379
514.92671	0.27030
512.99814	0.32048
511.06958	0.38115
509.14102	0.41706
507.21245	0.31139
505.28389	0.20483
503.35532	0.20722
501.42676	0.24758
499.49819	0.22555
