3997.91411	0.05583
3995.98555	0.05629
3994.05698	0.05638
3992.12842	0.05655
3990.19985	0.05702
3988.27129	0.05747
3986.34272	0.05782
3984.41416	0.05815
3982.48560	0.05852
3980.55703	0.05891
3978.62847	0.05922
3976.69990	0.05949
3974.77134	0.05990
3972.84277	0.06034
3970.91421	0.06044
3968.98564	0.06036
3967.05708	0.06034
3965.12852	0.06012
3963.19995	0.05987
3961.27139	0.06005
3959.34282	0.06037
3957.41426	0.06048
3955.48569	0.06060
3953.55713	0.06091
3951.62856	0.06146
3949.70000	0.06213
3947.77144	0.06234
3945.84287	0.06199
3943.91431	0.06202
3941.98574	0.06240
3940.05718	0.06196
3938.12861	0.06109
3936.20005	0.06082
3934.27148	0.06123
3932.34292	0.06212
3930.41436	0.06277
3928.48579	0.06239
3926.55723	0.06202
3924.62866	0.06272
3922.70010	0.06326
3920.77153	0.06296
3918.84297	0.06290
3916.91440	0.06313
3914.98584	0.06267
3913.05728	0.06155
3911.12871	0.06079
3909.20015	0.06073
3907.27158	0.06136
3905.34302	0.06284
3903.41445	0.06479
3901.48589	0.06614
3899.55732	0.06641
3897.62876	0.06527
3895.70020	0.06318
3893.77163	0.06209
3891.84307	0.06276
3889.91450	0.06363
3887.98594	0.06365
3886.05737	0.06418
3884.12881	0.06526
3882.20024	0.06562
3880.27168	0.06536
3878.34312	0.06443
3876.41455	0.06379
3874.48599	0.06482
3872.55742	0.06646
3870.62886	0.06785
3868.70029	0.06893
3866.77173	0.06822
3864.84316	0.06745
3862.91460	0.06786
3860.98604	0.06744
3859.05747	0.06645
3857.12891	0.06674
3855.20034	0.06910
3853.27178	0.07366
3851.34321	0.07565
3849.41465	0.07241
3847.48608	0.06955
3845.55752	0.06890
3843.62896	0.07011
3841.70039	0.07232
3839.77183	0.07471
3837.84326	0.07657
3835.91470	0.07684
3833.98613	0.07627
3832.05757	0.07576
3830.12900	0.07519
3828.20044	0.07515
3826.27187	0.07617
3824.34331	0.07770
3822.41475	0.07967
3820.48618	0.08251
3818.55762	0.08352
3816.62905	0.08296
3814.70049	0.08339
3812.77192	0.08324
3810.84336	0.08234
3808.91479	0.08258
3806.98623	0.08468
3805.05767	0.08747
3803.12910	0.08962
3801.20054	0.09197
3799.27197	0.09355
3797.34341	0.09364
3795.41484	0.09400
3793.48628	0.09422
3791.55771	0.09412
3789.62915	0.09458
3787.70059	0.09583
3785.77202	0.09795
3783.84346	0.10047
3781.91489	0.10232
3779.98633	0.10389
3778.05776	0.10564
3776.12920	0.10657
3774.20063	0.10704
3772.27207	0.10837
3770.34351	0.11124
3768.41494	0.11470
3766.48638	0.11686
3764.55781	0.11816
3762.62925	0.11945
3760.70068	0.12162
3758.77212	0.12516
3756.84355	0.12828
3754.91499	0.13008
3752.98643	0.13282
3751.05786	0.13833
3749.12930	0.14415
3747.20073	0.14633
3745.27217	0.14773
3743.34360	0.15099
3741.41504	0.15384
3739.48647	0.15565
3737.55791	0.15897
3735.62935	0.16506
3733.70078	0.17146
3731.77222	0.17470
3729.84365	0.17650
3727.91509	0.17938
3725.98652	0.18507
3724.05796	0.19278
3722.12939	0.19993
3720.20083	0.20683
3718.27227	0.21406
3716.34370	0.22137
3714.41514	0.22930
3712.48657	0.23989
3710.55801	0.25443
3708.62944	0.26802
3706.70088	0.27763
3704.77231	0.28744
3702.84375	0.30071
3700.91519	0.31812
3698.98662	0.33633
3697.05806	0.35376
3695.12949	0.37277
3693.20093	0.39327
3691.27236	0.41607
3689.34380	0.44523
3687.41523	0.47973
3685.48667	0.50960
3683.55811	0.53540
3681.62954	0.56359
3679.70098	0.59606
3677.77241	0.63085
3675.84385	0.67172
3673.91528	0.72455
3671.98672	0.76787
3670.05815	0.80724
3668.12959	0.85994
3666.20103	0.90753
3664.27246	0.94801
3662.34390	0.99209
3660.41533	1.03972
3658.48677	1.08669
3656.55820	1.13657
3654.62964	1.19188
3652.70107	1.23941
3650.77251	1.28257
3648.84395	1.34083
3646.91538	1.40800
3644.98682	1.45631
3643.05825	1.49432
3641.12969	1.53458
3639.20112	1.57957
3637.27256	1.62490
3635.34399	1.66869
3633.41543	1.71227
3631.48687	1.75356
3629.55830	1.79586
3627.62974	1.84968
3625.70117	1.89914
3623.77261	1.93241
3621.84404	1.96443
3619.91548	2.00293
3617.98691	2.05025
3616.05835	2.09532
3614.12979	2.13317
3612.20122	2.17314
3610.27266	2.21347
3608.34409	2.25332
3606.41553	2.29485
3604.48696	2.33345
3602.55840	2.36816
3600.62983	2.40640
3598.70127	2.44953
3596.77271	2.49252
3594.84414	2.53449
3592.91558	2.57550
3590.98701	2.61354
3589.05845	2.65045
3587.12988	2.69640
3585.20132	2.74628
3583.27275	2.78721
3581.34419	2.82567
3579.41562	2.86742
3577.48706	2.91012
3575.55850	2.95184
3573.62993	2.99513
3571.70137	3.03877
3569.77280	3.08040
3567.84424	3.12324
3565.91567	3.17438
3563.98711	3.22524
3562.05854	3.26827
3560.12998	3.31030
3558.20142	3.35481
3556.27285	3.40065
3554.34429	3.44531
3552.41572	3.49123
3550.48716	3.53911
3548.55859	3.58629
3546.63003	3.63244
3544.70146	3.68031
3542.77290	3.72889
3540.84434	3.77554
3538.91577	3.82180
3536.98721	3.86903
3535.05864	3.91820
3533.13008	3.96667
3531.20151	4.01393
3529.27295	4.06227
3527.34438	4.11321
3525.41582	4.16473
3523.48726	4.21494
3521.55869	4.26492
3519.63013	4.31400
3517.70156	4.36223
3515.77300	4.41049
3513.84443	4.45920
3511.91587	4.50604
3509.98730	4.55287
3508.05874	4.60165
3506.13018	4.64899
3504.20161	4.69324
3502.27305	4.73744
3500.34448	4.78534
3498.41592	4.83480
3496.48735	4.88371
3494.55879	4.93109
3492.63022	4.98072
3490.70166	5.03313
3488.77310	5.08011
3486.84453	5.12278
3484.91597	5.17025
3482.98740	5.22545
3481.05884	5.28203
3479.13027	5.32887
3477.20171	5.37174
3475.27314	5.42384
3473.34458	5.47662
3471.41602	5.52005
3469.48745	5.56338
3467.55889	5.61460
3465.63032	5.66794
3463.70176	5.71792
3461.77319	5.76516
3459.84463	5.81322
3457.91606	5.86566
3455.98750	5.92615
3454.05894	5.98927
3452.13037	6.04080
3450.20181	6.08112
3448.27324	6.12185
3446.34468	6.16991
3444.41611	6.22274
3442.48755	6.28116
3440.55898	6.33704
3438.63042	6.37953
3436.70186	6.42208
3434.77329	6.47461
3432.84473	6.53174
3430.91616	6.59283
3428.98760	6.65502
3427.05903	6.70647
3425.13047	6.74932
3423.20190	6.78527
3421.27334	6.82322
3419.34478	6.86391
3417.41621	6.89941
3415.48765	6.95150
3413.55908	7.01971
3411.63052	7.07564
3409.70195	7.11316
3407.77339	7.14365
3405.84482	7.16978
3403.91626	7.19992
3401.98770	7.23117
3400.05913	7.27278
3398.13057	7.33980
3396.20200	7.40340
3394.27344	7.42341
3392.34487	7.41820
3390.41631	7.46645
3388.48774	7.57965
3386.55918	7.69600
3384.63062	7.73036
3382.70205	7.67771
3380.77349	7.64220
3378.84492	7.69249
3376.91636	7.78365
3374.98779	7.81860
3373.05923	7.82670
3371.13066	7.85592
3369.20210	7.89535
3367.27354	7.93928
3365.34497	7.98981
3363.41641	8.02100
3361.48784	8.02717
3359.55928	8.02316
3357.63071	7.98197
3355.70215	7.93883
3353.77358	7.95384
3351.84502	8.01440
3349.91646	8.00754
3347.98789	7.95857
3346.05933	8.00600
3344.13076	8.13213
3342.20220	8.24429
3340.27363	8.31807
3338.34507	8.34326
3336.41650	8.25283
3334.48794	8.13974
3332.55937	8.14238
3330.63081	8.24377
3328.70225	8.34618
3326.77368	8.40385
3324.84512	8.39823
3322.91655	8.33925
3320.98799	8.32008
3319.05942	8.35733
3317.13086	8.39495
3315.20229	8.36668
3313.27373	8.31963
3311.34517	8.29320
3309.41660	8.26956
3307.48804	8.29826
3305.55947	8.33644
3303.63091	8.31361
3301.70234	8.32076
3299.77378	8.41235
3297.84521	8.42285
3295.91665	8.35860
3293.98809	8.36221
3292.05952	8.34520
3290.13096	8.27249
3288.20239	8.26669
3286.27383	8.37018
3284.34526	8.50078
3282.41670	8.53864
3280.48813	8.47120
3278.55957	8.40139
3276.63101	8.33659
3274.70244	8.30765
3272.77388	8.33900
3270.84531	8.34790
3268.91675	8.36273
3266.98818	8.33941
3265.05962	8.24551
3263.13105	8.27820
3261.20249	8.45789
3259.27393	8.53736
3257.34536	8.44973
3255.41680	8.39222
3253.48823	8.47208
3251.55967	8.57855
3249.63110	8.54528
3247.70254	8.46342
3245.77397	8.46238
3243.84541	8.44912
3241.91685	8.40710
3239.98828	8.45829
3238.05972	8.47869
3236.13115	8.40612
3234.20259	8.42796
3232.27402	8.50453
3230.34546	8.44990
3228.41689	8.31220
3226.48833	8.20383
3224.55977	8.14419
3222.63120	8.15183
3220.70264	8.18405
3218.77407	8.18365
3216.84551	8.14934
3214.91694	8.10120
3212.98838	8.08327
3211.05981	8.09634
3209.13125	8.09304
3207.20269	8.05701
3205.27412	8.02195
3203.34556	7.99931
3201.41699	7.97727
3199.48843	7.96024
3197.55986	7.96931
3195.63130	7.98468
3193.70273	7.89717
3191.77417	7.72182
3189.84561	7.61191
3187.91704	7.58837
3185.98848	7.57272
3184.05991	7.54691
3182.13135	7.50453
3180.20278	7.42558
3178.27422	7.35350
3176.34565	7.31469
3174.41709	7.26321
3172.48853	7.18300
3170.55996	7.09463
3168.63140	7.02313
3166.70283	6.98209
3164.77427	6.94471
3162.84570	6.89668
3160.91714	6.83869
3158.98857	6.76376
3157.06001	6.68042
3155.13145	6.60118
3153.20288	6.52379
3151.27432	6.44905
3149.34575	6.38873
3147.41719	6.34131
3145.48862	6.29421
3143.56006	6.23954
3141.63149	6.17722
3139.70293	6.10287
3137.77437	6.01495
3135.84580	5.93246
3133.91724	5.86368
3131.98867	5.79464
3130.06011	5.72110
3128.13154	5.64765
3126.20298	5.57407
3124.27441	5.50033
3122.34585	5.43085
3120.41729	5.36756
3118.48872	5.29972
3116.56016	5.22223
3114.63159	5.14288
3112.70303	5.06784
3110.77446	4.99848
3108.84590	4.93083
3106.91733	4.86175
3104.98877	4.79222
3103.06021	4.72361
3101.13164	4.65682
3099.20308	4.59146
3097.27451	4.52698
3095.34595	4.46316
3093.41738	4.39818
3091.48882	4.33294
3089.56025	4.26953
3087.63169	4.20495
3085.70312	4.13938
3083.77456	4.07675
3081.84600	4.01529
3079.91743	3.95285
3077.98887	3.89185
3076.06030	3.83185
3074.13174	3.77178
3072.20317	3.71296
3070.27461	3.65417
3068.34604	3.59512
3066.41748	3.53760
3064.48892	3.48116
3062.56035	3.42483
3060.63179	3.36917
3058.70322	3.31463
3056.77466	3.26118
3054.84609	3.20805
3052.91753	3.15451
3050.98896	3.10159
3049.06040	3.05005
3047.13184	2.99935
3045.20327	2.94930
3043.27471	2.90022
3041.34614	2.85197
3039.41758	2.80471
3037.48901	2.75821
3035.56045	2.71117
3033.63188	2.66423
3031.70332	2.61869
3029.77476	2.57388
3027.84619	2.52921
3025.91763	2.48516
3023.98906	2.44163
3022.06050	2.39830
3020.13193	2.35603
3018.20337	2.31526
3016.27480	2.27538
3014.34624	2.23599
3012.41768	2.19698
3010.48911	2.15846
3008.56055	2.12045
3006.63198	2.08296
3004.70342	2.04640
3002.77485	2.01090
3000.84629	1.97628
2998.91772	1.94229
2996.98916	1.90886
2995.06060	1.87608
2993.13203	1.84362
2991.20347	1.81165
2989.27490	1.78105
2987.34634	1.75127
2985.41777	1.72136
2983.48921	1.69208
2981.56064	1.66400
2979.63208	1.63609
2977.70352	1.60800
2975.77495	1.58069
2973.84639	1.55438
2971.91782	1.52837
2969.98926	1.50204
2968.06069	1.47588
2966.13213	1.45076
2964.20356	1.42639
2962.27500	1.40203
2960.34644	1.37734
2958.41787	1.35264
2956.48931	1.32854
2954.56074	1.30509
2952.63218	1.28212
2950.70361	1.25928
2948.77505	1.23621
2946.84648	1.21320
2944.91792	1.19083
2942.98936	1.16933
2941.06079	1.14871
2939.13223	1.12825
2937.20366	1.10761
2935.27510	1.08717
2933.34653	1.06688
2931.41797	1.04687
2929.48940	1.02755
2927.56084	1.00853
2925.63228	0.98925
2923.70371	0.97034
2921.77515	0.95238
2919.84658	0.93546
2917.91802	0.91938
2915.98945	0.90319
2914.06089	0.88679
2912.13232	0.87099
2910.20376	0.85591
2908.27520	0.84134
2906.34663	0.82724
2904.41807	0.81342
2902.48950	0.79975
2900.56094	0.78637
2898.63237	0.77337
2896.70381	0.76051
2894.77524	0.74764
2892.84668	0.73519
2890.91812	0.72337
2888.98955	0.71193
2887.06099	0.70070
2885.13242	0.68965
2883.20386	0.67892
2881.27529	0.66868
2879.34673	0.65875
2877.41816	0.64888
2875.48960	0.63882
2873.56104	0.62832
2871.63247	0.61755
2869.70391	0.60668
2867.77534	0.59550
2865.84678	0.58398
2863.91821	0.57244
2861.98965	0.56096
2860.06108	0.54976
2858.13252	0.53919
2856.20396	0.52923
2854.27539	0.51974
2852.34683	0.51069
2850.41826	0.50195
2848.48970	0.49344
2846.56113	0.48550
2844.63257	0.47831
2842.70400	0.47169
2840.77544	0.46546
2838.84687	0.45945
2836.91831	0.45366
2834.98975	0.44791
2833.06118	0.44181
2831.13262	0.43556
2829.20405	0.42962
2827.27549	0.42383
2825.34692	0.41786
2823.41836	0.41175
2821.48979	0.40566
2819.56123	0.39963
2817.63267	0.39356
2815.70410	0.38755
2813.77554	0.38196
2811.84697	0.37673
2809.91841	0.37151
2807.98984	0.36614
2806.06128	0.36062
2804.13271	0.35516
2802.20415	0.34996
2800.27559	0.34498
2798.34702	0.34015
2796.41846	0.33541
2794.48989	0.33073
2792.56133	0.32623
2790.63276	0.32188
2788.70420	0.31737
2786.77563	0.31257
2784.84707	0.30791
2782.91851	0.30369
2780.98994	0.29966
2779.06138	0.29559
2777.13281	0.29151
2775.20425	0.28741
2773.27568	0.28343
2771.34712	0.27980
2769.41855	0.27638
2767.48999	0.27285
2765.56143	0.26934
2763.63286	0.26595
2761.70430	0.26259
2759.77573	0.25930
2757.84717	0.25607
2755.91860	0.25286
2753.99004	0.24970
2752.06147	0.24667
2750.13291	0.24374
2748.20435	0.24078
2746.27578	0.23782
2744.34722	0.23498
2742.41865	0.23231
2740.49009	0.22972
2738.56152	0.22716
2736.63296	0.22467
2734.70439	0.22225
2732.77583	0.21974
2730.84727	0.21728
2728.91870	0.21511
2726.99014	0.21302
2725.06157	0.21085
2723.13301	0.20868
2721.20444	0.20655
2719.27588	0.20441
2717.34731	0.20233
2715.41875	0.20044
2713.49019	0.19870
2711.56162	0.19693
2709.63306	0.19506
2707.70449	0.19328
2705.77593	0.19169
2703.84736	0.19014
2701.91880	0.18850
2699.99023	0.18683
2698.06167	0.18522
2696.13311	0.18367
2694.20454	0.18219
2692.27598	0.18088
2690.34741	0.17964
2688.41885	0.17834
2686.49028	0.17702
2684.56172	0.17571
2682.63315	0.17441
2680.70459	0.17313
2678.77603	0.17193
2676.84746	0.17079
2674.91890	0.16961
2672.99033	0.16847
2671.06177	0.16754
2669.13320	0.16664
2667.20464	0.16564
2665.27607	0.16459
2663.34751	0.16357
2661.41895	0.16260
2659.49038	0.16171
2657.56182	0.16094
2655.63325	0.16016
2653.70469	0.15928
2651.77612	0.15852
2649.84756	0.15794
2647.91899	0.15727
2645.99043	0.15655
2644.06187	0.15590
2642.13330	0.15525
2640.20474	0.15470
2638.27617	0.15446
2636.34761	0.15428
2634.41904	0.15382
2632.49048	0.15317
2630.56191	0.15271
2628.63335	0.15243
2626.70479	0.15197
2624.77622	0.15130
2622.84766	0.15079
2620.91909	0.15064
2618.99053	0.15058
2617.06196	0.15040
2615.13340	0.15024
2613.20483	0.15012
2611.27627	0.14991
2609.34771	0.14972
2607.41914	0.14966
2605.49058	0.14966
2603.56201	0.14956
2601.63345	0.14938
2599.70488	0.14932
2597.77632	0.14948
2595.84775	0.14971
2593.91919	0.14980
2591.99062	0.14984
2590.06206	0.14997
2588.13350	0.15009
2586.20493	0.15012
2584.27637	0.15025
2582.34780	0.15054
2580.41924	0.15086
2578.49067	0.15113
2576.56211	0.15133
2574.63354	0.15158
2572.70498	0.15197
2570.77642	0.15246
2568.84785	0.15289
2566.91929	0.15316
2564.99072	0.15348
2563.06216	0.15398
2561.13359	0.15439
2559.20503	0.15461
2557.27646	0.15491
2555.34790	0.15546
2553.41934	0.15620
2551.49077	0.15692
2549.56221	0.15750
2547.63364	0.15804
2545.70508	0.15860
2543.77651	0.15912
2541.84795	0.15962
2539.91938	0.16015
2537.99082	0.16080
2536.06226	0.16153
2534.13369	0.16220
2532.20513	0.16286
2530.27656	0.16355
2528.34800	0.16427
2526.41943	0.16500
2524.49087	0.16574
2522.56230	0.16649
2520.63374	0.16720
2518.70518	0.16784
2516.77661	0.16849
2514.84805	0.16933
2512.91948	0.17028
2510.99092	0.17113
2509.06235	0.17189
2507.13379	0.17270
2505.20522	0.17360
2503.27666	0.17446
2501.34810	0.17520
2499.41953	0.17595
2497.49097	0.17680
2495.56240	0.17766
2493.63384	0.17848
2491.70527	0.17937
2489.77671	0.18032
2487.84814	0.18122
2485.91958	0.18206
2483.99102	0.18286
2482.06245	0.18362
2480.13389	0.18437
2478.20532	0.18529
2476.27676	0.18634
2474.34819	0.18735
2472.41963	0.18833
2470.49106	0.18923
2468.56250	0.19004
2466.63394	0.19090
2464.70537	0.19186
2462.77681	0.19282
2460.84824	0.19372
2458.91968	0.19464
2456.99111	0.19565
2455.06255	0.19668
2453.13398	0.19765
2451.20542	0.19852
2449.27686	0.19943
2447.34829	0.20048
2445.41973	0.20157
2443.49116	0.20260
2441.56260	0.20360
2439.63403	0.20461
2437.70547	0.20564
2435.77690	0.20660
2433.84834	0.20756
2431.91978	0.20857
2429.99121	0.20958
2428.06265	0.21053
2426.13408	0.21155
2424.20552	0.21274
2422.27695	0.21406
2420.34839	0.21530
2418.41982	0.21644
2416.49126	0.21763
2414.56270	0.21882
2412.63413	0.21988
2410.70557	0.22088
2408.77700	0.22194
2406.84844	0.22316
2404.91987	0.22452
2402.99131	0.22583
2401.06274	0.22700
2399.13418	0.22818
2397.20562	0.22945
2395.27705	0.23074
2393.34849	0.23192
2391.41992	0.23308
2389.49136	0.23435
2387.56279	0.23568
2385.63423	0.23691
2383.70566	0.23794
2381.77710	0.23858
2379.84854	0.23885
2377.91997	0.23893
2375.99141	0.23895
2374.06284	0.23883
2372.13428	0.23834
2370.20571	0.23764
2368.27715	0.23718
2366.34858	0.23720
2364.42002	0.23757
2362.49146	0.23758
2360.56289	0.23785
2358.63433	0.23924
2356.70576	0.24159
2354.77720	0.24577
2352.84863	0.25124
2350.92007	0.25550
2348.99150	0.25747
2347.06294	0.25777
2345.13437	0.25745
2343.20581	0.25771
2341.27725	0.25885
2339.34868	0.26050
2337.42012	0.26242
2335.49155	0.26441
2333.56299	0.26643
2331.63442	0.26868
2329.70586	0.27102
2327.77729	0.27316
2325.84873	0.27539
2323.92017	0.27797
2321.99160	0.28065
2320.06304	0.28338
2318.13447	0.28615
2316.20591	0.28874
2314.27734	0.29112
2312.34878	0.29347
2310.42021	0.29568
2308.49165	0.29765
2306.56309	0.29965
2304.63452	0.30171
2302.70596	0.30366
2300.77739	0.30564
2298.84883	0.30777
2296.92026	0.31002
2294.99170	0.31224
2293.06313	0.31432
2291.13457	0.31642
2289.20601	0.31872
2287.27744	0.32101
2285.34888	0.32308
2283.42031	0.32497
2281.49175	0.32685
2279.56318	0.32877
2277.63462	0.33074
2275.70605	0.33280
2273.77749	0.33498
2271.84893	0.33722
2269.92036	0.33938
2267.99180	0.34141
2266.06323	0.34345
2264.13467	0.34571
2262.20610	0.34813
2260.27754	0.35044
2258.34897	0.35262
2256.42041	0.35478
2254.49185	0.35691
2252.56328	0.35904
2250.63472	0.36125
2248.70615	0.36356
2246.77759	0.36594
2244.84902	0.36828
2242.92046	0.37053
2240.99189	0.37279
2239.06333	0.37509
2237.13477	0.37731
2235.20620	0.37944
2233.27764	0.38164
2231.34907	0.38400
2229.42051	0.38632
2227.49194	0.38850
2225.56338	0.39066
2223.63481	0.39297
2221.70625	0.39537
2219.77769	0.39765
2217.84912	0.39979
2215.92056	0.40196
2213.99199	0.40418
2212.06343	0.40643
2210.13486	0.40862
2208.20630	0.41076
2206.27773	0.41292
2204.34917	0.41512
2202.42061	0.41727
2200.49204	0.41928
2198.56348	0.42124
2196.63491	0.42325
2194.70635	0.42532
2192.77778	0.42737
2190.84922	0.42933
2188.92065	0.43114
2186.99209	0.43285
2185.06353	0.43454
2183.13496	0.43632
2181.20640	0.43818
2179.27783	0.43993
2177.34927	0.44149
2175.42070	0.44292
2173.49214	0.44432
2171.56357	0.44583
2169.63501	0.44742
2167.70645	0.44896
2165.77788	0.45031
2163.84932	0.45153
2161.92075	0.45276
2159.99219	0.45392
2158.06362	0.45488
2156.13506	0.45572
2154.20649	0.45661
2152.27793	0.45748
2150.34937	0.45820
2148.42080	0.45891
2146.49224	0.45963
2144.56367	0.46014
2142.63511	0.46052
2140.70654	0.46092
2138.77798	0.46129
2136.84941	0.46150
2134.92085	0.46154
2132.99229	0.46150
2131.06372	0.46140
2129.13516	0.46124
2127.20659	0.46107
2125.27803	0.46087
2123.34946	0.46049
2121.42090	0.45997
2119.49233	0.45941
2117.56377	0.45890
2115.63521	0.45839
2113.70664	0.45771
2111.77808	0.45677
2109.84951	0.45574
2107.92095	0.45473
2105.99238	0.45365
2104.06382	0.45244
2102.13525	0.45111
2100.20669	0.44977
2098.27812	0.44848
2096.34956	0.44712
2094.42100	0.44562
2092.49243	0.44394
2090.56387	0.44223
2088.63530	0.44056
2086.70674	0.43881
2084.77817	0.43685
2082.84961	0.43485
2080.92104	0.43286
2078.99248	0.43084
2077.06392	0.42881
2075.13535	0.42674
2073.20679	0.42458
2071.27822	0.42233
2069.34966	0.42002
2067.42109	0.41774
2065.49253	0.41552
2063.56396	0.41315
2061.63540	0.41063
2059.70684	0.40810
2057.77827	0.40558
2055.84971	0.40308
2053.92114	0.40059
2051.99258	0.39800
2050.06401	0.39531
2048.13545	0.39267
2046.20688	0.39007
2044.27832	0.38744
2042.34976	0.38470
2040.42119	0.38187
2038.49263	0.37906
2036.56406	0.37631
2034.63550	0.37357
2032.70693	0.37074
2030.77837	0.36784
2028.84980	0.36503
2026.92124	0.36238
2024.99268	0.35968
2023.06411	0.35686
2021.13555	0.35404
2019.20698	0.35133
2017.27842	0.34865
2015.34985	0.34577
2013.42129	0.34287
2011.49272	0.34014
2009.56416	0.33742
2007.63560	0.33466
2005.70703	0.33194
2003.77847	0.32924
2001.84990	0.32650
1999.92134	0.32378
1997.99277	0.32116
1996.06421	0.31866
1994.13564	0.31622
1992.20708	0.31379
1990.27852	0.31127
1988.34995	0.30874
1986.42139	0.30622
1984.49282	0.30364
1982.56426	0.30111
1980.63569	0.29876
1978.70713	0.29652
1976.77856	0.29433
1974.85000	0.29213
1972.92144	0.28983
1970.99287	0.28763
1969.06431	0.28570
1967.13574	0.28381
1965.20718	0.28168
1963.27861	0.27953
1961.35005	0.27757
1959.42148	0.27571
1957.49292	0.27383
1955.56436	0.27195
1953.63579	0.27017
1951.70723	0.26845
1949.77866	0.26677
1947.85010	0.26513
1945.92153	0.26364
1943.99297	0.26236
1942.06440	0.26103
1940.13584	0.25934
1938.20728	0.25762
1936.27871	0.25621
1934.35015	0.25495
1932.42158	0.25368
1930.49302	0.25240
1928.56445	0.25120
1926.63589	0.25009
1924.70732	0.24920
1922.77876	0.24844
1920.85020	0.24756
1918.92163	0.24672
1916.99307	0.24591
1915.06450	0.24483
1913.13594	0.24377
1911.20737	0.24302
1909.27881	0.24238
1907.35024	0.24164
1905.42168	0.24086
1903.49312	0.24022
1901.56455	0.23966
1899.63599	0.23912
1897.70742	0.23869
1895.77886	0.23845
1893.85029	0.23819
1891.92173	0.23787
1889.99316	0.23778
1888.06460	0.23757
1886.13604	0.23707
1884.20747	0.23662
1882.27891	0.23636
1880.35034	0.23627
1878.42178	0.23624
1876.49321	0.23626
1874.56465	0.23628
1872.63608	0.23640
1870.70752	0.23689
1868.77896	0.23782
1866.85039	0.23811
1864.92183	0.23755
1862.99326	0.23728
1861.06470	0.23750
1859.13613	0.23787
1857.20757	0.23819
1855.27900	0.23853
1853.35044	0.23888
1851.42187	0.23945
1849.49331	0.24030
1847.56475	0.24133
1845.63618	0.24255
1843.70762	0.24375
1841.77905	0.24419
1839.85049	0.24428
1837.92192	0.24505
1835.99336	0.24616
1834.06479	0.24712
1832.13623	0.24817
1830.20767	0.24985
1828.27910	0.25147
1826.35054	0.25242
1824.42197	0.25349
1822.49341	0.25453
1820.56484	0.25558
1818.63628	0.25698
1816.70771	0.25869
1814.77915	0.26036
1812.85059	0.26222
1810.92202	0.26443
1808.99346	0.26651
1807.06489	0.26835
1805.13633	0.27023
1803.20776	0.27260
1801.27920	0.27540
1799.35063	0.27830
1797.42207	0.28076
1795.49351	0.28320
1793.56494	0.28634
1791.63638	0.29023
1789.70781	0.29343
1787.77925	0.29572
1785.85068	0.29879
1783.92212	0.30254
1781.99355	0.30656
1780.06499	0.31084
1778.13643	0.31507
1776.20786	0.31911
1774.27930	0.32376
1772.35073	0.33006
1770.42217	0.33642
1768.49360	0.34142
1766.56504	0.34626
1764.63647	0.35151
1762.70791	0.35761
1760.77935	0.36518
1758.85078	0.37220
1756.92222	0.37936
1754.99365	0.38716
1753.06509	0.39435
1751.13652	0.40317
1749.20796	0.41407
1747.27939	0.42432
1745.35083	0.43319
1743.42227	0.44260
1741.49370	0.45300
1739.56514	0.46524
1737.63657	0.47764
1735.70801	0.48896
1733.77944	0.50577
1731.85088	0.52505
1729.92231	0.54007
1727.99375	0.55543
1726.06519	0.57227
1724.13662	0.59092
1722.20806	0.61108
1720.27949	0.63011
1718.35093	0.65287
1716.42236	0.68540
1714.49380	0.71554
1712.56523	0.73994
1710.63667	0.76389
1708.70811	0.78987
1706.77954	0.81946
1704.85098	0.85460
1702.92241	0.88644
1700.99385	0.91868
1699.06528	0.96548
1697.13672	1.00736
1695.20815	1.04945
1693.27959	1.09137
1691.35103	1.12622
1689.42246	1.16664
1687.49390	1.20951
1685.56533	1.25163
1683.63677	1.31491
1681.70820	1.37952
1679.77964	1.42148
1677.85107	1.46190
1675.92251	1.50889
1673.99395	1.56642
1672.06538	1.61781
1670.13682	1.66853
1668.20825	1.73325
1666.27969	1.78652
1664.35112	1.83339
1662.42256	1.89243
1660.49399	1.95798
1658.56543	2.00940
1656.63687	2.05169
1654.70830	2.09086
1652.77974	2.14849
1650.85117	2.20264
1648.92261	2.22523
1646.99404	2.25416
1645.06548	2.28221
1643.13691	2.29865
1641.20835	2.30811
1639.27979	2.31638
1637.35122	2.32056
1635.42266	2.31988
1633.49409	2.31372
1631.56553	2.30057
1629.63696	2.28385
1627.70840	2.25593
1625.77983	2.22283
1623.85127	2.18153
1621.92271	2.13019
1619.99414	2.08342
1618.06558	2.03862
1616.13701	1.97652
1614.20845	1.91218
1612.27988	1.86168
1610.35132	1.80946
1608.42275	1.75365
1606.49419	1.69829
1604.56562	1.64683
1602.63706	1.59755
1600.70850	1.54975
1598.77993	1.50567
1596.85137	1.46423
1594.92280	1.42412
1592.99424	1.38553
1591.06567	1.35039
1589.13711	1.31773
1587.20854	1.28746
1585.27998	1.25952
1583.35142	1.23339
1581.42285	1.20949
1579.49429	1.18913
1577.56572	1.17128
1575.63716	1.15041
1573.70859	1.13156
1571.78003	1.11906
1569.85146	1.10709
1567.92290	1.09387
1565.99434	1.08348
1564.06577	1.07588
1562.13721	1.07046
1560.20864	1.06784
1558.28008	1.06691
1556.35151	1.06528
1554.42295	1.06327
1552.49438	1.06131
1550.56582	1.05844
1548.63726	1.05378
1546.70869	1.04733
1544.78013	1.03876
1542.85156	1.02792
1540.92300	1.01242
1538.99443	0.98686
1537.06587	0.96603
1535.13730	0.95185
1533.20874	0.93428
1531.28018	0.91537
1529.35161	0.90128
1527.42305	0.88837
1525.49448	0.87535
1523.56592	0.86453
1521.63735	0.85445
1519.70879	0.84367
1517.78022	0.83407
1515.85166	0.82327
1513.92310	0.81180
1511.99453	0.80183
1510.06597	0.79346
1508.13740	0.78623
1506.20884	0.77433
1504.28027	0.76187
1502.35171	0.75454
1500.42314	0.74884
1498.49458	0.74333
1496.56602	0.73694
1494.63745	0.73007
1492.70889	0.72466
1490.78032	0.72057
1488.85176	0.71607
1486.92319	0.71098
1484.99463	0.70662
1483.06606	0.70344
1481.13750	0.70104
1479.20894	0.69919
1477.28037	0.69827
1475.35181	0.69824
1473.42324	0.69829
1471.49468	0.69695
1469.56611	0.69437
1467.63755	0.69209
1465.70898	0.69061
1463.78042	0.68949
1461.85186	0.68869
1459.92329	0.68888
1457.99473	0.68988
1456.06616	0.68932
1454.13760	0.68623
1452.20903	0.68328
1450.28047	0.68084
1448.35190	0.67848
1446.42334	0.67583
1444.49478	0.67317
1442.56621	0.67076
1440.63765	0.66862
1438.70908	0.66680
1436.78052	0.66450
1434.85195	0.66121
1432.92339	0.65837
1430.99482	0.65674
1429.06626	0.65597
1427.13770	0.65557
1425.20913	0.65570
1423.28057	0.65620
1421.35200	0.65660
1419.42344	0.65720
1417.49487	0.65714
1415.56631	0.65555
1413.63774	0.65389
1411.70918	0.65306
1409.78062	0.65310
1407.85205	0.65360
1405.92349	0.65436
1403.99492	0.65485
1402.06636	0.65444
1400.13779	0.65354
1398.20923	0.65221
1396.28066	0.65010
1394.35210	0.64677
1392.42354	0.64266
1390.49497	0.63900
1388.56641	0.63576
1386.63784	0.63196
1384.70928	0.62755
1382.78071	0.62338
1380.85215	0.61975
1378.92358	0.61689
1376.99502	0.61498
1375.06646	0.61388
1373.13789	0.61304
1371.20933	0.61218
1369.28076	0.61145
1367.35220	0.61052
1365.42363	0.60936
1363.49507	0.60823
1361.56650	0.60686
1359.63794	0.60511
1357.70937	0.60342
1355.78081	0.60199
1353.85225	0.60085
1351.92368	0.59994
1349.99512	0.59905
1348.06655	0.59804
1346.13799	0.59703
1344.20942	0.59613
1342.28086	0.59532
1340.35229	0.59462
1338.42373	0.59378
1336.49517	0.59277
1334.56660	0.59195
1332.63804	0.59151
1330.70947	0.59136
1328.78091	0.59141
1326.85234	0.59170
1324.92378	0.59223
1322.99521	0.59279
1321.06665	0.59323
1319.13809	0.59359
1317.20952	0.59380
1315.28096	0.59369
1313.35239	0.59331
1311.42383	0.59273
1309.49526	0.59185
1307.56670	0.59076
1305.63813	0.58975
1303.70957	0.58893
1301.78101	0.58803
1299.85244	0.58694
1297.92388	0.58586
1295.99531	0.58483
1294.06675	0.58365
1292.13818	0.58228
1290.20962	0.58092
1288.28105	0.57967
1286.35249	0.57846
1284.42393	0.57727
1282.49536	0.57613
1280.56680	0.57497
1278.63823	0.57371
1276.70967	0.57250
1274.78110	0.57139
1272.85254	0.57040
1270.92397	0.56971
1268.99541	0.56922
1267.06685	0.56862
1265.13828	0.56793
1263.20972	0.56732
1261.28115	0.56668
1259.35259	0.56599
1257.42402	0.56540
1255.49546	0.56493
1253.56689	0.56463
1251.63833	0.56457
1249.70977	0.56472
1247.78120	0.56480
1245.85264	0.56456
1243.92407	0.56392
1241.99551	0.56302
1240.06694	0.56191
1238.13838	0.56045
1236.20981	0.55873
1234.28125	0.55695
1232.35269	0.55510
1230.42412	0.55314
1228.49556	0.55123
1226.56699	0.54938
1224.63843	0.54757
1222.70986	0.54595
1220.78130	0.54452
1218.85273	0.54311
1216.92417	0.54183
1214.99561	0.54074
1213.06704	0.53977
1211.13848	0.53898
1209.20991	0.53830
1207.28135	0.53767
1205.35278	0.53712
1203.42422	0.53651
1201.49565	0.53567
1199.56709	0.53466
1197.63853	0.53368
1195.70996	0.53282
1193.78140	0.53199
1191.85283	0.53124
1189.92427	0.53076
1187.99570	0.53046
1186.06714	0.53026
1184.13857	0.53035
1182.21001	0.53074
1180.28145	0.53125
1178.35288	0.53197
1176.42432	0.53304
1174.49575	0.53426
1172.56719	0.53534
1170.63862	0.53617
1168.71006	0.53673
1166.78149	0.53722
1164.85293	0.53783
1162.92437	0.53838
1160.99580	0.53869
1159.06724	0.53884
1157.13867	0.53880
1155.21011	0.53831
1153.28154	0.53717
1151.35298	0.53539
1149.42441	0.53301
1147.49585	0.53016
1145.56729	0.52718
1143.63872	0.52436
1141.71016	0.52187
1139.78159	0.51982
1137.85303	0.51833
1135.92446	0.51748
1133.99590	0.51722
1132.06733	0.51733
1130.13877	0.51758
1128.21021	0.51757
1126.28164	0.51713
1124.35308	0.51665
1122.42451	0.51657
1120.49595	0.51694
1118.56738	0.51750
1116.63882	0.51805
1114.71025	0.51873
1112.78169	0.51955
1110.85312	0.52034
1108.92456	0.52123
1106.99600	0.52228
1105.06743	0.52325
1103.13887	0.52407
1101.21030	0.52505
1099.28174	0.52637
1097.35317	0.52811
1095.42461	0.53058
1093.49604	0.53405
1091.56748	0.53871
1089.63892	0.54486
1087.71035	0.55259
1085.78179	0.56146
1083.85322	0.57043
1081.92466	0.57822
1079.99609	0.58379
1078.06753	0.58651
1076.13896	0.58611
1074.21040	0.58291
1072.28184	0.57758
1070.35327	0.57081
1068.42471	0.56349
1066.49614	0.55638
1064.56758	0.54982
1062.63901	0.54407
1060.71045	0.53918
1058.78188	0.53493
1056.85332	0.53112
1054.92476	0.52771
1052.99619	0.52476
1051.06763	0.52254
1049.13906	0.52129
1047.21050	0.52077
1045.28193	0.52071
1043.35337	0.52107
1041.42480	0.52164
1039.49624	0.52200
1037.56768	0.52191
1035.63911	0.52172
1033.71055	0.52150
1031.78198	0.52066
1029.85342	0.51903
1027.92485	0.51703
1025.99629	0.51500
1024.06772	0.51339
1022.13916	0.51232
1020.21060	0.51167
1018.28203	0.51126
1016.35347	0.51084
1014.42490	0.51027
1012.49634	0.50957
1010.56777	0.50897
1008.63921	0.50882
1006.71064	0.50914
1004.78208	0.50981
1002.85352	0.51123
1000.92495	0.51367
998.99639	0.51710
997.06782	0.52136
995.13926	0.52590
993.21069	0.53000
991.28213	0.53314
989.35356	0.53496
987.42500	0.53542
985.49644	0.53509
983.56787	0.53474
981.63931	0.53471
979.71074	0.53522
977.78218	0.53652
975.85361	0.53851
973.92505	0.54083
971.99648	0.54346
970.06792	0.54666
968.13936	0.55051
966.21079	0.55458
964.28223	0.55876
962.35366	0.56343
960.42510	0.56853
958.49653	0.57375
956.56797	0.57921
954.63940	0.58501
952.71084	0.59117
950.78228	0.59771
948.85371	0.60434
946.92515	0.61080
944.99658	0.61708
943.06802	0.62319
941.13945	0.62922
939.21089	0.63517
937.28232	0.64094
935.35376	0.64648
933.42520	0.65189
931.49663	0.65753
929.56807	0.66371
927.63950	0.67026
925.71094	0.67664
923.78237	0.68291
921.85381	0.68940
919.92524	0.69581
917.99668	0.70255
916.06812	0.71057
914.13955	0.71905
912.21099	0.72682
910.28242	0.73434
908.35386	0.74199
906.42529	0.75011
904.49673	0.75975
902.56816	0.77001
900.63960	0.77942
898.71104	0.78866
896.78247	0.79794
894.85391	0.80681
892.92534	0.81649
890.99678	0.82784
889.06821	0.83958
887.13965	0.85034
885.21108	0.86121
883.28252	0.87349
881.35396	0.88555
879.42539	0.89662
877.49683	0.90805
875.56826	0.91961
873.63970	0.93071
871.71113	0.94190
869.78257	0.95300
867.85400	0.96399
865.92544	0.97589
863.99687	0.98887
862.06831	1.00060
860.13975	1.01005
858.21118	1.02037
856.28262	1.03269
854.35405	1.04545
852.42549	1.05804
850.49692	1.06944
848.56836	1.07987
846.63979	1.09209
844.71123	1.10631
842.78267	1.11877
840.85410	1.12881
838.92554	1.13956
836.99697	1.15239
835.06841	1.16694
833.13984	1.18140
831.21128	1.19236
829.28271	1.20144
827.35415	1.21420
825.42559	1.22673
823.49702	1.23156
821.56846	1.23471
819.63989	1.24853
817.71133	1.27123
815.78276	1.28777
813.85420	1.29464
811.92563	1.30585
809.99707	1.32065
808.06851	1.31898
806.13994	1.30895
804.21138	1.31550
802.28281	1.33659
800.35425	1.35844
798.42568	1.39067
796.49712	1.43157
794.56855	1.44131
792.63999	1.42311
790.71143	1.41168
788.78286	1.42478
786.85430	1.47201
784.92573	1.51704
782.99717	1.51765
781.06860	1.50301
779.14004	1.47419
777.21147	1.44148
775.28291	1.44526
773.35435	1.47282
771.42578	1.50165
769.49722	1.60738
767.56865	1.89088
765.64009	1.97014
763.71152	1.66287
761.78296	1.46001
759.85439	1.40327
757.92583	1.44955
755.99727	1.39953
754.06870	1.30548
752.14014	1.35775
750.21157	1.57731
748.28301	1.62700
746.35444	1.51272
744.42588	1.52716
742.49731	1.68893
740.56875	1.62741
738.64019	1.17386
736.71162	0.92148
734.78306	0.79482
732.85449	0.69814
730.92593	0.70966
728.99736	1.04167
727.06880	4.36241
725.14023	0.96303
723.21167	0.60345
721.28311	0.48590
719.35454	0.60213
717.42598	0.87025
715.49741	0.61975
713.56885	0.41391
711.64028	0.28810
709.71172	0.26009
707.78315	0.30179
705.85459	0.40497
703.92603	0.51454
701.99746	0.54573
700.06890	0.53689
698.14033	0.60978
696.21177	0.76358
694.28320	0.89083
692.35464	4.15413
690.42607	4.14256
688.49751	4.13099
686.56895	4.11941
684.64038	0.99660
682.71182	0.88497
680.78325	0.82146
678.85469	0.51253
676.92612	0.41259
674.99756	0.44137
673.06899	0.44322
671.14043	0.35419
669.21187	0.29816
667.28330	0.32074
665.35474	0.38746
663.42617	0.44861
661.49761	0.52562
659.56904	0.54787
657.64048	0.50194
655.71191	0.55307
653.78335	0.54507
651.85479	0.42683
649.92622	0.40967
647.99766	0.46318
646.06909	0.52429
644.14053	0.49998
642.21196	0.36804
640.28340	0.30000
638.35483	0.33117
636.42627	0.41891
634.49771	0.53139
632.56914	0.44777
630.64058	0.33568
628.71201	0.37041
626.78345	0.44772
624.85488	0.45410
622.92632	0.44458
620.99775	0.53240
619.06919	0.74295
617.14062	0.67092
615.21206	0.38769
613.28350	0.29253
611.35493	0.33971
609.42637	0.39971
607.49780	0.34053
605.56924	0.26088
603.64067	0.24471
601.71211	0.29666
599.78354	0.39431
597.85498	0.42727
595.92642	0.45002
593.99785	0.48353
592.06929	0.40131
590.14072	0.32225
588.21216	0.33655
586.28359	0.36144
584.35503	0.30451
582.42646	0.21595
580.49790	0.18603
578.56934	0.23727
576.64077	0.35478
574.71221	0.55069
572.78364	0.61018
570.85508	0.35144
568.92651	0.23379
566.99795	0.25792
565.06938	0.32473
563.14082	0.35928
561.21226	0.33614
559.28369	0.28190
557.35513	0.29371
555.42656	0.36270
553.49800	0.37877
551.56943	0.33192
549.64087	0.28655
547.71230	0.27976
545.78374	0.27040
543.85518	0.20891
541.92661	0.17753
539.99805	0.23046
538.06948	0.36288
536.14092	0.56081
534.21235	0.69989
532.28379	0.54998
530.35522	0.38685
528.42666	0.31277
526.49810	0.27757
524.56953	0.27945
522.64097	0.33166
520.71240	0.34876
518.78384	0.29189
516.85527	0.25210
514.92671	0.26576
512.99814	0.28200
511.06958	0.24433
509.14102	0.23517
507.21245	0.32785
505.28389	0.41992
503.35532	0.34768
501.42676	0.25586
499.49819	0.21969
