3997.91411	0.06021
3995.98555	0.06028
3994.05698	0.06078
3992.12842	0.06153
3990.19985	0.06212
3988.27129	0.06254
3986.34272	0.06290
3984.41416	0.06303
3982.48560	0.06296
3980.55703	0.06312
3978.62847	0.06369
3976.69990	0.06427
3974.77134	0.06455
3972.84277	0.06467
3970.91421	0.06466
3968.98564	0.06460
3967.05708	0.06466
3965.12852	0.06480
3963.19995	0.06498
3961.27139	0.06537
3959.34282	0.06579
3957.41426	0.06586
3955.48569	0.06564
3953.55713	0.06548
3951.62856	0.06569
3949.70000	0.06639
3947.77144	0.06707
3945.84287	0.06712
3943.91431	0.06682
3941.98574	0.06651
3940.05718	0.06590
3938.12861	0.06523
3936.20005	0.06501
3934.27148	0.06533
3932.34292	0.06629
3930.41436	0.06723
3928.48579	0.06706
3926.55723	0.06657
3924.62866	0.06695
3922.70010	0.06736
3920.77153	0.06704
3918.84297	0.06686
3916.91440	0.06686
3914.98584	0.06626
3913.05728	0.06538
3911.12871	0.06498
3909.20015	0.06508
3907.27158	0.06560
3905.34302	0.06681
3903.41445	0.06845
3901.48589	0.06943
3899.55732	0.06915
3897.62876	0.06776
3895.70020	0.06628
3893.77163	0.06592
3891.84307	0.06682
3889.91450	0.06768
3887.98594	0.06761
3886.05737	0.06795
3884.12881	0.06881
3882.20024	0.06905
3880.27168	0.06928
3878.34312	0.06928
3876.41455	0.06863
3874.48599	0.06876
3872.55742	0.06985
3870.62886	0.07088
3868.70029	0.07141
3866.77173	0.07129
3864.84316	0.07166
3862.91460	0.07236
3860.98604	0.07185
3859.05747	0.07101
3857.12891	0.07101
3855.20034	0.07210
3853.27178	0.07506
3851.34321	0.07730
3849.41465	0.07559
3847.48608	0.07363
3845.55752	0.07316
3843.62896	0.07415
3841.70039	0.07598
3839.77183	0.07773
3837.84326	0.07926
3835.91470	0.07999
3833.98613	0.07960
3832.05757	0.07934
3830.12900	0.07951
3828.20044	0.08000
3826.27187	0.08104
3824.34331	0.08198
3822.41475	0.08295
3820.48618	0.08522
3818.55762	0.08674
3816.62905	0.08670
3814.70049	0.08715
3812.77192	0.08750
3810.84336	0.08742
3808.91479	0.08802
3806.98623	0.08993
3805.05767	0.09193
3803.12910	0.09306
3801.20054	0.09487
3799.27197	0.09685
3797.34341	0.09745
3795.41484	0.09786
3793.48628	0.09822
3791.55771	0.09849
3789.62915	0.09917
3787.70059	0.10058
3785.77202	0.10288
3783.84346	0.10541
3781.91489	0.10718
3779.98633	0.10859
3778.05776	0.11017
3776.12920	0.11141
3774.20063	0.11249
3772.27207	0.11414
3770.34351	0.11673
3768.41494	0.11957
3766.48638	0.12144
3764.55781	0.12299
3762.62925	0.12475
3760.70068	0.12703
3758.77212	0.13026
3756.84355	0.13323
3754.91499	0.13519
3752.98643	0.13790
3751.05786	0.14289
3749.12930	0.14819
3747.20073	0.15048
3745.27217	0.15239
3743.34360	0.15650
3741.41504	0.16025
3739.48647	0.16316
3737.55791	0.16779
3735.62935	0.17498
3733.70078	0.18272
3731.77222	0.18795
3729.84365	0.19168
3727.91509	0.19566
3725.98652	0.20098
3724.05796	0.20728
3722.12939	0.21330
3720.20083	0.21919
3718.27227	0.22515
3716.34370	0.23119
3714.41514	0.23780
3712.48657	0.24739
3710.55801	0.26247
3708.62944	0.27840
3706.70088	0.29038
3704.77231	0.30120
3702.84375	0.31412
3700.91519	0.33106
3698.98662	0.34979
3697.05806	0.36759
3695.12949	0.38605
3693.20093	0.40566
3691.27236	0.42734
3689.34380	0.45523
3687.41523	0.48926
3685.48667	0.51925
3683.55811	0.54496
3681.62954	0.57309
3679.70098	0.60550
3677.77241	0.63973
3675.84385	0.67980
3673.91528	0.73225
3671.98672	0.77592
3670.05815	0.81506
3668.12959	0.86710
3666.20103	0.91547
3664.27246	0.95676
3662.34390	1.00075
3660.41533	1.04844
3658.48677	1.09588
3656.55820	1.14578
3654.62964	1.20064
3652.70107	1.24783
3650.77251	1.28997
3648.84395	1.34620
3646.91538	1.41332
3644.98682	1.46411
3643.05825	1.50379
3641.12969	1.54442
3639.20112	1.58921
3637.27256	1.63459
3635.34399	1.67905
3633.41543	1.72349
3631.48687	1.76506
3629.55830	1.80720
3627.62974	1.86164
3625.70117	1.91277
3623.77261	1.94789
3621.84404	1.98099
3619.91548	2.01900
3617.98691	2.06536
3616.05835	2.10935
3614.12979	2.14514
3612.20122	2.18300
3610.27266	2.22236
3608.34409	2.26312
3606.41553	2.30662
3604.48696	2.34695
3602.55840	2.38363
3600.62983	2.42302
3598.70127	2.46502
3596.77271	2.50561
3594.84414	2.54566
3592.91558	2.58613
3590.98701	2.62495
3589.05845	2.66218
3587.12988	2.70572
3585.20132	2.75340
3583.27275	2.79574
3581.34419	2.83465
3579.41562	2.87510
3577.48706	2.91833
3575.55850	2.96149
3573.62993	3.00434
3571.70137	3.04596
3569.77280	3.08584
3567.84424	3.12958
3565.91567	3.18349
3563.98711	3.23406
3562.05854	3.27535
3560.12998	3.31775
3558.20142	3.36256
3556.27285	3.40778
3554.34429	3.45298
3552.41572	3.49941
3550.48716	3.54606
3548.55859	3.59248
3546.63003	3.64110
3544.70146	3.69248
3542.77290	3.74177
3540.84434	3.78786
3538.91577	3.83437
3536.98721	3.87981
3535.05864	3.92322
3533.13008	3.96756
3531.20151	4.01600
3529.27295	4.06683
3527.34438	4.11679
3525.41582	4.16183
3523.48726	4.20593
3521.55869	4.25833
3519.63013	4.31394
3517.70156	4.36626
3515.77300	4.41535
3513.84443	4.46123
3511.91587	4.50596
3509.98730	4.55505
3508.05874	4.61024
3506.13018	4.66533
3504.20161	4.71454
3502.27305	4.76227
3500.34448	4.81044
3498.41592	4.85392
3496.48735	4.89947
3494.55879	4.95226
3492.63022	5.00571
3490.70166	5.05441
3488.77310	5.09858
3486.84453	5.14118
3484.91597	5.18824
3482.98740	5.24344
3481.05884	5.30029
3479.13027	5.35278
3477.20171	5.40093
3475.27314	5.44487
3473.34458	5.49236
3471.41602	5.54719
3469.48745	5.59521
3467.55889	5.63487
3465.63032	5.68650
3463.70176	5.75430
3461.77319	5.81403
3459.84463	5.85422
3457.91606	5.89585
3455.98750	5.95469
3454.05894	6.01715
3452.13037	6.07180
3450.20181	6.11688
3448.27324	6.15332
3446.34468	6.19951
3444.41611	6.26119
3442.48755	6.32283
3440.55898	6.36363
3438.63042	6.39757
3436.70186	6.45287
3434.77329	6.51595
3432.84473	6.57585
3430.91616	6.63478
3428.98760	6.68964
3427.05903	6.73739
3425.13047	6.78463
3423.20190	6.84031
3421.27334	6.90483
3419.34478	6.95020
3417.41621	6.95765
3415.48765	6.97203
3413.55908	7.01946
3411.63052	7.07193
3409.70195	7.12244
3407.77339	7.19749
3405.84482	7.28043
3403.91626	7.33108
3401.98770	7.34685
3400.05913	7.37802
3398.13057	7.43297
3396.20200	7.47700
3394.27344	7.52367
3392.34487	7.55680
3390.41631	7.57007
3388.48774	7.59499
3386.55918	7.63509
3384.63062	7.68664
3382.70205	7.75731
3380.77349	7.83188
3378.84492	7.91816
3376.91636	7.97692
3374.98779	7.92265
3373.05923	7.88268
3371.13066	7.94861
3369.20210	8.05171
3367.27354	8.09924
3365.34497	8.07170
3363.41641	8.03722
3361.48784	8.01427
3359.55928	8.02307
3357.63071	8.11812
3355.70215	8.25559
3353.77358	8.29379
3351.84502	8.23738
3349.91646	8.17169
3347.98789	8.15286
3346.05933	8.20169
3344.13076	8.27298
3342.20220	8.30784
3340.27363	8.26375
3338.34507	8.20175
3336.41650	8.22658
3334.48794	8.35861
3332.55937	8.48174
3330.63081	8.51919
3328.70225	8.47320
3326.77368	8.35628
3324.84512	8.26154
3322.91655	8.23822
3320.98799	8.27256
3319.05942	8.34624
3317.13086	8.47199
3315.20229	8.56526
3313.27373	8.50929
3311.34517	8.38220
3309.41660	8.31731
3307.48804	8.33601
3305.55947	8.35081
3303.63091	8.33851
3301.70234	8.36157
3299.77378	8.40785
3297.84521	8.38294
3295.91665	8.35986
3293.98809	8.47623
3292.05952	8.65574
3290.13096	8.71652
3288.20239	8.65519
3286.27383	8.58119
3284.34526	8.53199
3282.41670	8.51358
3280.48813	8.49760
3278.55957	8.48578
3276.63101	8.52431
3274.70244	8.60392
3272.77388	8.67710
3270.84531	8.68674
3268.91675	8.59662
3266.98818	8.47294
3265.05962	8.39525
3263.13105	8.37721
3261.20249	8.40102
3259.27393	8.41422
3257.34536	8.40322
3255.41680	8.38909
3253.48823	8.42069
3251.55967	8.51046
3249.63110	8.55999
3247.70254	8.56324
3245.77397	8.61334
3243.84541	8.68372
3241.91685	8.65047
3239.98828	8.53009
3238.05972	8.42654
3236.13115	8.36955
3234.20259	8.31654
3232.27402	8.28527
3230.34546	8.34250
3228.41689	8.40721
3226.48833	8.39572
3224.55977	8.36885
3222.63120	8.36144
3220.70264	8.37061
3218.77407	8.40513
3216.84551	8.41880
3214.91694	8.32685
3212.98838	8.18021
3211.05981	8.09363
3209.13125	8.09546
3207.20269	8.15213
3205.27412	8.17317
3203.34556	8.11030
3201.41699	8.03566
3199.48843	8.00097
3197.55986	7.98048
3195.63130	7.92719
3193.70273	7.86822
3191.77417	7.82151
3189.84561	7.75325
3187.91704	7.69881
3185.98848	7.67928
3184.05991	7.64151
3182.13135	7.57760
3180.20278	7.52193
3178.27422	7.46285
3176.34565	7.39422
3174.41709	7.33709
3172.48853	7.29147
3170.55996	7.23379
3168.63140	7.16368
3166.70283	7.11070
3164.77427	7.05674
3162.84570	6.97574
3160.91714	6.89398
3158.98857	6.82145
3157.06001	6.74720
3155.13145	6.69136
3153.20288	6.65915
3151.27432	6.60535
3149.34575	6.51283
3147.41719	6.42252
3145.48862	6.35268
3143.56006	6.27791
3141.63149	6.18901
3139.70293	6.10756
3137.77437	6.04397
3135.84580	5.97841
3133.91724	5.90433
3131.98867	5.83952
3130.06011	5.78006
3128.13154	5.70664
3126.20298	5.62429
3124.27441	5.55116
3122.34585	5.48285
3120.41729	5.40786
3118.48872	5.32705
3116.56016	5.24610
3114.63159	5.17268
3112.70303	5.10510
3110.77446	5.03697
3108.84590	4.97027
3106.91733	4.90362
3104.98877	4.83225
3103.06021	4.75876
3101.13164	4.68679
3099.20308	4.61674
3097.27451	4.54703
3095.34595	4.47881
3093.41738	4.41343
3091.48882	4.34666
3089.56025	4.27861
3087.63169	4.21370
3085.70312	4.15096
3083.77456	4.08765
3081.84600	4.02377
3079.91743	3.95983
3077.98887	3.89772
3076.06030	3.83780
3074.13174	3.77735
3072.20317	3.71635
3070.27461	3.65573
3068.34604	3.59593
3066.41748	3.53802
3064.48892	3.48129
3062.56035	3.42451
3060.63179	3.36856
3058.70322	3.31253
3056.77466	3.25528
3054.84609	3.19924
3052.91753	3.14622
3050.98896	3.09517
3049.06040	3.04410
3047.13184	2.99228
3045.20327	2.94097
3043.27471	2.89154
3041.34614	2.84367
3039.41758	2.79536
3037.48901	2.74644
3035.56045	2.69928
3033.63188	2.65414
3031.70332	2.60836
3029.77476	2.56160
3027.84619	2.51636
3025.91763	2.47348
3023.98906	2.43143
3022.06050	2.38936
3020.13193	2.34775
3018.20337	2.30644
3016.27480	2.26497
3014.34624	2.22428
3012.41768	2.18519
3010.48911	2.14694
3008.56055	2.10896
3006.63198	2.07179
3004.70342	2.03532
3002.77485	1.99874
3000.84629	1.96248
2998.91772	1.92760
2996.98916	1.89375
2995.06060	1.86016
2993.13203	1.82711
2991.20347	1.79511
2989.27490	1.76429
2987.34634	1.73426
2985.41777	1.70385
2983.48921	1.67291
2981.56064	1.64290
2979.63208	1.61398
2977.70352	1.58530
2975.77495	1.55708
2973.84639	1.52938
2971.91782	1.50172
2969.98926	1.47419
2968.06069	1.44688
2966.13213	1.41980
2964.20356	1.39325
2962.27500	1.36740
2960.34644	1.34183
2958.41787	1.31629
2956.48931	1.29147
2954.56074	1.26776
2952.63218	1.24465
2950.70361	1.22156
2948.77505	1.19865
2946.84648	1.17638
2944.91792	1.15447
2942.98936	1.13258
2941.06079	1.11067
2939.13223	1.08862
2937.20366	1.06669
2935.27510	1.04488
2933.34653	1.02286
2931.41797	1.00138
2929.48940	0.98115
2927.56084	0.96166
2925.63228	0.94235
2923.70371	0.92331
2921.77515	0.90477
2919.84658	0.88728
2917.91802	0.87140
2915.98945	0.85706
2914.06089	0.84368
2912.13232	0.83052
2910.20376	0.81746
2908.27520	0.80450
2906.34663	0.79135
2904.41807	0.77819
2902.48950	0.76534
2900.56094	0.75287
2898.63237	0.74083
2896.70381	0.72894
2894.77524	0.71701
2892.84668	0.70523
2890.91812	0.69381
2888.98955	0.68264
2887.06099	0.67186
2885.13242	0.66150
2883.20386	0.65096
2881.27529	0.64001
2879.34673	0.62933
2877.41816	0.61909
2875.48960	0.60879
2873.56104	0.59830
2871.63247	0.58768
2869.70391	0.57708
2867.77534	0.56645
2865.84678	0.55538
2863.91821	0.54392
2861.98965	0.53250
2860.06108	0.52136
2858.13252	0.51058
2856.20396	0.50013
2854.27539	0.49015
2852.34683	0.48074
2850.41826	0.47189
2848.48970	0.46420
2846.56113	0.45826
2844.63257	0.45333
2842.70400	0.44863
2840.77544	0.44402
2838.84687	0.43935
2836.91831	0.43458
2834.98975	0.42963
2833.06118	0.42443
2831.13262	0.41900
2829.20405	0.41340
2827.27549	0.40781
2825.34692	0.40219
2823.41836	0.39635
2821.48979	0.39047
2819.56123	0.38487
2817.63267	0.37949
2815.70410	0.37401
2813.77554	0.36839
2811.84697	0.36295
2809.91841	0.35776
2807.98984	0.35268
2806.06128	0.34765
2804.13271	0.34260
2802.20415	0.33760
2800.27559	0.33268
2798.34702	0.32787
2796.41846	0.32320
2794.48989	0.31862
2792.56133	0.31403
2790.63276	0.30955
2788.70420	0.30538
2786.77563	0.30129
2784.84707	0.29700
2782.91851	0.29271
2780.98994	0.28866
2779.06138	0.28477
2777.13281	0.28106
2775.20425	0.27745
2773.27568	0.27380
2771.34712	0.27032
2769.41855	0.26696
2767.48999	0.26350
2765.56143	0.26009
2763.63286	0.25683
2761.70430	0.25356
2759.77573	0.25035
2757.84717	0.24735
2755.91860	0.24441
2753.99004	0.24131
2752.06147	0.23816
2750.13291	0.23519
2748.20435	0.23243
2746.27578	0.22985
2744.34722	0.22733
2742.41865	0.22465
2740.49009	0.22187
2738.56152	0.21926
2736.63296	0.21692
2734.70439	0.21468
2732.77583	0.21237
2730.84727	0.21008
2728.91870	0.20784
2726.99014	0.20565
2725.06157	0.20351
2723.13301	0.20140
2721.20444	0.19933
2719.27588	0.19726
2717.34731	0.19523
2715.41875	0.19346
2713.49019	0.19194
2711.56162	0.19037
2709.63306	0.18865
2707.70449	0.18690
2705.77593	0.18512
2703.84736	0.18342
2701.91880	0.18190
2699.99023	0.18042
2698.06167	0.17889
2696.13311	0.17744
2694.20454	0.17612
2692.27598	0.17490
2690.34741	0.17365
2688.41885	0.17241
2686.49028	0.17122
2684.56172	0.17003
2682.63315	0.16892
2680.70459	0.16790
2678.77603	0.16691
2676.84746	0.16589
2674.91890	0.16472
2672.99033	0.16350
2671.06177	0.16244
2669.13320	0.16144
2667.20464	0.16042
2665.27607	0.15951
2663.34751	0.15879
2661.41895	0.15811
2659.49038	0.15733
2657.56182	0.15656
2655.63325	0.15583
2653.70469	0.15505
2651.77612	0.15435
2649.84756	0.15378
2647.91899	0.15318
2645.99043	0.15256
2644.06187	0.15196
2642.13330	0.15138
2640.20474	0.15096
2638.27617	0.15065
2636.34761	0.15025
2634.41904	0.14984
2632.49048	0.14948
2630.56191	0.14902
2628.63335	0.14846
2626.70479	0.14800
2624.77622	0.14780
2622.84766	0.14773
2620.91909	0.14763
2618.99053	0.14749
2617.06196	0.14735
2615.13340	0.14728
2613.20483	0.14728
2611.27627	0.14715
2609.34771	0.14698
2607.41914	0.14696
2605.49058	0.14696
2603.56201	0.14684
2601.63345	0.14675
2599.70488	0.14686
2597.77632	0.14702
2595.84775	0.14708
2593.91919	0.14721
2591.99062	0.14747
2590.06206	0.14773
2588.13350	0.14789
2586.20493	0.14809
2584.27637	0.14841
2582.34780	0.14865
2580.41924	0.14890
2578.49067	0.14929
2576.56211	0.14962
2574.63354	0.14985
2572.70498	0.15018
2570.77642	0.15064
2568.84785	0.15115
2566.91929	0.15169
2564.99072	0.15222
2563.06216	0.15272
2561.13359	0.15320
2559.20503	0.15369
2557.27646	0.15424
2555.34790	0.15484
2553.41934	0.15540
2551.49077	0.15594
2549.56221	0.15649
2547.63364	0.15704
2545.70508	0.15768
2543.77651	0.15837
2541.84795	0.15903
2539.91938	0.15969
2537.99082	0.16026
2536.06226	0.16073
2534.13369	0.16137
2532.20513	0.16227
2530.27656	0.16318
2528.34800	0.16397
2526.41943	0.16468
2524.49087	0.16551
2522.56230	0.16649
2520.63374	0.16738
2518.70518	0.16804
2516.77661	0.16866
2514.84805	0.16942
2512.91948	0.17031
2510.99092	0.17125
2509.06235	0.17212
2507.13379	0.17285
2505.20522	0.17365
2503.27666	0.17464
2501.34810	0.17570
2499.41953	0.17672
2497.49097	0.17757
2495.56240	0.17826
2493.63384	0.17906
2491.70527	0.18009
2489.77671	0.18105
2487.84814	0.18188
2485.91958	0.18287
2483.99102	0.18390
2482.06245	0.18470
2480.13389	0.18550
2478.20532	0.18651
2476.27676	0.18750
2474.34819	0.18837
2472.41963	0.18938
2470.49106	0.19050
2468.56250	0.19141
2466.63394	0.19221
2464.70537	0.19316
2462.77681	0.19413
2460.84824	0.19500
2458.91968	0.19599
2456.99111	0.19709
2455.06255	0.19817
2453.13398	0.19925
2451.20542	0.20030
2449.27686	0.20129
2447.34829	0.20222
2445.41973	0.20316
2443.49116	0.20419
2441.56260	0.20527
2439.63403	0.20632
2437.70547	0.20734
2435.77690	0.20844
2433.84834	0.20956
2431.91978	0.21060
2429.99121	0.21167
2428.06265	0.21280
2426.13408	0.21392
2424.20552	0.21506
2422.27695	0.21620
2420.34839	0.21735
2418.41982	0.21851
2416.49126	0.21961
2414.56270	0.22072
2412.63413	0.22195
2410.70557	0.22322
2408.77700	0.22438
2406.84844	0.22542
2404.91987	0.22657
2402.99131	0.22795
2401.06274	0.22937
2399.13418	0.23061
2397.20562	0.23180
2395.27705	0.23306
2393.34849	0.23436
2391.41992	0.23577
2389.49136	0.23735
2387.56279	0.23936
2385.63423	0.24223
2383.70566	0.24629
2381.77710	0.25168
2379.84854	0.25819
2377.91997	0.26546
2375.99141	0.27355
2374.06284	0.28289
2372.13428	0.29371
2370.20571	0.30543
2368.27715	0.31721
2366.34858	0.32843
2364.42002	0.33827
2362.49146	0.34623
2360.56289	0.35180
2358.63433	0.35335
2356.70576	0.34993
2354.77720	0.34255
2352.84863	0.33311
2350.92007	0.32308
2348.99150	0.31634
2347.06294	0.31645
2345.13437	0.32431
2343.20581	0.33535
2341.27725	0.34170
2339.34868	0.34293
2337.42012	0.34230
2335.49155	0.34182
2333.56299	0.34179
2331.63442	0.34188
2329.70586	0.34188
2327.77729	0.34146
2325.84873	0.34010
2323.92017	0.33812
2321.99160	0.33602
2320.06304	0.33373
2318.13447	0.33111
2316.20591	0.32857
2314.27734	0.32697
2312.34878	0.32643
2310.42021	0.32615
2308.49165	0.32542
2306.56309	0.32436
2304.63452	0.32351
2302.70596	0.32320
2300.77739	0.32340
2298.84883	0.32389
2296.92026	0.32456
2294.99170	0.32539
2293.06313	0.32619
2291.13457	0.32685
2289.20601	0.32749
2287.27744	0.32827
2285.34888	0.32927
2283.42031	0.33065
2281.49175	0.33257
2279.56318	0.33493
2277.63462	0.33736
2275.70605	0.33967
2273.77749	0.34188
2271.84893	0.34401
2269.92036	0.34608
2267.99180	0.34820
2266.06323	0.35034
2264.13467	0.35241
2262.20610	0.35438
2260.27754	0.35622
2258.34897	0.35802
2256.42041	0.36000
2254.49185	0.36218
2252.56328	0.36431
2250.63472	0.36634
2248.70615	0.36840
2246.77759	0.37046
2244.84902	0.37252
2242.92046	0.37463
2240.99189	0.37679
2239.06333	0.37895
2237.13477	0.38121
2235.20620	0.38358
2233.27764	0.38596
2231.34907	0.38821
2229.42051	0.39039
2227.49194	0.39261
2225.56338	0.39475
2223.63481	0.39685
2221.70625	0.39905
2219.77769	0.40131
2217.84912	0.40354
2215.92056	0.40576
2213.99199	0.40803
2212.06343	0.41031
2210.13486	0.41248
2208.20630	0.41457
2206.27773	0.41671
2204.34917	0.41888
2202.42061	0.42100
2200.49204	0.42307
2198.56348	0.42517
2196.63491	0.42727
2194.70635	0.42932
2192.77778	0.43131
2190.84922	0.43318
2188.92065	0.43499
2186.99209	0.43689
2185.06353	0.43883
2183.13496	0.44067
2181.20640	0.44230
2179.27783	0.44382
2177.34927	0.44544
2175.42070	0.44717
2173.49214	0.44888
2171.56357	0.45045
2169.63501	0.45183
2167.70645	0.45304
2165.77788	0.45416
2163.84932	0.45533
2161.92075	0.45654
2159.99219	0.45778
2158.06362	0.45899
2156.13506	0.46005
2154.20649	0.46089
2152.27793	0.46152
2150.34937	0.46204
2148.42080	0.46263
2146.49224	0.46332
2144.56367	0.46395
2142.63511	0.46446
2140.70654	0.46488
2138.77798	0.46527
2136.84941	0.46552
2134.92085	0.46561
2132.99229	0.46559
2131.06372	0.46543
2129.13516	0.46518
2127.20659	0.46491
2125.27803	0.46458
2123.34946	0.46416
2121.42090	0.46364
2119.49233	0.46306
2117.56377	0.46250
2115.63521	0.46195
2113.70664	0.46122
2111.77808	0.46023
2109.84951	0.45910
2107.92095	0.45798
2105.99238	0.45691
2104.06382	0.45581
2102.13525	0.45452
2100.20669	0.45313
2098.27812	0.45176
2096.34956	0.45035
2094.42100	0.44878
2092.49243	0.44712
2090.56387	0.44544
2088.63530	0.44372
2086.70674	0.44190
2084.77817	0.44002
2082.84961	0.43811
2080.92104	0.43611
2078.99248	0.43403
2077.06392	0.43194
2075.13535	0.42979
2073.20679	0.42751
2071.27822	0.42522
2069.34966	0.42293
2067.42109	0.42063
2065.49253	0.41838
2063.56396	0.41604
2061.63540	0.41355
2059.70684	0.41096
2057.77827	0.40830
2055.84971	0.40564
2053.92114	0.40306
2051.99258	0.40056
2050.06401	0.39797
2048.13545	0.39526
2046.20688	0.39253
2044.27832	0.38986
2042.34976	0.38720
2040.42119	0.38447
2038.49263	0.38172
2036.56406	0.37896
2034.63550	0.37617
2032.70693	0.37337
2030.77837	0.37054
2028.84980	0.36768
2026.92124	0.36488
2024.99268	0.36209
2023.06411	0.35932
2021.13555	0.35655
2019.20698	0.35378
2017.27842	0.35103
2015.34985	0.34817
2013.42129	0.34528
2011.49272	0.34251
2009.56416	0.33985
2007.63560	0.33713
2005.70703	0.33434
2003.77847	0.33158
2001.84990	0.32892
1999.92134	0.32626
1997.99277	0.32351
1996.06421	0.32080
1994.13564	0.31832
1992.20708	0.31598
1990.27852	0.31350
1988.34995	0.31086
1986.42139	0.30824
1984.49282	0.30572
1982.56426	0.30333
1980.63569	0.30098
1978.70713	0.29861
1976.77856	0.29624
1974.85000	0.29398
1972.92144	0.29180
1970.99287	0.28966
1969.06431	0.28756
1967.13574	0.28559
1965.20718	0.28357
1963.27861	0.28140
1961.35005	0.27932
1959.42148	0.27743
1957.49292	0.27563
1955.56436	0.27380
1953.63579	0.27195
1951.70723	0.27021
1949.77866	0.26863
1947.85010	0.26712
1945.92153	0.26561
1943.99297	0.26414
1942.06440	0.26264
1940.13584	0.26103
1938.20728	0.25948
1936.27871	0.25817
1934.35015	0.25692
1932.42158	0.25562
1930.49302	0.25430
1928.56445	0.25308
1926.63589	0.25197
1924.70732	0.25105
1922.77876	0.25021
1920.85020	0.24923
1918.92163	0.24827
1916.99307	0.24741
1915.06450	0.24644
1913.13594	0.24540
1911.20737	0.24458
1909.27881	0.24401
1907.35024	0.24344
1905.42168	0.24273
1903.49312	0.24203
1901.56455	0.24140
1899.63599	0.24080
1897.70742	0.24028
1895.77886	0.23993
1893.85029	0.23965
1891.92173	0.23930
1889.99316	0.23910
1888.06460	0.23889
1886.13604	0.23851
1884.20747	0.23819
1882.27891	0.23802
1880.35034	0.23797
1878.42178	0.23790
1876.49321	0.23784
1874.56465	0.23778
1872.63608	0.23786
1870.70752	0.23829
1868.77896	0.23906
1866.85039	0.23940
1864.92183	0.23914
1862.99326	0.23901
1861.06470	0.23924
1859.13613	0.23973
1857.20757	0.24014
1855.27900	0.24048
1853.35044	0.24083
1851.42187	0.24130
1849.49331	0.24194
1847.56475	0.24276
1845.63618	0.24377
1843.70762	0.24488
1841.77905	0.24564
1839.85049	0.24601
1837.92192	0.24667
1835.99336	0.24758
1834.06479	0.24858
1832.13623	0.24971
1830.20767	0.25132
1828.27910	0.25292
1826.35054	0.25393
1824.42197	0.25503
1822.49341	0.25618
1820.56484	0.25738
1818.63628	0.25876
1816.70771	0.26034
1814.77915	0.26194
1812.85059	0.26374
1810.92202	0.26590
1808.99346	0.26809
1807.06489	0.27008
1805.13633	0.27198
1803.20776	0.27423
1801.27920	0.27691
1799.35063	0.27985
1797.42207	0.28239
1795.49351	0.28477
1793.56494	0.28770
1791.63638	0.29154
1789.70781	0.29499
1787.77925	0.29741
1785.85068	0.30042
1783.92212	0.30416
1781.99355	0.30823
1780.06499	0.31246
1778.13643	0.31672
1776.20786	0.32088
1774.27930	0.32546
1772.35073	0.33149
1770.42217	0.33779
1768.49360	0.34298
1766.56504	0.34793
1764.63647	0.35312
1762.70791	0.35899
1760.77935	0.36640
1758.85078	0.37345
1756.92222	0.38051
1754.99365	0.38817
1753.06509	0.39524
1751.13652	0.40361
1749.20796	0.41382
1747.27939	0.42364
1745.35083	0.43248
1743.42227	0.44198
1741.49370	0.45254
1739.56514	0.46493
1737.63657	0.47731
1735.70801	0.48850
1733.77944	0.50526
1731.85088	0.52488
1729.92231	0.54050
1727.99375	0.55652
1726.06519	0.57394
1724.13662	0.59294
1722.20806	0.61340
1720.27949	0.63272
1718.35093	0.65544
1716.42236	0.68760
1714.49380	0.71811
1712.56523	0.74346
1710.63667	0.76817
1708.70811	0.79456
1706.77954	0.82434
1704.85098	0.85935
1702.92241	0.89089
1700.99385	0.92267
1699.06528	0.96884
1697.13672	1.01075
1695.20815	1.05322
1693.27959	1.09544
1691.35103	1.13018
1689.42246	1.16977
1687.49390	1.21109
1685.56533	1.25134
1683.63677	1.31210
1681.70820	1.37495
1679.77964	1.41595
1677.85107	1.45477
1675.92251	1.49946
1673.99395	1.55462
1672.06538	1.60423
1670.13682	1.65212
1668.20825	1.71268
1666.27969	1.76277
1664.35112	1.80530
1662.42256	1.85709
1660.49399	1.91508
1658.56543	1.96109
1656.63687	1.99866
1654.70830	2.03380
1652.77974	2.08933
1650.85117	2.14363
1648.92261	2.16423
1646.99404	2.18959
1645.06548	2.21974
1643.13691	2.24012
1641.20835	2.25065
1639.27979	2.26030
1637.35122	2.26837
1635.42266	2.27107
1633.49409	2.26631
1631.56553	2.25477
1629.63696	2.23909
1627.70840	2.21283
1625.77983	2.18168
1623.85127	2.14161
1621.92271	2.09368
1619.99414	2.05128
1618.06558	2.00883
1616.13701	1.94833
1614.20845	1.88579
1612.27988	1.83730
1610.35132	1.78716
1608.42275	1.73280
1606.49419	1.67879
1604.56562	1.62885
1602.63706	1.58090
1600.70850	1.53414
1598.77993	1.49065
1596.85137	1.44935
1594.92280	1.40947
1592.99424	1.37121
1591.06567	1.33579
1589.13711	1.30237
1587.20854	1.27123
1585.27998	1.24233
1583.35142	1.21539
1581.42285	1.19063
1579.49429	1.16873
1577.56572	1.14857
1575.63716	1.12451
1573.70859	1.10291
1571.78003	1.08837
1569.85146	1.07369
1567.92290	1.05751
1565.99434	1.04439
1564.06577	1.03342
1562.13721	1.02453
1560.20864	1.01793
1558.28008	1.00937
1556.35151	1.00127
1554.42295	0.99556
1552.49438	0.98994
1550.56582	0.98370
1548.63726	0.97595
1546.70869	0.96751
1544.78013	0.95847
1542.85156	0.94824
1540.92300	0.93504
1538.99443	0.91548
1537.06587	0.89992
1535.13730	0.88932
1533.20874	0.87668
1531.28018	0.86297
1529.35161	0.85214
1527.42305	0.84200
1525.49448	0.83201
1523.56592	0.82364
1521.63735	0.81546
1519.70879	0.80635
1517.78022	0.79831
1515.85166	0.78987
1513.92310	0.78113
1511.99453	0.77352
1510.06597	0.76694
1508.13740	0.76101
1506.20884	0.75201
1504.28027	0.74282
1502.35171	0.73705
1500.42314	0.73245
1498.49458	0.72788
1496.56602	0.72252
1494.63745	0.71690
1492.70889	0.71239
1490.78032	0.70874
1488.85176	0.70481
1486.92319	0.70067
1484.99463	0.69701
1483.06606	0.69406
1481.13750	0.69157
1479.20894	0.68939
1477.28037	0.68777
1475.35181	0.68667
1473.42324	0.68553
1471.49468	0.68315
1469.56611	0.67972
1467.63755	0.67657
1465.70898	0.67404
1463.78042	0.67194
1461.85186	0.67046
1459.92329	0.66997
1457.99473	0.67010
1456.06616	0.66872
1454.13760	0.66558
1452.20903	0.66285
1450.28047	0.66043
1448.35190	0.65802
1446.42334	0.65554
1444.49478	0.65322
1442.56621	0.65118
1440.63765	0.64944
1438.70908	0.64797
1436.78052	0.64624
1434.85195	0.64388
1432.92339	0.64159
1430.99482	0.63994
1429.06626	0.63895
1427.13770	0.63821
1425.20913	0.63750
1423.28057	0.63689
1421.35200	0.63646
1419.42344	0.63620
1417.49487	0.63539
1415.56631	0.63368
1413.63774	0.63198
1411.70918	0.63074
1409.78062	0.63005
1407.85205	0.62977
1405.92349	0.62969
1403.99492	0.62941
1402.06636	0.62859
1400.13779	0.62756
1398.20923	0.62639
1396.28066	0.62473
1394.35210	0.62217
1392.42354	0.61910
1390.49497	0.61634
1388.56641	0.61379
1386.63784	0.61090
1384.70928	0.60775
1382.78071	0.60485
1380.85215	0.60231
1378.92358	0.60015
1376.99502	0.59849
1375.06646	0.59747
1373.13789	0.59666
1371.20933	0.59576
1369.28076	0.59490
1367.35220	0.59385
1365.42363	0.59253
1363.49507	0.59133
1361.56650	0.59030
1359.63794	0.58909
1357.70937	0.58781
1355.78081	0.58669
1353.85225	0.58570
1351.92368	0.58476
1349.99512	0.58390
1348.06655	0.58307
1346.13799	0.58213
1344.20942	0.58122
1342.28086	0.58050
1340.35229	0.57990
1338.42373	0.57908
1336.49517	0.57800
1334.56660	0.57702
1332.63804	0.57635
1330.70947	0.57589
1328.78091	0.57546
1326.85234	0.57515
1324.92378	0.57504
1322.99521	0.57503
1321.06665	0.57501
1319.13809	0.57487
1317.20952	0.57451
1315.28096	0.57401
1313.35239	0.57342
1311.42383	0.57265
1309.49526	0.57170
1307.56670	0.57061
1305.63813	0.56951
1303.70957	0.56858
1301.78101	0.56770
1299.85244	0.56665
1297.92388	0.56551
1295.99531	0.56447
1294.06675	0.56344
1292.13818	0.56232
1290.20962	0.56121
1288.28105	0.56024
1286.35249	0.55950
1284.42393	0.55880
1282.49536	0.55789
1280.56680	0.55684
1278.63823	0.55582
1276.70967	0.55495
1274.78110	0.55430
1272.85254	0.55376
1270.92397	0.55322
1268.99541	0.55266
1267.06685	0.55203
1265.13828	0.55132
1263.20972	0.55068
1261.28115	0.55017
1259.35259	0.54974
1257.42402	0.54941
1255.49546	0.54926
1253.56689	0.54930
1251.63833	0.54938
1249.70977	0.54932
1247.78120	0.54912
1245.85264	0.54889
1243.92407	0.54858
1241.99551	0.54804
1240.06694	0.54717
1238.13838	0.54606
1236.20981	0.54484
1234.28125	0.54361
1232.35269	0.54243
1230.42412	0.54116
1228.49556	0.53975
1226.56699	0.53837
1224.63843	0.53714
1222.70986	0.53598
1220.78130	0.53483
1218.85273	0.53378
1216.92417	0.53290
1214.99561	0.53211
1213.06704	0.53127
1211.13848	0.53051
1209.20991	0.53001
1207.28135	0.52968
1205.35278	0.52916
1203.42422	0.52826
1201.49565	0.52732
1199.56709	0.52663
1197.63853	0.52605
1195.70996	0.52536
1193.78140	0.52462
1191.85283	0.52393
1189.92427	0.52333
1187.99570	0.52284
1186.06714	0.52259
1184.13857	0.52259
1182.21001	0.52284
1180.28145	0.52338
1178.35288	0.52413
1176.42432	0.52505
1174.49575	0.52612
1172.56719	0.52711
1170.63862	0.52784
1168.71006	0.52843
1166.78149	0.52887
1164.85293	0.52917
1162.92437	0.52948
1160.99580	0.52986
1159.06724	0.53013
1157.13867	0.52992
1155.21011	0.52906
1153.28154	0.52770
1151.35298	0.52602
1149.42441	0.52398
1147.49585	0.52156
1145.56729	0.51894
1143.63872	0.51622
1141.71016	0.51345
1139.78159	0.51106
1137.85303	0.50926
1135.92446	0.50785
1133.99590	0.50675
1132.06733	0.50599
1130.13877	0.50544
1128.21021	0.50491
1126.28164	0.50420
1124.35308	0.50333
1122.42451	0.50270
1120.49595	0.50249
1118.56738	0.50250
1116.63882	0.50257
1114.71025	0.50274
1112.78169	0.50325
1110.85312	0.50407
1108.92456	0.50494
1106.99600	0.50579
1105.06743	0.50680
1103.13887	0.50810
1101.21030	0.50956
1099.28174	0.51126
1097.35317	0.51340
1095.42461	0.51608
1093.49604	0.51961
1091.56748	0.52423
1089.63892	0.52999
1087.71035	0.53699
1085.78179	0.54492
1083.85322	0.55299
1081.92466	0.56035
1079.99609	0.56602
1078.06753	0.56913
1076.13896	0.56928
1074.21040	0.56657
1072.28184	0.56159
1070.35327	0.55531
1068.42471	0.54872
1066.49614	0.54240
1064.56758	0.53636
1062.63901	0.53054
1060.71045	0.52505
1058.78188	0.52022
1056.85332	0.51634
1054.92476	0.51327
1052.99619	0.51061
1051.06763	0.50820
1049.13906	0.50610
1047.21050	0.50466
1045.28193	0.50399
1043.35337	0.50356
1041.42480	0.50312
1039.49624	0.50292
1037.56768	0.50309
1035.63911	0.50335
1033.71055	0.50321
1031.78198	0.50251
1029.85342	0.50148
1027.92485	0.50034
1025.99629	0.49934
1024.06772	0.49874
1022.13916	0.49851
1020.21060	0.49836
1018.28203	0.49821
1016.35347	0.49820
1014.42490	0.49845
1012.49634	0.49893
1010.56777	0.49960
1008.63921	0.50035
1006.71064	0.50113
1004.78208	0.50223
1002.85352	0.50398
1000.92495	0.50651
998.99639	0.50987
997.06782	0.51397
995.13926	0.51840
993.21069	0.52239
991.28213	0.52548
989.35356	0.52764
987.42500	0.52885
985.49644	0.52923
983.56787	0.52932
981.63931	0.52965
979.71074	0.53051
977.78218	0.53213
975.85361	0.53454
973.92505	0.53744
971.99648	0.54051
970.06792	0.54372
968.13936	0.54722
966.21079	0.55125
964.28223	0.55585
962.35366	0.56083
960.42510	0.56597
958.49653	0.57124
956.56797	0.57672
954.63940	0.58264
952.71084	0.58898
950.78228	0.59538
948.85371	0.60170
946.92515	0.60812
944.99658	0.61463
943.06802	0.62110
941.13945	0.62729
939.21089	0.63313
937.28232	0.63888
935.35376	0.64459
933.42520	0.65034
931.49663	0.65643
929.56807	0.66265
927.63950	0.66859
925.71094	0.67426
923.78237	0.68012
921.85381	0.68662
919.92524	0.69357
917.99668	0.70066
916.06812	0.70790
914.13955	0.71533
912.21099	0.72298
910.28242	0.73086
908.35386	0.73926
906.42529	0.74847
904.49673	0.75806
902.56816	0.76803
900.63960	0.77840
898.71104	0.78780
896.78247	0.79663
894.85391	0.80697
892.92534	0.81810
890.99678	0.82874
889.06821	0.83951
887.13965	0.85083
885.21108	0.86146
883.28252	0.87059
881.35396	0.87991
879.42539	0.89119
877.49683	0.90457
875.56826	0.91882
873.63970	0.93215
871.71113	0.94402
869.78257	0.95502
867.85400	0.96630
865.92544	0.97820
863.99687	0.98957
862.06831	1.00084
860.13975	1.01405
858.21118	1.02727
856.28262	1.03711
854.35405	1.04618
852.42549	1.05723
850.49692	1.06945
848.56836	1.08240
846.63979	1.09530
844.71123	1.10723
842.78267	1.11864
840.85410	1.13085
838.92554	1.14337
836.99697	1.15560
835.06841	1.16897
833.13984	1.18097
831.21128	1.18841
829.28271	1.19690
827.35415	1.21301
825.42559	1.23365
823.49702	1.25280
821.56846	1.26917
819.63989	1.28157
817.71133	1.28699
815.78276	1.28687
813.85420	1.28711
811.92563	1.29498
809.99707	1.30962
808.06851	1.32576
806.13994	1.34580
804.21138	1.35998
802.28281	1.36755
800.35425	1.38905
798.42568	1.41216
796.49712	1.42400
794.56855	1.45556
792.63999	1.49571
790.71143	1.50675
788.78286	1.51544
786.85430	1.53008
784.92573	1.54631
782.99717	1.54169
781.06860	1.48888
779.14004	1.45812
777.21147	1.47385
775.28291	1.51182
773.35435	1.55572
771.42578	1.55443
769.49722	1.51441
767.56865	1.48535
765.64009	1.49452
763.71152	1.60396
761.78296	1.72280
759.85439	1.60894
757.92583	1.51518
755.99727	1.53757
754.06870	1.63738
752.14014	2.18712
750.21157	4.50127
748.28301	1.55223
746.35444	1.19270
744.42588	1.09554
742.49731	1.08263
740.56875	1.04763
738.64019	1.04968
736.71162	1.09433
734.78306	1.03494
732.85449	0.94699
730.92593	0.97024
728.99736	1.01454
727.06880	0.93211
725.14023	0.86018
723.21167	0.87376
721.28311	0.86624
719.35454	0.73389
717.42598	0.51678
715.49741	0.26345
713.56885	-0.12039
711.64028	-0.37860
709.71172	0.03747
707.78315	0.28782
705.85459	0.32488
703.92603	0.39493
701.99746	0.56210
700.06890	0.38011
698.14033	0.21662
696.21177	0.31743
694.28320	0.43105
692.35464	0.30115
690.42607	0.22271
688.49751	0.22373
686.56895	0.24606
684.64038	0.30402
682.71182	0.39999
680.78325	0.43853
678.85469	0.47912
676.92612	0.47048
674.99756	0.31441
673.06899	0.20989
671.14043	0.21157
669.21187	0.28107
667.28330	0.37928
665.35474	0.41944
663.42617	0.36515
661.49761	0.37781
659.56904	0.45607
657.64048	0.45473
655.71191	0.51828
653.78335	1.10804
651.85479	1.02613
649.92622	0.58361
647.99766	0.49424
646.06909	0.43524
644.14053	0.39716
642.21196	0.38538
640.28340	0.35115
638.35483	0.29329
636.42627	0.24529
634.49771	0.24981
632.56914	0.28234
630.64058	0.29337
628.71201	0.26667
626.78345	0.26176
624.85488	0.34847
622.92632	0.51507
620.99775	0.56041
619.06919	0.51570
617.14062	0.40649
615.21206	0.26702
613.28350	0.21245
611.35493	0.23109
609.42637	0.24959
607.49780	0.30084
605.56924	0.55584
603.64067	0.80533
601.71211	0.39705
599.78354	0.31309
597.85498	0.34882
595.92642	0.29148
593.99785	0.16156
592.06929	0.11384
590.14072	0.13178
588.21216	0.18687
586.28359	0.26346
584.35503	0.33124
582.42646	0.33014
580.49790	0.20630
578.56934	0.08948
576.64077	0.06792
574.71221	0.13668
572.78364	0.24332
570.85508	0.30241
568.92651	0.33628
566.99795	0.38033
565.06938	0.37014
563.14082	0.32095
561.21226	0.27709
559.28369	0.19701
557.35513	0.15684
555.42656	0.20176
553.49800	0.25768
551.56943	0.28821
549.64087	0.28359
547.71230	0.23219
545.78374	0.22097
543.85518	0.25073
541.92661	0.26622
539.99805	0.31770
538.06948	0.37866
536.14092	0.30982
534.21235	0.25630
532.28379	0.25923
530.35522	0.25938
528.42666	0.25444
526.49810	0.26560
524.56953	0.23156
522.64097	0.18015
520.71240	0.17112
518.78384	0.18189
516.85527	0.20635
514.92671	0.27487
512.99814	0.34885
511.06958	0.33675
509.14102	0.26687
507.21245	0.19880
505.28389	0.18978
503.35532	0.26994
501.42676	0.39715
499.49819	0.41678
