3997.91411	0.07143
3995.98555	0.07161
3994.05698	0.07244
3992.12842	0.07329
3990.19985	0.07373
3988.27129	0.07402
3986.34272	0.07451
3984.41416	0.07484
3982.48560	0.07460
3980.55703	0.07444
3978.62847	0.07496
3976.69990	0.07575
3974.77134	0.07622
3972.84277	0.07638
3970.91421	0.07653
3968.98564	0.07645
3967.05708	0.07596
3965.12852	0.07558
3963.19995	0.07574
3961.27139	0.07624
3959.34282	0.07676
3957.41426	0.07707
3955.48569	0.07718
3953.55713	0.07747
3951.62856	0.07787
3949.70000	0.07786
3947.77144	0.07751
3945.84287	0.07719
3943.91431	0.07721
3941.98574	0.07743
3940.05718	0.07728
3938.12861	0.07698
3936.20005	0.07679
3934.27148	0.07672
3932.34292	0.07705
3930.41436	0.07759
3928.48579	0.07769
3926.55723	0.07750
3924.62866	0.07752
3922.70010	0.07736
3920.77153	0.07703
3918.84297	0.07710
3916.91440	0.07720
3914.98584	0.07677
3913.05728	0.07610
3911.12871	0.07576
3909.20015	0.07591
3907.27158	0.07642
3905.34302	0.07711
3903.41445	0.07759
3901.48589	0.07748
3899.55732	0.07722
3897.62876	0.07684
3895.70020	0.07624
3893.77163	0.07600
3891.84307	0.07652
3889.91450	0.07718
3887.98594	0.07717
3886.05737	0.07735
3884.12881	0.07777
3882.20024	0.07766
3880.27168	0.07778
3878.34312	0.07798
3876.41455	0.07783
3874.48599	0.07806
3872.55742	0.07848
3870.62886	0.07870
3868.70029	0.07910
3866.77173	0.07955
3864.84316	0.08024
3862.91460	0.08093
3860.98604	0.08075
3859.05747	0.08012
3857.12891	0.07967
3855.20034	0.08003
3853.27178	0.08227
3851.34321	0.08447
3849.41465	0.08358
3847.48608	0.08224
3845.55752	0.08200
3843.62896	0.08288
3841.70039	0.08426
3839.77183	0.08554
3837.84326	0.08683
3835.91470	0.08748
3833.98613	0.08718
3832.05757	0.08696
3830.12900	0.08719
3828.20044	0.08778
3826.27187	0.08889
3824.34331	0.08996
3822.41475	0.09069
3820.48618	0.09227
3818.55762	0.09379
3816.62905	0.09435
3814.70049	0.09530
3812.77192	0.09598
3810.84336	0.09589
3808.91479	0.09607
3806.98623	0.09748
3805.05767	0.09946
3803.12910	0.10072
3801.20054	0.10227
3799.27197	0.10389
3797.34341	0.10446
3795.41484	0.10502
3793.48628	0.10563
3791.55771	0.10624
3789.62915	0.10733
3787.70059	0.10883
3785.77202	0.11074
3783.84346	0.11282
3781.91489	0.11442
3779.98633	0.11574
3778.05776	0.11740
3776.12920	0.11903
3774.20063	0.12038
3772.27207	0.12187
3770.34351	0.12404
3768.41494	0.12654
3766.48638	0.12829
3764.55781	0.12978
3762.62925	0.13153
3760.70068	0.13371
3758.77212	0.13657
3756.84355	0.13916
3754.91499	0.14109
3752.98643	0.14391
3751.05786	0.14858
3749.12930	0.15325
3747.20073	0.15531
3745.27217	0.15711
3743.34360	0.16154
3741.41504	0.16610
3739.48647	0.16907
3737.55791	0.17309
3735.62935	0.17971
3733.70078	0.18730
3731.77222	0.19295
3729.84365	0.19725
3727.91509	0.20138
3725.98652	0.20664
3724.05796	0.21302
3722.12939	0.21905
3720.20083	0.22468
3718.27227	0.23048
3716.34370	0.23654
3714.41514	0.24283
3712.48657	0.25171
3710.55801	0.26627
3708.62944	0.28248
3706.70088	0.29496
3704.77231	0.30607
3702.84375	0.31917
3700.91519	0.33602
3698.98662	0.35434
3697.05806	0.37184
3695.12949	0.39022
3693.20093	0.40968
3691.27236	0.43063
3689.34380	0.45740
3687.41523	0.49112
3685.48667	0.52188
3683.55811	0.54852
3681.62954	0.57694
3679.70098	0.60876
3677.77241	0.64174
3675.84385	0.68013
3673.91528	0.73152
3671.98672	0.77535
3670.05815	0.81477
3668.12959	0.86740
3666.20103	0.91667
3664.27246	0.95846
3662.34390	1.00263
3660.41533	1.05030
3658.48677	1.09744
3656.55820	1.14687
3654.62964	1.20111
3652.70107	1.24724
3650.77251	1.28815
3648.84395	1.34377
3646.91538	1.41093
3644.98682	1.46244
3643.05825	1.50372
3641.12969	1.54587
3639.20112	1.59108
3637.27256	1.63571
3635.34399	1.67941
3633.41543	1.72350
3631.48687	1.76434
3629.55830	1.80525
3627.62974	1.85903
3625.70117	1.91107
3623.77261	1.94745
3621.84404	1.98149
3619.91548	2.01928
3617.98691	2.06334
3616.05835	2.10587
3614.12979	2.14244
3612.20122	2.18152
3610.27266	2.22208
3608.34409	2.26370
3606.41553	2.30787
3604.48696	2.34870
3602.55840	2.38434
3600.62983	2.42187
3598.70127	2.46385
3596.77271	2.50621
3594.84414	2.54782
3592.91558	2.58900
3590.98701	2.62776
3589.05845	2.66466
3587.12988	2.70874
3585.20132	2.75769
3583.27275	2.80019
3581.34419	2.83875
3579.41562	2.87897
3577.48706	2.92138
3575.55850	2.96391
3573.62993	3.00668
3571.70137	3.04898
3569.77280	3.09179
3567.84424	3.13813
3565.91567	3.19150
3563.98711	3.24273
3562.05854	3.28558
3560.12998	3.32759
3558.20142	3.37205
3556.27285	3.41608
3554.34429	3.45790
3552.41572	3.50252
3550.48716	3.55044
3548.55859	3.59798
3546.63003	3.64545
3544.70146	3.69466
3542.77290	3.74382
3540.84434	3.79073
3538.91577	3.83565
3536.98721	3.88062
3535.05864	3.92951
3533.13008	3.97931
3531.20151	4.02703
3529.27295	4.07407
3527.34438	4.12363
3525.41582	4.17519
3523.48726	4.22637
3521.55869	4.27849
3519.63013	4.33038
3517.70156	4.38048
3515.77300	4.42798
3513.84443	4.47500
3511.91587	4.52162
3509.98730	4.56752
3508.05874	4.61517
3506.13018	4.66331
3504.20161	4.70996
3502.27305	4.75645
3500.34448	4.80814
3498.41592	4.86191
3496.48735	4.90651
3494.55879	4.94641
3492.63022	4.99470
3490.70166	5.04650
3488.77310	5.09479
3486.84453	5.14352
3484.91597	5.18997
3482.98740	5.23347
3481.05884	5.28541
3479.13027	5.34569
3477.20171	5.40188
3475.27314	5.44932
3473.34458	5.49616
3471.41602	5.54933
3469.48745	5.60184
3467.55889	5.65155
3465.63032	5.70038
3463.70176	5.74421
3461.77319	5.78488
3459.84463	5.82857
3457.91606	5.87895
3455.98750	5.94126
3454.05894	6.00813
3452.13037	6.05980
3450.20181	6.09749
3448.27324	6.14823
3446.34468	6.22203
3444.41611	6.29021
3442.48755	6.33457
3440.55898	6.36670
3438.63042	6.40983
3436.70186	6.45752
3434.77329	6.48899
3432.84473	6.52106
3430.91616	6.56495
3428.98760	6.61213
3427.05903	6.66590
3425.13047	6.73960
3423.20190	6.81841
3421.27334	6.87542
3419.34478	6.90944
3417.41621	6.95003
3415.48765	7.00911
3413.55908	7.05817
3411.63052	7.08620
3409.70195	7.11014
3407.77339	7.15186
3405.84482	7.20780
3403.91626	7.26959
3401.98770	7.32154
3400.05913	7.36854
3398.13057	7.43020
3396.20200	7.48628
3394.27344	7.51321
3392.34487	7.51851
3390.41631	7.55439
3388.48774	7.61447
3386.55918	7.65391
3384.63062	7.67241
3382.70205	7.71536
3380.77349	7.80451
3378.84492	7.89718
3376.91636	7.95597
3374.98779	7.96266
3373.05923	7.95420
3371.13066	7.94217
3369.20210	7.92741
3367.27354	7.93545
3365.34497	7.96005
3363.41641	7.98127
3361.48784	8.00427
3359.55928	8.01645
3357.63071	7.99958
3355.70215	8.01327
3353.77358	8.05934
3351.84502	8.09226
3349.91646	8.11223
3347.98789	8.16033
3346.05933	8.21721
3344.13076	8.21695
3342.20220	8.20004
3340.27363	8.22534
3338.34507	8.26338
3336.41650	8.23892
3334.48794	8.19331
3332.55937	8.17798
3330.63081	8.18982
3328.70225	8.19970
3326.77368	8.20927
3324.84512	8.29277
3322.91655	8.42552
3320.98799	8.47384
3319.05942	8.36894
3317.13086	8.26957
3315.20229	8.28773
3313.27373	8.33945
3311.34517	8.31777
3309.41660	8.25887
3307.48804	8.27042
3305.55947	8.32916
3303.63091	8.36052
3301.70234	8.37570
3299.77378	8.38631
3297.84521	8.36841
3295.91665	8.34763
3293.98809	8.35048
3292.05952	8.40090
3290.13096	8.44307
3288.20239	8.41432
3286.27383	8.42217
3284.34526	8.46939
3282.41670	8.47499
3280.48813	8.47311
3278.55957	8.48822
3276.63101	8.45611
3274.70244	8.40089
3272.77388	8.44091
3270.84531	8.58639
3268.91675	8.66614
3266.98818	8.59148
3265.05962	8.53293
3263.13105	8.51758
3261.20249	8.49759
3259.27393	8.53519
3257.34536	8.62527
3255.41680	8.64932
3253.48823	8.59006
3251.55967	8.53039
3249.63110	8.46267
3247.70254	8.45107
3245.77397	8.54367
3243.84541	8.59893
3241.91685	8.54748
3239.98828	8.48753
3238.05972	8.44916
3236.13115	8.39518
3234.20259	8.33819
3232.27402	8.32122
3230.34546	8.33400
3228.41689	8.36367
3226.48833	8.40200
3224.55977	8.39093
3222.63120	8.33545
3220.70264	8.27118
3218.77407	8.20248
3216.84551	8.19232
3214.91694	8.26451
3212.98838	8.29719
3211.05981	8.20415
3209.13125	8.06095
3207.20269	7.96875
3205.27412	7.97401
3203.34556	8.01989
3201.41699	8.01744
3199.48843	7.96501
3197.55986	7.89438
3195.63130	7.84778
3193.70273	7.84859
3191.77417	7.81909
3189.84561	7.71412
3187.91704	7.61012
3185.98848	7.55073
3184.05991	7.50856
3182.13135	7.45988
3180.20278	7.41682
3178.27422	7.37558
3176.34565	7.31829
3174.41709	7.25984
3172.48853	7.21914
3170.55996	7.18400
3168.63140	7.13951
3166.70283	7.08105
3164.77427	7.00571
3162.84570	6.93727
3160.91714	6.89030
3158.98857	6.83904
3157.06001	6.76514
3155.13145	6.67888
3153.20288	6.60429
3151.27432	6.55946
3149.34575	6.52032
3147.41719	6.45570
3145.48862	6.37163
3143.56006	6.27692
3141.63149	6.18373
3139.70293	6.11016
3137.77437	6.05443
3135.84580	5.98665
3133.91724	5.89999
3131.98867	5.82504
3130.06011	5.75763
3128.13154	5.67902
3126.20298	5.60397
3124.27441	5.54136
3122.34585	5.47831
3120.41729	5.40746
3118.48872	5.33007
3116.56016	5.24735
3114.63159	5.16708
3112.70303	5.09694
3110.77446	5.02941
3108.84590	4.95922
3106.91733	4.89303
3104.98877	4.83113
3103.06021	4.76782
3101.13164	4.70111
3099.20308	4.63406
3097.27451	4.56857
3095.34595	4.50151
3093.41738	4.43386
3091.48882	4.37087
3089.56025	4.30793
3087.63169	4.23997
3085.70312	4.17457
3083.77456	4.11292
3081.84600	4.04988
3079.91743	3.98598
3077.98887	3.92236
3076.06030	3.86083
3074.13174	3.80176
3072.20317	3.74361
3070.27461	3.68697
3068.34604	3.63218
3066.41748	3.57714
3064.48892	3.51979
3062.56035	3.46123
3060.63179	3.40530
3058.70322	3.35267
3056.77466	3.29919
3054.84609	3.24381
3052.91753	3.19004
3050.98896	3.13827
3049.06040	3.08657
3047.13184	3.03521
3045.20327	2.98516
3043.27471	2.93674
3041.34614	2.88909
3039.41758	2.84101
3037.48901	2.79313
3035.56045	2.74629
3033.63188	2.70004
3031.70332	2.65407
3029.77476	2.60873
3027.84619	2.56450
3025.91763	2.52059
3023.98906	2.47636
3022.06050	2.43334
3020.13193	2.39175
3018.20337	2.35027
3016.27480	2.30923
3014.34624	2.26916
3012.41768	2.22990
3010.48911	2.19155
3008.56055	2.15411
3006.63198	2.11697
3004.70342	2.08000
3002.77485	2.04398
3000.84629	2.00928
2998.91772	1.97535
2996.98916	1.94176
2995.06060	1.90845
2993.13203	1.87553
2991.20347	1.84381
2989.27490	1.81388
2987.34634	1.78482
2985.41777	1.75547
2983.48921	1.72595
2981.56064	1.69753
2979.63208	1.67055
2977.70352	1.64413
2975.77495	1.61785
2973.84639	1.59151
2971.91782	1.56518
2969.98926	1.53954
2968.06069	1.51433
2966.13213	1.48893
2964.20356	1.46390
2962.27500	1.43937
2960.34644	1.41469
2958.41787	1.38989
2956.48931	1.36516
2954.56074	1.34072
2952.63218	1.31686
2950.70361	1.29339
2948.77505	1.27022
2946.84648	1.24761
2944.91792	1.22567
2942.98936	1.20415
2941.06079	1.18269
2939.13223	1.16128
2937.20366	1.13991
2935.27510	1.11853
2933.34653	1.09711
2931.41797	1.07576
2929.48940	1.05475
2927.56084	1.03419
2925.63228	1.01410
2923.70371	0.99482
2921.77515	0.97662
2919.84658	0.95942
2917.91802	0.94266
2915.98945	0.92605
2914.06089	0.91029
2912.13232	0.89557
2910.20376	0.88118
2908.27520	0.86699
2906.34663	0.85312
2904.41807	0.83929
2902.48950	0.82539
2900.56094	0.81175
2898.63237	0.79875
2896.70381	0.78612
2894.77524	0.77334
2892.84668	0.76064
2890.91812	0.74844
2888.98955	0.73675
2887.06099	0.72568
2885.13242	0.71522
2883.20386	0.70510
2881.27529	0.69519
2879.34673	0.68528
2877.41816	0.67515
2875.48960	0.66495
2873.56104	0.65452
2871.63247	0.64357
2869.70391	0.63216
2867.77534	0.62037
2865.84678	0.60817
2863.91821	0.59583
2861.98965	0.58361
2860.06108	0.57154
2858.13252	0.56000
2856.20396	0.54923
2854.27539	0.53884
2852.34683	0.52878
2850.41826	0.51968
2848.48970	0.51190
2846.56113	0.50512
2844.63257	0.49880
2842.70400	0.49279
2840.77544	0.48703
2838.84687	0.48129
2836.91831	0.47552
2834.98975	0.46973
2833.06118	0.46388
2831.13262	0.45803
2829.20405	0.45228
2827.27549	0.44652
2825.34692	0.44053
2823.41836	0.43418
2821.48979	0.42771
2819.56123	0.42152
2817.63267	0.41568
2815.70410	0.40996
2813.77554	0.40420
2811.84697	0.39856
2809.91841	0.39310
2807.98984	0.38763
2806.06128	0.38215
2804.13271	0.37668
2802.20415	0.37132
2800.27559	0.36612
2798.34702	0.36098
2796.41846	0.35585
2794.48989	0.35084
2792.56133	0.34614
2790.63276	0.34178
2788.70420	0.33735
2786.77563	0.33263
2784.84707	0.32787
2782.91851	0.32339
2780.98994	0.31928
2779.06138	0.31533
2777.13281	0.31124
2775.20425	0.30706
2773.27568	0.30305
2771.34712	0.29927
2769.41855	0.29562
2767.48999	0.29196
2765.56143	0.28830
2763.63286	0.28467
2761.70430	0.28096
2759.77573	0.27734
2757.84717	0.27407
2755.91860	0.27101
2753.99004	0.26788
2752.06147	0.26480
2750.13291	0.26177
2748.20435	0.25866
2746.27578	0.25561
2744.34722	0.25280
2742.41865	0.25001
2740.49009	0.24706
2738.56152	0.24418
2736.63296	0.24154
2734.70439	0.23898
2732.77583	0.23642
2730.84727	0.23394
2728.91870	0.23162
2726.99014	0.22939
2725.06157	0.22710
2723.13301	0.22475
2721.20444	0.22253
2719.27588	0.22036
2717.34731	0.21809
2715.41875	0.21600
2713.49019	0.21424
2711.56162	0.21248
2709.63306	0.21060
2707.70449	0.20872
2705.77593	0.20693
2703.84736	0.20523
2701.91880	0.20359
2699.99023	0.20191
2698.06167	0.20026
2696.13311	0.19879
2694.20454	0.19754
2692.27598	0.19624
2690.34741	0.19478
2688.41885	0.19335
2686.49028	0.19206
2684.56172	0.19079
2682.63315	0.18945
2680.70459	0.18807
2678.77603	0.18683
2676.84746	0.18576
2674.91890	0.18471
2672.99033	0.18359
2671.06177	0.18241
2669.13320	0.18114
2667.20464	0.17994
2665.27607	0.17897
2663.34751	0.17819
2661.41895	0.17734
2659.49038	0.17628
2657.56182	0.17526
2655.63325	0.17436
2653.70469	0.17341
2651.77612	0.17255
2649.84756	0.17201
2647.91899	0.17162
2645.99043	0.17106
2644.06187	0.17027
2642.13330	0.16946
2640.20474	0.16884
2638.27617	0.16837
2636.34761	0.16789
2634.41904	0.16738
2632.49048	0.16683
2630.56191	0.16625
2628.63335	0.16576
2626.70479	0.16538
2624.77622	0.16504
2622.84766	0.16467
2620.91909	0.16432
2618.99053	0.16409
2617.06196	0.16383
2615.13340	0.16349
2613.20483	0.16319
2611.27627	0.16300
2609.34771	0.16291
2607.41914	0.16285
2605.49058	0.16270
2603.56201	0.16246
2601.63345	0.16233
2599.70488	0.16239
2597.77632	0.16248
2595.84775	0.16252
2593.91919	0.16261
2591.99062	0.16279
2590.06206	0.16294
2588.13350	0.16300
2586.20493	0.16305
2584.27637	0.16314
2582.34780	0.16323
2580.41924	0.16337
2578.49067	0.16361
2576.56211	0.16387
2574.63354	0.16408
2572.70498	0.16428
2570.77642	0.16452
2568.84785	0.16490
2566.91929	0.16541
2564.99072	0.16590
2563.06216	0.16633
2561.13359	0.16678
2559.20503	0.16724
2557.27646	0.16759
2555.34790	0.16788
2553.41934	0.16825
2551.49077	0.16875
2549.56221	0.16935
2547.63364	0.16993
2545.70508	0.17045
2543.77651	0.17097
2541.84795	0.17154
2539.91938	0.17213
2537.99082	0.17269
2536.06226	0.17322
2534.13369	0.17385
2532.20513	0.17461
2530.27656	0.17534
2528.34800	0.17596
2526.41943	0.17653
2524.49087	0.17719
2522.56230	0.17803
2520.63374	0.17887
2518.70518	0.17953
2516.77661	0.18012
2514.84805	0.18084
2512.91948	0.18166
2510.99092	0.18249
2509.06235	0.18329
2507.13379	0.18404
2505.20522	0.18478
2503.27666	0.18561
2501.34810	0.18653
2499.41953	0.18750
2497.49097	0.18833
2495.56240	0.18901
2493.63384	0.18977
2491.70527	0.19061
2489.77671	0.19146
2487.84814	0.19234
2485.91958	0.19325
2483.99102	0.19412
2482.06245	0.19484
2480.13389	0.19553
2478.20532	0.19642
2476.27676	0.19737
2474.34819	0.19815
2472.41963	0.19898
2470.49106	0.19999
2468.56250	0.20090
2466.63394	0.20166
2464.70537	0.20250
2462.77681	0.20340
2460.84824	0.20428
2458.91968	0.20520
2456.99111	0.20616
2455.06255	0.20705
2453.13398	0.20792
2451.20542	0.20889
2449.27686	0.20997
2447.34829	0.21099
2445.41973	0.21202
2443.49116	0.21309
2441.56260	0.21397
2439.63403	0.21476
2437.70547	0.21572
2435.77690	0.21676
2433.84834	0.21775
2431.91978	0.21873
2429.99121	0.21977
2428.06265	0.22089
2426.13408	0.22206
2424.20552	0.22314
2422.27695	0.22415
2420.34839	0.22520
2418.41982	0.22629
2416.49126	0.22744
2414.56270	0.22871
2412.63413	0.22996
2410.70557	0.23108
2408.77700	0.23213
2406.84844	0.23322
2404.91987	0.23442
2402.99131	0.23560
2401.06274	0.23675
2399.13418	0.23798
2397.20562	0.23928
2395.27705	0.24047
2393.34849	0.24161
2391.41992	0.24293
2389.49136	0.24454
2387.56279	0.24657
2385.63423	0.24938
2383.70566	0.25343
2381.77710	0.25892
2379.84854	0.26549
2377.91997	0.27281
2375.99141	0.28114
2374.06284	0.29089
2372.13428	0.30194
2370.20571	0.31398
2368.27715	0.32626
2366.34858	0.33747
2364.42002	0.34704
2362.49146	0.35550
2360.56289	0.36167
2358.63433	0.36254
2356.70576	0.35811
2354.77720	0.35056
2352.84863	0.34063
2350.92007	0.32990
2348.99150	0.32313
2347.06294	0.32356
2345.13437	0.33165
2343.20581	0.34252
2341.27725	0.34865
2339.34868	0.35054
2337.42012	0.35119
2335.49155	0.35127
2333.56299	0.35075
2331.63442	0.35021
2329.70586	0.34974
2327.77729	0.34885
2325.84873	0.34718
2323.92017	0.34509
2321.99160	0.34311
2320.06304	0.34084
2318.13447	0.33787
2316.20591	0.33497
2314.27734	0.33314
2312.34878	0.33245
2310.42021	0.33219
2308.49165	0.33160
2306.56309	0.33050
2304.63452	0.32943
2302.70596	0.32904
2300.77739	0.32930
2298.84883	0.32980
2296.92026	0.33037
2294.99170	0.33103
2293.06313	0.33169
2291.13457	0.33232
2289.20601	0.33298
2287.27744	0.33372
2285.34888	0.33466
2283.42031	0.33600
2281.49175	0.33784
2279.56318	0.34009
2277.63462	0.34255
2275.70605	0.34494
2273.77749	0.34702
2271.84893	0.34895
2269.92036	0.35105
2267.99180	0.35330
2266.06323	0.35543
2264.13467	0.35738
2262.20610	0.35929
2260.27754	0.36115
2258.34897	0.36296
2256.42041	0.36485
2254.49185	0.36691
2252.56328	0.36903
2250.63472	0.37109
2248.70615	0.37307
2246.77759	0.37502
2244.84902	0.37711
2242.92046	0.37938
2240.99189	0.38167
2239.06333	0.38381
2237.13477	0.38585
2235.20620	0.38797
2233.27764	0.39026
2231.34907	0.39256
2229.42051	0.39483
2227.49194	0.39709
2225.56338	0.39931
2223.63481	0.40153
2221.70625	0.40375
2219.77769	0.40589
2217.84912	0.40800
2215.92056	0.41022
2213.99199	0.41246
2212.06343	0.41464
2210.13486	0.41680
2208.20630	0.41898
2206.27773	0.42107
2204.34917	0.42308
2202.42061	0.42518
2200.49204	0.42733
2198.56348	0.42945
2196.63491	0.43152
2194.70635	0.43349
2192.77778	0.43533
2190.84922	0.43708
2188.92065	0.43889
2186.99209	0.44089
2185.06353	0.44291
2183.13496	0.44468
2181.20640	0.44626
2179.27783	0.44783
2177.34927	0.44942
2175.42070	0.45102
2173.49214	0.45267
2171.56357	0.45423
2169.63501	0.45556
2167.70645	0.45682
2165.77788	0.45813
2163.84932	0.45939
2161.92075	0.46050
2159.99219	0.46150
2158.06362	0.46244
2156.13506	0.46344
2154.20649	0.46441
2152.27793	0.46520
2150.34937	0.46587
2148.42080	0.46661
2146.49224	0.46737
2144.56367	0.46786
2142.63511	0.46809
2140.70654	0.46837
2138.77798	0.46877
2136.84941	0.46898
2134.92085	0.46895
2132.99229	0.46889
2131.06372	0.46889
2129.13516	0.46879
2127.20659	0.46847
2125.27803	0.46803
2123.34946	0.46757
2121.42090	0.46705
2119.49233	0.46641
2117.56377	0.46573
2115.63521	0.46512
2113.70664	0.46452
2111.77808	0.46371
2109.84951	0.46268
2107.92095	0.46151
2105.99238	0.46027
2104.06382	0.45906
2102.13525	0.45784
2100.20669	0.45655
2098.27812	0.45514
2096.34956	0.45364
2094.42100	0.45208
2092.49243	0.45047
2090.56387	0.44874
2088.63530	0.44685
2086.70674	0.44500
2084.77817	0.44324
2082.84961	0.44140
2080.92104	0.43940
2078.99248	0.43728
2077.06392	0.43508
2075.13535	0.43290
2073.20679	0.43082
2071.27822	0.42867
2069.34966	0.42628
2067.42109	0.42380
2065.49253	0.42146
2063.56396	0.41912
2061.63540	0.41660
2059.70684	0.41397
2057.77827	0.41134
2055.84971	0.40875
2053.92114	0.40620
2051.99258	0.40365
2050.06401	0.40103
2048.13545	0.39834
2046.20688	0.39565
2044.27832	0.39294
2042.34976	0.39017
2040.42119	0.38737
2038.49263	0.38460
2036.56406	0.38180
2034.63550	0.37895
2032.70693	0.37608
2030.77837	0.37323
2028.84980	0.37042
2026.92124	0.36761
2024.99268	0.36481
2023.06411	0.36205
2021.13555	0.35925
2019.20698	0.35639
2017.27842	0.35359
2015.34985	0.35086
2013.42129	0.34812
2011.49272	0.34534
2009.56416	0.34252
2007.63560	0.33969
2005.70703	0.33696
2003.77847	0.33432
2001.84990	0.33166
1999.92134	0.32898
1997.99277	0.32624
1996.06421	0.32347
1994.13564	0.32090
1992.20708	0.31848
1990.27852	0.31598
1988.34995	0.31348
1986.42139	0.31097
1984.49282	0.30842
1982.56426	0.30596
1980.63569	0.30368
1978.70713	0.30144
1976.77856	0.29911
1974.85000	0.29681
1972.92144	0.29456
1970.99287	0.29238
1969.06431	0.29030
1967.13574	0.28823
1965.20718	0.28610
1963.27861	0.28398
1961.35005	0.28195
1959.42148	0.28007
1957.49292	0.27829
1955.56436	0.27642
1953.63579	0.27456
1951.70723	0.27291
1949.77866	0.27135
1947.85010	0.26967
1945.92153	0.26796
1943.99297	0.26641
1942.06440	0.26499
1940.13584	0.26351
1938.20728	0.26200
1936.27871	0.26063
1934.35015	0.25934
1932.42158	0.25807
1930.49302	0.25682
1928.56445	0.25563
1926.63589	0.25452
1924.70732	0.25349
1922.77876	0.25246
1920.85020	0.25140
1918.92163	0.25043
1916.99307	0.24959
1915.06450	0.24876
1913.13594	0.24785
1911.20737	0.24698
1909.27881	0.24628
1907.35024	0.24565
1905.42168	0.24496
1903.49312	0.24432
1901.56455	0.24372
1899.63599	0.24316
1897.70742	0.24274
1895.77886	0.24242
1893.85029	0.24210
1891.92173	0.24168
1889.99316	0.24142
1888.06460	0.24123
1886.13604	0.24090
1884.20747	0.24055
1882.27891	0.24035
1880.35034	0.24033
1878.42178	0.24033
1876.49321	0.24031
1874.56465	0.24024
1872.63608	0.24026
1870.70752	0.24049
1868.77896	0.24102
1866.85039	0.24138
1864.92183	0.24133
1862.99326	0.24131
1861.06470	0.24150
1859.13613	0.24186
1857.20757	0.24218
1855.27900	0.24254
1853.35044	0.24298
1851.42187	0.24350
1849.49331	0.24402
1847.56475	0.24459
1845.63618	0.24540
1843.70762	0.24656
1841.77905	0.24752
1839.85049	0.24797
1837.92192	0.24856
1835.99336	0.24938
1834.06479	0.25029
1832.13623	0.25130
1830.20767	0.25277
1828.27910	0.25436
1826.35054	0.25546
1824.42197	0.25662
1822.49341	0.25784
1820.56484	0.25910
1818.63628	0.26049
1816.70771	0.26209
1814.77915	0.26375
1812.85059	0.26559
1810.92202	0.26769
1808.99346	0.26975
1807.06489	0.27168
1805.13633	0.27362
1803.20776	0.27583
1801.27920	0.27835
1799.35063	0.28119
1797.42207	0.28370
1795.49351	0.28595
1793.56494	0.28870
1791.63638	0.29252
1789.70781	0.29617
1787.77925	0.29875
1785.85068	0.30175
1783.92212	0.30543
1781.99355	0.30941
1780.06499	0.31355
1778.13643	0.31781
1776.20786	0.32190
1774.27930	0.32627
1772.35073	0.33206
1770.42217	0.33833
1768.49360	0.34367
1766.56504	0.34888
1764.63647	0.35426
1762.70791	0.36009
1760.77935	0.36733
1758.85078	0.37423
1756.92222	0.38121
1754.99365	0.38889
1753.06509	0.39592
1751.13652	0.40414
1749.20796	0.41434
1747.27939	0.42440
1745.35083	0.43335
1743.42227	0.44282
1741.49370	0.45333
1739.56514	0.46574
1737.63657	0.47825
1735.70801	0.48942
1733.77944	0.50589
1731.85088	0.52532
1729.92231	0.54103
1727.99375	0.55719
1726.06519	0.57462
1724.13662	0.59339
1722.20806	0.61356
1720.27949	0.63249
1718.35093	0.65456
1716.42236	0.68623
1714.49380	0.71678
1712.56523	0.74227
1710.63667	0.76714
1708.70811	0.79368
1706.77954	0.82346
1704.85098	0.85866
1702.92241	0.89079
1700.99385	0.92334
1699.06528	0.97045
1697.13672	1.01361
1695.20815	1.05822
1693.27959	1.10295
1691.35103	1.13991
1689.42246	1.18222
1687.49390	1.22663
1685.56533	1.26969
1683.63677	1.33473
1681.70820	1.40315
1679.77964	1.44869
1677.85107	1.49185
1675.92251	1.54096
1673.99395	1.60099
1672.06538	1.65552
1670.13682	1.70962
1668.20825	1.77875
1666.27969	1.83610
1664.35112	1.88558
1662.42256	1.94791
1660.49399	2.01965
1658.56543	2.07693
1656.63687	2.12267
1654.70830	2.16340
1652.77974	2.22153
1650.85117	2.27557
1648.92261	2.29594
1646.99404	2.32119
1645.06548	2.34758
1643.13691	2.36487
1641.20835	2.37407
1639.27979	2.38225
1637.35122	2.38667
1635.42266	2.38279
1633.49409	2.37062
1631.56553	2.35386
1629.63696	2.33514
1627.70840	2.30603
1625.77983	2.27215
1623.85127	2.22895
1621.92271	2.17615
1619.99414	2.12840
1618.06558	2.08141
1616.13701	2.01633
1614.20845	1.94934
1612.27988	1.89636
1610.35132	1.84171
1608.42275	1.78438
1606.49419	1.72891
1604.56562	1.67754
1602.63706	1.62800
1600.70850	1.58035
1598.77993	1.53666
1596.85137	1.49544
1594.92280	1.45531
1592.99424	1.41628
1591.06567	1.38044
1589.13711	1.34732
1587.20854	1.31699
1585.27998	1.28942
1583.35142	1.26412
1581.42285	1.24114
1579.49429	1.22138
1577.56572	1.20405
1575.63716	1.18435
1573.70859	1.16703
1571.78003	1.15550
1569.85146	1.14432
1567.92290	1.13272
1565.99434	1.12459
1564.06577	1.11933
1562.13721	1.11579
1560.20864	1.11486
1558.28008	1.11888
1556.35151	1.12332
1554.42295	1.12503
1552.49438	1.12651
1550.56582	1.12658
1548.63726	1.12414
1546.70869	1.11876
1544.78013	1.10978
1542.85156	1.09710
1540.92300	1.07813
1538.99443	1.04951
1537.06587	1.02762
1535.13730	1.01189
1533.20874	0.99154
1531.28018	0.96999
1529.35161	0.95378
1527.42305	0.93860
1525.49448	0.92317
1523.56592	0.90996
1521.63735	0.89767
1519.70879	0.88589
1517.78022	0.87602
1515.85166	0.86429
1513.92310	0.85110
1511.99453	0.83906
1510.06597	0.82822
1508.13740	0.81786
1506.20884	0.80332
1504.28027	0.79055
1502.35171	0.78286
1500.42314	0.77618
1498.49458	0.76921
1496.56602	0.76123
1494.63745	0.75334
1492.70889	0.74709
1490.78032	0.74151
1488.85176	0.73537
1486.92319	0.72980
1484.99463	0.72558
1483.06606	0.72245
1481.13750	0.71996
1479.20894	0.71801
1477.28037	0.71689
1475.35181	0.71676
1473.42324	0.71739
1471.49468	0.71716
1469.56611	0.71526
1467.63755	0.71294
1465.70898	0.71106
1463.78042	0.70986
1461.85186	0.70920
1459.92329	0.70919
1457.99473	0.70990
1456.06616	0.70991
1454.13760	0.70770
1452.20903	0.70486
1450.28047	0.70195
1448.35190	0.69909
1446.42334	0.69624
1444.49478	0.69349
1442.56621	0.69078
1440.63765	0.68794
1438.70908	0.68498
1436.78052	0.68144
1434.85195	0.67762
1432.92339	0.67470
1430.99482	0.67277
1429.06626	0.67175
1427.13770	0.67156
1425.20913	0.67195
1423.28057	0.67269
1421.35200	0.67342
1419.42344	0.67417
1417.49487	0.67451
1415.56631	0.67378
1413.63774	0.67291
1411.70918	0.67266
1409.78062	0.67319
1407.85205	0.67433
1405.92349	0.67595
1403.99492	0.67738
1402.06636	0.67761
1400.13779	0.67679
1398.20923	0.67522
1396.28066	0.67276
1394.35210	0.66917
1392.42354	0.66484
1390.49497	0.66051
1388.56641	0.65601
1386.63784	0.65094
1384.70928	0.64570
1382.78071	0.64073
1380.85215	0.63599
1378.92358	0.63196
1376.99502	0.62904
1375.06646	0.62701
1373.13789	0.62566
1371.20933	0.62485
1369.28076	0.62420
1367.35220	0.62325
1365.42363	0.62189
1363.49507	0.62044
1361.56650	0.61882
1359.63794	0.61700
1357.70937	0.61538
1355.78081	0.61410
1353.85225	0.61303
1351.92368	0.61205
1349.99512	0.61114
1348.06655	0.61030
1346.13799	0.60941
1344.20942	0.60849
1342.28086	0.60766
1340.35229	0.60698
1338.42373	0.60621
1336.49517	0.60528
1334.56660	0.60467
1332.63804	0.60463
1330.70947	0.60489
1328.78091	0.60523
1326.85234	0.60573
1324.92378	0.60649
1322.99521	0.60750
1321.06665	0.60846
1319.13809	0.60912
1317.20952	0.60943
1315.28096	0.60939
1313.35239	0.60900
1311.42383	0.60833
1309.49526	0.60750
1307.56670	0.60677
1305.63813	0.60616
1303.70957	0.60541
1301.78101	0.60448
1299.85244	0.60346
1297.92388	0.60235
1295.99531	0.60106
1294.06675	0.59968
1292.13818	0.59825
1290.20962	0.59683
1288.28105	0.59550
1286.35249	0.59416
1284.42393	0.59267
1282.49536	0.59117
1280.56680	0.58979
1278.63823	0.58843
1276.70967	0.58698
1274.78110	0.58560
1272.85254	0.58458
1270.92397	0.58394
1268.99541	0.58332
1267.06685	0.58241
1265.13828	0.58141
1263.20972	0.58066
1261.28115	0.58017
1259.35259	0.57952
1257.42402	0.57864
1255.49546	0.57809
1253.56689	0.57810
1251.63833	0.57834
1249.70977	0.57859
1247.78120	0.57867
1245.85264	0.57844
1243.92407	0.57793
1241.99551	0.57712
1240.06694	0.57585
1238.13838	0.57409
1236.20981	0.57201
1234.28125	0.56974
1232.35269	0.56740
1230.42412	0.56504
1228.49556	0.56274
1226.56699	0.56054
1224.63843	0.55851
1222.70986	0.55667
1220.78130	0.55499
1218.85273	0.55334
1216.92417	0.55180
1214.99561	0.55055
1213.06704	0.54949
1211.13848	0.54854
1209.20991	0.54789
1207.28135	0.54740
1205.35278	0.54673
1203.42422	0.54574
1201.49565	0.54467
1199.56709	0.54372
1197.63853	0.54278
1195.70996	0.54192
1193.78140	0.54129
1191.85283	0.54075
1189.92427	0.54012
1187.99570	0.53956
1186.06714	0.53927
1184.13857	0.53937
1182.21001	0.53991
1180.28145	0.54079
1178.35288	0.54193
1176.42432	0.54334
1174.49575	0.54484
1172.56719	0.54603
1170.63862	0.54659
1168.71006	0.54683
1166.78149	0.54713
1164.85293	0.54749
1162.92437	0.54782
1160.99580	0.54806
1159.06724	0.54796
1157.13867	0.54744
1155.21011	0.54670
1153.28154	0.54562
1151.35298	0.54383
1149.42441	0.54139
1147.49585	0.53865
1145.56729	0.53569
1143.63872	0.53262
1141.71016	0.52997
1139.78159	0.52814
1137.85303	0.52692
1135.92446	0.52600
1133.99590	0.52554
1132.06733	0.52554
1130.13877	0.52562
1128.21021	0.52561
1126.28164	0.52546
1124.35308	0.52508
1122.42451	0.52470
1120.49595	0.52463
1118.56738	0.52483
1116.63882	0.52526
1114.71025	0.52587
1112.78169	0.52648
1110.85312	0.52717
1108.92456	0.52804
1106.99600	0.52895
1105.06743	0.52988
1103.13887	0.53099
1101.21030	0.53223
1099.28174	0.53348
1097.35317	0.53503
1095.42461	0.53738
1093.49604	0.54086
1091.56748	0.54575
1089.63892	0.55211
1087.71035	0.55981
1085.78179	0.56837
1083.85322	0.57680
1081.92466	0.58418
1079.99609	0.58965
1078.06753	0.59217
1076.13896	0.59146
1074.21040	0.58810
1072.28184	0.58270
1070.35327	0.57597
1068.42471	0.56877
1066.49614	0.56169
1064.56758	0.55517
1062.63901	0.54947
1060.71045	0.54458
1058.78188	0.54036
1056.85332	0.53657
1054.92476	0.53328
1052.99619	0.53043
1051.06763	0.52789
1049.13906	0.52584
1047.21050	0.52458
1045.28193	0.52420
1043.35337	0.52430
1041.42480	0.52444
1039.49624	0.52453
1037.56768	0.52453
1035.63911	0.52438
1033.71055	0.52384
1031.78198	0.52264
1029.85342	0.52089
1027.92485	0.51884
1025.99629	0.51680
1024.06772	0.51528
1022.13916	0.51443
1020.21060	0.51385
1018.28203	0.51332
1016.35347	0.51313
1014.42490	0.51326
1012.49634	0.51322
1010.56777	0.51301
1008.63921	0.51291
1006.71064	0.51301
1004.78208	0.51359
1002.85352	0.51496
1000.92495	0.51729
998.99639	0.52072
997.06782	0.52505
995.13926	0.52970
993.21069	0.53402
991.28213	0.53745
989.35356	0.53958
987.42500	0.54029
985.49644	0.53999
983.56787	0.53952
981.63931	0.53959
979.71074	0.54027
977.78218	0.54136
975.85361	0.54306
973.92505	0.54550
971.99648	0.54840
970.06792	0.55156
968.13936	0.55507
966.21079	0.55896
964.28223	0.56324
962.35366	0.56794
960.42510	0.57299
958.49653	0.57841
956.56797	0.58413
954.63940	0.58998
952.71084	0.59600
950.78228	0.60210
948.85371	0.60824
946.92515	0.61472
944.99658	0.62135
943.06802	0.62774
941.13945	0.63413
939.21089	0.64053
937.28232	0.64662
935.35376	0.65218
933.42520	0.65746
931.49663	0.66309
929.56807	0.66900
927.63950	0.67477
925.71094	0.68088
923.78237	0.68756
921.85381	0.69441
919.92524	0.70140
917.99668	0.70847
916.06812	0.71557
914.13955	0.72313
912.21099	0.73110
910.28242	0.73900
908.35386	0.74699
906.42529	0.75572
904.49673	0.76508
902.56816	0.77419
900.63960	0.78317
898.71104	0.79266
896.78247	0.80281
894.85391	0.81343
892.92534	0.82402
890.99678	0.83437
889.06821	0.84443
887.13965	0.85423
885.21108	0.86471
883.28252	0.87616
881.35396	0.88744
879.42539	0.89880
877.49683	0.91124
875.56826	0.92400
873.63970	0.93587
871.71113	0.94697
869.78257	0.95811
867.85400	0.96995
865.92544	0.98294
863.99687	0.99612
862.06831	1.00793
860.13975	1.01759
858.21118	1.02729
856.28262	1.03997
854.35405	1.05336
852.42549	1.06550
850.49692	1.07809
848.56836	1.09081
846.63979	1.10190
844.71123	1.11149
842.78267	1.12200
840.85410	1.13459
838.92554	1.14746
836.99697	1.15942
835.06841	1.17075
833.13984	1.18250
831.21128	1.19354
829.28271	1.20225
827.35415	1.21163
825.42559	1.22225
823.49702	1.23313
821.56846	1.24713
819.63989	1.26288
817.71133	1.27374
815.78276	1.28188
813.85420	1.29742
811.92563	1.32030
809.99707	1.33796
808.06851	1.34432
806.13994	1.34620
804.21138	1.34466
802.28281	1.34088
800.35425	1.35261
798.42568	1.38938
796.49712	1.41442
794.56855	1.40120
792.63999	1.37339
790.71143	1.33742
788.78286	1.32397
786.85430	1.38882
784.92573	1.52372
782.99717	1.56463
781.06860	1.49687
779.14004	1.47115
777.21147	1.50559
775.28291	1.59782
773.35435	1.67085
771.42578	1.64690
769.49722	1.63700
767.56865	1.66144
765.64009	1.54645
763.71152	1.38220
761.78296	1.32857
759.85439	1.40980
757.92583	1.53557
755.99727	1.50432
754.06870	1.46638
752.14014	1.66834
750.21157	2.61574
748.28301	4.48970
746.35444	4.47813
744.42588	4.46656
742.49731	4.45498
740.56875	4.44341
738.64019	1.93598
736.71162	2.44049
734.78306	4.40870
732.85449	1.86006
730.92593	1.27585
728.99736	0.95125
727.06880	0.81230
725.14023	0.89537
723.21167	0.86428
721.28311	0.63898
719.35454	0.49595
717.42598	0.45009
715.49741	0.41214
713.56885	0.07127
711.64028	-0.28552
709.71172	0.08284
707.78315	0.31435
705.85459	0.32054
703.92603	0.31298
701.99746	0.38824
700.06890	0.44327
698.14033	0.29773
696.21177	0.17381
694.28320	0.22793
692.35464	0.38303
690.42607	0.57825
688.49751	0.77201
686.56895	0.65769
684.64038	0.37856
682.71182	0.24422
680.78325	0.24878
678.85469	0.32383
676.92612	0.38714
674.99756	0.39028
673.06899	0.35064
671.14043	0.29248
669.21187	0.26861
667.28330	0.32051
665.35474	0.47660
663.42617	0.51315
661.49761	0.37158
659.56904	0.38460
657.64048	0.53585
655.71191	0.62298
653.78335	0.51803
651.85479	0.41075
649.92622	0.32473
647.99766	0.24157
646.06909	0.19954
644.14053	0.24937
642.21196	0.37427
640.28340	0.44291
638.35483	0.35081
636.42627	0.23235
634.49771	0.20849
632.56914	0.24519
630.64058	0.26138
628.71201	0.29195
626.78345	0.37970
624.85488	0.47397
622.92632	0.43227
620.99775	0.35448
619.06919	0.41323
617.14062	0.53214
615.21206	0.53802
613.28350	0.56523
611.35493	0.53879
609.42637	0.41945
607.49780	0.31490
605.56924	0.27675
603.64067	0.32335
601.71211	0.33322
599.78354	0.26555
597.85498	0.23589
595.92642	0.25302
593.99785	0.30851
592.06929	0.38916
590.14072	0.47246
588.21216	0.50229
586.28359	0.54584
584.35503	0.69380
582.42646	0.59362
580.49790	0.42289
578.56934	0.39266
576.64077	0.49256
574.71221	0.62749
572.78364	0.60596
570.85508	0.51303
568.92651	0.48832
566.99795	0.51652
565.06938	0.38464
563.14082	0.19782
561.21226	0.12681
559.28369	0.11048
557.35513	0.10547
555.42656	0.17728
553.49800	0.31292
551.56943	0.36272
549.64087	0.29840
547.71230	0.23305
545.78374	0.19315
543.85518	0.18300
541.92661	0.21971
539.99805	0.27025
538.06948	0.27447
536.14092	0.31545
534.21235	0.51147
532.28379	3.19370
530.35522	3.18213
528.42666	3.17056
526.49810	0.47344
524.56953	0.32276
522.64097	0.27055
520.71240	0.27596
518.78384	0.35257
516.85527	0.39404
514.92671	0.34530
512.99814	0.30911
511.06958	0.28897
509.14102	0.27257
507.21245	0.24594
505.28389	0.18936
503.35532	0.16155
501.42676	0.17412
499.49819	0.20074
