3997.91411	0.06217
3995.98555	0.06258
3994.05698	0.06296
3992.12842	0.06334
3990.19985	0.06367
3988.27129	0.06383
3986.34272	0.06399
3984.41416	0.06417
3982.48560	0.06424
3980.55703	0.06434
3978.62847	0.06467
3976.69990	0.06531
3974.77134	0.06606
3972.84277	0.06638
3970.91421	0.06620
3968.98564	0.06604
3967.05708	0.06598
3965.12852	0.06610
3963.19995	0.06665
3961.27139	0.06739
3959.34282	0.06768
3957.41426	0.06729
3955.48569	0.06676
3953.55713	0.06683
3951.62856	0.06763
3949.70000	0.06860
3947.77144	0.06909
3945.84287	0.06898
3943.91431	0.06896
3941.98574	0.06909
3940.05718	0.06849
3938.12861	0.06776
3936.20005	0.06792
3934.27148	0.06852
3932.34292	0.06919
3930.41436	0.06965
3928.48579	0.06931
3926.55723	0.06868
3924.62866	0.06866
3922.70010	0.06863
3920.77153	0.06821
3918.84297	0.06840
3916.91440	0.06891
3914.98584	0.06843
3913.05728	0.06738
3911.12871	0.06669
3909.20015	0.06645
3907.27158	0.06715
3905.34302	0.06926
3903.41445	0.07163
3901.48589	0.07221
3899.55732	0.07115
3897.62876	0.06940
3895.70020	0.06785
3893.77163	0.06788
3891.84307	0.06936
3889.91450	0.06985
3887.98594	0.06887
3886.05737	0.06903
3884.12881	0.07028
3882.20024	0.07068
3880.27168	0.07053
3878.34312	0.07008
3876.41455	0.06967
3874.48599	0.07060
3872.55742	0.07241
3870.62886	0.07360
3868.70029	0.07363
3866.77173	0.07281
3864.84316	0.07295
3862.91460	0.07395
3860.98604	0.07373
3859.05747	0.07288
3857.12891	0.07317
3855.20034	0.07500
3853.27178	0.07814
3851.34321	0.07942
3849.41465	0.07676
3847.48608	0.07432
3845.55752	0.07412
3843.62896	0.07597
3841.70039	0.07860
3839.77183	0.08118
3837.84326	0.08328
3835.91470	0.08361
3833.98613	0.08262
3832.05757	0.08157
3830.12900	0.08068
3828.20044	0.08062
3826.27187	0.08164
3824.34331	0.08284
3822.41475	0.08465
3820.48618	0.08809
3818.55762	0.09011
3816.62905	0.08981
3814.70049	0.08922
3812.77192	0.08813
3810.84336	0.08734
3808.91479	0.08815
3806.98623	0.09068
3805.05767	0.09314
3803.12910	0.09484
3801.20054	0.09717
3799.27197	0.09878
3797.34341	0.09897
3795.41484	0.09905
3793.48628	0.09876
3791.55771	0.09877
3789.62915	0.09963
3787.70059	0.10091
3785.77202	0.10262
3783.84346	0.10436
3781.91489	0.10576
3779.98633	0.10763
3778.05776	0.10973
3776.12920	0.11082
3774.20063	0.11172
3772.27207	0.11349
3770.34351	0.11632
3768.41494	0.11936
3766.48638	0.12142
3764.55781	0.12298
3762.62925	0.12440
3760.70068	0.12657
3758.77212	0.13022
3756.84355	0.13367
3754.91499	0.13609
3752.98643	0.13942
3751.05786	0.14500
3749.12930	0.15021
3747.20073	0.15193
3745.27217	0.15321
3743.34360	0.15624
3741.41504	0.15910
3739.48647	0.16108
3737.55791	0.16416
3735.62935	0.16984
3733.70078	0.17642
3731.77222	0.17997
3729.84365	0.18203
3727.91509	0.18542
3725.98652	0.19095
3724.05796	0.19760
3722.12939	0.20426
3720.20083	0.21119
3718.27227	0.21864
3716.34370	0.22661
3714.41514	0.23496
3712.48657	0.24523
3710.55801	0.25909
3708.62944	0.27246
3706.70088	0.28243
3704.77231	0.29244
3702.84375	0.30566
3700.91519	0.32304
3698.98662	0.34130
3697.05806	0.35855
3695.12949	0.37732
3693.20093	0.39823
3691.27236	0.42203
3689.34380	0.45180
3687.41523	0.48580
3685.48667	0.51489
3683.55811	0.54029
3681.62954	0.56839
3679.70098	0.60097
3677.77241	0.63590
3675.84385	0.67687
3673.91528	0.72944
3671.98672	0.77272
3670.05815	0.81215
3668.12959	0.86411
3666.20103	0.91128
3664.27246	0.95188
3662.34390	0.99617
3660.41533	1.04407
3658.48677	1.09111
3656.55820	1.14114
3654.62964	1.19673
3652.70107	1.24438
3650.77251	1.28791
3648.84395	1.34635
3646.91538	1.41227
3644.98682	1.45965
3643.05825	1.49815
3641.12969	1.53931
3639.20112	1.58428
3637.27256	1.62870
3635.34399	1.67223
3633.41543	1.71601
3631.48687	1.75695
3629.55830	1.79941
3627.62974	1.85444
3625.70117	1.90402
3623.77261	1.93726
3621.84404	1.97047
3619.91548	2.01002
3617.98691	2.05726
3616.05835	2.10227
3614.12979	2.14014
3612.20122	2.17927
3610.27266	2.21828
3608.34409	2.25791
3606.41553	2.30012
3604.48696	2.33919
3602.55840	2.37473
3600.62983	2.41405
3598.70127	2.45695
3596.77271	2.49790
3594.84414	2.53814
3592.91558	2.57921
3590.98701	2.61839
3589.05845	2.65600
3587.12988	2.70042
3585.20132	2.74797
3583.27275	2.78863
3581.34419	2.82739
3579.41562	2.86907
3577.48706	2.91186
3575.55850	2.95452
3573.62993	2.99866
3571.70137	3.04108
3569.77280	3.08103
3567.84424	3.12451
3565.91567	3.17807
3563.98711	3.23005
3562.05854	3.27264
3560.12998	3.31432
3558.20142	3.35816
3556.27285	3.40308
3554.34429	3.44809
3552.41572	3.49612
3550.48716	3.54482
3548.55859	3.58968
3546.63003	3.63383
3544.70146	3.68185
3542.77290	3.73212
3540.84434	3.78003
3538.91577	3.82555
3536.98721	3.87227
3535.05864	3.92230
3533.13008	3.97080
3531.20151	4.01761
3529.27295	4.06724
3527.34438	4.11945
3525.41582	4.16843
3523.48726	4.21384
3521.55869	4.26144
3519.63013	4.31090
3517.70156	4.36147
3515.77300	4.41059
3513.84443	4.45540
3511.91587	4.50090
3509.98730	4.55024
3508.05874	4.59759
3506.13018	4.64184
3504.20161	4.68718
3502.27305	4.73481
3500.34448	4.78785
3498.41592	4.84505
3496.48735	4.89902
3494.55879	4.94876
3492.63022	4.99776
3490.70166	5.04613
3488.77310	5.09683
3486.84453	5.15009
3484.91597	5.19946
3482.98740	5.24061
3481.05884	5.27846
3479.13027	5.32481
3477.20171	5.37873
3475.27314	5.42986
3473.34458	5.47975
3471.41602	5.53290
3469.48745	5.58541
3467.55889	5.63156
3465.63032	5.67202
3463.70176	5.72089
3461.77319	5.78106
3459.84463	5.83686
3457.91606	5.88648
3455.98750	5.94493
3454.05894	6.00773
3452.13037	6.05856
3450.20181	6.09894
3448.27324	6.13612
3446.34468	6.18054
3444.41611	6.23676
3442.48755	6.29677
3440.55898	6.34329
3438.63042	6.37978
3436.70186	6.42742
3434.77329	6.48290
3432.84473	6.53840
3430.91616	6.58668
3428.98760	6.61922
3427.05903	6.64888
3425.13047	6.69426
3423.20190	6.75289
3421.27334	6.82383
3419.34478	6.89517
3417.41621	6.95301
3415.48765	6.99945
3413.55908	7.03567
3411.63052	7.08626
3409.70195	7.14907
3407.77339	7.19516
3405.84482	7.22086
3403.91626	7.23834
3401.98770	7.25621
3400.05913	7.29083
3398.13057	7.34217
3396.20200	7.39166
3394.27344	7.43563
3392.34487	7.47924
3390.41631	7.53246
3388.48774	7.57089
3386.55918	7.61446
3384.63062	7.67806
3382.70205	7.69308
3380.77349	7.66316
3378.84492	7.67590
3376.91636	7.74697
3374.98779	7.80393
3373.05923	7.82074
3371.13066	7.82299
3369.20210	7.86112
3367.27354	7.94851
3365.34497	8.03892
3363.41641	8.08079
3361.48784	8.04578
3359.55928	7.99139
3357.63071	8.00294
3355.70215	8.07172
3353.77358	8.11728
3351.84502	8.13416
3349.91646	8.12348
3347.98789	8.11802
3346.05933	8.17828
3344.13076	8.24636
3342.20220	8.24176
3340.27363	8.18121
3338.34507	8.14442
3336.41650	8.19361
3334.48794	8.25727
3332.55937	8.19980
3330.63081	8.14202
3328.70225	8.17988
3326.77368	8.25464
3324.84512	8.32137
3322.91655	8.28059
3320.98799	8.17776
3319.05942	8.18714
3317.13086	8.31871
3315.20229	8.40720
3313.27373	8.38878
3311.34517	8.35196
3309.41660	8.30852
3307.48804	8.22425
3305.55947	8.18086
3303.63091	8.24133
3301.70234	8.32615
3299.77378	8.38494
3297.84521	8.41616
3295.91665	8.44547
3293.98809	8.45488
3292.05952	8.41482
3290.13096	8.40065
3288.20239	8.45762
3286.27383	8.49195
3284.34526	8.45176
3282.41670	8.44400
3280.48813	8.41833
3278.55957	8.31852
3276.63101	8.24384
3274.70244	8.25651
3272.77388	8.33100
3270.84531	8.37206
3268.91675	8.35714
3266.98818	8.33346
3265.05962	8.34086
3263.13105	8.39219
3261.20249	8.45113
3259.27393	8.46302
3257.34536	8.43002
3255.41680	8.38694
3253.48823	8.35524
3251.55967	8.35407
3249.63110	8.40799
3247.70254	8.49010
3245.77397	8.50037
3243.84541	8.42449
3241.91685	8.35032
3239.98828	8.33612
3238.05972	8.34648
3236.13115	8.38359
3234.20259	8.45216
3232.27402	8.41669
3230.34546	8.29407
3228.41689	8.26233
3226.48833	8.30353
3224.55977	8.25109
3222.63120	8.16918
3220.70264	8.18196
3218.77407	8.18093
3216.84551	8.09631
3214.91694	8.05289
3212.98838	8.09442
3211.05981	8.11340
3209.13125	8.03331
3207.20269	7.92821
3205.27412	7.89383
3203.34556	7.91487
3201.41699	7.90068
3199.48843	7.80535
3197.55986	7.70941
3195.63130	7.69626
3193.70273	7.73592
3191.77417	7.76249
3189.84561	7.74062
3187.91704	7.67011
3185.98848	7.60073
3184.05991	7.55482
3182.13135	7.50096
3180.20278	7.44569
3178.27422	7.39672
3176.34565	7.33264
3174.41709	7.27218
3172.48853	7.24649
3170.55996	7.23078
3168.63140	7.15697
3166.70283	7.03762
3164.77427	6.95707
3162.84570	6.92605
3160.91714	6.89469
3158.98857	6.83331
3157.06001	6.74027
3155.13145	6.63789
3153.20288	6.55438
3151.27432	6.49490
3149.34575	6.43995
3147.41719	6.37823
3145.48862	6.31328
3143.56006	6.24862
3141.63149	6.18962
3139.70293	6.12179
3137.77437	6.03831
3135.84580	5.95808
3133.91724	5.88187
3131.98867	5.80093
3130.06011	5.71832
3128.13154	5.63563
3126.20298	5.55727
3124.27441	5.49231
3122.34585	5.43278
3120.41729	5.36580
3118.48872	5.29676
3116.56016	5.23099
3114.63159	5.16224
3112.70303	5.08883
3110.77446	5.01367
3108.84590	4.94067
3106.91733	4.87380
3104.98877	4.80785
3103.06021	4.73931
3101.13164	4.67257
3099.20308	4.60711
3097.27451	4.53853
3095.34595	4.46928
3093.41738	4.40301
3091.48882	4.33849
3089.56025	4.27409
3087.63169	4.20893
3085.70312	4.14445
3083.77456	4.08194
3081.84600	4.02062
3079.91743	3.96041
3077.98887	3.90061
3076.06030	3.83970
3074.13174	3.77987
3072.20317	3.72288
3070.27461	3.66630
3068.34604	3.60945
3066.41748	3.55277
3064.48892	3.49610
3062.56035	3.43970
3060.63179	3.38436
3058.70322	3.33115
3056.77466	3.27782
3054.84609	3.22223
3052.91753	3.16736
3050.98896	3.11571
3049.06040	3.06554
3047.13184	3.01526
3045.20327	2.96485
3043.27471	2.91472
3041.34614	2.86584
3039.41758	2.81852
3037.48901	2.77160
3035.56045	2.72430
3033.63188	2.67714
3031.70332	2.63039
3029.77476	2.58473
3027.84619	2.54094
3025.91763	2.49818
3023.98906	2.45560
3022.06050	2.41289
3020.13193	2.36996
3018.20337	2.32784
3016.27480	2.28709
3014.34624	2.24719
3012.41768	2.20808
3010.48911	2.16971
3008.56055	2.13205
3006.63198	2.09499
3004.70342	2.05841
3002.77485	2.02272
3000.84629	1.98834
2998.91772	1.95500
2996.98916	1.92226
2995.06060	1.88989
2993.13203	1.85788
2991.20347	1.82663
2989.27490	1.79593
2987.34634	1.76534
2985.41777	1.73559
2983.48921	1.70713
2981.56064	1.67907
2979.63208	1.65100
2977.70352	1.62364
2975.77495	1.59748
2973.84639	1.57217
2971.91782	1.54691
2969.98926	1.52135
2968.06069	1.49587
2966.13213	1.47108
2964.20356	1.44696
2962.27500	1.42258
2960.34644	1.39780
2958.41787	1.37341
2956.48931	1.34931
2954.56074	1.32510
2952.63218	1.30099
2950.70361	1.27718
2948.77505	1.25363
2946.84648	1.23049
2944.91792	1.20793
2942.98936	1.18611
2941.06079	1.16517
2939.13223	1.14437
2937.20366	1.12322
2935.27510	1.10247
2933.34653	1.08231
2931.41797	1.06203
2929.48940	1.04176
2927.56084	1.02203
2925.63228	1.00294
2923.70371	0.98442
2921.77515	0.96623
2919.84658	0.94807
2917.91802	0.93020
2915.98945	0.91327
2914.06089	0.89722
2912.13232	0.88158
2910.20376	0.86634
2908.27520	0.85144
2906.34663	0.83660
2904.41807	0.82201
2902.48950	0.80780
2900.56094	0.79384
2898.63237	0.78031
2896.70381	0.76736
2894.77524	0.75463
2892.84668	0.74175
2890.91812	0.72919
2888.98955	0.71762
2887.06099	0.70674
2885.13242	0.69606
2883.20386	0.68570
2881.27529	0.67595
2879.34673	0.66650
2877.41816	0.65657
2875.48960	0.64615
2873.56104	0.63580
2871.63247	0.62543
2869.70391	0.61457
2867.77534	0.60308
2865.84678	0.59110
2863.91821	0.57906
2861.98965	0.56743
2860.06108	0.55626
2858.13252	0.54560
2856.20396	0.53555
2854.27539	0.52581
2852.34683	0.51628
2850.41826	0.50724
2848.48970	0.49860
2846.56113	0.49059
2844.63257	0.48364
2842.70400	0.47740
2840.77544	0.47134
2838.84687	0.46528
2836.91831	0.45920
2834.98975	0.45314
2833.06118	0.44717
2831.13262	0.44126
2829.20405	0.43532
2827.27549	0.42940
2825.34692	0.42355
2823.41836	0.41765
2821.48979	0.41155
2819.56123	0.40551
2817.63267	0.39979
2815.70410	0.39415
2813.77554	0.38836
2811.84697	0.38266
2809.91841	0.37715
2807.98984	0.37173
2806.06128	0.36631
2804.13271	0.36098
2802.20415	0.35588
2800.27559	0.35101
2798.34702	0.34618
2796.41846	0.34120
2794.48989	0.33624
2792.56133	0.33156
2790.63276	0.32706
2788.70420	0.32256
2786.77563	0.31798
2784.84707	0.31348
2782.91851	0.30928
2780.98994	0.30519
2779.06138	0.30105
2777.13281	0.29697
2775.20425	0.29304
2773.27568	0.28924
2771.34712	0.28547
2769.41855	0.28174
2767.48999	0.27809
2765.56143	0.27446
2763.63286	0.27089
2761.70430	0.26745
2759.77573	0.26404
2757.84717	0.26068
2755.91860	0.25746
2753.99004	0.25441
2752.06147	0.25141
2750.13291	0.24831
2748.20435	0.24524
2746.27578	0.24232
2744.34722	0.23952
2742.41865	0.23683
2740.49009	0.23428
2738.56152	0.23174
2736.63296	0.22907
2734.70439	0.22635
2732.77583	0.22372
2730.84727	0.22121
2728.91870	0.21884
2726.99014	0.21656
2725.06157	0.21428
2723.13301	0.21209
2721.20444	0.21006
2719.27588	0.20813
2717.34731	0.20619
2715.41875	0.20414
2713.49019	0.20214
2711.56162	0.20034
2709.63306	0.19865
2707.70449	0.19695
2705.77593	0.19527
2703.84736	0.19365
2701.91880	0.19199
2699.99023	0.19031
2698.06167	0.18872
2696.13311	0.18726
2694.20454	0.18582
2692.27598	0.18435
2690.34741	0.18291
2688.41885	0.18162
2686.49028	0.18057
2684.56172	0.17949
2682.63315	0.17826
2680.70459	0.17702
2678.77603	0.17583
2676.84746	0.17468
2674.91890	0.17360
2672.99033	0.17256
2671.06177	0.17157
2669.13320	0.17061
2667.20464	0.16954
2665.27607	0.16842
2663.34751	0.16742
2661.41895	0.16655
2659.49038	0.16573
2657.56182	0.16501
2655.63325	0.16428
2653.70469	0.16349
2651.77612	0.16272
2649.84756	0.16207
2647.91899	0.16145
2645.99043	0.16075
2644.06187	0.16010
2642.13330	0.15958
2640.20474	0.15904
2638.27617	0.15847
2636.34761	0.15803
2634.41904	0.15770
2632.49048	0.15736
2630.56191	0.15700
2628.63335	0.15668
2626.70479	0.15630
2624.77622	0.15577
2622.84766	0.15530
2620.91909	0.15496
2618.99053	0.15466
2617.06196	0.15442
2615.13340	0.15431
2613.20483	0.15424
2611.27627	0.15407
2609.34771	0.15383
2607.41914	0.15362
2605.49058	0.15353
2603.56201	0.15360
2601.63345	0.15369
2599.70488	0.15358
2597.77632	0.15336
2595.84775	0.15334
2593.91919	0.15354
2591.99062	0.15377
2590.06206	0.15396
2588.13350	0.15409
2586.20493	0.15419
2584.27637	0.15431
2582.34780	0.15436
2580.41924	0.15442
2578.49067	0.15469
2576.56211	0.15511
2574.63354	0.15554
2572.70498	0.15592
2570.77642	0.15626
2568.84785	0.15662
2566.91929	0.15700
2564.99072	0.15733
2563.06216	0.15767
2561.13359	0.15810
2559.20503	0.15856
2557.27646	0.15899
2555.34790	0.15941
2553.41934	0.15995
2551.49077	0.16051
2549.56221	0.16101
2547.63364	0.16154
2545.70508	0.16216
2543.77651	0.16274
2541.84795	0.16323
2539.91938	0.16377
2537.99082	0.16444
2536.06226	0.16510
2534.13369	0.16571
2532.20513	0.16635
2530.27656	0.16703
2528.34800	0.16764
2526.41943	0.16822
2524.49087	0.16891
2522.56230	0.16974
2520.63374	0.17067
2518.70518	0.17146
2516.77661	0.17204
2514.84805	0.17264
2512.91948	0.17342
2510.99092	0.17432
2509.06235	0.17524
2507.13379	0.17612
2505.20522	0.17699
2503.27666	0.17779
2501.34810	0.17850
2499.41953	0.17926
2497.49097	0.18010
2495.56240	0.18093
2493.63384	0.18175
2491.70527	0.18260
2489.77671	0.18343
2487.84814	0.18427
2485.91958	0.18519
2483.99102	0.18602
2482.06245	0.18671
2480.13389	0.18753
2478.20532	0.18852
2476.27676	0.18945
2474.34819	0.19027
2472.41963	0.19105
2470.49106	0.19190
2468.56250	0.19289
2466.63394	0.19394
2464.70537	0.19499
2462.77681	0.19595
2460.84824	0.19671
2458.91968	0.19747
2456.99111	0.19840
2455.06255	0.19940
2453.13398	0.20037
2451.20542	0.20129
2449.27686	0.20226
2447.34829	0.20332
2445.41973	0.20434
2443.49116	0.20522
2441.56260	0.20615
2439.63403	0.20722
2437.70547	0.20829
2435.77690	0.20922
2433.84834	0.21024
2431.91978	0.21151
2429.99121	0.21276
2428.06265	0.21378
2426.13408	0.21477
2424.20552	0.21587
2422.27695	0.21700
2420.34839	0.21808
2418.41982	0.21918
2416.49126	0.22027
2414.56270	0.22129
2412.63413	0.22236
2410.70557	0.22351
2408.77700	0.22472
2406.84844	0.22596
2404.91987	0.22719
2402.99131	0.22840
2401.06274	0.22952
2399.13418	0.23053
2397.20562	0.23171
2395.27705	0.23314
2393.34849	0.23452
2391.41992	0.23573
2389.49136	0.23687
2387.56279	0.23802
2385.63423	0.23913
2383.70566	0.24022
2381.77710	0.24127
2379.84854	0.24213
2377.91997	0.24276
2375.99141	0.24311
2374.06284	0.24328
2372.13428	0.24342
2370.20571	0.24346
2368.27715	0.24363
2366.34858	0.24417
2364.42002	0.24436
2362.49146	0.24498
2360.56289	0.24757
2358.63433	0.25045
2356.70576	0.25232
2354.77720	0.25441
2352.84863	0.25737
2350.92007	0.26037
2348.99150	0.26228
2347.06294	0.26310
2345.13437	0.26385
2343.20581	0.26538
2341.27725	0.26703
2339.34868	0.26833
2337.42012	0.26993
2335.49155	0.27180
2333.56299	0.27339
2331.63442	0.27498
2329.70586	0.27702
2327.77729	0.27942
2325.84873	0.28158
2323.92017	0.28338
2321.99160	0.28540
2320.06304	0.28782
2318.13447	0.29034
2316.20591	0.29266
2314.27734	0.29477
2312.34878	0.29672
2310.42021	0.29854
2308.49165	0.30034
2306.56309	0.30225
2304.63452	0.30433
2302.70596	0.30647
2300.77739	0.30855
2298.84883	0.31056
2296.92026	0.31257
2294.99170	0.31462
2293.06313	0.31675
2291.13457	0.31897
2289.20601	0.32113
2287.27744	0.32321
2285.34888	0.32526
2283.42031	0.32728
2281.49175	0.32928
2279.56318	0.33121
2277.63462	0.33315
2275.70605	0.33524
2273.77749	0.33746
2271.84893	0.33973
2269.92036	0.34192
2267.99180	0.34397
2266.06323	0.34604
2264.13467	0.34816
2262.20610	0.35024
2260.27754	0.35229
2258.34897	0.35448
2256.42041	0.35677
2254.49185	0.35901
2252.56328	0.36120
2250.63472	0.36343
2248.70615	0.36572
2246.77759	0.36800
2244.84902	0.37027
2242.92046	0.37253
2240.99189	0.37473
2239.06333	0.37692
2237.13477	0.37923
2235.20620	0.38157
2233.27764	0.38384
2231.34907	0.38612
2229.42051	0.38837
2227.49194	0.39056
2225.56338	0.39281
2223.63481	0.39512
2221.70625	0.39738
2219.77769	0.39958
2217.84912	0.40176
2215.92056	0.40391
2213.99199	0.40606
2212.06343	0.40839
2210.13486	0.41080
2208.20630	0.41296
2206.27773	0.41494
2204.34917	0.41701
2202.42061	0.41914
2200.49204	0.42121
2198.56348	0.42322
2196.63491	0.42517
2194.70635	0.42708
2192.77778	0.42899
2190.84922	0.43093
2188.92065	0.43286
2186.99209	0.43477
2185.06353	0.43660
2183.13496	0.43830
2181.20640	0.43996
2179.27783	0.44164
2177.34927	0.44334
2175.42070	0.44501
2173.49214	0.44658
2171.56357	0.44795
2169.63501	0.44922
2167.70645	0.45057
2165.77788	0.45197
2163.84932	0.45329
2161.92075	0.45451
2159.99219	0.45564
2158.06362	0.45666
2156.13506	0.45750
2154.20649	0.45823
2152.27793	0.45908
2150.34937	0.45998
2148.42080	0.46076
2146.49224	0.46140
2144.56367	0.46181
2142.63511	0.46204
2140.70654	0.46230
2138.77798	0.46260
2136.84941	0.46290
2134.92085	0.46312
2132.99229	0.46310
2131.06372	0.46294
2129.13516	0.46279
2127.20659	0.46263
2125.27803	0.46237
2123.34946	0.46197
2121.42090	0.46144
2119.49233	0.46089
2117.56377	0.46040
2115.63521	0.45985
2113.70664	0.45907
2111.77808	0.45806
2109.84951	0.45689
2107.92095	0.45574
2105.99238	0.45472
2104.06382	0.45367
2102.13525	0.45246
2100.20669	0.45111
2098.27812	0.44965
2096.34956	0.44811
2094.42100	0.44655
2092.49243	0.44503
2090.56387	0.44346
2088.63530	0.44167
2086.70674	0.43974
2084.77817	0.43780
2082.84961	0.43588
2080.92104	0.43394
2078.99248	0.43192
2077.06392	0.42978
2075.13535	0.42764
2073.20679	0.42556
2071.27822	0.42340
2069.34966	0.42109
2067.42109	0.41876
2065.49253	0.41640
2063.56396	0.41389
2061.63540	0.41137
2059.70684	0.40896
2057.77827	0.40650
2055.84971	0.40389
2053.92114	0.40123
2051.99258	0.39857
2050.06401	0.39590
2048.13545	0.39327
2046.20688	0.39067
2044.27832	0.38809
2042.34976	0.38548
2040.42119	0.38273
2038.49263	0.37993
2036.56406	0.37716
2034.63550	0.37433
2032.70693	0.37143
2030.77837	0.36859
2028.84980	0.36579
2026.92124	0.36293
2024.99268	0.36005
2023.06411	0.35722
2021.13555	0.35451
2019.20698	0.35191
2017.27842	0.34928
2015.34985	0.34645
2013.42129	0.34348
2011.49272	0.34055
2009.56416	0.33784
2007.63560	0.33518
2005.70703	0.33244
2003.77847	0.32969
2001.84990	0.32707
1999.92134	0.32455
1997.99277	0.32189
1996.06421	0.31911
1994.13564	0.31657
1992.20708	0.31426
1990.27852	0.31179
1988.34995	0.30912
1986.42139	0.30643
1984.49282	0.30387
1982.56426	0.30147
1980.63569	0.29909
1978.70713	0.29668
1976.77856	0.29434
1974.85000	0.29210
1972.92144	0.28995
1970.99287	0.28791
1969.06431	0.28599
1967.13574	0.28404
1965.20718	0.28188
1963.27861	0.27973
1961.35005	0.27773
1959.42148	0.27578
1957.49292	0.27390
1955.56436	0.27208
1953.63579	0.27027
1951.70723	0.26846
1949.77866	0.26672
1947.85010	0.26511
1945.92153	0.26373
1943.99297	0.26257
1942.06440	0.26126
1940.13584	0.25953
1938.20728	0.25786
1936.27871	0.25647
1934.35015	0.25516
1932.42158	0.25385
1930.49302	0.25254
1928.56445	0.25130
1926.63589	0.25020
1924.70732	0.24938
1922.77876	0.24875
1920.85020	0.24790
1918.92163	0.24690
1916.99307	0.24583
1915.06450	0.24457
1913.13594	0.24349
1911.20737	0.24294
1909.27881	0.24257
1907.35024	0.24187
1905.42168	0.24094
1903.49312	0.24016
1901.56455	0.23956
1899.63599	0.23904
1897.70742	0.23870
1895.77886	0.23849
1893.85029	0.23816
1891.92173	0.23772
1889.99316	0.23759
1888.06460	0.23742
1886.13604	0.23693
1884.20747	0.23651
1882.27891	0.23629
1880.35034	0.23616
1878.42178	0.23608
1876.49321	0.23602
1874.56465	0.23598
1872.63608	0.23617
1870.70752	0.23686
1868.77896	0.23793
1866.85039	0.23830
1864.92183	0.23782
1862.99326	0.23754
1861.06470	0.23767
1859.13613	0.23794
1857.20757	0.23816
1855.27900	0.23845
1853.35044	0.23886
1851.42187	0.23943
1849.49331	0.24023
1847.56475	0.24127
1845.63618	0.24257
1843.70762	0.24389
1841.77905	0.24438
1839.85049	0.24436
1837.92192	0.24490
1835.99336	0.24575
1834.06479	0.24667
1832.13623	0.24793
1830.20767	0.24983
1828.27910	0.25153
1826.35054	0.25254
1824.42197	0.25361
1822.49341	0.25450
1820.56484	0.25542
1818.63628	0.25673
1816.70771	0.25842
1814.77915	0.26020
1812.85059	0.26222
1810.92202	0.26444
1808.99346	0.26638
1807.06489	0.26814
1805.13633	0.27007
1803.20776	0.27246
1801.27920	0.27523
1799.35063	0.27814
1797.42207	0.28062
1795.49351	0.28306
1793.56494	0.28620
1791.63638	0.29007
1789.70781	0.29319
1787.77925	0.29534
1785.85068	0.29832
1783.92212	0.30213
1781.99355	0.30626
1780.06499	0.31056
1778.13643	0.31490
1776.20786	0.31917
1774.27930	0.32403
1772.35073	0.33042
1770.42217	0.33668
1768.49360	0.34155
1766.56504	0.34629
1764.63647	0.35135
1762.70791	0.35727
1760.77935	0.36484
1758.85078	0.37194
1756.92222	0.37906
1754.99365	0.38682
1753.06509	0.39412
1751.13652	0.40300
1749.20796	0.41377
1747.27939	0.42385
1745.35083	0.43266
1743.42227	0.44204
1741.49370	0.45241
1739.56514	0.46461
1737.63657	0.47697
1735.70801	0.48845
1733.77944	0.50555
1731.85088	0.52489
1729.92231	0.53983
1727.99375	0.55511
1726.06519	0.57200
1724.13662	0.59074
1722.20806	0.61105
1720.27949	0.63042
1718.35093	0.65352
1716.42236	0.68595
1714.49380	0.71587
1712.56523	0.74033
1710.63667	0.76462
1708.70811	0.79131
1706.77954	0.82175
1704.85098	0.85713
1702.92241	0.88865
1700.99385	0.92080
1699.06528	0.96803
1697.13672	1.01071
1695.20815	1.05432
1693.27959	1.09837
1691.35103	1.13511
1689.42246	1.17721
1687.49390	1.22145
1685.56533	1.26498
1683.63677	1.33073
1681.70820	1.39817
1679.77964	1.44195
1677.85107	1.48407
1675.92251	1.53340
1673.99395	1.59406
1672.06538	1.64801
1670.13682	1.70103
1668.20825	1.76942
1666.27969	1.82601
1664.35112	1.87511
1662.42256	1.93713
1660.49399	2.00783
1658.56543	2.06470
1656.63687	2.11159
1654.70830	2.15438
1652.77974	2.21468
1650.85117	2.27050
1648.92261	2.29211
1646.99404	2.31658
1645.06548	2.33990
1643.13691	2.35605
1641.20835	2.36596
1639.27979	2.37411
1637.35122	2.37709
1635.42266	2.37386
1633.49409	2.36580
1631.56553	2.35168
1629.63696	2.33437
1627.70840	2.30641
1625.77983	2.27211
1623.85127	2.22643
1621.92271	2.17058
1619.99414	2.12119
1618.06558	2.07391
1616.13701	2.00847
1614.20845	1.94163
1612.27988	1.89013
1610.35132	1.83684
1608.42275	1.77936
1606.49419	1.72278
1604.56562	1.67074
1602.63706	1.62086
1600.70850	1.57256
1598.77993	1.52830
1596.85137	1.48697
1594.92280	1.44680
1592.99424	1.40769
1591.06567	1.37190
1589.13711	1.33889
1587.20854	1.30846
1585.27998	1.28050
1583.35142	1.25481
1581.42285	1.23171
1579.49429	1.21236
1577.56572	1.19574
1575.63716	1.17610
1573.70859	1.15835
1571.78003	1.14703
1569.85146	1.13654
1567.92290	1.12525
1565.99434	1.11703
1564.06577	1.11190
1562.13721	1.10912
1560.20864	1.10962
1558.28008	1.11401
1556.35151	1.11689
1554.42295	1.11811
1552.49438	1.11978
1550.56582	1.11996
1548.63726	1.11722
1546.70869	1.11176
1544.78013	1.10374
1542.85156	1.09256
1540.92300	1.07444
1538.99443	1.04429
1537.06587	1.02050
1535.13730	1.00472
1533.20874	0.98531
1531.28018	0.96402
1529.35161	0.94763
1527.42305	0.93265
1525.49448	0.91769
1523.56592	0.90508
1521.63735	0.89346
1519.70879	0.88144
1517.78022	0.87075
1515.85166	0.85828
1513.92310	0.84470
1511.99453	0.83293
1510.06597	0.82313
1508.13740	0.81447
1506.20884	0.80003
1504.28027	0.78500
1502.35171	0.77625
1500.42314	0.76960
1498.49458	0.76306
1496.56602	0.75531
1494.63745	0.74708
1492.70889	0.74069
1490.78032	0.73573
1488.85176	0.73030
1486.92319	0.72435
1484.99463	0.71920
1483.06606	0.71543
1481.13750	0.71270
1479.20894	0.71074
1477.28037	0.70998
1475.35181	0.71040
1473.42324	0.71111
1471.49468	0.71035
1469.56611	0.70781
1467.63755	0.70515
1465.70898	0.70320
1463.78042	0.70172
1461.85186	0.70075
1459.92329	0.70091
1457.99473	0.70197
1456.06616	0.70159
1454.13760	0.69878
1452.20903	0.69573
1450.28047	0.69286
1448.35190	0.69016
1446.42334	0.68722
1444.49478	0.68417
1442.56621	0.68136
1440.63765	0.67874
1438.70908	0.67632
1436.78052	0.67327
1434.85195	0.66927
1432.92339	0.66593
1430.99482	0.66386
1429.06626	0.66271
1427.13770	0.66228
1425.20913	0.66270
1423.28057	0.66376
1421.35200	0.66484
1419.42344	0.66587
1417.49487	0.66579
1415.56631	0.66427
1413.63774	0.66315
1411.70918	0.66306
1409.78062	0.66381
1407.85205	0.66514
1405.92349	0.66693
1403.99492	0.66855
1402.06636	0.66907
1400.13779	0.66875
1398.20923	0.66758
1396.28066	0.66508
1394.35210	0.66113
1392.42354	0.65633
1390.49497	0.65185
1388.56641	0.64770
1386.63784	0.64284
1384.70928	0.63721
1382.78071	0.63176
1380.85215	0.62687
1378.92358	0.62281
1376.99502	0.61984
1375.06646	0.61797
1373.13789	0.61661
1371.20933	0.61544
1369.28076	0.61448
1367.35220	0.61328
1365.42363	0.61180
1363.49507	0.61052
1361.56650	0.60918
1359.63794	0.60748
1357.70937	0.60587
1355.78081	0.60455
1353.85225	0.60344
1351.92368	0.60259
1349.99512	0.60198
1348.06655	0.60130
1346.13799	0.60032
1344.20942	0.59940
1342.28086	0.59888
1340.35229	0.59873
1338.42373	0.59833
1336.49517	0.59737
1334.56660	0.59654
1332.63804	0.59627
1330.70947	0.59643
1328.78091	0.59685
1326.85234	0.59746
1324.92378	0.59817
1322.99521	0.59890
1321.06665	0.59970
1319.13809	0.60049
1317.20952	0.60092
1315.28096	0.60096
1313.35239	0.60071
1311.42383	0.60006
1309.49526	0.59920
1307.56670	0.59851
1305.63813	0.59803
1303.70957	0.59748
1301.78101	0.59677
1299.85244	0.59588
1297.92388	0.59470
1295.99531	0.59337
1294.06675	0.59204
1292.13818	0.59062
1290.20962	0.58926
1288.28105	0.58809
1286.35249	0.58690
1284.42393	0.58561
1282.49536	0.58429
1280.56680	0.58289
1278.63823	0.58151
1276.70967	0.58028
1274.78110	0.57919
1272.85254	0.57818
1270.92397	0.57730
1268.99541	0.57650
1267.06685	0.57566
1265.13828	0.57483
1263.20972	0.57404
1261.28115	0.57321
1259.35259	0.57246
1257.42402	0.57193
1255.49546	0.57163
1253.56689	0.57145
1251.63833	0.57132
1249.70977	0.57148
1247.78120	0.57181
1245.85264	0.57190
1243.92407	0.57146
1241.99551	0.57056
1240.06694	0.56929
1238.13838	0.56755
1236.20981	0.56540
1234.28125	0.56315
1232.35269	0.56094
1230.42412	0.55877
1228.49556	0.55668
1226.56699	0.55458
1224.63843	0.55246
1222.70986	0.55052
1220.78130	0.54891
1218.85273	0.54756
1216.92417	0.54625
1214.99561	0.54498
1213.06704	0.54400
1211.13848	0.54339
1209.20991	0.54288
1207.28135	0.54214
1205.35278	0.54114
1203.42422	0.54013
1201.49565	0.53917
1199.56709	0.53812
1197.63853	0.53718
1195.70996	0.53652
1193.78140	0.53600
1191.85283	0.53554
1189.92427	0.53520
1187.99570	0.53500
1186.06714	0.53488
1184.13857	0.53483
1182.21001	0.53508
1180.28145	0.53585
1178.35288	0.53721
1176.42432	0.53881
1174.49575	0.54006
1172.56719	0.54071
1170.63862	0.54094
1168.71006	0.54086
1166.78149	0.54048
1164.85293	0.54007
1162.92437	0.53985
1160.99580	0.53964
1159.06724	0.53918
1157.13867	0.53841
1155.21011	0.53740
1153.28154	0.53606
1151.35298	0.53422
1149.42441	0.53199
1147.49585	0.52952
1145.56729	0.52690
1143.63872	0.52423
1141.71016	0.52161
1139.78159	0.51934
1137.85303	0.51763
1135.92446	0.51633
1133.99590	0.51551
1132.06733	0.51525
1130.13877	0.51507
1128.21021	0.51443
1126.28164	0.51351
1124.35308	0.51270
1122.42451	0.51197
1120.49595	0.51141
1118.56738	0.51125
1116.63882	0.51139
1114.71025	0.51154
1112.78169	0.51167
1110.85312	0.51199
1108.92456	0.51274
1106.99600	0.51388
1105.06743	0.51510
1103.13887	0.51628
1101.21030	0.51763
1099.28174	0.51939
1097.35317	0.52169
1095.42461	0.52463
1093.49604	0.52825
1091.56748	0.53250
1089.63892	0.53744
1087.71035	0.54328
1085.78179	0.55003
1083.85322	0.55712
1081.92466	0.56368
1079.99609	0.56890
1078.06753	0.57182
1076.13896	0.57183
1074.21040	0.56922
1072.28184	0.56462
1070.35327	0.55841
1068.42471	0.55136
1066.49614	0.54452
1064.56758	0.53819
1062.63901	0.53233
1060.71045	0.52724
1058.78188	0.52309
1056.85332	0.51942
1054.92476	0.51592
1052.99619	0.51266
1051.06763	0.50984
1049.13906	0.50750
1047.21050	0.50547
1045.28193	0.50374
1043.35337	0.50253
1041.42480	0.50192
1039.49624	0.50155
1037.56768	0.50111
1035.63911	0.50064
1033.71055	0.50025
1031.78198	0.49981
1029.85342	0.49926
1027.92485	0.49851
1025.99629	0.49772
1024.06772	0.49728
1022.13916	0.49726
1020.21060	0.49742
1018.28203	0.49766
1016.35347	0.49797
1014.42490	0.49832
1012.49634	0.49885
1010.56777	0.49966
1008.63921	0.50058
1006.71064	0.50166
1004.78208	0.50329
1002.85352	0.50543
1000.92495	0.50799
998.99639	0.51129
997.06782	0.51527
995.13926	0.51942
993.21069	0.52339
991.28213	0.52681
989.35356	0.52921
987.42500	0.53058
985.49644	0.53133
983.56787	0.53192
981.63931	0.53258
979.71074	0.53350
977.78218	0.53481
975.85361	0.53670
973.92505	0.53937
971.99648	0.54259
970.06792	0.54607
968.13936	0.54997
966.21079	0.55431
964.28223	0.55874
962.35366	0.56323
960.42510	0.56815
958.49653	0.57357
956.56797	0.57925
954.63940	0.58517
952.71084	0.59144
950.78228	0.59788
948.85371	0.60435
946.92515	0.61080
944.99658	0.61723
943.06802	0.62367
941.13945	0.63021
939.21089	0.63668
937.28232	0.64269
935.35376	0.64830
933.42520	0.65390
931.49663	0.65955
929.56807	0.66504
927.63950	0.67045
925.71094	0.67617
923.78237	0.68253
921.85381	0.68931
919.92524	0.69620
917.99668	0.70356
916.06812	0.71159
914.13955	0.71954
912.21099	0.72692
910.28242	0.73413
908.35386	0.74193
906.42529	0.75067
904.49673	0.75984
902.56816	0.76885
900.63960	0.77780
898.71104	0.78703
896.78247	0.79692
894.85391	0.80714
892.92534	0.81722
890.99678	0.82744
889.06821	0.83791
887.13965	0.84926
885.21108	0.86188
883.28252	0.87434
881.35396	0.88564
879.42539	0.89669
877.49683	0.90803
875.56826	0.91935
873.63970	0.93092
871.71113	0.94342
869.78257	0.95610
867.85400	0.96689
865.92544	0.97676
863.99687	0.98773
862.06831	0.99891
860.13975	1.01038
858.21118	1.02367
856.28262	1.03779
854.35405	1.05106
852.42549	1.06277
850.49692	1.07320
848.56836	1.08345
846.63979	1.09454
844.71123	1.10765
842.78267	1.12059
840.85410	1.13113
838.92554	1.14356
836.99697	1.16053
835.06841	1.17665
833.13984	1.18714
831.21128	1.19514
829.28271	1.20622
827.35415	1.22076
825.42559	1.23340
823.49702	1.24024
821.56846	1.24601
819.63989	1.25774
817.71133	1.27348
815.78276	1.28857
813.85420	1.29877
811.92563	1.30144
809.99707	1.30784
808.06851	1.32824
806.13994	1.35457
804.21138	1.36902
802.28281	1.36521
800.35425	1.35762
798.42568	1.37003
796.49712	1.39929
794.56855	1.40787
792.63999	1.39339
790.71143	1.38881
788.78286	1.40791
786.85430	1.44544
784.92573	1.50705
782.99717	1.59355
781.06860	1.69544
779.14004	1.77016
777.21147	1.76386
775.28291	1.82912
773.35435	1.90268
771.42578	1.68545
769.49722	1.49258
767.56865	1.47358
765.64009	1.66748
763.71152	2.21273
761.78296	2.47214
759.85439	1.80953
757.92583	1.49645
755.99727	1.34813
754.06870	1.30646
752.14014	1.32147
750.21157	1.39829
748.28301	1.42170
746.35444	1.31263
744.42588	1.25516
742.49731	1.28101
740.56875	1.30704
738.64019	1.36646
736.71162	1.47067
734.78306	1.68275
732.85449	4.39713
730.92593	1.30251
728.99736	0.78058
727.06880	0.65107
725.14023	0.73989
723.21167	0.72633
721.28311	0.28899
719.35454	0.08178
717.42598	0.09975
715.49741	0.18823
713.56885	0.25013
711.64028	0.28934
709.71172	0.35941
707.78315	1.15216
705.85459	4.23513
703.92603	4.22356
701.99746	0.48788
700.06890	0.39210
698.14033	0.42815
696.21177	0.47442
694.28320	0.68058
692.35464	4.15413
690.42607	4.14256
688.49751	4.13099
686.56895	4.11941
684.64038	1.23718
682.71182	0.96794
680.78325	0.74352
678.85469	0.67353
676.92612	0.86336
674.99756	0.75535
673.06899	0.48857
671.14043	0.38345
669.21187	0.40641
667.28330	0.52317
665.35474	0.66206
663.42617	0.59883
661.49761	0.46956
659.56904	0.38697
657.64048	0.38362
655.71191	0.50338
653.78335	0.70183
651.85479	0.71672
649.92622	0.50385
647.99766	0.35221
646.06909	0.32705
644.14053	0.37592
642.21196	0.40643
640.28340	0.39969
638.35483	0.41712
636.42627	0.49469
634.49771	0.59539
632.56914	0.63624
630.64058	0.65128
628.71201	0.75702
626.78345	1.17203
624.85488	3.74913
622.92632	0.72117
620.99775	0.42534
619.06919	0.35380
617.14062	0.43697
615.21206	0.55954
613.28350	0.50397
611.35493	0.40482
609.42637	0.38132
607.49780	0.44064
605.56924	0.58448
603.64067	0.64245
601.71211	0.48277
599.78354	0.39092
597.85498	0.38618
595.92642	0.47251
593.99785	0.85423
592.06929	1.23941
590.14072	0.70712
588.21216	0.60756
586.28359	0.45797
584.35503	0.33955
582.42646	0.35565
580.49790	0.40069
578.56934	0.35814
576.64077	0.29763
574.71221	0.28622
572.78364	0.29912
570.85508	0.35857
568.92651	0.50421
566.99795	0.61199
565.06938	0.50730
563.14082	0.42399
561.21226	0.39097
559.28369	0.34034
557.35513	0.32409
555.42656	0.37805
553.49800	0.40085
551.56943	0.32339
549.64087	0.26500
547.71230	0.27386
545.78374	0.32432
543.85518	0.40020
541.92661	0.42849
539.99805	0.37522
538.06948	0.37442
536.14092	0.43378
534.21235	0.46037
532.28379	0.39732
530.35522	0.28428
528.42666	0.23870
526.49810	0.30939
524.56953	0.40271
522.64097	0.34633
520.71240	0.25758
518.78384	0.23158
516.85527	0.23508
514.92671	0.22302
512.99814	0.19761
511.06958	0.18897
509.14102	0.22342
507.21245	0.30347
505.28389	0.31514
503.35532	0.26112
501.42676	0.23545
499.49819	0.24727
