3997.91411	0.07003
3995.98555	0.07095
3994.05698	0.07213
3992.12842	0.07297
3990.19985	0.07336
3988.27129	0.07318
3986.34272	0.07286
3984.41416	0.07297
3982.48560	0.07331
3980.55703	0.07348
3978.62847	0.07365
3976.69990	0.07436
3974.77134	0.07544
3972.84277	0.07613
3970.91421	0.07631
3968.98564	0.07630
3967.05708	0.07601
3965.12852	0.07557
3963.19995	0.07583
3961.27139	0.07657
3959.34282	0.07668
3957.41426	0.07649
3955.48569	0.07674
3953.55713	0.07714
3951.62856	0.07837
3949.70000	0.08109
3947.77144	0.08303
3945.84287	0.08234
3943.91431	0.08173
3941.98574	0.08208
3940.05718	0.08049
3938.12861	0.07790
3936.20005	0.07703
3934.27148	0.07856
3932.34292	0.08185
3930.41436	0.08383
3928.48579	0.08237
3926.55723	0.08101
3924.62866	0.08254
3922.70010	0.08373
3920.77153	0.08259
3918.84297	0.08252
3916.91440	0.08405
3914.98584	0.08296
3913.05728	0.07895
3911.12871	0.07605
3909.20015	0.07578
3907.27158	0.07864
3905.34302	0.08581
3903.41445	0.09501
3901.48589	0.09988
3899.55732	0.09836
3897.62876	0.09211
3895.70020	0.08528
3893.77163	0.08373
3891.84307	0.08765
3889.91450	0.08960
3887.98594	0.08744
3886.05737	0.08830
3884.12881	0.09155
3882.20024	0.09270
3880.27168	0.09295
3878.34312	0.08982
3876.41455	0.08584
3874.48599	0.08801
3872.55742	0.09434
3870.62886	0.09966
3868.70029	0.10100
3866.77173	0.09814
3864.84316	0.09764
3862.91460	0.09860
3860.98604	0.09463
3859.05747	0.09023
3857.12891	0.09188
3855.20034	0.10042
3853.27178	0.11343
3851.34321	0.11498
3849.41465	0.10197
3847.48608	0.09184
3845.55752	0.08914
3843.62896	0.09345
3841.70039	0.10176
3839.77183	0.11026
3837.84326	0.11545
3835.91470	0.11335
3833.98613	0.10777
3832.05757	0.10376
3830.12900	0.10073
3828.20044	0.09923
3826.27187	0.10054
3824.34331	0.10340
3822.41475	0.10925
3820.48618	0.11826
3818.55762	0.12049
3816.62905	0.11716
3814.70049	0.11271
3812.77192	0.10551
3810.84336	0.10097
3808.91479	0.10281
3806.98623	0.10976
3805.05767	0.11599
3803.12910	0.12041
3801.20054	0.12639
3799.27197	0.12732
3797.34341	0.12282
3795.41484	0.11872
3793.48628	0.11391
3791.55771	0.11017
3789.62915	0.10977
3787.70059	0.11206
3785.77202	0.11627
3783.84346	0.12021
3781.91489	0.12226
3779.98633	0.12505
3778.05776	0.12743
3776.12920	0.12574
3774.20063	0.12409
3772.27207	0.12678
3770.34351	0.13351
3768.41494	0.13945
3766.48638	0.14113
3764.55781	0.14123
3762.62925	0.14157
3760.70068	0.14507
3758.77212	0.15226
3756.84355	0.15717
3754.91499	0.15955
3752.98643	0.16675
3751.05786	0.18103
3749.12930	0.19117
3747.20073	0.18987
3745.27217	0.18893
3743.34360	0.19067
3741.41504	0.18998
3739.48647	0.19025
3737.55791	0.19676
3735.62935	0.21071
3733.70078	0.22209
3731.77222	0.21973
3729.84365	0.21314
3727.91509	0.21252
3725.98652	0.21907
3724.05796	0.22796
3722.12939	0.23463
3720.20083	0.23905
3718.27227	0.24218
3716.34370	0.24620
3714.41514	0.25451
3712.48657	0.27078
3710.55801	0.29243
3708.62944	0.30511
3706.70088	0.30857
3704.77231	0.31452
3702.84375	0.32748
3700.91519	0.34574
3698.98662	0.36293
3697.05806	0.37886
3695.12949	0.39829
3693.20093	0.42156
3691.27236	0.45014
3689.34380	0.48594
3687.41523	0.51901
3685.48667	0.54047
3683.55811	0.56059
3681.62954	0.58796
3679.70098	0.62344
3677.77241	0.66418
3675.84385	0.71308
3673.91528	0.76941
3671.98672	0.80948
3670.05815	0.84758
3668.12959	0.89723
3666.20103	0.93689
3664.27246	0.97182
3662.34390	1.01436
3660.41533	1.06250
3658.48677	1.11125
3656.55820	1.16472
3654.62964	1.22328
3652.70107	1.27279
3650.77251	1.32195
3648.84395	1.39083
3646.91538	1.45888
3644.98682	1.49661
3643.05825	1.52663
3641.12969	1.56325
3639.20112	1.60654
3637.27256	1.65150
3635.34399	1.69638
3633.41543	1.74234
3631.48687	1.78740
3629.55830	1.83526
3627.62974	1.89232
3625.70117	1.93717
3623.77261	1.96633
3621.84404	1.99970
3619.91548	2.04282
3617.98691	2.09312
3616.05835	2.13741
3614.12979	2.17430
3612.20122	2.21239
3610.27266	2.24838
3608.34409	2.28605
3606.41553	2.32756
3604.48696	2.36434
3602.55840	2.39822
3600.62983	2.43833
3598.70127	2.48229
3596.77271	2.52344
3594.84414	2.56428
3592.91558	2.60568
3590.98701	2.64373
3589.05845	2.68255
3587.12988	2.73315
3585.20132	2.78238
3583.27275	2.81616
3581.34419	2.84878
3579.41562	2.88835
3577.48706	2.93128
3575.55850	2.97366
3573.62993	3.01613
3571.70137	3.05778
3569.77280	3.10091
3567.84424	3.15243
3565.91567	3.21292
3563.98711	3.26127
3562.05854	3.29608
3560.12998	3.33400
3558.20142	3.37628
3556.27285	3.41953
3554.34429	3.46447
3552.41572	3.51288
3550.48716	3.56017
3548.55859	3.60367
3546.63003	3.64785
3544.70146	3.69720
3542.77290	3.74737
3540.84434	3.79289
3538.91577	3.83837
3536.98721	3.88765
3535.05864	3.93850
3533.13008	3.98502
3531.20151	4.02995
3529.27295	4.08010
3527.34438	4.13302
3525.41582	4.18026
3523.48726	4.22466
3521.55869	4.27384
3519.63013	4.32411
3517.70156	4.37152
3515.77300	4.41727
3513.84443	4.46550
3511.91587	4.51618
3509.98730	4.56877
3508.05874	4.62231
3506.13018	4.67022
3504.20161	4.71610
3502.27305	4.76628
3500.34448	4.81607
3498.41592	4.86404
3496.48735	4.91298
3494.55879	4.96191
3492.63022	5.01179
3490.70166	5.06359
3488.77310	5.11700
3486.84453	5.16697
3484.91597	5.21054
3482.98740	5.25654
3481.05884	5.30707
3479.13027	5.35586
3477.20171	5.40735
3475.27314	5.46674
3473.34458	5.52512
3471.41602	5.56886
3469.48745	5.59752
3467.55889	5.62841
3465.63032	5.67715
3463.70176	5.73978
3461.77319	5.80179
3459.84463	5.85811
3457.91606	5.90955
3455.98750	5.95577
3454.05894	5.99477
3452.13037	6.02926
3450.20181	6.06718
3448.27324	6.12129
3446.34468	6.20005
3444.41611	6.27814
3442.48755	6.33352
3440.55898	6.37233
3438.63042	6.40995
3436.70186	6.46041
3434.77329	6.53429
3432.84473	6.62594
3430.91616	6.69603
3428.98760	6.72540
3427.05903	6.74302
3425.13047	6.78087
3423.20190	6.83113
3421.27334	6.87775
3419.34478	6.92584
3417.41621	7.00198
3415.48765	7.09059
3413.55908	7.13307
3411.63052	7.15225
3409.70195	7.19506
3407.77339	7.24654
3405.84482	7.25683
3403.91626	7.24011
3401.98770	7.25623
3400.05913	7.33060
3398.13057	7.42167
3396.20200	7.47784
3394.27344	7.54503
3392.34487	7.64547
3390.41631	7.72920
3388.48774	7.75321
3386.55918	7.73536
3384.63062	7.70756
3382.70205	7.69505
3380.77349	7.72818
3378.84492	7.81258
3376.91636	7.91287
3374.98779	7.98222
3373.05923	8.01968
3371.13066	8.00763
3369.20210	7.99631
3367.27354	8.01842
3365.34497	8.01841
3363.41641	7.98607
3361.48784	7.94424
3359.55928	7.92741
3357.63071	7.98083
3355.70215	8.07662
3353.77358	8.09523
3351.84502	8.05941
3349.91646	8.04377
3347.98789	8.07220
3346.05933	8.16214
3344.13076	8.25480
3342.20220	8.25865
3340.27363	8.20381
3338.34507	8.21685
3336.41650	8.28421
3334.48794	8.35696
3332.55937	8.43416
3330.63081	8.49792
3328.70225	8.50371
3326.77368	8.42864
3324.84512	8.31888
3322.91655	8.21053
3320.98799	8.16242
3319.05942	8.19765
3317.13086	8.29061
3315.20229	8.39297
3313.27373	8.44254
3311.34517	8.39644
3309.41660	8.31961
3307.48804	8.31324
3305.55947	8.36938
3303.63091	8.40743
3301.70234	8.41345
3299.77378	8.46480
3297.84521	8.51286
3295.91665	8.51085
3293.98809	8.52486
3292.05952	8.59371
3290.13096	8.65445
3288.20239	8.58667
3286.27383	8.49466
3284.34526	8.51289
3282.41670	8.55620
3280.48813	8.52722
3278.55957	8.49844
3276.63101	8.50992
3274.70244	8.53993
3272.77388	8.54006
3270.84531	8.49335
3268.91675	8.45509
3266.98818	8.44095
3265.05962	8.46090
3263.13105	8.50583
3261.20249	8.57262
3259.27393	8.62429
3257.34536	8.55942
3255.41680	8.41060
3253.48823	8.34831
3251.55967	8.38790
3249.63110	8.41152
3247.70254	8.43644
3245.77397	8.43069
3243.84541	8.33506
3241.91685	8.30742
3239.98828	8.36182
3238.05972	8.29666
3236.13115	8.21327
3234.20259	8.30263
3232.27402	8.41824
3230.34546	8.40706
3228.41689	8.42131
3226.48833	8.50285
3224.55977	8.51593
3222.63120	8.46030
3220.70264	8.37555
3218.77407	8.29565
3216.84551	8.26030
3214.91694	8.25615
3212.98838	8.28167
3211.05981	8.31372
3209.13125	8.29469
3207.20269	8.22304
3205.27412	8.18041
3203.34556	8.17496
3201.41699	8.10966
3199.48843	7.99109
3197.55986	7.91237
3195.63130	7.88792
3193.70273	7.85626
3191.77417	7.77679
3189.84561	7.70307
3187.91704	7.69427
3185.98848	7.71810
3184.05991	7.69698
3182.13135	7.60834
3180.20278	7.51081
3178.27422	7.45724
3176.34565	7.42359
3174.41709	7.34491
3172.48853	7.24549
3170.55996	7.18370
3168.63140	7.14411
3166.70283	7.09927
3164.77427	7.04565
3162.84570	6.99259
3160.91714	6.94033
3158.98857	6.86943
3157.06001	6.77218
3155.13145	6.67773
3153.20288	6.61608
3151.27432	6.56934
3149.34575	6.51147
3147.41719	6.44586
3145.48862	6.36975
3143.56006	6.28673
3141.63149	6.21012
3139.70293	6.12442
3137.77437	6.03572
3135.84580	5.97253
3133.91724	5.91526
3131.98867	5.83501
3130.06011	5.74880
3128.13154	5.67164
3126.20298	5.59430
3124.27441	5.51911
3122.34585	5.45041
3120.41729	5.38198
3118.48872	5.31373
3116.56016	5.24718
3114.63159	5.17644
3112.70303	5.09861
3110.77446	5.02147
3108.84590	4.95390
3106.91733	4.89194
3104.98877	4.82596
3103.06021	4.75435
3101.13164	4.67835
3099.20308	4.60404
3097.27451	4.53813
3095.34595	4.47680
3093.41738	4.41183
3091.48882	4.34047
3089.56025	4.26873
3087.63169	4.20188
3085.70312	4.13845
3083.77456	4.07613
3081.84600	4.01463
3079.91743	3.95296
3077.98887	3.88937
3076.06030	3.82430
3074.13174	3.76085
3072.20317	3.70054
3070.27461	3.64181
3068.34604	3.58395
3066.41748	3.52658
3064.48892	3.46860
3062.56035	3.40972
3060.63179	3.35134
3058.70322	3.29500
3056.77466	3.24092
3054.84609	3.18852
3052.91753	3.13588
3050.98896	3.08251
3049.06040	3.03032
3047.13184	2.97935
3045.20327	2.92803
3043.27471	2.87721
3041.34614	2.82828
3039.41758	2.78036
3037.48901	2.73255
3035.56045	2.68482
3033.63188	2.63829
3031.70332	2.59398
3029.77476	2.55040
3027.84619	2.50590
3025.91763	2.46096
3023.98906	2.41662
3022.06050	2.37373
3020.13193	2.33200
3018.20337	2.29072
3016.27480	2.25067
3014.34624	2.21170
3012.41768	2.17229
3010.48911	2.13296
3008.56055	2.09498
3006.63198	2.05762
3004.70342	2.02044
3002.77485	1.98437
3000.84629	1.94936
2998.91772	1.91467
2996.98916	1.88039
2995.06060	1.84680
2993.13203	1.81395
2991.20347	1.78198
2989.27490	1.75038
2987.34634	1.71857
2985.41777	1.68692
2983.48921	1.65584
2981.56064	1.62553
2979.63208	1.59611
2977.70352	1.56719
2975.77495	1.53834
2973.84639	1.50958
2971.91782	1.48118
2969.98926	1.45344
2968.06069	1.42617
2966.13213	1.39932
2964.20356	1.37325
2962.27500	1.34766
2960.34644	1.32225
2958.41787	1.29729
2956.48931	1.27291
2954.56074	1.24909
2952.63218	1.22574
2950.70361	1.20287
2948.77505	1.18080
2946.84648	1.15933
2944.91792	1.13780
2942.98936	1.11633
2941.06079	1.09537
2939.13223	1.07462
2937.20366	1.05362
2935.27510	1.03248
2933.34653	1.01209
2931.41797	0.99322
2929.48940	0.97514
2927.56084	0.95697
2925.63228	0.93881
2923.70371	0.92092
2921.77515	0.90355
2919.84658	0.88682
2917.91802	0.87073
2915.98945	0.85516
2914.06089	0.83995
2912.13232	0.82556
2910.20376	0.81192
2908.27520	0.79800
2906.34663	0.78390
2904.41807	0.77066
2902.48950	0.75820
2900.56094	0.74564
2898.63237	0.73286
2896.70381	0.72038
2894.77524	0.70812
2892.84668	0.69589
2890.91812	0.68418
2888.98955	0.67287
2887.06099	0.66158
2885.13242	0.65058
2883.20386	0.63979
2881.27529	0.62891
2879.34673	0.61807
2877.41816	0.60740
2875.48960	0.59698
2873.56104	0.58670
2871.63247	0.57646
2869.70391	0.56628
2867.77534	0.55626
2865.84678	0.54649
2863.91821	0.53674
2861.98965	0.52691
2860.06108	0.51736
2858.13252	0.50829
2856.20396	0.49946
2854.27539	0.49070
2852.34683	0.48219
2850.41826	0.47414
2848.48970	0.46623
2846.56113	0.45838
2844.63257	0.45128
2842.70400	0.44536
2840.77544	0.44009
2838.84687	0.43468
2836.91831	0.42897
2834.98975	0.42325
2833.06118	0.41765
2831.13262	0.41196
2829.20405	0.40614
2827.27549	0.40020
2825.34692	0.39432
2823.41836	0.38876
2821.48979	0.38327
2819.56123	0.37752
2817.63267	0.37175
2815.70410	0.36629
2813.77554	0.36102
2811.84697	0.35580
2809.91841	0.35071
2807.98984	0.34563
2806.06128	0.34044
2804.13271	0.33529
2802.20415	0.33033
2800.27559	0.32558
2798.34702	0.32110
2796.41846	0.31681
2794.48989	0.31237
2792.56133	0.30782
2790.63276	0.30349
2788.70420	0.29928
2786.77563	0.29502
2784.84707	0.29083
2782.91851	0.28681
2780.98994	0.28300
2779.06138	0.27945
2777.13281	0.27603
2775.20425	0.27256
2773.27568	0.26886
2771.34712	0.26509
2769.41855	0.26155
2767.48999	0.25829
2765.56143	0.25521
2763.63286	0.25215
2761.70430	0.24902
2759.77573	0.24582
2757.84717	0.24272
2755.91860	0.23995
2753.99004	0.23732
2752.06147	0.23449
2750.13291	0.23163
2748.20435	0.22896
2746.27578	0.22636
2744.34722	0.22383
2742.41865	0.22137
2740.49009	0.21893
2738.56152	0.21647
2736.63296	0.21400
2734.70439	0.21164
2732.77583	0.20943
2730.84727	0.20724
2728.91870	0.20504
2726.99014	0.20298
2725.06157	0.20115
2723.13301	0.19941
2721.20444	0.19749
2719.27588	0.19544
2717.34731	0.19341
2715.41875	0.19148
2713.49019	0.18977
2711.56162	0.18812
2709.63306	0.18639
2707.70449	0.18467
2705.77593	0.18312
2703.84736	0.18176
2701.91880	0.18035
2699.99023	0.17877
2698.06167	0.17722
2696.13311	0.17581
2694.20454	0.17446
2692.27598	0.17313
2690.34741	0.17187
2688.41885	0.17076
2686.49028	0.16961
2684.56172	0.16828
2682.63315	0.16702
2680.70459	0.16592
2678.77603	0.16487
2676.84746	0.16380
2674.91890	0.16268
2672.99033	0.16168
2671.06177	0.16086
2669.13320	0.15999
2667.20464	0.15906
2665.27607	0.15823
2663.34751	0.15752
2661.41895	0.15680
2659.49038	0.15593
2657.56182	0.15509
2655.63325	0.15444
2653.70469	0.15391
2651.77612	0.15337
2649.84756	0.15283
2647.91899	0.15228
2645.99043	0.15168
2644.06187	0.15116
2642.13330	0.15073
2640.20474	0.15022
2638.27617	0.14964
2636.34761	0.14918
2634.41904	0.14892
2632.49048	0.14877
2630.56191	0.14853
2628.63335	0.14817
2626.70479	0.14781
2624.77622	0.14751
2622.84766	0.14733
2620.91909	0.14724
2618.99053	0.14718
2617.06196	0.14710
2615.13340	0.14695
2613.20483	0.14680
2611.27627	0.14669
2609.34771	0.14656
2607.41914	0.14647
2605.49058	0.14653
2603.56201	0.14663
2601.63345	0.14670
2599.70488	0.14678
2597.77632	0.14686
2595.84775	0.14696
2593.91919	0.14707
2591.99062	0.14723
2590.06206	0.14749
2588.13350	0.14777
2586.20493	0.14805
2584.27637	0.14839
2582.34780	0.14875
2580.41924	0.14908
2578.49067	0.14939
2576.56211	0.14970
2574.63354	0.15009
2572.70498	0.15060
2570.77642	0.15111
2568.84785	0.15157
2566.91929	0.15204
2564.99072	0.15250
2563.06216	0.15289
2561.13359	0.15331
2559.20503	0.15385
2557.27646	0.15450
2555.34790	0.15517
2553.41934	0.15570
2551.49077	0.15617
2549.56221	0.15681
2547.63364	0.15763
2545.70508	0.15845
2543.77651	0.15916
2541.84795	0.15976
2539.91938	0.16032
2537.99082	0.16099
2536.06226	0.16183
2534.13369	0.16262
2532.20513	0.16329
2530.27656	0.16392
2528.34800	0.16464
2526.41943	0.16554
2524.49087	0.16641
2522.56230	0.16716
2520.63374	0.16790
2518.70518	0.16868
2516.77661	0.16941
2514.84805	0.17018
2512.91948	0.17109
2510.99092	0.17208
2509.06235	0.17307
2507.13379	0.17398
2505.20522	0.17468
2503.27666	0.17532
2501.34810	0.17617
2499.41953	0.17721
2497.49097	0.17825
2495.56240	0.17921
2493.63384	0.18004
2491.70527	0.18088
2489.77671	0.18184
2487.84814	0.18279
2485.91958	0.18379
2483.99102	0.18486
2482.06245	0.18582
2480.13389	0.18671
2478.20532	0.18763
2476.27676	0.18862
2474.34819	0.18964
2472.41963	0.19055
2470.49106	0.19140
2468.56250	0.19243
2466.63394	0.19361
2464.70537	0.19472
2462.77681	0.19574
2460.84824	0.19673
2458.91968	0.19771
2456.99111	0.19865
2455.06255	0.19959
2453.13398	0.20062
2451.20542	0.20175
2449.27686	0.20284
2447.34829	0.20384
2445.41973	0.20480
2443.49116	0.20572
2441.56260	0.20669
2439.63403	0.20778
2437.70547	0.20888
2435.77690	0.21005
2433.84834	0.21124
2431.91978	0.21228
2429.99121	0.21325
2428.06265	0.21439
2426.13408	0.21562
2424.20552	0.21677
2422.27695	0.21791
2420.34839	0.21916
2418.41982	0.22042
2416.49126	0.22159
2414.56270	0.22274
2412.63413	0.22397
2410.70557	0.22528
2408.77700	0.22659
2406.84844	0.22778
2404.91987	0.22887
2402.99131	0.22994
2401.06274	0.23103
2399.13418	0.23221
2397.20562	0.23356
2395.27705	0.23493
2393.34849	0.23625
2391.41992	0.23768
2389.49136	0.23924
2387.56279	0.24103
2385.63423	0.24340
2383.70566	0.24670
2381.77710	0.25095
2379.84854	0.25591
2377.91997	0.26144
2375.99141	0.26766
2374.06284	0.27466
2372.13428	0.28245
2370.20571	0.29101
2368.27715	0.29996
2366.34858	0.30840
2364.42002	0.31566
2362.49146	0.32156
2360.56289	0.32546
2358.63433	0.32678
2356.70576	0.32505
2354.77720	0.32002
2352.84863	0.31339
2350.92007	0.30701
2348.99150	0.30323
2347.06294	0.30412
2345.13437	0.31050
2343.20581	0.31918
2341.27725	0.32406
2339.34868	0.32511
2337.42012	0.32537
2335.49155	0.32591
2333.56299	0.32607
2331.63442	0.32625
2329.70586	0.32707
2327.77729	0.32768
2325.84873	0.32731
2323.92017	0.32632
2321.99160	0.32514
2320.06304	0.32362
2318.13447	0.32189
2316.20591	0.32063
2314.27734	0.32031
2312.34878	0.32073
2310.42021	0.32121
2308.49165	0.32125
2306.56309	0.32099
2304.63452	0.32084
2302.70596	0.32117
2300.77739	0.32196
2298.84883	0.32279
2296.92026	0.32358
2294.99170	0.32451
2293.06313	0.32553
2291.13457	0.32655
2289.20601	0.32774
2287.27744	0.32905
2285.34888	0.33036
2283.42031	0.33183
2281.49175	0.33363
2279.56318	0.33576
2277.63462	0.33802
2275.70605	0.34022
2273.77749	0.34241
2271.84893	0.34468
2269.92036	0.34687
2267.99180	0.34891
2266.06323	0.35093
2264.13467	0.35306
2262.20610	0.35517
2260.27754	0.35716
2258.34897	0.35919
2256.42041	0.36127
2254.49185	0.36320
2252.56328	0.36505
2250.63472	0.36706
2248.70615	0.36925
2246.77759	0.37151
2244.84902	0.37380
2242.92046	0.37609
2240.99189	0.37835
2239.06333	0.38057
2237.13477	0.38275
2235.20620	0.38494
2233.27764	0.38714
2231.34907	0.38932
2229.42051	0.39159
2227.49194	0.39395
2225.56338	0.39630
2223.63481	0.39857
2221.70625	0.40078
2219.77769	0.40297
2217.84912	0.40516
2215.92056	0.40741
2213.99199	0.40970
2212.06343	0.41188
2210.13486	0.41401
2208.20630	0.41615
2206.27773	0.41822
2204.34917	0.42022
2202.42061	0.42230
2200.49204	0.42447
2198.56348	0.42661
2196.63491	0.42863
2194.70635	0.43064
2192.77778	0.43267
2190.84922	0.43460
2188.92065	0.43638
2186.99209	0.43813
2185.06353	0.43995
2183.13496	0.44178
2181.20640	0.44362
2179.27783	0.44544
2177.34927	0.44713
2175.42070	0.44866
2173.49214	0.45010
2171.56357	0.45147
2169.63501	0.45285
2167.70645	0.45429
2165.77788	0.45572
2163.84932	0.45701
2161.92075	0.45817
2159.99219	0.45922
2158.06362	0.46020
2156.13506	0.46124
2154.20649	0.46219
2152.27793	0.46294
2150.34937	0.46362
2148.42080	0.46438
2146.49224	0.46518
2144.56367	0.46586
2142.63511	0.46638
2140.70654	0.46680
2138.77798	0.46704
2136.84941	0.46706
2134.92085	0.46704
2132.99229	0.46702
2131.06372	0.46696
2129.13516	0.46689
2127.20659	0.46677
2125.27803	0.46647
2123.34946	0.46594
2121.42090	0.46535
2119.49233	0.46482
2117.56377	0.46427
2115.63521	0.46369
2113.70664	0.46300
2111.77808	0.46217
2109.84951	0.46128
2107.92095	0.46033
2105.99238	0.45921
2104.06382	0.45795
2102.13525	0.45665
2100.20669	0.45536
2098.27812	0.45396
2096.34956	0.45241
2094.42100	0.45087
2092.49243	0.44942
2090.56387	0.44791
2088.63530	0.44614
2086.70674	0.44419
2084.77817	0.44224
2082.84961	0.44038
2080.92104	0.43850
2078.99248	0.43645
2077.06392	0.43426
2075.13535	0.43212
2073.20679	0.43000
2071.27822	0.42777
2069.34966	0.42548
2067.42109	0.42332
2065.49253	0.42123
2063.56396	0.41881
2061.63540	0.41611
2059.70684	0.41352
2057.77827	0.41094
2055.84971	0.40830
2053.92114	0.40571
2051.99258	0.40321
2050.06401	0.40069
2048.13545	0.39809
2046.20688	0.39548
2044.27832	0.39296
2042.34976	0.39045
2040.42119	0.38773
2038.49263	0.38478
2036.56406	0.38184
2034.63550	0.37899
2032.70693	0.37616
2030.77837	0.37336
2028.84980	0.37059
2026.92124	0.36783
2024.99268	0.36506
2023.06411	0.36228
2021.13555	0.35956
2019.20698	0.35711
2017.27842	0.35478
2015.34985	0.35183
2013.42129	0.34844
2011.49272	0.34536
2009.56416	0.34265
2007.63560	0.33994
2005.70703	0.33713
2003.77847	0.33433
2001.84990	0.33164
1999.92134	0.32906
1997.99277	0.32643
1996.06421	0.32390
1994.13564	0.32207
1992.20708	0.32048
1990.27852	0.31790
1988.34995	0.31463
1986.42139	0.31155
1984.49282	0.30872
1982.56426	0.30609
1980.63569	0.30368
1978.70713	0.30140
1976.77856	0.29915
1974.85000	0.29692
1972.92144	0.29469
1970.99287	0.29262
1969.06431	0.29108
1967.13574	0.28971
1965.20718	0.28744
1963.27861	0.28461
1961.35005	0.28226
1959.42148	0.28029
1957.49292	0.27845
1955.56436	0.27670
1953.63579	0.27487
1951.70723	0.27294
1949.77866	0.27126
1947.85010	0.27001
1945.92153	0.26920
1943.99297	0.26884
1942.06440	0.26797
1940.13584	0.26550
1938.20728	0.26268
1936.27871	0.26071
1934.35015	0.25929
1932.42158	0.25807
1930.49302	0.25687
1928.56445	0.25568
1926.63589	0.25476
1924.70732	0.25464
1922.77876	0.25477
1920.85020	0.25399
1918.92163	0.25308
1916.99307	0.25204
1915.06450	0.25000
1913.13594	0.24835
1911.20737	0.24813
1909.27881	0.24822
1907.35024	0.24734
1905.42168	0.24590
1903.49312	0.24483
1901.56455	0.24403
1899.63599	0.24331
1897.70742	0.24315
1895.77886	0.24354
1893.85029	0.24357
1891.92173	0.24342
1889.99316	0.24388
1888.06460	0.24358
1886.13604	0.24219
1884.20747	0.24122
1882.27891	0.24079
1880.35034	0.24056
1878.42178	0.24041
1876.49321	0.24028
1874.56465	0.24031
1872.63608	0.24108
1870.70752	0.24351
1868.77896	0.24685
1866.85039	0.24706
1864.92183	0.24419
1862.99326	0.24224
1861.06470	0.24202
1859.13613	0.24242
1857.20757	0.24270
1855.27900	0.24302
1853.35044	0.24347
1851.42187	0.24418
1849.49331	0.24554
1847.56475	0.24774
1845.63618	0.25054
1843.70762	0.25243
1841.77905	0.25142
1839.85049	0.24985
1837.92192	0.25011
1835.99336	0.25113
1834.06479	0.25205
1832.13623	0.25420
1830.20767	0.25803
1828.27910	0.26028
1826.35054	0.26038
1824.42197	0.26078
1822.49341	0.26074
1820.56484	0.26073
1818.63628	0.26177
1816.70771	0.26337
1814.77915	0.26506
1812.85059	0.26765
1810.92202	0.27095
1808.99346	0.27311
1807.06489	0.27412
1805.13633	0.27562
1803.20776	0.27881
1801.27920	0.28312
1799.35063	0.28660
1797.42207	0.28865
1795.49351	0.29131
1793.56494	0.29591
1791.63638	0.30074
1789.70781	0.30203
1787.77925	0.30201
1785.85068	0.30453
1783.92212	0.30887
1781.99355	0.31368
1780.06499	0.31842
1778.13643	0.32256
1776.20786	0.32708
1774.27930	0.33386
1772.35073	0.34286
1770.42217	0.34917
1768.49360	0.35169
1766.56504	0.35422
1764.63647	0.35854
1762.70791	0.36554
1760.77935	0.37415
1758.85078	0.38101
1756.92222	0.38787
1754.99365	0.39535
1753.06509	0.40316
1751.13652	0.41467
1749.20796	0.42837
1747.27939	0.43851
1745.35083	0.44589
1743.42227	0.45451
1741.49370	0.46489
1739.56514	0.47720
1737.63657	0.48943
1735.70801	0.50184
1733.77944	0.52132
1731.85088	0.54045
1729.92231	0.55276
1727.99375	0.56574
1726.06519	0.58150
1724.13662	0.60061
1722.20806	0.62179
1720.27949	0.64271
1718.35093	0.66963
1716.42236	0.70569
1714.49380	0.73364
1712.56523	0.75423
1710.63667	0.77612
1708.70811	0.80226
1706.77954	0.83388
1704.85098	0.87064
1702.92241	0.90234
1700.99385	0.93508
1699.06528	0.98344
1697.13672	1.02491
1695.20815	1.06327
1693.27959	1.09937
1691.35103	1.13024
1689.42246	1.16831
1687.49390	1.20918
1685.56533	1.25037
1683.63677	1.31097
1681.70820	1.36745
1679.77964	1.40182
1677.85107	1.43634
1675.92251	1.47835
1673.99395	1.53092
1672.06538	1.57777
1670.13682	1.62293
1668.20825	1.67694
1666.27969	1.71847
1664.35112	1.75546
1662.42256	1.80258
1660.49399	1.85300
1658.56543	1.89165
1656.63687	1.92556
1654.70830	1.96196
1652.77974	2.02115
1650.85117	2.07261
1648.92261	2.09316
1646.99404	2.12360
1645.06548	2.15496
1643.13691	2.17277
1641.20835	2.18485
1639.27979	2.19875
1637.35122	2.21293
1635.42266	2.22162
1633.49409	2.21370
1631.56553	2.19693
1629.63696	2.18106
1627.70840	2.15909
1625.77983	2.13418
1623.85127	2.10135
1621.92271	2.05744
1619.99414	2.01569
1618.06558	1.97563
1616.13701	1.91824
1614.20845	1.85598
1612.27988	1.80813
1610.35132	1.76063
1608.42275	1.70932
1606.49419	1.65696
1604.56562	1.60755
1602.63706	1.55985
1600.70850	1.51306
1598.77993	1.46973
1596.85137	1.42946
1594.92280	1.39039
1592.99424	1.35186
1591.06567	1.31630
1589.13711	1.28287
1587.20854	1.25100
1585.27998	1.22101
1583.35142	1.19288
1581.42285	1.16694
1579.49429	1.14524
1577.56572	1.12710
1575.63716	1.10299
1573.70859	1.07746
1571.78003	1.06050
1569.85146	1.04447
1567.92290	1.02426
1565.99434	1.00617
1564.06577	0.99132
1562.13721	0.98057
1560.20864	0.97548
1558.28008	0.96456
1556.35151	0.94406
1554.42295	0.92826
1552.49438	0.91515
1550.56582	0.90397
1548.63726	0.89306
1546.70869	0.88402
1544.78013	0.87858
1542.85156	0.87544
1540.92300	0.87027
1538.99443	0.85308
1537.06587	0.83510
1535.13730	0.82590
1533.20874	0.81790
1531.28018	0.80715
1529.35161	0.79891
1527.42305	0.79383
1525.49448	0.78929
1523.56592	0.78527
1521.63735	0.78112
1519.70879	0.77386
1517.78022	0.76643
1515.85166	0.75821
1513.92310	0.74905
1511.99453	0.74304
1510.06597	0.74152
1508.13740	0.74357
1506.20884	0.73899
1504.28027	0.72505
1502.35171	0.71658
1500.42314	0.71301
1498.49458	0.71149
1496.56602	0.70829
1494.63745	0.70241
1492.70889	0.69864
1490.78032	0.69875
1488.85176	0.69819
1486.92319	0.69245
1484.99463	0.68580
1483.06606	0.68161
1481.13750	0.67914
1479.20894	0.67714
1477.28037	0.67639
1475.35181	0.67746
1473.42324	0.67853
1471.49468	0.67472
1469.56611	0.66733
1467.63755	0.66261
1465.70898	0.66115
1463.78042	0.65962
1461.85186	0.65732
1459.92329	0.65773
1457.99473	0.66097
1456.06616	0.65931
1454.13760	0.65180
1452.20903	0.64643
1450.28047	0.64360
1448.35190	0.64180
1446.42334	0.63908
1444.49478	0.63574
1442.56621	0.63332
1440.63765	0.63203
1438.70908	0.63212
1436.78052	0.63293
1434.85195	0.63158
1432.92339	0.62899
1430.99482	0.62756
1429.06626	0.62620
1427.13770	0.62421
1425.20913	0.62325
1423.28057	0.62315
1421.35200	0.62306
1419.42344	0.62368
1417.49487	0.62251
1415.56631	0.61826
1413.63774	0.61457
1411.70918	0.61241
1409.78062	0.61072
1407.85205	0.60931
1405.92349	0.60873
1403.99492	0.60776
1402.06636	0.60591
1400.13779	0.60511
1398.20923	0.60534
1396.28066	0.60476
1394.35210	0.60230
1392.42354	0.59857
1390.49497	0.59599
1388.56641	0.59527
1386.63784	0.59429
1384.70928	0.59159
1382.78071	0.58891
1380.85215	0.58746
1378.92358	0.58686
1376.99502	0.58694
1375.06646	0.58756
1373.13789	0.58689
1371.20933	0.58471
1369.28076	0.58317
1367.35220	0.58224
1365.42363	0.58173
1363.49507	0.58222
1361.56650	0.58188
1359.63794	0.57951
1357.70937	0.57732
1355.78081	0.57611
1353.85225	0.57511
1351.92368	0.57408
1349.99512	0.57321
1348.06655	0.57215
1346.13799	0.57082
1344.20942	0.56973
1342.28086	0.56961
1340.35229	0.57034
1338.42373	0.56989
1336.49517	0.56755
1334.56660	0.56524
1332.63804	0.56386
1330.70947	0.56300
1328.78091	0.56227
1326.85234	0.56163
1324.92378	0.56103
1322.99521	0.56057
1321.06665	0.56050
1319.13809	0.56053
1317.20952	0.55997
1315.28096	0.55901
1313.35239	0.55802
1311.42383	0.55681
1309.49526	0.55548
1307.56670	0.55430
1305.63813	0.55306
1303.70957	0.55171
1301.78101	0.55052
1299.85244	0.54961
1297.92388	0.54887
1295.99531	0.54805
1294.06675	0.54711
1292.13818	0.54630
1290.20962	0.54573
1288.28105	0.54515
1286.35249	0.54437
1284.42393	0.54366
1282.49536	0.54324
1280.56680	0.54288
1278.63823	0.54228
1276.70967	0.54163
1274.78110	0.54118
1272.85254	0.54090
1270.92397	0.54052
1268.99541	0.53992
1267.06685	0.53934
1265.13828	0.53883
1263.20972	0.53843
1261.28115	0.53815
1259.35259	0.53773
1257.42402	0.53719
1255.49546	0.53686
1253.56689	0.53673
1251.63833	0.53668
1249.70977	0.53660
1247.78120	0.53632
1245.85264	0.53590
1243.92407	0.53555
1241.99551	0.53523
1240.06694	0.53474
1238.13838	0.53413
1236.20981	0.53347
1234.28125	0.53273
1232.35269	0.53197
1230.42412	0.53123
1228.49556	0.53053
1226.56699	0.52982
1224.63843	0.52898
1222.70986	0.52803
1220.78130	0.52720
1218.85273	0.52655
1216.92417	0.52596
1214.99561	0.52534
1213.06704	0.52464
1211.13848	0.52392
1209.20991	0.52327
1207.28135	0.52272
1205.35278	0.52218
1203.42422	0.52166
1201.49565	0.52112
1199.56709	0.52051
1197.63853	0.51990
1195.70996	0.51927
1193.78140	0.51863
1191.85283	0.51800
1189.92427	0.51744
1187.99570	0.51708
1186.06714	0.51696
1184.13857	0.51698
1182.21001	0.51713
1180.28145	0.51743
1178.35288	0.51773
1176.42432	0.51805
1174.49575	0.51854
1172.56719	0.51914
1170.63862	0.51971
1168.71006	0.52024
1166.78149	0.52067
1164.85293	0.52107
1162.92437	0.52157
1160.99580	0.52197
1159.06724	0.52214
1157.13867	0.52198
1155.21011	0.52128
1153.28154	0.52014
1151.35298	0.51870
1149.42441	0.51683
1147.49585	0.51464
1145.56729	0.51237
1143.63872	0.50996
1141.71016	0.50747
1139.78159	0.50515
1137.85303	0.50315
1135.92446	0.50149
1133.99590	0.50007
1132.06733	0.49894
1130.13877	0.49808
1128.21021	0.49728
1126.28164	0.49630
1124.35308	0.49530
1122.42451	0.49456
1120.49595	0.49400
1118.56738	0.49360
1116.63882	0.49349
1114.71025	0.49350
1112.78169	0.49376
1110.85312	0.49451
1108.92456	0.49551
1106.99600	0.49635
1105.06743	0.49695
1103.13887	0.49779
1101.21030	0.49935
1099.28174	0.50124
1097.35317	0.50328
1095.42461	0.50617
1093.49604	0.51005
1091.56748	0.51448
1089.63892	0.51973
1087.71035	0.52643
1085.78179	0.53431
1083.85322	0.54246
1081.92466	0.55003
1079.99609	0.55595
1078.06753	0.55927
1076.13896	0.55956
1074.21040	0.55688
1072.28184	0.55178
1070.35327	0.54521
1068.42471	0.53823
1066.49614	0.53143
1064.56758	0.52501
1062.63901	0.51931
1060.71045	0.51457
1058.78188	0.51050
1056.85332	0.50680
1054.92476	0.50353
1052.99619	0.50077
1051.06763	0.49861
1049.13906	0.49713
1047.21050	0.49619
1045.28193	0.49573
1043.35337	0.49573
1041.42480	0.49599
1039.49624	0.49613
1037.56768	0.49598
1035.63911	0.49576
1033.71055	0.49558
1031.78198	0.49505
1029.85342	0.49408
1027.92485	0.49297
1025.99629	0.49197
1024.06772	0.49149
1022.13916	0.49162
1020.21060	0.49194
1018.28203	0.49221
1016.35347	0.49252
1014.42490	0.49298
1012.49634	0.49338
1010.56777	0.49376
1008.63921	0.49453
1006.71064	0.49575
1004.78208	0.49723
1002.85352	0.49907
1000.92495	0.50154
998.99639	0.50481
997.06782	0.50879
995.13926	0.51299
993.21069	0.51695
991.28213	0.52034
989.35356	0.52274
987.42500	0.52396
985.49644	0.52453
983.56787	0.52497
981.63931	0.52557
979.71074	0.52671
977.78218	0.52843
975.85361	0.53053
973.92505	0.53317
971.99648	0.53658
970.06792	0.54041
968.13936	0.54433
966.21079	0.54842
964.28223	0.55277
962.35366	0.55743
960.42510	0.56256
958.49653	0.56816
956.56797	0.57403
954.63940	0.57999
952.71084	0.58601
950.78228	0.59238
948.85371	0.59905
946.92515	0.60550
944.99658	0.61170
943.06802	0.61777
941.13945	0.62372
939.21089	0.62966
937.28232	0.63566
935.35376	0.64192
933.42520	0.64797
931.49663	0.65343
929.56807	0.65906
927.63950	0.66533
925.71094	0.67155
923.78237	0.67754
921.85381	0.68401
919.92524	0.69067
917.99668	0.69718
916.06812	0.70425
914.13955	0.71200
912.21099	0.71987
910.28242	0.72779
908.35386	0.73588
906.42529	0.74411
904.49673	0.75289
902.56816	0.76220
900.63960	0.77178
898.71104	0.78202
896.78247	0.79272
894.85391	0.80321
892.92534	0.81363
890.99678	0.82463
889.06821	0.83660
887.13965	0.84813
885.21108	0.85837
883.28252	0.86890
881.35396	0.88034
879.42539	0.89250
877.49683	0.90471
875.56826	0.91562
873.63970	0.92545
871.71113	0.93607
869.78257	0.94820
867.85400	0.96017
865.92544	0.97077
863.99687	0.98099
862.06831	0.99197
860.13975	1.00327
858.21118	1.01451
856.28262	1.02632
854.35405	1.03899
852.42549	1.05210
850.49692	1.06508
848.56836	1.07693
846.63979	1.08749
844.71123	1.09902
842.78267	1.11175
840.85410	1.12305
838.92554	1.13239
836.99697	1.14267
835.06841	1.15623
833.13984	1.17020
831.21128	1.18115
829.28271	1.19216
827.35415	1.20518
825.42559	1.21859
823.49702	1.23277
821.56846	1.24599
819.63989	1.25950
817.71133	1.27257
815.78276	1.27789
813.85420	1.28218
811.92563	1.29331
809.99707	1.30630
808.06851	1.32377
806.13994	1.34391
804.21138	1.35436
802.28281	1.36138
800.35425	1.37124
798.42568	1.38386
796.49712	1.40388
794.56855	1.44150
792.63999	1.51760
790.71143	1.61008
788.78286	1.64131
786.85430	1.57901
784.92573	1.48133
782.99717	1.42058
781.06860	1.42628
779.14004	1.52448
777.21147	1.68023
775.28291	1.67947
773.35435	1.63780
771.42578	1.67195
769.49722	1.60546
767.56865	1.53465
765.64009	1.55048
763.71152	1.59781
761.78296	1.60214
759.85439	1.53671
757.92583	1.47153
755.99727	1.42856
754.06870	1.28415
752.14014	1.15065
750.21157	1.14785
748.28301	1.25309
746.35444	1.25879
744.42588	1.07625
742.49731	0.92465
740.56875	0.83918
738.64019	0.80744
736.71162	0.86011
734.78306	1.07642
732.85449	1.36921
730.92593	0.93752
728.99736	0.65137
727.06880	0.57321
725.14023	0.56694
723.21167	0.52953
721.28311	0.49168
719.35454	0.46773
717.42598	0.42075
715.49741	0.32975
713.56885	0.16733
711.64028	-0.05220
709.71172	-0.03450
707.78315	0.30897
705.85459	0.46790
703.92603	0.37887
701.99746	0.29277
700.06890	0.30259
698.14033	0.35543
696.21177	0.32009
694.28320	0.29405
692.35464	0.42906
690.42607	0.74493
688.49751	0.94586
686.56895	0.89318
684.64038	0.65758
682.71182	0.50762
680.78325	0.52467
678.85469	0.57511
676.92612	0.44662
674.99756	0.31914
673.06899	0.31802
671.14043	0.31589
669.21187	0.30360
667.28330	0.39109
665.35474	0.48608
663.42617	0.41414
661.49761	0.32415
659.56904	0.27975
657.64048	0.27358
655.71191	0.33811
653.78335	0.37713
651.85479	0.32962
649.92622	0.33971
647.99766	0.38594
646.06909	0.39918
644.14053	0.42766
642.21196	0.46542
640.28340	0.44220
638.35483	0.38385
636.42627	0.28513
634.49771	0.21733
632.56914	0.24813
630.64058	0.29057
628.71201	0.31951
626.78345	0.35691
624.85488	0.37958
622.92632	0.38415
620.99775	0.35696
619.06919	0.28498
617.14062	0.24833
615.21206	0.27425
613.28350	0.28711
611.35493	0.29880
609.42637	0.37195
607.49780	0.43473
605.56924	0.42689
603.64067	0.38810
601.71211	0.35063
599.78354	0.32843
597.85498	0.36447
595.92642	0.61708
593.99785	3.56399
592.06929	0.65354
590.14072	0.39796
588.21216	0.34041
586.28359	0.32438
584.35503	0.35842
582.42646	0.48380
580.49790	0.51948
578.56934	0.39494
576.64077	0.28035
574.71221	0.22489
572.78364	0.24198
570.85508	0.27654
568.92651	0.24713
566.99795	0.21769
565.06938	0.24419
563.14082	0.25960
561.21226	0.24881
559.28369	0.24811
557.35513	0.26596
555.42656	0.27185
553.49800	0.24552
551.56943	0.25955
549.64087	0.33053
547.71230	0.37799
545.78374	0.40380
543.85518	0.44707
541.92661	0.37429
539.99805	0.27917
538.06948	0.24383
536.14092	0.24953
534.21235	0.25816
532.28379	0.27486
530.35522	0.29634
528.42666	0.31025
526.49810	0.38865
524.56953	0.55097
522.64097	0.58735
520.71240	0.47795
518.78384	0.36635
516.85527	0.31430
514.92671	0.34715
512.99814	0.41835
511.06958	0.43544
509.14102	0.36806
507.21245	0.30127
505.28389	0.25449
503.35532	0.23437
501.42676	0.25822
499.49819	0.30067
