3997.91411	0.05604
3995.98555	0.05662
3994.05698	0.05703
3992.12842	0.05738
3990.19985	0.05792
3988.27129	0.05845
3986.34272	0.05861
3984.41416	0.05852
3982.48560	0.05879
3980.55703	0.05934
3978.62847	0.05956
3976.69990	0.05973
3974.77134	0.06015
3972.84277	0.06048
3970.91421	0.06041
3968.98564	0.06024
3967.05708	0.06022
3965.12852	0.06021
3963.19995	0.06037
3961.27139	0.06095
3959.34282	0.06158
3957.41426	0.06180
3955.48569	0.06167
3953.55713	0.06154
3951.62856	0.06189
3949.70000	0.06278
3947.77144	0.06338
3945.84287	0.06325
3943.91431	0.06347
3941.98574	0.06398
3940.05718	0.06330
3938.12861	0.06214
3936.20005	0.06183
3934.27148	0.06249
3932.34292	0.06392
3930.41436	0.06501
3928.48579	0.06457
3926.55723	0.06383
3924.62866	0.06419
3922.70010	0.06443
3920.77153	0.06384
3918.84297	0.06364
3916.91440	0.06386
3914.98584	0.06335
3913.05728	0.06222
3911.12871	0.06144
3909.20015	0.06108
3907.27158	0.06163
3905.34302	0.06375
3903.41445	0.06640
3901.48589	0.06782
3899.55732	0.06783
3897.62876	0.06638
3895.70020	0.06426
3893.77163	0.06362
3891.84307	0.06488
3889.91450	0.06592
3887.98594	0.06562
3886.05737	0.06612
3884.12881	0.06763
3882.20024	0.06824
3880.27168	0.06806
3878.34312	0.06671
3876.41455	0.06502
3874.48599	0.06553
3872.55742	0.06772
3870.62886	0.06993
3868.70029	0.07124
3866.77173	0.07050
3864.84316	0.06990
3862.91460	0.07032
3860.98604	0.06948
3859.05747	0.06818
3857.12891	0.06863
3855.20034	0.07140
3853.27178	0.07630
3851.34321	0.07827
3849.41465	0.07452
3847.48608	0.07112
3845.55752	0.07052
3843.62896	0.07236
3841.70039	0.07529
3839.77183	0.07838
3837.84326	0.08076
3835.91470	0.08078
3833.98613	0.07931
3832.05757	0.07812
3830.12900	0.07732
3828.20044	0.07703
3826.27187	0.07765
3824.34331	0.07899
3822.41475	0.08141
3820.48618	0.08502
3818.55762	0.08667
3816.62905	0.08664
3814.70049	0.08653
3812.77192	0.08514
3810.84336	0.08393
3808.91479	0.08459
3806.98623	0.08724
3805.05767	0.09030
3803.12910	0.09264
3801.20054	0.09531
3799.27197	0.09657
3797.34341	0.09594
3795.41484	0.09577
3793.48628	0.09545
3791.55771	0.09497
3789.62915	0.09539
3787.70059	0.09672
3785.77202	0.09886
3783.84346	0.10126
3781.91489	0.10291
3779.98633	0.10469
3778.05776	0.10688
3776.12920	0.10779
3774.20063	0.10807
3772.27207	0.10952
3770.34351	0.11282
3768.41494	0.11682
3766.48638	0.11941
3764.55781	0.12084
3762.62925	0.12191
3760.70068	0.12386
3758.77212	0.12736
3756.84355	0.13052
3754.91499	0.13265
3752.98643	0.13619
3751.05786	0.14270
3749.12930	0.14912
3747.20073	0.15105
3745.27217	0.15182
3743.34360	0.15396
3741.41504	0.15573
3739.48647	0.15731
3737.55791	0.16110
3735.62935	0.16831
3733.70078	0.17566
3731.77222	0.17815
3729.84365	0.17832
3727.91509	0.18039
3725.98652	0.18615
3724.05796	0.19399
3722.12939	0.20103
3720.20083	0.20775
3718.27227	0.21499
3716.34370	0.22253
3714.41514	0.23082
3712.48657	0.24189
3710.55801	0.25675
3708.62944	0.27008
3706.70088	0.27929
3704.77231	0.28887
3702.84375	0.30230
3700.91519	0.32025
3698.98662	0.33852
3697.05806	0.35547
3695.12949	0.37445
3693.20093	0.39559
3691.27236	0.41947
3689.34380	0.44984
3687.41523	0.48426
3685.48667	0.51289
3683.55811	0.53796
3681.62954	0.56623
3679.70098	0.59926
3677.77241	0.63507
3675.84385	0.67768
3673.91528	0.73150
3671.98672	0.77408
3670.05815	0.81282
3668.12959	0.86491
3666.20103	0.91131
3664.27246	0.95072
3662.34390	0.99454
3660.41533	1.04258
3658.48677	1.08997
3656.55820	1.14040
3654.62964	1.19633
3652.70107	1.24395
3650.77251	1.28756
3648.84395	1.34753
3646.91538	1.41585
3644.98682	1.46301
3643.05825	1.49921
3641.12969	1.53799
3639.20112	1.58222
3637.27256	1.62735
3635.34399	1.67119
3633.41543	1.71493
3631.48687	1.75616
3629.55830	1.79853
3627.62974	1.85341
3625.70117	1.90405
3623.77261	1.93850
3621.84404	1.97191
3619.91548	2.01113
3617.98691	2.05851
3616.05835	2.10377
3614.12979	2.14164
3612.20122	2.18020
3610.27266	2.21813
3608.34409	2.25718
3606.41553	2.29954
3604.48696	2.33850
3602.55840	2.37297
3600.62983	2.41060
3598.70127	2.45242
3596.77271	2.49369
3594.84414	2.53507
3592.91558	2.57722
3590.98701	2.61618
3589.05845	2.65283
3587.12988	2.69830
3585.20132	2.74843
3583.27275	2.78904
3581.34419	2.82518
3579.41562	2.86554
3577.48706	2.91061
3575.55850	2.95492
3573.62993	2.99719
3571.70137	3.03827
3569.77280	3.07952
3567.84424	3.12415
3565.91567	3.17567
3563.98711	3.22488
3562.05854	3.26795
3560.12998	3.31082
3558.20142	3.35434
3556.27285	3.39953
3554.34429	3.44576
3552.41572	3.49298
3550.48716	3.53934
3548.55859	3.58421
3546.63003	3.63209
3544.70146	3.68416
3542.77290	3.73293
3540.84434	3.77700
3538.91577	3.82068
3536.98721	3.86465
3535.05864	3.91190
3533.13008	3.96162
3531.20151	4.01114
3529.27295	4.06096
3527.34438	4.11191
3525.41582	4.16101
3523.48726	4.20792
3521.55869	4.25668
3519.63013	4.30672
3517.70156	4.35619
3515.77300	4.40438
3513.84443	4.45401
3511.91587	4.50398
3509.98730	4.55256
3508.05874	4.60309
3506.13018	4.65457
3504.20161	4.70495
3502.27305	4.75462
3500.34448	4.80115
3498.41592	4.84426
3496.48735	4.88803
3494.55879	4.93372
3492.63022	4.98083
3490.70166	5.02945
3488.77310	5.08228
3486.84453	5.13805
3484.91597	5.18853
3482.98740	5.23454
3481.05884	5.28275
3479.13027	5.32991
3477.20171	5.37363
3475.27314	5.41811
3473.34458	5.46382
3471.41602	5.51225
3469.48745	5.56956
3467.55889	5.63074
3465.63032	5.68435
3463.70176	5.73690
3461.77319	5.79239
3459.84463	5.84497
3457.91606	5.89425
3455.98750	5.94127
3454.05894	5.98520
3452.13037	6.03138
3450.20181	6.08716
3448.27324	6.14365
3446.34468	6.19408
3444.41611	6.24485
3442.48755	6.29879
3440.55898	6.34078
3438.63042	6.37529
3436.70186	6.42836
3434.77329	6.49325
3432.84473	6.55587
3430.91616	6.61753
3428.98760	6.66432
3427.05903	6.69577
3425.13047	6.74596
3423.20190	6.80719
3421.27334	6.85653
3419.34478	6.90305
3417.41621	6.95906
3415.48765	7.01711
3413.55908	7.06059
3411.63052	7.09467
3409.70195	7.12374
3407.77339	7.16664
3405.84482	7.22741
3403.91626	7.28428
3401.98770	7.31560
3400.05913	7.32655
3398.13057	7.34922
3396.20200	7.41353
3394.27344	7.51701
3392.34487	7.59109
3390.41631	7.61930
3388.48774	7.62770
3386.55918	7.63587
3384.63062	7.66246
3382.70205	7.70425
3380.77349	7.74278
3378.84492	7.78678
3376.91636	7.85577
3374.98779	7.89561
3373.05923	7.92065
3371.13066	7.96626
3369.20210	7.99177
3367.27354	8.00259
3365.34497	8.04289
3363.41641	8.08487
3361.48784	8.08769
3359.55928	8.07949
3357.63071	8.09871
3355.70215	8.19277
3353.77358	8.32811
3351.84502	8.40179
3349.91646	8.35819
3347.98789	8.24592
3346.05933	8.15279
3344.13076	8.14717
3342.20220	8.22409
3340.27363	8.28696
3338.34507	8.29917
3336.41650	8.30501
3334.48794	8.32691
3332.55937	8.27569
3330.63081	8.20213
3328.70225	8.24176
3326.77368	8.32121
3324.84512	8.32683
3322.91655	8.28849
3320.98799	8.29164
3319.05942	8.35685
3317.13086	8.43180
3315.20229	8.45201
3313.27373	8.45970
3311.34517	8.45041
3309.41660	8.38804
3307.48804	8.33792
3305.55947	8.32766
3303.63091	8.38400
3301.70234	8.52412
3299.77378	8.66126
3297.84521	8.64028
3295.91665	8.51531
3293.98809	8.42920
3292.05952	8.40487
3290.13096	8.43607
3288.20239	8.52169
3286.27383	8.59017
3284.34526	8.55091
3282.41670	8.50572
3280.48813	8.47951
3278.55957	8.41981
3276.63101	8.40587
3274.70244	8.45339
3272.77388	8.45922
3270.84531	8.41810
3268.91675	8.40186
3266.98818	8.40298
3265.05962	8.42926
3263.13105	8.50280
3261.20249	8.59062
3259.27393	8.58060
3257.34536	8.49470
3255.41680	8.50393
3253.48823	8.60009
3251.55967	8.66609
3249.63110	8.73583
3247.70254	8.83292
3245.77397	8.78741
3243.84541	8.61843
3241.91685	8.53823
3239.98828	8.58750
3238.05972	8.61988
3236.13115	8.53411
3234.20259	8.45212
3232.27402	8.45065
3230.34546	8.47330
3228.41689	8.46529
3226.48833	8.37866
3224.55977	8.23611
3222.63120	8.16446
3220.70264	8.17586
3218.77407	8.18553
3216.84551	8.19036
3214.91694	8.18664
3212.98838	8.13941
3211.05981	8.09865
3209.13125	8.11948
3207.20269	8.15214
3205.27412	8.15331
3203.34556	8.16146
3201.41699	8.15864
3199.48843	8.09125
3197.55986	7.99118
3195.63130	7.92008
3193.70273	7.86662
3191.77417	7.77463
3189.84561	7.69852
3187.91704	7.72926
3185.98848	7.79894
3184.05991	7.75612
3182.13135	7.63375
3180.20278	7.53828
3178.27422	7.45931
3176.34565	7.40132
3174.41709	7.37988
3172.48853	7.32674
3170.55996	7.22562
3168.63140	7.14134
3166.70283	7.07503
3164.77427	7.01506
3162.84570	6.97212
3160.91714	6.91922
3158.98857	6.84067
3157.06001	6.74608
3155.13145	6.65437
3153.20288	6.58021
3151.27432	6.52475
3149.34575	6.49031
3147.41719	6.45423
3145.48862	6.38660
3143.56006	6.30073
3141.63149	6.22417
3139.70293	6.15262
3137.77437	6.06999
3135.84580	5.98479
3133.91724	5.91008
3131.98867	5.83892
3130.06011	5.76883
3128.13154	5.69911
3126.20298	5.62163
3124.27441	5.54224
3122.34585	5.46700
3120.41729	5.39191
3118.48872	5.31640
3116.56016	5.24231
3114.63159	5.16867
3112.70303	5.09830
3110.77446	5.03011
3108.84590	4.95952
3106.91733	4.89094
3104.98877	4.82535
3103.06021	4.75970
3101.13164	4.69219
3099.20308	4.62253
3097.27451	4.55261
3095.34595	4.48068
3093.41738	4.40873
3091.48882	4.34392
3089.56025	4.28355
3087.63169	4.21948
3085.70312	4.15158
3083.77456	4.08372
3081.84600	4.01909
3079.91743	3.95747
3077.98887	3.89548
3076.06030	3.83302
3074.13174	3.77343
3072.20317	3.71660
3070.27461	3.65871
3068.34604	3.59847
3066.41748	3.53740
3064.48892	3.47799
3062.56035	3.42083
3060.63179	3.36523
3058.70322	3.31103
3056.77466	3.25630
3054.84609	3.20046
3052.91753	3.14614
3050.98896	3.09407
3049.06040	3.04159
3047.13184	2.98844
3045.20327	2.93714
3043.27471	2.88759
3041.34614	2.83849
3039.41758	2.79029
3037.48901	2.74305
3035.56045	2.69642
3033.63188	2.65060
3031.70332	2.60501
3029.77476	2.55935
3027.84619	2.51453
3025.91763	2.47072
3023.98906	2.42714
3022.06050	2.38381
3020.13193	2.34165
3018.20337	2.30074
3016.27480	2.26062
3014.34624	2.22105
3012.41768	2.18170
3010.48911	2.14245
3008.56055	2.10392
3006.63198	2.06676
3004.70342	2.03032
3002.77485	1.99404
3000.84629	1.95830
2998.91772	1.92329
2996.98916	1.88924
2995.06060	1.85603
2993.13203	1.82300
2991.20347	1.79017
2989.27490	1.75811
2987.34634	1.72709
2985.41777	1.69656
2983.48921	1.66629
2981.56064	1.63659
2979.63208	1.60730
2977.70352	1.57832
2975.77495	1.54973
2973.84639	1.52135
2971.91782	1.49301
2969.98926	1.46507
2968.06069	1.43805
2966.13213	1.41180
2964.20356	1.38555
2962.27500	1.35928
2960.34644	1.33361
2958.41787	1.30883
2956.48931	1.28504
2954.56074	1.26208
2952.63218	1.23934
2950.70361	1.21665
2948.77505	1.19445
2946.84648	1.17270
2944.91792	1.15094
2942.98936	1.12920
2941.06079	1.10776
2939.13223	1.08637
2937.20366	1.06521
2935.27510	1.04487
2933.34653	1.02508
2931.41797	1.00525
2929.48940	0.98582
2927.56084	0.96732
2925.63228	0.94915
2923.70371	0.93117
2921.77515	0.91417
2919.84658	0.89818
2917.91802	0.88240
2915.98945	0.86656
2914.06089	0.85133
2912.13232	0.83687
2910.20376	0.82258
2908.27520	0.80823
2906.34663	0.79437
2904.41807	0.78125
2902.48950	0.76846
2900.56094	0.75582
2898.63237	0.74327
2896.70381	0.73076
2894.77524	0.71848
2892.84668	0.70654
2890.91812	0.69480
2888.98955	0.68330
2887.06099	0.67208
2885.13242	0.66088
2883.20386	0.64973
2881.27529	0.63903
2879.34673	0.62859
2877.41816	0.61803
2875.48960	0.60742
2873.56104	0.59686
2871.63247	0.58641
2869.70391	0.57614
2867.77534	0.56570
2865.84678	0.55493
2863.91821	0.54439
2861.98965	0.53443
2860.06108	0.52489
2858.13252	0.51544
2856.20396	0.50600
2854.27539	0.49686
2852.34683	0.48814
2850.41826	0.47981
2848.48970	0.47198
2846.56113	0.46485
2844.63257	0.45833
2842.70400	0.45211
2840.77544	0.44609
2838.84687	0.44022
2836.91831	0.43451
2834.98975	0.42878
2833.06118	0.42284
2831.13262	0.41692
2829.20405	0.41116
2827.27549	0.40546
2825.34692	0.39969
2823.41836	0.39372
2821.48979	0.38763
2819.56123	0.38170
2817.63267	0.37595
2815.70410	0.37029
2813.77554	0.36477
2811.84697	0.35935
2809.91841	0.35404
2807.98984	0.34881
2806.06128	0.34355
2804.13271	0.33834
2802.20415	0.33346
2800.27559	0.32878
2798.34702	0.32410
2796.41846	0.31942
2794.48989	0.31474
2792.56133	0.31017
2790.63276	0.30589
2788.70420	0.30177
2786.77563	0.29758
2784.84707	0.29339
2782.91851	0.28931
2780.98994	0.28533
2779.06138	0.28143
2777.13281	0.27754
2775.20425	0.27362
2773.27568	0.26987
2771.34712	0.26643
2769.41855	0.26305
2767.48999	0.25960
2765.56143	0.25630
2763.63286	0.25314
2761.70430	0.25001
2759.77573	0.24686
2757.84717	0.24370
2755.91860	0.24065
2753.99004	0.23771
2752.06147	0.23484
2750.13291	0.23205
2748.20435	0.22924
2746.27578	0.22640
2744.34722	0.22373
2742.41865	0.22128
2740.49009	0.21887
2738.56152	0.21644
2736.63296	0.21404
2734.70439	0.21167
2732.77583	0.20944
2730.84727	0.20740
2728.91870	0.20536
2726.99014	0.20319
2725.06157	0.20100
2723.13301	0.19894
2721.20444	0.19703
2719.27588	0.19516
2717.34731	0.19329
2715.41875	0.19142
2713.49019	0.18951
2711.56162	0.18760
2709.63306	0.18583
2707.70449	0.18427
2705.77593	0.18278
2703.84736	0.18124
2701.91880	0.17968
2699.99023	0.17809
2698.06167	0.17647
2696.13311	0.17492
2694.20454	0.17352
2692.27598	0.17222
2690.34741	0.17100
2688.41885	0.16980
2686.49028	0.16857
2684.56172	0.16728
2682.63315	0.16599
2680.70459	0.16481
2678.77603	0.16374
2676.84746	0.16261
2674.91890	0.16139
2672.99033	0.16025
2671.06177	0.15931
2669.13320	0.15846
2667.20464	0.15751
2665.27607	0.15652
2663.34751	0.15561
2661.41895	0.15485
2659.49038	0.15414
2657.56182	0.15333
2655.63325	0.15244
2653.70469	0.15166
2651.77612	0.15105
2649.84756	0.15049
2647.91899	0.14983
2645.99043	0.14919
2644.06187	0.14871
2642.13330	0.14823
2640.20474	0.14773
2638.27617	0.14739
2636.34761	0.14713
2634.41904	0.14675
2632.49048	0.14631
2630.56191	0.14598
2628.63335	0.14568
2626.70479	0.14526
2624.77622	0.14476
2622.84766	0.14438
2620.91909	0.14422
2618.99053	0.14418
2617.06196	0.14411
2615.13340	0.14407
2613.20483	0.14409
2611.27627	0.14395
2609.34771	0.14373
2607.41914	0.14369
2605.49058	0.14377
2603.56201	0.14373
2601.63345	0.14362
2599.70488	0.14358
2597.77632	0.14372
2595.84775	0.14398
2593.91919	0.14424
2591.99062	0.14438
2590.06206	0.14453
2588.13350	0.14471
2586.20493	0.14486
2584.27637	0.14509
2582.34780	0.14542
2580.41924	0.14574
2578.49067	0.14604
2576.56211	0.14636
2574.63354	0.14672
2572.70498	0.14710
2570.77642	0.14757
2568.84785	0.14807
2566.91929	0.14850
2564.99072	0.14900
2563.06216	0.14954
2561.13359	0.14994
2559.20503	0.15031
2557.27646	0.15080
2555.34790	0.15134
2553.41934	0.15191
2551.49077	0.15254
2549.56221	0.15314
2547.63364	0.15370
2545.70508	0.15431
2543.77651	0.15500
2541.84795	0.15573
2539.91938	0.15634
2537.99082	0.15695
2536.06226	0.15771
2534.13369	0.15850
2532.20513	0.15925
2530.27656	0.16002
2528.34800	0.16075
2526.41943	0.16152
2524.49087	0.16239
2522.56230	0.16328
2520.63374	0.16402
2518.70518	0.16470
2516.77661	0.16553
2514.84805	0.16649
2512.91948	0.16740
2510.99092	0.16826
2509.06235	0.16913
2507.13379	0.16991
2505.20522	0.17064
2503.27666	0.17147
2501.34810	0.17239
2499.41953	0.17329
2497.49097	0.17419
2495.56240	0.17511
2493.63384	0.17603
2491.70527	0.17696
2489.77671	0.17782
2487.84814	0.17866
2485.91958	0.17961
2483.99102	0.18054
2482.06245	0.18135
2480.13389	0.18223
2478.20532	0.18321
2476.27676	0.18422
2474.34819	0.18525
2472.41963	0.18630
2470.49106	0.18729
2468.56250	0.18819
2466.63394	0.18915
2464.70537	0.19020
2462.77681	0.19119
2460.84824	0.19213
2458.91968	0.19311
2456.99111	0.19413
2455.06255	0.19514
2453.13398	0.19610
2451.20542	0.19701
2449.27686	0.19793
2447.34829	0.19891
2445.41973	0.19998
2443.49116	0.20109
2441.56260	0.20219
2439.63403	0.20330
2437.70547	0.20442
2435.77690	0.20550
2433.84834	0.20648
2431.91978	0.20744
2429.99121	0.20853
2428.06265	0.20967
2426.13408	0.21079
2424.20552	0.21199
2422.27695	0.21323
2420.34839	0.21436
2418.41982	0.21543
2416.49126	0.21663
2414.56270	0.21790
2412.63413	0.21908
2410.70557	0.22027
2408.77700	0.22152
2406.84844	0.22274
2404.91987	0.22401
2402.99131	0.22536
2401.06274	0.22660
2399.13418	0.22772
2397.20562	0.22894
2395.27705	0.23030
2393.34849	0.23157
2391.41992	0.23273
2389.49136	0.23390
2387.56279	0.23510
2385.63423	0.23621
2383.70566	0.23715
2381.77710	0.23766
2379.84854	0.23762
2377.91997	0.23727
2375.99141	0.23681
2374.06284	0.23624
2372.13428	0.23527
2370.20571	0.23366
2368.27715	0.23192
2366.34858	0.23118
2364.42002	0.23104
2362.49146	0.22990
2360.56289	0.22964
2358.63433	0.23271
2356.70576	0.23701
2354.77720	0.24108
2352.84863	0.24601
2350.92007	0.25084
2348.99150	0.25358
2347.06294	0.25390
2345.13437	0.25278
2343.20581	0.25228
2341.27725	0.25353
2339.34868	0.25572
2337.42012	0.25815
2335.49155	0.26020
2333.56299	0.26196
2331.63442	0.26402
2329.70586	0.26628
2327.77729	0.26843
2325.84873	0.27097
2323.92017	0.27409
2321.99160	0.27721
2320.06304	0.28040
2318.13447	0.28393
2316.20591	0.28721
2314.27734	0.28983
2312.34878	0.29203
2310.42021	0.29419
2308.49165	0.29645
2306.56309	0.29889
2304.63452	0.30138
2302.70596	0.30363
2300.77739	0.30569
2298.84883	0.30777
2296.92026	0.30999
2294.99170	0.31223
2293.06313	0.31437
2291.13457	0.31653
2289.20601	0.31885
2287.27744	0.32120
2285.34888	0.32341
2283.42031	0.32544
2281.49175	0.32736
2279.56318	0.32931
2277.63462	0.33136
2275.70605	0.33350
2273.77749	0.33565
2271.84893	0.33779
2269.92036	0.33992
2267.99180	0.34199
2266.06323	0.34404
2264.13467	0.34623
2262.20610	0.34854
2260.27754	0.35085
2258.34897	0.35318
2256.42041	0.35551
2254.49185	0.35770
2252.56328	0.35987
2250.63472	0.36216
2248.70615	0.36451
2246.77759	0.36686
2244.84902	0.36913
2242.92046	0.37138
2240.99189	0.37378
2239.06333	0.37617
2237.13477	0.37836
2235.20620	0.38045
2233.27764	0.38261
2231.34907	0.38495
2229.42051	0.38738
2227.49194	0.38979
2225.56338	0.39208
2223.63481	0.39430
2221.70625	0.39655
2219.77769	0.39881
2217.84912	0.40103
2215.92056	0.40326
2213.99199	0.40555
2212.06343	0.40785
2210.13486	0.41001
2208.20630	0.41199
2206.27773	0.41407
2204.34917	0.41626
2202.42061	0.41835
2200.49204	0.42040
2198.56348	0.42257
2196.63491	0.42469
2194.70635	0.42665
2192.77778	0.42851
2190.84922	0.43045
2188.92065	0.43241
2186.99209	0.43425
2185.06353	0.43604
2183.13496	0.43784
2181.20640	0.43959
2179.27783	0.44128
2177.34927	0.44294
2175.42070	0.44454
2173.49214	0.44610
2171.56357	0.44758
2169.63501	0.44899
2167.70645	0.45039
2165.77788	0.45169
2163.84932	0.45289
2161.92075	0.45409
2159.99219	0.45530
2158.06362	0.45644
2156.13506	0.45747
2154.20649	0.45836
2152.27793	0.45909
2150.34937	0.45976
2148.42080	0.46047
2146.49224	0.46114
2144.56367	0.46163
2142.63511	0.46201
2140.70654	0.46243
2138.77798	0.46284
2136.84941	0.46300
2134.92085	0.46298
2132.99229	0.46302
2131.06372	0.46306
2129.13516	0.46296
2127.20659	0.46273
2125.27803	0.46245
2123.34946	0.46212
2121.42090	0.46169
2119.49233	0.46116
2117.56377	0.46056
2115.63521	0.45985
2113.70664	0.45898
2111.77808	0.45810
2109.84951	0.45721
2107.92095	0.45623
2105.99238	0.45515
2104.06382	0.45402
2102.13525	0.45274
2100.20669	0.45141
2098.27812	0.45009
2096.34956	0.44864
2094.42100	0.44702
2092.49243	0.44531
2090.56387	0.44362
2088.63530	0.44191
2086.70674	0.44011
2084.77817	0.43829
2082.84961	0.43642
2080.92104	0.43440
2078.99248	0.43232
2077.06392	0.43028
2075.13535	0.42820
2073.20679	0.42607
2071.27822	0.42380
2069.34966	0.42145
2067.42109	0.41920
2065.49253	0.41702
2063.56396	0.41463
2061.63540	0.41207
2059.70684	0.40953
2057.77827	0.40702
2055.84971	0.40448
2053.92114	0.40190
2051.99258	0.39927
2050.06401	0.39664
2048.13545	0.39410
2046.20688	0.39154
2044.27832	0.38887
2042.34976	0.38610
2040.42119	0.38329
2038.49263	0.38051
2036.56406	0.37777
2034.63550	0.37499
2032.70693	0.37213
2030.77837	0.36925
2028.84980	0.36646
2026.92124	0.36375
2024.99268	0.36095
2023.06411	0.35804
2021.13555	0.35519
2019.20698	0.35254
2017.27842	0.34995
2015.34985	0.34712
2013.42129	0.34415
2011.49272	0.34129
2009.56416	0.33854
2007.63560	0.33584
2005.70703	0.33313
2003.77847	0.33046
2001.84990	0.32776
1999.92134	0.32503
1997.99277	0.32236
1996.06421	0.31981
1994.13564	0.31745
1992.20708	0.31519
1990.27852	0.31266
1988.34995	0.30994
1986.42139	0.30728
1984.49282	0.30469
1982.56426	0.30214
1980.63569	0.29973
1978.70713	0.29746
1976.77856	0.29523
1974.85000	0.29301
1972.92144	0.29079
1970.99287	0.28866
1969.06431	0.28682
1967.13574	0.28510
1965.20718	0.28297
1963.27861	0.28056
1961.35005	0.27837
1959.42148	0.27646
1957.49292	0.27464
1955.56436	0.27282
1953.63579	0.27096
1951.70723	0.26915
1949.77866	0.26747
1947.85010	0.26594
1945.92153	0.26456
1943.99297	0.26339
1942.06440	0.26207
1940.13584	0.26024
1938.20728	0.25836
1936.27871	0.25686
1934.35015	0.25558
1932.42158	0.25434
1930.49302	0.25310
1928.56445	0.25192
1926.63589	0.25085
1924.70732	0.25006
1922.77876	0.24942
1920.85020	0.24859
1918.92163	0.24776
1916.99307	0.24683
1915.06450	0.24558
1913.13594	0.24445
1911.20737	0.24378
1909.27881	0.24323
1907.35024	0.24245
1905.42168	0.24156
1903.49312	0.24085
1901.56455	0.24030
1899.63599	0.23980
1897.70742	0.23944
1895.77886	0.23923
1893.85029	0.23892
1891.92173	0.23856
1889.99316	0.23856
1888.06460	0.23843
1886.13604	0.23785
1884.20747	0.23729
1882.27891	0.23699
1880.35034	0.23691
1878.42178	0.23692
1876.49321	0.23697
1874.56465	0.23704
1872.63608	0.23726
1870.70752	0.23799
1868.77896	0.23922
1866.85039	0.23952
1864.92183	0.23864
1862.99326	0.23803
1861.06470	0.23814
1859.13613	0.23860
1857.20757	0.23900
1855.27900	0.23939
1853.35044	0.23977
1851.42187	0.24030
1849.49331	0.24116
1847.56475	0.24236
1845.63618	0.24387
1843.70762	0.24524
1841.77905	0.24555
1839.85049	0.24542
1837.92192	0.24602
1835.99336	0.24696
1834.06479	0.24786
1832.13623	0.24909
1830.20767	0.25105
1828.27910	0.25271
1826.35054	0.25350
1824.42197	0.25453
1822.49341	0.25555
1820.56484	0.25652
1818.63628	0.25788
1816.70771	0.25959
1814.77915	0.26127
1812.85059	0.26322
1810.92202	0.26560
1808.99346	0.26775
1807.06489	0.26953
1805.13633	0.27138
1803.20776	0.27379
1801.27920	0.27670
1799.35063	0.27966
1797.42207	0.28214
1795.49351	0.28470
1793.56494	0.28807
1791.63638	0.29206
1789.70781	0.29503
1787.77925	0.29706
1785.85068	0.30004
1783.92212	0.30386
1781.99355	0.30807
1780.06499	0.31248
1778.13643	0.31677
1776.20786	0.32095
1774.27930	0.32588
1772.35073	0.33246
1770.42217	0.33874
1768.49360	0.34342
1766.56504	0.34805
1764.63647	0.35327
1762.70791	0.35955
1760.77935	0.36732
1758.85078	0.37439
1756.92222	0.38158
1754.99365	0.38939
1753.06509	0.39665
1751.13652	0.40571
1749.20796	0.41690
1747.27939	0.42716
1745.35083	0.43585
1743.42227	0.44518
1741.49370	0.45576
1739.56514	0.46821
1737.63657	0.48061
1735.70801	0.49203
1733.77944	0.50942
1731.85088	0.52914
1729.92231	0.54401
1727.99375	0.55912
1726.06519	0.57593
1724.13662	0.59482
1722.20806	0.61532
1720.27949	0.63468
1718.35093	0.65788
1716.42236	0.69088
1714.49380	0.72088
1712.56523	0.74482
1710.63667	0.76857
1708.70811	0.79474
1706.77954	0.82478
1704.85098	0.86006
1702.92241	0.89145
1700.99385	0.92285
1699.06528	0.96853
1697.13672	1.00960
1695.20815	1.05063
1693.27959	1.09090
1691.35103	1.12402
1689.42246	1.16221
1687.49390	1.20257
1685.56533	1.24240
1683.63677	1.30140
1681.70820	1.36014
1679.77964	1.39821
1677.85107	1.43553
1675.92251	1.47899
1673.99395	1.53190
1672.06538	1.57927
1670.13682	1.62576
1668.20825	1.68331
1666.27969	1.72929
1664.35112	1.76902
1662.42256	1.81812
1660.49399	1.87203
1658.56543	1.91398
1656.63687	1.94903
1654.70830	1.98386
1652.77974	2.03900
1650.85117	2.08993
1648.92261	2.11061
1646.99404	2.13983
1645.06548	2.17288
1643.13691	2.19421
1641.20835	2.20833
1639.27979	2.22216
1637.35122	2.23267
1635.42266	2.23680
1633.49409	2.23141
1631.56553	2.21895
1629.63696	2.20425
1627.70840	2.17978
1625.77983	2.15070
1623.85127	2.11462
1621.92271	2.06978
1619.99414	2.02845
1618.06558	1.98842
1616.13701	1.93147
1614.20845	1.87063
1612.27988	1.82289
1610.35132	1.77379
1608.42275	1.72093
1606.49419	1.66841
1604.56562	1.61920
1602.63706	1.57164
1600.70850	1.52560
1598.77993	1.48295
1596.85137	1.44253
1594.92280	1.40340
1592.99424	1.36515
1591.06567	1.32926
1589.13711	1.29543
1587.20854	1.26378
1585.27998	1.23384
1583.35142	1.20526
1581.42285	1.17881
1579.49429	1.15601
1577.56572	1.13556
1575.63716	1.11022
1573.70859	1.08649
1571.78003	1.07037
1569.85146	1.05375
1567.92290	1.03446
1565.99434	1.01841
1564.06577	1.00500
1562.13721	0.99434
1560.20864	0.98635
1558.28008	0.97277
1556.35151	0.95804
1554.42295	0.94824
1552.49438	0.93897
1550.56582	0.92958
1548.63726	0.91948
1546.70869	0.91018
1544.78013	0.90193
1542.85156	0.89378
1540.92300	0.88359
1538.99443	0.86622
1537.06587	0.85126
1535.13730	0.84183
1533.20874	0.83147
1531.28018	0.82005
1529.35161	0.81143
1527.42305	0.80396
1525.49448	0.79620
1523.56592	0.78916
1521.63735	0.78227
1519.70879	0.77445
1517.78022	0.76759
1515.85166	0.76032
1513.92310	0.75261
1511.99453	0.74658
1510.06597	0.74247
1508.13740	0.73943
1506.20884	0.73274
1504.28027	0.72397
1502.35171	0.71850
1500.42314	0.71482
1498.49458	0.71182
1496.56602	0.70815
1494.63745	0.70360
1492.70889	0.70004
1490.78032	0.69800
1488.85176	0.69600
1486.92319	0.69272
1484.99463	0.68927
1483.06606	0.68670
1481.13750	0.68479
1479.20894	0.68305
1477.28037	0.68183
1475.35181	0.68128
1473.42324	0.68063
1471.49468	0.67818
1469.56611	0.67451
1467.63755	0.67168
1465.70898	0.66993
1463.78042	0.66834
1461.85186	0.66673
1459.92329	0.66612
1457.99473	0.66618
1456.06616	0.66379
1454.13760	0.65925
1452.20903	0.65572
1450.28047	0.65298
1448.35190	0.65055
1446.42334	0.64794
1444.49478	0.64530
1442.56621	0.64312
1440.63765	0.64140
1438.70908	0.64020
1436.78052	0.63920
1434.85195	0.63754
1432.92339	0.63552
1430.99482	0.63392
1429.06626	0.63261
1427.13770	0.63141
1425.20913	0.63062
1423.28057	0.63008
1421.35200	0.62946
1419.42344	0.62898
1417.49487	0.62780
1415.56631	0.62542
1413.63774	0.62320
1411.70918	0.62149
1409.78062	0.61992
1407.85205	0.61856
1405.92349	0.61769
1403.99492	0.61668
1402.06636	0.61516
1400.13779	0.61379
1398.20923	0.61254
1396.28066	0.61104
1394.35210	0.60893
1392.42354	0.60626
1390.49497	0.60399
1388.56641	0.60250
1386.63784	0.60090
1384.70928	0.59868
1382.78071	0.59653
1380.85215	0.59487
1378.92358	0.59365
1376.99502	0.59283
1375.06646	0.59238
1373.13789	0.59179
1371.20933	0.59088
1369.28076	0.59020
1367.35220	0.58966
1365.42363	0.58898
1363.49507	0.58830
1361.56650	0.58734
1359.63794	0.58588
1357.70937	0.58451
1355.78081	0.58342
1353.85225	0.58235
1351.92368	0.58121
1349.99512	0.58011
1348.06655	0.57894
1346.13799	0.57764
1344.20942	0.57648
1342.28086	0.57571
1340.35229	0.57516
1338.42373	0.57421
1336.49517	0.57273
1334.56660	0.57137
1332.63804	0.57050
1330.70947	0.56997
1328.78091	0.56953
1326.85234	0.56907
1324.92378	0.56856
1322.99521	0.56810
1321.06665	0.56775
1319.13809	0.56736
1317.20952	0.56681
1315.28096	0.56619
1313.35239	0.56547
1311.42383	0.56450
1309.49526	0.56331
1307.56670	0.56208
1305.63813	0.56091
1303.70957	0.55990
1301.78101	0.55901
1299.85244	0.55802
1297.92388	0.55701
1295.99531	0.55611
1294.06675	0.55526
1292.13818	0.55434
1290.20962	0.55346
1288.28105	0.55278
1286.35249	0.55221
1284.42393	0.55155
1282.49536	0.55080
1280.56680	0.54999
1278.63823	0.54912
1276.70967	0.54830
1274.78110	0.54760
1272.85254	0.54699
1270.92397	0.54643
1268.99541	0.54586
1267.06685	0.54532
1265.13828	0.54491
1263.20972	0.54465
1261.28115	0.54434
1259.35259	0.54390
1257.42402	0.54345
1255.49546	0.54308
1253.56689	0.54275
1251.63833	0.54253
1249.70977	0.54246
1247.78120	0.54234
1245.85264	0.54216
1243.92407	0.54184
1241.99551	0.54123
1240.06694	0.54047
1238.13838	0.53971
1236.20981	0.53880
1234.28125	0.53777
1232.35269	0.53685
1230.42412	0.53603
1228.49556	0.53511
1226.56699	0.53397
1224.63843	0.53278
1222.70986	0.53167
1220.78130	0.53066
1218.85273	0.52971
1216.92417	0.52880
1214.99561	0.52804
1213.06704	0.52743
1211.13848	0.52695
1209.20991	0.52648
1207.28135	0.52584
1205.35278	0.52526
1203.42422	0.52485
1201.49565	0.52430
1199.56709	0.52353
1197.63853	0.52276
1195.70996	0.52201
1193.78140	0.52128
1191.85283	0.52070
1189.92427	0.52026
1187.99570	0.51984
1186.06714	0.51953
1184.13857	0.51950
1182.21001	0.51966
1180.28145	0.51985
1178.35288	0.52022
1176.42432	0.52095
1174.49575	0.52191
1172.56719	0.52286
1170.63862	0.52377
1168.71006	0.52460
1166.78149	0.52539
1164.85293	0.52614
1162.92437	0.52690
1160.99580	0.52774
1159.06724	0.52838
1157.13867	0.52837
1155.21011	0.52775
1153.28154	0.52688
1151.35298	0.52556
1149.42441	0.52350
1147.49585	0.52093
1145.56729	0.51817
1143.63872	0.51542
1141.71016	0.51295
1139.78159	0.51077
1137.85303	0.50883
1135.92446	0.50737
1133.99590	0.50643
1132.06733	0.50566
1130.13877	0.50495
1128.21021	0.50431
1126.28164	0.50363
1124.35308	0.50305
1122.42451	0.50276
1120.49595	0.50260
1118.56738	0.50246
1116.63882	0.50261
1114.71025	0.50322
1112.78169	0.50403
1110.85312	0.50481
1108.92456	0.50572
1106.99600	0.50675
1105.06743	0.50762
1103.13887	0.50829
1101.21030	0.50912
1099.28174	0.51044
1097.35317	0.51227
1095.42461	0.51474
1093.49604	0.51841
1091.56748	0.52360
1089.63892	0.53029
1087.71035	0.53849
1085.78179	0.54790
1083.85322	0.55746
1081.92466	0.56585
1079.99609	0.57185
1078.06753	0.57472
1076.13896	0.57415
1074.21040	0.57025
1072.28184	0.56401
1070.35327	0.55682
1068.42471	0.54935
1066.49614	0.54205
1064.56758	0.53544
1062.63901	0.52973
1060.71045	0.52505
1058.78188	0.52141
1056.85332	0.51819
1054.92476	0.51507
1052.99619	0.51230
1051.06763	0.51024
1049.13906	0.50908
1047.21050	0.50897
1045.28193	0.50963
1043.35337	0.51047
1041.42480	0.51127
1039.49624	0.51208
1037.56768	0.51267
1035.63911	0.51284
1033.71055	0.51255
1031.78198	0.51150
1029.85342	0.50954
1027.92485	0.50722
1025.99629	0.50525
1024.06772	0.50401
1022.13916	0.50329
1020.21060	0.50271
1018.28203	0.50233
1016.35347	0.50232
1014.42490	0.50244
1012.49634	0.50238
1010.56777	0.50216
1008.63921	0.50203
1006.71064	0.50221
1004.78208	0.50301
1002.85352	0.50461
1000.92495	0.50695
998.99639	0.51011
997.06782	0.51419
995.13926	0.51877
993.21069	0.52294
991.28213	0.52610
989.35356	0.52811
987.42500	0.52899
985.49644	0.52904
983.56787	0.52877
981.63931	0.52874
979.71074	0.52948
977.78218	0.53108
975.85361	0.53320
973.92505	0.53572
971.99648	0.53874
970.06792	0.54203
968.13936	0.54552
966.21079	0.54946
964.28223	0.55381
962.35366	0.55850
960.42510	0.56355
958.49653	0.56895
956.56797	0.57470
954.63940	0.58083
952.71084	0.58729
950.78228	0.59389
948.85371	0.60036
946.92515	0.60679
944.99658	0.61320
943.06802	0.61932
941.13945	0.62528
939.21089	0.63124
937.28232	0.63712
935.35376	0.64293
933.42520	0.64870
931.49663	0.65428
929.56807	0.65987
927.63950	0.66600
925.71094	0.67254
923.78237	0.67899
921.85381	0.68541
919.92524	0.69237
917.99668	0.70004
916.06812	0.70781
914.13955	0.71526
912.21099	0.72223
910.28242	0.72912
908.35386	0.73714
906.42529	0.74649
904.49673	0.75581
902.56816	0.76438
900.63960	0.77334
898.71104	0.78342
896.78247	0.79371
894.85391	0.80374
892.92534	0.81366
890.99678	0.82360
889.06821	0.83422
887.13965	0.84598
885.21108	0.85804
883.28252	0.86921
881.35396	0.87998
879.42539	0.89138
877.49683	0.90339
875.56826	0.91545
873.63970	0.92693
871.71113	0.93819
869.78257	0.95002
867.85400	0.96211
865.92544	0.97393
863.99687	0.98545
862.06831	0.99579
860.13975	1.00496
858.21118	1.01583
856.28262	1.02918
854.35405	1.04226
852.42549	1.05384
850.49692	1.06494
848.56836	1.07625
846.63979	1.08860
844.71123	1.10255
842.78267	1.11683
840.85410	1.12930
838.92554	1.13813
836.99697	1.14623
835.06841	1.15926
833.13984	1.17540
831.21128	1.18906
829.28271	1.20212
827.35415	1.21763
825.42559	1.23236
823.49702	1.24475
821.56846	1.25407
819.63989	1.26331
817.71133	1.28067
815.78276	1.29933
813.85420	1.30596
811.92563	1.31401
809.99707	1.33781
808.06851	1.36086
806.13994	1.36973
804.21138	1.37526
802.28281	1.39003
800.35425	1.41551
798.42568	1.45544
796.49712	1.51424
794.56855	1.56238
792.63999	1.55712
790.71143	1.52041
788.78286	1.50490
786.85430	1.51857
784.92573	1.55648
782.99717	1.62171
781.06860	1.66569
779.14004	1.62445
777.21147	1.55490
775.28291	1.52049
773.35435	1.54786
771.42578	1.61197
769.49722	1.58798
767.56865	1.57944
765.64009	1.77802
763.71152	2.10044
761.78296	1.68396
759.85439	1.41644
757.92583	1.34054
755.99727	1.32852
754.06870	1.25883
752.14014	1.18409
750.21157	1.18559
748.28301	1.21802
746.35444	1.14942
744.42588	1.03345
742.49731	0.99217
740.56875	0.94278
738.64019	0.84462
736.71162	0.82959
734.78306	0.92702
732.85449	1.01281
730.92593	0.95452
728.99736	0.69118
727.06880	0.43199
725.14023	0.32317
723.21167	0.29106
721.28311	0.23510
719.35454	0.19463
717.42598	0.23827
715.49741	0.23948
713.56885	0.21451
711.64028	0.28238
709.71172	0.41910
707.78315	0.41054
705.85459	0.33776
703.92603	0.32939
701.99746	0.37958
700.06890	0.46011
698.14033	0.56823
696.21177	0.55899
694.28320	0.44091
692.35464	0.43478
690.42607	0.55009
688.49751	0.58090
686.56895	0.50651
684.64038	0.42858
682.71182	0.41085
680.78325	0.49601
678.85469	0.57826
676.92612	0.50097
674.99756	0.34385
673.06899	0.21211
671.14043	0.17088
669.21187	0.18195
667.28330	0.20912
665.35474	0.25566
663.42617	0.29852
661.49761	0.30391
659.56904	0.28489
657.64048	0.33223
655.71191	0.44150
653.78335	0.40188
651.85479	0.28649
649.92622	0.24682
647.99766	0.22895
646.06909	0.20705
644.14053	0.19641
642.21196	0.17420
640.28340	0.19741
638.35483	0.33566
636.42627	0.42052
634.49771	0.26661
632.56914	0.15855
630.64058	0.14899
628.71201	0.18696
626.78345	0.23499
624.85488	0.26795
622.92632	0.27162
620.99775	0.29218
619.06919	0.32301
617.14062	0.29331
615.21206	0.23424
613.28350	0.24221
611.35493	0.26594
609.42637	0.22471
607.49780	0.19973
605.56924	0.22759
603.64067	0.21256
601.71211	0.21313
599.78354	0.26737
597.85498	0.31722
595.92642	0.31192
593.99785	0.26150
592.06929	0.19753
590.14072	0.18007
588.21216	0.21991
586.28359	0.27171
584.35503	0.28601
582.42646	0.28148
580.49790	0.26283
578.56934	0.21103
576.64077	0.16211
574.71221	0.12952
572.78364	0.12038
570.85508	0.14236
568.92651	0.18356
566.99795	0.20647
565.06938	0.21063
563.14082	0.23442
561.21226	0.29106
559.28369	0.35608
557.35513	0.39492
555.42656	0.38847
553.49800	0.33904
551.56943	0.29632
549.64087	0.29960
547.71230	0.30773
545.78374	0.28145
543.85518	0.21853
541.92661	0.16739
539.99805	0.17995
538.06948	0.24384
536.14092	0.28746
534.21235	0.25765
532.28379	0.21646
530.35522	0.23282
528.42666	0.27934
526.49810	0.28965
524.56953	0.26894
522.64097	0.25805
520.71240	0.29339
518.78384	0.31458
516.85527	0.25228
514.92671	0.24105
512.99814	0.28266
511.06958	0.25573
509.14102	0.21978
507.21245	0.22173
505.28389	0.22253
503.35532	0.24027
501.42676	0.25180
499.49819	0.21417
