3997.91411	0.05916
3995.98555	0.05958
3994.05698	0.06022
3992.12842	0.06089
3990.19985	0.06138
3988.27129	0.06147
3986.34272	0.06139
3984.41416	0.06155
3982.48560	0.06200
3980.55703	0.06244
3978.62847	0.06277
3976.69990	0.06316
3974.77134	0.06350
3972.84277	0.06345
3970.91421	0.06315
3968.98564	0.06321
3967.05708	0.06345
3965.12852	0.06344
3963.19995	0.06365
3961.27139	0.06427
3959.34282	0.06471
3957.41426	0.06461
3955.48569	0.06435
3953.55713	0.06445
3951.62856	0.06520
3949.70000	0.06631
3947.77144	0.06676
3945.84287	0.06621
3943.91431	0.06599
3941.98574	0.06632
3940.05718	0.06577
3938.12861	0.06463
3936.20005	0.06434
3934.27148	0.06516
3932.34292	0.06662
3930.41436	0.06757
3928.48579	0.06703
3926.55723	0.06633
3924.62866	0.06681
3922.70010	0.06714
3920.77153	0.06659
3918.84297	0.06631
3916.91440	0.06648
3914.98584	0.06609
3913.05728	0.06499
3911.12871	0.06418
3909.20015	0.06418
3907.27158	0.06522
3905.34302	0.06760
3903.41445	0.07052
3901.48589	0.07217
3899.55732	0.07194
3897.62876	0.07000
3895.70020	0.06741
3893.77163	0.06636
3891.84307	0.06726
3889.91450	0.06795
3887.98594	0.06740
3886.05737	0.06765
3884.12881	0.06911
3882.20024	0.07016
3880.27168	0.07041
3878.34312	0.06914
3876.41455	0.06749
3874.48599	0.06798
3872.55742	0.07009
3870.62886	0.07237
3868.70029	0.07362
3866.77173	0.07272
3864.84316	0.07223
3862.91460	0.07282
3860.98604	0.07193
3859.05747	0.07056
3857.12891	0.07115
3855.20034	0.07432
3853.27178	0.07992
3851.34321	0.08189
3849.41465	0.07712
3847.48608	0.07305
3845.55752	0.07246
3843.62896	0.07463
3841.70039	0.07764
3839.77183	0.08054
3837.84326	0.08277
3835.91470	0.08260
3833.98613	0.08084
3832.05757	0.07952
3830.12900	0.07894
3828.20044	0.07899
3826.27187	0.07979
3824.34331	0.08126
3822.41475	0.08395
3820.48618	0.08794
3818.55762	0.08959
3816.62905	0.08920
3814.70049	0.08884
3812.77192	0.08719
3810.84336	0.08565
3808.91479	0.08633
3806.98623	0.08921
3805.05767	0.09208
3803.12910	0.09408
3801.20054	0.09691
3799.27197	0.09861
3797.34341	0.09810
3795.41484	0.09776
3793.48628	0.09731
3791.55771	0.09683
3789.62915	0.09731
3787.70059	0.09871
3785.77202	0.10086
3783.84346	0.10311
3781.91489	0.10471
3779.98633	0.10656
3778.05776	0.10885
3776.12920	0.10977
3774.20063	0.10998
3772.27207	0.11145
3770.34351	0.11489
3768.41494	0.11873
3766.48638	0.12086
3764.55781	0.12215
3762.62925	0.12358
3760.70068	0.12601
3758.77212	0.12980
3756.84355	0.13304
3754.91499	0.13511
3752.98643	0.13839
3751.05786	0.14467
3749.12930	0.15125
3747.20073	0.15389
3745.27217	0.15568
3743.34360	0.15931
3741.41504	0.16278
3739.48647	0.16600
3737.55791	0.17164
3735.62935	0.18095
3733.70078	0.19038
3731.77222	0.19479
3729.84365	0.19710
3727.91509	0.20096
3725.98652	0.20732
3724.05796	0.21420
3722.12939	0.21925
3720.20083	0.22337
3718.27227	0.22737
3716.34370	0.23147
3714.41514	0.23717
3712.48657	0.24803
3710.55801	0.26575
3708.62944	0.28220
3706.70088	0.29248
3704.77231	0.30233
3702.84375	0.31570
3700.91519	0.33306
3698.98662	0.35068
3697.05806	0.36719
3695.12949	0.38551
3693.20093	0.40579
3691.27236	0.42865
3689.34380	0.45745
3687.41523	0.48995
3685.48667	0.51726
3683.55811	0.54172
3681.62954	0.56968
3679.70098	0.60231
3677.77241	0.63735
3675.84385	0.67871
3673.91528	0.73102
3671.98672	0.77259
3670.05815	0.81105
3668.12959	0.86357
3666.20103	0.91082
3664.27246	0.95069
3662.34390	0.99423
3660.41533	1.04191
3658.48677	1.08947
3656.55820	1.13974
3654.62964	1.19470
3652.70107	1.24202
3650.77251	1.28626
3648.84395	1.34601
3646.91538	1.41236
3644.98682	1.45888
3643.05825	1.49660
3641.12969	1.53747
3639.20112	1.58281
3637.27256	1.62831
3635.34399	1.67330
3633.41543	1.71899
3631.48687	1.76211
3629.55830	1.80603
3627.62974	1.86130
3625.70117	1.91086
3623.77261	1.94405
3621.84404	1.97620
3619.91548	2.01389
3617.98691	2.05956
3616.05835	2.10270
3614.12979	2.13795
3612.20122	2.17557
3610.27266	2.21554
3608.34409	2.25754
3606.41553	2.30155
3604.48696	2.34127
3602.55840	2.37778
3600.62983	2.41814
3598.70127	2.46076
3596.77271	2.50100
3594.84414	2.54130
3592.91558	2.58259
3590.98701	2.62104
3589.05845	2.65728
3587.12988	2.70120
3585.20132	2.74947
3583.27275	2.79012
3581.34419	2.82749
3579.41562	2.86757
3577.48706	2.90973
3575.55850	2.95173
3573.62993	2.99383
3571.70137	3.03515
3569.77280	3.07732
3567.84424	3.12381
3565.91567	3.17808
3563.98711	3.22977
3562.05854	3.27175
3560.12998	3.31173
3558.20142	3.35443
3556.27285	3.39923
3554.34429	3.44383
3552.41572	3.49075
3550.48716	3.53903
3548.55859	3.58557
3546.63003	3.63160
3544.70146	3.67946
3542.77290	3.72723
3540.84434	3.77272
3538.91577	3.81890
3536.98721	3.86790
3535.05864	3.91875
3533.13008	3.96704
3531.20151	4.01365
3529.27295	4.06137
3527.34438	4.11085
3525.41582	4.16076
3523.48726	4.21144
3521.55869	4.26358
3519.63013	4.31225
3517.70156	4.35841
3515.77300	4.40452
3513.84443	4.45059
3511.91587	4.49868
3509.98730	4.55057
3508.05874	4.60112
3506.13018	4.64590
3504.20161	4.69210
3502.27305	4.74238
3500.34448	4.78995
3498.41592	4.83614
3496.48735	4.88680
3494.55879	4.93866
3492.63022	4.98652
3490.70166	5.03188
3488.77310	5.08162
3486.84453	5.13577
3484.91597	5.18391
3482.98740	5.22502
3481.05884	5.26903
3479.13027	5.31800
3477.20171	5.36795
3475.27314	5.41953
3473.34458	5.47177
3471.41602	5.52045
3469.48745	5.56700
3467.55889	5.61460
3465.63032	5.66361
3463.70176	5.71942
3461.77319	5.77703
3459.84463	5.82396
3457.91606	5.87096
3455.98750	5.92858
3454.05894	5.97638
3452.13037	6.01353
3450.20181	6.06501
3448.27324	6.12577
3446.34468	6.18385
3444.41611	6.23930
3442.48755	6.29602
3440.55898	6.35812
3438.63042	6.41986
3436.70186	6.46355
3434.77329	6.49429
3432.84473	6.53534
3430.91616	6.57943
3428.98760	6.62142
3427.05903	6.67526
3425.13047	6.74094
3423.20190	6.79205
3421.27334	6.82373
3419.34478	6.87610
3417.41621	6.97072
3415.48765	7.03118
3413.55908	7.01860
3411.63052	7.03532
3409.70195	7.09833
3407.77339	7.14900
3405.84482	7.18460
3403.91626	7.21198
3401.98770	7.22132
3400.05913	7.24041
3398.13057	7.29459
3396.20200	7.36716
3394.27344	7.44622
3392.34487	7.50593
3390.41631	7.55768
3388.48774	7.61944
3386.55918	7.68102
3384.63062	7.74254
3382.70205	7.78562
3380.77349	7.78577
3378.84492	7.76252
3376.91636	7.75581
3374.98779	7.80509
3373.05923	7.90577
3371.13066	7.94724
3369.20210	7.93536
3367.27354	7.93424
3365.34497	7.95990
3363.41641	8.06995
3361.48784	8.20429
3359.55928	8.23592
3357.63071	8.18186
3355.70215	8.12022
3353.77358	8.09305
3351.84502	8.12874
3349.91646	8.17983
3347.98789	8.21340
3346.05933	8.24524
3344.13076	8.27151
3342.20220	8.28874
3340.27363	8.26989
3338.34507	8.21260
3336.41650	8.14790
3334.48794	8.16113
3332.55937	8.24357
3330.63081	8.26136
3328.70225	8.18726
3326.77368	8.13707
3324.84512	8.16194
3322.91655	8.19174
3320.98799	8.21866
3319.05942	8.26680
3317.13086	8.30875
3315.20229	8.35550
3313.27373	8.41319
3311.34517	8.38145
3309.41660	8.26563
3307.48804	8.20797
3305.55947	8.25566
3303.63091	8.31091
3301.70234	8.29858
3299.77378	8.30034
3297.84521	8.33962
3295.91665	8.40808
3293.98809	8.48914
3292.05952	8.53724
3290.13096	8.55664
3288.20239	8.51853
3286.27383	8.41106
3284.34526	8.30261
3282.41670	8.28876
3280.48813	8.38341
3278.55957	8.47480
3276.63101	8.43883
3274.70244	8.36671
3272.77388	8.40244
3270.84531	8.51259
3268.91675	8.52042
3266.98818	8.41837
3265.05962	8.41329
3263.13105	8.47044
3261.20249	8.43697
3259.27393	8.37993
3257.34536	8.43186
3255.41680	8.61593
3253.48823	8.74981
3251.55967	8.64438
3249.63110	8.52767
3247.70254	8.57666
3245.77397	8.62614
3243.84541	8.53816
3241.91685	8.40107
3239.98828	8.35692
3238.05972	8.42135
3236.13115	8.49955
3234.20259	8.49513
3232.27402	8.39597
3230.34546	8.33774
3228.41689	8.31145
3226.48833	8.21391
3224.55977	8.16712
3222.63120	8.25180
3220.70264	8.30240
3218.77407	8.23368
3216.84551	8.18546
3214.91694	8.18663
3212.98838	8.20000
3211.05981	8.23315
3209.13125	8.22895
3207.20269	8.17350
3205.27412	8.10801
3203.34556	8.04650
3201.41699	7.99580
3199.48843	7.94430
3197.55986	7.93132
3195.63130	7.95080
3193.70273	7.91594
3191.77417	7.83161
3189.84561	7.73571
3187.91704	7.61365
3185.98848	7.51451
3184.05991	7.48899
3182.13135	7.48244
3180.20278	7.46071
3178.27422	7.44192
3176.34565	7.42500
3174.41709	7.36843
3172.48853	7.26135
3170.55996	7.17137
3168.63140	7.11895
3166.70283	7.06315
3164.77427	6.99388
3162.84570	6.93004
3160.91714	6.85975
3158.98857	6.78430
3157.06001	6.71726
3155.13145	6.63111
3153.20288	6.53162
3151.27432	6.46333
3149.34575	6.41834
3147.41719	6.35831
3145.48862	6.28470
3143.56006	6.21208
3141.63149	6.14216
3139.70293	6.07533
3137.77437	6.00913
3135.84580	5.94099
3133.91724	5.87040
3131.98867	5.80065
3130.06011	5.73652
3128.13154	5.67216
3126.20298	5.59869
3124.27441	5.52046
3122.34585	5.44389
3120.41729	5.37001
3118.48872	5.29688
3116.56016	5.22545
3114.63159	5.15930
3112.70303	5.09431
3110.77446	5.02493
3108.84590	4.95332
3106.91733	4.88363
3104.98877	4.81502
3103.06021	4.74597
3101.13164	4.67562
3099.20308	4.60405
3097.27451	4.53617
3095.34595	4.47289
3093.41738	4.40853
3091.48882	4.34245
3089.56025	4.27804
3087.63169	4.21473
3085.70312	4.15041
3083.77456	4.08538
3081.84600	4.02144
3079.91743	3.95949
3077.98887	3.90134
3076.06030	3.84626
3074.13174	3.78716
3072.20317	3.72348
3070.27461	3.66311
3068.34604	3.60786
3066.41748	3.55361
3064.48892	3.49827
3062.56035	3.44141
3060.63179	3.38404
3058.70322	3.32816
3056.77466	3.27370
3054.84609	3.21979
3052.91753	3.16575
3050.98896	3.11228
3049.06040	3.06109
3047.13184	3.01115
3045.20327	2.96126
3043.27471	2.91232
3041.34614	2.86423
3039.41758	2.81589
3037.48901	2.76716
3035.56045	2.71891
3033.63188	2.67190
3031.70332	2.62646
3029.77476	2.58235
3027.84619	2.53922
3025.91763	2.49616
3023.98906	2.45283
3022.06050	2.41039
3020.13193	2.36895
3018.20337	2.32756
3016.27480	2.28611
3014.34624	2.24540
3012.41768	2.20572
3010.48911	2.16685
3008.56055	2.12949
3006.63198	2.09319
3004.70342	2.05655
3002.77485	2.02033
3000.84629	1.98545
2998.91772	1.95118
2996.98916	1.91747
2995.06060	1.88472
2993.13203	1.85258
2991.20347	1.82114
2989.27490	1.79061
2987.34634	1.76056
2985.41777	1.73068
2983.48921	1.70128
2981.56064	1.67275
2979.63208	1.64492
2977.70352	1.61744
2975.77495	1.59035
2973.84639	1.56382
2971.91782	1.53796
2969.98926	1.51263
2968.06069	1.48753
2966.13213	1.46283
2964.20356	1.43836
2962.27500	1.41363
2960.34644	1.38876
2958.41787	1.36395
2956.48931	1.33950
2954.56074	1.31573
2952.63218	1.29238
2950.70361	1.26926
2948.77505	1.24657
2946.84648	1.22433
2944.91792	1.20221
2942.98936	1.18035
2941.06079	1.15936
2939.13223	1.13902
2937.20366	1.11847
2935.27510	1.09779
2933.34653	1.07759
2931.41797	1.05789
2929.48940	1.03865
2927.56084	1.01995
2925.63228	1.00152
2923.70371	0.98326
2921.77515	0.96527
2919.84658	0.94764
2917.91802	0.93053
2915.98945	0.91391
2914.06089	0.89763
2912.13232	0.88157
2910.20376	0.86584
2908.27520	0.85044
2906.34663	0.83540
2904.41807	0.82088
2902.48950	0.80683
2900.56094	0.79329
2898.63237	0.78026
2896.70381	0.76729
2894.77524	0.75433
2892.84668	0.74183
2890.91812	0.72983
2888.98955	0.71815
2887.06099	0.70658
2885.13242	0.69508
2883.20386	0.68417
2881.27529	0.67422
2879.34673	0.66469
2877.41816	0.65509
2875.48960	0.64518
2873.56104	0.63467
2871.63247	0.62371
2869.70391	0.61261
2867.77534	0.60117
2865.84678	0.58941
2863.91821	0.57783
2861.98965	0.56671
2860.06108	0.55594
2858.13252	0.54544
2856.20396	0.53540
2854.27539	0.52610
2852.34683	0.51735
2850.41826	0.50883
2848.48970	0.50058
2846.56113	0.49278
2844.63257	0.48542
2842.70400	0.47827
2840.77544	0.47138
2838.84687	0.46482
2836.91831	0.45850
2834.98975	0.45224
2833.06118	0.44599
2831.13262	0.43990
2829.20405	0.43396
2827.27549	0.42812
2825.34692	0.42232
2823.41836	0.41636
2821.48979	0.41022
2819.56123	0.40411
2817.63267	0.39812
2815.70410	0.39228
2813.77554	0.38667
2811.84697	0.38114
2809.91841	0.37555
2807.98984	0.36998
2806.06128	0.36446
2804.13271	0.35913
2802.20415	0.35403
2800.27559	0.34906
2798.34702	0.34423
2796.41846	0.33957
2794.48989	0.33488
2792.56133	0.33008
2790.63276	0.32531
2788.70420	0.32069
2786.77563	0.31623
2784.84707	0.31192
2782.91851	0.30775
2780.98994	0.30354
2779.06138	0.29934
2777.13281	0.29527
2775.20425	0.29123
2773.27568	0.28720
2771.34712	0.28342
2769.41855	0.27981
2767.48999	0.27622
2765.56143	0.27282
2763.63286	0.26947
2761.70430	0.26602
2759.77573	0.26256
2757.84717	0.25920
2755.91860	0.25601
2753.99004	0.25290
2752.06147	0.24985
2750.13291	0.24698
2748.20435	0.24415
2746.27578	0.24129
2744.34722	0.23848
2742.41865	0.23574
2740.49009	0.23307
2738.56152	0.23052
2736.63296	0.22812
2734.70439	0.22568
2732.77583	0.22309
2730.84727	0.22068
2728.91870	0.21851
2726.99014	0.21627
2725.06157	0.21385
2723.13301	0.21153
2721.20444	0.20948
2719.27588	0.20757
2717.34731	0.20566
2715.41875	0.20371
2713.49019	0.20177
2711.56162	0.19989
2709.63306	0.19800
2707.70449	0.19619
2705.77593	0.19452
2703.84736	0.19286
2701.91880	0.19120
2699.99023	0.18963
2698.06167	0.18815
2696.13311	0.18672
2694.20454	0.18534
2692.27598	0.18405
2690.34741	0.18273
2688.41885	0.18128
2686.49028	0.17984
2684.56172	0.17851
2682.63315	0.17730
2680.70459	0.17618
2678.77603	0.17504
2676.84746	0.17384
2674.91890	0.17266
2672.99033	0.17151
2671.06177	0.17038
2669.13320	0.16929
2667.20464	0.16820
2665.27607	0.16715
2663.34751	0.16625
2661.41895	0.16544
2659.49038	0.16465
2657.56182	0.16390
2655.63325	0.16307
2653.70469	0.16208
2651.77612	0.16119
2649.84756	0.16060
2647.91899	0.16013
2645.99043	0.15967
2644.06187	0.15915
2642.13330	0.15844
2640.20474	0.15774
2638.27617	0.15730
2636.34761	0.15692
2634.41904	0.15632
2632.49048	0.15568
2630.56191	0.15531
2628.63335	0.15507
2626.70479	0.15461
2624.77622	0.15401
2622.84766	0.15358
2620.91909	0.15340
2618.99053	0.15333
2617.06196	0.15320
2615.13340	0.15304
2613.20483	0.15296
2611.27627	0.15285
2609.34771	0.15262
2607.41914	0.15240
2605.49058	0.15226
2603.56201	0.15213
2601.63345	0.15206
2599.70488	0.15205
2597.77632	0.15208
2595.84775	0.15219
2593.91919	0.15229
2591.99062	0.15236
2590.06206	0.15247
2588.13350	0.15258
2586.20493	0.15261
2584.27637	0.15279
2582.34780	0.15320
2580.41924	0.15355
2578.49067	0.15372
2576.56211	0.15387
2574.63354	0.15407
2572.70498	0.15434
2570.77642	0.15474
2568.84785	0.15519
2566.91929	0.15555
2564.99072	0.15594
2563.06216	0.15642
2561.13359	0.15686
2559.20503	0.15720
2557.27646	0.15755
2555.34790	0.15796
2553.41934	0.15841
2551.49077	0.15898
2549.56221	0.15966
2547.63364	0.16033
2545.70508	0.16089
2543.77651	0.16140
2541.84795	0.16193
2539.91938	0.16252
2537.99082	0.16319
2536.06226	0.16386
2534.13369	0.16445
2532.20513	0.16505
2530.27656	0.16574
2528.34800	0.16651
2526.41943	0.16731
2524.49087	0.16807
2522.56230	0.16874
2520.63374	0.16941
2518.70518	0.17021
2516.77661	0.17113
2514.84805	0.17203
2512.91948	0.17277
2510.99092	0.17345
2509.06235	0.17422
2507.13379	0.17502
2505.20522	0.17581
2503.27666	0.17655
2501.34810	0.17730
2499.41953	0.17819
2497.49097	0.17919
2495.56240	0.18009
2493.63384	0.18082
2491.70527	0.18156
2489.77671	0.18236
2487.84814	0.18319
2485.91958	0.18402
2483.99102	0.18479
2482.06245	0.18563
2480.13389	0.18660
2478.20532	0.18758
2476.27676	0.18848
2474.34819	0.18942
2472.41963	0.19043
2470.49106	0.19135
2468.56250	0.19219
2466.63394	0.19300
2464.70537	0.19385
2462.77681	0.19480
2460.84824	0.19574
2458.91968	0.19661
2456.99111	0.19759
2455.06255	0.19868
2453.13398	0.19971
2451.20542	0.20057
2449.27686	0.20143
2447.34829	0.20243
2445.41973	0.20352
2443.49116	0.20459
2441.56260	0.20563
2439.63403	0.20667
2437.70547	0.20772
2435.77690	0.20867
2433.84834	0.20954
2431.91978	0.21049
2429.99121	0.21148
2428.06265	0.21249
2426.13408	0.21359
2424.20552	0.21475
2422.27695	0.21592
2420.34839	0.21707
2418.41982	0.21822
2416.49126	0.21941
2414.56270	0.22066
2412.63413	0.22183
2410.70557	0.22286
2408.77700	0.22397
2406.84844	0.22523
2404.91987	0.22653
2402.99131	0.22775
2401.06274	0.22892
2399.13418	0.23006
2397.20562	0.23124
2395.27705	0.23256
2393.34849	0.23388
2391.41992	0.23520
2389.49136	0.23689
2387.56279	0.23949
2385.63423	0.24365
2383.70566	0.24996
2381.77710	0.25844
2379.84854	0.26858
2377.91997	0.28014
2375.99141	0.29341
2374.06284	0.30889
2372.13428	0.32632
2370.20571	0.34479
2368.27715	0.36361
2366.34858	0.38193
2364.42002	0.39756
2362.49146	0.40833
2360.56289	0.41453
2358.63433	0.41596
2356.70576	0.41009
2354.77720	0.39716
2352.84863	0.37994
2350.92007	0.36172
2348.99150	0.35005
2347.06294	0.35000
2345.13437	0.36243
2343.20581	0.38021
2341.27725	0.38977
2339.34868	0.39044
2337.42012	0.38877
2335.49155	0.38720
2333.56299	0.38555
2331.63442	0.38452
2329.70586	0.38365
2327.77729	0.38140
2325.84873	0.37746
2323.92017	0.37255
2321.99160	0.36709
2320.06304	0.36123
2318.13447	0.35546
2316.20591	0.35058
2314.27734	0.34732
2312.34878	0.34545
2310.42021	0.34358
2308.49165	0.34075
2306.56309	0.33726
2304.63452	0.33402
2302.70596	0.33202
2300.77739	0.33136
2298.84883	0.33118
2296.92026	0.33103
2294.99170	0.33078
2293.06313	0.33032
2291.13457	0.32994
2289.20601	0.32981
2287.27744	0.32975
2285.34888	0.32981
2283.42031	0.33042
2281.49175	0.33191
2279.56318	0.33414
2277.63462	0.33673
2275.70605	0.33936
2273.77749	0.34179
2271.84893	0.34402
2269.92036	0.34613
2267.99180	0.34807
2266.06323	0.34996
2264.13467	0.35193
2262.20610	0.35381
2260.27754	0.35552
2258.34897	0.35728
2256.42041	0.35917
2254.49185	0.36104
2252.56328	0.36282
2250.63472	0.36466
2248.70615	0.36660
2246.77759	0.36857
2244.84902	0.37052
2242.92046	0.37256
2240.99189	0.37473
2239.06333	0.37686
2237.13477	0.37897
2235.20620	0.38117
2233.27764	0.38345
2231.34907	0.38573
2229.42051	0.38800
2227.49194	0.39030
2225.56338	0.39259
2223.63481	0.39480
2221.70625	0.39701
2219.77769	0.39929
2217.84912	0.40153
2215.92056	0.40370
2213.99199	0.40588
2212.06343	0.40808
2210.13486	0.41021
2208.20630	0.41225
2206.27773	0.41436
2204.34917	0.41657
2202.42061	0.41868
2200.49204	0.42063
2198.56348	0.42264
2196.63491	0.42474
2194.70635	0.42679
2192.77778	0.42878
2190.84922	0.43074
2188.92065	0.43260
2186.99209	0.43440
2185.06353	0.43623
2183.13496	0.43803
2181.20640	0.43979
2179.27783	0.44150
2177.34927	0.44313
2175.42070	0.44465
2173.49214	0.44613
2171.56357	0.44761
2169.63501	0.44903
2167.70645	0.45033
2165.77788	0.45158
2163.84932	0.45289
2161.92075	0.45420
2159.99219	0.45542
2158.06362	0.45651
2156.13506	0.45749
2154.20649	0.45832
2152.27793	0.45902
2150.34937	0.45968
2148.42080	0.46040
2146.49224	0.46109
2144.56367	0.46157
2142.63511	0.46188
2140.70654	0.46224
2138.77798	0.46262
2136.84941	0.46281
2134.92085	0.46286
2132.99229	0.46283
2131.06372	0.46278
2129.13516	0.46275
2127.20659	0.46262
2125.27803	0.46237
2123.34946	0.46201
2121.42090	0.46146
2119.49233	0.46076
2117.56377	0.46013
2115.63521	0.45949
2113.70664	0.45874
2111.77808	0.45791
2109.84951	0.45701
2107.92095	0.45601
2105.99238	0.45491
2104.06382	0.45373
2102.13525	0.45245
2100.20669	0.45109
2098.27812	0.44968
2096.34956	0.44827
2094.42100	0.44683
2092.49243	0.44527
2090.56387	0.44362
2088.63530	0.44181
2086.70674	0.43983
2084.77817	0.43782
2082.84961	0.43593
2080.92104	0.43400
2078.99248	0.43195
2077.06392	0.42988
2075.13535	0.42772
2073.20679	0.42543
2071.27822	0.42314
2069.34966	0.42094
2067.42109	0.41879
2065.49253	0.41659
2063.56396	0.41413
2061.63540	0.41147
2059.70684	0.40885
2057.77827	0.40639
2055.84971	0.40404
2053.92114	0.40161
2051.99258	0.39896
2050.06401	0.39619
2048.13545	0.39348
2046.20688	0.39088
2044.27832	0.38834
2042.34976	0.38572
2040.42119	0.38289
2038.49263	0.37998
2036.56406	0.37715
2034.63550	0.37438
2032.70693	0.37160
2030.77837	0.36874
2028.84980	0.36585
2026.92124	0.36305
2024.99268	0.36022
2023.06411	0.35736
2021.13555	0.35465
2019.20698	0.35216
2017.27842	0.34960
2015.34985	0.34675
2013.42129	0.34378
2011.49272	0.34090
2009.56416	0.33810
2007.63560	0.33536
2005.70703	0.33266
2003.77847	0.32999
2001.84990	0.32727
1999.92134	0.32452
1997.99277	0.32182
1996.06421	0.31928
1994.13564	0.31696
1992.20708	0.31469
1990.27852	0.31215
1988.34995	0.30944
1986.42139	0.30679
1984.49282	0.30421
1982.56426	0.30173
1980.63569	0.29934
1978.70713	0.29701
1976.77856	0.29479
1974.85000	0.29267
1972.92144	0.29047
1970.99287	0.28829
1969.06431	0.28643
1967.13574	0.28472
1965.20718	0.28260
1963.27861	0.28019
1961.35005	0.27798
1959.42148	0.27606
1957.49292	0.27427
1955.56436	0.27255
1953.63579	0.27082
1951.70723	0.26905
1949.77866	0.26733
1947.85010	0.26575
1945.92153	0.26439
1943.99297	0.26324
1942.06440	0.26192
1940.13584	0.26009
1938.20728	0.25826
1936.27871	0.25682
1934.35015	0.25553
1932.42158	0.25419
1930.49302	0.25283
1928.56445	0.25159
1926.63589	0.25056
1924.70732	0.24981
1922.77876	0.24914
1920.85020	0.24821
1918.92163	0.24737
1916.99307	0.24655
1915.06450	0.24534
1913.13594	0.24423
1911.20737	0.24359
1909.27881	0.24304
1907.35024	0.24223
1905.42168	0.24135
1903.49312	0.24068
1901.56455	0.24013
1899.63599	0.23959
1897.70742	0.23919
1895.77886	0.23897
1893.85029	0.23873
1891.92173	0.23846
1889.99316	0.23849
1888.06460	0.23828
1886.13604	0.23763
1884.20747	0.23708
1882.27891	0.23675
1880.35034	0.23661
1878.42178	0.23661
1876.49321	0.23666
1874.56465	0.23666
1872.63608	0.23685
1870.70752	0.23761
1868.77896	0.23882
1866.85039	0.23909
1864.92183	0.23828
1862.99326	0.23779
1861.06470	0.23797
1859.13613	0.23839
1857.20757	0.23872
1855.27900	0.23903
1853.35044	0.23934
1851.42187	0.23983
1849.49331	0.24063
1847.56475	0.24181
1845.63618	0.24330
1843.70762	0.24464
1841.77905	0.24504
1839.85049	0.24501
1837.92192	0.24560
1835.99336	0.24651
1834.06479	0.24739
1832.13623	0.24859
1830.20767	0.25056
1828.27910	0.25229
1826.35054	0.25315
1824.42197	0.25410
1822.49341	0.25498
1820.56484	0.25591
1818.63628	0.25727
1816.70771	0.25899
1814.77915	0.26069
1812.85059	0.26261
1810.92202	0.26493
1808.99346	0.26703
1807.06489	0.26881
1805.13633	0.27070
1803.20776	0.27316
1801.27920	0.27605
1799.35063	0.27898
1797.42207	0.28142
1795.49351	0.28395
1793.56494	0.28728
1791.63638	0.29121
1789.70781	0.29409
1787.77925	0.29605
1785.85068	0.29898
1783.92212	0.30279
1781.99355	0.30697
1780.06499	0.31131
1778.13643	0.31557
1776.20786	0.31977
1774.27930	0.32473
1772.35073	0.33128
1770.42217	0.33746
1768.49360	0.34208
1766.56504	0.34669
1764.63647	0.35185
1762.70791	0.35800
1760.77935	0.36567
1758.85078	0.37273
1756.92222	0.37986
1754.99365	0.38758
1753.06509	0.39481
1751.13652	0.40393
1749.20796	0.41520
1747.27939	0.42560
1745.35083	0.43441
1743.42227	0.44378
1741.49370	0.45423
1739.56514	0.46646
1737.63657	0.47871
1735.70801	0.49015
1733.77944	0.50733
1731.85088	0.52651
1729.92231	0.54122
1727.99375	0.55647
1726.06519	0.57329
1724.13662	0.59192
1722.20806	0.61207
1720.27949	0.63126
1718.35093	0.65448
1716.42236	0.68720
1714.49380	0.71667
1712.56523	0.74042
1710.63667	0.76421
1708.70811	0.79050
1706.77954	0.82060
1704.85098	0.85600
1702.92241	0.88766
1700.99385	0.91965
1699.06528	0.96655
1697.13672	1.00903
1695.20815	1.05194
1693.27959	1.09423
1691.35103	1.12908
1689.42246	1.16960
1687.49390	1.21278
1685.56533	1.25577
1683.63677	1.32061
1681.70820	1.38573
1679.77964	1.42707
1677.85107	1.46703
1675.92251	1.51398
1673.99395	1.57170
1672.06538	1.62358
1670.13682	1.67532
1668.20825	1.74115
1666.27969	1.79497
1664.35112	1.84251
1662.42256	1.90297
1660.49399	1.97007
1658.56543	2.02231
1656.63687	2.06574
1654.70830	2.10750
1652.77974	2.16845
1650.85117	2.22188
1648.92261	2.24200
1646.99404	2.26875
1645.06548	2.29543
1643.13691	2.31151
1641.20835	2.32038
1639.27979	2.32830
1637.35122	2.33338
1635.42266	2.33297
1633.49409	2.32464
1631.56553	2.31073
1629.63696	2.29423
1627.70840	2.26619
1625.77983	2.23281
1623.85127	2.19076
1621.92271	2.13790
1619.99414	2.08981
1618.06558	2.04494
1616.13701	1.98295
1614.20845	1.91756
1612.27988	1.86583
1610.35132	1.81199
1608.42275	1.75454
1606.49419	1.69858
1604.56562	1.64696
1602.63706	1.59743
1600.70850	1.54925
1598.77993	1.50447
1596.85137	1.46296
1594.92280	1.42359
1592.99424	1.38528
1591.06567	1.34984
1589.13711	1.31697
1587.20854	1.28654
1585.27998	1.25857
1583.35142	1.23285
1581.42285	1.20990
1579.49429	1.19075
1577.56572	1.17409
1575.63716	1.15377
1573.70859	1.13484
1571.78003	1.12281
1569.85146	1.11172
1567.92290	1.09926
1565.99434	1.08955
1564.06577	1.08260
1562.13721	1.07795
1560.20864	1.07708
1558.28008	1.07940
1556.35151	1.07907
1554.42295	1.07752
1552.49438	1.07663
1550.56582	1.07482
1548.63726	1.07079
1546.70869	1.06478
1544.78013	1.05670
1542.85156	1.04613
1540.92300	1.03027
1538.99443	1.00321
1537.06587	0.98083
1535.13730	0.96597
1533.20874	0.94822
1531.28018	0.92878
1529.35161	0.91398
1527.42305	0.90081
1525.49448	0.88761
1523.56592	0.87622
1521.63735	0.86554
1519.70879	0.85438
1517.78022	0.84449
1515.85166	0.83312
1513.92310	0.82091
1511.99453	0.81050
1510.06597	0.80197
1508.13740	0.79461
1506.20884	0.78201
1504.28027	0.76823
1502.35171	0.76000
1500.42314	0.75396
1498.49458	0.74842
1496.56602	0.74172
1494.63745	0.73408
1492.70889	0.72815
1490.78032	0.72392
1488.85176	0.71915
1486.92319	0.71338
1484.99463	0.70822
1483.06606	0.70445
1481.13750	0.70176
1479.20894	0.69981
1477.28037	0.69900
1475.35181	0.69942
1473.42324	0.70007
1471.49468	0.69881
1469.56611	0.69575
1467.63755	0.69310
1465.70898	0.69155
1463.78042	0.69050
1461.85186	0.68969
1459.92329	0.69000
1457.99473	0.69168
1456.06616	0.69165
1454.13760	0.68837
1452.20903	0.68533
1450.28047	0.68287
1448.35190	0.68041
1446.42334	0.67767
1444.49478	0.67510
1442.56621	0.67290
1440.63765	0.67081
1438.70908	0.66890
1436.78052	0.66660
1434.85195	0.66326
1432.92339	0.66030
1430.99482	0.65860
1429.06626	0.65766
1427.13770	0.65711
1425.20913	0.65726
1423.28057	0.65796
1421.35200	0.65867
1419.42344	0.65950
1417.49487	0.65943
1415.56631	0.65772
1413.63774	0.65618
1411.70918	0.65564
1409.78062	0.65588
1407.85205	0.65652
1405.92349	0.65758
1403.99492	0.65851
1402.06636	0.65850
1400.13779	0.65791
1398.20923	0.65677
1396.28066	0.65457
1394.35210	0.65100
1392.42354	0.64656
1390.49497	0.64254
1388.56641	0.63897
1386.63784	0.63490
1384.70928	0.63025
1382.78071	0.62582
1380.85215	0.62190
1378.92358	0.61865
1376.99502	0.61632
1375.06646	0.61499
1373.13789	0.61403
1371.20933	0.61303
1369.28076	0.61218
1367.35220	0.61112
1365.42363	0.60986
1363.49507	0.60883
1361.56650	0.60755
1359.63794	0.60577
1357.70937	0.60414
1355.78081	0.60282
1353.85225	0.60168
1351.92368	0.60071
1349.99512	0.59987
1348.06655	0.59898
1346.13799	0.59791
1344.20942	0.59687
1342.28086	0.59610
1340.35229	0.59568
1338.42373	0.59511
1336.49517	0.59401
1334.56660	0.59304
1332.63804	0.59270
1330.70947	0.59275
1328.78091	0.59293
1326.85234	0.59323
1324.92378	0.59364
1322.99521	0.59416
1321.06665	0.59476
1319.13809	0.59529
1317.20952	0.59559
1315.28096	0.59556
1313.35239	0.59510
1311.42383	0.59428
1309.49526	0.59345
1307.56670	0.59274
1305.63813	0.59195
1303.70957	0.59109
1301.78101	0.59027
1299.85244	0.58936
1297.92388	0.58827
1295.99531	0.58712
1294.06675	0.58596
1292.13818	0.58479
1290.20962	0.58358
1288.28105	0.58239
1286.35249	0.58123
1284.42393	0.58008
1282.49536	0.57886
1280.56680	0.57746
1278.63823	0.57602
1276.70967	0.57475
1274.78110	0.57373
1272.85254	0.57286
1270.92397	0.57205
1268.99541	0.57130
1267.06685	0.57066
1265.13828	0.57001
1263.20972	0.56929
1261.28115	0.56852
1259.35259	0.56777
1257.42402	0.56707
1255.49546	0.56659
1253.56689	0.56646
1251.63833	0.56657
1249.70977	0.56675
1247.78120	0.56687
1245.85264	0.56671
1243.92407	0.56615
1241.99551	0.56525
1240.06694	0.56400
1238.13838	0.56248
1236.20981	0.56067
1234.28125	0.55866
1232.35269	0.55663
1230.42412	0.55466
1228.49556	0.55280
1226.56699	0.55098
1224.63843	0.54904
1222.70986	0.54714
1220.78130	0.54568
1218.85273	0.54454
1216.92417	0.54332
1214.99561	0.54208
1213.06704	0.54106
1211.13848	0.54031
1209.20991	0.53971
1207.28135	0.53904
1205.35278	0.53824
1203.42422	0.53744
1201.49565	0.53660
1199.56709	0.53562
1197.63853	0.53463
1195.70996	0.53383
1193.78140	0.53323
1191.85283	0.53271
1189.92427	0.53222
1187.99570	0.53178
1186.06714	0.53143
1184.13857	0.53131
1182.21001	0.53152
1180.28145	0.53214
1178.35288	0.53322
1176.42432	0.53456
1174.49575	0.53575
1172.56719	0.53649
1170.63862	0.53688
1168.71006	0.53714
1166.78149	0.53733
1164.85293	0.53739
1162.92437	0.53734
1160.99580	0.53733
1159.06724	0.53727
1157.13867	0.53697
1155.21011	0.53632
1153.28154	0.53522
1151.35298	0.53372
1149.42441	0.53178
1147.49585	0.52931
1145.56729	0.52651
1143.63872	0.52372
1141.71016	0.52120
1139.78159	0.51900
1137.85303	0.51738
1135.92446	0.51658
1133.99590	0.51625
1132.06733	0.51605
1130.13877	0.51590
1128.21021	0.51556
1126.28164	0.51511
1124.35308	0.51489
1122.42451	0.51482
1120.49595	0.51470
1118.56738	0.51469
1116.63882	0.51493
1114.71025	0.51539
1112.78169	0.51615
1110.85312	0.51717
1108.92456	0.51825
1106.99600	0.51922
1105.06743	0.52006
1103.13887	0.52078
1101.21030	0.52151
1099.28174	0.52267
1097.35317	0.52460
1095.42461	0.52732
1093.49604	0.53086
1091.56748	0.53550
1089.63892	0.54160
1087.71035	0.54912
1085.78179	0.55763
1083.85322	0.56633
1081.92466	0.57394
1079.99609	0.57940
1078.06753	0.58219
1076.13896	0.58188
1074.21040	0.57850
1072.28184	0.57275
1070.35327	0.56545
1068.42471	0.55777
1066.49614	0.55073
1064.56758	0.54444
1062.63901	0.53880
1060.71045	0.53386
1058.78188	0.52971
1056.85332	0.52625
1054.92476	0.52326
1052.99619	0.52061
1051.06763	0.51829
1049.13906	0.51663
1047.21050	0.51586
1045.28193	0.51572
1043.35337	0.51593
1041.42480	0.51621
1039.49624	0.51621
1037.56768	0.51599
1035.63911	0.51586
1033.71055	0.51550
1031.78198	0.51444
1029.85342	0.51281
1027.92485	0.51110
1025.99629	0.50955
1024.06772	0.50823
1022.13916	0.50736
1020.21060	0.50699
1018.28203	0.50689
1016.35347	0.50678
1014.42490	0.50651
1012.49634	0.50614
1010.56777	0.50578
1008.63921	0.50569
1006.71064	0.50619
1004.78208	0.50727
1002.85352	0.50883
1000.92495	0.51117
998.99639	0.51462
997.06782	0.51895
995.13926	0.52347
993.21069	0.52760
991.28213	0.53103
989.35356	0.53329
987.42500	0.53419
985.49644	0.53419
983.56787	0.53398
981.63931	0.53397
979.71074	0.53441
977.78218	0.53570
975.85361	0.53779
973.92505	0.54025
971.99648	0.54305
970.06792	0.54625
968.13936	0.54974
966.21079	0.55366
964.28223	0.55816
962.35366	0.56302
960.42510	0.56799
958.49653	0.57321
956.56797	0.57888
954.63940	0.58485
952.71084	0.59101
950.78228	0.59727
948.85371	0.60354
946.92515	0.60993
944.99658	0.61662
943.06802	0.62349
941.13945	0.63005
939.21089	0.63595
937.28232	0.64144
935.35376	0.64714
933.42520	0.65318
931.49663	0.65915
929.56807	0.66492
927.63950	0.67070
925.71094	0.67693
923.78237	0.68369
921.85381	0.69058
919.92524	0.69739
917.99668	0.70408
916.06812	0.71090
914.13955	0.71820
912.21099	0.72611
910.28242	0.73477
908.35386	0.74350
906.42529	0.75178
904.49673	0.76035
902.56816	0.76973
900.63960	0.77992
898.71104	0.79034
896.78247	0.79986
894.85391	0.80841
892.92534	0.81753
890.99678	0.82770
889.06821	0.83851
887.13965	0.85035
885.21108	0.86291
883.28252	0.87492
881.35396	0.88623
879.42539	0.89770
877.49683	0.90877
875.56826	0.91920
873.63970	0.93034
871.71113	0.94211
869.78257	0.95325
867.85400	0.96397
865.92544	0.97567
863.99687	0.98799
862.06831	1.00040
860.13975	1.01367
858.21118	1.02639
856.28262	1.03653
854.35405	1.04630
852.42549	1.05884
850.49692	1.07333
848.56836	1.08779
846.63979	1.10049
844.71123	1.11009
842.78267	1.11935
840.85410	1.13060
838.92554	1.14195
836.99697	1.15296
835.06841	1.16433
833.13984	1.17716
831.21128	1.19136
829.28271	1.20472
827.35415	1.22035
825.42559	1.23964
823.49702	1.25583
821.56846	1.26402
819.63989	1.26592
817.71133	1.26904
815.78276	1.28542
813.85420	1.31115
811.92563	1.32543
809.99707	1.33592
808.06851	1.35980
806.13994	1.37750
804.21138	1.37179
802.28281	1.37004
800.35425	1.39053
798.42568	1.41668
796.49712	1.43784
794.56855	1.46451
792.63999	1.51789
790.71143	1.60666
788.78286	1.67449
786.85430	1.66626
784.92573	1.64102
782.99717	1.65794
781.06860	1.75132
779.14004	1.85120
777.21147	1.73708
775.28291	1.61047
773.35435	1.62109
771.42578	1.78296
769.49722	2.06098
767.56865	1.92811
765.64009	1.65655
763.71152	1.56658
761.78296	1.56949
759.85439	1.67244
757.92583	1.90561
755.99727	4.53598
754.06870	4.52441
752.14014	4.51284
750.21157	1.54188
748.28301	1.62965
746.35444	4.47813
744.42588	4.46656
742.49731	1.36683
740.56875	1.01399
738.64019	1.03461
736.71162	1.17714
734.78306	1.09760
732.85449	0.96004
730.92593	0.86178
728.99736	0.71100
727.06880	0.52008
725.14023	0.35111
723.21167	0.23124
721.28311	0.15746
719.35454	0.12834
717.42598	0.15609
715.49741	0.29044
713.56885	0.49012
711.64028	0.44813
709.71172	0.36473
707.78315	0.42168
705.85459	0.50155
703.92603	0.48959
701.99746	0.45369
700.06890	0.38990
698.14033	0.28774
696.21177	0.24663
694.28320	0.26823
692.35464	0.28960
690.42607	0.33017
688.49751	0.41322
686.56895	0.52789
684.64038	0.68761
682.71182	0.62445
680.78325	0.44659
678.85469	0.40040
676.92612	0.35942
674.99756	0.25691
673.06899	0.20826
671.14043	0.22695
669.21187	0.25540
667.28330	0.32184
665.35474	0.41945
663.42617	0.43233
661.49761	0.36365
659.56904	0.29899
657.64048	0.29899
655.71191	0.33279
653.78335	0.34473
651.85479	0.34314
649.92622	0.37108
647.99766	0.49130
646.06909	0.70332
644.14053	0.70296
642.21196	0.50948
640.28340	0.36796
638.35483	0.29419
636.42627	0.28075
634.49771	0.30623
632.56914	0.28747
630.64058	0.25087
628.71201	0.26412
626.78345	0.32282
624.85488	0.46567
622.92632	0.63623
620.99775	0.51823
619.06919	0.39483
617.14062	0.35049
615.21206	0.32880
613.28350	0.31571
611.35493	0.36184
609.42637	0.50288
607.49780	0.64468
605.56924	0.55566
603.64067	0.48312
601.71211	0.40068
599.78354	0.33863
597.85498	0.34650
595.92642	0.38233
593.99785	0.37154
592.06929	0.29390
590.14072	0.20590
588.21216	0.15461
586.28359	0.15156
584.35503	0.21370
582.42646	0.32308
580.49790	0.41279
578.56934	0.50035
576.64077	0.49548
574.71221	0.32045
572.78364	0.18312
570.85508	0.13831
568.92651	0.16591
566.99795	0.23369
565.06938	0.27694
563.14082	0.29033
561.21226	0.34839
559.28369	0.42769
557.35513	0.43408
555.42656	0.47914
553.49800	0.55728
551.56943	0.43978
549.64087	0.35892
547.71230	0.39222
545.78374	0.41408
543.85518	0.33586
541.92661	0.25059
539.99805	0.21104
538.06948	0.21706
536.14092	0.22612
534.21235	0.20662
532.28379	0.19910
530.35522	0.23120
528.42666	0.23772
526.49810	0.20140
524.56953	0.21105
522.64097	0.25722
520.71240	0.25386
518.78384	0.23372
516.85527	0.23747
514.92671	0.24717
512.99814	0.26441
511.06958	0.27081
509.14102	0.25665
507.21245	0.26295
505.28389	0.27986
503.35532	0.27267
501.42676	0.25083
499.49819	0.23230
