3997.91411	0.05622
3995.98555	0.05671
3994.05698	0.05734
3992.12842	0.05777
3990.19985	0.05817
3988.27129	0.05872
3986.34272	0.05937
3984.41416	0.05978
3982.48560	0.05974
3980.55703	0.05965
3978.62847	0.05983
3976.69990	0.06010
3974.77134	0.06038
3972.84277	0.06080
3970.91421	0.06119
3968.98564	0.06131
3967.05708	0.06118
3965.12852	0.06101
3963.19995	0.06118
3961.27139	0.06166
3959.34282	0.06215
3957.41426	0.06237
3955.48569	0.06220
3953.55713	0.06203
3951.62856	0.06222
3949.70000	0.06267
3947.77144	0.06290
3945.84287	0.06263
3943.91431	0.06247
3941.98574	0.06268
3940.05718	0.06262
3938.12861	0.06231
3936.20005	0.06212
3934.27148	0.06213
3932.34292	0.06269
3930.41436	0.06349
3928.48579	0.06356
3926.55723	0.06337
3924.62866	0.06378
3922.70010	0.06395
3920.77153	0.06351
3918.84297	0.06338
3916.91440	0.06351
3914.98584	0.06301
3913.05728	0.06189
3911.12871	0.06120
3909.20015	0.06136
3907.27158	0.06221
3905.34302	0.06370
3903.41445	0.06529
3901.48589	0.06580
3899.55732	0.06501
3897.62876	0.06369
3895.70020	0.06265
3893.77163	0.06244
3891.84307	0.06322
3889.91450	0.06386
3887.98594	0.06346
3886.05737	0.06359
3884.12881	0.06455
3882.20024	0.06501
3880.27168	0.06530
3878.34312	0.06516
3876.41455	0.06458
3874.48599	0.06492
3872.55742	0.06609
3870.62886	0.06718
3868.70029	0.06794
3866.77173	0.06802
3864.84316	0.06824
3862.91460	0.06874
3860.98604	0.06823
3859.05747	0.06734
3857.12891	0.06734
3855.20034	0.06881
3853.27178	0.07207
3851.34321	0.07363
3849.41465	0.07139
3847.48608	0.06945
3845.55752	0.06912
3843.62896	0.07039
3841.70039	0.07270
3839.77183	0.07500
3837.84326	0.07681
3835.91470	0.07726
3833.98613	0.07648
3832.05757	0.07599
3830.12900	0.07594
3828.20044	0.07617
3826.27187	0.07713
3824.34331	0.07817
3822.41475	0.07919
3820.48618	0.08144
3818.55762	0.08312
3816.62905	0.08324
3814.70049	0.08357
3812.77192	0.08377
3810.84336	0.08373
3808.91479	0.08446
3806.98623	0.08654
3805.05767	0.08881
3803.12910	0.09012
3801.20054	0.09181
3799.27197	0.09362
3797.34341	0.09447
3795.41484	0.09510
3793.48628	0.09510
3791.55771	0.09469
3789.62915	0.09500
3787.70059	0.09634
3785.77202	0.09852
3783.84346	0.10099
3781.91489	0.10291
3779.98633	0.10457
3778.05776	0.10632
3776.12920	0.10752
3774.20063	0.10868
3772.27207	0.11056
3770.34351	0.11323
3768.41494	0.11595
3766.48638	0.11767
3764.55781	0.11899
3762.62925	0.12049
3760.70068	0.12278
3758.77212	0.12627
3756.84355	0.12945
3754.91499	0.13149
3752.98643	0.13443
3751.05786	0.14005
3749.12930	0.14576
3747.20073	0.14770
3745.27217	0.14949
3743.34360	0.15449
3741.41504	0.15978
3739.48647	0.16397
3737.55791	0.16987
3735.62935	0.17879
3733.70078	0.18766
3731.77222	0.19292
3729.84365	0.19709
3727.91509	0.20174
3725.98652	0.20751
3724.05796	0.21398
3722.12939	0.21949
3720.20083	0.22383
3718.27227	0.22752
3716.34370	0.23142
3714.41514	0.23691
3712.48657	0.24682
3710.55801	0.26330
3708.62944	0.28047
3706.70088	0.29297
3704.77231	0.30400
3702.84375	0.31696
3700.91519	0.33365
3698.98662	0.35202
3697.05806	0.36974
3695.12949	0.38822
3693.20093	0.40764
3691.27236	0.42865
3689.34380	0.45481
3687.41523	0.48672
3685.48667	0.51612
3683.55811	0.54202
3681.62954	0.57004
3679.70098	0.60230
3677.77241	0.63667
3675.84385	0.67654
3673.91528	0.72789
3671.98672	0.77046
3670.05815	0.80921
3668.12959	0.86120
3666.20103	0.90922
3664.27246	0.95028
3662.34390	0.99444
3660.41533	1.04198
3658.48677	1.08880
3656.55820	1.13849
3654.62964	1.19355
3652.70107	1.24058
3650.77251	1.28262
3648.84395	1.33940
3646.91538	1.40683
3644.98682	1.45751
3643.05825	1.49745
3641.12969	1.53856
3639.20112	1.58385
3637.27256	1.62974
3635.34399	1.67473
3633.41543	1.71925
3631.48687	1.76086
3629.55830	1.80384
3627.62974	1.85839
3625.70117	1.90788
3623.77261	1.94219
3621.84404	1.97642
3619.91548	2.01603
3617.98691	2.06180
3616.05835	2.10395
3614.12979	2.13863
3612.20122	2.17549
3610.27266	2.21433
3608.34409	2.25583
3606.41553	2.30102
3604.48696	2.34218
3602.55840	2.37802
3600.62983	2.41661
3598.70127	2.45846
3596.77271	2.49894
3594.84414	2.53989
3592.91558	2.58136
3590.98701	2.61861
3589.05845	2.65305
3587.12988	2.69664
3585.20132	2.74690
3583.27275	2.78889
3581.34419	2.82584
3579.41562	2.86592
3577.48706	2.90928
3575.55850	2.95143
3573.62993	2.99264
3571.70137	3.03349
3569.77280	3.07463
3567.84424	3.12053
3565.91567	3.17551
3563.98711	3.22589
3562.05854	3.26547
3560.12998	3.30611
3558.20142	3.35116
3556.27285	3.39689
3554.34429	3.44221
3552.41572	3.49019
3550.48716	3.53931
3548.55859	3.58555
3546.63003	3.62976
3544.70146	3.67663
3542.77290	3.72447
3540.84434	3.77035
3538.91577	3.81732
3536.98721	3.86707
3535.05864	3.92009
3533.13008	3.97125
3531.20151	4.01774
3529.27295	4.06233
3527.34438	4.10656
3525.41582	4.15074
3523.48726	4.19727
3521.55869	4.24700
3519.63013	4.29704
3517.70156	4.34833
3515.77300	4.39915
3513.84443	4.44592
3511.91587	4.49192
3509.98730	4.54223
3508.05874	4.59495
3506.13018	4.64462
3504.20161	4.69085
3502.27305	4.73994
3500.34448	4.79248
3498.41592	4.84018
3496.48735	4.88472
3494.55879	4.93381
3492.63022	4.98506
3490.70166	5.03147
3488.77310	5.07619
3486.84453	5.12328
3484.91597	5.17041
3482.98740	5.21598
3481.05884	5.26346
3479.13027	5.31647
3477.20171	5.37018
3475.27314	5.42352
3473.34458	5.47953
3471.41602	5.52799
3469.48745	5.56527
3467.55889	5.60870
3465.63032	5.66740
3463.70176	5.73051
3461.77319	5.78466
3459.84463	5.83474
3457.91606	5.88762
3455.98750	5.93598
3454.05894	5.97924
3452.13037	6.02917
3450.20181	6.08412
3448.27324	6.13187
3446.34468	6.17296
3444.41611	6.20666
3442.48755	6.24413
3440.55898	6.29465
3438.63042	6.35032
3436.70186	6.41168
3434.77329	6.48089
3432.84473	6.54615
3430.91616	6.60054
3428.98760	6.65212
3427.05903	6.69729
3425.13047	6.74953
3423.20190	6.81287
3421.27334	6.86084
3419.34478	6.89910
3417.41621	6.95000
3415.48765	6.99428
3413.55908	7.01920
3411.63052	7.06278
3409.70195	7.12400
3407.77339	7.16981
3405.84482	7.21264
3403.91626	7.28807
3401.98770	7.36567
3400.05913	7.38918
3398.13057	7.37823
3396.20200	7.39598
3394.27344	7.46063
3392.34487	7.51540
3390.41631	7.54550
3388.48774	7.57463
3386.55918	7.62236
3384.63062	7.69860
3382.70205	7.77774
3380.77349	7.81332
3378.84492	7.78899
3376.91636	7.75659
3374.98779	7.77549
3373.05923	7.85938
3371.13066	7.92207
3369.20210	7.91188
3367.27354	7.88260
3365.34497	7.90110
3363.41641	7.98902
3361.48784	8.07175
3359.55928	8.07895
3357.63071	8.04431
3355.70215	8.04995
3353.77358	8.07319
3351.84502	8.04154
3349.91646	8.00920
3347.98789	8.06020
3346.05933	8.15942
3344.13076	8.24272
3342.20220	8.25520
3340.27363	8.19715
3338.34507	8.18922
3336.41650	8.26227
3334.48794	8.33546
3332.55937	8.30074
3330.63081	8.20312
3328.70225	8.16625
3326.77368	8.19012
3324.84512	8.23077
3322.91655	8.27054
3320.98799	8.27667
3319.05942	8.24371
3317.13086	8.24763
3315.20229	8.27436
3313.27373	8.29769
3311.34517	8.29150
3309.41660	8.24184
3307.48804	8.23899
3305.55947	8.24255
3303.63091	8.23020
3301.70234	8.29793
3299.77378	8.35338
3297.84521	8.28165
3295.91665	8.25678
3293.98809	8.34797
3292.05952	8.40738
3290.13096	8.38062
3288.20239	8.35889
3286.27383	8.37102
3284.34526	8.38089
3282.41670	8.38081
3280.48813	8.32639
3278.55957	8.30771
3276.63101	8.41578
3274.70244	8.49205
3272.77388	8.46726
3270.84531	8.44490
3268.91675	8.37178
3266.98818	8.25154
3265.05962	8.21175
3263.13105	8.26294
3261.20249	8.37405
3259.27393	8.50125
3257.34536	8.51957
3255.41680	8.36612
3253.48823	8.20559
3251.55967	8.18903
3249.63110	8.28136
3247.70254	8.34813
3245.77397	8.32941
3243.84541	8.34113
3241.91685	8.41244
3239.98828	8.43101
3238.05972	8.38250
3236.13115	8.35857
3234.20259	8.38329
3232.27402	8.41602
3230.34546	8.43694
3228.41689	8.39252
3226.48833	8.28968
3224.55977	8.22014
3222.63120	8.23573
3220.70264	8.27769
3218.77407	8.26027
3216.84551	8.21099
3214.91694	8.14444
3212.98838	8.08293
3211.05981	8.09345
3209.13125	8.11839
3207.20269	8.08923
3205.27412	8.05414
3203.34556	8.01548
3201.41699	7.96577
3199.48843	7.91347
3197.55986	7.87117
3195.63130	7.86532
3193.70273	7.84356
3191.77417	7.78104
3189.84561	7.71561
3187.91704	7.64714
3185.98848	7.59028
3184.05991	7.55149
3182.13135	7.50025
3180.20278	7.44481
3178.27422	7.39775
3176.34565	7.33760
3174.41709	7.27197
3172.48853	7.21886
3170.55996	7.17196
3168.63140	7.11930
3166.70283	7.05870
3164.77427	7.00368
3162.84570	6.94479
3160.91714	6.87642
3158.98857	6.82097
3157.06001	6.76552
3155.13145	6.69138
3153.20288	6.61689
3151.27432	6.54861
3149.34575	6.47127
3147.41719	6.39353
3145.48862	6.32753
3143.56006	6.26122
3141.63149	6.18899
3139.70293	6.11476
3137.77437	6.04462
3135.84580	5.97820
3133.91724	5.90457
3131.98867	5.82399
3130.06011	5.75325
3128.13154	5.69626
3126.20298	5.63784
3124.27441	5.57001
3122.34585	5.49505
3120.41729	5.41753
3118.48872	5.34032
3116.56016	5.26298
3114.63159	5.18443
3112.70303	5.10838
3110.77446	5.03819
3108.84590	4.96977
3106.91733	4.90136
3104.98877	4.83265
3103.06021	4.76153
3101.13164	4.69050
3099.20308	4.62340
3097.27451	4.55828
3095.34595	4.49165
3093.41738	4.42385
3091.48882	4.35605
3089.56025	4.28861
3087.63169	4.22349
3085.70312	4.15941
3083.77456	4.09141
3081.84600	4.02213
3079.91743	3.95644
3077.98887	3.89490
3076.06030	3.83640
3074.13174	3.77793
3072.20317	3.71819
3070.27461	3.65852
3068.34604	3.59998
3066.41748	3.54211
3064.48892	3.48407
3062.56035	3.42519
3060.63179	3.36699
3058.70322	3.31187
3056.77466	3.25768
3054.84609	3.20253
3052.91753	3.14749
3050.98896	3.09230
3049.06040	3.03767
3047.13184	2.98569
3045.20327	2.93620
3043.27471	2.88766
3041.34614	2.83927
3039.41758	2.79128
3037.48901	2.74435
3035.56045	2.69815
3033.63188	2.65203
3031.70332	2.60587
3029.77476	2.55955
3027.84619	2.51396
3025.91763	2.47065
3023.98906	2.42858
3022.06050	2.38588
3020.13193	2.34295
3018.20337	2.30063
3016.27480	2.25932
3014.34624	2.21942
3012.41768	2.18061
3010.48911	2.14238
3008.56055	2.10453
3006.63198	2.06700
3004.70342	2.03020
3002.77485	1.99429
3000.84629	1.95881
2998.91772	1.92374
2996.98916	1.88962
2995.06060	1.85648
2993.13203	1.82362
2991.20347	1.79065
2989.27490	1.75833
2987.34634	1.72736
2985.41777	1.69702
2983.48921	1.66646
2981.56064	1.63621
2979.63208	1.60653
2977.70352	1.57706
2975.77495	1.54814
2973.84639	1.51987
2971.91782	1.49164
2969.98926	1.46356
2968.06069	1.43589
2966.13213	1.40847
2964.20356	1.38162
2962.27500	1.35554
2960.34644	1.32982
2958.41787	1.30482
2956.48931	1.28115
2954.56074	1.25782
2952.63218	1.23422
2950.70361	1.21126
2948.77505	1.18912
2946.84648	1.16730
2944.91792	1.14548
2942.98936	1.12357
2941.06079	1.10184
2939.13223	1.07997
2937.20366	1.05821
2935.27510	1.03734
2933.34653	1.01665
2931.41797	0.99558
2929.48940	0.97515
2927.56084	0.95566
2925.63228	0.93645
2923.70371	0.91763
2921.77515	0.89975
2919.84658	0.88315
2917.91802	0.86763
2915.98945	0.85265
2914.06089	0.83865
2912.13232	0.82560
2910.20376	0.81272
2908.27520	0.79977
2906.34663	0.78667
2904.41807	0.77360
2902.48950	0.76121
2900.56094	0.74942
2898.63237	0.73773
2896.70381	0.72592
2894.77524	0.71407
2892.84668	0.70232
2890.91812	0.69060
2888.98955	0.67909
2887.06099	0.66803
2885.13242	0.65726
2883.20386	0.64652
2881.27529	0.63582
2879.34673	0.62517
2877.41816	0.61458
2875.48960	0.60397
2873.56104	0.59319
2871.63247	0.58241
2869.70391	0.57198
2867.77534	0.56172
2865.84678	0.55122
2863.91821	0.54043
2861.98965	0.52951
2860.06108	0.51869
2858.13252	0.50828
2856.20396	0.49824
2854.27539	0.48848
2852.34683	0.47909
2850.41826	0.47020
2848.48970	0.46241
2846.56113	0.45604
2844.63257	0.45065
2842.70400	0.44583
2840.77544	0.44128
2838.84687	0.43653
2836.91831	0.43152
2834.98975	0.42637
2833.06118	0.42105
2831.13262	0.41563
2829.20405	0.41018
2827.27549	0.40460
2825.34692	0.39889
2823.41836	0.39304
2821.48979	0.38711
2819.56123	0.38128
2817.63267	0.37555
2815.70410	0.36986
2813.77554	0.36431
2811.84697	0.35893
2809.91841	0.35369
2807.98984	0.34864
2806.06128	0.34373
2804.13271	0.33880
2802.20415	0.33379
2800.27559	0.32873
2798.34702	0.32374
2796.41846	0.31899
2794.48989	0.31447
2792.56133	0.31006
2790.63276	0.30576
2788.70420	0.30160
2786.77563	0.29743
2784.84707	0.29310
2782.91851	0.28878
2780.98994	0.28473
2779.06138	0.28099
2777.13281	0.27743
2775.20425	0.27391
2773.27568	0.27025
2771.34712	0.26652
2769.41855	0.26294
2767.48999	0.25956
2765.56143	0.25637
2763.63286	0.25317
2761.70430	0.24984
2759.77573	0.24662
2757.84717	0.24361
2755.91860	0.24070
2753.99004	0.23782
2752.06147	0.23495
2750.13291	0.23215
2748.20435	0.22933
2746.27578	0.22652
2744.34722	0.22387
2742.41865	0.22132
2740.49009	0.21876
2738.56152	0.21622
2736.63296	0.21386
2734.70439	0.21164
2732.77583	0.20942
2730.84727	0.20718
2728.91870	0.20494
2726.99014	0.20271
2725.06157	0.20055
2723.13301	0.19855
2721.20444	0.19667
2719.27588	0.19475
2717.34731	0.19278
2715.41875	0.19095
2713.49019	0.18922
2711.56162	0.18744
2709.63306	0.18568
2707.70449	0.18405
2705.77593	0.18246
2703.84736	0.18086
2701.91880	0.17921
2699.99023	0.17750
2698.06167	0.17589
2696.13311	0.17454
2694.20454	0.17338
2692.27598	0.17219
2690.34741	0.17091
2688.41885	0.16961
2686.49028	0.16830
2684.56172	0.16698
2682.63315	0.16572
2680.70459	0.16463
2678.77603	0.16371
2676.84746	0.16272
2674.91890	0.16156
2672.99033	0.16046
2671.06177	0.15949
2669.13320	0.15849
2667.20464	0.15749
2665.27607	0.15662
2663.34751	0.15579
2661.41895	0.15483
2659.49038	0.15376
2657.56182	0.15286
2655.63325	0.15219
2653.70469	0.15148
2651.77612	0.15078
2649.84756	0.15029
2647.91899	0.14989
2645.99043	0.14937
2644.06187	0.14879
2642.13330	0.14819
2640.20474	0.14763
2638.27617	0.14719
2636.34761	0.14682
2634.41904	0.14649
2632.49048	0.14612
2630.56191	0.14564
2628.63335	0.14513
2626.70479	0.14476
2624.77622	0.14458
2622.84766	0.14444
2620.91909	0.14428
2618.99053	0.14417
2617.06196	0.14402
2615.13340	0.14382
2613.20483	0.14367
2611.27627	0.14356
2609.34771	0.14349
2607.41914	0.14350
2605.49058	0.14350
2603.56201	0.14344
2601.63345	0.14346
2599.70488	0.14367
2597.77632	0.14395
2595.84775	0.14413
2593.91919	0.14425
2591.99062	0.14442
2590.06206	0.14460
2588.13350	0.14467
2586.20493	0.14475
2584.27637	0.14497
2582.34780	0.14525
2580.41924	0.14561
2578.49067	0.14597
2576.56211	0.14625
2574.63354	0.14658
2572.70498	0.14708
2570.77642	0.14765
2568.84785	0.14818
2566.91929	0.14867
2564.99072	0.14911
2563.06216	0.14960
2561.13359	0.15014
2559.20503	0.15060
2557.27646	0.15104
2555.34790	0.15161
2553.41934	0.15223
2551.49077	0.15280
2549.56221	0.15343
2547.63364	0.15413
2545.70508	0.15478
2543.77651	0.15536
2541.84795	0.15603
2539.91938	0.15680
2537.99082	0.15751
2536.06226	0.15811
2534.13369	0.15873
2532.20513	0.15952
2530.27656	0.16037
2528.34800	0.16108
2526.41943	0.16164
2524.49087	0.16231
2522.56230	0.16320
2520.63374	0.16413
2518.70518	0.16497
2516.77661	0.16575
2514.84805	0.16655
2512.91948	0.16748
2510.99092	0.16854
2509.06235	0.16949
2507.13379	0.17022
2505.20522	0.17090
2503.27666	0.17171
2501.34810	0.17267
2499.41953	0.17363
2497.49097	0.17445
2495.56240	0.17525
2493.63384	0.17619
2491.70527	0.17723
2489.77671	0.17818
2487.84814	0.17899
2485.91958	0.17988
2483.99102	0.18083
2482.06245	0.18172
2480.13389	0.18268
2478.20532	0.18371
2476.27676	0.18467
2474.34819	0.18558
2472.41963	0.18661
2470.49106	0.18772
2468.56250	0.18873
2466.63394	0.18960
2464.70537	0.19045
2462.77681	0.19134
2460.84824	0.19233
2458.91968	0.19345
2456.99111	0.19452
2455.06255	0.19547
2453.13398	0.19643
2451.20542	0.19752
2449.27686	0.19864
2447.34829	0.19969
2445.41973	0.20071
2443.49116	0.20170
2441.56260	0.20262
2439.63403	0.20355
2437.70547	0.20463
2435.77690	0.20579
2433.84834	0.20687
2431.91978	0.20791
2429.99121	0.20903
2428.06265	0.21019
2426.13408	0.21134
2424.20552	0.21254
2422.27695	0.21374
2420.34839	0.21485
2418.41982	0.21585
2416.49126	0.21690
2414.56270	0.21817
2412.63413	0.21953
2410.70557	0.22079
2408.77700	0.22191
2406.84844	0.22298
2404.91987	0.22413
2402.99131	0.22544
2401.06274	0.22687
2399.13418	0.22830
2397.20562	0.22959
2395.27705	0.23082
2393.34849	0.23213
2391.41992	0.23364
2389.49136	0.23552
2387.56279	0.23830
2385.63423	0.24283
2383.70566	0.24994
2381.77710	0.25981
2379.84854	0.27197
2377.91997	0.28596
2375.99141	0.30185
2374.06284	0.32020
2372.13428	0.34103
2370.20571	0.36316
2368.27715	0.38488
2366.34858	0.40524
2364.42002	0.42395
2362.49146	0.43958
2360.56289	0.44981
2358.63433	0.45220
2356.70576	0.44371
2354.77720	0.42532
2352.84863	0.40229
2350.92007	0.37956
2348.99150	0.36559
2347.06294	0.36632
2345.13437	0.38207
2343.20581	0.40250
2341.27725	0.41285
2339.34868	0.41415
2337.42012	0.41255
2335.49155	0.41042
2333.56299	0.40792
2331.63442	0.40559
2329.70586	0.40336
2327.77729	0.40022
2325.84873	0.39545
2323.92017	0.38954
2321.99160	0.38302
2320.06304	0.37574
2318.13447	0.36798
2316.20591	0.36102
2314.27734	0.35621
2312.34878	0.35343
2310.42021	0.35087
2308.49165	0.34724
2306.56309	0.34287
2304.63452	0.33885
2302.70596	0.33620
2300.77739	0.33487
2298.84883	0.33397
2296.92026	0.33317
2294.99170	0.33250
2293.06313	0.33191
2291.13457	0.33130
2289.20601	0.33074
2287.27744	0.33031
2285.34888	0.33010
2283.42031	0.33063
2281.49175	0.33227
2279.56318	0.33474
2277.63462	0.33750
2275.70605	0.34010
2273.77749	0.34244
2271.84893	0.34469
2269.92036	0.34690
2267.99180	0.34900
2266.06323	0.35092
2264.13467	0.35270
2262.20610	0.35445
2260.27754	0.35611
2258.34897	0.35768
2256.42041	0.35939
2254.49185	0.36133
2252.56328	0.36329
2250.63472	0.36522
2248.70615	0.36719
2246.77759	0.36911
2244.84902	0.37099
2242.92046	0.37299
2240.99189	0.37513
2239.06333	0.37729
2237.13477	0.37942
2235.20620	0.38154
2233.27764	0.38374
2231.34907	0.38594
2229.42051	0.38814
2227.49194	0.39054
2225.56338	0.39292
2223.63481	0.39505
2221.70625	0.39711
2219.77769	0.39927
2217.84912	0.40153
2215.92056	0.40379
2213.99199	0.40600
2212.06343	0.40818
2210.13486	0.41034
2208.20630	0.41254
2206.27773	0.41475
2204.34917	0.41692
2202.42061	0.41912
2200.49204	0.42132
2198.56348	0.42346
2196.63491	0.42553
2194.70635	0.42745
2192.77778	0.42922
2190.84922	0.43106
2188.92065	0.43304
2186.99209	0.43497
2185.06353	0.43681
2183.13496	0.43856
2181.20640	0.44017
2179.27783	0.44181
2177.34927	0.44349
2175.42070	0.44513
2173.49214	0.44684
2171.56357	0.44846
2169.63501	0.44975
2167.70645	0.45088
2165.77788	0.45206
2163.84932	0.45336
2161.92075	0.45470
2159.99219	0.45589
2158.06362	0.45690
2156.13506	0.45792
2154.20649	0.45894
2152.27793	0.45974
2150.34937	0.46042
2148.42080	0.46112
2146.49224	0.46174
2144.56367	0.46219
2142.63511	0.46260
2140.70654	0.46299
2138.77798	0.46327
2136.84941	0.46350
2134.92085	0.46364
2132.99229	0.46357
2131.06372	0.46345
2129.13516	0.46333
2127.20659	0.46305
2125.27803	0.46270
2123.34946	0.46231
2121.42090	0.46186
2119.49233	0.46128
2117.56377	0.46063
2115.63521	0.45997
2113.70664	0.45920
2111.77808	0.45828
2109.84951	0.45731
2107.92095	0.45630
2105.99238	0.45517
2104.06382	0.45399
2102.13525	0.45270
2100.20669	0.45132
2098.27812	0.44987
2096.34956	0.44830
2094.42100	0.44675
2092.49243	0.44523
2090.56387	0.44359
2088.63530	0.44182
2086.70674	0.44007
2084.77817	0.43827
2082.84961	0.43627
2080.92104	0.43414
2078.99248	0.43205
2077.06392	0.42999
2075.13535	0.42787
2073.20679	0.42569
2071.27822	0.42346
2069.34966	0.42114
2067.42109	0.41879
2065.49253	0.41649
2063.56396	0.41412
2061.63540	0.41163
2059.70684	0.40910
2057.77827	0.40653
2055.84971	0.40387
2053.92114	0.40125
2051.99258	0.39871
2050.06401	0.39606
2048.13545	0.39334
2046.20688	0.39067
2044.27832	0.38798
2042.34976	0.38525
2040.42119	0.38252
2038.49263	0.37979
2036.56406	0.37701
2034.63550	0.37416
2032.70693	0.37128
2030.77837	0.36851
2028.84980	0.36576
2026.92124	0.36294
2024.99268	0.36009
2023.06411	0.35728
2021.13555	0.35441
2019.20698	0.35152
2017.27842	0.34879
2015.34985	0.34609
2013.42129	0.34331
2011.49272	0.34060
2009.56416	0.33793
2007.63560	0.33510
2005.70703	0.33228
2003.77847	0.32963
2001.84990	0.32705
1999.92134	0.32444
1997.99277	0.32175
1996.06421	0.31905
1994.13564	0.31658
1992.20708	0.31428
1990.27852	0.31179
1988.34995	0.30909
1986.42139	0.30640
1984.49282	0.30384
1982.56426	0.30143
1980.63569	0.29911
1978.70713	0.29677
1976.77856	0.29444
1974.85000	0.29223
1972.92144	0.29007
1970.99287	0.28788
1969.06431	0.28571
1967.13574	0.28363
1965.20718	0.28151
1963.27861	0.27939
1961.35005	0.27742
1959.42148	0.27557
1957.49292	0.27377
1955.56436	0.27196
1953.63579	0.27013
1951.70723	0.26838
1949.77866	0.26680
1947.85010	0.26528
1945.92153	0.26374
1943.99297	0.26225
1942.06440	0.26083
1940.13584	0.25926
1938.20728	0.25764
1936.27871	0.25621
1934.35015	0.25494
1932.42158	0.25368
1930.49302	0.25237
1928.56445	0.25111
1926.63589	0.25004
1924.70732	0.24923
1922.77876	0.24842
1920.85020	0.24741
1918.92163	0.24647
1916.99307	0.24555
1915.06450	0.24450
1913.13594	0.24351
1911.20737	0.24279
1909.27881	0.24222
1907.35024	0.24157
1905.42168	0.24077
1903.49312	0.24004
1901.56455	0.23944
1899.63599	0.23888
1897.70742	0.23842
1895.77886	0.23806
1893.85029	0.23772
1891.92173	0.23737
1889.99316	0.23721
1888.06460	0.23701
1886.13604	0.23668
1884.20747	0.23645
1882.27891	0.23634
1880.35034	0.23629
1878.42178	0.23622
1876.49321	0.23613
1874.56465	0.23604
1872.63608	0.23613
1870.70752	0.23662
1868.77896	0.23750
1866.85039	0.23790
1864.92183	0.23762
1862.99326	0.23743
1861.06470	0.23760
1859.13613	0.23805
1857.20757	0.23845
1855.27900	0.23881
1853.35044	0.23917
1851.42187	0.23962
1849.49331	0.24028
1847.56475	0.24117
1845.63618	0.24228
1843.70762	0.24342
1841.77905	0.24405
1839.85049	0.24436
1837.92192	0.24515
1835.99336	0.24611
1834.06479	0.24696
1832.13623	0.24799
1830.20767	0.24966
1828.27910	0.25135
1826.35054	0.25243
1824.42197	0.25360
1822.49341	0.25468
1820.56484	0.25574
1818.63628	0.25711
1816.70771	0.25876
1814.77915	0.26044
1812.85059	0.26233
1810.92202	0.26452
1808.99346	0.26663
1807.06489	0.26850
1805.13633	0.27033
1803.20776	0.27258
1801.27920	0.27532
1799.35063	0.27837
1797.42207	0.28100
1795.49351	0.28337
1793.56494	0.28628
1791.63638	0.29009
1789.70781	0.29347
1787.77925	0.29593
1785.85068	0.29902
1783.92212	0.30285
1781.99355	0.30696
1780.06499	0.31116
1778.13643	0.31537
1776.20786	0.31948
1774.27930	0.32412
1772.35073	0.33036
1770.42217	0.33681
1768.49360	0.34196
1766.56504	0.34682
1764.63647	0.35197
1762.70791	0.35792
1760.77935	0.36539
1758.85078	0.37234
1756.92222	0.37937
1754.99365	0.38709
1753.06509	0.39424
1751.13652	0.40280
1749.20796	0.41330
1747.27939	0.42328
1745.35083	0.43201
1743.42227	0.44136
1741.49370	0.45177
1739.56514	0.46405
1737.63657	0.47652
1735.70801	0.48784
1733.77944	0.50464
1731.85088	0.52432
1729.92231	0.54005
1727.99375	0.55605
1726.06519	0.57341
1724.13662	0.59247
1722.20806	0.61303
1720.27949	0.63243
1718.35093	0.65517
1716.42236	0.68727
1714.49380	0.71768
1712.56523	0.74293
1710.63667	0.76758
1708.70811	0.79393
1706.77954	0.82375
1704.85098	0.85894
1702.92241	0.89053
1700.99385	0.92206
1699.06528	0.96775
1697.13672	1.00922
1695.20815	1.05121
1693.27959	1.09286
1691.35103	1.12704
1689.42246	1.16586
1687.49390	1.20627
1685.56533	1.24551
1683.63677	1.30402
1681.70820	1.36405
1679.77964	1.40382
1677.85107	1.44230
1675.92251	1.48658
1673.99395	1.53982
1672.06538	1.58654
1670.13682	1.63141
1668.20825	1.68843
1666.27969	1.73579
1664.35112	1.77646
1662.42256	1.82552
1660.49399	1.87896
1658.56543	1.92069
1656.63687	1.95536
1654.70830	1.98918
1652.77974	2.04335
1650.85117	2.09526
1648.92261	2.11547
1646.99404	2.14111
1645.06548	2.17236
1643.13691	2.19624
1641.20835	2.21166
1639.27979	2.22366
1637.35122	2.23099
1635.42266	2.23265
1633.49409	2.22743
1631.56553	2.21703
1629.63696	2.20438
1627.70840	2.18097
1625.77983	2.15099
1623.85127	2.11283
1621.92271	2.06744
1619.99414	2.02632
1618.06558	1.98483
1616.13701	1.92627
1614.20845	1.86593
1612.27988	1.81912
1610.35132	1.77039
1608.42275	1.71720
1606.49419	1.66464
1604.56562	1.61666
1602.63706	1.57057
1600.70850	1.52499
1598.77993	1.48209
1596.85137	1.44146
1594.92280	1.40230
1592.99424	1.36413
1591.06567	1.32840
1589.13711	1.29459
1587.20854	1.26282
1585.27998	1.23295
1583.35142	1.20469
1581.42285	1.17862
1579.49429	1.15595
1577.56572	1.13544
1575.63716	1.11060
1573.70859	1.08778
1571.78003	1.07195
1569.85146	1.05500
1567.92290	1.03571
1565.99434	1.02042
1564.06577	1.00771
1562.13721	0.99698
1560.20864	0.98795
1558.28008	0.97375
1556.35151	0.96029
1554.42295	0.95146
1552.49438	0.94270
1550.56582	0.93377
1548.63726	0.92433
1546.70869	0.91537
1544.78013	0.90658
1542.85156	0.89714
1540.92300	0.88560
1538.99443	0.86871
1537.06587	0.85529
1535.13730	0.84653
1533.20874	0.83661
1531.28018	0.82580
1529.35161	0.81727
1527.42305	0.80939
1525.49448	0.80129
1523.56592	0.79396
1521.63735	0.78670
1519.70879	0.77906
1517.78022	0.77226
1515.85166	0.76485
1513.92310	0.75744
1511.99453	0.75147
1510.06597	0.74664
1508.13740	0.74239
1506.20884	0.73537
1504.28027	0.72762
1502.35171	0.72268
1500.42314	0.71883
1498.49458	0.71511
1496.56602	0.71089
1494.63745	0.70657
1492.70889	0.70311
1490.78032	0.70032
1488.85176	0.69715
1486.92319	0.69357
1484.99463	0.69032
1483.06606	0.68771
1481.13750	0.68558
1479.20894	0.68367
1477.28037	0.68213
1475.35181	0.68101
1473.42324	0.67981
1471.49468	0.67736
1469.56611	0.67393
1467.63755	0.67074
1465.70898	0.66818
1463.78042	0.66638
1461.85186	0.66508
1459.92329	0.66416
1457.99473	0.66327
1456.06616	0.66103
1454.13760	0.65772
1452.20903	0.65485
1450.28047	0.65249
1448.35190	0.65042
1446.42334	0.64803
1444.49478	0.64552
1442.56621	0.64350
1440.63765	0.64193
1438.70908	0.64065
1436.78052	0.63929
1434.85195	0.63734
1432.92339	0.63530
1430.99482	0.63377
1429.06626	0.63257
1427.13770	0.63146
1425.20913	0.63062
1423.28057	0.62995
1421.35200	0.62926
1419.42344	0.62869
1417.49487	0.62754
1415.56631	0.62535
1413.63774	0.62322
1411.70918	0.62161
1409.78062	0.62029
1407.85205	0.61910
1405.92349	0.61817
1403.99492	0.61725
1402.06636	0.61602
1400.13779	0.61461
1398.20923	0.61306
1396.28066	0.61139
1394.35210	0.60942
1392.42354	0.60711
1390.49497	0.60511
1388.56641	0.60346
1386.63784	0.60149
1384.70928	0.59915
1382.78071	0.59709
1380.85215	0.59543
1378.92358	0.59412
1376.99502	0.59322
1375.06646	0.59270
1373.13789	0.59215
1371.20933	0.59139
1369.28076	0.59076
1367.35220	0.59008
1365.42363	0.58912
1363.49507	0.58810
1361.56650	0.58686
1359.63794	0.58537
1357.70937	0.58419
1355.78081	0.58322
1353.85225	0.58213
1351.92368	0.58098
1349.99512	0.57989
1348.06655	0.57883
1346.13799	0.57778
1344.20942	0.57678
1342.28086	0.57585
1340.35229	0.57498
1338.42373	0.57396
1336.49517	0.57270
1334.56660	0.57153
1332.63804	0.57071
1330.70947	0.57015
1328.78091	0.56950
1326.85234	0.56884
1324.92378	0.56845
1322.99521	0.56818
1321.06665	0.56780
1319.13809	0.56735
1317.20952	0.56682
1315.28096	0.56613
1313.35239	0.56527
1311.42383	0.56420
1309.49526	0.56303
1307.56670	0.56189
1305.63813	0.56073
1303.70957	0.55951
1301.78101	0.55834
1299.85244	0.55721
1297.92388	0.55616
1295.99531	0.55528
1294.06675	0.55437
1292.13818	0.55326
1290.20962	0.55221
1288.28105	0.55142
1286.35249	0.55071
1284.42393	0.54999
1282.49536	0.54930
1280.56680	0.54857
1278.63823	0.54774
1276.70967	0.54696
1274.78110	0.54630
1272.85254	0.54576
1270.92397	0.54534
1268.99541	0.54502
1267.06685	0.54469
1265.13828	0.54420
1263.20972	0.54370
1261.28115	0.54333
1259.35259	0.54301
1257.42402	0.54282
1255.49546	0.54272
1253.56689	0.54257
1251.63833	0.54242
1249.70977	0.54219
1247.78120	0.54181
1245.85264	0.54140
1243.92407	0.54096
1241.99551	0.54042
1240.06694	0.53969
1238.13838	0.53882
1236.20981	0.53794
1234.28125	0.53712
1232.35269	0.53633
1230.42412	0.53556
1228.49556	0.53464
1226.56699	0.53340
1224.63843	0.53208
1222.70986	0.53092
1220.78130	0.52992
1218.85273	0.52894
1216.92417	0.52794
1214.99561	0.52711
1213.06704	0.52653
1211.13848	0.52613
1209.20991	0.52580
1207.28135	0.52542
1205.35278	0.52488
1203.42422	0.52417
1201.49565	0.52345
1199.56709	0.52282
1197.63853	0.52215
1195.70996	0.52131
1193.78140	0.52053
1191.85283	0.51995
1189.92427	0.51941
1187.99570	0.51884
1186.06714	0.51847
1184.13857	0.51840
1182.21001	0.51845
1180.28145	0.51866
1178.35288	0.51923
1176.42432	0.52014
1174.49575	0.52115
1172.56719	0.52206
1170.63862	0.52284
1168.71006	0.52370
1166.78149	0.52480
1164.85293	0.52616
1162.92437	0.52753
1160.99580	0.52853
1159.06724	0.52902
1157.13867	0.52897
1155.21011	0.52838
1153.28154	0.52729
1151.35298	0.52566
1149.42441	0.52356
1147.49585	0.52111
1145.56729	0.51828
1143.63872	0.51524
1141.71016	0.51241
1139.78159	0.51010
1137.85303	0.50840
1135.92446	0.50716
1133.99590	0.50621
1132.06733	0.50543
1130.13877	0.50479
1128.21021	0.50423
1126.28164	0.50381
1124.35308	0.50358
1122.42451	0.50345
1120.49595	0.50331
1118.56738	0.50326
1116.63882	0.50361
1114.71025	0.50434
1112.78169	0.50509
1110.85312	0.50588
1108.92456	0.50687
1106.99600	0.50784
1105.06743	0.50873
1103.13887	0.50962
1101.21030	0.51061
1099.28174	0.51188
1097.35317	0.51364
1095.42461	0.51627
1093.49604	0.52017
1091.56748	0.52538
1089.63892	0.53184
1087.71035	0.53968
1085.78179	0.54888
1083.85322	0.55848
1081.92466	0.56684
1079.99609	0.57269
1078.06753	0.57547
1076.13896	0.57513
1074.21040	0.57196
1072.28184	0.56643
1070.35327	0.55946
1068.42471	0.55223
1066.49614	0.54548
1064.56758	0.53943
1062.63901	0.53410
1060.71045	0.52939
1058.78188	0.52525
1056.85332	0.52151
1054.92476	0.51817
1052.99619	0.51548
1051.06763	0.51349
1049.13906	0.51211
1047.21050	0.51150
1045.28193	0.51166
1043.35337	0.51232
1041.42480	0.51324
1039.49624	0.51413
1037.56768	0.51469
1035.63911	0.51476
1033.71055	0.51436
1031.78198	0.51344
1029.85342	0.51192
1027.92485	0.50996
1025.99629	0.50802
1024.06772	0.50645
1022.13916	0.50527
1020.21060	0.50432
1018.28203	0.50365
1016.35347	0.50335
1014.42490	0.50338
1012.49634	0.50338
1010.56777	0.50319
1008.63921	0.50303
1006.71064	0.50317
1004.78208	0.50387
1002.85352	0.50542
1000.92495	0.50789
998.99639	0.51125
997.06782	0.51534
995.13926	0.51974
993.21069	0.52377
991.28213	0.52679
989.35356	0.52851
987.42500	0.52904
985.49644	0.52883
983.56787	0.52854
981.63931	0.52872
979.71074	0.52947
977.78218	0.53074
975.85361	0.53266
973.92505	0.53537
971.99648	0.53859
970.06792	0.54193
968.13936	0.54538
966.21079	0.54926
964.28223	0.55380
962.35366	0.55874
960.42510	0.56383
958.49653	0.56932
956.56797	0.57520
954.63940	0.58113
952.71084	0.58712
950.78228	0.59335
948.85371	0.59985
946.92515	0.60637
944.99658	0.61264
943.06802	0.61871
941.13945	0.62477
939.21089	0.63086
937.28232	0.63685
935.35376	0.64255
933.42520	0.64810
931.49663	0.65357
929.56807	0.65901
927.63950	0.66457
925.71094	0.67047
923.78237	0.67717
921.85381	0.68454
919.92524	0.69186
917.99668	0.69860
916.06812	0.70512
914.13955	0.71268
912.21099	0.72135
910.28242	0.72988
908.35386	0.73802
906.42529	0.74625
904.49673	0.75488
902.56816	0.76404
900.63960	0.77369
898.71104	0.78402
896.78247	0.79419
894.85391	0.80330
892.92534	0.81212
890.99678	0.82173
889.06821	0.83268
887.13965	0.84387
885.21108	0.85434
883.28252	0.86536
881.35396	0.87756
879.42539	0.89008
877.49683	0.90212
875.56826	0.91331
873.63970	0.92378
871.71113	0.93390
869.78257	0.94437
867.85400	0.95672
865.92544	0.97028
863.99687	0.98220
862.06831	0.99355
860.13975	1.00674
858.21118	1.01950
856.28262	1.02986
854.35405	1.03989
852.42549	1.05114
850.49692	1.06260
848.56836	1.07401
846.63979	1.08620
844.71123	1.09811
842.78267	1.10833
840.85410	1.11797
838.92554	1.12947
836.99697	1.14349
835.06841	1.15738
833.13984	1.16945
831.21128	1.18032
829.28271	1.19186
827.35415	1.20482
825.42559	1.21838
823.49702	1.23009
821.56846	1.23342
819.63989	1.23535
817.71133	1.24473
815.78276	1.25883
813.85420	1.27742
811.92563	1.29218
809.99707	1.29714
808.06851	1.29706
806.13994	1.29308
804.21138	1.30113
802.28281	1.33684
800.35425	1.37053
798.42568	1.36327
796.49712	1.34665
794.56855	1.35360
792.63999	1.35981
790.71143	1.36122
788.78286	1.37394
786.85430	1.36393
784.92573	1.33320
782.99717	1.32917
781.06860	1.36213
779.14004	1.39672
777.21147	1.39748
775.28291	1.38934
773.35435	1.39246
771.42578	1.39318
769.49722	1.39208
767.56865	1.40014
765.64009	1.41825
763.71152	1.44518
761.78296	1.42612
759.85439	1.34264
757.92583	1.24008
755.99727	1.16526
754.06870	1.17257
752.14014	1.25200
750.21157	1.30989
748.28301	1.32902
746.35444	1.38519
744.42588	1.44266
742.49731	1.44889
740.56875	1.34562
738.64019	1.18593
736.71162	1.06009
734.78306	0.93003
732.85449	0.85266
730.92593	0.85388
728.99736	0.80864
727.06880	0.63003
725.14023	0.44677
723.21167	0.35257
721.28311	0.32969
719.35454	0.41599
717.42598	0.65275
715.49741	0.57369
713.56885	0.01951
711.64028	-0.28602
709.71172	0.14317
707.78315	0.30659
705.85459	0.19485
703.92603	0.10188
701.99746	0.09837
700.06890	0.14930
698.14033	0.20104
696.21177	0.15978
694.28320	0.16285
692.35464	0.20737
690.42607	0.32209
688.49751	1.10089
686.56895	4.11941
684.64038	4.10784
682.71182	0.45856
680.78325	0.26129
678.85469	0.21184
676.92612	0.18383
674.99756	0.13779
673.06899	0.11400
671.14043	0.18982
669.21187	0.34770
667.28330	0.34453
665.35474	0.23776
663.42617	0.29288
661.49761	0.63434
659.56904	1.01429
657.64048	0.41926
655.71191	0.14816
653.78335	0.07510
651.85479	0.08597
649.92622	0.11686
647.99766	0.17087
646.06909	0.20178
644.14053	0.15282
642.21196	0.11805
640.28340	0.13732
638.35483	0.15903
636.42627	0.14900
634.49771	0.18835
632.56914	0.32899
630.64058	0.53720
628.71201	0.61015
626.78345	0.46012
624.85488	0.33446
622.92632	0.25702
620.99775	0.22100
619.06919	0.24367
617.14062	0.26981
615.21206	0.25039
613.28350	0.25817
611.35493	0.27798
609.42637	0.24140
607.49780	0.20076
605.56924	0.24222
603.64067	0.36933
601.71211	0.39366
599.78354	0.31409
597.85498	0.27916
595.92642	0.27411
593.99785	0.32048
592.06929	0.45119
590.14072	0.46574
588.21216	0.29494
586.28359	0.20830
584.35503	0.24790
582.42646	0.32048
580.49790	0.35212
578.56934	0.36683
576.64077	0.30650
574.71221	0.21742
572.78364	0.19177
570.85508	0.19738
568.92651	0.18423
566.99795	0.19811
565.06938	0.28434
563.14082	0.43271
561.21226	0.49062
559.28369	0.38797
557.35513	0.26417
555.42656	0.20982
553.49800	0.22501
551.56943	0.24562
549.64087	0.24420
547.71230	0.23372
545.78374	0.21889
543.85518	0.19723
541.92661	0.16740
539.99805	0.16121
538.06948	0.20495
536.14092	0.31536
534.21235	0.41608
532.28379	0.34104
530.35522	0.21673
528.42666	0.15193
526.49810	0.16436
524.56953	0.23038
522.64097	0.26929
520.71240	0.19927
518.78384	0.12306
516.85527	0.12474
514.92671	0.17251
512.99814	0.21300
511.06958	0.22931
509.14102	0.23412
507.21245	0.24417
505.28389	0.27152
503.35532	0.31548
501.42676	0.31343
499.49819	0.22485
