3997.91411	0.05244
3995.98555	0.05316
3994.05698	0.05402
3992.12842	0.05448
3990.19985	0.05470
3988.27129	0.05483
3986.34272	0.05499
3984.41416	0.05516
3982.48560	0.05518
3980.55703	0.05534
3978.62847	0.05572
3976.69990	0.05605
3974.77134	0.05637
3972.84277	0.05681
3970.91421	0.05743
3968.98564	0.05796
3967.05708	0.05779
3965.12852	0.05727
3963.19995	0.05719
3961.27139	0.05758
3959.34282	0.05812
3957.41426	0.05847
3955.48569	0.05844
3953.55713	0.05833
3951.62856	0.05853
3949.70000	0.05895
3947.77144	0.05935
3945.84287	0.05950
3943.91431	0.05933
3941.98574	0.05918
3940.05718	0.05900
3938.12861	0.05851
3936.20005	0.05790
3934.27148	0.05771
3932.34292	0.05830
3930.41436	0.05920
3928.48579	0.05918
3926.55723	0.05872
3924.62866	0.05913
3922.70010	0.05980
3920.77153	0.05963
3918.84297	0.05912
3916.91440	0.05894
3914.98584	0.05882
3913.05728	0.05815
3911.12871	0.05737
3909.20015	0.05720
3907.27158	0.05770
3905.34302	0.05891
3903.41445	0.06085
3901.48589	0.06247
3899.55732	0.06278
3897.62876	0.06182
3895.70020	0.06031
3893.77163	0.05939
3891.84307	0.05975
3889.91450	0.06027
3887.98594	0.05965
3886.05737	0.05953
3884.12881	0.06055
3882.20024	0.06146
3880.27168	0.06234
3878.34312	0.06240
3876.41455	0.06119
3874.48599	0.06090
3872.55742	0.06210
3870.62886	0.06343
3868.70029	0.06425
3866.77173	0.06399
3864.84316	0.06377
3862.91460	0.06464
3860.98604	0.06500
3859.05747	0.06454
3857.12891	0.06474
3855.20034	0.06624
3853.27178	0.06935
3851.34321	0.07123
3849.41465	0.06907
3847.48608	0.06681
3845.55752	0.06632
3843.62896	0.06727
3841.70039	0.06902
3839.77183	0.07130
3837.84326	0.07350
3835.91470	0.07395
3833.98613	0.07290
3832.05757	0.07225
3830.12900	0.07210
3828.20044	0.07225
3826.27187	0.07297
3824.34331	0.07372
3822.41475	0.07529
3820.48618	0.07899
3818.55762	0.08119
3816.62905	0.08090
3814.70049	0.08077
3812.77192	0.08012
3810.84336	0.07944
3808.91479	0.08005
3806.98623	0.08217
3805.05767	0.08437
3803.12910	0.08571
3801.20054	0.08781
3799.27197	0.08958
3797.34341	0.08956
3795.41484	0.08967
3793.48628	0.09000
3791.55771	0.09034
3789.62915	0.09115
3787.70059	0.09251
3785.77202	0.09446
3783.84346	0.09637
3781.91489	0.09775
3779.98633	0.09955
3778.05776	0.10181
3776.12920	0.10307
3774.20063	0.10386
3772.27207	0.10549
3770.34351	0.10837
3768.41494	0.11149
3766.48638	0.11335
3764.55781	0.11478
3762.62925	0.11627
3760.70068	0.11833
3758.77212	0.12173
3756.84355	0.12497
3754.91499	0.12718
3752.98643	0.13029
3751.05786	0.13561
3749.12930	0.14058
3747.20073	0.14209
3745.27217	0.14365
3743.34360	0.14801
3741.41504	0.15150
3739.48647	0.15318
3737.55791	0.15644
3735.62935	0.16292
3733.70078	0.17042
3731.77222	0.17456
3729.84365	0.17671
3727.91509	0.17977
3725.98652	0.18499
3724.05796	0.19181
3722.12939	0.19884
3720.20083	0.20592
3718.27227	0.21296
3716.34370	0.22016
3714.41514	0.22785
3712.48657	0.23777
3710.55801	0.25175
3708.62944	0.26572
3706.70088	0.27637
3704.77231	0.28687
3702.84375	0.30025
3700.91519	0.31787
3698.98662	0.33648
3697.05806	0.35389
3695.12949	0.37270
3693.20093	0.39309
3691.27236	0.41574
3689.34380	0.44483
3687.41523	0.47951
3685.48667	0.50949
3683.55811	0.53536
3681.62954	0.56360
3679.70098	0.59577
3677.77241	0.62999
3675.84385	0.67099
3673.91528	0.72501
3671.98672	0.76905
3670.05815	0.80821
3668.12959	0.86075
3666.20103	0.90886
3664.27246	0.94966
3662.34390	0.99369
3660.41533	1.04126
3658.48677	1.08836
3656.55820	1.13879
3654.62964	1.19453
3652.70107	1.24157
3650.77251	1.28373
3648.84395	1.34146
3646.91538	1.40908
3644.98682	1.45813
3643.05825	1.49684
3641.12969	1.53722
3639.20112	1.58166
3637.27256	1.62650
3635.34399	1.67025
3633.41543	1.71387
3631.48687	1.75493
3629.55830	1.79755
3627.62974	1.85265
3625.70117	1.90207
3623.77261	1.93503
3621.84404	1.96817
3619.91548	2.00765
3617.98691	2.05437
3616.05835	2.09837
3614.12979	2.13572
3612.20122	2.17505
3610.27266	2.21435
3608.34409	2.25405
3606.41553	2.29617
3604.48696	2.33544
3602.55840	2.37130
3600.62983	2.41034
3598.70127	2.45146
3596.77271	2.49014
3594.84414	2.53082
3592.91558	2.57460
3590.98701	2.61515
3589.05845	2.65237
3587.12988	2.69642
3585.20132	2.74441
3583.27275	2.78554
3581.34419	2.82390
3579.41562	2.86405
3577.48706	2.90617
3575.55850	2.94983
3573.62993	2.99422
3571.70137	3.03646
3569.77280	3.07771
3567.84424	3.12315
3565.91567	3.17801
3563.98711	3.22918
3562.05854	3.26803
3560.12998	3.30675
3558.20142	3.35126
3556.27285	3.39775
3554.34429	3.44287
3552.41572	3.48898
3550.48716	3.53560
3548.55859	3.58168
3546.63003	3.62996
3544.70146	3.68222
3542.77290	3.73281
3540.84434	3.77665
3538.91577	3.81838
3536.98721	3.86498
3535.05864	3.91715
3533.13008	3.96694
3531.20151	4.01361
3529.27295	4.06195
3527.34438	4.11171
3525.41582	4.15924
3523.48726	4.20469
3521.55869	4.25121
3519.63013	4.29975
3517.70156	4.35153
3515.77300	4.40266
3513.84443	4.44938
3511.91587	4.49591
3509.98730	4.54572
3508.05874	4.59570
3506.13018	4.64303
3504.20161	4.68716
3502.27305	4.73060
3500.34448	4.77774
3498.41592	4.82661
3496.48735	4.87508
3494.55879	4.92633
3492.63022	4.98186
3490.70166	5.03400
3488.77310	5.08102
3486.84453	5.13163
3484.91597	5.18257
3482.98740	5.22595
3481.05884	5.26891
3479.13027	5.31730
3477.20171	5.36798
3475.27314	5.41729
3473.34458	5.46207
3471.41602	5.50349
3469.48745	5.54701
3467.55889	5.59926
3465.63032	5.65821
3463.70176	5.71352
3461.77319	5.75716
3459.84463	5.79659
3457.91606	5.84864
3455.98750	5.91238
3454.05894	5.97001
3452.13037	6.01870
3450.20181	6.07127
3448.27324	6.12758
3446.34468	6.17298
3444.41611	6.20765
3442.48755	6.26082
3440.55898	6.32717
3438.63042	6.38155
3436.70186	6.43052
3434.77329	6.47912
3432.84473	6.52664
3430.91616	6.58051
3428.98760	6.63681
3427.05903	6.68817
3425.13047	6.75529
3423.20190	6.82319
3421.27334	6.86099
3419.34478	6.88676
3417.41621	6.92725
3415.48765	6.98752
3413.55908	7.04902
3411.63052	7.09919
3409.70195	7.14434
3407.77339	7.20123
3405.84482	7.25128
3403.91626	7.27030
3401.98770	7.26602
3400.05913	7.27887
3398.13057	7.33807
3396.20200	7.40426
3394.27344	7.44066
3392.34487	7.45671
3390.41631	7.49069
3388.48774	7.55297
3386.55918	7.61721
3384.63062	7.66109
3382.70205	7.71175
3380.77349	7.76694
3378.84492	7.78601
3376.91636	7.79593
3374.98779	7.81103
3373.05923	7.83032
3371.13066	7.84741
3369.20210	7.87245
3367.27354	7.88392
3365.34497	7.85675
3363.41641	7.87112
3361.48784	7.98695
3359.55928	8.11714
3357.63071	8.14087
3355.70215	8.12339
3353.77358	8.10344
3351.84502	8.05743
3349.91646	8.01646
3347.98789	8.00731
3346.05933	8.06109
3344.13076	8.18005
3342.20220	8.24939
3340.27363	8.22937
3338.34507	8.22881
3336.41650	8.21024
3334.48794	8.16602
3332.55937	8.16679
3330.63081	8.21484
3328.70225	8.26162
3326.77368	8.27384
3324.84512	8.28097
3322.91655	8.27430
3320.98799	8.27141
3319.05942	8.31856
3317.13086	8.38051
3315.20229	8.33817
3313.27373	8.20603
3311.34517	8.12959
3309.41660	8.21229
3307.48804	8.38399
3305.55947	8.44627
3303.63091	8.45552
3301.70234	8.45514
3299.77378	8.38549
3297.84521	8.34690
3295.91665	8.36191
3293.98809	8.33606
3292.05952	8.27284
3290.13096	8.22587
3288.20239	8.23336
3286.27383	8.27323
3284.34526	8.26258
3282.41670	8.26454
3280.48813	8.30339
3278.55957	8.30124
3276.63101	8.29558
3274.70244	8.29381
3272.77388	8.24306
3270.84531	8.19085
3268.91675	8.20446
3266.98818	8.26384
3265.05962	8.31173
3263.13105	8.31901
3261.20249	8.30167
3259.27393	8.25942
3257.34536	8.25292
3255.41680	8.33048
3253.48823	8.32670
3251.55967	8.21980
3249.63110	8.20990
3247.70254	8.28295
3245.77397	8.32013
3243.84541	8.29302
3241.91685	8.26200
3239.98828	8.31475
3238.05972	8.36880
3236.13115	8.31697
3234.20259	8.22360
3232.27402	8.16722
3230.34546	8.15974
3228.41689	8.15582
3226.48833	8.13508
3224.55977	8.13524
3222.63120	8.16865
3220.70264	8.17919
3218.77407	8.16177
3216.84551	8.17611
3214.91694	8.21667
3212.98838	8.22355
3211.05981	8.20839
3209.13125	8.19588
3207.20269	8.13491
3205.27412	8.01134
3203.34556	7.87611
3201.41699	7.81243
3199.48843	7.81323
3197.55986	7.79098
3195.63130	7.73723
3193.70273	7.69748
3191.77417	7.68216
3189.84561	7.66086
3187.91704	7.64761
3185.98848	7.63127
3184.05991	7.54478
3182.13135	7.45165
3180.20278	7.42030
3178.27422	7.37516
3176.34565	7.26752
3174.41709	7.17305
3172.48853	7.12631
3170.55996	7.07823
3168.63140	7.02937
3166.70283	7.00730
3164.77427	6.98477
3162.84570	6.95357
3160.91714	6.91837
3158.98857	6.84865
3157.06001	6.74835
3155.13145	6.65527
3153.20288	6.58408
3151.27432	6.52526
3149.34575	6.45698
3147.41719	6.37555
3145.48862	6.29773
3143.56006	6.22749
3141.63149	6.15511
3139.70293	6.07894
3137.77437	6.00578
3135.84580	5.93362
3133.91724	5.86679
3131.98867	5.80748
3130.06011	5.73943
3128.13154	5.65567
3126.20298	5.56682
3124.27441	5.48833
3122.34585	5.41989
3120.41729	5.34819
3118.48872	5.27486
3116.56016	5.20833
3114.63159	5.14589
3112.70303	5.08155
3110.77446	5.01504
3108.84590	4.94903
3106.91733	4.87965
3104.98877	4.80398
3103.06021	4.73133
3101.13164	4.66435
3099.20308	4.59525
3097.27451	4.52534
3095.34595	4.45985
3093.41738	4.39475
3091.48882	4.32632
3089.56025	4.25783
3087.63169	4.19343
3085.70312	4.13283
3083.77456	4.07019
3081.84600	4.00304
3079.91743	3.93622
3077.98887	3.87390
3076.06030	3.81266
3074.13174	3.74933
3072.20317	3.68870
3070.27461	3.63355
3068.34604	3.57982
3066.41748	3.52370
3064.48892	3.46492
3062.56035	3.40521
3060.63179	3.34834
3058.70322	3.29534
3056.77466	3.24184
3054.84609	3.18627
3052.91753	3.13152
3050.98896	3.07904
3049.06040	3.02770
3047.13184	2.97653
3045.20327	2.92609
3043.27471	2.87673
3041.34614	2.82784
3039.41758	2.77900
3037.48901	2.73085
3035.56045	2.68393
3033.63188	2.63805
3031.70332	2.59255
3029.77476	2.54695
3027.84619	2.50217
3025.91763	2.45893
3023.98906	2.41611
3022.06050	2.37328
3020.13193	2.33112
3018.20337	2.29022
3016.27480	2.25058
3014.34624	2.21147
3012.41768	2.17255
3010.48911	2.13404
3008.56055	2.09630
3006.63198	2.05923
3004.70342	2.02221
3002.77485	1.98554
3000.84629	1.94986
2998.91772	1.91491
2996.98916	1.88069
2995.06060	1.84745
2993.13203	1.81482
2991.20347	1.78294
2989.27490	1.75206
2987.34634	1.72149
2985.41777	1.69063
2983.48921	1.65994
2981.56064	1.63011
2979.63208	1.60123
2977.70352	1.57300
2975.77495	1.54526
2973.84639	1.51758
2971.91782	1.48940
2969.98926	1.46113
2968.06069	1.43356
2966.13213	1.40689
2964.20356	1.38114
2962.27500	1.35588
2960.34644	1.33068
2958.41787	1.30577
2956.48931	1.28147
2954.56074	1.25786
2952.63218	1.23443
2950.70361	1.21086
2948.77505	1.18757
2946.84648	1.16492
2944.91792	1.14308
2942.98936	1.12167
2941.06079	1.10032
2939.13223	1.07919
2937.20366	1.05823
2935.27510	1.03739
2933.34653	1.01704
2931.41797	0.99763
2929.48940	0.97897
2927.56084	0.96033
2925.63228	0.94170
2923.70371	0.92359
2921.77515	0.90599
2919.84658	0.88858
2917.91802	0.87137
2915.98945	0.85515
2914.06089	0.84035
2912.13232	0.82618
2910.20376	0.81198
2908.27520	0.79769
2906.34663	0.78374
2904.41807	0.77066
2902.48950	0.75801
2900.56094	0.74505
2898.63237	0.73215
2896.70381	0.71992
2894.77524	0.70806
2892.84668	0.69613
2890.91812	0.68432
2888.98955	0.67287
2887.06099	0.66165
2885.13242	0.65065
2883.20386	0.63982
2881.27529	0.62909
2879.34673	0.61853
2877.41816	0.60827
2875.48960	0.59835
2873.56104	0.58833
2871.63247	0.57797
2869.70391	0.56747
2867.77534	0.55674
2865.84678	0.54575
2863.91821	0.53494
2861.98965	0.52453
2860.06108	0.51449
2858.13252	0.50482
2856.20396	0.49548
2854.27539	0.48641
2852.34683	0.47746
2850.41826	0.46874
2848.48970	0.46063
2846.56113	0.45329
2844.63257	0.44661
2842.70400	0.44040
2840.77544	0.43453
2838.84687	0.42909
2836.91831	0.42401
2834.98975	0.41890
2833.06118	0.41353
2831.13262	0.40796
2829.20405	0.40231
2827.27549	0.39663
2825.34692	0.39082
2823.41836	0.38490
2821.48979	0.37905
2819.56123	0.37339
2817.63267	0.36771
2815.70410	0.36198
2813.77554	0.35643
2811.84697	0.35118
2809.91841	0.34617
2807.98984	0.34118
2806.06128	0.33605
2804.13271	0.33081
2802.20415	0.32574
2800.27559	0.32098
2798.34702	0.31636
2796.41846	0.31166
2794.48989	0.30702
2792.56133	0.30271
2790.63276	0.29852
2788.70420	0.29415
2786.77563	0.28968
2784.84707	0.28537
2782.91851	0.28129
2780.98994	0.27739
2779.06138	0.27371
2777.13281	0.27011
2775.20425	0.26639
2773.27568	0.26267
2771.34712	0.25910
2769.41855	0.25574
2767.48999	0.25248
2765.56143	0.24913
2763.63286	0.24570
2761.70430	0.24245
2759.77573	0.23937
2757.84717	0.23625
2755.91860	0.23312
2753.99004	0.23018
2752.06147	0.22741
2750.13291	0.22467
2748.20435	0.22188
2746.27578	0.21908
2744.34722	0.21639
2742.41865	0.21385
2740.49009	0.21139
2738.56152	0.20893
2736.63296	0.20651
2734.70439	0.20422
2732.77583	0.20195
2730.84727	0.19967
2728.91870	0.19737
2726.99014	0.19511
2725.06157	0.19304
2723.13301	0.19117
2721.20444	0.18930
2719.27588	0.18736
2717.34731	0.18547
2715.41875	0.18366
2713.49019	0.18184
2711.56162	0.18006
2709.63306	0.17836
2707.70449	0.17672
2705.77593	0.17506
2703.84736	0.17342
2701.91880	0.17196
2699.99023	0.17067
2698.06167	0.16939
2696.13311	0.16805
2694.20454	0.16673
2692.27598	0.16532
2690.34741	0.16367
2688.41885	0.16204
2686.49028	0.16076
2684.56172	0.15970
2682.63315	0.15875
2680.70459	0.15785
2678.77603	0.15684
2676.84746	0.15571
2674.91890	0.15456
2672.99033	0.15346
2671.06177	0.15243
2669.13320	0.15153
2667.20464	0.15067
2665.27607	0.14981
2663.34751	0.14901
2661.41895	0.14825
2659.49038	0.14754
2657.56182	0.14694
2655.63325	0.14625
2653.70469	0.14542
2651.77612	0.14467
2649.84756	0.14399
2647.91899	0.14335
2645.99043	0.14286
2644.06187	0.14254
2642.13330	0.14220
2640.20474	0.14173
2638.27617	0.14110
2636.34761	0.14048
2634.41904	0.14007
2632.49048	0.13978
2630.56191	0.13947
2628.63335	0.13919
2626.70479	0.13899
2624.77622	0.13884
2622.84766	0.13866
2620.91909	0.13842
2618.99053	0.13818
2617.06196	0.13800
2615.13340	0.13794
2613.20483	0.13789
2611.27627	0.13771
2609.34771	0.13750
2607.41914	0.13732
2605.49058	0.13714
2603.56201	0.13699
2601.63345	0.13705
2599.70488	0.13733
2597.77632	0.13765
2595.84775	0.13792
2593.91919	0.13818
2591.99062	0.13837
2590.06206	0.13843
2588.13350	0.13849
2586.20493	0.13876
2584.27637	0.13917
2582.34780	0.13957
2580.41924	0.13995
2578.49067	0.14026
2576.56211	0.14057
2574.63354	0.14092
2572.70498	0.14122
2570.77642	0.14152
2568.84785	0.14189
2566.91929	0.14229
2564.99072	0.14275
2563.06216	0.14326
2561.13359	0.14377
2559.20503	0.14433
2557.27646	0.14483
2555.34790	0.14530
2553.41934	0.14587
2551.49077	0.14646
2549.56221	0.14703
2547.63364	0.14769
2545.70508	0.14840
2543.77651	0.14905
2541.84795	0.14960
2539.91938	0.15018
2537.99082	0.15094
2536.06226	0.15181
2534.13369	0.15258
2532.20513	0.15325
2530.27656	0.15401
2528.34800	0.15482
2526.41943	0.15554
2524.49087	0.15624
2522.56230	0.15703
2520.63374	0.15791
2518.70518	0.15873
2516.77661	0.15941
2514.84805	0.16013
2512.91948	0.16102
2510.99092	0.16201
2509.06235	0.16296
2507.13379	0.16381
2505.20522	0.16468
2503.27666	0.16569
2501.34810	0.16665
2499.41953	0.16741
2497.49097	0.16809
2495.56240	0.16899
2493.63384	0.17005
2491.70527	0.17101
2489.77671	0.17190
2487.84814	0.17280
2485.91958	0.17370
2483.99102	0.17463
2482.06245	0.17560
2480.13389	0.17655
2478.20532	0.17751
2476.27676	0.17847
2474.34819	0.17936
2472.41963	0.18017
2470.49106	0.18093
2468.56250	0.18185
2466.63394	0.18304
2464.70537	0.18421
2462.77681	0.18520
2460.84824	0.18616
2458.91968	0.18718
2456.99111	0.18821
2455.06255	0.18919
2453.13398	0.19015
2451.20542	0.19117
2449.27686	0.19215
2447.34829	0.19305
2445.41973	0.19405
2443.49116	0.19526
2441.56260	0.19648
2439.63403	0.19753
2437.70547	0.19850
2435.77690	0.19952
2433.84834	0.20053
2431.91978	0.20159
2429.99121	0.20280
2428.06265	0.20398
2426.13408	0.20505
2424.20552	0.20614
2422.27695	0.20728
2420.34839	0.20847
2418.41982	0.20975
2416.49126	0.21097
2414.56270	0.21211
2412.63413	0.21334
2410.70557	0.21467
2408.77700	0.21593
2406.84844	0.21703
2404.91987	0.21811
2402.99131	0.21931
2401.06274	0.22065
2399.13418	0.22201
2397.20562	0.22332
2395.27705	0.22465
2393.34849	0.22602
2391.41992	0.22735
2389.49136	0.22853
2387.56279	0.22974
2385.63423	0.23133
2383.70566	0.23332
2381.77710	0.23538
2379.84854	0.23753
2377.91997	0.23996
2375.99141	0.24255
2374.06284	0.24527
2372.13428	0.24829
2370.20571	0.25159
2368.27715	0.25473
2366.34858	0.25753
2364.42002	0.26019
2362.49146	0.26260
2360.56289	0.26520
2358.63433	0.26823
2356.70576	0.26950
2354.77720	0.26844
2352.84863	0.26765
2350.92007	0.26757
2348.99150	0.26766
2347.06294	0.26860
2345.13437	0.27107
2343.20581	0.27435
2341.27725	0.27684
2339.34868	0.27847
2337.42012	0.27952
2335.49155	0.28041
2333.56299	0.28163
2331.63442	0.28357
2329.70586	0.28595
2327.77729	0.28784
2325.84873	0.28898
2323.92017	0.28989
2321.99160	0.29068
2320.06304	0.29136
2318.13447	0.29213
2316.20591	0.29308
2314.27734	0.29438
2312.34878	0.29598
2310.42021	0.29755
2308.49165	0.29901
2306.56309	0.30043
2304.63452	0.30180
2302.70596	0.30314
2300.77739	0.30468
2298.84883	0.30635
2296.92026	0.30796
2294.99170	0.30957
2293.06313	0.31129
2291.13457	0.31303
2289.20601	0.31477
2287.27744	0.31666
2285.34888	0.31858
2283.42031	0.32037
2281.49175	0.32227
2279.56318	0.32442
2277.63462	0.32660
2275.70605	0.32861
2273.77749	0.33059
2271.84893	0.33276
2269.92036	0.33506
2267.99180	0.33724
2266.06323	0.33936
2264.13467	0.34155
2262.20610	0.34375
2260.27754	0.34585
2258.34897	0.34790
2256.42041	0.35000
2254.49185	0.35218
2252.56328	0.35439
2250.63472	0.35663
2248.70615	0.35893
2246.77759	0.36116
2244.84902	0.36325
2242.92046	0.36531
2240.99189	0.36755
2239.06333	0.36994
2237.13477	0.37221
2235.20620	0.37442
2233.27764	0.37678
2231.34907	0.37919
2229.42051	0.38145
2227.49194	0.38364
2225.56338	0.38586
2223.63481	0.38811
2221.70625	0.39034
2219.77769	0.39258
2217.84912	0.39492
2215.92056	0.39721
2213.99199	0.39931
2212.06343	0.40140
2210.13486	0.40369
2208.20630	0.40601
2206.27773	0.40814
2204.34917	0.41020
2202.42061	0.41228
2200.49204	0.41432
2198.56348	0.41641
2196.63491	0.41855
2194.70635	0.42058
2192.77778	0.42249
2190.84922	0.42433
2188.92065	0.42611
2186.99209	0.42794
2185.06353	0.42986
2183.13496	0.43177
2181.20640	0.43358
2179.27783	0.43522
2177.34927	0.43682
2175.42070	0.43842
2173.49214	0.43995
2171.56357	0.44141
2169.63501	0.44280
2167.70645	0.44418
2165.77788	0.44554
2163.84932	0.44689
2161.92075	0.44817
2159.99219	0.44926
2158.06362	0.45015
2156.13506	0.45105
2154.20649	0.45200
2152.27793	0.45286
2150.34937	0.45365
2148.42080	0.45444
2146.49224	0.45516
2144.56367	0.45573
2142.63511	0.45610
2140.70654	0.45644
2138.77798	0.45683
2136.84941	0.45709
2134.92085	0.45713
2132.99229	0.45699
2131.06372	0.45681
2129.13516	0.45674
2127.20659	0.45669
2125.27803	0.45648
2123.34946	0.45610
2121.42090	0.45563
2119.49233	0.45518
2117.56377	0.45468
2115.63521	0.45401
2113.70664	0.45321
2111.77808	0.45236
2109.84951	0.45134
2107.92095	0.45020
2105.99238	0.44906
2104.06382	0.44791
2102.13525	0.44664
2100.20669	0.44532
2098.27812	0.44391
2096.34956	0.44241
2094.42100	0.44096
2092.49243	0.43949
2090.56387	0.43787
2088.63530	0.43611
2086.70674	0.43422
2084.77817	0.43227
2082.84961	0.43034
2080.92104	0.42840
2078.99248	0.42642
2077.06392	0.42439
2075.13535	0.42221
2073.20679	0.41997
2071.27822	0.41771
2069.34966	0.41545
2067.42109	0.41321
2065.49253	0.41100
2063.56396	0.40864
2061.63540	0.40611
2059.70684	0.40362
2057.77827	0.40119
2055.84971	0.39868
2053.92114	0.39604
2051.99258	0.39338
2050.06401	0.39072
2048.13545	0.38809
2046.20688	0.38541
2044.27832	0.38270
2042.34976	0.38003
2040.42119	0.37740
2038.49263	0.37469
2036.56406	0.37186
2034.63550	0.36900
2032.70693	0.36616
2030.77837	0.36338
2028.84980	0.36062
2026.92124	0.35784
2024.99268	0.35507
2023.06411	0.35232
2021.13555	0.34957
2019.20698	0.34680
2017.27842	0.34403
2015.34985	0.34119
2013.42129	0.33833
2011.49272	0.33556
2009.56416	0.33284
2007.63560	0.33006
2005.70703	0.32726
2003.77847	0.32450
2001.84990	0.32182
1999.92134	0.31924
1997.99277	0.31668
1996.06421	0.31405
1994.13564	0.31153
1992.20708	0.30921
1990.27852	0.30675
1988.34995	0.30408
1986.42139	0.30146
1984.49282	0.29898
1982.56426	0.29653
1980.63569	0.29407
1978.70713	0.29174
1976.77856	0.28954
1974.85000	0.28731
1972.92144	0.28500
1970.99287	0.28274
1969.06431	0.28070
1967.13574	0.27878
1965.20718	0.27677
1963.27861	0.27473
1961.35005	0.27277
1959.42148	0.27085
1957.49292	0.26894
1955.56436	0.26702
1953.63579	0.26522
1951.70723	0.26357
1949.77866	0.26197
1947.85010	0.26034
1945.92153	0.25880
1943.99297	0.25748
1942.06440	0.25617
1940.13584	0.25453
1938.20728	0.25282
1936.27871	0.25133
1934.35015	0.24996
1932.42158	0.24862
1930.49302	0.24738
1928.56445	0.24629
1926.63589	0.24529
1924.70732	0.24444
1922.77876	0.24361
1920.85020	0.24255
1918.92163	0.24151
1916.99307	0.24055
1915.06450	0.23945
1913.13594	0.23844
1911.20737	0.23777
1909.27881	0.23725
1907.35024	0.23660
1905.42168	0.23581
1903.49312	0.23513
1901.56455	0.23452
1899.63599	0.23399
1897.70742	0.23365
1895.77886	0.23345
1893.85029	0.23323
1891.92173	0.23287
1889.99316	0.23263
1888.06460	0.23231
1886.13604	0.23176
1884.20747	0.23139
1882.27891	0.23127
1880.35034	0.23118
1878.42178	0.23104
1876.49321	0.23094
1874.56465	0.23091
1872.63608	0.23106
1870.70752	0.23158
1868.77896	0.23254
1866.85039	0.23296
1864.92183	0.23255
1862.99326	0.23225
1861.06470	0.23237
1859.13613	0.23282
1857.20757	0.23325
1855.27900	0.23358
1853.35044	0.23392
1851.42187	0.23452
1849.49331	0.23531
1847.56475	0.23625
1845.63618	0.23736
1843.70762	0.23849
1841.77905	0.23904
1839.85049	0.23920
1837.92192	0.23984
1835.99336	0.24081
1834.06479	0.24179
1832.13623	0.24291
1830.20767	0.24458
1828.27910	0.24617
1826.35054	0.24715
1824.42197	0.24837
1822.49341	0.24956
1820.56484	0.25056
1818.63628	0.25179
1816.70771	0.25344
1814.77915	0.25522
1812.85059	0.25715
1810.92202	0.25939
1808.99346	0.26152
1807.06489	0.26337
1805.13633	0.26525
1803.20776	0.26764
1801.27920	0.27044
1799.35063	0.27332
1797.42207	0.27575
1795.49351	0.27819
1793.56494	0.28133
1791.63638	0.28525
1789.70781	0.28853
1787.77925	0.29087
1785.85068	0.29393
1783.92212	0.29765
1781.99355	0.30168
1780.06499	0.30608
1778.13643	0.31053
1776.20786	0.31467
1774.27930	0.31928
1772.35073	0.32552
1770.42217	0.33187
1768.49360	0.33691
1766.56504	0.34178
1764.63647	0.34698
1762.70791	0.35296
1760.77935	0.36055
1758.85078	0.36773
1756.92222	0.37493
1754.99365	0.38266
1753.06509	0.38977
1751.13652	0.39851
1749.20796	0.40933
1747.27939	0.41937
1745.35083	0.42807
1743.42227	0.43751
1741.49370	0.44813
1739.56514	0.46057
1737.63657	0.47295
1735.70801	0.48411
1733.77944	0.50093
1731.85088	0.52058
1729.92231	0.53604
1727.99375	0.55175
1726.06519	0.56887
1724.13662	0.58782
1722.20806	0.60833
1720.27949	0.62762
1718.35093	0.65037
1716.42236	0.68267
1714.49380	0.71287
1712.56523	0.73767
1710.63667	0.76196
1708.70811	0.78814
1706.77954	0.81784
1704.85098	0.85278
1702.92241	0.88398
1700.99385	0.91521
1699.06528	0.96087
1697.13672	1.00253
1695.20815	1.04478
1693.27959	1.08622
1691.35103	1.12001
1689.42246	1.15887
1687.49390	1.19960
1685.56533	1.23910
1683.63677	1.29857
1681.70820	1.35974
1679.77964	1.39951
1677.85107	1.43739
1675.92251	1.48099
1673.99395	1.53443
1672.06538	1.58206
1670.13682	1.62867
1668.20825	1.68824
1666.27969	1.73660
1664.35112	1.77737
1662.42256	1.82782
1660.49399	1.88404
1658.56543	1.92767
1656.63687	1.96331
1654.70830	1.99792
1652.77974	2.05380
1650.85117	2.10762
1648.92261	2.12814
1646.99404	2.15407
1645.06548	2.18511
1643.13691	2.20670
1641.20835	2.21957
1639.27979	2.23063
1637.35122	2.23753
1635.42266	2.23916
1633.49409	2.23512
1631.56553	2.22335
1629.63696	2.20717
1627.70840	2.18172
1625.77983	2.15277
1623.85127	2.11614
1621.92271	2.07075
1619.99414	2.02855
1618.06558	1.98608
1616.13701	1.92688
1614.20845	1.86597
1612.27988	1.81838
1610.35132	1.76929
1608.42275	1.71654
1606.49419	1.66347
1604.56562	1.61354
1602.63706	1.56574
1600.70850	1.51926
1598.77993	1.47580
1596.85137	1.43480
1594.92280	1.39527
1592.99424	1.35706
1591.06567	1.32192
1589.13711	1.28876
1587.20854	1.25740
1585.27998	1.22806
1583.35142	1.20053
1581.42285	1.17516
1579.49429	1.15310
1577.56572	1.13306
1575.63716	1.10873
1573.70859	1.08652
1571.78003	1.07133
1569.85146	1.05562
1567.92290	1.03815
1565.99434	1.02402
1564.06577	1.01200
1562.13721	1.00204
1560.20864	0.99449
1558.28008	0.98336
1556.35151	0.97181
1554.42295	0.96383
1552.49438	0.95626
1550.56582	0.94850
1548.63726	0.93989
1546.70869	0.93123
1544.78013	0.92233
1542.85156	0.91279
1540.92300	0.90137
1538.99443	0.88362
1537.06587	0.86869
1535.13730	0.85879
1533.20874	0.84730
1531.28018	0.83473
1529.35161	0.82503
1527.42305	0.81617
1525.49448	0.80715
1523.56592	0.79916
1521.63735	0.79131
1519.70879	0.78303
1517.78022	0.77602
1515.85166	0.76844
1513.92310	0.76045
1511.99453	0.75365
1510.06597	0.74782
1508.13740	0.74263
1506.20884	0.73477
1504.28027	0.72641
1502.35171	0.72108
1500.42314	0.71677
1498.49458	0.71250
1496.56602	0.70778
1494.63745	0.70302
1492.70889	0.69920
1490.78032	0.69622
1488.85176	0.69279
1486.92319	0.68853
1484.99463	0.68465
1483.06606	0.68176
1481.13750	0.67940
1479.20894	0.67721
1477.28037	0.67554
1475.35181	0.67440
1473.42324	0.67327
1471.49468	0.67073
1469.56611	0.66713
1467.63755	0.66409
1465.70898	0.66176
1463.78042	0.65969
1461.85186	0.65797
1459.92329	0.65703
1457.99473	0.65667
1456.06616	0.65519
1454.13760	0.65219
1452.20903	0.64936
1450.28047	0.64683
1448.35190	0.64457
1446.42334	0.64236
1444.49478	0.64023
1442.56621	0.63830
1440.63765	0.63649
1438.70908	0.63496
1436.78052	0.63355
1434.85195	0.63160
1432.92339	0.62959
1430.99482	0.62822
1429.06626	0.62722
1427.13770	0.62623
1425.20913	0.62545
1423.28057	0.62493
1421.35200	0.62449
1419.42344	0.62422
1417.49487	0.62342
1415.56631	0.62160
1413.63774	0.61985
1411.70918	0.61854
1409.78062	0.61752
1407.85205	0.61676
1405.92349	0.61629
1403.99492	0.61568
1402.06636	0.61461
1400.13779	0.61341
1398.20923	0.61206
1396.28066	0.61037
1394.35210	0.60808
1392.42354	0.60531
1390.49497	0.60289
1388.56641	0.60084
1386.63784	0.59844
1384.70928	0.59563
1382.78071	0.59301
1380.85215	0.59077
1378.92358	0.58900
1376.99502	0.58769
1375.06646	0.58676
1373.13789	0.58590
1371.20933	0.58492
1369.28076	0.58409
1367.35220	0.58318
1365.42363	0.58215
1363.49507	0.58137
1361.56650	0.58049
1359.63794	0.57908
1357.70937	0.57766
1355.78081	0.57655
1353.85225	0.57557
1351.92368	0.57459
1349.99512	0.57367
1348.06655	0.57275
1346.13799	0.57177
1344.20942	0.57077
1342.28086	0.56996
1340.35229	0.56938
1338.42373	0.56861
1336.49517	0.56749
1334.56660	0.56637
1332.63804	0.56551
1330.70947	0.56495
1328.78091	0.56462
1326.85234	0.56439
1324.92378	0.56419
1322.99521	0.56399
1321.06665	0.56370
1319.13809	0.56332
1317.20952	0.56289
1315.28096	0.56240
1313.35239	0.56174
1311.42383	0.56082
1309.49526	0.55978
1307.56670	0.55884
1305.63813	0.55792
1303.70957	0.55693
1301.78101	0.55592
1299.85244	0.55493
1297.92388	0.55393
1295.99531	0.55291
1294.06675	0.55191
1292.13818	0.55097
1290.20962	0.55007
1288.28105	0.54919
1286.35249	0.54837
1284.42393	0.54770
1282.49536	0.54704
1280.56680	0.54616
1278.63823	0.54511
1276.70967	0.54431
1274.78110	0.54385
1272.85254	0.54345
1270.92397	0.54291
1268.99541	0.54227
1267.06685	0.54172
1265.13828	0.54132
1263.20972	0.54096
1261.28115	0.54055
1259.35259	0.54014
1257.42402	0.53971
1255.49546	0.53934
1253.56689	0.53921
1251.63833	0.53920
1249.70977	0.53911
1247.78120	0.53888
1245.85264	0.53856
1243.92407	0.53820
1241.99551	0.53774
1240.06694	0.53717
1238.13838	0.53653
1236.20981	0.53564
1234.28125	0.53449
1232.35269	0.53330
1230.42412	0.53218
1228.49556	0.53106
1226.56699	0.52993
1224.63843	0.52880
1222.70986	0.52765
1220.78130	0.52674
1218.85273	0.52604
1216.92417	0.52519
1214.99561	0.52426
1213.06704	0.52354
1211.13848	0.52292
1209.20991	0.52223
1207.28135	0.52149
1205.35278	0.52079
1203.42422	0.52019
1201.49565	0.51968
1199.56709	0.51910
1197.63853	0.51847
1195.70996	0.51790
1193.78140	0.51741
1191.85283	0.51690
1189.92427	0.51633
1187.99570	0.51581
1186.06714	0.51551
1184.13857	0.51552
1182.21001	0.51579
1180.28145	0.51623
1178.35288	0.51685
1176.42432	0.51759
1174.49575	0.51831
1172.56719	0.51895
1170.63862	0.51945
1168.71006	0.51982
1166.78149	0.52009
1164.85293	0.52034
1162.92437	0.52061
1160.99580	0.52078
1159.06724	0.52072
1157.13867	0.52037
1155.21011	0.51964
1153.28154	0.51855
1151.35298	0.51722
1149.42441	0.51563
1147.49585	0.51383
1145.56729	0.51199
1143.63872	0.51023
1141.71016	0.50858
1139.78159	0.50680
1137.85303	0.50483
1135.92446	0.50310
1133.99590	0.50172
1132.06733	0.50054
1130.13877	0.49945
1128.21021	0.49846
1126.28164	0.49753
1124.35308	0.49647
1122.42451	0.49530
1120.49595	0.49436
1118.56738	0.49388
1116.63882	0.49376
1114.71025	0.49384
1112.78169	0.49414
1110.85312	0.49452
1108.92456	0.49498
1106.99600	0.49580
1105.06743	0.49688
1103.13887	0.49807
1101.21030	0.49945
1099.28174	0.50106
1097.35317	0.50319
1095.42461	0.50617
1093.49604	0.50989
1091.56748	0.51442
1089.63892	0.51997
1087.71035	0.52656
1085.78179	0.53387
1083.85322	0.54148
1081.92466	0.54869
1079.99609	0.55438
1078.06753	0.55742
1076.13896	0.55756
1074.21040	0.55499
1072.28184	0.55008
1070.35327	0.54377
1068.42471	0.53703
1066.49614	0.53054
1064.56758	0.52459
1062.63901	0.51913
1060.71045	0.51422
1058.78188	0.50991
1056.85332	0.50600
1054.92476	0.50238
1052.99619	0.49938
1051.06763	0.49725
1049.13906	0.49581
1047.21050	0.49483
1045.28193	0.49409
1043.35337	0.49356
1041.42480	0.49322
1039.49624	0.49303
1037.56768	0.49300
1035.63911	0.49285
1033.71055	0.49232
1031.78198	0.49158
1029.85342	0.49086
1027.92485	0.49017
1025.99629	0.48950
1024.06772	0.48887
1022.13916	0.48848
1020.21060	0.48855
1018.28203	0.48893
1016.35347	0.48915
1014.42490	0.48929
1012.49634	0.48983
1010.56777	0.49065
1008.63921	0.49145
1006.71064	0.49243
1004.78208	0.49381
1002.85352	0.49570
1000.92495	0.49827
998.99639	0.50147
997.06782	0.50512
995.13926	0.50915
993.21069	0.51324
991.28213	0.51673
989.35356	0.51907
987.42500	0.52025
985.49644	0.52072
983.56787	0.52103
981.63931	0.52161
979.71074	0.52270
977.78218	0.52446
975.85361	0.52680
973.92505	0.52949
971.99648	0.53249
970.06792	0.53595
968.13936	0.53991
966.21079	0.54412
964.28223	0.54851
962.35366	0.55335
960.42510	0.55857
958.49653	0.56389
956.56797	0.56942
954.63940	0.57541
952.71084	0.58194
950.78228	0.58864
948.85371	0.59513
946.92515	0.60158
944.99658	0.60835
943.06802	0.61517
941.13945	0.62134
939.21089	0.62687
937.28232	0.63221
935.35376	0.63749
933.42520	0.64318
931.49663	0.64956
929.56807	0.65592
927.63950	0.66187
925.71094	0.66760
923.78237	0.67304
921.85381	0.67873
919.92524	0.68553
917.99668	0.69301
916.06812	0.70012
914.13955	0.70731
912.21099	0.71557
910.28242	0.72398
908.35386	0.73199
906.42529	0.74036
904.49673	0.74928
902.56816	0.75882
900.63960	0.76898
898.71104	0.77907
896.78247	0.78889
894.85391	0.79875
892.92534	0.80839
890.99678	0.81846
889.06821	0.82966
887.13965	0.84088
885.21108	0.85164
883.28252	0.86295
881.35396	0.87469
879.42539	0.88543
877.49683	0.89581
875.56826	0.90820
873.63970	0.92185
871.71113	0.93377
869.78257	0.94369
867.85400	0.95383
865.92544	0.96480
863.99687	0.97517
862.06831	0.98563
860.13975	0.99837
858.21118	1.01207
856.28262	1.02425
854.35405	1.03519
852.42549	1.04620
850.49692	1.05841
848.56836	1.06972
846.63979	1.07844
844.71123	1.08789
842.78267	1.09957
840.85410	1.11254
838.92554	1.12612
836.99697	1.13910
835.06841	1.15082
833.13984	1.16086
831.21128	1.16890
829.28271	1.17789
827.35415	1.19195
825.42559	1.20670
823.49702	1.21571
821.56846	1.22325
819.63989	1.23491
817.71133	1.24922
815.78276	1.25906
813.85420	1.25993
811.92563	1.26712
809.99707	1.28936
808.06851	1.30826
806.13994	1.31898
804.21138	1.32863
802.28281	1.34041
800.35425	1.35453
798.42568	1.35527
796.49712	1.33964
794.56855	1.32352
792.63999	1.31712
790.71143	1.32536
788.78286	1.35072
786.85430	1.39201
784.92573	1.46243
782.99717	1.54647
781.06860	1.57075
779.14004	1.55689
777.21147	1.54064
775.28291	1.50001
773.35435	1.45672
771.42578	1.41234
769.49722	1.38304
767.56865	1.45316
765.64009	1.57824
763.71152	1.54987
761.78296	1.45561
759.85439	1.45610
757.92583	1.53226
755.99727	1.49145
754.06870	1.38838
752.14014	1.40052
750.21157	1.36985
748.28301	1.15893
746.35444	1.01175
744.42588	0.98008
742.49731	0.97955
740.56875	0.91941
738.64019	0.85346
736.71162	0.82575
734.78306	0.80688
732.85449	0.80564
730.92593	0.92372
728.99736	4.37398
727.06880	4.36241
725.14023	4.35084
723.21167	0.66636
721.28311	0.39662
719.35454	0.22539
717.42598	0.15569
715.49741	0.10813
713.56885	0.02326
711.64028	-0.00392
709.71172	-0.07310
707.78315	-0.29050
705.85459	-0.31733
703.92603	0.02525
701.99746	0.15258
700.06890	0.15852
698.14033	0.18372
696.21177	0.24357
694.28320	0.38186
692.35464	0.48389
690.42607	0.43695
688.49751	0.33890
686.56895	0.32754
684.64038	0.32825
682.71182	0.30236
680.78325	0.32463
678.85469	0.30122
676.92612	0.25812
674.99756	0.30876
673.06899	0.35643
671.14043	0.36141
669.21187	0.42225
667.28330	0.44360
665.35474	0.34479
663.42617	0.23504
661.49761	0.15511
659.56904	0.18433
657.64048	0.33020
655.71191	0.42449
653.78335	0.38186
651.85479	0.35980
649.92622	0.39646
647.99766	0.54275
646.06909	0.52039
644.14053	0.23236
642.21196	0.12985
640.28340	0.21861
638.35483	0.40521
636.42627	0.41997
634.49771	0.28521
632.56914	0.20162
630.64058	0.21042
628.71201	0.26363
626.78345	0.31011
624.85488	0.33038
622.92632	0.34338
620.99775	0.34642
619.06919	0.32667
617.14062	0.29258
615.21206	0.27077
613.28350	0.29426
611.35493	0.34679
609.42637	0.39999
607.49780	0.51450
605.56924	0.57416
603.64067	0.37471
601.71211	0.25188
599.78354	0.20522
597.85498	0.17745
595.92642	0.19448
593.99785	0.26232
592.06929	0.30206
590.14072	0.28333
588.21216	0.29133
586.28359	0.31341
584.35503	0.26551
582.42646	0.21828
580.49790	0.23242
578.56934	0.27945
576.64077	0.29664
574.71221	0.30532
572.78364	0.33311
570.85508	0.32041
568.92651	0.27106
566.99795	0.25789
565.06938	0.28189
563.14082	0.27373
561.21226	0.27296
559.28369	0.31365
557.35513	0.27535
555.42656	0.21261
553.49800	0.24769
551.56943	0.27723
549.64087	0.19338
547.71230	0.12755
545.78374	0.12806
543.85518	0.15028
541.92661	0.16085
539.99805	0.15612
538.06948	0.16705
536.14092	0.25350
534.21235	0.44063
532.28379	0.52505
530.35522	0.41316
528.42666	0.39273
526.49810	0.41432
524.56953	0.35366
522.64097	0.25262
520.71240	0.20329
518.78384	0.25846
516.85527	0.39982
514.92671	0.42080
512.99814	0.35785
511.06958	0.32331
509.14102	0.28017
507.21245	0.25526
505.28389	0.27375
503.35532	0.27003
501.42676	0.22940
499.49819	0.22041
