3997.91411	0.06310
3995.98555	0.06363
3994.05698	0.06388
3992.12842	0.06407
3990.19985	0.06432
3988.27129	0.06439
3986.34272	0.06448
3984.41416	0.06490
3982.48560	0.06530
3980.55703	0.06554
3978.62847	0.06581
3976.69990	0.06605
3974.77134	0.06613
3972.84277	0.06607
3970.91421	0.06615
3968.98564	0.06667
3967.05708	0.06728
3965.12852	0.06742
3963.19995	0.06732
3961.27139	0.06743
3959.34282	0.06761
3957.41426	0.06769
3955.48569	0.06785
3953.55713	0.06794
3951.62856	0.06790
3949.70000	0.06805
3947.77144	0.06813
3945.84287	0.06778
3943.91431	0.06782
3941.98574	0.06849
3940.05718	0.06833
3938.12861	0.06734
3936.20005	0.06694
3934.27148	0.06738
3932.34292	0.06802
3930.41436	0.06814
3928.48579	0.06782
3926.55723	0.06769
3924.62866	0.06785
3922.70010	0.06792
3920.77153	0.06778
3918.84297	0.06762
3916.91440	0.06750
3914.98584	0.06706
3913.05728	0.06639
3911.12871	0.06612
3909.20015	0.06636
3907.27158	0.06672
3905.34302	0.06714
3903.41445	0.06774
3901.48589	0.06809
3899.55732	0.06817
3897.62876	0.06825
3895.70020	0.06794
3893.77163	0.06755
3891.84307	0.06772
3889.91450	0.06800
3887.98594	0.06776
3886.05737	0.06772
3884.12881	0.06805
3882.20024	0.06821
3880.27168	0.06833
3878.34312	0.06834
3876.41455	0.06834
3874.48599	0.06871
3872.55742	0.06912
3870.62886	0.06928
3868.70029	0.06926
3866.77173	0.06907
3864.84316	0.06930
3862.91460	0.06995
3860.98604	0.07018
3859.05747	0.07024
3857.12891	0.07070
3855.20034	0.07162
3853.27178	0.07294
3851.34321	0.07373
3849.41465	0.07335
3847.48608	0.07309
3845.55752	0.07340
3843.62896	0.07392
3841.70039	0.07443
3839.77183	0.07525
3837.84326	0.07672
3835.91470	0.07780
3833.98613	0.07787
3832.05757	0.07804
3830.12900	0.07852
3828.20044	0.07885
3826.27187	0.07946
3824.34331	0.08037
3822.41475	0.08133
3820.48618	0.08295
3818.55762	0.08435
3816.62905	0.08473
3814.70049	0.08495
3812.77192	0.08540
3810.84336	0.08612
3808.91479	0.08707
3806.98623	0.08840
3805.05767	0.08988
3803.12910	0.09098
3801.20054	0.09244
3799.27197	0.09405
3797.34341	0.09476
3795.41484	0.09528
3793.48628	0.09590
3791.55771	0.09692
3789.62915	0.09836
3787.70059	0.09966
3785.77202	0.10096
3783.84346	0.10255
3781.91489	0.10409
3779.98633	0.10557
3778.05776	0.10731
3776.12920	0.10875
3774.20063	0.10982
3772.27207	0.11114
3770.34351	0.11316
3768.41494	0.11567
3766.48638	0.11755
3764.55781	0.11909
3762.62925	0.12092
3760.70068	0.12307
3758.77212	0.12566
3756.84355	0.12827
3754.91499	0.13034
3752.98643	0.13252
3751.05786	0.13592
3749.12930	0.14020
3747.20073	0.14320
3745.27217	0.14607
3743.34360	0.15114
3741.41504	0.15631
3739.48647	0.16024
3737.55791	0.16497
3735.62935	0.17171
3733.70078	0.17937
3731.77222	0.18589
3729.84365	0.19188
3727.91509	0.19763
3725.98652	0.20332
3724.05796	0.20878
3722.12939	0.21387
3720.20083	0.21867
3718.27227	0.22262
3716.34370	0.22649
3714.41514	0.23174
3712.48657	0.24077
3710.55801	0.25595
3708.62944	0.27262
3706.70088	0.28557
3704.77231	0.29736
3702.84375	0.31064
3700.91519	0.32688
3698.98662	0.34438
3697.05806	0.36102
3695.12949	0.37871
3693.20093	0.39774
3691.27236	0.41796
3689.34380	0.44248
3687.41523	0.47283
3685.48667	0.50193
3683.55811	0.52801
3681.62954	0.55546
3679.70098	0.58597
3677.77241	0.61788
3675.84385	0.65511
3673.91528	0.70414
3671.98672	0.74582
3670.05815	0.78377
3668.12959	0.83438
3666.20103	0.88179
3664.27246	0.92259
3662.34390	0.96569
3660.41533	1.01133
3658.48677	1.05659
3656.55820	1.10480
3654.62964	1.15753
3652.70107	1.20253
3650.77251	1.24258
3648.84395	1.29561
3646.91538	1.35914
3644.98682	1.40829
3643.05825	1.44765
3641.12969	1.48791
3639.20112	1.53157
3637.27256	1.57573
3635.34399	1.61931
3633.41543	1.66241
3631.48687	1.70249
3629.55830	1.74290
3627.62974	1.79388
3625.70117	1.84172
3623.77261	1.87514
3621.84404	1.90691
3619.91548	1.94287
3617.98691	1.98480
3616.05835	2.02457
3614.12979	2.05824
3612.20122	2.09465
3610.27266	2.13428
3608.34409	2.17547
3606.41553	2.21748
3604.48696	2.25627
3602.55840	2.29177
3600.62983	2.32951
3598.70127	2.36883
3596.77271	2.40619
3594.84414	2.44512
3592.91558	2.48647
3590.98701	2.52456
3589.05845	2.55883
3587.12988	2.59811
3585.20132	2.64089
3583.27275	2.67910
3581.34419	2.71609
3579.41562	2.75545
3577.48706	2.79610
3575.55850	2.83712
3573.62993	2.87960
3571.70137	2.92099
3569.77280	2.96014
3567.84424	3.00016
3565.91567	3.04609
3563.98711	3.09223
3562.05854	3.13399
3560.12998	3.17699
3558.20142	3.22204
3556.27285	3.26596
3554.34429	3.30767
3552.41572	3.35151
3550.48716	3.39792
3548.55859	3.44137
3546.63003	3.48256
3544.70146	3.52848
3542.77290	3.57731
3540.84434	3.62334
3538.91577	3.66860
3536.98721	3.71672
3535.05864	3.76802
3533.13008	3.81540
3531.20151	3.85620
3529.27295	3.89708
3527.34438	3.94347
3525.41582	3.99220
3523.48726	4.03890
3521.55869	4.08210
3519.63013	4.12393
3517.70156	4.17098
3515.77300	4.22111
3513.84443	4.26783
3511.91587	4.31110
3509.98730	4.35840
3508.05874	4.41143
3506.13018	4.45975
3504.20161	4.50231
3502.27305	4.54848
3500.34448	4.59773
3498.41592	4.64420
3496.48735	4.68986
3494.55879	4.73540
3492.63022	4.78059
3490.70166	4.82831
3488.77310	4.87913
3486.84453	4.93025
3484.91597	4.97861
3482.98740	5.02294
3481.05884	5.06631
3479.13027	5.11192
3477.20171	5.16006
3475.27314	5.21050
3473.34458	5.25826
3471.41602	5.29874
3469.48745	5.34005
3467.55889	5.39002
3465.63032	5.43713
3463.70176	5.47656
3461.77319	5.52471
3459.84463	5.58786
3457.91606	5.64988
3455.98750	5.69781
3454.05894	5.73834
3452.13037	5.78526
3450.20181	5.84003
3448.27324	5.89551
3446.34468	5.95191
3444.41611	5.99697
3442.48755	6.02670
3440.55898	6.06112
3438.63042	6.10461
3436.70186	6.15014
3434.77329	6.19897
3432.84473	6.25030
3430.91616	6.30425
3428.98760	6.36040
3427.05903	6.40745
3425.13047	6.45034
3423.20190	6.49550
3421.27334	6.54837
3419.34478	6.61508
3417.41621	6.67409
3415.48765	6.70630
3413.55908	6.72788
3411.63052	6.76806
3409.70195	6.82640
3407.77339	6.87994
3405.84482	6.91377
3403.91626	6.94364
3401.98770	6.98166
3400.05913	7.01672
3398.13057	7.03802
3396.20200	7.05964
3394.27344	7.10005
3392.34487	7.14356
3390.41631	7.19556
3388.48774	7.25633
3386.55918	7.29880
3384.63062	7.32330
3382.70205	7.35772
3380.77349	7.39134
3378.84492	7.39991
3376.91636	7.42191
3374.98779	7.48263
3373.05923	7.53854
3371.13066	7.55403
3369.20210	7.57886
3367.27354	7.61212
3365.34497	7.63087
3363.41641	7.66728
3361.48784	7.68294
3359.55928	7.66778
3357.63071	7.67601
3355.70215	7.69347
3353.77358	7.70712
3351.84502	7.73718
3349.91646	7.75733
3347.98789	7.77865
3346.05933	7.81540
3344.13076	7.86079
3342.20220	7.90482
3340.27363	7.93202
3338.34507	7.96044
3336.41650	7.93829
3334.48794	7.86280
3332.55937	7.78435
3330.63081	7.73189
3328.70225	7.75787
3326.77368	7.84909
3324.84512	7.92130
3322.91655	7.92849
3320.98799	7.88360
3319.05942	7.83874
3317.13086	7.85176
3315.20229	7.88724
3313.27373	7.90228
3311.34517	7.91122
3309.41660	7.94885
3307.48804	7.99678
3305.55947	7.98850
3303.63091	7.94675
3301.70234	7.93477
3299.77378	7.98258
3297.84521	8.02219
3295.91665	8.02364
3293.98809	8.03880
3292.05952	8.01520
3290.13096	7.92586
3288.20239	7.87269
3286.27383	7.89105
3284.34526	7.92296
3282.41670	7.92984
3280.48813	7.88661
3278.55957	7.86538
3276.63101	7.93128
3274.70244	7.99453
3272.77388	8.01864
3270.84531	8.08654
3268.91675	8.14167
3266.98818	8.09434
3265.05962	8.03910
3263.13105	8.01958
3261.20249	8.02410
3259.27393	8.04577
3257.34536	8.05460
3255.41680	8.07629
3253.48823	8.07402
3251.55967	7.98034
3249.63110	7.91574
3247.70254	7.97664
3245.77397	8.04719
3243.84541	8.00759
3241.91685	7.94981
3239.98828	7.96888
3238.05972	7.99412
3236.13115	7.98663
3234.20259	8.00467
3232.27402	8.03154
3230.34546	8.03116
3228.41689	8.02310
3226.48833	7.98918
3224.55977	7.90652
3222.63120	7.86832
3220.70264	7.90722
3218.77407	7.92005
3216.84551	7.90359
3214.91694	7.93090
3212.98838	7.92682
3211.05981	7.81731
3209.13125	7.69447
3207.20269	7.63754
3205.27412	7.66311
3203.34556	7.71769
3201.41699	7.69429
3199.48843	7.58293
3197.55986	7.47909
3195.63130	7.45543
3193.70273	7.46977
3191.77417	7.43430
3189.84561	7.38062
3187.91704	7.35686
3185.98848	7.32104
3184.05991	7.24867
3182.13135	7.16641
3180.20278	7.09779
3178.27422	7.05238
3176.34565	7.02831
3174.41709	7.00177
3172.48853	6.95821
3170.55996	6.91090
3168.63140	6.86788
3166.70283	6.82138
3164.77427	6.75058
3162.84570	6.65829
3160.91714	6.58393
3158.98857	6.53974
3157.06001	6.49100
3155.13145	6.42317
3153.20288	6.35317
3151.27432	6.28634
3149.34575	6.22085
3147.41719	6.15250
3145.48862	6.07620
3143.56006	6.00047
3141.63149	5.93624
3139.70293	5.87236
3137.77437	5.79813
3135.84580	5.72772
3133.91724	5.67247
3131.98867	5.61782
3130.06011	5.54373
3128.13154	5.45669
3126.20298	5.37634
3124.27441	5.30802
3122.34585	5.24382
3120.41729	5.17656
3118.48872	5.10906
3116.56016	5.04271
3114.63159	4.97001
3112.70303	4.89550
3110.77446	4.83014
3108.84590	4.76869
3106.91733	4.70319
3104.98877	4.63569
3103.06021	4.56727
3101.13164	4.49816
3099.20308	4.43453
3097.27451	4.37410
3095.34595	4.30892
3093.41738	4.24302
3091.48882	4.17927
3089.56025	4.11311
3087.63169	4.04694
3085.70312	3.98417
3083.77456	3.92159
3081.84600	3.85791
3079.91743	3.79542
3077.98887	3.73621
3076.06030	3.67794
3074.13174	3.61855
3072.20317	3.56142
3070.27461	3.50610
3068.34604	3.44931
3066.41748	3.39215
3064.48892	3.33641
3062.56035	3.28127
3060.63179	3.22625
3058.70322	3.17258
3056.77466	3.12054
3054.84609	3.06892
3052.91753	3.01722
3050.98896	2.96639
3049.06040	2.91650
3047.13184	2.86701
3045.20327	2.81862
3043.27471	2.77143
3041.34614	2.72400
3039.41758	2.67636
3037.48901	2.63055
3035.56045	2.58657
3033.63188	2.54206
3031.70332	2.49642
3029.77476	2.45159
3027.84619	2.40904
3025.91763	2.36758
3023.98906	2.32580
3022.06050	2.28508
3020.13193	2.24621
3018.20337	2.20746
3016.27480	2.16823
3014.34624	2.12918
3012.41768	2.09070
3010.48911	2.05324
3008.56055	2.01669
3006.63198	1.98040
3004.70342	1.94465
3002.77485	1.90989
3000.84629	1.87565
2998.91772	1.84193
2996.98916	1.80911
2995.06060	1.77659
2993.13203	1.74405
2991.20347	1.71227
2989.27490	1.68112
2987.34634	1.64991
2985.41777	1.61883
2983.48921	1.58846
2981.56064	1.55906
2979.63208	1.53054
2977.70352	1.50251
2975.77495	1.47445
2973.84639	1.44639
2971.91782	1.41862
2969.98926	1.39119
2968.06069	1.36433
2966.13213	1.33804
2964.20356	1.31222
2962.27500	1.28699
2960.34644	1.26232
2958.41787	1.23842
2956.48931	1.21542
2954.56074	1.19296
2952.63218	1.17070
2950.70361	1.14851
2948.77505	1.12656
2946.84648	1.10508
2944.91792	1.08390
2942.98936	1.06287
2941.06079	1.04220
2939.13223	1.02209
2937.20366	1.00218
2935.27510	0.98229
2933.34653	0.96308
2931.41797	0.94512
2929.48940	0.92797
2927.56084	0.91051
2925.63228	0.89273
2923.70371	0.87584
2921.77515	0.86007
2919.84658	0.84442
2917.91802	0.82870
2915.98945	0.81343
2914.06089	0.79887
2912.13232	0.78502
2910.20376	0.77144
2908.27520	0.75800
2906.34663	0.74478
2904.41807	0.73174
2902.48950	0.71901
2900.56094	0.70657
2898.63237	0.69447
2896.70381	0.68269
2894.77524	0.67098
2892.84668	0.65944
2890.91812	0.64816
2888.98955	0.63710
2887.06099	0.62626
2885.13242	0.61554
2883.20386	0.60486
2881.27529	0.59436
2879.34673	0.58393
2877.41816	0.57338
2875.48960	0.56299
2873.56104	0.55301
2871.63247	0.54325
2869.70391	0.53351
2867.77534	0.52389
2865.84678	0.51447
2863.91821	0.50529
2861.98965	0.49618
2860.06108	0.48699
2858.13252	0.47806
2856.20396	0.46983
2854.27539	0.46222
2852.34683	0.45473
2850.41826	0.44715
2848.48970	0.43974
2846.56113	0.43267
2844.63257	0.42623
2842.70400	0.42055
2840.77544	0.41517
2838.84687	0.40963
2836.91831	0.40392
2834.98975	0.39848
2833.06118	0.39339
2831.13262	0.38822
2829.20405	0.38269
2827.27549	0.37689
2825.34692	0.37118
2823.41836	0.36567
2821.48979	0.36028
2819.56123	0.35491
2817.63267	0.34950
2815.70410	0.34419
2813.77554	0.33906
2811.84697	0.33390
2809.91841	0.32879
2807.98984	0.32399
2806.06128	0.31949
2804.13271	0.31497
2802.20415	0.31036
2800.27559	0.30582
2798.34702	0.30138
2796.41846	0.29695
2794.48989	0.29265
2792.56133	0.28852
2790.63276	0.28445
2788.70420	0.28044
2786.77563	0.27656
2784.84707	0.27280
2782.91851	0.26902
2780.98994	0.26527
2779.06138	0.26166
2777.13281	0.25814
2775.20425	0.25469
2773.27568	0.25143
2771.34712	0.24824
2769.41855	0.24490
2767.48999	0.24159
2765.56143	0.23849
2763.63286	0.23556
2761.70430	0.23270
2759.77573	0.22993
2757.84717	0.22721
2755.91860	0.22441
2753.99004	0.22164
2752.06147	0.21904
2750.13291	0.21639
2748.20435	0.21369
2746.27578	0.21110
2744.34722	0.20863
2742.41865	0.20635
2740.49009	0.20417
2738.56152	0.20191
2736.63296	0.19966
2734.70439	0.19736
2732.77583	0.19504
2730.84727	0.19297
2728.91870	0.19115
2726.99014	0.18928
2725.06157	0.18733
2723.13301	0.18541
2721.20444	0.18348
2719.27588	0.18154
2717.34731	0.17984
2715.41875	0.17828
2713.49019	0.17667
2711.56162	0.17510
2709.63306	0.17357
2707.70449	0.17207
2705.77593	0.17058
2703.84736	0.16903
2701.91880	0.16758
2699.99023	0.16641
2698.06167	0.16524
2696.13311	0.16385
2694.20454	0.16241
2692.27598	0.16109
2690.34741	0.15988
2688.41885	0.15869
2686.49028	0.15761
2684.56172	0.15657
2682.63315	0.15544
2680.70459	0.15433
2678.77603	0.15343
2676.84746	0.15259
2674.91890	0.15158
2672.99033	0.15055
2671.06177	0.14974
2669.13320	0.14908
2667.20464	0.14840
2665.27607	0.14761
2663.34751	0.14676
2661.41895	0.14594
2659.49038	0.14514
2657.56182	0.14445
2655.63325	0.14380
2653.70469	0.14312
2651.77612	0.14259
2649.84756	0.14218
2647.91899	0.14179
2645.99043	0.14144
2644.06187	0.14106
2642.13330	0.14068
2640.20474	0.14031
2638.27617	0.13982
2636.34761	0.13931
2634.41904	0.13899
2632.49048	0.13881
2630.56191	0.13865
2628.63335	0.13850
2626.70479	0.13824
2624.77622	0.13784
2622.84766	0.13749
2620.91909	0.13735
2618.99053	0.13737
2617.06196	0.13745
2615.13340	0.13749
2613.20483	0.13740
2611.27627	0.13722
2609.34771	0.13715
2607.41914	0.13719
2605.49058	0.13723
2603.56201	0.13728
2601.63345	0.13740
2599.70488	0.13749
2597.77632	0.13755
2595.84775	0.13773
2593.91919	0.13799
2591.99062	0.13825
2590.06206	0.13859
2588.13350	0.13891
2586.20493	0.13906
2584.27637	0.13920
2582.34780	0.13941
2580.41924	0.13967
2578.49067	0.14003
2576.56211	0.14055
2574.63354	0.14112
2572.70498	0.14152
2570.77642	0.14185
2568.84785	0.14235
2566.91929	0.14299
2564.99072	0.14357
2563.06216	0.14398
2561.13359	0.14430
2559.20503	0.14473
2557.27646	0.14534
2555.34790	0.14600
2553.41934	0.14661
2551.49077	0.14717
2549.56221	0.14773
2547.63364	0.14834
2545.70508	0.14894
2543.77651	0.14953
2541.84795	0.15023
2539.91938	0.15102
2537.99082	0.15177
2536.06226	0.15244
2534.13369	0.15311
2532.20513	0.15389
2530.27656	0.15470
2528.34800	0.15544
2526.41943	0.15613
2524.49087	0.15687
2522.56230	0.15762
2520.63374	0.15836
2518.70518	0.15924
2516.77661	0.16028
2514.84805	0.16123
2512.91948	0.16201
2510.99092	0.16272
2509.06235	0.16347
2507.13379	0.16434
2505.20522	0.16523
2503.27666	0.16603
2501.34810	0.16683
2499.41953	0.16769
2497.49097	0.16862
2495.56240	0.16967
2493.63384	0.17072
2491.70527	0.17165
2489.77671	0.17258
2487.84814	0.17356
2485.91958	0.17450
2483.99102	0.17540
2482.06245	0.17629
2480.13389	0.17723
2478.20532	0.17828
2476.27676	0.17934
2474.34819	0.18027
2472.41963	0.18114
2470.49106	0.18215
2468.56250	0.18319
2466.63394	0.18403
2464.70537	0.18479
2462.77681	0.18568
2460.84824	0.18667
2458.91968	0.18768
2456.99111	0.18867
2455.06255	0.18975
2453.13398	0.19089
2451.20542	0.19199
2449.27686	0.19303
2447.34829	0.19405
2445.41973	0.19505
2443.49116	0.19607
2441.56260	0.19713
2439.63403	0.19826
2437.70547	0.19930
2435.77690	0.20023
2433.84834	0.20119
2431.91978	0.20229
2429.99121	0.20345
2428.06265	0.20461
2426.13408	0.20573
2424.20552	0.20676
2422.27695	0.20776
2420.34839	0.20888
2418.41982	0.21007
2416.49126	0.21116
2414.56270	0.21222
2412.63413	0.21340
2410.70557	0.21471
2408.77700	0.21602
2406.84844	0.21723
2404.91987	0.21836
2402.99131	0.21949
2401.06274	0.22070
2399.13418	0.22191
2397.20562	0.22301
2395.27705	0.22415
2393.34849	0.22551
2391.41992	0.22706
2389.49136	0.22888
2387.56279	0.23142
2385.63423	0.23552
2383.70566	0.24210
2381.77710	0.25154
2379.84854	0.26348
2377.91997	0.27738
2375.99141	0.29313
2374.06284	0.31125
2372.13428	0.33185
2370.20571	0.35373
2368.27715	0.37564
2366.34858	0.39724
2364.42002	0.41657
2362.49146	0.43060
2360.56289	0.43867
2358.63433	0.44026
2356.70576	0.43301
2354.77720	0.41650
2352.84863	0.39388
2350.92007	0.37043
2348.99150	0.35610
2347.06294	0.35724
2345.13437	0.37344
2343.20581	0.39384
2341.27725	0.40392
2339.34868	0.40425
2337.42012	0.40161
2335.49155	0.39933
2333.56299	0.39729
2331.63442	0.39557
2329.70586	0.39342
2327.77729	0.38967
2325.84873	0.38432
2323.92017	0.37814
2321.99160	0.37157
2320.06304	0.36424
2318.13447	0.35619
2316.20591	0.34895
2314.27734	0.34413
2312.34878	0.34148
2310.42021	0.33907
2308.49165	0.33554
2306.56309	0.33132
2304.63452	0.32754
2302.70596	0.32512
2300.77739	0.32386
2298.84883	0.32296
2296.92026	0.32223
2294.99170	0.32173
2293.06313	0.32123
2291.13457	0.32064
2289.20601	0.32016
2287.27744	0.31988
2285.34888	0.31976
2283.42031	0.32024
2281.49175	0.32191
2279.56318	0.32443
2277.63462	0.32704
2275.70605	0.32957
2273.77749	0.33207
2271.84893	0.33441
2269.92036	0.33647
2267.99180	0.33828
2266.06323	0.34008
2264.13467	0.34191
2262.20610	0.34364
2260.27754	0.34527
2258.34897	0.34691
2256.42041	0.34855
2254.49185	0.35018
2252.56328	0.35191
2250.63472	0.35369
2248.70615	0.35552
2246.77759	0.35736
2244.84902	0.35922
2242.92046	0.36122
2240.99189	0.36331
2239.06333	0.36537
2237.13477	0.36739
2235.20620	0.36943
2233.27764	0.37160
2231.34907	0.37382
2229.42051	0.37594
2227.49194	0.37812
2225.56338	0.38044
2223.63481	0.38271
2221.70625	0.38490
2219.77769	0.38709
2217.84912	0.38920
2215.92056	0.39129
2213.99199	0.39346
2212.06343	0.39562
2210.13486	0.39765
2208.20630	0.39968
2206.27773	0.40175
2204.34917	0.40376
2202.42061	0.40569
2200.49204	0.40763
2198.56348	0.40963
2196.63491	0.41169
2194.70635	0.41369
2192.77778	0.41560
2190.84922	0.41752
2188.92065	0.41942
2186.99209	0.42118
2185.06353	0.42290
2183.13496	0.42463
2181.20640	0.42630
2179.27783	0.42791
2177.34927	0.42958
2175.42070	0.43121
2173.49214	0.43274
2171.56357	0.43412
2169.63501	0.43538
2167.70645	0.43654
2165.77788	0.43771
2163.84932	0.43901
2161.92075	0.44025
2159.99219	0.44132
2158.06362	0.44232
2156.13506	0.44334
2154.20649	0.44431
2152.27793	0.44514
2150.34937	0.44579
2148.42080	0.44640
2146.49224	0.44704
2144.56367	0.44754
2142.63511	0.44797
2140.70654	0.44839
2138.77798	0.44863
2136.84941	0.44868
2134.92085	0.44872
2132.99229	0.44877
2131.06372	0.44877
2129.13516	0.44870
2127.20659	0.44846
2125.27803	0.44812
2123.34946	0.44776
2121.42090	0.44732
2119.49233	0.44677
2117.56377	0.44615
2115.63521	0.44546
2113.70664	0.44472
2111.77808	0.44394
2109.84951	0.44308
2107.92095	0.44210
2105.99238	0.44095
2104.06382	0.43971
2102.13525	0.43847
2100.20669	0.43714
2098.27812	0.43563
2096.34956	0.43413
2094.42100	0.43271
2092.49243	0.43125
2090.56387	0.42974
2088.63530	0.42815
2086.70674	0.42653
2084.77817	0.42476
2082.84961	0.42274
2080.92104	0.42068
2078.99248	0.41875
2077.06392	0.41678
2075.13535	0.41463
2073.20679	0.41243
2071.27822	0.41027
2069.34966	0.40803
2067.42109	0.40569
2065.49253	0.40340
2063.56396	0.40110
2061.63540	0.39872
2059.70684	0.39634
2057.77827	0.39400
2055.84971	0.39157
2053.92114	0.38901
2051.99258	0.38643
2050.06401	0.38385
2048.13545	0.38127
2046.20688	0.37864
2044.27832	0.37598
2042.34976	0.37330
2040.42119	0.37058
2038.49263	0.36788
2036.56406	0.36522
2034.63550	0.36256
2032.70693	0.35979
2030.77837	0.35694
2028.84980	0.35413
2026.92124	0.35140
2024.99268	0.34868
2023.06411	0.34597
2021.13555	0.34329
2019.20698	0.34063
2017.27842	0.33795
2015.34985	0.33520
2013.42129	0.33250
2011.49272	0.32984
2009.56416	0.32717
2007.63560	0.32447
2005.70703	0.32177
2003.77847	0.31912
2001.84990	0.31654
1999.92134	0.31400
1997.99277	0.31144
1996.06421	0.30895
1994.13564	0.30652
1992.20708	0.30400
1990.27852	0.30133
1988.34995	0.29878
1986.42139	0.29639
1984.49282	0.29409
1982.56426	0.29184
1980.63569	0.28955
1978.70713	0.28733
1976.77856	0.28513
1974.85000	0.28290
1972.92144	0.28069
1970.99287	0.27856
1969.06431	0.27649
1967.13574	0.27445
1965.20718	0.27238
1963.27861	0.27037
1961.35005	0.26848
1959.42148	0.26669
1957.49292	0.26492
1955.56436	0.26313
1953.63579	0.26137
1951.70723	0.25969
1949.77866	0.25809
1947.85010	0.25649
1945.92153	0.25497
1943.99297	0.25355
1942.06440	0.25213
1940.13584	0.25063
1938.20728	0.24919
1936.27871	0.24785
1934.35015	0.24657
1932.42158	0.24535
1930.49302	0.24417
1928.56445	0.24302
1926.63589	0.24195
1924.70732	0.24101
1922.77876	0.24006
1920.85020	0.23904
1918.92163	0.23811
1916.99307	0.23723
1915.06450	0.23632
1913.13594	0.23549
1911.20737	0.23475
1909.27881	0.23399
1907.35024	0.23328
1905.42168	0.23269
1903.49312	0.23217
1901.56455	0.23162
1899.63599	0.23107
1897.70742	0.23058
1895.77886	0.23016
1893.85029	0.22985
1891.92173	0.22951
1889.99316	0.22925
1888.06460	0.22903
1886.13604	0.22875
1884.20747	0.22849
1882.27891	0.22833
1880.35034	0.22827
1878.42178	0.22821
1876.49321	0.22819
1874.56465	0.22821
1872.63608	0.22829
1870.70752	0.22845
1868.77896	0.22881
1866.85039	0.22912
1864.92183	0.22916
1862.99326	0.22919
1861.06470	0.22933
1859.13613	0.22967
1857.20757	0.23012
1855.27900	0.23058
1853.35044	0.23098
1851.42187	0.23145
1849.49331	0.23207
1847.56475	0.23277
1845.63618	0.23349
1843.70762	0.23425
1841.77905	0.23498
1839.85049	0.23557
1837.92192	0.23641
1835.99336	0.23734
1834.06479	0.23820
1832.13623	0.23908
1830.20767	0.24039
1828.27910	0.24188
1826.35054	0.24300
1824.42197	0.24422
1822.49341	0.24553
1820.56484	0.24684
1818.63628	0.24824
1816.70771	0.24987
1814.77915	0.25147
1812.85059	0.25305
1810.92202	0.25488
1808.99346	0.25684
1807.06489	0.25877
1805.13633	0.26068
1803.20776	0.26290
1801.27920	0.26544
1799.35063	0.26813
1797.42207	0.27052
1795.49351	0.27286
1793.56494	0.27566
1791.63638	0.27922
1789.70781	0.28261
1787.77925	0.28522
1785.85068	0.28832
1783.92212	0.29206
1781.99355	0.29597
1780.06499	0.29996
1778.13643	0.30409
1776.20786	0.30809
1774.27930	0.31233
1772.35073	0.31791
1770.42217	0.32403
1768.49360	0.32935
1766.56504	0.33448
1764.63647	0.33968
1762.70791	0.34534
1760.77935	0.35254
1758.85078	0.35947
1756.92222	0.36634
1754.99365	0.37381
1753.06509	0.38063
1751.13652	0.38851
1749.20796	0.39834
1747.27939	0.40830
1745.35083	0.41743
1743.42227	0.42708
1741.49370	0.43747
1739.56514	0.44954
1737.63657	0.46185
1735.70801	0.47297
1733.77944	0.48918
1731.85088	0.50830
1729.92231	0.52391
1727.99375	0.53985
1726.06519	0.55686
1724.13662	0.57513
1722.20806	0.59476
1720.27949	0.61325
1718.35093	0.63466
1716.42236	0.66492
1714.49380	0.69410
1712.56523	0.71874
1710.63667	0.74271
1708.70811	0.76807
1706.77954	0.79643
1704.85098	0.82953
1702.92241	0.85912
1700.99385	0.88853
1699.06528	0.93145
1697.13672	0.97104
1695.20815	1.01084
1693.27959	1.04986
1691.35103	1.08160
1689.42246	1.11701
1687.49390	1.15344
1685.56533	1.18870
1683.63677	1.24112
1681.70820	1.29526
1679.77964	1.33167
1677.85107	1.36675
1675.92251	1.40658
1673.99395	1.45402
1672.06538	1.49583
1670.13682	1.53647
1668.20825	1.58754
1666.27969	1.62905
1664.35112	1.66367
1662.42256	1.70509
1660.49399	1.75120
1658.56543	1.78817
1656.63687	1.81864
1654.70830	1.84756
1652.77974	1.89555
1650.85117	1.94416
1648.92261	1.96456
1646.99404	1.99102
1645.06548	2.02463
1643.13691	2.04917
1641.20835	2.06473
1639.27979	2.07720
1637.35122	2.08435
1635.42266	2.08665
1633.49409	2.08502
1631.56553	2.07645
1629.63696	2.06349
1627.70840	2.04233
1625.77983	2.01736
1623.85127	1.98453
1621.92271	1.94346
1619.99414	1.90549
1618.06558	1.86741
1616.13701	1.81382
1614.20845	1.75773
1612.27988	1.71342
1610.35132	1.66737
1608.42275	1.61730
1606.49419	1.56711
1604.56562	1.52023
1602.63706	1.47522
1600.70850	1.43134
1598.77993	1.39039
1596.85137	1.35141
1594.92280	1.31345
1592.99424	1.27674
1591.06567	1.24286
1589.13711	1.21071
1587.20854	1.18011
1585.27998	1.15118
1583.35142	1.12369
1581.42285	1.09807
1579.49429	1.07539
1577.56572	1.05428
1575.63716	1.02897
1573.70859	1.00633
1571.78003	0.99053
1569.85146	0.97321
1567.92290	0.95348
1565.99434	0.93732
1564.06577	0.92330
1562.13721	0.91140
1560.20864	0.90056
1558.28008	0.88190
1556.35151	0.86500
1554.42295	0.85466
1552.49438	0.84440
1550.56582	0.83415
1548.63726	0.82388
1546.70869	0.81496
1544.78013	0.80702
1542.85156	0.79902
1540.92300	0.79016
1538.99443	0.77904
1537.06587	0.77077
1535.13730	0.76497
1533.20874	0.75785
1531.28018	0.75031
1529.35161	0.74473
1527.42305	0.73950
1525.49448	0.73378
1523.56592	0.72828
1521.63735	0.72251
1519.70879	0.71627
1517.78022	0.71079
1515.85166	0.70542
1513.92310	0.70057
1511.99453	0.69666
1510.06597	0.69299
1508.13740	0.68926
1506.20884	0.68395
1504.28027	0.67910
1502.35171	0.67601
1500.42314	0.67325
1498.49458	0.67022
1496.56602	0.66665
1494.63745	0.66311
1492.70889	0.66018
1490.78032	0.65757
1488.85176	0.65471
1486.92319	0.65162
1484.99463	0.64851
1483.06606	0.64550
1481.13750	0.64259
1479.20894	0.63989
1477.28037	0.63754
1475.35181	0.63528
1473.42324	0.63261
1471.49468	0.62877
1469.56611	0.62495
1467.63755	0.62207
1465.70898	0.61961
1463.78042	0.61721
1461.85186	0.61517
1459.92329	0.61368
1457.99473	0.61214
1456.06616	0.60954
1454.13760	0.60683
1452.20903	0.60493
1450.28047	0.60332
1448.35190	0.60179
1446.42334	0.60027
1444.49478	0.59870
1442.56621	0.59716
1440.63765	0.59573
1438.70908	0.59452
1436.78052	0.59334
1434.85195	0.59200
1432.92339	0.59063
1430.99482	0.58930
1429.06626	0.58796
1427.13770	0.58665
1425.20913	0.58531
1423.28057	0.58382
1421.35200	0.58230
1419.42344	0.58082
1417.49487	0.57925
1415.56631	0.57767
1413.63774	0.57624
1411.70918	0.57492
1409.78062	0.57357
1407.85205	0.57221
1405.92349	0.57088
1403.99492	0.56952
1402.06636	0.56825
1400.13779	0.56721
1398.20923	0.56617
1396.28066	0.56483
1394.35210	0.56326
1392.42354	0.56177
1390.49497	0.56047
1388.56641	0.55928
1386.63784	0.55815
1384.70928	0.55695
1382.78071	0.55565
1380.85215	0.55448
1378.92358	0.55355
1376.99502	0.55269
1375.06646	0.55175
1373.13789	0.55079
1371.20933	0.54987
1369.28076	0.54897
1367.35220	0.54798
1365.42363	0.54691
1363.49507	0.54596
1361.56650	0.54518
1359.63794	0.54438
1357.70937	0.54358
1355.78081	0.54275
1353.85225	0.54188
1351.92368	0.54106
1349.99512	0.54032
1348.06655	0.53956
1346.13799	0.53874
1344.20942	0.53796
1342.28086	0.53726
1340.35229	0.53650
1338.42373	0.53553
1336.49517	0.53446
1334.56660	0.53352
1332.63804	0.53271
1330.70947	0.53187
1328.78091	0.53100
1326.85234	0.53022
1324.92378	0.52956
1322.99521	0.52885
1321.06665	0.52800
1319.13809	0.52713
1317.20952	0.52624
1315.28096	0.52542
1313.35239	0.52470
1311.42383	0.52391
1309.49526	0.52315
1307.56670	0.52251
1305.63813	0.52180
1303.70957	0.52088
1301.78101	0.52000
1299.85244	0.51931
1297.92388	0.51866
1295.99531	0.51798
1294.06675	0.51730
1292.13818	0.51663
1290.20962	0.51594
1288.28105	0.51535
1286.35249	0.51490
1284.42393	0.51447
1282.49536	0.51405
1280.56680	0.51372
1278.63823	0.51332
1276.70967	0.51284
1274.78110	0.51247
1272.85254	0.51217
1270.92397	0.51172
1268.99541	0.51109
1267.06685	0.51050
1265.13828	0.51010
1263.20972	0.50982
1261.28115	0.50951
1259.35259	0.50918
1257.42402	0.50888
1255.49546	0.50861
1253.56689	0.50835
1251.63833	0.50815
1249.70977	0.50807
1247.78120	0.50802
1245.85264	0.50787
1243.92407	0.50757
1241.99551	0.50718
1240.06694	0.50689
1238.13838	0.50669
1236.20981	0.50630
1234.28125	0.50563
1232.35269	0.50496
1230.42412	0.50443
1228.49556	0.50390
1226.56699	0.50339
1224.63843	0.50296
1222.70986	0.50244
1220.78130	0.50179
1218.85273	0.50114
1216.92417	0.50055
1214.99561	0.49998
1213.06704	0.49934
1211.13848	0.49873
1209.20991	0.49815
1207.28135	0.49751
1205.35278	0.49687
1203.42422	0.49633
1201.49565	0.49587
1199.56709	0.49544
1197.63853	0.49495
1195.70996	0.49450
1193.78140	0.49418
1191.85283	0.49381
1189.92427	0.49330
1187.99570	0.49281
1186.06714	0.49244
1184.13857	0.49219
1182.21001	0.49213
1180.28145	0.49223
1178.35288	0.49238
1176.42432	0.49256
1174.49575	0.49288
1172.56719	0.49336
1170.63862	0.49393
1168.71006	0.49437
1166.78149	0.49454
1164.85293	0.49452
1162.92437	0.49447
1160.99580	0.49432
1159.06724	0.49392
1157.13867	0.49329
1155.21011	0.49250
1153.28154	0.49145
1151.35298	0.49005
1149.42441	0.48838
1147.49585	0.48650
1145.56729	0.48438
1143.63872	0.48215
1141.71016	0.48008
1139.78159	0.47814
1137.85303	0.47605
1135.92446	0.47381
1133.99590	0.47173
1132.06733	0.46993
1130.13877	0.46822
1128.21021	0.46664
1126.28164	0.46533
1124.35308	0.46416
1122.42451	0.46306
1120.49595	0.46209
1118.56738	0.46134
1116.63882	0.46100
1114.71025	0.46102
1112.78169	0.46133
1110.85312	0.46197
1108.92456	0.46278
1106.99600	0.46349
1105.06743	0.46428
1103.13887	0.46564
1101.21030	0.46761
1099.28174	0.46995
1097.35317	0.47256
1095.42461	0.47542
1093.49604	0.47862
1091.56748	0.48243
1089.63892	0.48710
1087.71035	0.49258
1085.78179	0.49854
1083.85322	0.50467
1081.92466	0.51062
1079.99609	0.51580
1078.06753	0.51951
1076.13896	0.52087
1074.21040	0.51935
1072.28184	0.51545
1070.35327	0.51000
1068.42471	0.50367
1066.49614	0.49731
1064.56758	0.49152
1062.63901	0.48628
1060.71045	0.48152
1058.78188	0.47740
1056.85332	0.47389
1054.92476	0.47068
1052.99619	0.46766
1051.06763	0.46500
1049.13906	0.46282
1047.21050	0.46127
1045.28193	0.46017
1043.35337	0.45912
1041.42480	0.45814
1039.49624	0.45752
1037.56768	0.45723
1035.63911	0.45694
1033.71055	0.45665
1031.78198	0.45659
1029.85342	0.45677
1027.92485	0.45713
1025.99629	0.45763
1024.06772	0.45833
1022.13916	0.45918
1020.21060	0.46006
1018.28203	0.46096
1016.35347	0.46183
1014.42490	0.46273
1012.49634	0.46399
1010.56777	0.46558
1008.63921	0.46726
1006.71064	0.46916
1004.78208	0.47132
1002.85352	0.47369
1000.92495	0.47640
998.99639	0.47941
997.06782	0.48266
995.13926	0.48619
993.21069	0.48979
991.28213	0.49294
989.35356	0.49528
987.42500	0.49686
985.49644	0.49806
983.56787	0.49927
981.63931	0.50051
979.71074	0.50195
977.78218	0.50392
975.85361	0.50649
973.92505	0.50949
971.99648	0.51267
970.06792	0.51604
968.13936	0.51979
966.21079	0.52398
964.28223	0.52834
962.35366	0.53293
960.42510	0.53811
958.49653	0.54360
956.56797	0.54909
954.63940	0.55478
952.71084	0.56080
950.78228	0.56706
948.85371	0.57352
946.92515	0.57984
944.99658	0.58561
943.06802	0.59112
941.13945	0.59709
939.21089	0.60341
937.28232	0.60913
935.35376	0.61408
933.42520	0.61885
931.49663	0.62384
929.56807	0.62930
927.63950	0.63553
925.71094	0.64234
923.78237	0.64915
921.85381	0.65573
919.92524	0.66196
917.99668	0.66796
916.06812	0.67418
914.13955	0.68097
912.21099	0.68859
910.28242	0.69682
908.35386	0.70514
906.42529	0.71369
904.49673	0.72277
902.56816	0.73216
900.63960	0.74134
898.71104	0.74976
896.78247	0.75827
894.85391	0.76791
892.92534	0.77792
890.99678	0.78778
889.06821	0.79782
887.13965	0.80806
885.21108	0.81858
883.28252	0.82979
881.35396	0.84131
879.42539	0.85242
877.49683	0.86359
875.56826	0.87564
873.63970	0.88764
871.71113	0.89848
869.78257	0.90912
867.85400	0.92018
865.92544	0.93144
863.99687	0.94344
862.06831	0.95557
860.13975	0.96638
858.21118	0.97623
856.28262	0.98614
854.35405	0.99803
852.42549	1.01082
850.49692	1.02014
848.56836	1.02905
846.63979	1.04191
844.71123	1.05546
842.78267	1.06692
840.85410	1.07776
838.92554	1.08801
836.99697	1.09621
835.06841	1.10459
833.13984	1.11616
831.21128	1.13121
829.28271	1.14699
827.35415	1.15718
825.42559	1.16211
823.49702	1.16893
821.56846	1.17856
819.63989	1.19182
817.71133	1.20837
815.78276	1.22099
813.85420	1.22829
811.92563	1.23184
809.99707	1.23332
808.06851	1.24430
806.13994	1.26499
804.21138	1.27778
802.28281	1.28647
800.35425	1.29509
798.42568	1.29349
796.49712	1.29806
794.56855	1.32498
792.63999	1.35571
790.71143	1.35312
788.78286	1.33341
786.85430	1.34326
784.92573	1.34966
782.99717	1.29866
781.06860	1.25923
779.14004	1.28990
777.21147	1.34086
775.28291	1.35099
773.35435	1.38410
771.42578	1.45469
769.49722	1.39646
767.56865	1.25607
765.64009	1.19987
763.71152	1.23769
761.78296	1.29711
759.85439	1.28942
757.92583	1.23836
755.99727	1.22675
754.06870	1.28811
752.14014	1.41812
750.21157	1.52783
748.28301	1.41385
746.35444	1.24750
744.42588	1.15222
742.49731	1.13744
740.56875	1.23558
738.64019	1.38903
736.71162	1.25264
734.78306	0.99459
732.85449	0.87834
730.92593	0.99148
728.99736	1.48634
727.06880	0.86751
725.14023	0.42810
723.21167	0.18459
721.28311	0.02017
719.35454	-0.06966
717.42598	-0.09222
715.49741	-0.11159
713.56885	-0.31460
711.64028	4.26984
709.71172	-0.16320
707.78315	0.26169
705.85459	0.61096
703.92603	0.98760
701.99746	1.10851
700.06890	1.14139
698.14033	0.93910
696.21177	0.72404
694.28320	0.60496
692.35464	0.56518
690.42607	0.58364
688.49751	0.60331
686.56895	0.59478
684.64038	0.50820
682.71182	0.40773
680.78325	0.36770
678.85469	0.34834
676.92612	0.35065
674.99756	0.37888
673.06899	0.38279
671.14043	0.36900
669.21187	0.40770
667.28330	0.45100
665.35474	0.43805
663.42617	0.43813
661.49761	0.47848
659.56904	0.44182
657.64048	0.41006
655.71191	0.47301
653.78335	0.63642
651.85479	0.94857
649.92622	0.95810
647.99766	0.65815
646.06909	0.54242
644.14053	0.49699
642.21196	0.47010
640.28340	0.43015
638.35483	0.40939
636.42627	0.39336
634.49771	0.33597
632.56914	0.30133
630.64058	0.30558
628.71201	0.34445
626.78345	0.47557
624.85488	0.63391
622.92632	0.54453
620.99775	0.45127
619.06919	0.44186
617.14062	0.44164
615.21206	0.47042
613.28350	0.57710
611.35493	0.68833
609.42637	0.71693
607.49780	0.68151
605.56924	0.57406
603.64067	0.46203
601.71211	0.36022
599.78354	0.31751
597.85498	0.39125
595.92642	0.60344
593.99785	3.56399
592.06929	3.55242
590.14072	3.54084
588.21216	0.62632
586.28359	0.50582
584.35503	0.55420
582.42646	0.65059
580.49790	0.57364
578.56934	0.46610
576.64077	0.41187
574.71221	0.38371
572.78364	0.40637
570.85508	0.44953
568.92651	0.46361
566.99795	0.51097
565.06938	0.56150
563.14082	0.50168
561.21226	0.42279
559.28369	0.35680
557.35513	0.36086
555.42656	0.47043
553.49800	0.65099
551.56943	0.63594
549.64087	0.48036
547.71230	0.38773
545.78374	0.35327
543.85518	0.34929
541.92661	0.33641
539.99805	0.32662
538.06948	0.36221
536.14092	0.44124
534.21235	0.46424
532.28379	0.39317
530.35522	0.31529
528.42666	0.30224
526.49810	0.35059
524.56953	0.32030
522.64097	0.26179
520.71240	0.26740
518.78384	0.28092
516.85527	0.25552
514.92671	0.25510
512.99814	0.35648
511.06958	0.83881
509.14102	3.05485
507.21245	0.62719
505.28389	0.34759
503.35532	0.28362
501.42676	0.25764
499.49819	0.25456
