3997.91411	0.05963
3995.98555	0.05992
3994.05698	0.06043
3992.12842	0.06101
3990.19985	0.06099
3988.27129	0.06040
3986.34272	0.06031
3984.41416	0.06120
3982.48560	0.06227
3980.55703	0.06288
3978.62847	0.06306
3976.69990	0.06309
3974.77134	0.06351
3972.84277	0.06403
3970.91421	0.06413
3968.98564	0.06411
3967.05708	0.06407
3965.12852	0.06389
3963.19995	0.06412
3961.27139	0.06479
3959.34282	0.06509
3957.41426	0.06478
3955.48569	0.06446
3953.55713	0.06466
3951.62856	0.06542
3949.70000	0.06637
3947.77144	0.06700
3945.84287	0.06710
3943.91431	0.06709
3941.98574	0.06707
3940.05718	0.06645
3938.12861	0.06567
3936.20005	0.06551
3934.27148	0.06597
3932.34292	0.06675
3930.41436	0.06718
3928.48579	0.06676
3926.55723	0.06640
3924.62866	0.06679
3922.70010	0.06700
3920.77153	0.06664
3918.84297	0.06677
3916.91440	0.06727
3914.98584	0.06689
3913.05728	0.06577
3911.12871	0.06492
3909.20015	0.06469
3907.27158	0.06548
3905.34302	0.06773
3903.41445	0.07057
3901.48589	0.07174
3899.55732	0.07077
3897.62876	0.06873
3895.70020	0.06684
3893.77163	0.06664
3891.84307	0.06807
3889.91450	0.06847
3887.98594	0.06733
3886.05737	0.06760
3884.12881	0.06931
3882.20024	0.07029
3880.27168	0.07053
3878.34312	0.06974
3876.41455	0.06857
3874.48599	0.06920
3872.55742	0.07118
3870.62886	0.07269
3868.70029	0.07297
3866.77173	0.07211
3864.84316	0.07224
3862.91460	0.07315
3860.98604	0.07254
3859.05747	0.07158
3857.12891	0.07212
3855.20034	0.07423
3853.27178	0.07766
3851.34321	0.07888
3849.41465	0.07573
3847.48608	0.07285
3845.55752	0.07235
3843.62896	0.07415
3841.70039	0.07701
3839.77183	0.08007
3837.84326	0.08271
3835.91470	0.08293
3833.98613	0.08137
3832.05757	0.08005
3830.12900	0.07921
3828.20044	0.07925
3826.27187	0.08041
3824.34331	0.08185
3822.41475	0.08391
3820.48618	0.08723
3818.55762	0.08876
3816.62905	0.08847
3814.70049	0.08822
3812.77192	0.08701
3810.84336	0.08591
3808.91479	0.08671
3806.98623	0.08937
3805.05767	0.09181
3803.12910	0.09361
3801.20054	0.09630
3799.27197	0.09811
3797.34341	0.09809
3795.41484	0.09774
3793.48628	0.09682
3791.55771	0.09629
3789.62915	0.09713
3787.70059	0.09900
3785.77202	0.10126
3783.84346	0.10328
3781.91489	0.10488
3779.98633	0.10678
3778.05776	0.10865
3776.12920	0.10931
3774.20063	0.10978
3772.27207	0.11131
3770.34351	0.11431
3768.41494	0.11776
3766.48638	0.12008
3764.55781	0.12186
3762.62925	0.12348
3760.70068	0.12579
3758.77212	0.12942
3756.84355	0.13261
3754.91499	0.13490
3752.98643	0.13876
3751.05786	0.14545
3749.12930	0.15096
3747.20073	0.15178
3745.27217	0.15265
3743.34360	0.15602
3741.41504	0.15882
3739.48647	0.16039
3737.55791	0.16355
3735.62935	0.16999
3733.70078	0.17724
3731.77222	0.18064
3729.84365	0.18196
3727.91509	0.18490
3725.98652	0.19076
3724.05796	0.19801
3722.12939	0.20494
3720.20083	0.21155
3718.27227	0.21795
3716.34370	0.22483
3714.41514	0.23288
3712.48657	0.24376
3710.55801	0.25843
3708.62944	0.27169
3706.70088	0.28087
3704.77231	0.29040
3702.84375	0.30370
3700.91519	0.32122
3698.98662	0.33914
3697.05806	0.35623
3695.12949	0.37538
3693.20093	0.39684
3691.27236	0.42150
3689.34380	0.45218
3687.41523	0.48576
3685.48667	0.51359
3683.55811	0.53827
3681.62954	0.56621
3679.70098	0.59884
3677.77241	0.63398
3675.84385	0.67594
3673.91528	0.72957
3671.98672	0.77223
3670.05815	0.81090
3668.12959	0.86296
3666.20103	0.90984
3664.27246	0.94953
3662.34390	0.99289
3660.41533	1.04053
3658.48677	1.08836
3656.55820	1.13936
3654.62964	1.19505
3652.70107	1.24253
3650.77251	1.28649
3648.84395	1.34573
3646.91538	1.41169
3644.98682	1.45833
3643.05825	1.49547
3641.12969	1.53480
3639.20112	1.57914
3637.27256	1.62476
3635.34399	1.66963
3633.41543	1.71430
3631.48687	1.75582
3629.55830	1.79767
3627.62974	1.85108
3625.70117	1.89963
3623.77261	1.93243
3621.84404	1.96563
3619.91548	2.00555
3617.98691	2.05340
3616.05835	2.09879
3614.12979	2.13661
3612.20122	2.17592
3610.27266	2.21568
3608.34409	2.25609
3606.41553	2.29858
3604.48696	2.33730
3602.55840	2.37171
3600.62983	2.40922
3598.70127	2.45067
3596.77271	2.49179
3594.84414	2.53356
3592.91558	2.57613
3590.98701	2.61553
3589.05845	2.65262
3587.12988	2.69755
3585.20132	2.74649
3583.27275	2.78791
3581.34419	2.82655
3579.41562	2.86756
3577.48706	2.90975
3575.55850	2.95116
3573.62993	2.99407
3571.70137	3.03736
3569.77280	3.07890
3567.84424	3.12312
3565.91567	3.17656
3563.98711	3.22729
3562.05854	3.26859
3560.12998	3.31014
3558.20142	3.35475
3556.27285	3.40007
3554.34429	3.44447
3552.41572	3.49175
3550.48716	3.54207
3548.55859	3.59034
3546.63003	3.63620
3544.70146	3.68344
3542.77290	3.73125
3540.84434	3.77764
3538.91577	3.82391
3536.98721	3.86981
3535.05864	3.91711
3533.13008	3.96644
3531.20151	4.01592
3529.27295	4.06455
3527.34438	4.11659
3525.41582	4.16931
3523.48726	4.21609
3521.55869	4.26272
3519.63013	4.31132
3517.70156	4.35881
3515.77300	4.40664
3513.84443	4.45575
3511.91587	4.50316
3509.98730	4.55089
3508.05874	4.60125
3506.13018	4.64988
3504.20161	4.69506
3502.27305	4.73997
3500.34448	4.78927
3498.41592	4.83974
3496.48735	4.88321
3494.55879	4.92186
3492.63022	4.96642
3490.70166	5.01784
3488.77310	5.07044
3486.84453	5.12352
3484.91597	5.17519
3482.98740	5.22221
3481.05884	5.26808
3479.13027	5.31965
3477.20171	5.37631
3475.27314	5.42505
3473.34458	5.46242
3471.41602	5.50360
3469.48745	5.55452
3467.55889	5.60786
3465.63032	5.65642
3463.70176	5.70293
3461.77319	5.75889
3459.84463	5.82781
3457.91606	5.88916
3455.98750	5.92623
3454.05894	5.96115
3452.13037	6.01466
3450.20181	6.06848
3448.27324	6.11271
3446.34468	6.16536
3444.41611	6.22274
3442.48755	6.27453
3440.55898	6.32058
3438.63042	6.36830
3436.70186	6.42946
3434.77329	6.49194
3432.84473	6.54528
3430.91616	6.60142
3428.98760	6.65202
3427.05903	6.68541
3425.13047	6.72628
3423.20190	6.77711
3421.27334	6.82356
3419.34478	6.86419
3417.41621	6.90986
3415.48765	6.96667
3413.55908	7.02634
3411.63052	7.07005
3409.70195	7.07943
3407.77339	7.10893
3405.84482	7.16596
3403.91626	7.18966
3401.98770	7.20618
3400.05913	7.26551
3398.13057	7.34662
3396.20200	7.42560
3394.27344	7.50075
3392.34487	7.53847
3390.41631	7.53970
3388.48774	7.54802
3386.55918	7.59581
3384.63062	7.65824
3382.70205	7.69338
3380.77349	7.69510
3378.84492	7.68806
3376.91636	7.70244
3374.98779	7.74316
3373.05923	7.80686
3371.13066	7.84194
3369.20210	7.84446
3367.27354	7.84185
3365.34497	7.86679
3363.41641	7.95822
3361.48784	8.05403
3359.55928	8.05142
3357.63071	7.95941
3355.70215	7.90856
3353.77358	7.93723
3351.84502	7.98496
3349.91646	8.00285
3347.98789	8.02287
3346.05933	8.07304
3344.13076	8.10045
3342.20220	8.08831
3340.27363	8.05447
3338.34507	8.03670
3336.41650	8.07531
3334.48794	8.17298
3332.55937	8.23049
3330.63081	8.17364
3328.70225	8.08033
3326.77368	8.03530
3324.84512	8.05211
3322.91655	8.08706
3320.98799	8.10693
3319.05942	8.10505
3317.13086	8.09243
3315.20229	8.11047
3313.27373	8.19716
3311.34517	8.23991
3309.41660	8.17907
3307.48804	8.14609
3305.55947	8.18500
3303.63091	8.27375
3301.70234	8.36378
3299.77378	8.37533
3297.84521	8.25737
3295.91665	8.12996
3293.98809	8.13811
3292.05952	8.26013
3290.13096	8.33213
3288.20239	8.26474
3286.27383	8.23165
3284.34526	8.29620
3282.41670	8.30858
3280.48813	8.23769
3278.55957	8.20023
3276.63101	8.21103
3274.70244	8.19579
3272.77388	8.17158
3270.84531	8.21401
3268.91675	8.29791
3266.98818	8.33635
3265.05962	8.30167
3263.13105	8.26692
3261.20249	8.31181
3259.27393	8.36042
3257.34536	8.35626
3255.41680	8.36312
3253.48823	8.32732
3251.55967	8.17146
3249.63110	8.04484
3247.70254	8.09107
3245.77397	8.23345
3243.84541	8.32324
3241.91685	8.33417
3239.98828	8.31403
3238.05972	8.29003
3236.13115	8.28873
3234.20259	8.30469
3232.27402	8.27469
3230.34546	8.21482
3228.41689	8.21463
3226.48833	8.28815
3224.55977	8.34356
3222.63120	8.27769
3220.70264	8.11924
3218.77407	8.00705
3216.84551	7.97928
3214.91694	7.95632
3212.98838	7.91572
3211.05981	7.90227
3209.13125	7.92338
3207.20269	7.97005
3205.27412	8.00773
3203.34556	7.99152
3201.41699	7.95056
3199.48843	7.89854
3197.55986	7.86109
3195.63130	7.88849
3193.70273	7.92045
3191.77417	7.88122
3189.84561	7.78981
3187.91704	7.66448
3185.98848	7.53703
3184.05991	7.46009
3182.13135	7.42927
3180.20278	7.38912
3178.27422	7.32085
3176.34565	7.27681
3174.41709	7.25685
3172.48853	7.21388
3170.55996	7.15173
3168.63140	7.07450
3166.70283	6.98501
3164.77427	6.90314
3162.84570	6.84060
3160.91714	6.79770
3158.98857	6.76414
3157.06001	6.71776
3155.13145	6.63753
3153.20288	6.54028
3151.27432	6.46231
3149.34575	6.39974
3147.41719	6.33957
3145.48862	6.28758
3143.56006	6.23196
3141.63149	6.16041
3139.70293	6.07793
3137.77437	5.99593
3135.84580	5.92290
3133.91724	5.85792
3131.98867	5.79241
3130.06011	5.72117
3128.13154	5.65167
3126.20298	5.58955
3124.27441	5.52815
3122.34585	5.45695
3120.41729	5.37907
3118.48872	5.30177
3116.56016	5.22766
3114.63159	5.16019
3112.70303	5.09365
3110.77446	5.02105
3108.84590	4.94680
3106.91733	4.87606
3104.98877	4.80801
3103.06021	4.74047
3101.13164	4.67081
3099.20308	4.60250
3097.27451	4.54084
3095.34595	4.47967
3093.41738	4.41203
3091.48882	4.34250
3089.56025	4.27774
3087.63169	4.21648
3085.70312	4.15485
3083.77456	4.09112
3081.84600	4.02571
3079.91743	3.96212
3077.98887	3.90265
3076.06030	3.84483
3074.13174	3.78628
3072.20317	3.72835
3070.27461	3.67187
3068.34604	3.61518
3066.41748	3.55757
3064.48892	3.50024
3062.56035	3.44373
3060.63179	3.38757
3058.70322	3.33142
3056.77466	3.27589
3054.84609	3.22192
3052.91753	3.16960
3050.98896	3.11884
3049.06040	3.06847
3047.13184	3.01718
3045.20327	2.96570
3043.27471	2.91566
3041.34614	2.86728
3039.41758	2.81946
3037.48901	2.77216
3035.56045	2.72537
3033.63188	2.67876
3031.70332	2.63309
3029.77476	2.58836
3027.84619	2.54385
3025.91763	2.49983
3023.98906	2.45647
3022.06050	2.41307
3020.13193	2.36978
3018.20337	2.32788
3016.27480	2.28777
3014.34624	2.24865
3012.41768	2.20953
3010.48911	2.17048
3008.56055	2.13284
3006.63198	2.09668
3004.70342	2.06066
3002.77485	2.02447
3000.84629	1.98900
2998.91772	1.95489
2996.98916	1.92176
2995.06060	1.88881
2993.13203	1.85618
2991.20347	1.82451
2989.27490	1.79377
2987.34634	1.76366
2985.41777	1.73411
2983.48921	1.70513
2981.56064	1.67679
2979.63208	1.64900
2977.70352	1.62144
2975.77495	1.59421
2973.84639	1.56753
2971.91782	1.54093
2969.98926	1.51462
2968.06069	1.48958
2966.13213	1.46556
2964.20356	1.44151
2962.27500	1.41682
2960.34644	1.39185
2958.41787	1.36743
2956.48931	1.34357
2954.56074	1.31972
2952.63218	1.29568
2950.70361	1.27188
2948.77505	1.24896
2946.84648	1.22659
2944.91792	1.20413
2942.98936	1.18218
2941.06079	1.16176
2939.13223	1.14227
2937.20366	1.12215
2935.27510	1.10129
2933.34653	1.08058
2931.41797	1.06006
2929.48940	1.03964
2927.56084	1.01972
2925.63228	1.00052
2923.70371	0.98211
2921.77515	0.96441
2919.84658	0.94706
2917.91802	0.92950
2915.98945	0.91194
2914.06089	0.89546
2912.13232	0.88005
2910.20376	0.86505
2908.27520	0.85041
2906.34663	0.83631
2904.41807	0.82243
2902.48950	0.80855
2900.56094	0.79492
2898.63237	0.78153
2896.70381	0.76829
2894.77524	0.75552
2892.84668	0.74321
2890.91812	0.73120
2888.98955	0.71953
2887.06099	0.70807
2885.13242	0.69697
2883.20386	0.68648
2881.27529	0.67665
2879.34673	0.66712
2877.41816	0.65719
2875.48960	0.64674
2873.56104	0.63625
2871.63247	0.62570
2869.70391	0.61467
2867.77534	0.60322
2865.84678	0.59164
2863.91821	0.57989
2861.98965	0.56825
2860.06108	0.55717
2858.13252	0.54655
2856.20396	0.53640
2854.27539	0.52675
2852.34683	0.51736
2850.41826	0.50817
2848.48970	0.49927
2846.56113	0.49104
2844.63257	0.48377
2842.70400	0.47728
2840.77544	0.47135
2838.84687	0.46553
2836.91831	0.45960
2834.98975	0.45366
2833.06118	0.44771
2831.13262	0.44176
2829.20405	0.43593
2827.27549	0.43005
2825.34692	0.42400
2823.41836	0.41775
2821.48979	0.41142
2819.56123	0.40529
2817.63267	0.39951
2815.70410	0.39387
2813.77554	0.38813
2811.84697	0.38245
2809.91841	0.37696
2807.98984	0.37150
2806.06128	0.36601
2804.13271	0.36065
2802.20415	0.35552
2800.27559	0.35055
2798.34702	0.34556
2796.41846	0.34059
2794.48989	0.33580
2792.56133	0.33121
2790.63276	0.32674
2788.70420	0.32221
2786.77563	0.31752
2784.84707	0.31293
2782.91851	0.30873
2780.98994	0.30475
2779.06138	0.30068
2777.13281	0.29659
2775.20425	0.29264
2773.27568	0.28876
2771.34712	0.28479
2769.41855	0.28093
2767.48999	0.27742
2765.56143	0.27401
2763.63286	0.27045
2761.70430	0.26685
2759.77573	0.26336
2757.84717	0.26003
2755.91860	0.25680
2753.99004	0.25372
2752.06147	0.25085
2750.13291	0.24799
2748.20435	0.24499
2746.27578	0.24202
2744.34722	0.23927
2742.41865	0.23665
2740.49009	0.23395
2738.56152	0.23121
2736.63296	0.22863
2734.70439	0.22610
2732.77583	0.22347
2730.84727	0.22089
2728.91870	0.21853
2726.99014	0.21631
2725.06157	0.21410
2723.13301	0.21187
2721.20444	0.20968
2719.27588	0.20771
2717.34731	0.20591
2715.41875	0.20404
2713.49019	0.20209
2711.56162	0.20023
2709.63306	0.19840
2707.70449	0.19653
2705.77593	0.19473
2703.84736	0.19300
2701.91880	0.19130
2699.99023	0.18979
2698.06167	0.18843
2696.13311	0.18694
2694.20454	0.18538
2692.27598	0.18392
2690.34741	0.18250
2688.41885	0.18106
2686.49028	0.17974
2684.56172	0.17860
2682.63315	0.17748
2680.70459	0.17629
2678.77603	0.17514
2676.84746	0.17404
2674.91890	0.17283
2672.99033	0.17155
2671.06177	0.17053
2669.13320	0.16969
2667.20464	0.16865
2665.27607	0.16744
2663.34751	0.16635
2661.41895	0.16546
2659.49038	0.16464
2657.56182	0.16380
2655.63325	0.16287
2653.70469	0.16194
2651.77612	0.16118
2649.84756	0.16059
2647.91899	0.15994
2645.99043	0.15921
2644.06187	0.15866
2642.13330	0.15830
2640.20474	0.15787
2638.27617	0.15734
2636.34761	0.15681
2634.41904	0.15627
2632.49048	0.15573
2630.56191	0.15523
2628.63335	0.15488
2626.70479	0.15458
2624.77622	0.15418
2622.84766	0.15383
2620.91909	0.15359
2618.99053	0.15333
2617.06196	0.15309
2615.13340	0.15282
2613.20483	0.15253
2611.27627	0.15232
2609.34771	0.15217
2607.41914	0.15206
2605.49058	0.15204
2603.56201	0.15215
2601.63345	0.15228
2599.70488	0.15215
2597.77632	0.15190
2595.84775	0.15184
2593.91919	0.15195
2591.99062	0.15202
2590.06206	0.15205
2588.13350	0.15217
2586.20493	0.15243
2584.27637	0.15270
2582.34780	0.15285
2580.41924	0.15294
2578.49067	0.15314
2576.56211	0.15352
2574.63354	0.15398
2572.70498	0.15440
2570.77642	0.15472
2568.84785	0.15505
2566.91929	0.15544
2564.99072	0.15584
2563.06216	0.15635
2561.13359	0.15691
2559.20503	0.15735
2557.27646	0.15765
2555.34790	0.15796
2553.41934	0.15844
2551.49077	0.15906
2549.56221	0.15961
2547.63364	0.16007
2545.70508	0.16061
2543.77651	0.16121
2541.84795	0.16176
2539.91938	0.16220
2537.99082	0.16271
2536.06226	0.16343
2534.13369	0.16424
2532.20513	0.16499
2530.27656	0.16565
2528.34800	0.16630
2526.41943	0.16698
2524.49087	0.16771
2522.56230	0.16842
2520.63374	0.16912
2518.70518	0.16989
2516.77661	0.17067
2514.84805	0.17136
2512.91948	0.17203
2510.99092	0.17286
2509.06235	0.17378
2507.13379	0.17467
2505.20522	0.17549
2503.27666	0.17628
2501.34810	0.17709
2499.41953	0.17794
2497.49097	0.17872
2495.56240	0.17944
2493.63384	0.18018
2491.70527	0.18107
2489.77671	0.18203
2487.84814	0.18295
2485.91958	0.18387
2483.99102	0.18472
2482.06245	0.18545
2480.13389	0.18624
2478.20532	0.18714
2476.27676	0.18807
2474.34819	0.18900
2472.41963	0.18982
2470.49106	0.19051
2468.56250	0.19130
2466.63394	0.19230
2464.70537	0.19335
2462.77681	0.19428
2460.84824	0.19517
2458.91968	0.19611
2456.99111	0.19706
2455.06255	0.19806
2453.13398	0.19907
2451.20542	0.19989
2449.27686	0.20064
2447.34829	0.20164
2445.41973	0.20281
2443.49116	0.20391
2441.56260	0.20495
2439.63403	0.20599
2437.70547	0.20697
2435.77690	0.20789
2433.84834	0.20894
2431.91978	0.21011
2429.99121	0.21124
2428.06265	0.21226
2426.13408	0.21327
2424.20552	0.21433
2422.27695	0.21547
2420.34839	0.21662
2418.41982	0.21776
2416.49126	0.21894
2414.56270	0.22010
2412.63413	0.22111
2410.70557	0.22208
2408.77700	0.22322
2406.84844	0.22452
2404.91987	0.22583
2402.99131	0.22713
2401.06274	0.22834
2399.13418	0.22943
2397.20562	0.23055
2395.27705	0.23173
2393.34849	0.23294
2391.41992	0.23414
2389.49136	0.23540
2387.56279	0.23664
2385.63423	0.23784
2383.70566	0.23918
2381.77710	0.24068
2379.84854	0.24216
2377.91997	0.24354
2375.99141	0.24479
2374.06284	0.24594
2372.13428	0.24732
2370.20571	0.24908
2368.27715	0.25080
2366.34858	0.25216
2364.42002	0.25281
2362.49146	0.25348
2360.56289	0.25572
2358.63433	0.25871
2356.70576	0.26119
2354.77720	0.26309
2352.84863	0.26457
2350.92007	0.26586
2348.99150	0.26680
2347.06294	0.26746
2345.13437	0.26856
2343.20581	0.27043
2341.27725	0.27209
2339.34868	0.27364
2337.42012	0.27592
2335.49155	0.27829
2333.56299	0.27976
2331.63442	0.28088
2329.70586	0.28249
2327.77729	0.28435
2325.84873	0.28608
2323.92017	0.28791
2321.99160	0.28976
2320.06304	0.29136
2318.13447	0.29297
2316.20591	0.29475
2314.27734	0.29660
2312.34878	0.29834
2310.42021	0.30003
2308.49165	0.30182
2306.56309	0.30366
2304.63452	0.30545
2302.70596	0.30715
2300.77739	0.30892
2298.84883	0.31079
2296.92026	0.31270
2294.99170	0.31460
2293.06313	0.31642
2291.13457	0.31822
2289.20601	0.32015
2287.27744	0.32213
2285.34888	0.32407
2283.42031	0.32601
2281.49175	0.32808
2279.56318	0.33021
2277.63462	0.33226
2275.70605	0.33428
2273.77749	0.33632
2271.84893	0.33836
2269.92036	0.34048
2267.99180	0.34271
2266.06323	0.34496
2264.13467	0.34708
2262.20610	0.34913
2260.27754	0.35128
2258.34897	0.35354
2256.42041	0.35574
2254.49185	0.35792
2252.56328	0.36017
2250.63472	0.36244
2248.70615	0.36470
2246.77759	0.36691
2244.84902	0.36909
2242.92046	0.37131
2240.99189	0.37357
2239.06333	0.37579
2237.13477	0.37799
2235.20620	0.38016
2233.27764	0.38232
2231.34907	0.38462
2229.42051	0.38700
2227.49194	0.38930
2225.56338	0.39155
2223.63481	0.39382
2221.70625	0.39609
2219.77769	0.39835
2217.84912	0.40061
2215.92056	0.40286
2213.99199	0.40511
2212.06343	0.40740
2210.13486	0.40967
2208.20630	0.41182
2206.27773	0.41393
2204.34917	0.41606
2202.42061	0.41810
2200.49204	0.42012
2198.56348	0.42218
2196.63491	0.42418
2194.70635	0.42604
2192.77778	0.42786
2190.84922	0.42972
2188.92065	0.43156
2186.99209	0.43345
2185.06353	0.43536
2183.13496	0.43711
2181.20640	0.43881
2179.27783	0.44055
2177.34927	0.44224
2175.42070	0.44382
2173.49214	0.44535
2171.56357	0.44687
2169.63501	0.44828
2167.70645	0.44962
2165.77788	0.45092
2163.84932	0.45220
2161.92075	0.45348
2159.99219	0.45469
2158.06362	0.45574
2156.13506	0.45663
2154.20649	0.45747
2152.27793	0.45834
2150.34937	0.45909
2148.42080	0.45975
2146.49224	0.46032
2144.56367	0.46072
2142.63511	0.46109
2140.70654	0.46147
2138.77798	0.46179
2136.84941	0.46201
2134.92085	0.46209
2132.99229	0.46209
2131.06372	0.46203
2129.13516	0.46186
2127.20659	0.46155
2125.27803	0.46118
2123.34946	0.46080
2121.42090	0.46039
2119.49233	0.45987
2117.56377	0.45932
2115.63521	0.45874
2113.70664	0.45803
2111.77808	0.45712
2109.84951	0.45611
2107.92095	0.45508
2105.99238	0.45394
2104.06382	0.45274
2102.13525	0.45157
2100.20669	0.45030
2098.27812	0.44884
2096.34956	0.44722
2094.42100	0.44557
2092.49243	0.44404
2090.56387	0.44249
2088.63530	0.44072
2086.70674	0.43881
2084.77817	0.43686
2082.84961	0.43487
2080.92104	0.43280
2078.99248	0.43076
2077.06392	0.42880
2075.13535	0.42684
2073.20679	0.42476
2071.27822	0.42246
2069.34966	0.42006
2067.42109	0.41775
2065.49253	0.41546
2063.56396	0.41299
2061.63540	0.41051
2059.70684	0.40811
2057.77827	0.40563
2055.84971	0.40302
2053.92114	0.40037
2051.99258	0.39776
2050.06401	0.39511
2048.13545	0.39241
2046.20688	0.38970
2044.27832	0.38704
2042.34976	0.38444
2040.42119	0.38169
2038.49263	0.37878
2036.56406	0.37596
2034.63550	0.37320
2032.70693	0.37038
2030.77837	0.36758
2028.84980	0.36482
2026.92124	0.36203
2024.99268	0.35915
2023.06411	0.35631
2021.13555	0.35364
2019.20698	0.35111
2017.27842	0.34851
2015.34985	0.34563
2013.42129	0.34257
2011.49272	0.33955
2009.56416	0.33670
2007.63560	0.33402
2005.70703	0.33140
2003.77847	0.32873
2001.84990	0.32605
1999.92134	0.32345
1997.99277	0.32080
1996.06421	0.31809
1994.13564	0.31566
1992.20708	0.31344
1990.27852	0.31093
1988.34995	0.30816
1986.42139	0.30550
1984.49282	0.30299
1982.56426	0.30055
1980.63569	0.29812
1978.70713	0.29575
1976.77856	0.29349
1974.85000	0.29133
1972.92144	0.28918
1970.99287	0.28707
1969.06431	0.28516
1967.13574	0.28334
1965.20718	0.28122
1963.27861	0.27898
1961.35005	0.27695
1959.42148	0.27498
1957.49292	0.27301
1955.56436	0.27115
1953.63579	0.26935
1951.70723	0.26756
1949.77866	0.26587
1947.85010	0.26430
1945.92153	0.26294
1943.99297	0.26181
1942.06440	0.26056
1940.13584	0.25883
1938.20728	0.25701
1936.27871	0.25549
1934.35015	0.25416
1932.42158	0.25293
1930.49302	0.25171
1928.56445	0.25054
1926.63589	0.24943
1924.70732	0.24863
1922.77876	0.24809
1920.85020	0.24728
1918.92163	0.24627
1916.99307	0.24518
1915.06450	0.24388
1913.13594	0.24277
1911.20737	0.24222
1909.27881	0.24183
1907.35024	0.24106
1905.42168	0.24002
1903.49312	0.23917
1901.56455	0.23861
1899.63599	0.23818
1897.70742	0.23786
1895.77886	0.23766
1893.85029	0.23734
1891.92173	0.23696
1889.99316	0.23691
1888.06460	0.23674
1886.13604	0.23621
1884.20747	0.23578
1882.27891	0.23549
1880.35034	0.23528
1878.42178	0.23518
1876.49321	0.23513
1874.56465	0.23511
1872.63608	0.23538
1870.70752	0.23621
1868.77896	0.23745
1866.85039	0.23781
1864.92183	0.23710
1862.99326	0.23661
1861.06470	0.23664
1859.13613	0.23685
1857.20757	0.23702
1855.27900	0.23738
1853.35044	0.23796
1851.42187	0.23869
1849.49331	0.23956
1847.56475	0.24068
1845.63618	0.24203
1843.70762	0.24325
1841.77905	0.24360
1839.85049	0.24361
1837.92192	0.24426
1835.99336	0.24518
1834.06479	0.24607
1832.13623	0.24735
1830.20767	0.24940
1828.27910	0.25112
1826.35054	0.25196
1824.42197	0.25294
1822.49341	0.25385
1820.56484	0.25476
1818.63628	0.25605
1816.70771	0.25771
1814.77915	0.25946
1812.85059	0.26151
1810.92202	0.26386
1808.99346	0.26587
1807.06489	0.26755
1805.13633	0.26936
1803.20776	0.27179
1801.27920	0.27476
1799.35063	0.27773
1797.42207	0.28012
1795.49351	0.28261
1793.56494	0.28594
1791.63638	0.28993
1789.70781	0.29291
1787.77925	0.29494
1785.85068	0.29791
1783.92212	0.30172
1781.99355	0.30583
1780.06499	0.31012
1778.13643	0.31439
1776.20786	0.31864
1774.27930	0.32368
1772.35073	0.33030
1770.42217	0.33658
1768.49360	0.34123
1766.56504	0.34572
1764.63647	0.35080
1762.70791	0.35700
1760.77935	0.36472
1758.85078	0.37166
1756.92222	0.37857
1754.99365	0.38615
1753.06509	0.39340
1751.13652	0.40254
1749.20796	0.41370
1747.27939	0.42386
1745.35083	0.43246
1743.42227	0.44164
1741.49370	0.45201
1739.56514	0.46431
1737.63657	0.47672
1735.70801	0.48820
1733.77944	0.50546
1731.85088	0.52486
1729.92231	0.53969
1727.99375	0.55485
1726.06519	0.57151
1724.13662	0.59006
1722.20806	0.61047
1720.27949	0.63009
1718.35093	0.65353
1716.42236	0.68645
1714.49380	0.71637
1712.56523	0.74034
1710.63667	0.76407
1708.70811	0.79021
1706.77954	0.82033
1704.85098	0.85594
1702.92241	0.88791
1700.99385	0.92020
1699.06528	0.96722
1697.13672	1.00974
1695.20815	1.05269
1693.27959	1.09538
1691.35103	1.13105
1689.42246	1.17256
1687.49390	1.21641
1685.56533	1.25925
1683.63677	1.32333
1681.70820	1.38881
1679.77964	1.43132
1677.85107	1.47210
1675.92251	1.51961
1673.99395	1.57815
1672.06538	1.63084
1670.13682	1.68251
1668.20825	1.74757
1666.27969	1.80150
1664.35112	1.84961
1662.42256	1.91019
1660.49399	1.97795
1658.56543	2.03172
1656.63687	2.07629
1654.70830	2.11792
1652.77974	2.17677
1650.85117	2.22915
1648.92261	2.24814
1646.99404	2.27207
1645.06548	2.29819
1643.13691	2.31515
1641.20835	2.32434
1639.27979	2.33408
1637.35122	2.34171
1635.42266	2.34156
1633.49409	2.33130
1631.56553	2.31519
1629.63696	2.29706
1627.70840	2.26843
1625.77983	2.23419
1623.85127	2.19100
1621.92271	2.13894
1619.99414	2.09171
1618.06558	2.04502
1616.13701	1.98084
1614.20845	1.91663
1612.27988	1.86747
1610.35132	1.81593
1608.42275	1.75947
1606.49419	1.70320
1604.56562	1.65150
1602.63706	1.60249
1600.70850	1.55508
1598.77993	1.51102
1596.85137	1.46936
1594.92280	1.42939
1592.99424	1.39116
1591.06567	1.35593
1589.13711	1.32304
1587.20854	1.29296
1585.27998	1.26537
1583.35142	1.23958
1581.42285	1.21648
1579.49429	1.19754
1577.56572	1.18129
1575.63716	1.16121
1573.70859	1.14219
1571.78003	1.12988
1569.85146	1.11859
1567.92290	1.10620
1565.99434	1.09674
1564.06577	1.09023
1562.13721	1.08605
1560.20864	1.08538
1558.28008	1.08733
1556.35151	1.08665
1554.42295	1.08492
1552.49438	1.08389
1550.56582	1.08215
1548.63726	1.07816
1546.70869	1.07184
1544.78013	1.06324
1542.85156	1.05232
1540.92300	1.03623
1538.99443	1.00923
1537.06587	0.98705
1535.13730	0.97212
1533.20874	0.95392
1531.28018	0.93411
1529.35161	0.91931
1527.42305	0.90627
1525.49448	0.89299
1523.56592	0.88133
1521.63735	0.87050
1519.70879	0.85934
1517.78022	0.84950
1515.85166	0.83825
1513.92310	0.82597
1511.99453	0.81528
1510.06597	0.80637
1508.13740	0.79851
1506.20884	0.78560
1504.28027	0.77208
1502.35171	0.76404
1500.42314	0.75790
1498.49458	0.75205
1496.56602	0.74510
1494.63745	0.73737
1492.70889	0.73138
1490.78032	0.72694
1488.85176	0.72188
1486.92319	0.71612
1484.99463	0.71116
1483.06606	0.70749
1481.13750	0.70486
1479.20894	0.70298
1477.28037	0.70212
1475.35181	0.70242
1473.42324	0.70322
1471.49468	0.70233
1469.56611	0.69935
1467.63755	0.69660
1465.70898	0.69494
1463.78042	0.69372
1461.85186	0.69286
1459.92329	0.69323
1457.99473	0.69475
1456.06616	0.69462
1454.13760	0.69155
1452.20903	0.68831
1450.28047	0.68546
1448.35190	0.68286
1446.42334	0.68009
1444.49478	0.67732
1442.56621	0.67489
1440.63765	0.67275
1438.70908	0.67091
1436.78052	0.66865
1434.85195	0.66529
1432.92339	0.66234
1430.99482	0.66067
1429.06626	0.65969
1427.13770	0.65907
1425.20913	0.65920
1423.28057	0.65993
1421.35200	0.66060
1419.42344	0.66135
1417.49487	0.66141
1415.56631	0.65999
1413.63774	0.65853
1411.70918	0.65781
1409.78062	0.65782
1407.85205	0.65849
1405.92349	0.65974
1403.99492	0.66078
1402.06636	0.66081
1400.13779	0.66021
1398.20923	0.65891
1396.28066	0.65648
1394.35210	0.65288
1392.42354	0.64857
1390.49497	0.64457
1388.56641	0.64095
1386.63784	0.63676
1384.70928	0.63196
1382.78071	0.62746
1380.85215	0.62340
1378.92358	0.61993
1376.99502	0.61751
1375.06646	0.61618
1373.13789	0.61518
1371.20933	0.61417
1369.28076	0.61332
1367.35220	0.61226
1365.42363	0.61099
1363.49507	0.60995
1361.56650	0.60861
1359.63794	0.60674
1357.70937	0.60511
1355.78081	0.60375
1353.85225	0.60251
1351.92368	0.60152
1349.99512	0.60067
1348.06655	0.59974
1346.13799	0.59873
1344.20942	0.59773
1342.28086	0.59699
1340.35229	0.59667
1338.42373	0.59618
1336.49517	0.59520
1334.56660	0.59428
1332.63804	0.59379
1330.70947	0.59358
1328.78091	0.59361
1326.85234	0.59398
1324.92378	0.59458
1322.99521	0.59521
1321.06665	0.59582
1319.13809	0.59637
1317.20952	0.59661
1315.28096	0.59649
1313.35239	0.59614
1311.42383	0.59546
1309.49526	0.59446
1307.56670	0.59349
1305.63813	0.59272
1303.70957	0.59190
1301.78101	0.59088
1299.85244	0.58978
1297.92388	0.58866
1295.99531	0.58746
1294.06675	0.58622
1292.13818	0.58505
1290.20962	0.58387
1288.28105	0.58259
1286.35249	0.58125
1284.42393	0.57996
1282.49536	0.57867
1280.56680	0.57725
1278.63823	0.57578
1276.70967	0.57454
1274.78110	0.57363
1272.85254	0.57285
1270.92397	0.57214
1268.99541	0.57154
1267.06685	0.57089
1265.13828	0.57013
1263.20972	0.56943
1261.28115	0.56875
1259.35259	0.56796
1257.42402	0.56728
1255.49546	0.56698
1253.56689	0.56697
1251.63833	0.56705
1249.70977	0.56719
1247.78120	0.56724
1245.85264	0.56697
1243.92407	0.56641
1241.99551	0.56552
1240.06694	0.56420
1238.13838	0.56252
1236.20981	0.56067
1234.28125	0.55867
1232.35269	0.55656
1230.42412	0.55456
1228.49556	0.55267
1226.56699	0.55084
1224.63843	0.54901
1222.70986	0.54714
1220.78130	0.54548
1218.85273	0.54413
1216.92417	0.54289
1214.99561	0.54173
1213.06704	0.54077
1211.13848	0.54000
1209.20991	0.53934
1207.28135	0.53869
1205.35278	0.53791
1203.42422	0.53695
1201.49565	0.53594
1199.56709	0.53509
1197.63853	0.53435
1195.70996	0.53354
1193.78140	0.53265
1191.85283	0.53178
1189.92427	0.53114
1187.99570	0.53084
1186.06714	0.53069
1184.13857	0.53061
1182.21001	0.53078
1180.28145	0.53140
1178.35288	0.53252
1176.42432	0.53392
1174.49575	0.53511
1172.56719	0.53581
1170.63862	0.53622
1168.71006	0.53662
1166.78149	0.53700
1164.85293	0.53724
1162.92437	0.53739
1160.99580	0.53746
1159.06724	0.53736
1157.13867	0.53703
1155.21011	0.53642
1153.28154	0.53541
1151.35298	0.53386
1149.42441	0.53174
1147.49585	0.52913
1145.56729	0.52628
1143.63872	0.52348
1141.71016	0.52103
1139.78159	0.51909
1137.85303	0.51757
1135.92446	0.51655
1133.99590	0.51610
1132.06733	0.51591
1130.13877	0.51578
1128.21021	0.51563
1126.28164	0.51536
1124.35308	0.51499
1122.42451	0.51465
1120.49595	0.51452
1118.56738	0.51476
1116.63882	0.51524
1114.71025	0.51585
1112.78169	0.51667
1110.85312	0.51756
1108.92456	0.51831
1106.99600	0.51903
1105.06743	0.51993
1103.13887	0.52083
1101.21030	0.52170
1099.28174	0.52294
1097.35317	0.52469
1095.42461	0.52705
1093.49604	0.53039
1091.56748	0.53505
1089.63892	0.54140
1087.71035	0.54944
1085.78179	0.55844
1083.85322	0.56725
1081.92466	0.57474
1079.99609	0.57993
1078.06753	0.58213
1076.13896	0.58124
1074.21040	0.57767
1072.28184	0.57205
1070.35327	0.56525
1068.42471	0.55801
1066.49614	0.55090
1064.56758	0.54448
1062.63901	0.53911
1060.71045	0.53454
1058.78188	0.53033
1056.85332	0.52672
1054.92476	0.52375
1052.99619	0.52086
1051.06763	0.51816
1049.13906	0.51639
1047.21050	0.51578
1045.28193	0.51585
1043.35337	0.51625
1041.42480	0.51685
1039.49624	0.51738
1037.56768	0.51758
1035.63911	0.51739
1033.71055	0.51677
1031.78198	0.51568
1029.85342	0.51408
1027.92485	0.51212
1025.99629	0.51027
1024.06772	0.50894
1022.13916	0.50808
1020.21060	0.50744
1018.28203	0.50701
1016.35347	0.50687
1014.42490	0.50680
1012.49634	0.50651
1010.56777	0.50628
1008.63921	0.50626
1006.71064	0.50656
1004.78208	0.50743
1002.85352	0.50888
1000.92495	0.51103
998.99639	0.51419
997.06782	0.51847
995.13926	0.52333
993.21069	0.52769
991.28213	0.53089
989.35356	0.53288
987.42500	0.53367
985.49644	0.53366
983.56787	0.53359
981.63931	0.53374
979.71074	0.53421
977.78218	0.53535
975.85361	0.53730
973.92505	0.53990
971.99648	0.54286
970.06792	0.54592
968.13936	0.54919
966.21079	0.55301
964.28223	0.55744
962.35366	0.56232
960.42510	0.56739
958.49653	0.57261
956.56797	0.57819
954.63940	0.58408
952.71084	0.59019
950.78228	0.59677
948.85371	0.60352
946.92515	0.60985
944.99658	0.61580
943.06802	0.62173
941.13945	0.62793
939.21089	0.63419
937.28232	0.64006
935.35376	0.64589
933.42520	0.65200
931.49663	0.65796
929.56807	0.66354
927.63950	0.66921
925.71094	0.67529
923.78237	0.68143
921.85381	0.68784
919.92524	0.69498
917.99668	0.70227
916.06812	0.70913
914.13955	0.71611
912.21099	0.72382
910.28242	0.73207
908.35386	0.74043
906.42529	0.74898
904.49673	0.75814
902.56816	0.76715
900.63960	0.77574
898.71104	0.78525
896.78247	0.79562
894.85391	0.80572
892.92534	0.81587
890.99678	0.82638
889.06821	0.83659
887.13965	0.84667
885.21108	0.85764
883.28252	0.86933
881.35396	0.88064
879.42539	0.89184
877.49683	0.90411
875.56826	0.91665
873.63970	0.92755
871.71113	0.93762
869.78257	0.94856
867.85400	0.96054
865.92544	0.97362
863.99687	0.98743
862.06831	1.00052
860.13975	1.01202
858.21118	1.02299
856.28262	1.03460
854.35405	1.04633
852.42549	1.05766
850.49692	1.06999
848.56836	1.08331
846.63979	1.09534
844.71123	1.10628
842.78267	1.11745
840.85410	1.12939
838.92554	1.14210
836.99697	1.15411
835.06841	1.16435
833.13984	1.17446
831.21128	1.18490
829.28271	1.19356
827.35415	1.20241
825.42559	1.21433
823.49702	1.22784
821.56846	1.24184
819.63989	1.25524
817.71133	1.26472
815.78276	1.27182
813.85420	1.28183
811.92563	1.29318
809.99707	1.30395
808.06851	1.31402
806.13994	1.31853
804.21138	1.32053
802.28281	1.33388
800.35425	1.35521
798.42568	1.36343
796.49712	1.35633
794.56855	1.36477
792.63999	1.42705
790.71143	1.51850
788.78286	1.50344
786.85430	1.40494
784.92573	1.35784
782.99717	1.38303
781.06860	1.45382
779.14004	1.48904
777.21147	1.48963
775.28291	1.62112
773.35435	1.88314
771.42578	1.70557
769.49722	1.50135
767.56865	1.42905
765.64009	1.34454
763.71152	1.26878
761.78296	1.28977
759.85439	1.40678
757.92583	1.47467
755.99727	1.37224
754.06870	1.29340
752.14014	1.25688
750.21157	1.17354
748.28301	1.07772
746.35444	1.05727
744.42588	1.11707
742.49731	1.18187
740.56875	1.12346
738.64019	0.97689
736.71162	0.85106
734.78306	0.78360
732.85449	0.76534
730.92593	0.73261
728.99736	0.62929
727.06880	0.46373
725.14023	0.30023
723.21167	0.18798
721.28311	0.06783
719.35454	-0.00850
717.42598	0.01841
715.49741	0.11276
713.56885	0.22269
711.64028	0.31436
709.71172	0.29515
707.78315	0.22339
705.85459	0.23538
703.92603	0.20845
701.99746	0.17252
700.06890	0.25619
698.14033	0.43841
696.21177	0.67244
694.28320	0.86142
692.35464	0.67239
690.42607	0.45896
688.49751	0.35552
686.56895	0.32018
684.64038	0.32781
682.71182	0.33547
680.78325	0.29685
678.85469	0.25593
676.92612	0.26013
674.99756	0.31166
673.06899	0.37990
671.14043	0.42160
669.21187	0.39546
667.28330	0.30239
665.35474	0.22166
663.42617	0.23993
661.49761	0.32167
659.56904	0.37211
657.64048	0.36606
655.71191	0.33098
653.78335	0.31741
651.85479	0.34123
649.92622	0.35761
647.99766	0.33039
646.06909	0.28727
644.14053	0.26217
642.21196	0.28951
640.28340	0.42395
638.35483	1.08204
636.42627	3.81856
634.49771	3.80699
632.56914	0.53334
630.64058	0.31277
628.71201	0.29938
626.78345	0.35936
624.85488	0.37196
622.92632	0.38181
620.99775	0.46930
619.06919	0.54151
617.14062	0.48018
615.21206	0.43422
613.28350	0.39870
611.35493	0.33702
609.42637	0.37509
607.49780	0.51656
605.56924	0.46878
603.64067	0.31533
601.71211	0.25713
599.78354	0.29151
597.85498	0.31357
595.92642	0.27743
593.99785	0.26297
592.06929	0.29850
590.14072	0.29252
588.21216	0.28071
586.28359	0.38086
584.35503	0.55544
582.42646	0.51588
580.49790	0.43305
578.56934	0.41960
576.64077	0.48972
574.71221	0.60335
572.78364	0.53762
570.85508	0.41511
568.92651	0.37814
566.99795	0.35824
565.06938	0.32309
563.14082	0.28917
561.21226	0.22733
559.28369	0.17475
557.35513	0.18953
555.42656	0.28533
553.49800	0.38777
551.56943	0.35607
549.64087	0.31145
547.71230	0.30051
545.78374	0.28397
543.85518	0.27253
541.92661	0.27096
539.99805	0.29235
538.06948	0.34065
536.14092	0.32461
534.21235	0.23348
532.28379	0.18664
530.35522	0.21466
528.42666	0.29101
526.49810	0.31076
524.56953	0.25209
522.64097	0.20592
520.71240	0.21112
518.78384	0.27690
516.85527	0.35159
514.92671	0.37183
512.99814	0.37110
511.06958	0.36489
509.14102	0.34558
507.21245	0.31423
505.28389	0.24173
503.35532	0.17337
501.42676	0.14202
499.49819	0.15045
