3997.91411	0.04952
3995.98555	0.04962
3994.05698	0.05018
3992.12842	0.05089
3990.19985	0.05142
3988.27129	0.05176
3986.34272	0.05206
3984.41416	0.05213
3982.48560	0.05207
3980.55703	0.05221
3978.62847	0.05259
3976.69990	0.05309
3974.77134	0.05357
3972.84277	0.05380
3970.91421	0.05364
3968.98564	0.05357
3967.05708	0.05392
3965.12852	0.05412
3963.19995	0.05419
3961.27139	0.05438
3959.34282	0.05447
3957.41426	0.05459
3955.48569	0.05486
3953.55713	0.05520
3951.62856	0.05577
3949.70000	0.05619
3947.77144	0.05597
3945.84287	0.05554
3943.91431	0.05561
3941.98574	0.05604
3940.05718	0.05602
3938.12861	0.05556
3936.20005	0.05540
3934.27148	0.05580
3932.34292	0.05648
3930.41436	0.05697
3928.48579	0.05690
3926.55723	0.05671
3924.62866	0.05687
3922.70010	0.05677
3920.77153	0.05642
3918.84297	0.05659
3916.91440	0.05680
3914.98584	0.05623
3913.05728	0.05528
3911.12871	0.05470
3909.20015	0.05474
3907.27158	0.05526
3905.34302	0.05637
3903.41445	0.05827
3901.48589	0.05955
3899.55732	0.05901
3897.62876	0.05759
3895.70020	0.05642
3893.77163	0.05623
3891.84307	0.05697
3889.91450	0.05759
3887.98594	0.05753
3886.05737	0.05781
3884.12881	0.05851
3882.20024	0.05866
3880.27168	0.05864
3878.34312	0.05829
3876.41455	0.05768
3874.48599	0.05815
3872.55742	0.05950
3870.62886	0.06055
3868.70029	0.06093
3866.77173	0.06046
3864.84316	0.06047
3862.91460	0.06144
3860.98604	0.06149
3859.05747	0.06054
3857.12891	0.06035
3855.20034	0.06202
3853.27178	0.06579
3851.34321	0.06771
3849.41465	0.06532
3847.48608	0.06315
3845.55752	0.06285
3843.62896	0.06401
3841.70039	0.06564
3839.77183	0.06764
3837.84326	0.07019
3835.91470	0.07138
3833.98613	0.07052
3832.05757	0.06953
3830.12900	0.06935
3828.20044	0.06974
3826.27187	0.07059
3824.34331	0.07166
3822.41475	0.07314
3820.48618	0.07547
3818.55762	0.07638
3816.62905	0.07607
3814.70049	0.07650
3812.77192	0.07651
3810.84336	0.07614
3808.91479	0.07692
3806.98623	0.07932
3805.05767	0.08176
3803.12910	0.08320
3801.20054	0.08500
3799.27197	0.08643
3797.34341	0.08664
3795.41484	0.08680
3793.48628	0.08690
3791.55771	0.08715
3789.62915	0.08790
3787.70059	0.08907
3785.77202	0.09099
3783.84346	0.09320
3781.91489	0.09482
3779.98633	0.09653
3778.05776	0.09870
3776.12920	0.09998
3774.20063	0.10051
3772.27207	0.10180
3770.34351	0.10480
3768.41494	0.10866
3766.48638	0.11120
3764.55781	0.11259
3762.62925	0.11389
3760.70068	0.11610
3758.77212	0.11967
3756.84355	0.12306
3754.91499	0.12518
3752.98643	0.12757
3751.05786	0.13204
3749.12930	0.13710
3747.20073	0.13910
3745.27217	0.14056
3743.34360	0.14413
3741.41504	0.14747
3739.48647	0.14980
3737.55791	0.15356
3735.62935	0.15968
3733.70078	0.16584
3731.77222	0.16962
3729.84365	0.17258
3727.91509	0.17622
3725.98652	0.18147
3724.05796	0.18805
3722.12939	0.19468
3720.20083	0.20131
3718.27227	0.20839
3716.34370	0.21608
3714.41514	0.22411
3712.48657	0.23418
3710.55801	0.24866
3708.62944	0.26303
3706.70088	0.27354
3704.77231	0.28389
3702.84375	0.29702
3700.91519	0.31427
3698.98662	0.33281
3697.05806	0.35025
3695.12949	0.36881
3693.20093	0.38908
3691.27236	0.41206
3689.34380	0.44135
3687.41523	0.47544
3685.48667	0.50508
3683.55811	0.53129
3681.62954	0.56014
3679.70098	0.59291
3677.77241	0.62730
3675.84385	0.66767
3673.91528	0.72021
3671.98672	0.76327
3670.05815	0.80268
3668.12959	0.85587
3666.20103	0.90415
3664.27246	0.94485
3662.34390	0.98868
3660.41533	1.03643
3658.48677	1.08407
3656.55820	1.13458
3654.62964	1.19040
3652.70107	1.23753
3650.77251	1.27882
3648.84395	1.33494
3646.91538	1.40208
3644.98682	1.45136
3643.05825	1.48967
3641.12969	1.53032
3639.20112	1.57635
3637.27256	1.62252
3635.34399	1.66649
3633.41543	1.70987
3631.48687	1.75050
3629.55830	1.79173
3627.62974	1.84515
3625.70117	1.89506
3623.77261	1.92938
3621.84404	1.96323
3619.91548	2.00280
3617.98691	2.04949
3616.05835	2.09416
3614.12979	2.13227
3612.20122	2.17110
3610.27266	2.20891
3608.34409	2.24796
3606.41553	2.29123
3604.48696	2.33158
3602.55840	2.36712
3600.62983	2.40521
3598.70127	2.44591
3596.77271	2.48546
3594.84414	2.52660
3592.91558	2.56932
3590.98701	2.60874
3589.05845	2.64574
3587.12988	2.69082
3585.20132	2.74004
3583.27275	2.78092
3581.34419	2.81853
3579.41562	2.85877
3577.48706	2.90127
3575.55850	2.94434
3573.62993	2.98786
3571.70137	3.02991
3569.77280	3.07073
3567.84424	3.11529
3565.91567	3.16790
3563.98711	3.21592
3562.05854	3.25538
3560.12998	3.29668
3558.20142	3.34226
3556.27285	3.38896
3554.34429	3.43393
3552.41572	3.48037
3550.48716	3.52844
3548.55859	3.57517
3546.63003	3.62064
3544.70146	3.66648
3542.77290	3.71306
3540.84434	3.76090
3538.91577	3.80995
3536.98721	3.85803
3535.05864	3.90589
3533.13008	3.95359
3531.20151	4.00040
3529.27295	4.04650
3527.34438	4.09523
3525.41582	4.14514
3523.48726	4.19242
3521.55869	4.23938
3519.63013	4.28750
3517.70156	4.33702
3515.77300	4.38493
3513.84443	4.43118
3511.91587	4.47865
3509.98730	4.52919
3508.05874	4.58257
3506.13018	4.63367
3504.20161	4.68056
3502.27305	4.72940
3500.34448	4.78256
3498.41592	4.83179
3496.48735	4.87488
3494.55879	4.91722
3492.63022	4.96362
3490.70166	5.01549
3488.77310	5.07060
3486.84453	5.12598
3484.91597	5.18047
3482.98740	5.23103
3481.05884	5.27200
3479.13027	5.30672
3477.20171	5.34881
3475.27314	5.40135
3473.34458	5.45447
3471.41602	5.50413
3469.48745	5.55701
3467.55889	5.61823
3465.63032	5.67658
3463.70176	5.72205
3461.77319	5.76375
3459.84463	5.80984
3457.91606	5.85944
3455.98750	5.90854
3454.05894	5.94963
3452.13037	5.99454
3450.20181	6.05545
3448.27324	6.11182
3446.34468	6.15848
3444.41611	6.21168
3442.48755	6.27291
3440.55898	6.33128
3438.63042	6.37592
3436.70186	6.40473
3434.77329	6.43946
3432.84473	6.49579
3430.91616	6.54853
3428.98760	6.59049
3427.05903	6.63933
3425.13047	6.69327
3423.20190	6.74478
3421.27334	6.79773
3419.34478	6.84246
3417.41621	6.88244
3415.48765	6.94052
3413.55908	7.00646
3411.63052	7.06430
3409.70195	7.11303
3407.77339	7.15045
3405.84482	7.17408
3403.91626	7.19704
3401.98770	7.23053
3400.05913	7.28856
3398.13057	7.35920
3396.20200	7.41536
3394.27344	7.44989
3392.34487	7.46669
3390.41631	7.51621
3388.48774	7.58454
3386.55918	7.62135
3384.63062	7.64766
3382.70205	7.67141
3380.77349	7.67252
3378.84492	7.70282
3376.91636	7.79104
3374.98779	7.85396
3373.05923	7.85785
3371.13066	7.84199
3369.20210	7.86945
3367.27354	7.93843
3365.34497	7.99145
3363.41641	7.96807
3361.48784	7.87213
3359.55928	7.81938
3357.63071	7.87063
3355.70215	7.97181
3353.77358	7.99392
3351.84502	7.96956
3349.91646	7.99934
3347.98789	8.04842
3346.05933	8.07391
3344.13076	8.08965
3342.20220	8.10000
3340.27363	8.09558
3338.34507	8.11446
3336.41650	8.15609
3334.48794	8.19102
3332.55937	8.18511
3330.63081	8.15562
3328.70225	8.15562
3326.77368	8.17151
3324.84512	8.19983
3322.91655	8.23264
3320.98799	8.20641
3319.05942	8.13757
3317.13086	8.12734
3315.20229	8.15608
3313.27373	8.17978
3311.34517	8.21692
3309.41660	8.23793
3307.48804	8.23973
3305.55947	8.29562
3303.63091	8.35734
3301.70234	8.33107
3299.77378	8.30667
3297.84521	8.28297
3295.91665	8.26984
3293.98809	8.36707
3292.05952	8.46859
3290.13096	8.41693
3288.20239	8.29124
3286.27383	8.20856
3284.34526	8.19319
3282.41670	8.21455
3280.48813	8.21101
3278.55957	8.19060
3276.63101	8.18114
3274.70244	8.18434
3272.77388	8.17531
3270.84531	8.14633
3268.91675	8.15249
3266.98818	8.19927
3265.05962	8.23938
3263.13105	8.25496
3261.20249	8.27806
3259.27393	8.30144
3257.34536	8.31374
3255.41680	8.33260
3253.48823	8.33992
3251.55967	8.31413
3249.63110	8.27928
3247.70254	8.26246
3245.77397	8.24338
3243.84541	8.21231
3241.91685	8.18861
3239.98828	8.22753
3238.05972	8.33711
3236.13115	8.42355
3234.20259	8.44927
3232.27402	8.44459
3230.34546	8.35246
3228.41689	8.20100
3226.48833	8.08427
3224.55977	7.98946
3222.63120	7.98082
3220.70264	8.08015
3218.77407	8.12298
3216.84551	8.07172
3214.91694	8.05520
3212.98838	8.10447
3211.05981	8.14503
3209.13125	8.11702
3207.20269	8.06110
3205.27412	8.02837
3203.34556	8.00622
3201.41699	7.99621
3199.48843	7.99985
3197.55986	7.95908
3195.63130	7.86201
3193.70273	7.77890
3191.77417	7.71593
3189.84561	7.62207
3187.91704	7.51267
3185.98848	7.45155
3184.05991	7.46544
3182.13135	7.49575
3180.20278	7.45139
3178.27422	7.36465
3176.34565	7.33199
3174.41709	7.32448
3172.48853	7.25670
3170.55996	7.14006
3168.63140	7.05188
3166.70283	7.01599
3164.77427	6.97614
3162.84570	6.89966
3160.91714	6.79677
3158.98857	6.69713
3157.06001	6.63421
3155.13145	6.60331
3153.20288	6.57581
3151.27432	6.53013
3149.34575	6.46536
3147.41719	6.39238
3145.48862	6.31823
3143.56006	6.24905
3141.63149	6.18461
3139.70293	6.10644
3137.77437	6.01321
3135.84580	5.92983
3133.91724	5.85931
3131.98867	5.78654
3130.06011	5.71605
3128.13154	5.65280
3126.20298	5.58540
3124.27441	5.51693
3122.34585	5.45462
3120.41729	5.38949
3118.48872	5.31326
3116.56016	5.23282
3114.63159	5.15829
3112.70303	5.08263
3110.77446	5.00115
3108.84590	4.92425
3106.91733	4.85623
3104.98877	4.79412
3103.06021	4.73239
3101.13164	4.66327
3099.20308	4.59095
3097.27451	4.52460
3095.34595	4.45913
3093.41738	4.38792
3091.48882	4.31690
3089.56025	4.25215
3087.63169	4.19085
3085.70312	4.12713
3083.77456	4.06100
3081.84600	3.99610
3079.91743	3.93200
3077.98887	3.86927
3076.06030	3.81009
3074.13174	3.75239
3072.20317	3.69371
3070.27461	3.63389
3068.34604	3.57410
3066.41748	3.51690
3064.48892	3.46218
3062.56035	3.40641
3060.63179	3.34863
3058.70322	3.29062
3056.77466	3.23391
3054.84609	3.17867
3052.91753	3.12498
3050.98896	3.07299
3049.06040	3.02124
3047.13184	2.96962
3045.20327	2.91876
3043.27471	2.86830
3041.34614	2.81903
3039.41758	2.77128
3037.48901	2.72422
3035.56045	2.67784
3033.63188	2.63198
3031.70332	2.58606
3029.77476	2.54023
3027.84619	2.49523
3025.91763	2.45152
3023.98906	2.40880
3022.06050	2.36639
3020.13193	2.32399
3018.20337	2.28256
3016.27480	2.24276
3014.34624	2.20371
3012.41768	2.16489
3010.48911	2.12627
3008.56055	2.08790
3006.63198	2.05016
3004.70342	2.01347
3002.77485	1.97782
3000.84629	1.94255
2998.91772	1.90765
2996.98916	1.87360
2995.06060	1.84003
2993.13203	1.80690
2991.20347	1.77460
2989.27490	1.74270
2987.34634	1.71101
2985.41777	1.67984
2983.48921	1.64923
2981.56064	1.61893
2979.63208	1.58902
2977.70352	1.55981
2975.77495	1.53125
2973.84639	1.50322
2971.91782	1.47560
2969.98926	1.44831
2968.06069	1.42129
2966.13213	1.39439
2964.20356	1.36787
2962.27500	1.34227
2960.34644	1.31730
2958.41787	1.29249
2956.48931	1.26831
2954.56074	1.24497
2952.63218	1.22197
2950.70361	1.19913
2948.77505	1.17678
2946.84648	1.15480
2944.91792	1.13286
2942.98936	1.11116
2941.06079	1.09008
2939.13223	1.06956
2937.20366	1.04936
2935.27510	1.02949
2933.34653	1.00999
2931.41797	0.99088
2929.48940	0.97204
2927.56084	0.95338
2925.63228	0.93533
2923.70371	0.91807
2921.77515	0.90080
2919.84658	0.88331
2917.91802	0.86650
2915.98945	0.85094
2914.06089	0.83638
2912.13232	0.82218
2910.20376	0.80792
2908.27520	0.79388
2906.34663	0.78054
2904.41807	0.76767
2902.48950	0.75474
2900.56094	0.74186
2898.63237	0.72934
2896.70381	0.71707
2894.77524	0.70506
2892.84668	0.69340
2890.91812	0.68203
2888.98955	0.67080
2887.06099	0.65961
2885.13242	0.64841
2883.20386	0.63725
2881.27529	0.62626
2879.34673	0.61546
2877.41816	0.60492
2875.48960	0.59459
2873.56104	0.58413
2871.63247	0.57358
2869.70391	0.56330
2867.77534	0.55325
2865.84678	0.54321
2863.91821	0.53327
2861.98965	0.52337
2860.06108	0.51351
2858.13252	0.50411
2856.20396	0.49518
2854.27539	0.48623
2852.34683	0.47737
2850.41826	0.46884
2848.48970	0.46051
2846.56113	0.45276
2844.63257	0.44603
2842.70400	0.43992
2840.77544	0.43400
2838.84687	0.42838
2836.91831	0.42294
2834.98975	0.41736
2833.06118	0.41156
2831.13262	0.40566
2829.20405	0.39983
2827.27549	0.39419
2825.34692	0.38860
2823.41836	0.38290
2821.48979	0.37700
2819.56123	0.37102
2817.63267	0.36520
2815.70410	0.35958
2813.77554	0.35408
2811.84697	0.34869
2809.91841	0.34348
2807.98984	0.33843
2806.06128	0.33337
2804.13271	0.32825
2802.20415	0.32321
2800.27559	0.31838
2798.34702	0.31377
2796.41846	0.30920
2794.48989	0.30461
2792.56133	0.30011
2790.63276	0.29574
2788.70420	0.29147
2786.77563	0.28733
2784.84707	0.28329
2782.91851	0.27932
2780.98994	0.27548
2779.06138	0.27172
2777.13281	0.26794
2775.20425	0.26412
2773.27568	0.26033
2771.34712	0.25680
2769.41855	0.25363
2767.48999	0.25041
2765.56143	0.24697
2763.63286	0.24362
2761.70430	0.24043
2759.77573	0.23729
2757.84717	0.23426
2755.91860	0.23135
2753.99004	0.22851
2752.06147	0.22564
2750.13291	0.22276
2748.20435	0.22002
2746.27578	0.21748
2744.34722	0.21507
2742.41865	0.21260
2740.49009	0.20995
2738.56152	0.20728
2736.63296	0.20487
2734.70439	0.20271
2732.77583	0.20059
2730.84727	0.19838
2728.91870	0.19605
2726.99014	0.19376
2725.06157	0.19172
2723.13301	0.18980
2721.20444	0.18784
2719.27588	0.18591
2717.34731	0.18412
2715.41875	0.18241
2713.49019	0.18069
2711.56162	0.17895
2709.63306	0.17726
2707.70449	0.17559
2705.77593	0.17395
2703.84736	0.17239
2701.91880	0.17086
2699.99023	0.16936
2698.06167	0.16791
2696.13311	0.16648
2694.20454	0.16509
2692.27598	0.16370
2690.34741	0.16232
2688.41885	0.16104
2686.49028	0.15986
2684.56172	0.15862
2682.63315	0.15738
2680.70459	0.15626
2678.77603	0.15514
2676.84746	0.15402
2674.91890	0.15302
2672.99033	0.15205
2671.06177	0.15109
2669.13320	0.15014
2667.20464	0.14923
2665.27607	0.14834
2663.34751	0.14745
2661.41895	0.14657
2659.49038	0.14568
2657.56182	0.14479
2655.63325	0.14400
2653.70469	0.14337
2651.77612	0.14293
2649.84756	0.14250
2647.91899	0.14190
2645.99043	0.14121
2644.06187	0.14055
2642.13330	0.14001
2640.20474	0.13962
2638.27617	0.13925
2636.34761	0.13876
2634.41904	0.13827
2632.49048	0.13793
2630.56191	0.13765
2628.63335	0.13738
2626.70479	0.13713
2624.77622	0.13688
2622.84766	0.13662
2620.91909	0.13633
2618.99053	0.13606
2617.06196	0.13590
2615.13340	0.13588
2613.20483	0.13583
2611.27627	0.13569
2609.34771	0.13560
2607.41914	0.13565
2605.49058	0.13574
2603.56201	0.13571
2601.63345	0.13560
2599.70488	0.13566
2597.77632	0.13595
2595.84775	0.13617
2593.91919	0.13607
2591.99062	0.13592
2590.06206	0.13605
2588.13350	0.13643
2586.20493	0.13683
2584.27637	0.13721
2582.34780	0.13755
2580.41924	0.13784
2578.49067	0.13817
2576.56211	0.13856
2574.63354	0.13896
2572.70498	0.13939
2570.77642	0.13985
2568.84785	0.14023
2566.91929	0.14060
2564.99072	0.14105
2563.06216	0.14147
2561.13359	0.14191
2559.20503	0.14248
2557.27646	0.14306
2555.34790	0.14362
2553.41934	0.14426
2551.49077	0.14493
2549.56221	0.14560
2547.63364	0.14634
2545.70508	0.14710
2543.77651	0.14770
2541.84795	0.14825
2539.91938	0.14891
2537.99082	0.14957
2536.06226	0.15022
2534.13369	0.15095
2532.20513	0.15167
2530.27656	0.15233
2528.34800	0.15300
2526.41943	0.15370
2524.49087	0.15456
2522.56230	0.15558
2520.63374	0.15653
2518.70518	0.15738
2516.77661	0.15826
2514.84805	0.15906
2512.91948	0.15975
2510.99092	0.16053
2509.06235	0.16150
2507.13379	0.16245
2505.20522	0.16331
2503.27666	0.16418
2501.34810	0.16501
2499.41953	0.16578
2497.49097	0.16668
2495.56240	0.16767
2493.63384	0.16859
2491.70527	0.16948
2489.77671	0.17038
2487.84814	0.17134
2485.91958	0.17234
2483.99102	0.17322
2482.06245	0.17403
2480.13389	0.17502
2478.20532	0.17615
2476.27676	0.17720
2474.34819	0.17806
2472.41963	0.17888
2470.49106	0.17981
2468.56250	0.18087
2466.63394	0.18184
2464.70537	0.18271
2462.77681	0.18369
2460.84824	0.18483
2458.91968	0.18594
2456.99111	0.18692
2455.06255	0.18790
2453.13398	0.18896
2451.20542	0.19005
2449.27686	0.19106
2447.34829	0.19202
2445.41973	0.19301
2443.49116	0.19401
2441.56260	0.19502
2439.63403	0.19609
2437.70547	0.19713
2435.77690	0.19810
2433.84834	0.19910
2431.91978	0.20023
2429.99121	0.20141
2428.06265	0.20257
2426.13408	0.20369
2424.20552	0.20479
2422.27695	0.20593
2420.34839	0.20714
2418.41982	0.20837
2416.49126	0.20947
2414.56270	0.21055
2412.63413	0.21182
2410.70557	0.21319
2408.77700	0.21447
2406.84844	0.21560
2404.91987	0.21666
2402.99131	0.21783
2401.06274	0.21910
2399.13418	0.22033
2397.20562	0.22159
2395.27705	0.22295
2393.34849	0.22424
2391.41992	0.22547
2389.49136	0.22678
2387.56279	0.22817
2385.63423	0.22961
2383.70566	0.23110
2381.77710	0.23263
2379.84854	0.23430
2377.91997	0.23622
2375.99141	0.23843
2374.06284	0.24086
2372.13428	0.24304
2370.20571	0.24475
2368.27715	0.24653
2366.34858	0.24859
2364.42002	0.25084
2362.49146	0.25333
2360.56289	0.25533
2358.63433	0.25659
2356.70576	0.25792
2354.77720	0.25942
2352.84863	0.26081
2350.92007	0.26144
2348.99150	0.26153
2347.06294	0.26222
2345.13437	0.26446
2343.20581	0.26777
2341.27725	0.27002
2339.34868	0.27128
2337.42012	0.27284
2335.49155	0.27468
2333.56299	0.27638
2331.63442	0.27813
2329.70586	0.27979
2327.77729	0.28097
2325.84873	0.28183
2323.92017	0.28298
2321.99160	0.28471
2320.06304	0.28659
2318.13447	0.28803
2316.20591	0.28913
2314.27734	0.29039
2312.34878	0.29202
2310.42021	0.29386
2308.49165	0.29559
2306.56309	0.29719
2304.63452	0.29887
2302.70596	0.30054
2300.77739	0.30213
2298.84883	0.30379
2296.92026	0.30560
2294.99170	0.30756
2293.06313	0.30954
2291.13457	0.31143
2289.20601	0.31324
2287.27744	0.31501
2285.34888	0.31688
2283.42031	0.31894
2281.49175	0.32104
2279.56318	0.32302
2277.63462	0.32499
2275.70605	0.32714
2273.77749	0.32934
2271.84893	0.33138
2269.92036	0.33345
2267.99180	0.33567
2266.06323	0.33791
2264.13467	0.34015
2262.20610	0.34239
2260.27754	0.34460
2258.34897	0.34677
2256.42041	0.34893
2254.49185	0.35114
2252.56328	0.35338
2250.63472	0.35564
2248.70615	0.35785
2246.77759	0.36004
2244.84902	0.36230
2242.92046	0.36457
2240.99189	0.36678
2239.06333	0.36901
2237.13477	0.37133
2235.20620	0.37361
2233.27764	0.37577
2231.34907	0.37794
2229.42051	0.38017
2227.49194	0.38241
2225.56338	0.38470
2223.63481	0.38710
2221.70625	0.38951
2219.77769	0.39179
2217.84912	0.39398
2215.92056	0.39616
2213.99199	0.39840
2212.06343	0.40067
2210.13486	0.40290
2208.20630	0.40508
2206.27773	0.40723
2204.34917	0.40940
2202.42061	0.41157
2200.49204	0.41366
2198.56348	0.41565
2196.63491	0.41760
2194.70635	0.41956
2192.77778	0.42156
2190.84922	0.42350
2188.92065	0.42541
2186.99209	0.42739
2185.06353	0.42931
2183.13496	0.43097
2181.20640	0.43256
2179.27783	0.43426
2177.34927	0.43599
2175.42070	0.43768
2173.49214	0.43925
2171.56357	0.44069
2169.63501	0.44217
2167.70645	0.44363
2165.77788	0.44494
2163.84932	0.44617
2161.92075	0.44738
2159.99219	0.44856
2158.06362	0.44966
2156.13506	0.45066
2154.20649	0.45155
2152.27793	0.45239
2150.34937	0.45319
2148.42080	0.45389
2146.49224	0.45453
2144.56367	0.45514
2142.63511	0.45563
2140.70654	0.45593
2138.77798	0.45610
2136.84941	0.45617
2134.92085	0.45625
2132.99229	0.45636
2131.06372	0.45639
2129.13516	0.45628
2127.20659	0.45609
2125.27803	0.45582
2123.34946	0.45550
2121.42090	0.45515
2119.49233	0.45472
2117.56377	0.45420
2115.63521	0.45352
2113.70664	0.45268
2111.77808	0.45173
2109.84951	0.45076
2107.92095	0.44975
2105.99238	0.44858
2104.06382	0.44728
2102.13525	0.44599
2100.20669	0.44474
2098.27812	0.44349
2096.34956	0.44211
2094.42100	0.44050
2092.49243	0.43884
2090.56387	0.43730
2088.63530	0.43572
2086.70674	0.43395
2084.77817	0.43207
2082.84961	0.43013
2080.92104	0.42815
2078.99248	0.42620
2077.06392	0.42415
2075.13535	0.42191
2073.20679	0.41966
2071.27822	0.41746
2069.34966	0.41522
2067.42109	0.41295
2065.49253	0.41064
2063.56396	0.40830
2061.63540	0.40596
2059.70684	0.40358
2057.77827	0.40112
2055.84971	0.39857
2053.92114	0.39590
2051.99258	0.39324
2050.06401	0.39067
2048.13545	0.38807
2046.20688	0.38539
2044.27832	0.38268
2042.34976	0.37998
2040.42119	0.37726
2038.49263	0.37458
2036.56406	0.37183
2034.63550	0.36893
2032.70693	0.36604
2030.77837	0.36328
2028.84980	0.36053
2026.92124	0.35778
2024.99268	0.35506
2023.06411	0.35233
2021.13555	0.34953
2019.20698	0.34676
2017.27842	0.34408
2015.34985	0.34137
2013.42129	0.33856
2011.49272	0.33575
2009.56416	0.33298
2007.63560	0.33019
2005.70703	0.32739
2003.77847	0.32460
2001.84990	0.32188
1999.92134	0.31926
1997.99277	0.31663
1996.06421	0.31401
1994.13564	0.31157
1992.20708	0.30921
1990.27852	0.30664
1988.34995	0.30399
1986.42139	0.30142
1984.49282	0.29888
1982.56426	0.29641
1980.63569	0.29405
1978.70713	0.29175
1976.77856	0.28947
1974.85000	0.28725
1972.92144	0.28507
1970.99287	0.28293
1969.06431	0.28096
1967.13574	0.27904
1965.20718	0.27689
1963.27861	0.27468
1961.35005	0.27265
1959.42148	0.27076
1957.49292	0.26893
1955.56436	0.26713
1953.63579	0.26535
1951.70723	0.26351
1949.77866	0.26171
1947.85010	0.26007
1945.92153	0.25865
1943.99297	0.25745
1942.06440	0.25620
1940.13584	0.25457
1938.20728	0.25284
1936.27871	0.25135
1934.35015	0.25002
1932.42158	0.24880
1930.49302	0.24758
1928.56445	0.24642
1926.63589	0.24544
1924.70732	0.24466
1922.77876	0.24379
1920.85020	0.24270
1918.92163	0.24175
1916.99307	0.24086
1915.06450	0.23977
1913.13594	0.23877
1911.20737	0.23816
1909.27881	0.23769
1907.35024	0.23705
1905.42168	0.23622
1903.49312	0.23544
1901.56455	0.23482
1899.63599	0.23430
1897.70742	0.23392
1895.77886	0.23368
1893.85029	0.23338
1891.92173	0.23297
1889.99316	0.23276
1888.06460	0.23249
1886.13604	0.23206
1884.20747	0.23175
1882.27891	0.23157
1880.35034	0.23140
1878.42178	0.23126
1876.49321	0.23122
1874.56465	0.23125
1872.63608	0.23142
1870.70752	0.23199
1868.77896	0.23299
1866.85039	0.23338
1864.92183	0.23290
1862.99326	0.23257
1861.06470	0.23276
1859.13613	0.23322
1857.20757	0.23364
1855.27900	0.23405
1853.35044	0.23451
1851.42187	0.23509
1849.49331	0.23579
1847.56475	0.23666
1845.63618	0.23777
1843.70762	0.23895
1841.77905	0.23955
1839.85049	0.23976
1837.92192	0.24047
1835.99336	0.24144
1834.06479	0.24231
1832.13623	0.24337
1830.20767	0.24517
1828.27910	0.24703
1826.35054	0.24812
1824.42197	0.24918
1822.49341	0.25014
1820.56484	0.25117
1818.63628	0.25260
1816.70771	0.25434
1814.77915	0.25599
1812.85059	0.25780
1810.92202	0.26004
1808.99346	0.26221
1807.06489	0.26409
1805.13633	0.26593
1803.20776	0.26825
1801.27920	0.27107
1799.35063	0.27411
1797.42207	0.27667
1795.49351	0.27912
1793.56494	0.28218
1791.63638	0.28602
1789.70781	0.28919
1787.77925	0.29139
1785.85068	0.29440
1783.92212	0.29833
1781.99355	0.30263
1780.06499	0.30707
1778.13643	0.31147
1776.20786	0.31560
1774.27930	0.32022
1772.35073	0.32653
1770.42217	0.33295
1768.49360	0.33797
1766.56504	0.34283
1764.63647	0.34810
1762.70791	0.35417
1760.77935	0.36182
1758.85078	0.36901
1756.92222	0.37621
1754.99365	0.38397
1753.06509	0.39113
1751.13652	0.39984
1749.20796	0.41068
1747.27939	0.42106
1745.35083	0.43010
1743.42227	0.43963
1741.49370	0.45026
1739.56514	0.46286
1737.63657	0.47543
1735.70801	0.48664
1733.77944	0.50335
1731.85088	0.52273
1729.92231	0.53808
1727.99375	0.55387
1726.06519	0.57106
1724.13662	0.58994
1722.20806	0.61032
1720.27949	0.62954
1718.35093	0.65234
1716.42236	0.68474
1714.49380	0.71492
1712.56523	0.73959
1710.63667	0.76376
1708.70811	0.78986
1706.77954	0.81955
1704.85098	0.85439
1702.92241	0.88543
1700.99385	0.91653
1699.06528	0.96185
1697.13672	1.00285
1695.20815	1.04439
1693.27959	1.08529
1691.35103	1.11856
1689.42246	1.15642
1687.49390	1.19569
1685.56533	1.23359
1683.63677	1.29085
1681.70820	1.35006
1679.77964	1.38896
1677.85107	1.42608
1675.92251	1.46864
1673.99395	1.52058
1672.06538	1.56676
1670.13682	1.61113
1668.20825	1.66661
1666.27969	1.71184
1664.35112	1.75054
1662.42256	1.79727
1660.49399	1.84789
1658.56543	1.88730
1656.63687	1.92053
1654.70830	1.95338
1652.77974	2.00607
1650.85117	2.05697
1648.92261	2.07815
1646.99404	2.10701
1645.06548	2.14326
1643.13691	2.16840
1641.20835	2.18284
1639.27979	2.19533
1637.35122	2.20482
1635.42266	2.20820
1633.49409	2.20395
1631.56553	2.19398
1629.63696	2.18088
1627.70840	2.15806
1625.77983	2.13158
1623.85127	2.09711
1621.92271	2.05260
1619.99414	2.01148
1618.06558	1.97051
1616.13701	1.91200
1614.20845	1.85212
1612.27988	1.80654
1610.35132	1.75904
1608.42275	1.70709
1606.49419	1.65502
1604.56562	1.60643
1602.63706	1.55958
1600.70850	1.51366
1598.77993	1.47075
1596.85137	1.43015
1594.92280	1.39103
1592.99424	1.35330
1591.06567	1.31808
1589.13711	1.28408
1587.20854	1.25162
1585.27998	1.22111
1583.35142	1.19228
1581.42285	1.16570
1579.49429	1.14254
1577.56572	1.12108
1575.63716	1.09440
1573.70859	1.07007
1571.78003	1.05362
1569.85146	1.03619
1567.92290	1.01605
1565.99434	0.99940
1564.06577	0.98500
1562.13721	0.97301
1560.20864	0.96335
1558.28008	0.94719
1556.35151	0.93032
1554.42295	0.91914
1552.49438	0.90864
1550.56582	0.89818
1548.63726	0.88724
1546.70869	0.87745
1544.78013	0.86891
1542.85156	0.86038
1540.92300	0.85037
1538.99443	0.83583
1537.06587	0.82377
1535.13730	0.81562
1533.20874	0.80644
1531.28018	0.79673
1529.35161	0.78941
1527.42305	0.78268
1525.49448	0.77564
1523.56592	0.76929
1521.63735	0.76280
1519.70879	0.75567
1517.78022	0.74964
1515.85166	0.74331
1513.92310	0.73689
1511.99453	0.73187
1510.06597	0.72800
1508.13740	0.72475
1506.20884	0.71876
1504.28027	0.71149
1502.35171	0.70705
1500.42314	0.70390
1498.49458	0.70087
1496.56602	0.69717
1494.63745	0.69325
1492.70889	0.69020
1490.78032	0.68804
1488.85176	0.68566
1486.92319	0.68253
1484.99463	0.67951
1483.06606	0.67720
1481.13750	0.67541
1479.20894	0.67384
1477.28037	0.67250
1475.35181	0.67124
1473.42324	0.66973
1471.49468	0.66715
1469.56611	0.66391
1467.63755	0.66122
1465.70898	0.65913
1463.78042	0.65720
1461.85186	0.65556
1459.92329	0.65455
1457.99473	0.65351
1456.06616	0.65069
1454.13760	0.64705
1452.20903	0.64415
1450.28047	0.64168
1448.35190	0.63942
1446.42334	0.63701
1444.49478	0.63468
1442.56621	0.63280
1440.63765	0.63126
1438.70908	0.63003
1436.78052	0.62888
1434.85195	0.62731
1432.92339	0.62566
1430.99482	0.62441
1429.06626	0.62317
1427.13770	0.62170
1425.20913	0.62053
1423.28057	0.61964
1421.35200	0.61866
1419.42344	0.61770
1417.49487	0.61630
1415.56631	0.61404
1413.63774	0.61181
1411.70918	0.60997
1409.78062	0.60829
1407.85205	0.60675
1405.92349	0.60556
1403.99492	0.60433
1402.06636	0.60278
1400.13779	0.60129
1398.20923	0.59987
1396.28066	0.59836
1394.35210	0.59656
1392.42354	0.59455
1390.49497	0.59287
1388.56641	0.59156
1386.63784	0.59014
1384.70928	0.58853
1382.78071	0.58711
1380.85215	0.58590
1378.92358	0.58483
1376.99502	0.58408
1375.06646	0.58377
1373.13789	0.58341
1371.20933	0.58259
1369.28076	0.58161
1367.35220	0.58073
1365.42363	0.58001
1363.49507	0.57935
1361.56650	0.57837
1359.63794	0.57702
1357.70937	0.57584
1355.78081	0.57492
1353.85225	0.57387
1351.92368	0.57254
1349.99512	0.57126
1348.06655	0.57017
1346.13799	0.56912
1344.20942	0.56812
1342.28086	0.56727
1340.35229	0.56652
1338.42373	0.56559
1336.49517	0.56435
1334.56660	0.56313
1332.63804	0.56216
1330.70947	0.56136
1328.78091	0.56061
1326.85234	0.55986
1324.92378	0.55913
1322.99521	0.55860
1321.06665	0.55831
1319.13809	0.55795
1317.20952	0.55721
1315.28096	0.55634
1313.35239	0.55554
1311.42383	0.55463
1309.49526	0.55351
1307.56670	0.55228
1305.63813	0.55112
1303.70957	0.55005
1301.78101	0.54894
1299.85244	0.54783
1297.92388	0.54686
1295.99531	0.54603
1294.06675	0.54529
1292.13818	0.54451
1290.20962	0.54362
1288.28105	0.54283
1286.35249	0.54221
1284.42393	0.54163
1282.49536	0.54101
1280.56680	0.54039
1278.63823	0.53966
1276.70967	0.53899
1274.78110	0.53852
1272.85254	0.53801
1270.92397	0.53738
1268.99541	0.53694
1267.06685	0.53674
1265.13828	0.53642
1263.20972	0.53605
1261.28115	0.53574
1259.35259	0.53539
1257.42402	0.53504
1255.49546	0.53479
1253.56689	0.53460
1251.63833	0.53428
1249.70977	0.53385
1247.78120	0.53349
1245.85264	0.53314
1243.92407	0.53265
1241.99551	0.53217
1240.06694	0.53176
1238.13838	0.53118
1236.20981	0.53043
1234.28125	0.52973
1232.35269	0.52907
1230.42412	0.52829
1228.49556	0.52741
1226.56699	0.52654
1224.63843	0.52566
1222.70986	0.52472
1220.78130	0.52385
1218.85273	0.52309
1216.92417	0.52232
1214.99561	0.52154
1213.06704	0.52082
1211.13848	0.52022
1209.20991	0.51974
1207.28135	0.51934
1205.35278	0.51901
1203.42422	0.51858
1201.49565	0.51794
1199.56709	0.51721
1197.63853	0.51648
1195.70996	0.51575
1193.78140	0.51509
1191.85283	0.51452
1189.92427	0.51394
1187.99570	0.51341
1186.06714	0.51303
1184.13857	0.51291
1182.21001	0.51315
1180.28145	0.51357
1178.35288	0.51402
1176.42432	0.51458
1174.49575	0.51530
1172.56719	0.51616
1170.63862	0.51715
1168.71006	0.51827
1166.78149	0.51947
1164.85293	0.52056
1162.92437	0.52146
1160.99580	0.52221
1159.06724	0.52262
1157.13867	0.52256
1155.21011	0.52209
1153.28154	0.52116
1151.35298	0.51959
1149.42441	0.51752
1147.49585	0.51522
1145.56729	0.51268
1143.63872	0.50975
1141.71016	0.50674
1139.78159	0.50425
1137.85303	0.50239
1135.92446	0.50098
1133.99590	0.49990
1132.06733	0.49909
1130.13877	0.49856
1128.21021	0.49820
1126.28164	0.49772
1124.35308	0.49714
1122.42451	0.49671
1120.49595	0.49654
1118.56738	0.49669
1116.63882	0.49715
1114.71025	0.49775
1112.78169	0.49847
1110.85312	0.49928
1108.92456	0.50010
1106.99600	0.50102
1105.06743	0.50205
1103.13887	0.50301
1101.21030	0.50393
1099.28174	0.50506
1097.35317	0.50668
1095.42461	0.50917
1093.49604	0.51278
1091.56748	0.51770
1089.63892	0.52422
1087.71035	0.53216
1085.78179	0.54104
1083.85322	0.55018
1081.92466	0.55837
1079.99609	0.56431
1078.06753	0.56738
1076.13896	0.56744
1074.21040	0.56431
1072.28184	0.55849
1070.35327	0.55146
1068.42471	0.54427
1066.49614	0.53747
1064.56758	0.53154
1062.63901	0.52640
1060.71045	0.52181
1058.78188	0.51784
1056.85332	0.51444
1054.92476	0.51131
1052.99619	0.50855
1051.06763	0.50644
1049.13906	0.50523
1047.21050	0.50501
1045.28193	0.50547
1043.35337	0.50613
1041.42480	0.50671
1039.49624	0.50720
1037.56768	0.50766
1035.63911	0.50798
1033.71055	0.50780
1031.78198	0.50695
1029.85342	0.50558
1027.92485	0.50406
1025.99629	0.50262
1024.06772	0.50126
1022.13916	0.50029
1020.21060	0.49974
1018.28203	0.49931
1016.35347	0.49899
1014.42490	0.49877
1012.49634	0.49856
1010.56777	0.49846
1008.63921	0.49844
1006.71064	0.49864
1004.78208	0.49950
1002.85352	0.50110
1000.92495	0.50340
998.99639	0.50660
997.06782	0.51061
995.13926	0.51493
993.21069	0.51890
991.28213	0.52199
989.35356	0.52387
987.42500	0.52446
985.49644	0.52429
983.56787	0.52419
981.63931	0.52448
979.71074	0.52512
977.78218	0.52628
975.85361	0.52826
973.92505	0.53097
971.99648	0.53414
970.06792	0.53759
968.13936	0.54119
966.21079	0.54512
964.28223	0.54963
962.35366	0.55452
960.42510	0.55940
958.49653	0.56448
956.56797	0.57019
954.63940	0.57638
952.71084	0.58274
950.78228	0.58912
948.85371	0.59531
946.92515	0.60150
944.99658	0.60805
943.06802	0.61475
941.13945	0.62109
939.21089	0.62673
937.28232	0.63186
935.35376	0.63708
933.42520	0.64259
931.49663	0.64833
929.56807	0.65434
927.63950	0.66036
925.71094	0.66623
923.78237	0.67252
921.85381	0.67941
919.92524	0.68636
917.99668	0.69352
916.06812	0.70137
914.13955	0.70927
912.21099	0.71646
910.28242	0.72338
908.35386	0.73090
906.42529	0.73961
904.49673	0.74917
902.56816	0.75881
900.63960	0.76841
898.71104	0.77806
896.78247	0.78714
894.85391	0.79560
892.92534	0.80514
890.99678	0.81619
889.06821	0.82753
887.13965	0.83843
885.21108	0.84902
883.28252	0.86011
881.35396	0.87192
879.42539	0.88420
877.49683	0.89666
875.56826	0.90847
873.63970	0.91890
871.71113	0.92886
869.78257	0.93959
867.85400	0.95080
865.92544	0.96282
863.99687	0.97646
862.06831	0.99031
860.13975	1.00183
858.21118	1.01102
856.28262	1.02013
854.35405	1.03080
852.42549	1.04377
850.49692	1.05832
848.56836	1.07239
846.63979	1.08490
844.71123	1.09543
842.78267	1.10422
840.85410	1.11447
838.92554	1.12758
836.99697	1.14117
835.06841	1.15345
833.13984	1.16265
831.21128	1.16895
829.28271	1.17826
827.35415	1.19297
825.42559	1.20358
823.49702	1.20746
821.56846	1.21628
819.63989	1.23345
817.71133	1.24829
815.78276	1.25673
813.85420	1.26382
811.92563	1.26622
809.99707	1.27089
808.06851	1.28998
806.13994	1.30493
804.21138	1.30529
802.28281	1.32101
800.35425	1.35656
798.42568	1.37122
796.49712	1.36335
794.56855	1.37844
792.63999	1.39707
790.71143	1.36838
788.78286	1.33604
786.85430	1.33793
784.92573	1.35644
782.99717	1.36248
781.06860	1.34881
779.14004	1.35498
777.21147	1.38435
775.28291	1.35395
773.35435	1.27152
771.42578	1.22409
769.49722	1.22827
767.56865	1.27641
765.64009	1.33015
763.71152	1.30830
761.78296	1.27497
759.85439	1.33297
757.92583	1.40743
755.99727	1.36490
754.06870	1.29968
752.14014	1.23327
750.21157	1.09653
748.28301	0.97089
746.35444	0.96119
744.42588	1.04321
742.49731	1.05989
740.56875	1.00300
738.64019	1.00386
736.71162	1.05801
734.78306	0.99320
732.85449	0.83059
730.92593	0.74647
728.99736	0.74249
727.06880	0.72912
725.14023	0.57936
723.21167	0.39634
721.28311	0.29359
719.35454	0.24867
717.42598	0.22535
715.49741	0.17597
713.56885	0.11047
711.64028	0.05918
709.71172	0.04850
707.78315	0.11724
705.85459	0.18341
703.92603	0.20057
701.99746	0.16952
700.06890	0.14410
698.14033	0.15148
696.21177	0.25116
694.28320	0.37584
692.35464	0.33086
690.42607	0.27132
688.49751	0.23114
686.56895	0.21587
684.64038	0.37940
682.71182	4.09627
680.78325	4.08470
678.85469	0.84151
676.92612	0.44215
674.99756	0.27197
673.06899	0.24403
671.14043	0.31841
669.21187	0.37195
667.28330	0.35942
665.35474	0.30344
663.42617	0.21454
661.49761	0.17422
659.56904	0.20102
657.64048	0.24009
655.71191	0.25529
653.78335	0.25587
651.85479	0.26419
649.92622	0.27001
647.99766	0.24365
646.06909	0.21195
644.14053	0.25091
642.21196	0.31092
640.28340	0.25224
638.35483	0.17105
636.42627	0.15253
634.49771	0.16806
632.56914	0.17354
630.64058	0.22527
628.71201	0.29041
626.78345	0.25300
624.85488	0.19794
622.92632	0.16963
620.99775	0.21418
619.06919	0.36120
617.14062	0.46146
615.21206	0.41411
613.28350	0.36716
611.35493	0.37262
609.42637	0.32197
607.49780	0.24857
605.56924	0.28234
603.64067	0.39397
601.71211	0.34787
599.78354	0.23606
597.85498	0.15173
595.92642	0.10822
593.99785	0.11634
592.06929	0.17003
590.14072	0.20950
588.21216	0.25879
586.28359	0.46722
584.35503	0.62735
582.42646	0.42875
580.49790	0.30290
578.56934	0.25782
576.64077	0.24146
574.71221	0.26870
572.78364	0.35711
570.85508	0.39112
568.92651	0.30083
566.99795	0.22387
565.06938	0.22887
563.14082	0.24355
561.21226	0.22675
559.28369	0.19780
557.35513	0.16970
555.42656	0.19725
553.49800	0.24847
551.56943	0.20516
549.64087	0.14474
547.71230	0.16040
545.78374	0.21610
543.85518	0.21476
541.92661	0.18383
539.99805	0.18362
538.06948	0.21294
536.14092	0.24840
534.21235	0.27314
532.28379	0.30063
530.35522	0.29010
528.42666	0.25055
526.49810	0.23436
524.56953	0.17897
522.64097	0.11669
520.71240	0.12961
518.78384	0.18629
516.85527	0.22547
514.92671	0.20437
512.99814	0.17343
511.06958	0.18876
509.14102	0.22627
507.21245	0.20794
505.28389	0.15368
503.35532	0.14659
501.42676	0.17173
499.49819	0.17085
