3997.91411	0.06300
3995.98555	0.06367
3994.05698	0.06424
3992.12842	0.06478
3990.19985	0.06503
3988.27129	0.06489
3986.34272	0.06493
3984.41416	0.06550
3982.48560	0.06608
3980.55703	0.06623
3978.62847	0.06611
3976.69990	0.06623
3974.77134	0.06700
3972.84277	0.06776
3970.91421	0.06796
3968.98564	0.06796
3967.05708	0.06774
3965.12852	0.06753
3963.19995	0.06818
3961.27139	0.06939
3959.34282	0.06977
3957.41426	0.06905
3955.48569	0.06848
3953.55713	0.06888
3951.62856	0.06999
3949.70000	0.07120
3947.77144	0.07157
3945.84287	0.07088
3943.91431	0.07068
3941.98574	0.07112
3940.05718	0.07060
3938.12861	0.06968
3936.20005	0.06960
3934.27148	0.07022
3932.34292	0.07131
3930.41436	0.07205
3928.48579	0.07142
3926.55723	0.07045
3924.62866	0.07050
3922.70010	0.07065
3920.77153	0.07029
3918.84297	0.07053
3916.91440	0.07121
3914.98584	0.07076
3913.05728	0.06943
3911.12871	0.06846
3909.20015	0.06839
3907.27158	0.06976
3905.34302	0.07249
3903.41445	0.07507
3901.48589	0.07586
3899.55732	0.07509
3897.62876	0.07335
3895.70020	0.07141
3893.77163	0.07110
3891.84307	0.07279
3889.91450	0.07355
3887.98594	0.07218
3886.05737	0.07176
3884.12881	0.07285
3882.20024	0.07377
3880.27168	0.07406
3878.34312	0.07306
3876.41455	0.07206
3874.48599	0.07344
3872.55742	0.07612
3870.62886	0.07773
3868.70029	0.07773
3866.77173	0.07673
3864.84316	0.07674
3862.91460	0.07753
3860.98604	0.07692
3859.05747	0.07584
3857.12891	0.07640
3855.20034	0.07929
3853.27178	0.08392
3851.34321	0.08510
3849.41465	0.08109
3847.48608	0.07757
3845.55752	0.07670
3843.62896	0.07837
3841.70039	0.08122
3839.77183	0.08462
3837.84326	0.08772
3835.91470	0.08779
3833.98613	0.08575
3832.05757	0.08433
3830.12900	0.08377
3828.20044	0.08399
3826.27187	0.08501
3824.34331	0.08627
3822.41475	0.08850
3820.48618	0.09245
3818.55762	0.09441
3816.62905	0.09371
3814.70049	0.09258
3812.77192	0.09079
3810.84336	0.08971
3808.91479	0.09087
3806.98623	0.09406
3805.05767	0.09694
3803.12910	0.09888
3801.20054	0.10153
3799.27197	0.10323
3797.34341	0.10328
3795.41484	0.10285
3793.48628	0.10160
3791.55771	0.10080
3789.62915	0.10141
3787.70059	0.10305
3785.77202	0.10549
3783.84346	0.10768
3781.91489	0.10876
3779.98633	0.11015
3778.05776	0.11236
3776.12920	0.11374
3774.20063	0.11446
3772.27207	0.11599
3770.34351	0.11912
3768.41494	0.12264
3766.48638	0.12468
3764.55781	0.12598
3762.62925	0.12740
3760.70068	0.13004
3758.77212	0.13431
3756.84355	0.13784
3754.91499	0.13995
3752.98643	0.14353
3751.05786	0.15003
3749.12930	0.15577
3747.20073	0.15725
3745.27217	0.15852
3743.34360	0.16156
3741.41504	0.16401
3739.48647	0.16613
3737.55791	0.17032
3735.62935	0.17776
3733.70078	0.18547
3731.77222	0.18869
3729.84365	0.18992
3727.91509	0.19292
3725.98652	0.19868
3724.05796	0.20567
3722.12939	0.21211
3720.20083	0.21815
3718.27227	0.22407
3716.34370	0.23049
3714.41514	0.23847
3712.48657	0.24993
3710.55801	0.26505
3708.62944	0.27787
3706.70088	0.28690
3704.77231	0.29707
3702.84375	0.31105
3700.91519	0.32865
3698.98662	0.34621
3697.05806	0.36295
3695.12949	0.38195
3693.20093	0.40321
3691.27236	0.42719
3689.34380	0.45687
3687.41523	0.49006
3685.48667	0.51853
3683.55811	0.54384
3681.62954	0.57182
3679.70098	0.60443
3677.77241	0.63985
3675.84385	0.68184
3673.91528	0.73511
3671.98672	0.77782
3670.05815	0.81674
3668.12959	0.86862
3666.20103	0.91534
3664.27246	0.95516
3662.34390	0.99864
3660.41533	1.04610
3658.48677	1.09315
3656.55820	1.14340
3654.62964	1.19955
3652.70107	1.24818
3650.77251	1.29275
3648.84395	1.35175
3646.91538	1.41740
3644.98682	1.46421
3643.05825	1.50207
3641.12969	1.54250
3639.20112	1.58724
3637.27256	1.63217
3635.34399	1.67597
3633.41543	1.71970
3631.48687	1.76082
3629.55830	1.80324
3627.62974	1.85733
3625.70117	1.90698
3623.77261	1.94199
3621.84404	1.97624
3619.91548	2.01520
3617.98691	2.06130
3616.05835	2.10536
3614.12979	2.14248
3612.20122	2.18143
3610.27266	2.22123
3608.34409	2.26179
3606.41553	2.30421
3604.48696	2.34330
3602.55840	2.37943
3600.62983	2.41894
3598.70127	2.46085
3596.77271	2.50187
3594.84414	2.54402
3592.91558	2.58678
3590.98701	2.62681
3589.05845	2.66496
3587.12988	2.70972
3585.20132	2.75723
3583.27275	2.79695
3581.34419	2.83429
3579.41562	2.87497
3577.48706	2.91770
3575.55850	2.96036
3573.62993	3.00379
3571.70137	3.04737
3569.77280	3.09114
3567.84424	3.13777
3565.91567	3.19114
3563.98711	3.24045
3562.05854	3.28110
3560.12998	3.32267
3558.20142	3.36670
3556.27285	3.41075
3554.34429	3.45456
3552.41572	3.50144
3550.48716	3.55024
3548.55859	3.59614
3546.63003	3.64041
3544.70146	3.68832
3542.77290	3.73720
3540.84434	3.78366
3538.91577	3.82993
3536.98721	3.87657
3535.05864	3.92560
3533.13008	3.97625
3531.20151	4.02604
3529.27295	4.07313
3527.34438	4.11970
3525.41582	4.16698
3523.48726	4.21424
3521.55869	4.26436
3519.63013	4.31379
3517.70156	4.36142
3515.77300	4.41072
3513.84443	4.45899
3511.91587	4.50572
3509.98730	4.55746
3508.05874	4.61191
3506.13018	4.65992
3504.20161	4.70280
3502.27305	4.75103
3500.34448	4.80436
3498.41592	4.85158
3496.48735	4.89784
3494.55879	4.95021
3492.63022	5.00143
3490.70166	5.04624
3488.77310	5.09199
3486.84453	5.14679
3484.91597	5.20145
3482.98740	5.24480
3481.05884	5.28420
3479.13027	5.33088
3477.20171	5.38583
3475.27314	5.44140
3473.34458	5.49102
3471.41602	5.53685
3469.48745	5.58214
3467.55889	5.62725
3465.63032	5.67547
3463.70176	5.73203
3461.77319	5.79093
3459.84463	5.84236
3457.91606	5.88707
3455.98750	5.93176
3454.05894	5.97579
3452.13037	6.01776
3450.20181	6.06716
3448.27324	6.13033
3446.34468	6.19894
3444.41611	6.25478
3442.48755	6.30182
3440.55898	6.34867
3438.63042	6.39117
3436.70186	6.43726
3434.77329	6.49627
3432.84473	6.54996
3430.91616	6.58665
3428.98760	6.63304
3427.05903	6.69318
3425.13047	6.74638
3423.20190	6.78261
3421.27334	6.81726
3419.34478	6.86169
3417.41621	6.91155
3415.48765	6.97701
3413.55908	7.05192
3411.63052	7.11377
3409.70195	7.16394
3407.77339	7.21714
3405.84482	7.24993
3403.91626	7.23957
3401.98770	7.21848
3400.05913	7.25761
3398.13057	7.35817
3396.20200	7.43239
3394.27344	7.45312
3392.34487	7.49988
3390.41631	7.62312
3388.48774	7.70543
3386.55918	7.69040
3384.63062	7.68100
3382.70205	7.70137
3380.77349	7.73623
3378.84492	7.80392
3376.91636	7.87205
3374.98779	7.85938
3373.05923	7.80081
3371.13066	7.80340
3369.20210	7.87882
3367.27354	7.91324
3365.34497	7.89231
3363.41641	7.91640
3361.48784	7.99170
3359.55928	8.05685
3357.63071	8.09174
3355.70215	8.11176
3353.77358	8.09722
3351.84502	8.08376
3349.91646	8.10623
3347.98789	8.14966
3346.05933	8.17663
3344.13076	8.20240
3342.20220	8.24076
3340.27363	8.23117
3338.34507	8.20939
3336.41650	8.22958
3334.48794	8.29352
3332.55937	8.32492
3330.63081	8.30546
3328.70225	8.31157
3326.77368	8.32647
3324.84512	8.30970
3322.91655	8.29706
3320.98799	8.32644
3319.05942	8.33306
3317.13086	8.28602
3315.20229	8.23797
3313.27373	8.24276
3311.34517	8.25250
3309.41660	8.19894
3307.48804	8.15726
3305.55947	8.19107
3303.63091	8.27467
3301.70234	8.33901
3299.77378	8.34320
3297.84521	8.32231
3295.91665	8.33656
3293.98809	8.37909
3292.05952	8.42812
3290.13096	8.44401
3288.20239	8.40536
3286.27383	8.35961
3284.34526	8.32327
3282.41670	8.32007
3280.48813	8.34689
3278.55957	8.37856
3276.63101	8.40679
3274.70244	8.48171
3272.77388	8.54402
3270.84531	8.44780
3268.91675	8.35788
3266.98818	8.40321
3265.05962	8.45330
3263.13105	8.43964
3261.20249	8.44320
3259.27393	8.44324
3257.34536	8.43494
3255.41680	8.44534
3253.48823	8.45392
3251.55967	8.47756
3249.63110	8.46606
3247.70254	8.36194
3245.77397	8.24149
3243.84541	8.23551
3241.91685	8.32111
3239.98828	8.32054
3238.05972	8.27273
3236.13115	8.34817
3234.20259	8.48273
3232.27402	8.52343
3230.34546	8.45615
3228.41689	8.34062
3226.48833	8.28350
3224.55977	8.29264
3222.63120	8.27307
3220.70264	8.20704
3218.77407	8.16382
3216.84551	8.14523
3214.91694	8.09694
3212.98838	8.03087
3211.05981	7.97363
3209.13125	7.95028
3207.20269	7.97314
3205.27412	8.00510
3203.34556	8.00879
3201.41699	7.97832
3199.48843	7.91957
3197.55986	7.85355
3195.63130	7.81438
3193.70273	7.79438
3191.77417	7.74347
3189.84561	7.66109
3187.91704	7.60540
3185.98848	7.58038
3184.05991	7.53922
3182.13135	7.48345
3180.20278	7.44286
3178.27422	7.42331
3176.34565	7.40628
3174.41709	7.34272
3172.48853	7.21900
3170.55996	7.10874
3168.63140	7.06614
3166.70283	7.05636
3164.77427	7.01493
3162.84570	6.92500
3160.91714	6.83796
3158.98857	6.79084
3157.06001	6.74311
3155.13145	6.66427
3153.20288	6.58679
3151.27432	6.53037
3149.34575	6.46532
3147.41719	6.37804
3145.48862	6.29091
3143.56006	6.21157
3141.63149	6.13956
3139.70293	6.07455
3137.77437	6.01291
3135.84580	5.95067
3133.91724	5.88384
3131.98867	5.81280
3130.06011	5.73939
3128.13154	5.66603
3126.20298	5.59429
3124.27441	5.52084
3122.34585	5.44649
3120.41729	5.37674
3118.48872	5.30440
3116.56016	5.22583
3114.63159	5.15101
3112.70303	5.08235
3110.77446	5.01494
3108.84590	4.94760
3106.91733	4.88209
3104.98877	4.81915
3103.06021	4.75674
3101.13164	4.68843
3099.20308	4.61409
3097.27451	4.54197
3095.34595	4.47518
3093.41738	4.41165
3091.48882	4.34829
3089.56025	4.28332
3087.63169	4.21881
3085.70312	4.15641
3083.77456	4.09496
3081.84600	4.03403
3079.91743	3.97366
3077.98887	3.91339
3076.06030	3.85365
3074.13174	3.79571
3072.20317	3.73873
3070.27461	3.68024
3068.34604	3.62179
3066.41748	3.56632
3064.48892	3.51208
3062.56035	3.45583
3060.63179	3.39878
3058.70322	3.34338
3056.77466	3.29010
3054.84609	3.23835
3052.91753	3.18584
3050.98896	3.13190
3049.06040	3.07925
3047.13184	3.02883
3045.20327	2.97895
3043.27471	2.92931
3041.34614	2.88088
3039.41758	2.83370
3037.48901	2.78652
3035.56045	2.73893
3033.63188	2.69237
3031.70332	2.64724
3029.77476	2.60218
3027.84619	2.55736
3025.91763	2.51406
3023.98906	2.47155
3022.06050	2.42848
3020.13193	2.38543
3018.20337	2.34381
3016.27480	2.30383
3014.34624	2.26432
3012.41768	2.22445
3010.48911	2.18500
3008.56055	2.14717
3006.63198	2.11058
3004.70342	2.07471
3002.77485	2.03924
3000.84629	2.00385
2998.91772	1.96938
2996.98916	1.93634
2995.06060	1.90422
2993.13203	1.87267
2991.20347	1.84164
2989.27490	1.81127
2987.34634	1.78168
2985.41777	1.75264
2983.48921	1.72402
2981.56064	1.69611
2979.63208	1.66890
2977.70352	1.64235
2975.77495	1.61660
2973.84639	1.59141
2971.91782	1.56638
2969.98926	1.54130
2968.06069	1.51637
2966.13213	1.49182
2964.20356	1.46746
2962.27500	1.44292
2960.34644	1.41847
2958.41787	1.39460
2956.48931	1.37093
2954.56074	1.34678
2952.63218	1.32233
2950.70361	1.29809
2948.77505	1.27429
2946.84648	1.25127
2944.91792	1.22918
2942.98936	1.20781
2941.06079	1.18689
2939.13223	1.16601
2937.20366	1.14507
2935.27510	1.12413
2933.34653	1.10302
2931.41797	1.08194
2929.48940	1.06135
2927.56084	1.04110
2925.63228	1.02109
2923.70371	1.00186
2921.77515	0.98341
2919.84658	0.96495
2917.91802	0.94661
2915.98945	0.92947
2914.06089	0.91350
2912.13232	0.89801
2910.20376	0.88301
2908.27520	0.86838
2906.34663	0.85366
2904.41807	0.83897
2902.48950	0.82464
2900.56094	0.81083
2898.63237	0.79753
2896.70381	0.78449
2894.77524	0.77150
2892.84668	0.75871
2890.91812	0.74645
2888.98955	0.73479
2887.06099	0.72359
2885.13242	0.71290
2883.20386	0.70278
2881.27529	0.69312
2879.34673	0.68372
2877.41816	0.67409
2875.48960	0.66389
2873.56104	0.65341
2871.63247	0.64272
2869.70391	0.63143
2867.77534	0.61946
2865.84678	0.60717
2863.91821	0.59494
2861.98965	0.58283
2860.06108	0.57094
2858.13252	0.55962
2856.20396	0.54898
2854.27539	0.53878
2852.34683	0.52887
2850.41826	0.51929
2848.48970	0.50998
2846.56113	0.50171
2844.63257	0.49493
2842.70400	0.48882
2840.77544	0.48288
2838.84687	0.47712
2836.91831	0.47134
2834.98975	0.46537
2833.06118	0.45944
2831.13262	0.45372
2829.20405	0.44792
2827.27549	0.44180
2825.34692	0.43561
2823.41836	0.42951
2821.48979	0.42337
2819.56123	0.41729
2817.63267	0.41148
2815.70410	0.40575
2813.77554	0.40000
2811.84697	0.39432
2809.91841	0.38869
2807.98984	0.38296
2806.06128	0.37730
2804.13271	0.37198
2802.20415	0.36696
2800.27559	0.36199
2798.34702	0.35679
2796.41846	0.35151
2794.48989	0.34650
2792.56133	0.34177
2790.63276	0.33716
2788.70420	0.33262
2786.77563	0.32806
2784.84707	0.32354
2782.91851	0.31927
2780.98994	0.31509
2779.06138	0.31080
2777.13281	0.30660
2775.20425	0.30265
2773.27568	0.29886
2771.34712	0.29499
2769.41855	0.29106
2767.48999	0.28734
2765.56143	0.28376
2763.63286	0.28014
2761.70430	0.27663
2759.77573	0.27324
2757.84717	0.26976
2755.91860	0.26628
2753.99004	0.26304
2752.06147	0.26002
2750.13291	0.25694
2748.20435	0.25383
2746.27578	0.25086
2744.34722	0.24795
2742.41865	0.24503
2740.49009	0.24217
2738.56152	0.23948
2736.63296	0.23688
2734.70439	0.23430
2732.77583	0.23175
2730.84727	0.22930
2728.91870	0.22689
2726.99014	0.22447
2725.06157	0.22203
2723.13301	0.21969
2721.20444	0.21753
2719.27588	0.21553
2717.34731	0.21356
2715.41875	0.21155
2713.49019	0.20952
2711.56162	0.20758
2709.63306	0.20580
2707.70449	0.20410
2705.77593	0.20243
2703.84736	0.20071
2701.91880	0.19890
2699.99023	0.19717
2698.06167	0.19564
2696.13311	0.19420
2694.20454	0.19273
2692.27598	0.19126
2690.34741	0.18980
2688.41885	0.18842
2686.49028	0.18721
2684.56172	0.18607
2682.63315	0.18483
2680.70459	0.18357
2678.77603	0.18241
2676.84746	0.18134
2674.91890	0.18021
2672.99033	0.17891
2671.06177	0.17766
2669.13320	0.17663
2667.20464	0.17567
2665.27607	0.17467
2663.34751	0.17372
2661.41895	0.17283
2659.49038	0.17195
2657.56182	0.17102
2655.63325	0.17002
2653.70469	0.16913
2651.77612	0.16842
2649.84756	0.16787
2647.91899	0.16731
2645.99043	0.16663
2644.06187	0.16605
2642.13330	0.16561
2640.20474	0.16502
2638.27617	0.16425
2636.34761	0.16360
2634.41904	0.16321
2632.49048	0.16287
2630.56191	0.16240
2628.63335	0.16190
2626.70479	0.16146
2624.77622	0.16097
2622.84766	0.16054
2620.91909	0.16018
2618.99053	0.15985
2617.06196	0.15966
2615.13340	0.15961
2613.20483	0.15950
2611.27627	0.15925
2609.34771	0.15897
2607.41914	0.15875
2605.49058	0.15866
2603.56201	0.15866
2601.63345	0.15861
2599.70488	0.15852
2597.77632	0.15852
2595.84775	0.15858
2593.91919	0.15859
2591.99062	0.15860
2590.06206	0.15863
2588.13350	0.15865
2586.20493	0.15874
2584.27637	0.15895
2582.34780	0.15914
2580.41924	0.15922
2578.49067	0.15939
2576.56211	0.15979
2574.63354	0.16029
2572.70498	0.16071
2570.77642	0.16099
2568.84785	0.16127
2566.91929	0.16155
2564.99072	0.16179
2563.06216	0.16205
2561.13359	0.16241
2559.20503	0.16291
2557.27646	0.16346
2555.34790	0.16396
2553.41934	0.16439
2551.49077	0.16482
2549.56221	0.16536
2547.63364	0.16601
2545.70508	0.16668
2543.77651	0.16727
2541.84795	0.16773
2539.91938	0.16808
2537.99082	0.16854
2536.06226	0.16925
2534.13369	0.17004
2532.20513	0.17071
2530.27656	0.17136
2528.34800	0.17206
2526.41943	0.17274
2524.49087	0.17333
2522.56230	0.17387
2520.63374	0.17457
2518.70518	0.17539
2516.77661	0.17622
2514.84805	0.17699
2512.91948	0.17760
2510.99092	0.17819
2509.06235	0.17896
2507.13379	0.17984
2505.20522	0.18077
2503.27666	0.18167
2501.34810	0.18253
2499.41953	0.18331
2497.49097	0.18407
2495.56240	0.18494
2493.63384	0.18585
2491.70527	0.18667
2489.77671	0.18744
2487.84814	0.18819
2485.91958	0.18900
2483.99102	0.18979
2482.06245	0.19049
2480.13389	0.19130
2478.20532	0.19227
2476.27676	0.19315
2474.34819	0.19391
2472.41963	0.19469
2470.49106	0.19555
2468.56250	0.19653
2466.63394	0.19758
2464.70537	0.19860
2462.77681	0.19953
2460.84824	0.20039
2458.91968	0.20122
2456.99111	0.20210
2455.06255	0.20300
2453.13398	0.20390
2451.20542	0.20482
2449.27686	0.20576
2447.34829	0.20676
2445.41973	0.20775
2443.49116	0.20869
2441.56260	0.20962
2439.63403	0.21063
2437.70547	0.21173
2435.77690	0.21277
2433.84834	0.21387
2431.91978	0.21511
2429.99121	0.21626
2428.06265	0.21714
2426.13408	0.21803
2424.20552	0.21917
2422.27695	0.22039
2420.34839	0.22148
2418.41982	0.22252
2416.49126	0.22356
2414.56270	0.22455
2412.63413	0.22554
2410.70557	0.22663
2408.77700	0.22780
2406.84844	0.22902
2404.91987	0.23032
2402.99131	0.23170
2401.06274	0.23294
2399.13418	0.23393
2397.20562	0.23497
2395.27705	0.23625
2393.34849	0.23764
2391.41992	0.23899
2389.49136	0.24033
2387.56279	0.24176
2385.63423	0.24339
2383.70566	0.24544
2381.77710	0.24805
2379.84854	0.25116
2377.91997	0.25469
2375.99141	0.25840
2374.06284	0.26220
2372.13428	0.26648
2370.20571	0.27137
2368.27715	0.27615
2366.34858	0.28043
2364.42002	0.28467
2362.49146	0.28889
2360.56289	0.29208
2358.63433	0.29341
2356.70576	0.29326
2354.77720	0.29230
2352.84863	0.29048
2350.92007	0.28790
2348.99150	0.28623
2347.06294	0.28711
2345.13437	0.29119
2343.20581	0.29646
2341.27725	0.29954
2339.34868	0.30113
2337.42012	0.30243
2335.49155	0.30333
2333.56299	0.30406
2331.63442	0.30516
2329.70586	0.30640
2327.77729	0.30755
2325.84873	0.30825
2323.92017	0.30818
2321.99160	0.30813
2320.06304	0.30859
2318.13447	0.30906
2316.20591	0.30943
2314.27734	0.31009
2312.34878	0.31098
2310.42021	0.31200
2308.49165	0.31309
2306.56309	0.31404
2304.63452	0.31489
2302.70596	0.31584
2300.77739	0.31689
2298.84883	0.31814
2296.92026	0.31964
2294.99170	0.32122
2293.06313	0.32276
2291.13457	0.32431
2289.20601	0.32594
2287.27744	0.32758
2285.34888	0.32912
2283.42031	0.33070
2281.49175	0.33259
2279.56318	0.33476
2277.63462	0.33704
2275.70605	0.33936
2273.77749	0.34161
2271.84893	0.34368
2269.92036	0.34567
2267.99180	0.34776
2266.06323	0.34991
2264.13467	0.35201
2262.20610	0.35412
2260.27754	0.35628
2258.34897	0.35844
2256.42041	0.36053
2254.49185	0.36258
2252.56328	0.36471
2250.63472	0.36689
2248.70615	0.36898
2246.77759	0.37108
2244.84902	0.37336
2242.92046	0.37570
2240.99189	0.37797
2239.06333	0.38016
2237.13477	0.38232
2235.20620	0.38455
2233.27764	0.38682
2231.34907	0.38905
2229.42051	0.39125
2227.49194	0.39340
2225.56338	0.39559
2223.63481	0.39788
2221.70625	0.40006
2219.77769	0.40216
2217.84912	0.40447
2215.92056	0.40692
2213.99199	0.40926
2212.06343	0.41148
2210.13486	0.41365
2208.20630	0.41577
2206.27773	0.41784
2204.34917	0.41986
2202.42061	0.42191
2200.49204	0.42399
2198.56348	0.42598
2196.63491	0.42797
2194.70635	0.43003
2192.77778	0.43202
2190.84922	0.43387
2188.92065	0.43568
2186.99209	0.43753
2185.06353	0.43936
2183.13496	0.44106
2181.20640	0.44271
2179.27783	0.44440
2177.34927	0.44610
2175.42070	0.44776
2173.49214	0.44935
2171.56357	0.45073
2169.63501	0.45195
2167.70645	0.45331
2165.77788	0.45472
2163.84932	0.45592
2161.92075	0.45709
2159.99219	0.45838
2158.06362	0.45961
2156.13506	0.46054
2154.20649	0.46120
2152.27793	0.46194
2150.34937	0.46283
2148.42080	0.46361
2146.49224	0.46413
2144.56367	0.46446
2142.63511	0.46484
2140.70654	0.46524
2138.77798	0.46548
2136.84941	0.46563
2134.92085	0.46577
2132.99229	0.46578
2131.06372	0.46563
2129.13516	0.46539
2127.20659	0.46515
2125.27803	0.46495
2123.34946	0.46473
2121.42090	0.46429
2119.49233	0.46362
2117.56377	0.46303
2115.63521	0.46240
2113.70664	0.46154
2111.77808	0.46056
2109.84951	0.45952
2107.92095	0.45848
2105.99238	0.45748
2104.06382	0.45644
2102.13525	0.45518
2100.20669	0.45372
2098.27812	0.45224
2096.34956	0.45076
2094.42100	0.44923
2092.49243	0.44764
2090.56387	0.44600
2088.63530	0.44419
2086.70674	0.44223
2084.77817	0.44028
2082.84961	0.43838
2080.92104	0.43638
2078.99248	0.43434
2077.06392	0.43227
2075.13535	0.43009
2073.20679	0.42785
2071.27822	0.42561
2069.34966	0.42341
2067.42109	0.42125
2065.49253	0.41896
2063.56396	0.41643
2061.63540	0.41389
2059.70684	0.41143
2057.77827	0.40891
2055.84971	0.40631
2053.92114	0.40373
2051.99258	0.40114
2050.06401	0.39844
2048.13545	0.39572
2046.20688	0.39306
2044.27832	0.39051
2042.34976	0.38792
2040.42119	0.38513
2038.49263	0.38221
2036.56406	0.37933
2034.63550	0.37656
2032.70693	0.37382
2030.77837	0.37106
2028.84980	0.36826
2026.92124	0.36545
2024.99268	0.36258
2023.06411	0.35972
2021.13555	0.35699
2019.20698	0.35438
2017.27842	0.35172
2015.34985	0.34883
2013.42129	0.34589
2011.49272	0.34304
2009.56416	0.34026
2007.63560	0.33751
2005.70703	0.33476
2003.77847	0.33204
2001.84990	0.32941
1999.92134	0.32679
1997.99277	0.32412
1996.06421	0.32148
1994.13564	0.31910
1992.20708	0.31692
1990.27852	0.31446
1988.34995	0.31166
1986.42139	0.30887
1984.49282	0.30634
1982.56426	0.30399
1980.63569	0.30163
1978.70713	0.29927
1976.77856	0.29701
1974.85000	0.29484
1972.92144	0.29262
1970.99287	0.29045
1969.06431	0.28849
1967.13574	0.28659
1965.20718	0.28444
1963.27861	0.28223
1961.35005	0.28026
1959.42148	0.27837
1957.49292	0.27645
1955.56436	0.27457
1953.63579	0.27276
1951.70723	0.27100
1949.77866	0.26926
1947.85010	0.26761
1945.92153	0.26625
1943.99297	0.26519
1942.06440	0.26395
1940.13584	0.26220
1938.20728	0.26037
1936.27871	0.25883
1934.35015	0.25749
1932.42158	0.25626
1930.49302	0.25501
1928.56445	0.25378
1926.63589	0.25271
1924.70732	0.25202
1922.77876	0.25150
1920.85020	0.25065
1918.92163	0.24971
1916.99307	0.24872
1915.06450	0.24732
1913.13594	0.24608
1911.20737	0.24549
1909.27881	0.24511
1907.35024	0.24443
1905.42168	0.24358
1903.49312	0.24287
1901.56455	0.24228
1899.63599	0.24172
1897.70742	0.24138
1895.77886	0.24124
1893.85029	0.24093
1891.92173	0.24055
1889.99316	0.24058
1888.06460	0.24042
1886.13604	0.23979
1884.20747	0.23931
1882.27891	0.23906
1880.35034	0.23892
1878.42178	0.23880
1876.49321	0.23873
1874.56465	0.23870
1872.63608	0.23891
1870.70752	0.23976
1868.77896	0.24113
1866.85039	0.24148
1864.92183	0.24068
1862.99326	0.24013
1861.06470	0.24014
1859.13613	0.24044
1857.20757	0.24074
1855.27900	0.24108
1853.35044	0.24149
1851.42187	0.24210
1849.49331	0.24296
1847.56475	0.24416
1845.63618	0.24566
1843.70762	0.24694
1841.77905	0.24721
1839.85049	0.24712
1837.92192	0.24771
1835.99336	0.24860
1834.06479	0.24952
1832.13623	0.25088
1830.20767	0.25300
1828.27910	0.25472
1826.35054	0.25552
1824.42197	0.25649
1822.49341	0.25737
1820.56484	0.25826
1818.63628	0.25960
1816.70771	0.26132
1814.77915	0.26299
1812.85059	0.26493
1810.92202	0.26731
1808.99346	0.26941
1807.06489	0.27109
1805.13633	0.27286
1803.20776	0.27526
1801.27920	0.27821
1799.35063	0.28125
1797.42207	0.28376
1795.49351	0.28627
1793.56494	0.28954
1791.63638	0.29347
1789.70781	0.29639
1787.77925	0.29837
1785.85068	0.30129
1783.92212	0.30509
1781.99355	0.30925
1780.06499	0.31357
1778.13643	0.31782
1776.20786	0.32204
1774.27930	0.32709
1772.35073	0.33372
1770.42217	0.33994
1768.49360	0.34456
1766.56504	0.34909
1764.63647	0.35419
1762.70791	0.36034
1760.77935	0.36789
1758.85078	0.37474
1756.92222	0.38172
1754.99365	0.38936
1753.06509	0.39662
1751.13652	0.40582
1749.20796	0.41698
1747.27939	0.42691
1745.35083	0.43535
1743.42227	0.44459
1741.49370	0.45497
1739.56514	0.46724
1737.63657	0.47965
1735.70801	0.49113
1733.77944	0.50835
1731.85088	0.52773
1729.92231	0.54248
1727.99375	0.55742
1726.06519	0.57400
1724.13662	0.59274
1722.20806	0.61327
1720.27949	0.63292
1718.35093	0.65648
1716.42236	0.68924
1714.49380	0.71871
1712.56523	0.74255
1710.63667	0.76651
1708.70811	0.79310
1706.77954	0.82360
1704.85098	0.85930
1702.92241	0.89124
1700.99385	0.92377
1699.06528	0.97139
1697.13672	1.01453
1695.20815	1.05841
1693.27959	1.10240
1691.35103	1.13922
1689.42246	1.18207
1687.49390	1.22779
1685.56533	1.27323
1683.63677	1.34076
1681.70820	1.40841
1679.77964	1.45207
1677.85107	1.49432
1675.92251	1.54348
1673.99395	1.60444
1672.06538	1.66027
1670.13682	1.71587
1668.20825	1.78612
1666.27969	1.84418
1664.35112	1.89575
1662.42256	1.96182
1660.49399	2.03750
1658.56543	2.09816
1656.63687	2.14716
1654.70830	2.19169
1652.77974	2.25504
1650.85117	2.30934
1648.92261	2.32657
1646.99404	2.34916
1645.06548	2.37285
1643.13691	2.38831
1641.20835	2.39596
1639.27979	2.40245
1637.35122	2.40551
1635.42266	2.40332
1633.49409	2.39422
1631.56553	2.37693
1629.63696	2.35520
1627.70840	2.32244
1625.77983	2.28587
1623.85127	2.24037
1621.92271	2.18519
1619.99414	2.13623
1618.06558	2.08893
1616.13701	2.02223
1614.20845	1.95353
1612.27988	1.90065
1610.35132	1.84609
1608.42275	1.78763
1606.49419	1.73037
1604.56562	1.67756
1602.63706	1.62705
1600.70850	1.57837
1598.77993	1.53338
1596.85137	1.49092
1594.92280	1.45039
1592.99424	1.41232
1591.06567	1.37780
1589.13711	1.34542
1587.20854	1.31580
1585.27998	1.28955
1583.35142	1.26561
1581.42285	1.24372
1579.49429	1.22535
1577.56572	1.21004
1575.63716	1.19273
1573.70859	1.17712
1571.78003	1.16712
1569.85146	1.15829
1567.92290	1.14922
1565.99434	1.14322
1564.06577	1.14037
1562.13721	1.13953
1560.20864	1.14217
1558.28008	1.15121
1556.35151	1.15788
1554.42295	1.16098
1552.49438	1.16493
1550.56582	1.16746
1548.63726	1.16670
1546.70869	1.16238
1544.78013	1.15447
1542.85156	1.14259
1540.92300	1.12282
1538.99443	1.08965
1537.06587	1.06344
1535.13730	1.04597
1533.20874	1.02404
1531.28018	0.99995
1529.35161	0.98189
1527.42305	0.96571
1525.49448	0.94942
1523.56592	0.93562
1521.63735	0.92275
1519.70879	0.90930
1517.78022	0.89766
1515.85166	0.88422
1513.92310	0.86945
1511.99453	0.85661
1510.06597	0.84575
1508.13740	0.83570
1506.20884	0.81879
1504.28027	0.80166
1502.35171	0.79192
1500.42314	0.78448
1498.49458	0.77710
1496.56602	0.76833
1494.63745	0.75901
1492.70889	0.75195
1490.78032	0.74661
1488.85176	0.74050
1486.92319	0.73361
1484.99463	0.72770
1483.06606	0.72333
1481.13750	0.72021
1479.20894	0.71814
1477.28037	0.71746
1475.35181	0.71809
1473.42324	0.71926
1471.49468	0.71883
1469.56611	0.71627
1467.63755	0.71375
1465.70898	0.71235
1463.78042	0.71155
1461.85186	0.71111
1459.92329	0.71205
1457.99473	0.71465
1456.06616	0.71553
1454.13760	0.71235
1452.20903	0.70897
1450.28047	0.70642
1448.35190	0.70409
1446.42334	0.70117
1444.49478	0.69807
1442.56621	0.69522
1440.63765	0.69246
1438.70908	0.68995
1436.78052	0.68701
1434.85195	0.68290
1432.92339	0.67938
1430.99482	0.67747
1429.06626	0.67671
1427.13770	0.67660
1425.20913	0.67730
1423.28057	0.67868
1421.35200	0.68012
1419.42344	0.68172
1417.49487	0.68234
1415.56631	0.68116
1413.63774	0.68014
1411.70918	0.68011
1409.78062	0.68097
1407.85205	0.68276
1405.92349	0.68534
1403.99492	0.68765
1402.06636	0.68845
1400.13779	0.68816
1398.20923	0.68703
1396.28066	0.68446
1394.35210	0.68002
1392.42354	0.67455
1390.49497	0.66948
1388.56641	0.66468
1386.63784	0.65906
1384.70928	0.65274
1382.78071	0.64670
1380.85215	0.64120
1378.92358	0.63653
1376.99502	0.63326
1375.06646	0.63138
1373.13789	0.62994
1371.20933	0.62864
1369.28076	0.62780
1367.35220	0.62682
1365.42363	0.62547
1363.49507	0.62414
1361.56650	0.62251
1359.63794	0.62041
1357.70937	0.61853
1355.78081	0.61711
1353.85225	0.61601
1351.92368	0.61509
1349.99512	0.61429
1348.06655	0.61346
1346.13799	0.61254
1344.20942	0.61179
1342.28086	0.61139
1340.35229	0.61125
1338.42373	0.61077
1336.49517	0.60975
1334.56660	0.60891
1332.63804	0.60866
1330.70947	0.60893
1328.78091	0.60959
1326.85234	0.61051
1324.92378	0.61168
1322.99521	0.61301
1321.06665	0.61427
1319.13809	0.61526
1317.20952	0.61582
1315.28096	0.61603
1313.35239	0.61599
1311.42383	0.61550
1309.49526	0.61461
1307.56670	0.61380
1305.63813	0.61322
1303.70957	0.61254
1301.78101	0.61162
1299.85244	0.61053
1297.92388	0.60934
1295.99531	0.60806
1294.06675	0.60670
1292.13818	0.60532
1290.20962	0.60393
1288.28105	0.60253
1286.35249	0.60104
1284.42393	0.59939
1282.49536	0.59774
1280.56680	0.59620
1278.63823	0.59459
1276.70967	0.59296
1274.78110	0.59152
1272.85254	0.59037
1270.92397	0.58955
1268.99541	0.58886
1267.06685	0.58810
1265.13828	0.58729
1263.20972	0.58635
1261.28115	0.58530
1259.35259	0.58431
1257.42402	0.58353
1255.49546	0.58319
1253.56689	0.58321
1251.63833	0.58326
1249.70977	0.58332
1247.78120	0.58338
1245.85264	0.58328
1243.92407	0.58287
1241.99551	0.58194
1240.06694	0.58046
1238.13838	0.57854
1236.20981	0.57610
1234.28125	0.57334
1232.35269	0.57065
1230.42412	0.56807
1228.49556	0.56557
1226.56699	0.56329
1224.63843	0.56108
1222.70986	0.55886
1220.78130	0.55686
1218.85273	0.55518
1216.92417	0.55374
1214.99561	0.55253
1213.06704	0.55150
1211.13848	0.55063
1209.20991	0.54989
1207.28135	0.54920
1205.35278	0.54841
1203.42422	0.54750
1201.49565	0.54645
1199.56709	0.54529
1197.63853	0.54414
1195.70996	0.54320
1193.78140	0.54253
1191.85283	0.54193
1189.92427	0.54133
1187.99570	0.54093
1186.06714	0.54068
1184.13857	0.54058
1182.21001	0.54093
1180.28145	0.54194
1178.35288	0.54349
1176.42432	0.54525
1174.49575	0.54669
1172.56719	0.54743
1170.63862	0.54756
1168.71006	0.54742
1166.78149	0.54718
1164.85293	0.54699
1162.92437	0.54681
1160.99580	0.54650
1159.06724	0.54610
1157.13867	0.54557
1155.21011	0.54480
1153.28154	0.54358
1151.35298	0.54172
1149.42441	0.53932
1147.49585	0.53660
1145.56729	0.53371
1143.63872	0.53095
1141.71016	0.52849
1139.78159	0.52647
1137.85303	0.52526
1135.92446	0.52476
1133.99590	0.52460
1132.06733	0.52467
1130.13877	0.52474
1128.21021	0.52464
1126.28164	0.52432
1124.35308	0.52371
1122.42451	0.52316
1120.49595	0.52310
1118.56738	0.52340
1116.63882	0.52379
1114.71025	0.52427
1112.78169	0.52487
1110.85312	0.52560
1108.92456	0.52643
1106.99600	0.52721
1105.06743	0.52798
1103.13887	0.52887
1101.21030	0.52982
1099.28174	0.53096
1097.35317	0.53279
1095.42461	0.53540
1093.49604	0.53884
1091.56748	0.54351
1089.63892	0.54951
1087.71035	0.55648
1085.78179	0.56418
1083.85322	0.57217
1081.92466	0.57937
1079.99609	0.58467
1078.06753	0.58723
1076.13896	0.58670
1074.21040	0.58321
1072.28184	0.57751
1070.35327	0.57062
1068.42471	0.56330
1066.49614	0.55624
1064.56758	0.54991
1062.63901	0.54430
1060.71045	0.53934
1058.78188	0.53499
1056.85332	0.53118
1054.92476	0.52793
1052.99619	0.52508
1051.06763	0.52245
1049.13906	0.52029
1047.21050	0.51890
1045.28193	0.51817
1043.35337	0.51765
1041.42480	0.51721
1039.49624	0.51690
1037.56768	0.51655
1035.63911	0.51620
1033.71055	0.51585
1031.78198	0.51505
1029.85342	0.51373
1027.92485	0.51231
1025.99629	0.51096
1024.06772	0.50968
1022.13916	0.50865
1020.21060	0.50817
1018.28203	0.50825
1016.35347	0.50847
1014.42490	0.50862
1012.49634	0.50882
1010.56777	0.50908
1008.63921	0.50936
1006.71064	0.50994
1004.78208	0.51101
1002.85352	0.51266
1000.92495	0.51506
998.99639	0.51837
997.06782	0.52262
995.13926	0.52736
993.21069	0.53179
991.28213	0.53522
989.35356	0.53746
987.42500	0.53859
985.49644	0.53887
983.56787	0.53886
981.63931	0.53904
979.71074	0.53966
977.78218	0.54085
975.85361	0.54262
973.92505	0.54496
971.99648	0.54777
970.06792	0.55100
968.13936	0.55480
966.21079	0.55903
964.28223	0.56334
962.35366	0.56783
960.42510	0.57287
958.49653	0.57838
956.56797	0.58405
954.63940	0.58998
952.71084	0.59617
950.78228	0.60239
948.85371	0.60869
946.92515	0.61521
944.99658	0.62212
943.06802	0.62919
941.13945	0.63579
939.21089	0.64167
937.28232	0.64709
935.35376	0.65258
933.42520	0.65848
931.49663	0.66439
929.56807	0.66995
927.63950	0.67568
925.71094	0.68195
923.78237	0.68837
921.85381	0.69489
919.92524	0.70180
917.99668	0.70939
916.06812	0.71724
914.13955	0.72474
912.21099	0.73219
910.28242	0.73989
908.35386	0.74781
906.42529	0.75635
904.49673	0.76603
902.56816	0.77607
900.63960	0.78503
898.71104	0.79331
896.78247	0.80281
894.85391	0.81428
892.92534	0.82633
890.99678	0.83743
889.06821	0.84735
887.13965	0.85664
885.21108	0.86643
883.28252	0.87792
881.35396	0.89044
879.42539	0.90174
877.49683	0.91245
875.56826	0.92477
873.63970	0.93783
871.71113	0.95027
869.78257	0.96183
867.85400	0.97278
865.92544	0.98378
863.99687	0.99417
862.06831	1.00380
860.13975	1.01419
858.21118	1.02636
856.28262	1.04087
854.35405	1.05631
852.42549	1.06960
850.49692	1.08176
848.56836	1.09411
846.63979	1.10455
844.71123	1.11381
842.78267	1.12348
840.85410	1.13332
838.92554	1.14423
836.99697	1.15804
835.06841	1.17439
833.13984	1.18842
831.21128	1.19685
829.28271	1.20486
827.35415	1.21582
825.42559	1.22515
823.49702	1.23599
821.56846	1.25387
819.63989	1.27395
817.71133	1.29209
815.78276	1.30446
813.85420	1.30569
811.92563	1.30793
809.99707	1.32786
808.06851	1.35092
806.13994	1.35399
804.21138	1.34773
802.28281	1.34864
800.35425	1.35774
798.42568	1.37260
796.49712	1.39688
794.56855	1.43978
792.63999	1.48536
790.71143	1.50213
788.78286	1.49306
786.85430	1.46685
784.92573	1.43878
782.99717	1.44980
781.06860	1.52783
779.14004	1.61662
777.21147	1.66671
775.28291	1.70198
773.35435	1.63987
771.42578	1.58746
769.49722	1.62444
767.56865	1.58498
765.64009	1.45425
763.71152	1.46092
761.78296	1.68465
759.85439	1.91543
757.92583	1.72387
755.99727	1.62453
754.06870	1.59624
752.14014	1.49349
750.21157	1.46843
748.28301	1.55571
746.35444	1.70622
744.42588	1.67647
742.49731	1.38254
740.56875	1.18080
738.64019	1.08228
736.71162	1.06286
734.78306	1.09018
732.85449	1.09163
730.92593	0.96171
728.99736	0.73956
727.06880	0.51208
725.14023	0.31491
723.21167	0.15328
721.28311	-0.00126
719.35454	-0.04854
717.42598	0.01897
715.49741	0.16211
713.56885	0.43698
711.64028	0.66855
709.71172	0.38979
707.78315	0.21349
705.85459	0.27214
703.92603	0.35884
701.99746	0.33487
700.06890	0.34138
698.14033	0.37845
696.21177	0.37662
694.28320	0.39474
692.35464	0.43003
690.42607	0.41115
688.49751	0.37792
686.56895	0.37818
684.64038	0.41440
682.71182	0.49175
680.78325	0.55431
678.85469	0.48061
676.92612	0.38809
674.99756	0.40876
673.06899	0.56040
671.14043	0.60895
669.21187	0.43349
667.28330	0.36056
665.35474	0.42800
663.42617	0.60219
661.49761	0.63090
659.56904	0.48040
657.64048	0.37148
655.71191	0.36405
653.78335	0.42259
651.85479	0.53938
649.92622	0.67832
647.99766	0.70374
646.06909	0.68223
644.14053	0.57977
642.21196	0.43517
640.28340	0.34709
638.35483	0.31363
636.42627	0.32312
634.49771	0.35559
632.56914	0.35739
630.64058	0.37355
628.71201	0.43264
626.78345	0.41609
624.85488	0.35579
622.92632	0.36873
620.99775	0.47749
619.06919	0.55618
617.14062	0.47763
615.21206	0.37315
613.28350	0.30105
611.35493	0.30867
609.42637	0.41986
607.49780	0.47297
605.56924	0.44695
603.64067	0.50884
601.71211	0.64364
599.78354	0.61111
597.85498	0.57238
595.92642	0.73319
593.99785	1.00771
592.06929	0.84318
590.14072	0.78082
588.21216	0.68869
586.28359	0.62277
584.35503	0.70879
582.42646	0.70314
580.49790	0.50835
578.56934	0.35935
576.64077	0.30659
574.71221	0.37132
572.78364	0.51777
570.85508	0.47136
568.92651	0.35070
566.99795	0.33328
565.06938	0.37957
563.14082	0.41365
561.21226	0.42552
559.28369	0.42969
557.35513	0.40393
555.42656	0.37691
553.49800	0.37238
551.56943	0.36949
549.64087	0.36001
547.71230	0.35106
545.78374	0.36164
543.85518	0.41232
541.92661	0.46146
539.99805	0.42696
538.06948	0.39409
536.14092	0.44481
534.21235	0.68427
532.28379	3.19370
530.35522	3.18213
528.42666	0.56331
526.49810	0.39895
524.56953	0.37501
522.64097	0.37086
520.71240	0.34977
518.78384	0.34187
516.85527	0.39789
514.92671	0.54862
512.99814	0.70078
511.06958	0.52591
509.14102	0.35763
507.21245	0.31056
505.28389	0.37489
503.35532	0.45836
501.42676	0.40243
499.49819	0.30390
