3997.91411	0.06138
3995.98555	0.06161
3994.05698	0.06208
3992.12842	0.06253
3990.19985	0.06260
3988.27129	0.06244
3986.34272	0.06261
3984.41416	0.06322
3982.48560	0.06375
3980.55703	0.06408
3978.62847	0.06439
3976.69990	0.06473
3974.77134	0.06512
3972.84277	0.06541
3970.91421	0.06563
3968.98564	0.06593
3967.05708	0.06598
3965.12852	0.06580
3963.19995	0.06607
3961.27139	0.06663
3959.34282	0.06672
3957.41426	0.06635
3955.48569	0.06609
3953.55713	0.06634
3951.62856	0.06731
3949.70000	0.06858
3947.77144	0.06903
3945.84287	0.06859
3943.91431	0.06858
3941.98574	0.06894
3940.05718	0.06832
3938.12861	0.06715
3936.20005	0.06671
3934.27148	0.06724
3932.34292	0.06841
3930.41436	0.06913
3928.48579	0.06874
3926.55723	0.06837
3924.62866	0.06885
3922.70010	0.06899
3920.77153	0.06827
3918.84297	0.06808
3916.91440	0.06857
3914.98584	0.06813
3913.05728	0.06685
3911.12871	0.06625
3909.20015	0.06644
3907.27158	0.06743
3905.34302	0.06995
3903.41445	0.07294
3901.48589	0.07385
3899.55732	0.07285
3897.62876	0.07106
3895.70020	0.06923
3893.77163	0.06894
3891.84307	0.07031
3889.91450	0.07071
3887.98594	0.06947
3886.05737	0.06958
3884.12881	0.07121
3882.20024	0.07209
3880.27168	0.07215
3878.34312	0.07136
3876.41455	0.07035
3874.48599	0.07113
3872.55742	0.07329
3870.62886	0.07474
3868.70029	0.07464
3866.77173	0.07373
3864.84316	0.07438
3862.91460	0.07603
3860.98604	0.07569
3859.05747	0.07437
3857.12891	0.07452
3855.20034	0.07693
3853.27178	0.08160
3851.34321	0.08307
3849.41465	0.07886
3847.48608	0.07544
3845.55752	0.07484
3843.62896	0.07673
3841.70039	0.07993
3839.77183	0.08327
3837.84326	0.08576
3835.91470	0.08559
3833.98613	0.08394
3832.05757	0.08297
3830.12900	0.08251
3828.20044	0.08252
3826.27187	0.08342
3824.34331	0.08478
3822.41475	0.08693
3820.48618	0.09046
3818.55762	0.09205
3816.62905	0.09140
3814.70049	0.09066
3812.77192	0.08901
3810.84336	0.08761
3808.91479	0.08844
3806.98623	0.09166
3805.05767	0.09478
3803.12910	0.09676
3801.20054	0.09942
3799.27197	0.10108
3797.34341	0.10092
3795.41484	0.10056
3793.48628	0.09963
3791.55771	0.09912
3789.62915	0.09979
3787.70059	0.10122
3785.77202	0.10341
3783.84346	0.10568
3781.91489	0.10717
3779.98633	0.10882
3778.05776	0.11082
3776.12920	0.11186
3774.20063	0.11263
3772.27207	0.11444
3770.34351	0.11762
3768.41494	0.12091
3766.48638	0.12275
3764.55781	0.12410
3762.62925	0.12579
3760.70068	0.12863
3758.77212	0.13281
3756.84355	0.13612
3754.91499	0.13823
3752.98643	0.14182
3751.05786	0.14803
3749.12930	0.15350
3747.20073	0.15519
3745.27217	0.15685
3743.34360	0.16006
3741.41504	0.16214
3739.48647	0.16355
3737.55791	0.16696
3735.62935	0.17358
3733.70078	0.18058
3731.77222	0.18358
3729.84365	0.18471
3727.91509	0.18750
3725.98652	0.19328
3724.05796	0.20055
3722.12939	0.20732
3720.20083	0.21381
3718.27227	0.22059
3716.34370	0.22820
3714.41514	0.23679
3712.48657	0.24780
3710.55801	0.26217
3708.62944	0.27512
3706.70088	0.28460
3704.77231	0.29458
3702.84375	0.30782
3700.91519	0.32517
3698.98662	0.34347
3697.05806	0.36084
3695.12949	0.37983
3693.20093	0.40095
3691.27236	0.42518
3689.34380	0.45566
3687.41523	0.48968
3685.48667	0.51814
3683.55811	0.54336
3681.62954	0.57170
3679.70098	0.60466
3677.77241	0.64023
3675.84385	0.68229
3673.91528	0.73559
3671.98672	0.77823
3670.05815	0.81690
3668.12959	0.86911
3666.20103	0.91697
3664.27246	0.95767
3662.34390	1.00119
3660.41533	1.04851
3658.48677	1.09618
3656.55820	1.14707
3654.62964	1.20286
3652.70107	1.25058
3650.77251	1.29415
3648.84395	1.35269
3646.91538	1.41891
3644.98682	1.46578
3643.05825	1.50316
3641.12969	1.54340
3639.20112	1.58819
3637.27256	1.63294
3635.34399	1.67630
3633.41543	1.71981
3631.48687	1.76151
3629.55830	1.80495
3627.62974	1.85958
3625.70117	1.90831
3623.77261	1.94123
3621.84404	1.97404
3619.91548	2.01344
3617.98691	2.06105
3616.05835	2.10657
3614.12979	2.14500
3612.20122	2.18449
3610.27266	2.22393
3608.34409	2.26471
3606.41553	2.30720
3604.48696	2.34420
3602.55840	2.37764
3600.62983	2.41582
3598.70127	2.45739
3596.77271	2.49795
3594.84414	2.53932
3592.91558	2.58154
3590.98701	2.62126
3589.05845	2.65883
3587.12988	2.70351
3585.20132	2.75236
3583.27275	2.79373
3581.34419	2.83178
3579.41562	2.87265
3577.48706	2.91589
3575.55850	2.95933
3573.62993	3.00382
3571.70137	3.04728
3569.77280	3.08880
3567.84424	3.13355
3565.91567	3.18732
3563.98711	3.23777
3562.05854	3.27904
3560.12998	3.32016
3558.20142	3.36249
3556.27285	3.40530
3554.34429	3.44954
3552.41572	3.49644
3550.48716	3.54408
3548.55859	3.59182
3546.63003	3.64073
3544.70146	3.69036
3542.77290	3.73752
3540.84434	3.78281
3538.91577	3.82955
3536.98721	3.87713
3535.05864	3.92669
3533.13008	3.97662
3531.20151	4.02525
3529.27295	4.07311
3527.34438	4.12261
3525.41582	4.17237
3523.48726	4.21864
3521.55869	4.26565
3519.63013	4.31486
3517.70156	4.36411
3515.77300	4.41129
3513.84443	4.45685
3511.91587	4.50584
3509.98730	4.55919
3508.05874	4.61070
3506.13018	4.65769
3504.20161	4.70216
3502.27305	4.74659
3500.34448	4.79491
3498.41592	4.84683
3496.48735	4.89842
3494.55879	4.94613
3492.63022	4.98829
3490.70166	5.02962
3488.77310	5.07872
3486.84453	5.13257
3484.91597	5.18283
3482.98740	5.23088
3481.05884	5.28115
3479.13027	5.33258
3477.20171	5.38181
3475.27314	5.42984
3473.34458	5.47894
3471.41602	5.52722
3469.48745	5.57378
3467.55889	5.62873
3465.63032	5.69287
3463.70176	5.74767
3461.77319	5.78997
3459.84463	5.83681
3457.91606	5.89060
3455.98750	5.94462
3454.05894	5.99488
3452.13037	6.03861
3450.20181	6.08753
3448.27324	6.15425
3446.34468	6.22476
3444.41611	6.27117
3442.48755	6.30160
3440.55898	6.34042
3438.63042	6.39630
3436.70186	6.45230
3434.77329	6.49220
3432.84473	6.53117
3430.91616	6.57743
3428.98760	6.63012
3427.05903	6.69729
3425.13047	6.77895
3423.20190	6.84566
3421.27334	6.88364
3419.34478	6.91398
3417.41621	6.96470
3415.48765	7.02692
3413.55908	7.06304
3411.63052	7.08326
3409.70195	7.11702
3407.77339	7.19170
3405.84482	7.28659
3403.91626	7.35315
3401.98770	7.38014
3400.05913	7.38183
3398.13057	7.40141
3396.20200	7.44598
3394.27344	7.48680
3392.34487	7.53146
3390.41631	7.59014
3388.48774	7.63600
3386.55918	7.66785
3384.63062	7.68234
3382.70205	7.69840
3380.77349	7.73564
3378.84492	7.75630
3376.91636	7.75437
3374.98779	7.76030
3373.05923	7.81068
3371.13066	7.90267
3369.20210	7.98614
3367.27354	7.99242
3365.34497	7.98539
3363.41641	8.05682
3361.48784	8.13316
3359.55928	8.13477
3357.63071	8.09072
3355.70215	8.08390
3353.77358	8.11738
3351.84502	8.15890
3349.91646	8.21779
3347.98789	8.29516
3346.05933	8.33316
3344.13076	8.29433
3342.20220	8.25546
3340.27363	8.28272
3338.34507	8.31010
3336.41650	8.23984
3334.48794	8.19294
3332.55937	8.23267
3330.63081	8.23878
3328.70225	8.19388
3326.77368	8.18994
3324.84512	8.20992
3322.91655	8.19987
3320.98799	8.22176
3319.05942	8.26850
3317.13086	8.31408
3315.20229	8.39883
3313.27373	8.45174
3311.34517	8.38201
3309.41660	8.31583
3307.48804	8.34403
3305.55947	8.42103
3303.63091	8.50427
3301.70234	8.51563
3299.77378	8.49596
3297.84521	8.51411
3295.91665	8.46528
3293.98809	8.31672
3292.05952	8.26247
3290.13096	8.36691
3288.20239	8.45442
3286.27383	8.43609
3284.34526	8.41472
3282.41670	8.48944
3280.48813	8.58646
3278.55957	8.59732
3276.63101	8.57565
3274.70244	8.59335
3272.77388	8.60333
3270.84531	8.51994
3268.91675	8.43446
3266.98818	8.44190
3265.05962	8.51870
3263.13105	8.58608
3261.20249	8.59132
3259.27393	8.54547
3257.34536	8.46328
3255.41680	8.38472
3253.48823	8.36260
3251.55967	8.38388
3249.63110	8.43221
3247.70254	8.46376
3245.77397	8.37967
3243.84541	8.28264
3241.91685	8.32762
3239.98828	8.47694
3238.05972	8.56538
3236.13115	8.51699
3234.20259	8.43851
3232.27402	8.37509
3230.34546	8.30799
3228.41689	8.28437
3226.48833	8.31665
3224.55977	8.35680
3222.63120	8.39272
3220.70264	8.40438
3218.77407	8.34331
3216.84551	8.25631
3214.91694	8.22507
3212.98838	8.20473
3211.05981	8.17082
3209.13125	8.17482
3207.20269	8.18524
3205.27412	8.18129
3203.34556	8.14534
3201.41699	8.05641
3199.48843	8.02158
3197.55986	8.05711
3195.63130	7.98360
3193.70273	7.82734
3191.77417	7.80351
3189.84561	7.88449
3187.91704	7.85958
3185.98848	7.72374
3184.05991	7.60772
3182.13135	7.52247
3180.20278	7.43472
3178.27422	7.36972
3176.34565	7.36106
3174.41709	7.36058
3172.48853	7.30291
3170.55996	7.20137
3168.63140	7.09234
3166.70283	7.00703
3164.77427	6.96285
3162.84570	6.93091
3160.91714	6.88345
3158.98857	6.82086
3157.06001	6.74739
3155.13145	6.67127
3153.20288	6.58175
3151.27432	6.48493
3149.34575	6.40741
3147.41719	6.34924
3145.48862	6.30361
3143.56006	6.25172
3141.63149	6.17258
3139.70293	6.08199
3137.77437	6.00400
3135.84580	5.93578
3133.91724	5.86853
3131.98867	5.80313
3130.06011	5.73815
3128.13154	5.66662
3126.20298	5.58890
3124.27441	5.51406
3122.34585	5.43985
3120.41729	5.36412
3118.48872	5.29131
3116.56016	5.21846
3114.63159	5.14609
3112.70303	5.07843
3110.77446	5.01453
3108.84590	4.95043
3106.91733	4.88042
3104.98877	4.80540
3103.06021	4.73433
3101.13164	4.66989
3099.20308	4.60498
3097.27451	4.53548
3095.34595	4.46465
3093.41738	4.39493
3091.48882	4.32958
3089.56025	4.26836
3087.63169	4.20535
3085.70312	4.14238
3083.77456	4.08092
3081.84600	4.01533
3079.91743	3.94767
3077.98887	3.88509
3076.06030	3.82704
3074.13174	3.76963
3072.20317	3.71160
3070.27461	3.65382
3068.34604	3.59674
3066.41748	3.53906
3064.48892	3.48140
3062.56035	3.42506
3060.63179	3.36992
3058.70322	3.31589
3056.77466	3.26290
3054.84609	3.21057
3052.91753	3.15822
3050.98896	3.10552
3049.06040	3.05290
3047.13184	3.00159
3045.20327	2.95165
3043.27471	2.90229
3041.34614	2.85329
3039.41758	2.80460
3037.48901	2.75666
3035.56045	2.70979
3033.63188	2.66367
3031.70332	2.61790
3029.77476	2.57242
3027.84619	2.52739
3025.91763	2.48347
3023.98906	2.44081
3022.06050	2.39857
3020.13193	2.35690
3018.20337	2.31637
3016.27480	2.27637
3014.34624	2.23621
3012.41768	2.19608
3010.48911	2.15690
3008.56055	2.11929
3006.63198	2.08284
3004.70342	2.04686
3002.77485	2.01112
3000.84629	1.97587
2998.91772	1.94139
2996.98916	1.90776
2995.06060	1.87488
2993.13203	1.84237
2991.20347	1.81088
2989.27490	1.78098
2987.34634	1.75142
2985.41777	1.72142
2983.48921	1.69165
2981.56064	1.66266
2979.63208	1.63468
2977.70352	1.60763
2975.77495	1.58091
2973.84639	1.55438
2971.91782	1.52839
2969.98926	1.50299
2968.06069	1.47805
2966.13213	1.45336
2964.20356	1.42881
2962.27500	1.40412
2960.34644	1.37913
2958.41787	1.35438
2956.48931	1.33017
2954.56074	1.30609
2952.63218	1.28159
2950.70361	1.25706
2948.77505	1.23357
2946.84648	1.21098
2944.91792	1.18851
2942.98936	1.16624
2941.06079	1.14481
2939.13223	1.12416
2937.20366	1.10351
2935.27510	1.08257
2933.34653	1.06197
2931.41797	1.04188
2929.48940	1.02177
2927.56084	1.00173
2925.63228	0.98215
2923.70371	0.96300
2921.77515	0.94427
2919.84658	0.92612
2917.91802	0.90859
2915.98945	0.89183
2914.06089	0.87610
2912.13232	0.86120
2910.20376	0.84678
2908.27520	0.83280
2906.34663	0.81916
2904.41807	0.80525
2902.48950	0.79097
2900.56094	0.77726
2898.63237	0.76436
2896.70381	0.75164
2894.77524	0.73881
2892.84668	0.72593
2890.91812	0.71362
2888.98955	0.70232
2887.06099	0.69164
2885.13242	0.68114
2883.20386	0.67086
2881.27529	0.66097
2879.34673	0.65126
2877.41816	0.64130
2875.48960	0.63096
2873.56104	0.62053
2871.63247	0.61017
2869.70391	0.59948
2867.77534	0.58821
2865.84678	0.57652
2863.91821	0.56471
2861.98965	0.55310
2860.06108	0.54198
2858.13252	0.53149
2856.20396	0.52152
2854.27539	0.51186
2852.34683	0.50226
2850.41826	0.49274
2848.48970	0.48372
2846.56113	0.47594
2844.63257	0.46969
2842.70400	0.46421
2840.77544	0.45878
2838.84687	0.45330
2836.91831	0.44782
2834.98975	0.44236
2833.06118	0.43676
2831.13262	0.43092
2829.20405	0.42504
2827.27549	0.41928
2825.34692	0.41350
2823.41836	0.40759
2821.48979	0.40165
2819.56123	0.39576
2817.63267	0.39006
2815.70410	0.38451
2813.77554	0.37891
2811.84697	0.37339
2809.91841	0.36802
2807.98984	0.36255
2806.06128	0.35709
2804.13271	0.35197
2802.20415	0.34702
2800.27559	0.34212
2798.34702	0.33732
2796.41846	0.33257
2794.48989	0.32787
2792.56133	0.32331
2790.63276	0.31884
2788.70420	0.31436
2786.77563	0.30985
2784.84707	0.30548
2782.91851	0.30137
2780.98994	0.29734
2779.06138	0.29338
2777.13281	0.28958
2775.20425	0.28576
2773.27568	0.28189
2771.34712	0.27811
2769.41855	0.27443
2767.48999	0.27090
2765.56143	0.26747
2763.63286	0.26407
2761.70430	0.26075
2759.77573	0.25749
2757.84717	0.25425
2755.91860	0.25104
2753.99004	0.24791
2752.06147	0.24490
2750.13291	0.24191
2748.20435	0.23895
2746.27578	0.23608
2744.34722	0.23332
2742.41865	0.23062
2740.49009	0.22793
2738.56152	0.22530
2736.63296	0.22281
2734.70439	0.22033
2732.77583	0.21783
2730.84727	0.21545
2728.91870	0.21322
2726.99014	0.21098
2725.06157	0.20865
2723.13301	0.20645
2721.20444	0.20446
2719.27588	0.20253
2717.34731	0.20060
2715.41875	0.19872
2713.49019	0.19695
2711.56162	0.19511
2709.63306	0.19314
2707.70449	0.19134
2705.77593	0.18984
2703.84736	0.18838
2701.91880	0.18679
2699.99023	0.18520
2698.06167	0.18371
2696.13311	0.18220
2694.20454	0.18073
2692.27598	0.17942
2690.34741	0.17811
2688.41885	0.17674
2686.49028	0.17554
2684.56172	0.17451
2682.63315	0.17341
2680.70459	0.17222
2678.77603	0.17113
2676.84746	0.17020
2674.91890	0.16924
2672.99033	0.16818
2671.06177	0.16722
2669.13320	0.16632
2667.20464	0.16525
2665.27607	0.16405
2663.34751	0.16303
2661.41895	0.16228
2659.49038	0.16156
2657.56182	0.16076
2655.63325	0.15998
2653.70469	0.15934
2651.77612	0.15873
2649.84756	0.15807
2647.91899	0.15745
2645.99043	0.15696
2644.06187	0.15658
2642.13330	0.15620
2640.20474	0.15571
2638.27617	0.15516
2636.34761	0.15469
2634.41904	0.15425
2632.49048	0.15382
2630.56191	0.15342
2628.63335	0.15304
2626.70479	0.15264
2624.77622	0.15221
2622.84766	0.15185
2620.91909	0.15158
2618.99053	0.15135
2617.06196	0.15122
2615.13340	0.15113
2613.20483	0.15100
2611.27627	0.15093
2609.34771	0.15091
2607.41914	0.15086
2605.49058	0.15081
2603.56201	0.15078
2601.63345	0.15077
2599.70488	0.15076
2597.77632	0.15076
2595.84775	0.15081
2593.91919	0.15087
2591.99062	0.15100
2590.06206	0.15124
2588.13350	0.15142
2586.20493	0.15157
2584.27637	0.15178
2582.34780	0.15199
2580.41924	0.15218
2578.49067	0.15249
2576.56211	0.15287
2574.63354	0.15326
2572.70498	0.15364
2570.77642	0.15401
2568.84785	0.15438
2566.91929	0.15479
2564.99072	0.15522
2563.06216	0.15572
2561.13359	0.15623
2559.20503	0.15658
2557.27646	0.15689
2555.34790	0.15737
2553.41934	0.15791
2551.49077	0.15841
2549.56221	0.15895
2547.63364	0.15958
2545.70508	0.16027
2543.77651	0.16090
2541.84795	0.16144
2539.91938	0.16195
2537.99082	0.16258
2536.06226	0.16336
2534.13369	0.16419
2532.20513	0.16492
2530.27656	0.16550
2528.34800	0.16605
2526.41943	0.16669
2524.49087	0.16737
2522.56230	0.16810
2520.63374	0.16897
2518.70518	0.16989
2516.77661	0.17069
2514.84805	0.17140
2512.91948	0.17215
2510.99092	0.17300
2509.06235	0.17387
2507.13379	0.17466
2505.20522	0.17549
2503.27666	0.17643
2501.34810	0.17738
2499.41953	0.17826
2497.49097	0.17907
2495.56240	0.17978
2493.63384	0.18048
2491.70527	0.18131
2489.77671	0.18224
2487.84814	0.18321
2485.91958	0.18417
2483.99102	0.18503
2482.06245	0.18584
2480.13389	0.18675
2478.20532	0.18769
2476.27676	0.18850
2474.34819	0.18928
2472.41963	0.19012
2470.49106	0.19108
2468.56250	0.19213
2466.63394	0.19322
2464.70537	0.19429
2462.77681	0.19515
2460.84824	0.19591
2458.91968	0.19677
2456.99111	0.19762
2455.06255	0.19845
2453.13398	0.19949
2451.20542	0.20055
2449.27686	0.20153
2447.34829	0.20267
2445.41973	0.20386
2443.49116	0.20490
2441.56260	0.20593
2439.63403	0.20697
2437.70547	0.20790
2435.77690	0.20885
2433.84834	0.20999
2431.91978	0.21121
2429.99121	0.21237
2428.06265	0.21345
2426.13408	0.21454
2424.20552	0.21564
2422.27695	0.21678
2420.34839	0.21791
2418.41982	0.21902
2416.49126	0.22013
2414.56270	0.22119
2412.63413	0.22218
2410.70557	0.22322
2408.77700	0.22444
2406.84844	0.22573
2404.91987	0.22701
2402.99131	0.22835
2401.06274	0.22965
2399.13418	0.23074
2397.20562	0.23186
2395.27705	0.23317
2393.34849	0.23443
2391.41992	0.23562
2389.49136	0.23687
2387.56279	0.23810
2385.63423	0.23920
2383.70566	0.24027
2381.77710	0.24133
2379.84854	0.24223
2377.91997	0.24286
2375.99141	0.24311
2374.06284	0.24312
2372.13428	0.24321
2370.20571	0.24333
2368.27715	0.24328
2366.34858	0.24334
2364.42002	0.24370
2362.49146	0.24487
2360.56289	0.24679
2358.63433	0.24839
2356.70576	0.25066
2354.77720	0.25412
2352.84863	0.25758
2350.92007	0.26061
2348.99150	0.26263
2347.06294	0.26342
2345.13437	0.26375
2343.20581	0.26480
2341.27725	0.26659
2339.34868	0.26804
2337.42012	0.26930
2335.49155	0.27112
2333.56299	0.27326
2331.63442	0.27548
2329.70586	0.27769
2327.77729	0.27967
2325.84873	0.28136
2323.92017	0.28320
2321.99160	0.28555
2320.06304	0.28811
2318.13447	0.29054
2316.20591	0.29282
2314.27734	0.29504
2312.34878	0.29710
2310.42021	0.29910
2308.49165	0.30124
2306.56309	0.30337
2304.63452	0.30538
2302.70596	0.30734
2300.77739	0.30927
2298.84883	0.31121
2296.92026	0.31321
2294.99170	0.31523
2293.06313	0.31727
2291.13457	0.31939
2289.20601	0.32164
2287.27744	0.32388
2285.34888	0.32590
2283.42031	0.32782
2281.49175	0.32986
2279.56318	0.33193
2277.63462	0.33396
2275.70605	0.33600
2273.77749	0.33809
2271.84893	0.34018
2269.92036	0.34228
2267.99180	0.34445
2266.06323	0.34665
2264.13467	0.34885
2262.20610	0.35098
2260.27754	0.35306
2258.34897	0.35522
2256.42041	0.35748
2254.49185	0.35980
2252.56328	0.36210
2250.63472	0.36430
2248.70615	0.36647
2246.77759	0.36871
2244.84902	0.37100
2242.92046	0.37323
2240.99189	0.37545
2239.06333	0.37776
2237.13477	0.38009
2235.20620	0.38242
2233.27764	0.38471
2231.34907	0.38691
2229.42051	0.38911
2227.49194	0.39142
2225.56338	0.39379
2223.63481	0.39611
2221.70625	0.39828
2219.77769	0.40043
2217.84912	0.40260
2215.92056	0.40477
2213.99199	0.40701
2212.06343	0.40931
2210.13486	0.41153
2208.20630	0.41371
2206.27773	0.41593
2204.34917	0.41817
2202.42061	0.42031
2200.49204	0.42230
2198.56348	0.42418
2196.63491	0.42610
2194.70635	0.42813
2192.77778	0.43013
2190.84922	0.43202
2188.92065	0.43389
2186.99209	0.43580
2185.06353	0.43765
2183.13496	0.43934
2181.20640	0.44091
2179.27783	0.44250
2177.34927	0.44407
2175.42070	0.44570
2173.49214	0.44737
2171.56357	0.44886
2169.63501	0.45027
2167.70645	0.45174
2165.77788	0.45305
2163.84932	0.45418
2161.92075	0.45540
2159.99219	0.45662
2158.06362	0.45764
2156.13506	0.45850
2154.20649	0.45938
2152.27793	0.46033
2150.34937	0.46119
2148.42080	0.46185
2146.49224	0.46233
2144.56367	0.46273
2142.63511	0.46316
2140.70654	0.46361
2138.77798	0.46401
2136.84941	0.46421
2134.92085	0.46420
2132.99229	0.46416
2131.06372	0.46414
2129.13516	0.46401
2127.20659	0.46379
2125.27803	0.46357
2123.34946	0.46331
2121.42090	0.46294
2119.49233	0.46238
2117.56377	0.46170
2115.63521	0.46098
2113.70664	0.46023
2111.77808	0.45939
2109.84951	0.45841
2107.92095	0.45735
2105.99238	0.45623
2104.06382	0.45508
2102.13525	0.45388
2100.20669	0.45259
2098.27812	0.45118
2096.34956	0.44962
2094.42100	0.44796
2092.49243	0.44635
2090.56387	0.44476
2088.63530	0.44300
2086.70674	0.44108
2084.77817	0.43909
2082.84961	0.43715
2080.92104	0.43522
2078.99248	0.43322
2077.06392	0.43114
2075.13535	0.42899
2073.20679	0.42683
2071.27822	0.42467
2069.34966	0.42250
2067.42109	0.42028
2065.49253	0.41796
2063.56396	0.41541
2061.63540	0.41281
2059.70684	0.41036
2057.77827	0.40787
2055.84971	0.40526
2053.92114	0.40269
2051.99258	0.40017
2050.06401	0.39755
2048.13545	0.39488
2046.20688	0.39227
2044.27832	0.38974
2042.34976	0.38711
2040.42119	0.38430
2038.49263	0.38145
2036.56406	0.37868
2034.63550	0.37594
2032.70693	0.37311
2030.77837	0.37022
2028.84980	0.36735
2026.92124	0.36451
2024.99268	0.36163
2023.06411	0.35879
2021.13555	0.35610
2019.20698	0.35355
2017.27842	0.35097
2015.34985	0.34808
2013.42129	0.34504
2011.49272	0.34208
2009.56416	0.33927
2007.63560	0.33652
2005.70703	0.33379
2003.77847	0.33117
2001.84990	0.32864
1999.92134	0.32609
1997.99277	0.32342
1996.06421	0.32074
1994.13564	0.31835
1992.20708	0.31614
1990.27852	0.31366
1988.34995	0.31095
1986.42139	0.30825
1984.49282	0.30560
1982.56426	0.30310
1980.63569	0.30072
1978.70713	0.29839
1976.77856	0.29608
1974.85000	0.29383
1972.92144	0.29166
1970.99287	0.28959
1969.06431	0.28767
1967.13574	0.28579
1965.20718	0.28365
1963.27861	0.28143
1961.35005	0.27946
1959.42148	0.27762
1957.49292	0.27572
1955.56436	0.27381
1953.63579	0.27199
1951.70723	0.27023
1949.77866	0.26849
1947.85010	0.26685
1945.92153	0.26547
1943.99297	0.26440
1942.06440	0.26319
1940.13584	0.26141
1938.20728	0.25955
1936.27871	0.25803
1934.35015	0.25671
1932.42158	0.25550
1930.49302	0.25431
1928.56445	0.25318
1926.63589	0.25216
1924.70732	0.25141
1922.77876	0.25078
1920.85020	0.24986
1918.92163	0.24885
1916.99307	0.24781
1915.06450	0.24652
1913.13594	0.24544
1911.20737	0.24488
1909.27881	0.24445
1907.35024	0.24373
1905.42168	0.24279
1903.49312	0.24198
1901.56455	0.24139
1899.63599	0.24094
1897.70742	0.24065
1895.77886	0.24044
1893.85029	0.24010
1891.92173	0.23975
1889.99316	0.23984
1888.06460	0.23976
1886.13604	0.23911
1884.20747	0.23851
1882.27891	0.23816
1880.35034	0.23798
1878.42178	0.23789
1876.49321	0.23787
1874.56465	0.23791
1872.63608	0.23818
1870.70752	0.23899
1868.77896	0.24030
1866.85039	0.24071
1864.92183	0.23996
1862.99326	0.23937
1861.06470	0.23939
1859.13613	0.23972
1857.20757	0.24001
1855.27900	0.24037
1853.35044	0.24083
1851.42187	0.24146
1849.49331	0.24233
1847.56475	0.24346
1845.63618	0.24486
1843.70762	0.24616
1841.77905	0.24653
1839.85049	0.24646
1837.92192	0.24703
1835.99336	0.24793
1834.06479	0.24887
1832.13623	0.25016
1830.20767	0.25218
1828.27910	0.25394
1826.35054	0.25483
1824.42197	0.25583
1822.49341	0.25674
1820.56484	0.25766
1818.63628	0.25899
1816.70771	0.26064
1814.77915	0.26231
1812.85059	0.26426
1810.92202	0.26656
1808.99346	0.26861
1807.06489	0.27040
1805.13633	0.27231
1803.20776	0.27478
1801.27920	0.27765
1799.35063	0.28056
1797.42207	0.28304
1795.49351	0.28560
1793.56494	0.28892
1791.63638	0.29288
1789.70781	0.29583
1787.77925	0.29785
1785.85068	0.30086
1783.92212	0.30470
1781.99355	0.30883
1780.06499	0.31316
1778.13643	0.31744
1776.20786	0.32166
1774.27930	0.32667
1772.35073	0.33325
1770.42217	0.33944
1768.49360	0.34411
1766.56504	0.34872
1764.63647	0.35381
1762.70791	0.35988
1760.77935	0.36751
1758.85078	0.37457
1756.92222	0.38171
1754.99365	0.38949
1753.06509	0.39681
1751.13652	0.40583
1749.20796	0.41677
1747.27939	0.42683
1745.35083	0.43540
1743.42227	0.44455
1741.49370	0.45483
1739.56514	0.46705
1737.63657	0.47953
1735.70801	0.49115
1733.77944	0.50836
1731.85088	0.52778
1729.92231	0.54283
1727.99375	0.55810
1726.06519	0.57484
1724.13662	0.59357
1722.20806	0.61403
1720.27949	0.63360
1718.35093	0.65709
1716.42236	0.69004
1714.49380	0.71978
1712.56523	0.74368
1710.63667	0.76756
1708.70811	0.79396
1706.77954	0.82425
1704.85098	0.85976
1702.92241	0.89153
1700.99385	0.92374
1699.06528	0.97063
1697.13672	1.01307
1695.20815	1.05619
1693.27959	1.09895
1691.35103	1.13460
1689.42246	1.17600
1687.49390	1.21964
1685.56533	1.26273
1683.63677	1.32758
1681.70820	1.39319
1679.77964	1.43541
1677.85107	1.47609
1675.92251	1.52382
1673.99395	1.58255
1672.06538	1.63514
1670.13682	1.68736
1668.20825	1.75415
1666.27969	1.80911
1664.35112	1.85705
1662.42256	1.91713
1660.49399	1.98425
1658.56543	2.03733
1656.63687	2.08142
1654.70830	2.12291
1652.77974	2.18304
1650.85117	2.23716
1648.92261	2.25602
1646.99404	2.27974
1645.06548	2.30680
1643.13691	2.32503
1641.20835	2.33459
1639.27979	2.34371
1637.35122	2.35075
1635.42266	2.35107
1633.49409	2.34160
1631.56553	2.32574
1629.63696	2.30736
1627.70840	2.27822
1625.77983	2.24406
1623.85127	2.20104
1621.92271	2.14879
1619.99414	2.10156
1618.06558	2.05522
1616.13701	1.99023
1614.20845	1.92272
1612.27988	1.87092
1610.35132	1.81896
1608.42275	1.76325
1606.49419	1.70731
1604.56562	1.65485
1602.63706	1.60455
1600.70850	1.55611
1598.77993	1.51120
1596.85137	1.46885
1594.92280	1.42844
1592.99424	1.38985
1591.06567	1.35439
1589.13711	1.32130
1587.20854	1.29072
1585.27998	1.26273
1583.35142	1.23674
1581.42285	1.21312
1579.49429	1.19338
1577.56572	1.17644
1575.63716	1.15650
1573.70859	1.13829
1571.78003	1.12644
1569.85146	1.11546
1567.92290	1.10336
1565.99434	1.09387
1564.06577	1.08742
1562.13721	1.08360
1560.20864	1.08311
1558.28008	1.08586
1556.35151	1.08735
1554.42295	1.08725
1552.49438	1.08709
1550.56582	1.08562
1548.63726	1.08177
1546.70869	1.07586
1544.78013	1.06806
1542.85156	1.05762
1540.92300	1.04117
1538.99443	1.01356
1537.06587	0.99102
1535.13730	0.97605
1533.20874	0.95797
1531.28018	0.93829
1529.35161	0.92356
1527.42305	0.91033
1525.49448	0.89682
1523.56592	0.88519
1521.63735	0.87457
1519.70879	0.86379
1517.78022	0.85410
1515.85166	0.84233
1513.92310	0.82937
1511.99453	0.81844
1510.06597	0.80981
1508.13740	0.80253
1506.20884	0.78958
1504.28027	0.77518
1502.35171	0.76660
1500.42314	0.76014
1498.49458	0.75388
1496.56602	0.74647
1494.63745	0.73853
1492.70889	0.73251
1490.78032	0.72809
1488.85176	0.72300
1486.92319	0.71689
1484.99463	0.71141
1483.06606	0.70742
1481.13750	0.70455
1479.20894	0.70239
1477.28037	0.70132
1475.35181	0.70149
1473.42324	0.70197
1471.49468	0.70028
1469.56611	0.69655
1467.63755	0.69334
1465.70898	0.69138
1463.78042	0.69013
1461.85186	0.68914
1459.92329	0.68903
1457.99473	0.69001
1456.06616	0.68980
1454.13760	0.68702
1452.20903	0.68401
1450.28047	0.68132
1448.35190	0.67896
1446.42334	0.67637
1444.49478	0.67355
1442.56621	0.67099
1440.63765	0.66869
1438.70908	0.66667
1436.78052	0.66428
1434.85195	0.66077
1432.92339	0.65758
1430.99482	0.65568
1429.06626	0.65454
1427.13770	0.65386
1425.20913	0.65394
1423.28057	0.65448
1421.35200	0.65497
1419.42344	0.65571
1417.49487	0.65566
1415.56631	0.65410
1413.63774	0.65286
1411.70918	0.65266
1409.78062	0.65325
1407.85205	0.65430
1405.92349	0.65579
1403.99492	0.65712
1402.06636	0.65736
1400.13779	0.65684
1398.20923	0.65577
1396.28066	0.65372
1394.35210	0.65030
1392.42354	0.64598
1390.49497	0.64196
1388.56641	0.63821
1386.63784	0.63366
1384.70928	0.62845
1382.78071	0.62363
1380.85215	0.61937
1378.92358	0.61575
1376.99502	0.61314
1375.06646	0.61149
1373.13789	0.60998
1371.20933	0.60846
1369.28076	0.60729
1367.35220	0.60604
1365.42363	0.60465
1363.49507	0.60357
1361.56650	0.60234
1359.63794	0.60057
1357.70937	0.59897
1355.78081	0.59776
1353.85225	0.59666
1351.92368	0.59575
1349.99512	0.59510
1348.06655	0.59436
1346.13799	0.59344
1344.20942	0.59266
1342.28086	0.59226
1340.35229	0.59225
1338.42373	0.59201
1336.49517	0.59114
1334.56660	0.59030
1332.63804	0.58993
1330.70947	0.58980
1328.78091	0.58985
1326.85234	0.59029
1324.92378	0.59102
1322.99521	0.59172
1321.06665	0.59232
1319.13809	0.59281
1317.20952	0.59291
1315.28096	0.59270
1313.35239	0.59244
1311.42383	0.59199
1309.49526	0.59130
1307.56670	0.59068
1305.63813	0.59014
1303.70957	0.58954
1301.78101	0.58894
1299.85244	0.58813
1297.92388	0.58705
1295.99531	0.58585
1294.06675	0.58470
1292.13818	0.58357
1290.20962	0.58235
1288.28105	0.58108
1286.35249	0.57980
1284.42393	0.57846
1282.49536	0.57709
1280.56680	0.57584
1278.63823	0.57473
1276.70967	0.57368
1274.78110	0.57266
1272.85254	0.57177
1270.92397	0.57098
1268.99541	0.57014
1267.06685	0.56927
1265.13828	0.56856
1263.20972	0.56795
1261.28115	0.56730
1259.35259	0.56662
1257.42402	0.56602
1255.49546	0.56566
1253.56689	0.56563
1251.63833	0.56579
1249.70977	0.56595
1247.78120	0.56605
1245.85264	0.56596
1243.92407	0.56552
1241.99551	0.56473
1240.06694	0.56357
1238.13838	0.56195
1236.20981	0.55995
1234.28125	0.55785
1232.35269	0.55591
1230.42412	0.55410
1228.49556	0.55222
1226.56699	0.55023
1224.63843	0.54839
1222.70986	0.54679
1220.78130	0.54537
1218.85273	0.54409
1216.92417	0.54290
1214.99561	0.54179
1213.06704	0.54086
1211.13848	0.54013
1209.20991	0.53944
1207.28135	0.53870
1205.35278	0.53792
1203.42422	0.53706
1201.49565	0.53605
1199.56709	0.53504
1197.63853	0.53431
1195.70996	0.53389
1193.78140	0.53344
1191.85283	0.53277
1189.92427	0.53223
1187.99570	0.53208
1186.06714	0.53201
1184.13857	0.53194
1182.21001	0.53214
1180.28145	0.53280
1178.35288	0.53389
1176.42432	0.53517
1174.49575	0.53625
1172.56719	0.53690
1170.63862	0.53706
1168.71006	0.53689
1166.78149	0.53657
1164.85293	0.53618
1162.92437	0.53576
1160.99580	0.53525
1159.06724	0.53458
1157.13867	0.53376
1155.21011	0.53276
1153.28154	0.53143
1151.35298	0.52962
1149.42441	0.52742
1147.49585	0.52502
1145.56729	0.52245
1143.63872	0.51985
1141.71016	0.51751
1139.78159	0.51542
1137.85303	0.51345
1135.92446	0.51176
1133.99590	0.51056
1132.06733	0.50964
1130.13877	0.50876
1128.21021	0.50787
1126.28164	0.50687
1124.35308	0.50586
1122.42451	0.50508
1120.49595	0.50463
1118.56738	0.50442
1116.63882	0.50439
1114.71025	0.50453
1112.78169	0.50465
1110.85312	0.50477
1108.92456	0.50520
1106.99600	0.50615
1105.06743	0.50767
1103.13887	0.50938
1101.21030	0.51092
1099.28174	0.51269
1097.35317	0.51515
1095.42461	0.51819
1093.49604	0.52153
1091.56748	0.52546
1089.63892	0.53027
1087.71035	0.53582
1085.78179	0.54194
1083.85322	0.54834
1081.92466	0.55457
1079.99609	0.55988
1078.06753	0.56301
1076.13896	0.56328
1074.21040	0.56101
1072.28184	0.55687
1070.35327	0.55123
1068.42471	0.54459
1066.49614	0.53794
1064.56758	0.53174
1062.63901	0.52603
1060.71045	0.52085
1058.78188	0.51625
1056.85332	0.51220
1054.92476	0.50853
1052.99619	0.50518
1051.06763	0.50233
1049.13906	0.49986
1047.21050	0.49755
1045.28193	0.49561
1043.35337	0.49426
1041.42480	0.49328
1039.49624	0.49240
1037.56768	0.49172
1035.63911	0.49132
1033.71055	0.49108
1031.78198	0.49089
1029.85342	0.49070
1027.92485	0.49053
1025.99629	0.49047
1024.06772	0.49058
1022.13916	0.49092
1020.21060	0.49147
1018.28203	0.49211
1016.35347	0.49286
1014.42490	0.49378
1012.49634	0.49481
1010.56777	0.49602
1008.63921	0.49730
1006.71064	0.49862
1004.78208	0.50035
1002.85352	0.50271
1000.92495	0.50560
998.99639	0.50888
997.06782	0.51255
995.13926	0.51655
993.21069	0.52057
991.28213	0.52417
989.35356	0.52687
987.42500	0.52847
985.49644	0.52940
983.56787	0.53019
981.63931	0.53112
979.71074	0.53243
977.78218	0.53431
975.85361	0.53667
973.92505	0.53924
971.99648	0.54209
970.06792	0.54548
968.13936	0.54946
966.21079	0.55379
964.28223	0.55816
962.35366	0.56270
960.42510	0.56783
958.49653	0.57340
956.56797	0.57897
954.63940	0.58472
952.71084	0.59093
950.78228	0.59744
948.85371	0.60407
946.92515	0.61077
944.99658	0.61744
943.06802	0.62387
941.13945	0.62996
939.21089	0.63600
937.28232	0.64205
935.35376	0.64787
933.42520	0.65333
931.49663	0.65858
929.56807	0.66416
927.63950	0.67022
925.71094	0.67653
923.78237	0.68287
921.85381	0.68921
919.92524	0.69574
917.99668	0.70248
916.06812	0.70961
914.13955	0.71749
912.21099	0.72578
910.28242	0.73384
908.35386	0.74173
906.42529	0.75002
904.49673	0.75916
902.56816	0.76919
900.63960	0.77930
898.71104	0.78875
896.78247	0.79773
894.85391	0.80709
892.92534	0.81711
890.99678	0.82773
889.06821	0.83908
887.13965	0.85068
885.21108	0.86257
883.28252	0.87492
881.35396	0.88709
879.42539	0.89884
877.49683	0.90973
875.56826	0.91957
873.63970	0.93021
871.71113	0.94317
869.78257	0.95632
867.85400	0.96768
865.92544	0.97833
863.99687	0.98941
862.06831	1.00082
860.13975	1.01202
858.21118	1.02332
856.28262	1.03521
854.35405	1.04757
852.42549	1.05997
850.49692	1.07216
848.56836	1.08457
846.63979	1.09775
844.71123	1.11177
842.78267	1.12463
840.85410	1.13434
838.92554	1.14344
836.99697	1.15472
835.06841	1.16626
833.13984	1.17762
831.21128	1.19267
829.28271	1.21035
827.35415	1.22377
825.42559	1.23230
823.49702	1.24240
821.56846	1.25492
819.63989	1.26551
817.71133	1.27598
815.78276	1.28693
813.85420	1.29377
811.92563	1.30371
809.99707	1.31862
808.06851	1.32900
806.13994	1.34252
804.21138	1.36793
802.28281	1.39793
800.35425	1.41156
798.42568	1.40760
796.49712	1.42262
794.56855	1.45068
792.63999	1.43964
790.71143	1.41826
788.78286	1.42852
786.85430	1.44844
784.92573	1.47021
782.99717	1.49871
781.06860	1.55353
779.14004	1.69832
777.21147	1.79933
775.28291	1.60235
773.35435	1.47263
771.42578	1.53301
769.49722	1.65163
767.56865	1.55743
765.64009	1.45213
763.71152	1.39950
761.78296	1.38407
759.85439	1.41108
757.92583	1.40632
755.99727	1.35967
754.06870	1.31073
752.14014	1.32968
750.21157	1.41229
748.28301	1.37218
746.35444	1.19413
744.42588	1.05177
742.49731	0.97729
740.56875	0.99735
738.64019	1.15716
736.71162	1.49565
734.78306	1.31092
732.85449	0.82624
730.92593	0.57397
728.99736	0.45794
727.06880	0.42655
725.14023	0.40353
723.21167	0.24766
721.28311	0.04921
719.35454	-0.06283
717.42598	-0.09628
715.49741	-0.06614
713.56885	-0.02386
711.64028	-0.02263
709.71172	-0.04223
707.78315	-0.01658
705.85459	0.08038
703.92603	0.15902
701.99746	0.14568
700.06890	0.17802
698.14033	0.28244
696.21177	0.32778
694.28320	0.35749
692.35464	0.46434
690.42607	0.49061
688.49751	0.38523
686.56895	0.34269
684.64038	0.36879
682.71182	0.35302
680.78325	0.32207
678.85469	0.34100
676.92612	0.36486
674.99756	0.36644
673.06899	0.35799
671.14043	0.33940
669.21187	0.32582
667.28330	0.30107
665.35474	0.29704
663.42617	0.35307
661.49761	0.37541
659.56904	0.36137
657.64048	0.44255
655.71191	0.67732
653.78335	0.74900
651.85479	0.57252
649.92622	0.51022
647.99766	0.66702
646.06909	1.10448
644.14053	0.85706
642.21196	0.52837
640.28340	0.34720
638.35483	0.23470
636.42627	0.21466
634.49771	0.32447
632.56914	0.49027
630.64058	0.52780
628.71201	0.43883
626.78345	0.35838
624.85488	0.32380
622.92632	0.32722
620.99775	0.35264
619.06919	0.38862
617.14062	0.42648
615.21206	0.39040
613.28350	0.30676
611.35493	0.25054
609.42637	0.24700
607.49780	0.27363
605.56924	0.27130
603.64067	0.21697
601.71211	0.18496
599.78354	0.22023
597.85498	0.26880
595.92642	0.29711
593.99785	0.29882
592.06929	0.28658
590.14072	0.29109
588.21216	0.30036
586.28359	0.31062
584.35503	0.34415
582.42646	0.37023
580.49790	0.33572
578.56934	0.30638
576.64077	0.32978
574.71221	0.33584
572.78364	0.30070
570.85508	0.26882
568.92651	0.22932
566.99795	0.19132
565.06938	0.19633
563.14082	0.24343
561.21226	0.27400
559.28369	0.23614
557.35513	0.18640
555.42656	0.17508
553.49800	0.20822
551.56943	0.24242
549.64087	0.23275
547.71230	0.23590
545.78374	0.26160
543.85518	0.27517
541.92661	0.28634
539.99805	0.30900
538.06948	0.33122
536.14092	0.33265
534.21235	0.31135
532.28379	0.26084
530.35522	0.21683
528.42666	0.21044
526.49810	0.23002
524.56953	0.23606
522.64097	0.21726
520.71240	0.20220
518.78384	0.20755
516.85527	0.21338
514.92671	0.19705
512.99814	0.18528
511.06958	0.21729
509.14102	0.29211
507.21245	0.34424
505.28389	0.29323
503.35532	0.22877
501.42676	0.20412
499.49819	0.21781
