3997.91411	0.06540
3995.98555	0.06538
3994.05698	0.06551
3992.12842	0.06571
3990.19985	0.06569
3988.27129	0.06557
3986.34272	0.06574
3984.41416	0.06617
3982.48560	0.06678
3980.55703	0.06750
3978.62847	0.06807
3976.69990	0.06847
3974.77134	0.06877
3972.84277	0.06886
3970.91421	0.06869
3968.98564	0.06854
3967.05708	0.06864
3965.12852	0.06888
3963.19995	0.06914
3961.27139	0.06945
3959.34282	0.06973
3957.41426	0.06980
3955.48569	0.06972
3953.55713	0.06957
3951.62856	0.06944
3949.70000	0.06937
3947.77144	0.06920
3945.84287	0.06912
3943.91431	0.06953
3941.98574	0.07008
3940.05718	0.06996
3938.12861	0.06932
3936.20005	0.06899
3934.27148	0.06922
3932.34292	0.06974
3930.41436	0.07005
3928.48579	0.06985
3926.55723	0.06983
3924.62866	0.07035
3922.70010	0.07037
3920.77153	0.06969
3918.84297	0.06949
3916.91440	0.06974
3914.98584	0.06961
3913.05728	0.06936
3911.12871	0.06918
3909.20015	0.06878
3907.27158	0.06839
3905.34302	0.06847
3903.41445	0.06917
3901.48589	0.06962
3899.55732	0.06931
3897.62876	0.06913
3895.70020	0.06915
3893.77163	0.06923
3891.84307	0.06944
3889.91450	0.06959
3887.98594	0.06944
3886.05737	0.06929
3884.12881	0.06946
3882.20024	0.06964
3880.27168	0.06986
3878.34312	0.07029
3876.41455	0.07058
3874.48599	0.07063
3872.55742	0.07060
3870.62886	0.07074
3868.70029	0.07109
3866.77173	0.07127
3864.84316	0.07147
3862.91460	0.07205
3860.98604	0.07273
3859.05747	0.07308
3857.12891	0.07314
3855.20034	0.07326
3853.27178	0.07405
3851.34321	0.07540
3849.41465	0.07561
3847.48608	0.07530
3845.55752	0.07526
3843.62896	0.07567
3841.70039	0.07655
3839.77183	0.07771
3837.84326	0.07893
3835.91470	0.07970
3833.98613	0.08009
3832.05757	0.08060
3830.12900	0.08107
3828.20044	0.08125
3826.27187	0.08164
3824.34331	0.08252
3822.41475	0.08347
3820.48618	0.08454
3818.55762	0.08525
3816.62905	0.08567
3814.70049	0.08696
3812.77192	0.08842
3810.84336	0.08906
3808.91479	0.08963
3806.98623	0.09087
3805.05767	0.09243
3803.12910	0.09370
3801.20054	0.09507
3799.27197	0.09632
3797.34341	0.09715
3795.41484	0.09830
3793.48628	0.09973
3791.55771	0.10103
3789.62915	0.10208
3787.70059	0.10304
3785.77202	0.10449
3783.84346	0.10631
3781.91489	0.10771
3779.98633	0.10890
3778.05776	0.11057
3776.12920	0.11236
3774.20063	0.11391
3772.27207	0.11544
3770.34351	0.11736
3768.41494	0.11991
3766.48638	0.12220
3764.55781	0.12388
3762.62925	0.12542
3760.70068	0.12741
3758.77212	0.13012
3756.84355	0.13295
3754.91499	0.13516
3752.98643	0.13681
3751.05786	0.13901
3749.12930	0.14260
3747.20073	0.14559
3745.27217	0.14800
3743.34360	0.15202
3741.41504	0.15596
3739.48647	0.15850
3737.55791	0.16152
3735.62935	0.16621
3733.70078	0.17210
3731.77222	0.17750
3729.84365	0.18206
3727.91509	0.18624
3725.98652	0.19127
3724.05796	0.19744
3722.12939	0.20400
3720.20083	0.21126
3718.27227	0.21942
3716.34370	0.22800
3714.41514	0.23621
3712.48657	0.24504
3710.55801	0.25746
3708.62944	0.27223
3706.70088	0.28489
3704.77231	0.29633
3702.84375	0.30945
3700.91519	0.32652
3698.98662	0.34539
3697.05806	0.36345
3695.12949	0.38238
3693.20093	0.40242
3691.27236	0.42428
3689.34380	0.45221
3687.41523	0.48653
3685.48667	0.51776
3683.55811	0.54517
3681.62954	0.57429
3679.70098	0.60662
3677.77241	0.63994
3675.84385	0.67878
3673.91528	0.73110
3671.98672	0.77531
3670.05815	0.81502
3668.12959	0.86891
3666.20103	0.91904
3664.27246	0.96098
3662.34390	1.00533
3660.41533	1.05338
3658.48677	1.10094
3656.55820	1.15080
3654.62964	1.20602
3652.70107	1.25321
3650.77251	1.29430
3648.84395	1.34943
3646.91538	1.41628
3644.98682	1.46706
3643.05825	1.50711
3641.12969	1.54813
3639.20112	1.59298
3637.27256	1.63808
3635.34399	1.68227
3633.41543	1.72625
3631.48687	1.76639
3629.55830	1.80624
3627.62974	1.85936
3625.70117	1.91087
3623.77261	1.94621
3621.84404	1.97936
3619.91548	2.01756
3617.98691	2.06415
3616.05835	2.10821
3614.12979	2.14395
3612.20122	2.18214
3610.27266	2.22224
3608.34409	2.26362
3606.41553	2.30713
3604.48696	2.34614
3602.55840	2.38095
3600.62983	2.41906
3598.70127	2.45932
3596.77271	2.49808
3594.84414	2.53911
3592.91558	2.58297
3590.98701	2.62360
3589.05845	2.66008
3587.12988	2.70260
3585.20132	2.75012
3583.27275	2.79256
3581.34419	2.83277
3579.41562	2.87450
3577.48706	2.91658
3575.55850	2.95840
3573.62993	3.00156
3571.70137	3.04372
3569.77280	3.08416
3567.84424	3.12729
3565.91567	3.17849
3563.98711	3.22854
3562.05854	3.27182
3560.12998	3.31418
3558.20142	3.35816
3556.27285	3.40400
3554.34429	3.44921
3552.41572	3.49608
3550.48716	3.54488
3548.55859	3.59094
3546.63003	3.63458
3544.70146	3.68134
3542.77290	3.73120
3540.84434	3.78017
3538.91577	3.82719
3536.98721	3.87265
3535.05864	3.92017
3533.13008	3.96952
3531.20151	4.01837
3529.27295	4.06603
3527.34438	4.11532
3525.41582	4.16448
3523.48726	4.21058
3521.55869	4.25853
3519.63013	4.30891
3517.70156	4.36004
3515.77300	4.40867
3513.84443	4.45437
3511.91587	4.50202
3509.98730	4.55369
3508.05874	4.60638
3506.13018	4.65687
3504.20161	4.70599
3502.27305	4.75471
3500.34448	4.80124
3498.41592	4.84627
3496.48735	4.89596
3494.55879	4.94856
3492.63022	4.99646
3490.70166	5.04064
3488.77310	5.08853
3486.84453	5.14245
3484.91597	5.19503
3482.98740	5.24570
3481.05884	5.30069
3479.13027	5.35169
3477.20171	5.39296
3475.27314	5.43600
3473.34458	5.48422
3471.41602	5.52840
3469.48745	5.56981
3467.55889	5.61878
3465.63032	5.67489
3463.70176	5.72865
3461.77319	5.77388
3459.84463	5.81531
3457.91606	5.86104
3455.98750	5.91881
3454.05894	5.98238
3452.13037	6.03494
3450.20181	6.08067
3448.27324	6.13426
3446.34468	6.19883
3444.41611	6.25964
3442.48755	6.30874
3440.55898	6.35308
3438.63042	6.40375
3436.70186	6.45693
3434.77329	6.49952
3432.84473	6.54316
3430.91616	6.59525
3428.98760	6.64475
3427.05903	6.69169
3425.13047	6.74270
3423.20190	6.79166
3421.27334	6.83914
3419.34478	6.87751
3417.41621	6.91915
3415.48765	6.98971
3413.55908	7.06489
3411.63052	7.11339
3409.70195	7.13588
3407.77339	7.17839
3405.84482	7.26394
3403.91626	7.34375
3401.98770	7.35659
3400.05913	7.33249
3398.13057	7.34065
3396.20200	7.39606
3394.27344	7.45936
3392.34487	7.47438
3390.41631	7.48196
3388.48774	7.53041
3386.55918	7.59525
3384.63062	7.62452
3382.70205	7.63351
3380.77349	7.67895
3378.84492	7.73630
3376.91636	7.77031
3374.98779	7.79019
3373.05923	7.81520
3371.13066	7.86351
3369.20210	7.96329
3367.27354	8.02067
3365.34497	7.96681
3363.41641	7.93682
3361.48784	8.00951
3359.55928	8.11954
3357.63071	8.15785
3355.70215	8.12667
3353.77358	8.09936
3351.84502	8.12703
3349.91646	8.17173
3347.98789	8.16753
3346.05933	8.11784
3344.13076	8.08529
3342.20220	8.11221
3340.27363	8.17411
3338.34507	8.20427
3336.41650	8.17728
3334.48794	8.23427
3332.55937	8.38329
3330.63081	8.44151
3328.70225	8.35111
3326.77368	8.25365
3324.84512	8.26543
3322.91655	8.31316
3320.98799	8.33181
3319.05942	8.34536
3317.13086	8.36352
3315.20229	8.37910
3313.27373	8.38051
3311.34517	8.31076
3309.41660	8.21538
3307.48804	8.20568
3305.55947	8.25261
3303.63091	8.28760
3301.70234	8.29953
3299.77378	8.30490
3297.84521	8.28558
3295.91665	8.29999
3293.98809	8.39792
3292.05952	8.48166
3290.13096	8.45423
3288.20239	8.34308
3286.27383	8.23950
3284.34526	8.21112
3282.41670	8.35401
3280.48813	8.64178
3278.55957	8.71988
3276.63101	8.44324
3274.70244	8.22536
3272.77388	8.24773
3270.84531	8.37981
3268.91675	8.41968
3266.98818	8.34512
3265.05962	8.33882
3263.13105	8.43007
3261.20249	8.50132
3259.27393	8.48286
3257.34536	8.40842
3255.41680	8.35542
3253.48823	8.37423
3251.55967	8.45292
3249.63110	8.44832
3247.70254	8.35613
3245.77397	8.34195
3243.84541	8.37497
3241.91685	8.33208
3239.98828	8.29453
3238.05972	8.34749
3236.13115	8.41942
3234.20259	8.43249
3232.27402	8.40607
3230.34546	8.36915
3228.41689	8.31421
3226.48833	8.28030
3224.55977	8.29736
3222.63120	8.33798
3220.70264	8.35914
3218.77407	8.34956
3216.84551	8.30884
3214.91694	8.21981
3212.98838	8.11345
3211.05981	8.02761
3209.13125	7.98131
3207.20269	8.00562
3205.27412	8.08809
3203.34556	8.14348
3201.41699	8.09268
3199.48843	7.93568
3197.55986	7.78096
3195.63130	7.74754
3193.70273	7.80763
3191.77417	7.84123
3189.84561	7.80614
3187.91704	7.70909
3185.98848	7.60187
3184.05991	7.57701
3182.13135	7.59176
3180.20278	7.53786
3178.27422	7.46710
3176.34565	7.43805
3174.41709	7.40361
3172.48853	7.34104
3170.55996	7.26074
3168.63140	7.18090
3166.70283	7.11763
3164.77427	7.05165
3162.84570	6.96760
3160.91714	6.89206
3158.98857	6.85349
3157.06001	6.82779
3155.13145	6.76777
3153.20288	6.66486
3151.27432	6.56043
3149.34575	6.48448
3147.41719	6.41050
3145.48862	6.32211
3143.56006	6.24272
3141.63149	6.17630
3139.70293	6.11094
3137.77437	6.04583
3135.84580	5.97650
3133.91724	5.90610
3131.98867	5.83426
3130.06011	5.75217
3128.13154	5.67374
3126.20298	5.60724
3124.27441	5.54081
3122.34585	5.46942
3120.41729	5.39407
3118.48872	5.31462
3116.56016	5.23630
3114.63159	5.16113
3112.70303	5.08895
3110.77446	5.02211
3108.84590	4.95500
3106.91733	4.88496
3104.98877	4.81563
3103.06021	4.74544
3101.13164	4.67340
3099.20308	4.60306
3097.27451	4.53537
3095.34595	4.46859
3093.41738	4.40177
3091.48882	4.33469
3089.56025	4.26857
3087.63169	4.20348
3085.70312	4.13809
3083.77456	4.07311
3081.84600	4.00972
3079.91743	3.94719
3077.98887	3.88419
3076.06030	3.82043
3074.13174	3.75744
3072.20317	3.69666
3070.27461	3.63786
3068.34604	3.58004
3066.41748	3.52200
3064.48892	3.46381
3062.56035	3.40660
3060.63179	3.35084
3058.70322	3.29593
3056.77466	3.24130
3054.84609	3.18663
3052.91753	3.13160
3050.98896	3.07770
3049.06040	3.02540
3047.13184	2.97363
3045.20327	2.92294
3043.27471	2.87346
3041.34614	2.82495
3039.41758	2.77733
3037.48901	2.72950
3035.56045	2.68173
3033.63188	2.63459
3031.70332	2.58785
3029.77476	2.54236
3027.84619	2.49839
3025.91763	2.45517
3023.98906	2.41247
3022.06050	2.37058
3020.13193	2.32891
3018.20337	2.28702
3016.27480	2.24618
3014.34624	2.20674
3012.41768	2.16743
3010.48911	2.12819
3008.56055	2.08996
3006.63198	2.05288
3004.70342	2.01676
3002.77485	1.98121
3000.84629	1.94558
2998.91772	1.91027
2996.98916	1.87609
2995.06060	1.84253
2993.13203	1.80890
2991.20347	1.77552
2989.27490	1.74304
2987.34634	1.71173
2985.41777	1.68100
2983.48921	1.65010
2981.56064	1.61908
2979.63208	1.58862
2977.70352	1.55900
2975.77495	1.52997
2973.84639	1.50139
2971.91782	1.47347
2969.98926	1.44608
2968.06069	1.41854
2966.13213	1.39123
2964.20356	1.36483
2962.27500	1.33903
2960.34644	1.31388
2958.41787	1.28946
2956.48931	1.26520
2954.56074	1.24142
2952.63218	1.21842
2950.70361	1.19564
2948.77505	1.17285
2946.84648	1.15026
2944.91792	1.12832
2942.98936	1.10694
2941.06079	1.08541
2939.13223	1.06418
2937.20366	1.04405
2935.27510	1.02452
2933.34653	1.00496
2931.41797	0.98591
2929.48940	0.96761
2927.56084	0.94942
2925.63228	0.93139
2923.70371	0.91421
2921.77515	0.89778
2919.84658	0.88149
2917.91802	0.86551
2915.98945	0.85013
2914.06089	0.83489
2912.13232	0.81978
2910.20376	0.80520
2908.27520	0.79115
2906.34663	0.77750
2904.41807	0.76418
2902.48950	0.75115
2900.56094	0.73836
2898.63237	0.72558
2896.70381	0.71304
2894.77524	0.70119
2892.84668	0.68971
2890.91812	0.67791
2888.98955	0.66598
2887.06099	0.65454
2885.13242	0.64355
2883.20386	0.63244
2881.27529	0.62104
2879.34673	0.60996
2877.41816	0.59953
2875.48960	0.58923
2873.56104	0.57883
2871.63247	0.56859
2869.70391	0.55856
2867.77534	0.54885
2865.84678	0.53941
2863.91821	0.52993
2861.98965	0.52031
2860.06108	0.51068
2858.13252	0.50143
2856.20396	0.49272
2854.27539	0.48443
2852.34683	0.47654
2850.41826	0.46898
2848.48970	0.46142
2846.56113	0.45377
2844.63257	0.44647
2842.70400	0.43985
2840.77544	0.43370
2838.84687	0.42781
2836.91831	0.42217
2834.98975	0.41668
2833.06118	0.41108
2831.13262	0.40536
2829.20405	0.39961
2827.27549	0.39384
2825.34692	0.38801
2823.41836	0.38222
2821.48979	0.37654
2819.56123	0.37097
2817.63267	0.36549
2815.70410	0.36010
2813.77554	0.35480
2811.84697	0.34948
2809.91841	0.34418
2807.98984	0.33901
2806.06128	0.33385
2804.13271	0.32875
2802.20415	0.32397
2800.27559	0.31942
2798.34702	0.31488
2796.41846	0.31039
2794.48989	0.30602
2792.56133	0.30168
2790.63276	0.29740
2788.70420	0.29321
2786.77563	0.28913
2784.84707	0.28514
2782.91851	0.28121
2780.98994	0.27742
2779.06138	0.27367
2777.13281	0.26990
2775.20425	0.26625
2773.27568	0.26277
2771.34712	0.25946
2769.41855	0.25632
2767.48999	0.25310
2765.56143	0.24971
2763.63286	0.24647
2761.70430	0.24343
2759.77573	0.24040
2757.84717	0.23736
2755.91860	0.23431
2753.99004	0.23138
2752.06147	0.22861
2750.13291	0.22589
2748.20435	0.22327
2746.27578	0.22081
2744.34722	0.21842
2742.41865	0.21601
2740.49009	0.21351
2738.56152	0.21098
2736.63296	0.20856
2734.70439	0.20625
2732.77583	0.20402
2730.84727	0.20182
2728.91870	0.19967
2726.99014	0.19765
2725.06157	0.19568
2723.13301	0.19370
2721.20444	0.19178
2719.27588	0.18994
2717.34731	0.18816
2715.41875	0.18638
2713.49019	0.18463
2711.56162	0.18297
2709.63306	0.18127
2707.70449	0.17951
2705.77593	0.17785
2703.84736	0.17642
2701.91880	0.17510
2699.99023	0.17370
2698.06167	0.17214
2696.13311	0.17067
2694.20454	0.16946
2692.27598	0.16827
2690.34741	0.16697
2688.41885	0.16567
2686.49028	0.16450
2684.56172	0.16346
2682.63315	0.16241
2680.70459	0.16131
2678.77603	0.16020
2676.84746	0.15908
2674.91890	0.15800
2672.99033	0.15701
2671.06177	0.15612
2669.13320	0.15528
2667.20464	0.15444
2665.27607	0.15359
2663.34751	0.15274
2661.41895	0.15195
2659.49038	0.15125
2657.56182	0.15055
2655.63325	0.14990
2653.70469	0.14941
2651.77612	0.14899
2649.84756	0.14845
2647.91899	0.14783
2645.99043	0.14718
2644.06187	0.14655
2642.13330	0.14604
2640.20474	0.14571
2638.27617	0.14547
2636.34761	0.14508
2634.41904	0.14455
2632.49048	0.14411
2630.56191	0.14383
2628.63335	0.14360
2626.70479	0.14343
2624.77622	0.14323
2622.84766	0.14300
2620.91909	0.14280
2618.99053	0.14260
2617.06196	0.14244
2615.13340	0.14245
2613.20483	0.14242
2611.27627	0.14221
2609.34771	0.14209
2607.41914	0.14221
2605.49058	0.14231
2603.56201	0.14235
2601.63345	0.14247
2599.70488	0.14266
2597.77632	0.14291
2595.84775	0.14309
2593.91919	0.14311
2591.99062	0.14314
2590.06206	0.14330
2588.13350	0.14359
2586.20493	0.14397
2584.27637	0.14437
2582.34780	0.14472
2580.41924	0.14508
2578.49067	0.14552
2576.56211	0.14598
2574.63354	0.14633
2572.70498	0.14662
2570.77642	0.14704
2568.84785	0.14761
2566.91929	0.14818
2564.99072	0.14862
2563.06216	0.14892
2561.13359	0.14921
2559.20503	0.14969
2557.27646	0.15039
2555.34790	0.15104
2553.41934	0.15156
2551.49077	0.15214
2549.56221	0.15294
2547.63364	0.15386
2545.70508	0.15462
2543.77651	0.15516
2541.84795	0.15569
2539.91938	0.15635
2537.99082	0.15705
2536.06226	0.15776
2534.13369	0.15852
2532.20513	0.15930
2530.27656	0.16007
2528.34800	0.16073
2526.41943	0.16135
2524.49087	0.16217
2522.56230	0.16313
2520.63374	0.16407
2518.70518	0.16493
2516.77661	0.16580
2514.84805	0.16672
2512.91948	0.16755
2510.99092	0.16832
2509.06235	0.16926
2507.13379	0.17029
2505.20522	0.17113
2503.27666	0.17185
2501.34810	0.17262
2499.41953	0.17343
2497.49097	0.17436
2495.56240	0.17542
2493.63384	0.17642
2491.70527	0.17738
2489.77671	0.17836
2487.84814	0.17930
2485.91958	0.18019
2483.99102	0.18114
2482.06245	0.18212
2480.13389	0.18312
2478.20532	0.18410
2476.27676	0.18497
2474.34819	0.18584
2472.41963	0.18679
2470.49106	0.18775
2468.56250	0.18876
2466.63394	0.18978
2464.70537	0.19075
2462.77681	0.19171
2460.84824	0.19277
2458.91968	0.19381
2456.99111	0.19476
2455.06255	0.19580
2453.13398	0.19693
2451.20542	0.19798
2449.27686	0.19904
2447.34829	0.20016
2445.41973	0.20116
2443.49116	0.20209
2441.56260	0.20312
2439.63403	0.20427
2437.70547	0.20545
2435.77690	0.20653
2433.84834	0.20757
2431.91978	0.20866
2429.99121	0.20974
2428.06265	0.21084
2426.13408	0.21199
2424.20552	0.21305
2422.27695	0.21403
2420.34839	0.21522
2418.41982	0.21660
2416.49126	0.21786
2414.56270	0.21904
2412.63413	0.22034
2410.70557	0.22164
2408.77700	0.22280
2406.84844	0.22388
2404.91987	0.22498
2402.99131	0.22618
2401.06274	0.22744
2399.13418	0.22878
2397.20562	0.23011
2395.27705	0.23131
2393.34849	0.23248
2391.41992	0.23382
2389.49136	0.23534
2387.56279	0.23683
2385.63423	0.23801
2383.70566	0.23893
2381.77710	0.23981
2379.84854	0.24069
2377.91997	0.24141
2375.99141	0.24219
2374.06284	0.24323
2372.13428	0.24414
2370.20571	0.24459
2368.27715	0.24470
2366.34858	0.24514
2364.42002	0.24640
2362.49146	0.24767
2360.56289	0.24846
2358.63433	0.25008
2356.70576	0.25306
2354.77720	0.25624
2352.84863	0.25947
2350.92007	0.26204
2348.99150	0.26300
2347.06294	0.26297
2345.13437	0.26331
2343.20581	0.26509
2341.27725	0.26714
2339.34868	0.26862
2337.42012	0.27056
2335.49155	0.27298
2333.56299	0.27493
2331.63442	0.27662
2329.70586	0.27846
2327.77729	0.28013
2325.84873	0.28168
2323.92017	0.28356
2321.99160	0.28593
2320.06304	0.28838
2318.13447	0.29046
2316.20591	0.29229
2314.27734	0.29425
2312.34878	0.29640
2310.42021	0.29861
2308.49165	0.30084
2306.56309	0.30297
2304.63452	0.30489
2302.70596	0.30661
2300.77739	0.30835
2298.84883	0.31024
2296.92026	0.31223
2294.99170	0.31431
2293.06313	0.31651
2291.13457	0.31875
2289.20601	0.32095
2287.27744	0.32304
2285.34888	0.32502
2283.42031	0.32694
2281.49175	0.32883
2279.56318	0.33071
2277.63462	0.33273
2275.70605	0.33498
2273.77749	0.33729
2271.84893	0.33945
2269.92036	0.34155
2267.99180	0.34375
2266.06323	0.34598
2264.13467	0.34812
2262.20610	0.35021
2260.27754	0.35239
2258.34897	0.35465
2256.42041	0.35690
2254.49185	0.35916
2252.56328	0.36143
2250.63472	0.36364
2248.70615	0.36586
2246.77759	0.36822
2244.84902	0.37058
2242.92046	0.37282
2240.99189	0.37499
2239.06333	0.37715
2237.13477	0.37932
2235.20620	0.38162
2233.27764	0.38400
2231.34907	0.38628
2229.42051	0.38847
2227.49194	0.39070
2225.56338	0.39312
2223.63481	0.39561
2221.70625	0.39788
2219.77769	0.39997
2217.84912	0.40207
2215.92056	0.40420
2213.99199	0.40636
2212.06343	0.40859
2210.13486	0.41085
2208.20630	0.41300
2206.27773	0.41502
2204.34917	0.41711
2202.42061	0.41933
2200.49204	0.42161
2198.56348	0.42376
2196.63491	0.42564
2194.70635	0.42739
2192.77778	0.42919
2190.84922	0.43109
2188.92065	0.43313
2186.99209	0.43517
2185.06353	0.43709
2183.13496	0.43901
2181.20640	0.44092
2179.27783	0.44269
2177.34927	0.44430
2175.42070	0.44578
2173.49214	0.44718
2171.56357	0.44852
2169.63501	0.44989
2167.70645	0.45139
2165.77788	0.45287
2163.84932	0.45420
2161.92075	0.45539
2159.99219	0.45650
2158.06362	0.45755
2156.13506	0.45850
2154.20649	0.45937
2152.27793	0.46025
2150.34937	0.46113
2148.42080	0.46188
2146.49224	0.46247
2144.56367	0.46293
2142.63511	0.46329
2140.70654	0.46360
2138.77798	0.46390
2136.84941	0.46413
2134.92085	0.46428
2132.99229	0.46437
2131.06372	0.46445
2129.13516	0.46450
2127.20659	0.46427
2125.27803	0.46372
2123.34946	0.46319
2121.42090	0.46279
2119.49233	0.46232
2117.56377	0.46180
2115.63521	0.46117
2113.70664	0.46033
2111.77808	0.45946
2109.84951	0.45860
2107.92095	0.45765
2105.99238	0.45656
2104.06382	0.45527
2102.13525	0.45380
2100.20669	0.45241
2098.27812	0.45110
2096.34956	0.44972
2094.42100	0.44827
2092.49243	0.44677
2090.56387	0.44518
2088.63530	0.44342
2086.70674	0.44154
2084.77817	0.43966
2082.84961	0.43778
2080.92104	0.43582
2078.99248	0.43374
2077.06392	0.43159
2075.13535	0.42943
2073.20679	0.42725
2071.27822	0.42504
2069.34966	0.42282
2067.42109	0.42051
2065.49253	0.41815
2063.56396	0.41575
2061.63540	0.41336
2059.70684	0.41093
2057.77827	0.40836
2055.84971	0.40568
2053.92114	0.40305
2051.99258	0.40052
2050.06401	0.39801
2048.13545	0.39543
2046.20688	0.39277
2044.27832	0.39003
2042.34976	0.38715
2040.42119	0.38427
2038.49263	0.38153
2036.56406	0.37888
2034.63550	0.37609
2032.70693	0.37319
2030.77837	0.37038
2028.84980	0.36755
2026.92124	0.36471
2024.99268	0.36192
2023.06411	0.35913
2021.13555	0.35625
2019.20698	0.35341
2017.27842	0.35070
2015.34985	0.34800
2013.42129	0.34526
2011.49272	0.34250
2009.56416	0.33970
2007.63560	0.33685
2005.70703	0.33407
2003.77847	0.33139
2001.84990	0.32874
1999.92134	0.32609
1997.99277	0.32341
1996.06421	0.32075
1994.13564	0.31812
1992.20708	0.31554
1990.27852	0.31298
1988.34995	0.31042
1986.42139	0.30791
1984.49282	0.30549
1982.56426	0.30311
1980.63569	0.30064
1978.70713	0.29820
1976.77856	0.29592
1974.85000	0.29375
1972.92144	0.29151
1970.99287	0.28930
1969.06431	0.28723
1967.13574	0.28519
1965.20718	0.28310
1963.27861	0.28100
1961.35005	0.27893
1959.42148	0.27694
1957.49292	0.27508
1955.56436	0.27329
1953.63579	0.27147
1951.70723	0.26967
1949.77866	0.26800
1947.85010	0.26635
1945.92153	0.26469
1943.99297	0.26319
1942.06440	0.26183
1940.13584	0.26035
1938.20728	0.25882
1936.27871	0.25736
1934.35015	0.25598
1932.42158	0.25475
1930.49302	0.25358
1928.56445	0.25238
1926.63589	0.25125
1924.70732	0.25021
1922.77876	0.24916
1920.85020	0.24810
1918.92163	0.24716
1916.99307	0.24625
1915.06450	0.24531
1913.13594	0.24443
1911.20737	0.24369
1909.27881	0.24300
1907.35024	0.24235
1905.42168	0.24168
1903.49312	0.24099
1901.56455	0.24037
1899.63599	0.23984
1897.70742	0.23939
1895.77886	0.23904
1893.85029	0.23876
1891.92173	0.23841
1889.99316	0.23810
1888.06460	0.23786
1886.13604	0.23761
1884.20747	0.23727
1882.27891	0.23695
1880.35034	0.23680
1878.42178	0.23674
1876.49321	0.23675
1874.56465	0.23679
1872.63608	0.23686
1870.70752	0.23700
1868.77896	0.23736
1866.85039	0.23767
1864.92183	0.23772
1862.99326	0.23781
1861.06470	0.23805
1859.13613	0.23843
1857.20757	0.23881
1855.27900	0.23923
1853.35044	0.23968
1851.42187	0.24020
1849.49331	0.24076
1847.56475	0.24143
1845.63618	0.24220
1843.70762	0.24303
1841.77905	0.24381
1839.85049	0.24442
1837.92192	0.24530
1835.99336	0.24629
1834.06479	0.24723
1832.13623	0.24817
1830.20767	0.24948
1828.27910	0.25094
1826.35054	0.25206
1824.42197	0.25331
1822.49341	0.25460
1820.56484	0.25589
1818.63628	0.25733
1816.70771	0.25898
1814.77915	0.26062
1812.85059	0.26230
1810.92202	0.26425
1808.99346	0.26637
1807.06489	0.26849
1805.13633	0.27048
1803.20776	0.27258
1801.27920	0.27497
1799.35063	0.27779
1797.42207	0.28042
1795.49351	0.28286
1793.56494	0.28563
1791.63638	0.28925
1789.70781	0.29292
1787.77925	0.29573
1785.85068	0.29886
1783.92212	0.30261
1781.99355	0.30672
1780.06499	0.31100
1778.13643	0.31535
1776.20786	0.31940
1774.27930	0.32360
1772.35073	0.32914
1770.42217	0.33546
1768.49360	0.34122
1766.56504	0.34683
1764.63647	0.35241
1762.70791	0.35830
1760.77935	0.36573
1758.85078	0.37295
1756.92222	0.38021
1754.99365	0.38810
1753.06509	0.39520
1751.13652	0.40339
1749.20796	0.41378
1747.27939	0.42437
1745.35083	0.43377
1743.42227	0.44345
1741.49370	0.45407
1739.56514	0.46661
1737.63657	0.47923
1735.70801	0.49027
1733.77944	0.50654
1731.85088	0.52621
1729.92231	0.54223
1727.99375	0.55867
1726.06519	0.57629
1724.13662	0.59505
1722.20806	0.61506
1720.27949	0.63377
1718.35093	0.65564
1716.42236	0.68736
1714.49380	0.71805
1712.56523	0.74356
1710.63667	0.76826
1708.70811	0.79440
1706.77954	0.82362
1704.85098	0.85799
1702.92241	0.88888
1700.99385	0.91945
1699.06528	0.96365
1697.13672	1.00391
1695.20815	1.04530
1693.27959	1.08651
1691.35103	1.11970
1689.42246	1.15667
1687.49390	1.19504
1685.56533	1.23232
1683.63677	1.28848
1681.70820	1.34631
1679.77964	1.38391
1677.85107	1.41997
1675.92251	1.46165
1673.99395	1.51205
1672.06538	1.55643
1670.13682	1.59975
1668.20825	1.65484
1666.27969	1.69911
1664.35112	1.73545
1662.42256	1.77886
1660.49399	1.82724
1658.56543	1.86574
1656.63687	1.89738
1654.70830	1.92779
1652.77974	1.97963
1650.85117	2.03264
1648.92261	2.05466
1646.99404	2.08311
1645.06548	2.11802
1643.13691	2.14251
1641.20835	2.15740
1639.27979	2.17003
1637.35122	2.17988
1635.42266	2.18592
1633.49409	2.18458
1631.56553	2.17492
1629.63696	2.16183
1627.70840	2.14005
1625.77983	2.11426
1623.85127	2.08016
1621.92271	2.03643
1619.99414	1.99562
1618.06558	1.95464
1616.13701	1.89747
1614.20845	1.83934
1612.27988	1.79409
1610.35132	1.74606
1608.42275	1.69388
1606.49419	1.64271
1604.56562	1.59500
1602.63706	1.54795
1600.70850	1.50122
1598.77993	1.45780
1596.85137	1.41698
1594.92280	1.37725
1592.99424	1.33825
1591.06567	1.30182
1589.13711	1.26766
1587.20854	1.23575
1585.27998	1.20560
1583.35142	1.17671
1581.42285	1.14967
1579.49429	1.12570
1577.56572	1.10319
1575.63716	1.07571
1573.70859	1.05131
1571.78003	1.03458
1569.85146	1.01629
1567.92290	0.99543
1565.99434	0.97831
1564.06577	0.96332
1562.13721	0.95051
1560.20864	0.93912
1558.28008	0.91991
1556.35151	0.90210
1554.42295	0.89080
1552.49438	0.87977
1550.56582	0.86907
1548.63726	0.85849
1546.70869	0.84916
1544.78013	0.84062
1542.85156	0.83188
1540.92300	0.82212
1538.99443	0.80990
1537.06587	0.80118
1535.13730	0.79523
1533.20874	0.78774
1531.28018	0.77948
1529.35161	0.77305
1527.42305	0.76696
1525.49448	0.76070
1523.56592	0.75504
1521.63735	0.74901
1519.70879	0.74239
1517.78022	0.73701
1515.85166	0.73191
1513.92310	0.72689
1511.99453	0.72255
1510.06597	0.71861
1508.13740	0.71486
1506.20884	0.70959
1504.28027	0.70452
1502.35171	0.70118
1500.42314	0.69829
1498.49458	0.69533
1496.56602	0.69202
1494.63745	0.68874
1492.70889	0.68598
1490.78032	0.68350
1488.85176	0.68066
1486.92319	0.67764
1484.99463	0.67488
1483.06606	0.67229
1481.13750	0.66976
1479.20894	0.66739
1477.28037	0.66524
1475.35181	0.66307
1473.42324	0.66056
1471.49468	0.65725
1469.56611	0.65412
1467.63755	0.65164
1465.70898	0.64927
1463.78042	0.64672
1461.85186	0.64456
1459.92329	0.64289
1457.99473	0.64085
1456.06616	0.63777
1454.13760	0.63506
1452.20903	0.63305
1450.28047	0.63109
1448.35190	0.62908
1446.42334	0.62704
1444.49478	0.62517
1442.56621	0.62359
1440.63765	0.62219
1438.70908	0.62095
1436.78052	0.61963
1434.85195	0.61807
1432.92339	0.61658
1430.99482	0.61524
1429.06626	0.61387
1427.13770	0.61241
1425.20913	0.61095
1423.28057	0.60943
1421.35200	0.60777
1419.42344	0.60611
1417.49487	0.60454
1415.56631	0.60288
1413.63774	0.60122
1411.70918	0.59972
1409.78062	0.59822
1407.85205	0.59664
1405.92349	0.59518
1403.99492	0.59384
1402.06636	0.59251
1400.13779	0.59118
1398.20923	0.58971
1396.28066	0.58822
1394.35210	0.58680
1392.42354	0.58537
1390.49497	0.58405
1388.56641	0.58298
1386.63784	0.58189
1384.70928	0.58058
1382.78071	0.57938
1380.85215	0.57837
1378.92358	0.57747
1376.99502	0.57660
1375.06646	0.57579
1373.13789	0.57495
1371.20933	0.57398
1369.28076	0.57302
1367.35220	0.57220
1365.42363	0.57136
1363.49507	0.57036
1361.56650	0.56932
1359.63794	0.56837
1357.70937	0.56750
1355.78081	0.56668
1353.85225	0.56583
1351.92368	0.56490
1349.99512	0.56398
1348.06655	0.56302
1346.13799	0.56197
1344.20942	0.56098
1342.28086	0.56012
1340.35229	0.55924
1338.42373	0.55827
1336.49517	0.55734
1334.56660	0.55645
1332.63804	0.55553
1330.70947	0.55465
1328.78091	0.55390
1326.85234	0.55311
1324.92378	0.55212
1322.99521	0.55112
1321.06665	0.55031
1319.13809	0.54956
1317.20952	0.54863
1315.28096	0.54769
1313.35239	0.54696
1311.42383	0.54630
1309.49526	0.54549
1307.56670	0.54460
1305.63813	0.54372
1303.70957	0.54287
1301.78101	0.54216
1299.85244	0.54143
1297.92388	0.54055
1295.99531	0.53968
1294.06675	0.53892
1292.13818	0.53814
1290.20962	0.53742
1288.28105	0.53693
1286.35249	0.53653
1284.42393	0.53596
1282.49536	0.53528
1280.56680	0.53471
1278.63823	0.53417
1276.70967	0.53358
1274.78110	0.53305
1272.85254	0.53265
1270.92397	0.53234
1268.99541	0.53200
1267.06685	0.53159
1265.13828	0.53113
1263.20972	0.53081
1261.28115	0.53068
1259.35259	0.53059
1257.42402	0.53045
1255.49546	0.53022
1253.56689	0.52997
1251.63833	0.52972
1249.70977	0.52938
1247.78120	0.52903
1245.85264	0.52878
1243.92407	0.52854
1241.99551	0.52821
1240.06694	0.52778
1238.13838	0.52723
1236.20981	0.52660
1234.28125	0.52606
1232.35269	0.52560
1230.42412	0.52509
1228.49556	0.52453
1226.56699	0.52399
1224.63843	0.52344
1222.70986	0.52277
1220.78130	0.52200
1218.85273	0.52117
1216.92417	0.52044
1214.99561	0.51992
1213.06704	0.51941
1211.13848	0.51872
1209.20991	0.51796
1207.28135	0.51740
1205.35278	0.51699
1203.42422	0.51650
1201.49565	0.51592
1199.56709	0.51534
1197.63853	0.51485
1195.70996	0.51442
1193.78140	0.51388
1191.85283	0.51317
1189.92427	0.51256
1187.99570	0.51218
1186.06714	0.51188
1184.13857	0.51169
1182.21001	0.51186
1180.28145	0.51227
1178.35288	0.51267
1176.42432	0.51301
1174.49575	0.51333
1172.56719	0.51371
1170.63862	0.51424
1168.71006	0.51485
1166.78149	0.51548
1164.85293	0.51599
1162.92437	0.51636
1160.99580	0.51657
1159.06724	0.51647
1157.13867	0.51602
1155.21011	0.51527
1153.28154	0.51420
1151.35298	0.51277
1149.42441	0.51097
1147.49585	0.50885
1145.56729	0.50654
1143.63872	0.50412
1141.71016	0.50159
1139.78159	0.49907
1137.85303	0.49676
1135.92446	0.49469
1133.99590	0.49273
1132.06733	0.49089
1130.13877	0.48946
1128.21021	0.48840
1126.28164	0.48724
1124.35308	0.48595
1122.42451	0.48503
1120.49595	0.48455
1118.56738	0.48433
1116.63882	0.48445
1114.71025	0.48480
1112.78169	0.48515
1110.85312	0.48568
1108.92456	0.48648
1106.99600	0.48731
1105.06743	0.48822
1103.13887	0.48947
1101.21030	0.49115
1099.28174	0.49308
1097.35317	0.49529
1095.42461	0.49808
1093.49604	0.50166
1091.56748	0.50603
1089.63892	0.51120
1087.71035	0.51732
1085.78179	0.52429
1083.85322	0.53155
1081.92466	0.53853
1079.99609	0.54444
1078.06753	0.54813
1076.13896	0.54887
1074.21040	0.54674
1072.28184	0.54241
1070.35327	0.53655
1068.42471	0.52975
1066.49614	0.52286
1064.56758	0.51665
1062.63901	0.51136
1060.71045	0.50675
1058.78188	0.50255
1056.85332	0.49871
1054.92476	0.49530
1052.99619	0.49247
1051.06763	0.49023
1049.13906	0.48843
1047.21050	0.48708
1045.28193	0.48614
1043.35337	0.48539
1041.42480	0.48471
1039.49624	0.48438
1037.56768	0.48438
1035.63911	0.48443
1033.71055	0.48450
1031.78198	0.48473
1029.85342	0.48475
1027.92485	0.48434
1025.99629	0.48389
1024.06772	0.48375
1022.13916	0.48391
1020.21060	0.48437
1018.28203	0.48497
1016.35347	0.48556
1014.42490	0.48625
1012.49634	0.48704
1010.56777	0.48793
1008.63921	0.48907
1006.71064	0.49052
1004.78208	0.49229
1002.85352	0.49440
1000.92495	0.49683
998.99639	0.49986
997.06782	0.50360
995.13926	0.50774
993.21069	0.51174
991.28213	0.51506
989.35356	0.51736
987.42500	0.51873
985.49644	0.51953
983.56787	0.52006
981.63931	0.52068
979.71074	0.52189
977.78218	0.52390
975.85361	0.52655
973.92505	0.52955
971.99648	0.53278
970.06792	0.53629
968.13936	0.54001
966.21079	0.54392
964.28223	0.54824
962.35366	0.55307
960.42510	0.55828
958.49653	0.56366
956.56797	0.56941
954.63940	0.57562
952.71084	0.58186
950.78228	0.58795
948.85371	0.59436
946.92515	0.60109
944.99658	0.60752
943.06802	0.61345
941.13945	0.61926
939.21089	0.62508
937.28232	0.63069
935.35376	0.63647
933.42520	0.64284
931.49663	0.64917
929.56807	0.65498
927.63950	0.66053
925.71094	0.66640
923.78237	0.67293
921.85381	0.67960
919.92524	0.68615
917.99668	0.69349
916.06812	0.70171
914.13955	0.70954
912.21099	0.71665
910.28242	0.72393
908.35386	0.73189
906.42529	0.74041
904.49673	0.74941
902.56816	0.75898
900.63960	0.76864
898.71104	0.77776
896.78247	0.78724
894.85391	0.79794
892.92534	0.80835
890.99678	0.81710
889.06821	0.82640
887.13965	0.83844
885.21108	0.85145
883.28252	0.86282
881.35396	0.87292
879.42539	0.88316
877.49683	0.89399
875.56826	0.90596
873.63970	0.91834
871.71113	0.92957
869.78257	0.93994
867.85400	0.95092
865.92544	0.96309
863.99687	0.97570
862.06831	0.98806
860.13975	0.99997
858.21118	1.01145
856.28262	1.02339
854.35405	1.03624
852.42549	1.04789
850.49692	1.05787
848.56836	1.06830
846.63979	1.07842
844.71123	1.08813
842.78267	1.10060
840.85410	1.11626
838.92554	1.12939
836.99697	1.13809
835.06841	1.14883
833.13984	1.16260
831.21128	1.17567
829.28271	1.18905
827.35415	1.20361
825.42559	1.21625
823.49702	1.22720
821.56846	1.23767
819.63989	1.24471
817.71133	1.25007
815.78276	1.26006
813.85420	1.27512
811.92563	1.29185
809.99707	1.31049
808.06851	1.32933
806.13994	1.34567
804.21138	1.36454
802.28281	1.37995
800.35425	1.37345
798.42568	1.36108
796.49712	1.36661
794.56855	1.38642
792.63999	1.41811
790.71143	1.46346
788.78286	1.51045
786.85430	1.51293
784.92573	1.47901
782.99717	1.47659
781.06860	1.48477
779.14004	1.45156
777.21147	1.41243
775.28291	1.41838
773.35435	1.51266
771.42578	1.68720
769.49722	1.74829
767.56865	1.72582
765.64009	1.65878
763.71152	1.48343
761.78296	1.41423
759.85439	1.54462
757.92583	1.76609
755.99727	1.64271
754.06870	1.41537
752.14014	1.30823
750.21157	1.37093
748.28301	1.55730
746.35444	1.46921
744.42588	1.34187
742.49731	1.38257
740.56875	1.31241
738.64019	1.16327
736.71162	1.22176
734.78306	1.51483
732.85449	1.14046
730.92593	0.76087
728.99736	0.62945
727.06880	0.64819
725.14023	0.62793
723.21167	0.55370
721.28311	0.56542
719.35454	0.56423
717.42598	0.46676
715.49741	0.30204
713.56885	0.15209
711.64028	0.05489
709.71172	-0.00277
707.78315	0.06248
705.85459	0.25806
703.92603	0.52795
701.99746	0.40093
700.06890	0.23406
698.14033	0.28730
696.21177	0.65567
694.28320	1.13126
692.35464	0.67661
690.42607	0.48041
688.49751	0.43901
686.56895	0.36590
684.64038	0.21999
682.71182	0.18010
680.78325	0.23327
678.85469	0.29789
676.92612	0.37009
674.99756	0.41910
673.06899	0.39463
671.14043	0.37614
669.21187	0.41307
667.28330	0.42331
665.35474	0.38917
663.42617	0.29787
661.49761	0.19823
659.56904	0.18354
657.64048	0.30782
655.71191	0.76138
653.78335	0.69897
651.85479	0.39039
649.92622	0.36288
647.99766	0.42128
646.06909	0.46278
644.14053	0.34065
642.21196	0.18786
640.28340	0.12286
638.35483	0.11582
636.42627	0.16493
634.49771	0.30046
632.56914	0.53383
630.64058	0.55052
628.71201	0.32936
626.78345	0.21190
624.85488	0.16367
622.92632	0.16890
620.99775	0.22402
619.06919	0.23782
617.14062	0.21764
615.21206	0.21813
613.28350	0.19436
611.35493	0.15316
609.42637	0.15875
607.49780	0.17615
605.56924	0.16771
603.64067	0.19183
601.71211	0.26813
599.78354	0.30599
597.85498	0.25648
595.92642	0.27799
593.99785	0.47151
592.06929	0.74739
590.14072	0.61935
588.21216	0.34931
586.28359	0.23148
584.35503	0.27464
582.42646	0.37820
580.49790	0.37299
578.56934	0.31273
576.64077	0.32917
574.71221	0.38589
572.78364	0.36410
570.85508	0.28815
568.92651	0.22972
566.99795	0.20973
565.06938	0.24959
563.14082	0.35676
561.21226	0.40622
559.28369	0.27754
557.35513	0.19533
555.42656	0.23073
553.49800	0.29165
551.56943	0.26402
549.64087	0.21647
547.71230	0.21884
545.78374	0.24844
543.85518	0.22465
541.92661	0.17978
539.99805	0.19357
538.06948	0.23279
536.14092	0.23467
534.21235	0.23004
532.28379	0.23445
530.35522	0.21345
528.42666	0.19475
526.49810	0.22312
524.56953	0.26297
522.64097	0.24334
520.71240	0.20324
518.78384	0.17608
516.85527	0.14377
514.92671	0.13318
512.99814	0.15820
511.06958	0.17185
509.14102	0.16408
507.21245	0.17961
505.28389	0.22492
503.35532	0.23181
501.42676	0.17969
499.49819	0.16830
