3997.91411	0.05997
3995.98555	0.06036
3994.05698	0.06109
3992.12842	0.06163
3990.19985	0.06189
3988.27129	0.06233
3986.34272	0.06288
3984.41416	0.06290
3982.48560	0.06246
3980.55703	0.06233
3978.62847	0.06280
3976.69990	0.06350
3974.77134	0.06411
3972.84277	0.06443
3970.91421	0.06439
3968.98564	0.06420
3967.05708	0.06403
3965.12852	0.06394
3963.19995	0.06422
3961.27139	0.06495
3959.34282	0.06546
3957.41426	0.06533
3955.48569	0.06503
3953.55713	0.06500
3951.62856	0.06531
3949.70000	0.06579
3947.77144	0.06604
3945.84287	0.06587
3943.91431	0.06580
3941.98574	0.06617
3940.05718	0.06622
3938.12861	0.06587
3936.20005	0.06565
3934.27148	0.06569
3932.34292	0.06634
3930.41436	0.06718
3928.48579	0.06713
3926.55723	0.06653
3924.62866	0.06631
3922.70010	0.06627
3920.77153	0.06611
3918.84297	0.06617
3916.91440	0.06635
3914.98584	0.06610
3913.05728	0.06522
3911.12871	0.06435
3909.20015	0.06419
3907.27158	0.06490
3905.34302	0.06636
3903.41445	0.06801
3901.48589	0.06859
3899.55732	0.06789
3897.62876	0.06676
3895.70020	0.06591
3893.77163	0.06576
3891.84307	0.06630
3889.91450	0.06676
3887.98594	0.06666
3886.05737	0.06731
3884.12881	0.06845
3882.20024	0.06842
3880.27168	0.06827
3878.34312	0.06833
3876.41455	0.06791
3874.48599	0.06806
3872.55742	0.06884
3870.62886	0.06945
3868.70029	0.06986
3866.77173	0.06979
3864.84316	0.07001
3862.91460	0.07076
3860.98604	0.07076
3859.05747	0.07024
3857.12891	0.07017
3855.20034	0.07110
3853.27178	0.07387
3851.34321	0.07599
3849.41465	0.07424
3847.48608	0.07234
3845.55752	0.07200
3843.62896	0.07295
3841.70039	0.07462
3839.77183	0.07629
3837.84326	0.07775
3835.91470	0.07851
3833.98613	0.07840
3832.05757	0.07836
3830.12900	0.07846
3828.20044	0.07858
3826.27187	0.07920
3824.34331	0.08002
3822.41475	0.08120
3820.48618	0.08390
3818.55762	0.08585
3816.62905	0.08587
3814.70049	0.08628
3812.77192	0.08655
3810.84336	0.08626
3808.91479	0.08655
3806.98623	0.08820
3805.05767	0.09036
3803.12910	0.09173
3801.20054	0.09346
3799.27197	0.09522
3797.34341	0.09597
3795.41484	0.09681
3793.48628	0.09737
3791.55771	0.09761
3789.62915	0.09834
3787.70059	0.09967
3785.77202	0.10167
3783.84346	0.10405
3781.91489	0.10580
3779.98633	0.10709
3778.05776	0.10867
3776.12920	0.10994
3774.20063	0.11090
3772.27207	0.11242
3770.34351	0.11507
3768.41494	0.11798
3766.48638	0.11959
3764.55781	0.12083
3762.62925	0.12256
3760.70068	0.12480
3758.77212	0.12796
3756.84355	0.13103
3754.91499	0.13304
3752.98643	0.13544
3751.05786	0.14000
3749.12930	0.14524
3747.20073	0.14750
3745.27217	0.14915
3743.34360	0.15339
3741.41504	0.15751
3739.48647	0.15994
3737.55791	0.16341
3735.62935	0.16956
3733.70078	0.17667
3731.77222	0.18135
3729.84365	0.18454
3727.91509	0.18798
3725.98652	0.19294
3724.05796	0.19947
3722.12939	0.20620
3720.20083	0.21297
3718.27227	0.22004
3716.34370	0.22711
3714.41514	0.23422
3712.48657	0.24358
3710.55801	0.25765
3708.62944	0.27247
3706.70088	0.28391
3704.77231	0.29462
3702.84375	0.30759
3700.91519	0.32465
3698.98662	0.34361
3697.05806	0.36157
3695.12949	0.38002
3693.20093	0.39962
3691.27236	0.42141
3689.34380	0.44959
3687.41523	0.48393
3685.48667	0.51421
3683.55811	0.54026
3681.62954	0.56854
3679.70098	0.60091
3677.77241	0.63513
3675.84385	0.67511
3673.91528	0.72700
3671.98672	0.76979
3670.05815	0.80901
3668.12959	0.86247
3666.20103	0.91155
3664.27246	0.95265
3662.34390	0.99655
3660.41533	1.04406
3658.48677	1.09101
3656.55820	1.14078
3654.62964	1.19593
3652.70107	1.24239
3650.77251	1.28267
3648.84395	1.33748
3646.91538	1.40478
3644.98682	1.45641
3643.05825	1.49683
3641.12969	1.53783
3639.20112	1.58257
3637.27256	1.62784
3635.34399	1.67251
3633.41543	1.71684
3631.48687	1.75765
3629.55830	1.79928
3627.62974	1.85362
3625.70117	1.90482
3623.77261	1.94019
3621.84404	1.97337
3619.91548	2.01080
3617.98691	2.05497
3616.05835	2.09691
3614.12979	2.13324
3612.20122	2.17319
3610.27266	2.21386
3608.34409	2.25413
3606.41553	2.29667
3604.48696	2.33669
3602.55840	2.37310
3600.62983	2.41225
3598.70127	2.45434
3596.77271	2.49537
3594.84414	2.53658
3592.91558	2.57812
3590.98701	2.61642
3589.05845	2.65314
3587.12988	2.69873
3585.20132	2.74863
3583.27275	2.78921
3581.34419	2.82562
3579.41562	2.86507
3577.48706	2.90751
3575.55850	2.95143
3573.62993	2.99688
3571.70137	3.04029
3569.77280	3.08080
3567.84424	3.12425
3565.91567	3.17710
3563.98711	3.22737
3562.05854	3.26910
3560.12998	3.31189
3558.20142	3.35718
3556.27285	3.40256
3554.34429	3.44783
3552.41572	3.49572
3550.48716	3.54341
3548.55859	3.58806
3546.63003	3.63394
3544.70146	3.68344
3542.77290	3.73175
3540.84434	3.77693
3538.91577	3.82248
3536.98721	3.86971
3535.05864	3.91955
3533.13008	3.96915
3531.20151	4.01796
3529.27295	4.06920
3527.34438	4.12074
3525.41582	4.16813
3523.48726	4.21446
3521.55869	4.26288
3519.63013	4.31162
3517.70156	4.36067
3515.77300	4.40899
3513.84443	4.45668
3511.91587	4.50394
3509.98730	4.55139
3508.05874	4.60090
3506.13018	4.65160
3504.20161	4.70261
3502.27305	4.75399
3500.34448	4.80163
3498.41592	4.84413
3496.48735	4.88869
3494.55879	4.94002
3492.63022	4.99509
3490.70166	5.04690
3488.77310	5.09294
3486.84453	5.13744
3484.91597	5.18699
3482.98740	5.24030
3481.05884	5.28978
3479.13027	5.33513
3477.20171	5.38033
3475.27314	5.42863
3473.34458	5.48039
3471.41602	5.52833
3469.48745	5.57082
3467.55889	5.61655
3465.63032	5.66961
3463.70176	5.72825
3461.77319	5.78401
3459.84463	5.83390
3457.91606	5.88599
3455.98750	5.94357
3454.05894	5.99912
3452.13037	6.05223
3450.20181	6.11418
3448.27324	6.17571
3446.34468	6.22119
3444.41611	6.26471
3442.48755	6.32149
3440.55898	6.37056
3438.63042	6.40517
3436.70186	6.44950
3434.77329	6.51248
3432.84473	6.57584
3430.91616	6.62561
3428.98760	6.67631
3427.05903	6.72494
3425.13047	6.77338
3423.20190	6.83492
3421.27334	6.89671
3419.34478	6.94126
3417.41621	6.96986
3415.48765	6.99755
3413.55908	7.04161
3411.63052	7.10085
3409.70195	7.14930
3407.77339	7.19423
3405.84482	7.24687
3403.91626	7.29644
3401.98770	7.32243
3400.05913	7.33803
3398.13057	7.39380
3396.20200	7.48087
3394.27344	7.55004
3392.34487	7.58488
3390.41631	7.61072
3388.48774	7.62775
3386.55918	7.62547
3384.63062	7.63173
3382.70205	7.68156
3380.77349	7.73696
3378.84492	7.76992
3376.91636	7.83767
3374.98779	7.92015
3373.05923	7.96130
3371.13066	7.96998
3369.20210	7.96469
3367.27354	7.94433
3365.34497	7.95402
3363.41641	8.00413
3361.48784	8.04202
3359.55928	8.08224
3357.63071	8.14299
3355.70215	8.17698
3353.77358	8.15326
3351.84502	8.13729
3349.91646	8.11938
3347.98789	8.09471
3346.05933	8.14533
3344.13076	8.24647
3342.20220	8.29159
3340.27363	8.24838
3338.34507	8.20166
3336.41650	8.21991
3334.48794	8.29001
3332.55937	8.34739
3330.63081	8.41624
3328.70225	8.49722
3326.77368	8.46591
3324.84512	8.36147
3322.91655	8.34733
3320.98799	8.44558
3319.05942	8.50354
3317.13086	8.45747
3315.20229	8.39695
3313.27373	8.39205
3311.34517	8.42804
3309.41660	8.42665
3307.48804	8.35157
3305.55947	8.27969
3303.63091	8.30967
3301.70234	8.41758
3299.77378	8.49980
3297.84521	8.51402
3295.91665	8.51702
3293.98809	8.49996
3292.05952	8.46321
3290.13096	8.43449
3288.20239	8.37878
3286.27383	8.33913
3284.34526	8.36666
3282.41670	8.41780
3280.48813	8.44684
3278.55957	8.50032
3276.63101	8.52622
3274.70244	8.43255
3272.77388	8.31002
3270.84531	8.26023
3268.91675	8.27843
3266.98818	8.31730
3265.05962	8.39332
3263.13105	8.46321
3261.20249	8.51599
3259.27393	8.70316
3257.34536	8.89783
3255.41680	8.76881
3253.48823	8.53604
3251.55967	8.41706
3249.63110	8.39148
3247.70254	8.43984
3245.77397	8.47665
3243.84541	8.49760
3241.91685	8.57287
3239.98828	8.65404
3238.05972	8.68717
3236.13115	8.68427
3234.20259	8.67192
3232.27402	8.65979
3230.34546	8.61144
3228.41689	8.50789
3226.48833	8.38767
3224.55977	8.33057
3222.63120	8.40071
3220.70264	8.51749
3218.77407	8.50760
3216.84551	8.36607
3214.91694	8.26149
3212.98838	8.21925
3211.05981	8.13594
3209.13125	8.04510
3207.20269	8.01191
3205.27412	8.00921
3203.34556	7.98857
3201.41699	7.94758
3199.48843	7.90208
3197.55986	7.85845
3195.63130	7.85360
3193.70273	7.88079
3191.77417	7.88758
3189.84561	7.87805
3187.91704	7.85006
3185.98848	7.77214
3184.05991	7.68733
3182.13135	7.64787
3180.20278	7.60821
3178.27422	7.51770
3176.34565	7.42363
3174.41709	7.37033
3172.48853	7.33336
3170.55996	7.27799
3168.63140	7.20485
3166.70283	7.13441
3164.77427	7.06847
3162.84570	6.98970
3160.91714	6.89604
3158.98857	6.80806
3157.06001	6.74434
3155.13145	6.70188
3153.20288	6.64907
3151.27432	6.57660
3149.34575	6.51075
3147.41719	6.45657
3145.48862	6.39576
3143.56006	6.31487
3141.63149	6.22482
3139.70293	6.14030
3137.77437	6.06156
3135.84580	5.98893
3133.91724	5.91884
3131.98867	5.84822
3130.06011	5.78035
3128.13154	5.70974
3126.20298	5.63243
3124.27441	5.55186
3122.34585	5.46952
3120.41729	5.39387
3118.48872	5.32713
3116.56016	5.26117
3114.63159	5.19294
3112.70303	5.11984
3110.77446	5.04337
3108.84590	4.97048
3106.91733	4.90412
3104.98877	4.84260
3103.06021	4.77793
3101.13164	4.70454
3099.20308	4.62954
3097.27451	4.55880
3095.34595	4.49054
3093.41738	4.42291
3091.48882	4.35498
3089.56025	4.28690
3087.63169	4.22044
3085.70312	4.15609
3083.77456	4.09269
3081.84600	4.03089
3079.91743	3.96999
3077.98887	3.90756
3076.06030	3.84483
3074.13174	3.78462
3072.20317	3.72723
3070.27461	3.67063
3068.34604	3.61232
3066.41748	3.55223
3064.48892	3.49279
3062.56035	3.43603
3060.63179	3.38169
3058.70322	3.32671
3056.77466	3.26974
3054.84609	3.21283
3052.91753	3.15784
3050.98896	3.10533
3049.06040	3.05434
3047.13184	3.00348
3045.20327	2.95240
3043.27471	2.90241
3041.34614	2.85436
3039.41758	2.80672
3037.48901	2.75831
3035.56045	2.71048
3033.63188	2.66379
3031.70332	2.61712
3029.77476	2.57142
3027.84619	2.52798
3025.91763	2.48530
3023.98906	2.44218
3022.06050	2.39988
3020.13193	2.35859
3018.20337	2.31725
3016.27480	2.27636
3014.34624	2.23621
3012.41768	2.19621
3010.48911	2.15671
3008.56055	2.11853
3006.63198	2.08152
3004.70342	2.04497
3002.77485	2.00863
3000.84629	1.97264
2998.91772	1.93715
2996.98916	1.90274
2995.06060	1.87005
2993.13203	1.83806
2991.20347	1.80563
2989.27490	1.77370
2987.34634	1.74297
2985.41777	1.71284
2983.48921	1.68290
2981.56064	1.65315
2979.63208	1.62396
2977.70352	1.59565
2975.77495	1.56764
2973.84639	1.53951
2971.91782	1.51187
2969.98926	1.48466
2968.06069	1.45722
2966.13213	1.43016
2964.20356	1.40431
2962.27500	1.37908
2960.34644	1.35368
2958.41787	1.32825
2956.48931	1.30337
2954.56074	1.27925
2952.63218	1.25601
2950.70361	1.23365
2948.77505	1.21142
2946.84648	1.18875
2944.91792	1.16611
2942.98936	1.14387
2941.06079	1.12160
2939.13223	1.09929
2937.20366	1.07753
2935.27510	1.05641
2933.34653	1.03538
2931.41797	1.01424
2929.48940	0.99371
2927.56084	0.97414
2925.63228	0.95484
2923.70371	0.93554
2921.77515	0.91684
2919.84658	0.89941
2917.91802	0.88330
2915.98945	0.86828
2914.06089	0.85440
2912.13232	0.84145
2910.20376	0.82841
2908.27520	0.81488
2906.34663	0.80153
2904.41807	0.78850
2902.48950	0.77539
2900.56094	0.76259
2898.63237	0.75061
2896.70381	0.73890
2894.77524	0.72693
2892.84668	0.71507
2890.91812	0.70356
2888.98955	0.69224
2887.06099	0.68133
2885.13242	0.67086
2883.20386	0.66038
2881.27529	0.64974
2879.34673	0.63911
2877.41816	0.62860
2875.48960	0.61823
2873.56104	0.60793
2871.63247	0.59737
2869.70391	0.58643
2867.77534	0.57537
2865.84678	0.56414
2863.91821	0.55274
2861.98965	0.54130
2860.06108	0.53001
2858.13252	0.51911
2856.20396	0.50861
2854.27539	0.49844
2852.34683	0.48873
2850.41826	0.47977
2848.48970	0.47207
2846.56113	0.46595
2844.63257	0.46086
2842.70400	0.45604
2840.77544	0.45124
2838.84687	0.44634
2836.91831	0.44138
2834.98975	0.43641
2833.06118	0.43127
2831.13262	0.42584
2829.20405	0.42009
2827.27549	0.41423
2825.34692	0.40842
2823.41836	0.40261
2821.48979	0.39674
2819.56123	0.39088
2817.63267	0.38518
2815.70410	0.37965
2813.77554	0.37419
2811.84697	0.36872
2809.91841	0.36320
2807.98984	0.35779
2806.06128	0.35273
2804.13271	0.34788
2802.20415	0.34297
2800.27559	0.33792
2798.34702	0.33286
2796.41846	0.32800
2794.48989	0.32334
2792.56133	0.31892
2790.63276	0.31464
2788.70420	0.31035
2786.77563	0.30607
2784.84707	0.30179
2782.91851	0.29745
2780.98994	0.29325
2779.06138	0.28932
2777.13281	0.28553
2775.20425	0.28182
2773.27568	0.27817
2771.34712	0.27453
2769.41855	0.27092
2767.48999	0.26740
2765.56143	0.26406
2763.63286	0.26076
2761.70430	0.25730
2759.77573	0.25384
2757.84717	0.25064
2755.91860	0.24775
2753.99004	0.24501
2752.06147	0.24219
2750.13291	0.23920
2748.20435	0.23618
2746.27578	0.23345
2744.34722	0.23098
2742.41865	0.22842
2740.49009	0.22564
2738.56152	0.22295
2736.63296	0.22050
2734.70439	0.21816
2732.77583	0.21583
2730.84727	0.21358
2728.91870	0.21132
2726.99014	0.20900
2725.06157	0.20670
2723.13301	0.20449
2721.20444	0.20247
2719.27588	0.20062
2717.34731	0.19872
2715.41875	0.19682
2713.49019	0.19505
2711.56162	0.19336
2709.63306	0.19163
2707.70449	0.18983
2705.77593	0.18807
2703.84736	0.18649
2701.91880	0.18504
2699.99023	0.18349
2698.06167	0.18178
2696.13311	0.18017
2694.20454	0.17890
2692.27598	0.17782
2690.34741	0.17659
2688.41885	0.17523
2686.49028	0.17390
2684.56172	0.17262
2682.63315	0.17140
2680.70459	0.17028
2678.77603	0.16925
2676.84746	0.16824
2674.91890	0.16714
2672.99033	0.16599
2671.06177	0.16493
2669.13320	0.16389
2667.20464	0.16281
2665.27607	0.16187
2663.34751	0.16110
2661.41895	0.16029
2659.49038	0.15933
2657.56182	0.15851
2655.63325	0.15793
2653.70469	0.15722
2651.77612	0.15633
2649.84756	0.15556
2647.91899	0.15496
2645.99043	0.15450
2644.06187	0.15404
2642.13330	0.15345
2640.20474	0.15298
2638.27617	0.15265
2636.34761	0.15220
2634.41904	0.15163
2632.49048	0.15113
2630.56191	0.15068
2628.63335	0.15028
2626.70479	0.14994
2624.77622	0.14966
2622.84766	0.14940
2620.91909	0.14924
2618.99053	0.14919
2617.06196	0.14902
2615.13340	0.14877
2613.20483	0.14869
2611.27627	0.14864
2609.34771	0.14843
2607.41914	0.14823
2605.49058	0.14816
2603.56201	0.14814
2601.63345	0.14824
2599.70488	0.14836
2597.77632	0.14839
2595.84775	0.14843
2593.91919	0.14862
2591.99062	0.14884
2590.06206	0.14904
2588.13350	0.14926
2586.20493	0.14946
2584.27637	0.14960
2582.34780	0.14971
2580.41924	0.14996
2578.49067	0.15035
2576.56211	0.15071
2574.63354	0.15098
2572.70498	0.15132
2570.77642	0.15176
2568.84785	0.15224
2566.91929	0.15271
2564.99072	0.15317
2563.06216	0.15364
2561.13359	0.15414
2559.20503	0.15464
2557.27646	0.15519
2555.34790	0.15577
2553.41934	0.15635
2551.49077	0.15693
2549.56221	0.15751
2547.63364	0.15811
2545.70508	0.15880
2543.77651	0.15954
2541.84795	0.16023
2539.91938	0.16081
2537.99082	0.16127
2536.06226	0.16177
2534.13369	0.16245
2532.20513	0.16319
2530.27656	0.16392
2528.34800	0.16461
2526.41943	0.16528
2524.49087	0.16608
2522.56230	0.16700
2520.63374	0.16780
2518.70518	0.16849
2516.77661	0.16919
2514.84805	0.16997
2512.91948	0.17086
2510.99092	0.17183
2509.06235	0.17273
2507.13379	0.17356
2505.20522	0.17440
2503.27666	0.17528
2501.34810	0.17616
2499.41953	0.17706
2497.49097	0.17789
2495.56240	0.17864
2493.63384	0.17950
2491.70527	0.18053
2489.77671	0.18146
2487.84814	0.18227
2485.91958	0.18319
2483.99102	0.18420
2482.06245	0.18512
2480.13389	0.18598
2478.20532	0.18691
2476.27676	0.18781
2474.34819	0.18858
2472.41963	0.18950
2470.49106	0.19064
2468.56250	0.19169
2466.63394	0.19259
2464.70537	0.19346
2462.77681	0.19429
2460.84824	0.19516
2458.91968	0.19621
2456.99111	0.19728
2455.06255	0.19827
2453.13398	0.19929
2451.20542	0.20039
2449.27686	0.20146
2447.34829	0.20241
2445.41973	0.20337
2443.49116	0.20445
2441.56260	0.20552
2439.63403	0.20657
2437.70547	0.20767
2435.77690	0.20874
2433.84834	0.20975
2431.91978	0.21075
2429.99121	0.21173
2428.06265	0.21272
2426.13408	0.21379
2424.20552	0.21488
2422.27695	0.21596
2420.34839	0.21718
2418.41982	0.21846
2416.49126	0.21963
2414.56270	0.22077
2412.63413	0.22194
2410.70557	0.22306
2408.77700	0.22417
2406.84844	0.22534
2404.91987	0.22658
2402.99131	0.22784
2401.06274	0.22916
2399.13418	0.23048
2397.20562	0.23170
2395.27705	0.23286
2393.34849	0.23413
2391.41992	0.23555
2389.49136	0.23711
2387.56279	0.23880
2385.63423	0.24071
2383.70566	0.24312
2381.77710	0.24626
2379.84854	0.24986
2377.91997	0.25363
2375.99141	0.25765
2374.06284	0.26239
2372.13428	0.26811
2370.20571	0.27406
2368.27715	0.27926
2366.34858	0.28422
2364.42002	0.28944
2362.49146	0.29454
2360.56289	0.29857
2358.63433	0.30015
2356.70576	0.29931
2354.77720	0.29702
2352.84863	0.29396
2350.92007	0.29059
2348.99150	0.28832
2347.06294	0.28880
2345.13437	0.29279
2343.20581	0.29825
2341.27725	0.30188
2339.34868	0.30398
2337.42012	0.30523
2335.49155	0.30581
2333.56299	0.30623
2331.63442	0.30703
2329.70586	0.30835
2327.77729	0.30973
2325.84873	0.31039
2323.92017	0.31032
2321.99160	0.31019
2320.06304	0.31024
2318.13447	0.31020
2316.20591	0.31009
2314.27734	0.31034
2312.34878	0.31110
2310.42021	0.31202
2308.49165	0.31282
2306.56309	0.31348
2304.63452	0.31413
2302.70596	0.31500
2300.77739	0.31618
2298.84883	0.31754
2296.92026	0.31887
2294.99170	0.32019
2293.06313	0.32162
2291.13457	0.32306
2289.20601	0.32446
2287.27744	0.32594
2285.34888	0.32757
2283.42031	0.32936
2281.49175	0.33133
2279.56318	0.33342
2277.63462	0.33552
2275.70605	0.33762
2273.77749	0.33973
2271.84893	0.34184
2269.92036	0.34396
2267.99180	0.34613
2266.06323	0.34824
2264.13467	0.35030
2262.20610	0.35239
2260.27754	0.35449
2258.34897	0.35657
2256.42041	0.35869
2254.49185	0.36093
2252.56328	0.36315
2250.63472	0.36534
2248.70615	0.36750
2246.77759	0.36954
2244.84902	0.37161
2242.92046	0.37395
2240.99189	0.37637
2239.06333	0.37862
2237.13477	0.38071
2235.20620	0.38283
2233.27764	0.38513
2231.34907	0.38751
2229.42051	0.38980
2227.49194	0.39202
2225.56338	0.39425
2223.63481	0.39646
2221.70625	0.39860
2219.77769	0.40082
2217.84912	0.40314
2215.92056	0.40537
2213.99199	0.40749
2212.06343	0.40968
2210.13486	0.41195
2208.20630	0.41425
2206.27773	0.41646
2204.34917	0.41857
2202.42061	0.42069
2200.49204	0.42282
2198.56348	0.42486
2196.63491	0.42681
2194.70635	0.42879
2192.77778	0.43075
2190.84922	0.43266
2188.92065	0.43460
2186.99209	0.43655
2185.06353	0.43840
2183.13496	0.44015
2181.20640	0.44183
2179.27783	0.44345
2177.34927	0.44503
2175.42070	0.44655
2173.49214	0.44805
2171.56357	0.44954
2169.63501	0.45102
2167.70645	0.45243
2165.77788	0.45371
2163.84932	0.45490
2161.92075	0.45607
2159.99219	0.45726
2158.06362	0.45835
2156.13506	0.45932
2154.20649	0.46021
2152.27793	0.46101
2150.34937	0.46174
2148.42080	0.46248
2146.49224	0.46321
2144.56367	0.46373
2142.63511	0.46404
2140.70654	0.46436
2138.77798	0.46471
2136.84941	0.46493
2134.92085	0.46498
2132.99229	0.46491
2131.06372	0.46480
2129.13516	0.46460
2127.20659	0.46434
2125.27803	0.46411
2123.34946	0.46384
2121.42090	0.46341
2119.49233	0.46283
2117.56377	0.46218
2115.63521	0.46146
2113.70664	0.46063
2111.77808	0.45973
2109.84951	0.45879
2107.92095	0.45777
2105.99238	0.45660
2104.06382	0.45533
2102.13525	0.45399
2100.20669	0.45264
2098.27812	0.45122
2096.34956	0.44971
2094.42100	0.44812
2092.49243	0.44647
2090.56387	0.44475
2088.63530	0.44306
2086.70674	0.44137
2084.77817	0.43954
2082.84961	0.43763
2080.92104	0.43562
2078.99248	0.43351
2077.06392	0.43132
2075.13535	0.42908
2073.20679	0.42688
2071.27822	0.42473
2069.34966	0.42248
2067.42109	0.42006
2065.49253	0.41767
2063.56396	0.41533
2061.63540	0.41285
2059.70684	0.41021
2057.77827	0.40754
2055.84971	0.40491
2053.92114	0.40242
2051.99258	0.40001
2050.06401	0.39743
2048.13545	0.39471
2046.20688	0.39201
2044.27832	0.38927
2042.34976	0.38644
2040.42119	0.38363
2038.49263	0.38094
2036.56406	0.37821
2034.63550	0.37538
2032.70693	0.37250
2030.77837	0.36964
2028.84980	0.36678
2026.92124	0.36397
2024.99268	0.36117
2023.06411	0.35838
2021.13555	0.35559
2019.20698	0.35284
2017.27842	0.35017
2015.34985	0.34744
2013.42129	0.34465
2011.49272	0.34186
2009.56416	0.33908
2007.63560	0.33632
2005.70703	0.33364
2003.77847	0.33096
2001.84990	0.32821
1999.92134	0.32547
1997.99277	0.32273
1996.06421	0.32006
1994.13564	0.31759
1992.20708	0.31520
1990.27852	0.31269
1988.34995	0.31014
1986.42139	0.30757
1984.49282	0.30498
1982.56426	0.30248
1980.63569	0.30013
1978.70713	0.29791
1976.77856	0.29575
1974.85000	0.29357
1972.92144	0.29129
1970.99287	0.28906
1969.06431	0.28695
1967.13574	0.28492
1965.20718	0.28283
1963.27861	0.28069
1961.35005	0.27867
1959.42148	0.27676
1957.49292	0.27493
1955.56436	0.27313
1953.63579	0.27132
1951.70723	0.26955
1949.77866	0.26793
1947.85010	0.26639
1945.92153	0.26485
1943.99297	0.26338
1942.06440	0.26195
1940.13584	0.26038
1938.20728	0.25879
1936.27871	0.25739
1934.35015	0.25614
1932.42158	0.25495
1930.49302	0.25374
1928.56445	0.25252
1926.63589	0.25130
1924.70732	0.25023
1922.77876	0.24932
1920.85020	0.24835
1918.92163	0.24740
1916.99307	0.24656
1915.06450	0.24563
1913.13594	0.24461
1911.20737	0.24381
1909.27881	0.24322
1907.35024	0.24258
1905.42168	0.24187
1903.49312	0.24125
1901.56455	0.24068
1899.63599	0.24011
1897.70742	0.23970
1895.77886	0.23934
1893.85029	0.23891
1891.92173	0.23846
1889.99316	0.23826
1888.06460	0.23809
1886.13604	0.23777
1884.20747	0.23750
1882.27891	0.23728
1880.35034	0.23712
1878.42178	0.23705
1876.49321	0.23701
1874.56465	0.23696
1872.63608	0.23708
1870.70752	0.23750
1868.77896	0.23826
1866.85039	0.23865
1864.92183	0.23844
1862.99326	0.23834
1861.06470	0.23861
1859.13613	0.23907
1857.20757	0.23941
1855.27900	0.23975
1853.35044	0.24017
1851.42187	0.24069
1849.49331	0.24127
1847.56475	0.24201
1845.63618	0.24297
1843.70762	0.24403
1841.77905	0.24473
1839.85049	0.24512
1837.92192	0.24588
1835.99336	0.24681
1834.06479	0.24772
1832.13623	0.24873
1830.20767	0.25024
1828.27910	0.25186
1826.35054	0.25296
1824.42197	0.25421
1822.49341	0.25550
1820.56484	0.25671
1818.63628	0.25806
1816.70771	0.25968
1814.77915	0.26129
1812.85059	0.26305
1810.92202	0.26516
1808.99346	0.26729
1807.06489	0.26921
1805.13633	0.27108
1803.20776	0.27332
1801.27920	0.27604
1799.35063	0.27905
1797.42207	0.28160
1795.49351	0.28393
1793.56494	0.28679
1791.63638	0.29058
1789.70781	0.29409
1787.77925	0.29662
1785.85068	0.29966
1783.92212	0.30339
1781.99355	0.30742
1780.06499	0.31166
1778.13643	0.31595
1776.20786	0.31998
1774.27930	0.32431
1772.35073	0.33020
1770.42217	0.33666
1768.49360	0.34202
1766.56504	0.34707
1764.63647	0.35237
1762.70791	0.35831
1760.77935	0.36572
1758.85078	0.37268
1756.92222	0.37968
1754.99365	0.38735
1753.06509	0.39434
1751.13652	0.40254
1749.20796	0.41276
1747.27939	0.42281
1745.35083	0.43168
1743.42227	0.44105
1741.49370	0.45139
1739.56514	0.46352
1737.63657	0.47589
1735.70801	0.48728
1733.77944	0.50419
1731.85088	0.52383
1729.92231	0.53938
1727.99375	0.55530
1726.06519	0.57274
1724.13662	0.59192
1722.20806	0.61256
1720.27949	0.63187
1718.35093	0.65441
1716.42236	0.68645
1714.49380	0.71688
1712.56523	0.74215
1710.63667	0.76684
1708.70811	0.79324
1706.77954	0.82311
1704.85098	0.85835
1702.92241	0.89000
1700.99385	0.92153
1699.06528	0.96738
1697.13672	1.00935
1695.20815	1.05220
1693.27959	1.09473
1691.35103	1.12949
1689.42246	1.16912
1687.49390	1.21071
1685.56533	1.25103
1683.63677	1.31145
1681.70820	1.37433
1679.77964	1.41584
1677.85107	1.45526
1675.92251	1.50028
1673.99395	1.55478
1672.06538	1.60330
1670.13682	1.65103
1668.20825	1.71273
1666.27969	1.76375
1664.35112	1.80667
1662.42256	1.85905
1660.49399	1.91808
1658.56543	1.96541
1656.63687	2.00415
1654.70830	2.04008
1652.77974	2.09494
1650.85117	2.14771
1648.92261	2.16939
1646.99404	2.19684
1645.06548	2.22636
1643.13691	2.24505
1641.20835	2.25567
1639.27979	2.26529
1637.35122	2.27165
1635.42266	2.27302
1633.49409	2.26815
1631.56553	2.25602
1629.63696	2.23932
1627.70840	2.21199
1625.77983	2.18095
1623.85127	2.14142
1621.92271	2.09249
1619.99414	2.04878
1618.06558	2.00552
1616.13701	1.94450
1614.20845	1.88239
1612.27988	1.83430
1610.35132	1.78399
1608.42275	1.72967
1606.49419	1.67621
1604.56562	1.62628
1602.63706	1.57759
1600.70850	1.53032
1598.77993	1.48667
1596.85137	1.44528
1594.92280	1.40536
1592.99424	1.36711
1591.06567	1.33193
1589.13711	1.29885
1587.20854	1.26806
1585.27998	1.23949
1583.35142	1.21254
1581.42285	1.18770
1579.49429	1.16614
1577.56572	1.14667
1575.63716	1.12381
1573.70859	1.10365
1571.78003	1.09005
1569.85146	1.07583
1567.92290	1.05994
1565.99434	1.04743
1564.06577	1.03723
1562.13721	1.02895
1560.20864	1.02297
1558.28008	1.01607
1556.35151	1.00958
1554.42295	1.00436
1552.49438	0.99892
1550.56582	0.99297
1548.63726	0.98590
1546.70869	0.97820
1544.78013	0.96945
1542.85156	0.95888
1540.92300	0.94482
1538.99443	0.92430
1537.06587	0.90823
1535.13730	0.89720
1533.20874	0.88379
1531.28018	0.86941
1529.35161	0.85848
1527.42305	0.84842
1525.49448	0.83797
1523.56592	0.82869
1521.63735	0.81991
1519.70879	0.81086
1517.78022	0.80291
1515.85166	0.79427
1513.92310	0.78528
1511.99453	0.77736
1510.06597	0.77027
1508.13740	0.76376
1506.20884	0.75438
1504.28027	0.74512
1502.35171	0.73921
1500.42314	0.73427
1498.49458	0.72934
1496.56602	0.72382
1494.63745	0.71819
1492.70889	0.71352
1490.78032	0.70946
1488.85176	0.70515
1486.92319	0.70087
1484.99463	0.69706
1483.06606	0.69392
1481.13750	0.69136
1479.20894	0.68921
1477.28037	0.68754
1475.35181	0.68629
1473.42324	0.68515
1471.49468	0.68310
1469.56611	0.68021
1467.63755	0.67745
1465.70898	0.67516
1463.78042	0.67338
1461.85186	0.67211
1459.92329	0.67148
1457.99473	0.67129
1456.06616	0.67004
1454.13760	0.66736
1452.20903	0.66483
1450.28047	0.66265
1448.35190	0.66064
1446.42334	0.65847
1444.49478	0.65633
1442.56621	0.65451
1440.63765	0.65289
1438.70908	0.65134
1436.78052	0.64939
1434.85195	0.64687
1432.92339	0.64459
1430.99482	0.64294
1429.06626	0.64174
1427.13770	0.64083
1425.20913	0.64033
1423.28057	0.64008
1421.35200	0.63972
1419.42344	0.63934
1417.49487	0.63855
1415.56631	0.63697
1413.63774	0.63549
1411.70918	0.63450
1409.78062	0.63396
1407.85205	0.63368
1405.92349	0.63360
1403.99492	0.63346
1402.06636	0.63287
1400.13779	0.63194
1398.20923	0.63062
1396.28066	0.62870
1394.35210	0.62609
1392.42354	0.62306
1390.49497	0.62027
1388.56641	0.61766
1386.63784	0.61478
1384.70928	0.61167
1382.78071	0.60870
1380.85215	0.60597
1378.92358	0.60367
1376.99502	0.60196
1375.06646	0.60079
1373.13789	0.59997
1371.20933	0.59927
1369.28076	0.59856
1367.35220	0.59767
1365.42363	0.59657
1363.49507	0.59541
1361.56650	0.59411
1359.63794	0.59271
1357.70937	0.59150
1355.78081	0.59036
1353.85225	0.58919
1351.92368	0.58820
1349.99512	0.58733
1348.06655	0.58637
1346.13799	0.58532
1344.20942	0.58424
1342.28086	0.58329
1340.35229	0.58257
1338.42373	0.58182
1336.49517	0.58082
1334.56660	0.57984
1332.63804	0.57918
1330.70947	0.57883
1328.78091	0.57857
1326.85234	0.57833
1324.92378	0.57827
1322.99521	0.57835
1321.06665	0.57833
1319.13809	0.57819
1317.20952	0.57788
1315.28096	0.57737
1313.35239	0.57674
1311.42383	0.57597
1309.49526	0.57501
1307.56670	0.57402
1305.63813	0.57313
1303.70957	0.57219
1301.78101	0.57123
1299.85244	0.57027
1297.92388	0.56919
1295.99531	0.56793
1294.06675	0.56664
1292.13818	0.56547
1290.20962	0.56443
1288.28105	0.56357
1286.35249	0.56276
1284.42393	0.56191
1282.49536	0.56105
1280.56680	0.56011
1278.63823	0.55898
1276.70967	0.55781
1274.78110	0.55684
1272.85254	0.55618
1270.92397	0.55569
1268.99541	0.55518
1267.06685	0.55465
1265.13828	0.55418
1263.20972	0.55379
1261.28115	0.55332
1259.35259	0.55277
1257.42402	0.55230
1255.49546	0.55198
1253.56689	0.55182
1251.63833	0.55180
1249.70977	0.55182
1247.78120	0.55179
1245.85264	0.55169
1243.92407	0.55137
1241.99551	0.55074
1240.06694	0.54989
1238.13838	0.54878
1236.20981	0.54747
1234.28125	0.54621
1232.35269	0.54496
1230.42412	0.54361
1228.49556	0.54213
1226.56699	0.54062
1224.63843	0.53920
1222.70986	0.53785
1220.78130	0.53653
1218.85273	0.53533
1216.92417	0.53433
1214.99561	0.53355
1213.06704	0.53288
1211.13848	0.53220
1209.20991	0.53165
1207.28135	0.53123
1205.35278	0.53064
1203.42422	0.52986
1201.49565	0.52909
1199.56709	0.52830
1197.63853	0.52734
1195.70996	0.52641
1193.78140	0.52572
1191.85283	0.52508
1189.92427	0.52440
1187.99570	0.52387
1186.06714	0.52357
1184.13857	0.52340
1182.21001	0.52346
1180.28145	0.52397
1178.35288	0.52485
1176.42432	0.52588
1174.49575	0.52702
1172.56719	0.52809
1170.63862	0.52875
1168.71006	0.52920
1166.78149	0.52976
1164.85293	0.53042
1162.92437	0.53118
1160.99580	0.53180
1159.06724	0.53198
1157.13867	0.53178
1155.21011	0.53121
1153.28154	0.53006
1151.35298	0.52829
1149.42441	0.52612
1147.49585	0.52362
1145.56729	0.52073
1143.63872	0.51778
1141.71016	0.51522
1139.78159	0.51316
1137.85303	0.51153
1135.92446	0.51021
1133.99590	0.50919
1132.06733	0.50864
1130.13877	0.50824
1128.21021	0.50765
1126.28164	0.50709
1124.35308	0.50659
1122.42451	0.50615
1120.49595	0.50610
1118.56738	0.50649
1116.63882	0.50710
1114.71025	0.50776
1112.78169	0.50845
1110.85312	0.50944
1108.92456	0.51074
1106.99600	0.51192
1105.06743	0.51290
1103.13887	0.51391
1101.21030	0.51493
1099.28174	0.51606
1097.35317	0.51762
1095.42461	0.52013
1093.49604	0.52411
1091.56748	0.52951
1089.63892	0.53603
1087.71035	0.54365
1085.78179	0.55216
1083.85322	0.56074
1081.92466	0.56831
1079.99609	0.57404
1078.06753	0.57723
1076.13896	0.57732
1074.21040	0.57432
1072.28184	0.56882
1070.35327	0.56191
1068.42471	0.55490
1066.49614	0.54831
1064.56758	0.54200
1062.63901	0.53625
1060.71045	0.53148
1058.78188	0.52749
1056.85332	0.52388
1054.92476	0.52039
1052.99619	0.51714
1051.06763	0.51457
1049.13906	0.51289
1047.21050	0.51212
1045.28193	0.51200
1043.35337	0.51183
1041.42480	0.51170
1039.49624	0.51216
1037.56768	0.51281
1035.63911	0.51294
1033.71055	0.51241
1031.78198	0.51146
1029.85342	0.51032
1027.92485	0.50901
1025.99629	0.50743
1024.06772	0.50586
1022.13916	0.50473
1020.21060	0.50412
1018.28203	0.50386
1016.35347	0.50379
1014.42490	0.50371
1012.49634	0.50368
1010.56777	0.50389
1008.63921	0.50419
1006.71064	0.50462
1004.78208	0.50554
1002.85352	0.50712
1000.92495	0.50951
998.99639	0.51289
997.06782	0.51714
995.13926	0.52170
993.21069	0.52578
991.28213	0.52875
989.35356	0.53047
987.42500	0.53118
985.49644	0.53124
983.56787	0.53112
981.63931	0.53145
979.71074	0.53249
977.78218	0.53389
975.85361	0.53585
973.92505	0.53856
971.99648	0.54156
970.06792	0.54468
968.13936	0.54819
966.21079	0.55219
964.28223	0.55669
962.35366	0.56155
960.42510	0.56656
958.49653	0.57187
956.56797	0.57759
954.63940	0.58352
952.71084	0.58950
950.78228	0.59556
948.85371	0.60193
946.92515	0.60866
944.99658	0.61515
943.06802	0.62133
941.13945	0.62765
939.21089	0.63376
937.28232	0.63963
935.35376	0.64551
933.42520	0.65108
931.49663	0.65656
929.56807	0.66219
927.63950	0.66782
925.71094	0.67379
923.78237	0.68053
921.85381	0.68763
919.92524	0.69458
917.99668	0.70147
916.06812	0.70862
914.13955	0.71639
912.21099	0.72475
910.28242	0.73347
908.35386	0.74245
906.42529	0.75104
904.49673	0.75905
902.56816	0.76747
900.63960	0.77731
898.71104	0.78786
896.78247	0.79810
894.85391	0.80860
892.92534	0.81922
890.99678	0.82938
889.06821	0.84019
887.13965	0.85156
885.21108	0.86205
883.28252	0.87224
881.35396	0.88317
879.42539	0.89493
877.49683	0.90760
875.56826	0.92026
873.63970	0.93132
871.71113	0.94139
869.78257	0.95227
867.85400	0.96471
865.92544	0.97839
863.99687	0.99083
862.06831	0.99999
860.13975	1.00863
858.21118	1.02042
856.28262	1.03471
854.35405	1.04883
852.42549	1.06123
850.49692	1.07327
848.56836	1.08576
846.63979	1.09581
844.71123	1.10546
842.78267	1.11827
840.85410	1.13046
838.92554	1.14048
836.99697	1.15215
835.06841	1.16486
833.13984	1.17607
831.21128	1.18641
829.28271	1.19525
827.35415	1.20306
825.42559	1.21396
823.49702	1.22960
821.56846	1.24598
819.63989	1.25913
817.71133	1.27240
815.78276	1.28716
813.85420	1.29859
811.92563	1.30773
809.99707	1.31734
808.06851	1.33420
806.13994	1.36977
804.21138	1.41042
802.28281	1.42358
800.35425	1.40631
798.42568	1.39346
796.49712	1.41574
794.56855	1.46119
792.63999	1.49252
790.71143	1.50869
788.78286	1.49862
786.85430	1.44449
784.92573	1.40564
782.99717	1.42859
781.06860	1.52658
779.14004	1.66035
777.21147	1.68412
775.28291	1.60689
773.35435	1.56334
771.42578	1.58562
769.49722	1.62370
767.56865	1.63495
765.64009	1.66821
763.71152	1.69312
761.78296	1.53839
759.85439	1.37703
757.92583	1.36687
755.99727	1.54017
754.06870	1.88059
752.14014	1.86145
750.21157	1.75509
748.28301	1.66866
746.35444	1.43705
744.42588	1.27937
742.49731	1.22643
740.56875	1.23759
738.64019	1.37383
736.71162	1.34576
734.78306	1.10283
732.85449	1.02859
730.92593	1.12099
728.99736	1.73489
727.06880	4.36241
725.14023	2.03794
723.21167	0.87757
721.28311	0.58507
719.35454	0.43885
717.42598	0.38732
715.49741	0.27214
713.56885	-0.02455
711.64028	-0.13136
709.71172	0.55992
707.78315	0.74131
705.85459	0.50324
703.92603	0.36978
701.99746	0.32941
700.06890	0.27124
698.14033	0.14251
696.21177	0.09500
694.28320	0.17955
692.35464	0.30312
690.42607	0.40985
688.49751	0.46877
686.56895	0.47060
684.64038	0.43731
682.71182	0.41155
680.78325	0.37263
678.85469	0.31946
676.92612	0.27147
674.99756	0.20010
673.06899	0.15793
671.14043	0.26022
669.21187	0.52422
667.28330	0.62959
665.35474	0.42681
663.42617	0.27254
661.49761	0.22876
659.56904	0.26468
657.64048	0.32710
655.71191	0.34847
653.78335	0.32450
651.85479	0.32366
649.92622	0.34223
647.99766	0.35468
646.06909	0.33099
644.14053	0.29467
642.21196	0.27894
640.28340	0.26714
638.35483	0.28116
636.42627	0.36259
634.49771	0.53704
632.56914	0.61851
630.64058	0.40379
628.71201	0.25660
626.78345	0.25388
624.85488	0.30712
622.92632	0.28373
620.99775	0.21900
619.06919	0.22280
617.14062	0.23192
615.21206	0.19530
613.28350	0.20842
611.35493	0.29530
609.42637	0.40264
607.49780	0.41172
605.56924	0.29972
603.64067	0.23716
601.71211	0.25550
599.78354	0.33143
597.85498	0.47475
595.92642	0.65590
593.99785	0.59903
592.06929	0.43196
590.14072	0.33951
588.21216	0.32776
586.28359	0.35391
584.35503	0.27502
582.42646	0.17797
580.49790	0.14714
578.56934	0.14518
576.64077	0.14714
574.71221	0.15857
572.78364	0.19542
570.85508	0.23151
568.92651	0.22616
566.99795	0.19757
565.06938	0.17660
563.14082	0.17630
561.21226	0.18604
559.28369	0.17310
557.35513	0.14806
555.42656	0.10925
553.49800	0.09046
551.56943	0.12478
549.64087	0.15992
547.71230	0.16277
545.78374	0.18382
543.85518	0.21957
541.92661	0.27778
539.99805	0.35117
538.06948	0.33362
536.14092	0.28391
534.21235	0.26801
532.28379	0.26482
530.35522	0.27750
528.42666	0.30192
526.49810	0.35710
524.56953	0.43886
522.64097	0.40895
520.71240	0.26935
518.78384	0.16234
516.85527	0.15041
514.92671	0.22136
512.99814	0.33019
511.06958	0.38716
509.14102	0.37165
507.21245	0.37772
505.28389	0.39264
503.35532	0.33353
501.42676	0.23699
499.49819	0.16140
