3997.91411	0.05885
3995.98555	0.05936
3994.05698	0.06017
3992.12842	0.06070
3990.19985	0.06081
3988.27129	0.06078
3986.34272	0.06104
3984.41416	0.06175
3982.48560	0.06242
3980.55703	0.06236
3978.62847	0.06188
3976.69990	0.06202
3974.77134	0.06271
3972.84277	0.06320
3970.91421	0.06348
3968.98564	0.06364
3967.05708	0.06350
3965.12852	0.06341
3963.19995	0.06396
3961.27139	0.06468
3959.34282	0.06476
3957.41426	0.06464
3955.48569	0.06479
3953.55713	0.06477
3951.62856	0.06498
3949.70000	0.06623
3947.77144	0.06742
3945.84287	0.06720
3943.91431	0.06685
3941.98574	0.06698
3940.05718	0.06620
3938.12861	0.06501
3936.20005	0.06486
3934.27148	0.06587
3932.34292	0.06736
3930.41436	0.06801
3928.48579	0.06725
3926.55723	0.06666
3924.62866	0.06716
3922.70010	0.06722
3920.77153	0.06636
3918.84297	0.06645
3916.91440	0.06740
3914.98584	0.06690
3913.05728	0.06506
3911.12871	0.06394
3909.20015	0.06397
3907.27158	0.06499
3905.34302	0.06768
3903.41445	0.07159
3901.48589	0.07394
3899.55732	0.07354
3897.62876	0.07098
3895.70020	0.06790
3893.77163	0.06704
3891.84307	0.06865
3889.91450	0.06964
3887.98594	0.06898
3886.05737	0.06955
3884.12881	0.07108
3882.20024	0.07147
3880.27168	0.07143
3878.34312	0.07018
3876.41455	0.06857
3874.48599	0.06963
3872.55742	0.07257
3870.62886	0.07488
3868.70029	0.07537
3866.77173	0.07416
3864.84316	0.07410
3862.91460	0.07484
3860.98604	0.07340
3859.05747	0.07152
3857.12891	0.07220
3855.20034	0.07604
3853.27178	0.08239
3851.34321	0.08411
3849.41465	0.07852
3847.48608	0.07380
3845.55752	0.07270
3843.62896	0.07500
3841.70039	0.07897
3839.77183	0.08279
3837.84326	0.08543
3835.91470	0.08524
3833.98613	0.08320
3832.05757	0.08143
3830.12900	0.08001
3828.20044	0.07946
3826.27187	0.08049
3824.34331	0.08222
3822.41475	0.08535
3820.48618	0.09060
3818.55762	0.09265
3816.62905	0.09148
3814.70049	0.08982
3812.77192	0.08674
3810.84336	0.08478
3808.91479	0.08598
3806.98623	0.08993
3805.05767	0.09380
3803.12910	0.09644
3801.20054	0.09971
3799.27197	0.10076
3797.34341	0.09921
3795.41484	0.09839
3793.48628	0.09739
3791.55771	0.09630
3789.62915	0.09642
3787.70059	0.09777
3785.77202	0.10016
3783.84346	0.10252
3781.91489	0.10419
3779.98633	0.10657
3778.05776	0.10898
3776.12920	0.10936
3774.20063	0.10948
3772.27207	0.11141
3770.34351	0.11515
3768.41494	0.11873
3766.48638	0.12056
3764.55781	0.12187
3762.62925	0.12343
3760.70068	0.12629
3758.77212	0.13071
3756.84355	0.13411
3754.91499	0.13620
3752.98643	0.14031
3751.05786	0.14791
3749.12930	0.15454
3747.20073	0.15597
3745.27217	0.15700
3743.34360	0.15951
3741.41504	0.16103
3739.48647	0.16294
3737.55791	0.16802
3735.62935	0.17708
3733.70078	0.18530
3731.77222	0.18682
3729.84365	0.18622
3727.91509	0.18854
3725.98652	0.19458
3724.05796	0.20187
3722.12939	0.20823
3720.20083	0.21429
3718.27227	0.22024
3716.34370	0.22634
3714.41514	0.23378
3712.48657	0.24532
3710.55801	0.26178
3708.62944	0.27561
3706.70088	0.28427
3704.77231	0.29364
3702.84375	0.30682
3700.91519	0.32390
3698.98662	0.34125
3697.05806	0.35778
3695.12949	0.37658
3693.20093	0.39762
3691.27236	0.42139
3689.34380	0.45131
3687.41523	0.48470
3685.48667	0.51210
3683.55811	0.53628
3681.62954	0.56424
3679.70098	0.59762
3677.77241	0.63413
3675.84385	0.67742
3673.91528	0.73109
3671.98672	0.77287
3670.05815	0.81137
3668.12959	0.86276
3666.20103	0.90763
3664.27246	0.94604
3662.34390	0.98944
3660.41533	1.03747
3658.48677	1.08527
3656.55820	1.13618
3654.62964	1.19236
3652.70107	1.24006
3650.77251	1.28395
3648.84395	1.34442
3646.91538	1.41194
3644.98682	1.45727
3643.05825	1.49286
3641.12969	1.53204
3639.20112	1.57636
3637.27256	1.62111
3635.34399	1.66508
3633.41543	1.70966
3631.48687	1.75248
3629.55830	1.79753
3627.62974	1.85346
3625.70117	1.90118
3623.77261	1.93304
3621.84404	1.96568
3619.91548	2.00555
3617.98691	2.05409
3616.05835	2.09878
3614.12979	2.13524
3612.20122	2.17435
3610.27266	2.21428
3608.34409	2.25443
3606.41553	2.29584
3604.48696	2.33307
3602.55840	2.36732
3600.62983	2.40587
3598.70127	2.44787
3596.77271	2.48866
3594.84414	2.53054
3592.91558	2.57343
3590.98701	2.61219
3589.05845	2.64805
3587.12988	2.69142
3585.20132	2.73966
3583.27275	2.78106
3581.34419	2.81929
3579.41562	2.86060
3577.48706	2.90410
3575.55850	2.94695
3573.62993	2.98990
3571.70137	3.03166
3569.77280	3.07330
3567.84424	3.11889
3565.91567	3.17125
3563.98711	3.22142
3562.05854	3.26428
3560.12998	3.30603
3558.20142	3.34998
3556.27285	3.39431
3554.34429	3.43685
3552.41572	3.48259
3550.48716	3.53071
3548.55859	3.57553
3546.63003	3.61927
3544.70146	3.66770
3542.77290	3.71857
3540.84434	3.76626
3538.91577	3.81257
3536.98721	3.86017
3535.05864	3.90994
3533.13008	3.95908
3531.20151	4.00608
3529.27295	4.05274
3527.34438	4.10255
3525.41582	4.15452
3523.48726	4.20482
3521.55869	4.25224
3519.63013	4.29702
3517.70156	4.34467
3515.77300	4.39485
3513.84443	4.44200
3511.91587	4.48824
3509.98730	4.53865
3508.05874	4.59072
3506.13018	4.64000
3504.20161	4.68644
3502.27305	4.73254
3500.34448	4.78026
3498.41592	4.82840
3496.48735	4.88027
3494.55879	4.93634
3492.63022	4.98604
3490.70166	5.02582
3488.77310	5.06655
3486.84453	5.11345
3484.91597	5.16061
3482.98740	5.20722
3481.05884	5.25909
3479.13027	5.31545
3477.20171	5.37158
3475.27314	5.42121
3473.34458	5.46364
3471.41602	5.50853
3469.48745	5.55205
3467.55889	5.58971
3465.63032	5.63697
3463.70176	5.69637
3461.77319	5.74590
3459.84463	5.78332
3457.91606	5.82834
3455.98750	5.88748
3454.05894	5.94915
3452.13037	6.00496
3450.20181	6.05679
3448.27324	6.10006
3446.34468	6.14173
3444.41611	6.19697
3442.48755	6.25859
3440.55898	6.31409
3438.63042	6.36730
3436.70186	6.40772
3434.77329	6.43183
3432.84473	6.46625
3430.91616	6.51253
3428.98760	6.56217
3427.05903	6.62550
3425.13047	6.69740
3423.20190	6.75125
3421.27334	6.79492
3419.34478	6.83849
3417.41621	6.88903
3415.48765	6.95035
3413.55908	6.97302
3411.63052	6.97449
3409.70195	7.02672
3407.77339	7.11228
3405.84482	7.16935
3403.91626	7.19708
3401.98770	7.20699
3400.05913	7.22801
3398.13057	7.29683
3396.20200	7.37429
3394.27344	7.39878
3392.34487	7.39180
3390.41631	7.42320
3388.48774	7.46874
3386.55918	7.49690
3384.63062	7.53225
3382.70205	7.58556
3380.77349	7.63975
3378.84492	7.67904
3376.91636	7.73333
3374.98779	7.78128
3373.05923	7.75598
3371.13066	7.72028
3369.20210	7.78524
3367.27354	7.86733
3365.34497	7.86963
3363.41641	7.84799
3361.48784	7.84660
3359.55928	7.84779
3357.63071	7.83403
3355.70215	7.86739
3353.77358	7.92320
3351.84502	7.94336
3349.91646	7.94935
3347.98789	7.93669
3346.05933	7.89051
3344.13076	7.86494
3342.20220	7.92360
3340.27363	8.02261
3338.34507	8.06733
3336.41650	8.06503
3334.48794	8.11273
3332.55937	8.17601
3330.63081	8.19096
3328.70225	8.18817
3326.77368	8.18900
3324.84512	8.16058
3322.91655	8.09575
3320.98799	8.09867
3319.05942	8.18061
3317.13086	8.28132
3315.20229	8.30796
3313.27373	8.20756
3311.34517	8.10561
3309.41660	8.08278
3307.48804	8.11020
3305.55947	8.15522
3303.63091	8.19435
3301.70234	8.20566
3299.77378	8.21070
3297.84521	8.19917
3295.91665	8.17293
3293.98809	8.15563
3292.05952	8.11140
3290.13096	8.06380
3288.20239	8.10013
3286.27383	8.14999
3284.34526	8.12229
3282.41670	8.14274
3280.48813	8.22188
3278.55957	8.22328
3276.63101	8.17190
3274.70244	8.22345
3272.77388	8.37424
3270.84531	8.40600
3268.91675	8.30599
3266.98818	8.28762
3265.05962	8.37011
3263.13105	8.38260
3261.20249	8.32098
3259.27393	8.27878
3257.34536	8.23882
3255.41680	8.18348
3253.48823	8.15030
3251.55967	8.16732
3249.63110	8.18003
3247.70254	8.13222
3245.77397	8.10066
3243.84541	8.15629
3241.91685	8.20841
3239.98828	8.17614
3238.05972	8.13190
3236.13115	8.17253
3234.20259	8.27274
3232.27402	8.30815
3230.34546	8.22137
3228.41689	8.10360
3226.48833	8.07859
3224.55977	8.10216
3222.63120	8.08931
3220.70264	8.08704
3218.77407	8.08942
3216.84551	8.02447
3214.91694	7.96053
3212.98838	7.96045
3211.05981	7.92600
3209.13125	7.83797
3207.20269	7.81409
3205.27412	7.85859
3203.34556	7.86482
3201.41699	7.79668
3199.48843	7.71408
3197.55986	7.68570
3195.63130	7.70577
3193.70273	7.69459
3191.77417	7.61718
3189.84561	7.53006
3187.91704	7.47704
3185.98848	7.42763
3184.05991	7.36383
3182.13135	7.30430
3180.20278	7.24923
3178.27422	7.20349
3176.34565	7.18801
3174.41709	7.18425
3172.48853	7.13688
3170.55996	7.06752
3168.63140	7.02782
3166.70283	6.97911
3164.77427	6.91050
3162.84570	6.85594
3160.91714	6.79764
3158.98857	6.73312
3157.06001	6.66609
3155.13145	6.58852
3153.20288	6.51398
3151.27432	6.44488
3149.34575	6.37231
3147.41719	6.29882
3145.48862	6.23168
3143.56006	6.17588
3141.63149	6.12394
3139.70293	6.05730
3137.77437	5.97790
3135.84580	5.90011
3133.91724	5.82872
3131.98867	5.76121
3130.06011	5.69403
3128.13154	5.62200
3126.20298	5.54162
3124.27441	5.46654
3122.34585	5.40671
3120.41729	5.35113
3118.48872	5.28589
3116.56016	5.21239
3114.63159	5.13999
3112.70303	5.06968
3110.77446	4.99833
3108.84590	4.92726
3106.91733	4.86004
3104.98877	4.79445
3103.06021	4.72681
3101.13164	4.65823
3099.20308	4.59043
3097.27451	4.52431
3095.34595	4.45898
3093.41738	4.39341
3091.48882	4.32870
3089.56025	4.26558
3087.63169	4.20346
3085.70312	4.14099
3083.77456	4.07653
3081.84600	4.01212
3079.91743	3.95152
3077.98887	3.89443
3076.06030	3.83809
3074.13174	3.78151
3072.20317	3.72380
3070.27461	3.66411
3068.34604	3.60484
3066.41748	3.54797
3064.48892	3.49249
3062.56035	3.43752
3060.63179	3.38279
3058.70322	3.32711
3056.77466	3.27137
3054.84609	3.21777
3052.91753	3.16577
3050.98896	3.11427
3049.06040	3.06287
3047.13184	3.01126
3045.20327	2.95980
3043.27471	2.90958
3041.34614	2.86122
3039.41758	2.81396
3037.48901	2.76680
3035.56045	2.72015
3033.63188	2.67501
3031.70332	2.63053
3029.77476	2.58534
3027.84619	2.54006
3025.91763	2.49565
3023.98906	2.45218
3022.06050	2.40989
3020.13193	2.36864
3018.20337	2.32787
3016.27480	2.28787
3014.34624	2.24872
3012.41768	2.20979
3010.48911	2.17104
3008.56055	2.13329
3006.63198	2.09650
3004.70342	2.05988
3002.77485	2.02388
3000.84629	1.98897
2998.91772	1.95463
2996.98916	1.92108
2995.06060	1.88865
2993.13203	1.85677
2991.20347	1.82540
2989.27490	1.79477
2987.34634	1.76501
2985.41777	1.73609
2983.48921	1.70765
2981.56064	1.67974
2979.63208	1.65209
2977.70352	1.62469
2975.77495	1.59845
2973.84639	1.57313
2971.91782	1.54770
2969.98926	1.52240
2968.06069	1.49765
2966.13213	1.47306
2964.20356	1.44827
2962.27500	1.42331
2960.34644	1.39835
2958.41787	1.37381
2956.48931	1.34990
2954.56074	1.32641
2952.63218	1.30294
2950.70361	1.27927
2948.77505	1.25566
2946.84648	1.23252
2944.91792	1.21032
2942.98936	1.18893
2941.06079	1.16778
2939.13223	1.14693
2937.20366	1.12653
2935.27510	1.10621
2933.34653	1.08564
2931.41797	1.06511
2929.48940	1.04506
2927.56084	1.02548
2925.63228	1.00638
2923.70371	0.98807
2921.77515	0.97018
2919.84658	0.95234
2917.91802	0.93489
2915.98945	0.91755
2914.06089	0.90036
2912.13232	0.88414
2910.20376	0.86851
2908.27520	0.85289
2906.34663	0.83792
2904.41807	0.82363
2902.48950	0.80971
2900.56094	0.79605
2898.63237	0.78239
2896.70381	0.76905
2894.77524	0.75618
2892.84668	0.74355
2890.91812	0.73141
2888.98955	0.71989
2887.06099	0.70872
2885.13242	0.69790
2883.20386	0.68753
2881.27529	0.67765
2879.34673	0.66791
2877.41816	0.65787
2875.48960	0.64763
2873.56104	0.63738
2871.63247	0.62700
2869.70391	0.61623
2867.77534	0.60465
2865.84678	0.59237
2863.91821	0.58024
2861.98965	0.56882
2860.06108	0.55801
2858.13252	0.54756
2856.20396	0.53750
2854.27539	0.52775
2852.34683	0.51817
2850.41826	0.50913
2848.48970	0.50059
2846.56113	0.49241
2844.63257	0.48490
2842.70400	0.47804
2840.77544	0.47163
2838.84687	0.46555
2836.91831	0.45955
2834.98975	0.45365
2833.06118	0.44792
2831.13262	0.44208
2829.20405	0.43604
2827.27549	0.43005
2825.34692	0.42417
2823.41836	0.41827
2821.48979	0.41220
2819.56123	0.40602
2817.63267	0.39996
2815.70410	0.39409
2813.77554	0.38843
2811.84697	0.38293
2809.91841	0.37757
2807.98984	0.37226
2806.06128	0.36688
2804.13271	0.36137
2802.20415	0.35591
2800.27559	0.35080
2798.34702	0.34596
2796.41846	0.34114
2794.48989	0.33640
2792.56133	0.33179
2790.63276	0.32712
2788.70420	0.32241
2786.77563	0.31790
2784.84707	0.31346
2782.91851	0.30901
2780.98994	0.30472
2779.06138	0.30066
2777.13281	0.29676
2775.20425	0.29290
2773.27568	0.28894
2771.34712	0.28501
2769.41855	0.28123
2767.48999	0.27756
2765.56143	0.27402
2763.63286	0.27053
2761.70430	0.26703
2759.77573	0.26349
2757.84717	0.26002
2755.91860	0.25685
2753.99004	0.25382
2752.06147	0.25073
2750.13291	0.24766
2748.20435	0.24465
2746.27578	0.24166
2744.34722	0.23873
2742.41865	0.23595
2740.49009	0.23336
2738.56152	0.23082
2736.63296	0.22819
2734.70439	0.22555
2732.77583	0.22291
2730.84727	0.22036
2728.91870	0.21806
2726.99014	0.21599
2725.06157	0.21400
2723.13301	0.21198
2721.20444	0.20975
2719.27588	0.20738
2717.34731	0.20508
2715.41875	0.20297
2713.49019	0.20105
2711.56162	0.19912
2709.63306	0.19719
2707.70449	0.19549
2705.77593	0.19403
2703.84736	0.19269
2701.91880	0.19131
2699.99023	0.18974
2698.06167	0.18801
2696.13311	0.18638
2694.20454	0.18488
2692.27598	0.18338
2690.34741	0.18200
2688.41885	0.18081
2686.49028	0.17963
2684.56172	0.17833
2682.63315	0.17701
2680.70459	0.17574
2678.77603	0.17459
2676.84746	0.17351
2674.91890	0.17236
2672.99033	0.17116
2671.06177	0.16999
2669.13320	0.16889
2667.20464	0.16791
2665.27607	0.16699
2663.34751	0.16604
2661.41895	0.16511
2659.49038	0.16429
2657.56182	0.16359
2655.63325	0.16290
2653.70469	0.16218
2651.77612	0.16147
2649.84756	0.16079
2647.91899	0.16010
2645.99043	0.15930
2644.06187	0.15853
2642.13330	0.15797
2640.20474	0.15749
2638.27617	0.15691
2636.34761	0.15631
2634.41904	0.15590
2632.49048	0.15562
2630.56191	0.15530
2628.63335	0.15494
2626.70479	0.15457
2624.77622	0.15418
2622.84766	0.15381
2620.91909	0.15344
2618.99053	0.15307
2617.06196	0.15276
2615.13340	0.15249
2613.20483	0.15223
2611.27627	0.15203
2609.34771	0.15185
2607.41914	0.15171
2605.49058	0.15164
2603.56201	0.15159
2601.63345	0.15152
2599.70488	0.15149
2597.77632	0.15152
2595.84775	0.15156
2593.91919	0.15153
2591.99062	0.15150
2590.06206	0.15157
2588.13350	0.15175
2586.20493	0.15204
2584.27637	0.15226
2582.34780	0.15236
2580.41924	0.15251
2578.49067	0.15278
2576.56211	0.15309
2574.63354	0.15335
2572.70498	0.15365
2570.77642	0.15407
2568.84785	0.15458
2566.91929	0.15512
2564.99072	0.15551
2563.06216	0.15569
2561.13359	0.15589
2559.20503	0.15630
2557.27646	0.15689
2555.34790	0.15743
2553.41934	0.15778
2551.49077	0.15824
2549.56221	0.15888
2547.63364	0.15949
2545.70508	0.16012
2543.77651	0.16080
2541.84795	0.16133
2539.91938	0.16167
2537.99082	0.16212
2536.06226	0.16277
2534.13369	0.16346
2532.20513	0.16405
2530.27656	0.16455
2528.34800	0.16521
2526.41943	0.16605
2524.49087	0.16678
2522.56230	0.16744
2520.63374	0.16823
2518.70518	0.16910
2516.77661	0.16989
2514.84805	0.17057
2512.91948	0.17128
2510.99092	0.17201
2509.06235	0.17274
2507.13379	0.17355
2505.20522	0.17434
2503.27666	0.17506
2501.34810	0.17594
2499.41953	0.17702
2497.49097	0.17792
2495.56240	0.17856
2493.63384	0.17918
2491.70527	0.17991
2489.77671	0.18069
2487.84814	0.18153
2485.91958	0.18254
2483.99102	0.18359
2482.06245	0.18446
2480.13389	0.18523
2478.20532	0.18601
2476.27676	0.18687
2474.34819	0.18775
2472.41963	0.18855
2470.49106	0.18934
2468.56250	0.19028
2466.63394	0.19135
2464.70537	0.19241
2462.77681	0.19331
2460.84824	0.19417
2458.91968	0.19509
2456.99111	0.19603
2455.06255	0.19692
2453.13398	0.19787
2451.20542	0.19898
2449.27686	0.20003
2447.34829	0.20091
2445.41973	0.20177
2443.49116	0.20274
2441.56260	0.20377
2439.63403	0.20485
2437.70547	0.20585
2435.77690	0.20678
2433.84834	0.20778
2431.91978	0.20886
2429.99121	0.20997
2428.06265	0.21102
2426.13408	0.21204
2424.20552	0.21310
2422.27695	0.21415
2420.34839	0.21521
2418.41982	0.21637
2416.49126	0.21750
2414.56270	0.21860
2412.63413	0.21981
2410.70557	0.22112
2408.77700	0.22242
2406.84844	0.22361
2404.91987	0.22476
2402.99131	0.22586
2401.06274	0.22687
2399.13418	0.22799
2397.20562	0.22928
2395.27705	0.23056
2393.34849	0.23183
2391.41992	0.23314
2389.49136	0.23446
2387.56279	0.23597
2385.63423	0.23784
2383.70566	0.24020
2381.77710	0.24320
2379.84854	0.24666
2377.91997	0.25042
2375.99141	0.25479
2374.06284	0.25987
2372.13428	0.26542
2370.20571	0.27148
2368.27715	0.27758
2366.34858	0.28306
2364.42002	0.28795
2362.49146	0.29191
2360.56289	0.29478
2358.63433	0.29680
2356.70576	0.29673
2354.77720	0.29416
2352.84863	0.29084
2350.92007	0.28767
2348.99150	0.28570
2347.06294	0.28644
2345.13437	0.29093
2343.20581	0.29720
2341.27725	0.30098
2339.34868	0.30218
2337.42012	0.30270
2335.49155	0.30345
2333.56299	0.30423
2331.63442	0.30491
2329.70586	0.30574
2327.77729	0.30660
2325.84873	0.30698
2323.92017	0.30691
2321.99160	0.30681
2320.06304	0.30677
2318.13447	0.30668
2316.20591	0.30657
2314.27734	0.30677
2312.34878	0.30755
2310.42021	0.30861
2308.49165	0.30943
2306.56309	0.30998
2304.63452	0.31053
2302.70596	0.31141
2300.77739	0.31262
2298.84883	0.31384
2296.92026	0.31492
2294.99170	0.31610
2293.06313	0.31745
2291.13457	0.31885
2289.20601	0.32032
2287.27744	0.32184
2285.34888	0.32331
2283.42031	0.32494
2281.49175	0.32693
2279.56318	0.32921
2277.63462	0.33143
2275.70605	0.33343
2273.77749	0.33541
2271.84893	0.33755
2269.92036	0.33976
2267.99180	0.34195
2266.06323	0.34402
2264.13467	0.34602
2262.20610	0.34808
2260.27754	0.35016
2258.34897	0.35224
2256.42041	0.35434
2254.49185	0.35640
2252.56328	0.35847
2250.63472	0.36059
2248.70615	0.36277
2246.77759	0.36495
2244.84902	0.36714
2242.92046	0.36934
2240.99189	0.37159
2239.06333	0.37387
2237.13477	0.37603
2235.20620	0.37808
2233.27764	0.38019
2231.34907	0.38235
2229.42051	0.38463
2227.49194	0.38707
2225.56338	0.38953
2223.63481	0.39187
2221.70625	0.39401
2219.77769	0.39605
2217.84912	0.39816
2215.92056	0.40034
2213.99199	0.40251
2212.06343	0.40466
2210.13486	0.40685
2208.20630	0.40906
2206.27773	0.41122
2204.34917	0.41328
2202.42061	0.41531
2200.49204	0.41744
2198.56348	0.41963
2196.63491	0.42166
2194.70635	0.42354
2192.77778	0.42544
2190.84922	0.42740
2188.92065	0.42934
2186.99209	0.43120
2185.06353	0.43292
2183.13496	0.43456
2181.20640	0.43625
2179.27783	0.43799
2177.34927	0.43962
2175.42070	0.44114
2173.49214	0.44270
2171.56357	0.44419
2169.63501	0.44554
2167.70645	0.44682
2165.77788	0.44816
2163.84932	0.44948
2161.92075	0.45063
2159.99219	0.45163
2158.06362	0.45267
2156.13506	0.45377
2154.20649	0.45472
2152.27793	0.45547
2150.34937	0.45609
2148.42080	0.45670
2146.49224	0.45735
2144.56367	0.45790
2142.63511	0.45838
2140.70654	0.45883
2138.77798	0.45912
2136.84941	0.45920
2134.92085	0.45925
2132.99229	0.45926
2131.06372	0.45917
2129.13516	0.45903
2127.20659	0.45887
2125.27803	0.45858
2123.34946	0.45807
2121.42090	0.45749
2119.49233	0.45699
2117.56377	0.45649
2115.63521	0.45582
2113.70664	0.45501
2111.77808	0.45417
2109.84951	0.45326
2107.92095	0.45223
2105.99238	0.45108
2104.06382	0.44987
2102.13525	0.44855
2100.20669	0.44719
2098.27812	0.44582
2096.34956	0.44444
2094.42100	0.44296
2092.49243	0.44128
2090.56387	0.43945
2088.63530	0.43766
2086.70674	0.43598
2084.77817	0.43429
2082.84961	0.43241
2080.92104	0.43029
2078.99248	0.42808
2077.06392	0.42583
2075.13535	0.42359
2073.20679	0.42147
2071.27822	0.41933
2069.34966	0.41706
2067.42109	0.41482
2065.49253	0.41265
2063.56396	0.41026
2061.63540	0.40773
2059.70684	0.40528
2057.77827	0.40279
2055.84971	0.40010
2053.92114	0.39737
2051.99258	0.39471
2050.06401	0.39198
2048.13545	0.38921
2046.20688	0.38651
2044.27832	0.38396
2042.34976	0.38149
2040.42119	0.37882
2038.49263	0.37595
2036.56406	0.37315
2034.63550	0.37049
2032.70693	0.36779
2030.77837	0.36499
2028.84980	0.36212
2026.92124	0.35929
2024.99268	0.35653
2023.06411	0.35371
2021.13555	0.35088
2019.20698	0.34825
2017.27842	0.34568
2015.34985	0.34276
2013.42129	0.33961
2011.49272	0.33671
2009.56416	0.33410
2007.63560	0.33149
2005.70703	0.32879
2003.77847	0.32605
2001.84990	0.32334
1999.92134	0.32075
1997.99277	0.31817
1996.06421	0.31561
1994.13564	0.31332
1992.20708	0.31118
1990.27852	0.30865
1988.34995	0.30589
1986.42139	0.30322
1984.49282	0.30058
1982.56426	0.29799
1980.63569	0.29556
1978.70713	0.29334
1976.77856	0.29121
1974.85000	0.28898
1972.92144	0.28671
1970.99287	0.28458
1969.06431	0.28275
1967.13574	0.28099
1965.20718	0.27882
1963.27861	0.27647
1961.35005	0.27437
1959.42148	0.27239
1957.49292	0.27052
1955.56436	0.26880
1953.63579	0.26705
1951.70723	0.26522
1949.77866	0.26352
1947.85010	0.26205
1945.92153	0.26086
1943.99297	0.25995
1942.06440	0.25880
1940.13584	0.25683
1938.20728	0.25468
1936.27871	0.25300
1934.35015	0.25166
1932.42158	0.25043
1930.49302	0.24917
1928.56445	0.24797
1926.63589	0.24695
1924.70732	0.24636
1922.77876	0.24590
1920.85020	0.24495
1918.92163	0.24392
1916.99307	0.24298
1915.06450	0.24171
1913.13594	0.24058
1911.20737	0.24011
1909.27881	0.23986
1907.35024	0.23916
1905.42168	0.23809
1903.49312	0.23723
1901.56455	0.23659
1899.63599	0.23597
1897.70742	0.23557
1895.77886	0.23547
1893.85029	0.23528
1891.92173	0.23503
1889.99316	0.23516
1888.06460	0.23495
1886.13604	0.23412
1884.20747	0.23345
1882.27891	0.23317
1880.35034	0.23308
1878.42178	0.23296
1876.49321	0.23283
1874.56465	0.23274
1872.63608	0.23301
1870.70752	0.23411
1868.77896	0.23580
1866.85039	0.23618
1864.92183	0.23508
1862.99326	0.23429
1861.06470	0.23427
1859.13613	0.23462
1857.20757	0.23494
1855.27900	0.23533
1853.35044	0.23584
1851.42187	0.23654
1849.49331	0.23743
1847.56475	0.23857
1845.63618	0.24010
1843.70762	0.24154
1841.77905	0.24170
1839.85049	0.24133
1837.92192	0.24185
1835.99336	0.24285
1834.06479	0.24386
1832.13623	0.24535
1830.20767	0.24770
1828.27910	0.24948
1826.35054	0.25017
1824.42197	0.25105
1822.49341	0.25174
1820.56484	0.25243
1818.63628	0.25368
1816.70771	0.25530
1814.77915	0.25696
1812.85059	0.25906
1810.92202	0.26160
1808.99346	0.26369
1807.06489	0.26527
1805.13633	0.26705
1803.20776	0.26969
1801.27920	0.27294
1799.35063	0.27603
1797.42207	0.27835
1795.49351	0.28081
1793.56494	0.28434
1791.63638	0.28853
1789.70781	0.29113
1787.77925	0.29260
1785.85068	0.29538
1783.92212	0.29930
1781.99355	0.30359
1780.06499	0.30801
1778.13643	0.31224
1776.20786	0.31645
1774.27930	0.32171
1772.35073	0.32867
1770.42217	0.33491
1768.49360	0.33918
1766.56504	0.34335
1764.63647	0.34828
1762.70791	0.35454
1760.77935	0.36238
1758.85078	0.36940
1756.92222	0.37642
1754.99365	0.38395
1753.06509	0.39118
1751.13652	0.40071
1749.20796	0.41235
1747.27939	0.42248
1745.35083	0.43086
1743.42227	0.44003
1741.49370	0.45037
1739.56514	0.46246
1737.63657	0.47467
1735.70801	0.48621
1733.77944	0.50380
1731.85088	0.52322
1729.92231	0.53755
1727.99375	0.55217
1726.06519	0.56865
1724.13662	0.58742
1722.20806	0.60797
1720.27949	0.62767
1718.35093	0.65164
1716.42236	0.68508
1714.49380	0.71433
1712.56523	0.73744
1710.63667	0.76091
1708.70811	0.78736
1706.77954	0.81813
1704.85098	0.85444
1702.92241	0.88668
1700.99385	0.91920
1699.06528	0.96698
1697.13672	1.01011
1695.20815	1.05348
1693.27959	1.09619
1691.35103	1.13185
1689.42246	1.17386
1687.49390	1.21863
1685.56533	1.26279
1683.63677	1.32916
1681.70820	1.39663
1679.77964	1.44048
1677.85107	1.48278
1675.92251	1.53193
1673.99395	1.59273
1672.06538	1.64740
1670.13682	1.70089
1668.20825	1.76892
1666.27969	1.82497
1664.35112	1.87449
1662.42256	1.93814
1660.49399	2.01017
1658.56543	2.06623
1656.63687	2.11083
1654.70830	2.15082
1652.77974	2.21066
1650.85117	2.26796
1648.92261	2.28923
1646.99404	2.31439
1645.06548	2.33985
1643.13691	2.35699
1641.20835	2.36660
1639.27979	2.37412
1637.35122	2.37770
1635.42266	2.37544
1633.49409	2.36530
1631.56553	2.34869
1629.63696	2.32972
1627.70840	2.30035
1625.77983	2.26623
1623.85127	2.22307
1621.92271	2.16934
1619.99414	2.11998
1618.06558	2.07251
1616.13701	2.00758
1614.20845	1.94101
1612.27988	1.88940
1610.35132	1.83615
1608.42275	1.77902
1606.49419	1.72300
1604.56562	1.67182
1602.63706	1.62257
1600.70850	1.57423
1598.77993	1.52973
1596.85137	1.48814
1594.92280	1.44805
1592.99424	1.40970
1591.06567	1.37446
1589.13711	1.34129
1587.20854	1.31080
1585.27998	1.28319
1583.35142	1.25785
1581.42285	1.23520
1579.49429	1.21655
1577.56572	1.20079
1575.63716	1.18194
1573.70859	1.16428
1571.78003	1.15271
1569.85146	1.14217
1567.92290	1.13064
1565.99434	1.12198
1564.06577	1.11681
1562.13721	1.11429
1560.20864	1.11542
1558.28008	1.12080
1556.35151	1.12346
1554.42295	1.12408
1552.49438	1.12543
1550.56582	1.12548
1548.63726	1.12276
1546.70869	1.11745
1544.78013	1.10971
1542.85156	1.09924
1540.92300	1.08260
1538.99443	1.05249
1537.06587	1.02709
1535.13730	1.01028
1533.20874	0.98978
1531.28018	0.96723
1529.35161	0.95053
1527.42305	0.93593
1525.49448	0.92130
1523.56592	0.90897
1521.63735	0.89756
1519.70879	0.88528
1517.78022	0.87426
1515.85166	0.86137
1513.92310	0.84724
1511.99453	0.83521
1510.06597	0.82565
1508.13740	0.81781
1506.20884	0.80336
1504.28027	0.78680
1502.35171	0.77718
1500.42314	0.77036
1498.49458	0.76413
1496.56602	0.75651
1494.63745	0.74771
1492.70889	0.74086
1490.78032	0.73604
1488.85176	0.73075
1486.92319	0.72451
1484.99463	0.71917
1483.06606	0.71547
1481.13750	0.71292
1479.20894	0.71117
1477.28037	0.71072
1475.35181	0.71172
1473.42324	0.71328
1471.49468	0.71272
1469.56611	0.70945
1467.63755	0.70639
1465.70898	0.70471
1463.78042	0.70358
1461.85186	0.70269
1459.92329	0.70332
1457.99473	0.70574
1456.06616	0.70608
1454.13760	0.70204
1452.20903	0.69780
1450.28047	0.69434
1448.35190	0.69145
1446.42334	0.68833
1444.49478	0.68496
1442.56621	0.68188
1440.63765	0.67909
1438.70908	0.67673
1436.78052	0.67405
1434.85195	0.67012
1432.92339	0.66657
1430.99482	0.66463
1429.06626	0.66388
1427.13770	0.66368
1425.20913	0.66429
1423.28057	0.66559
1421.35200	0.66670
1419.42344	0.66790
1417.49487	0.66821
1415.56631	0.66651
1413.63774	0.66497
1411.70918	0.66463
1409.78062	0.66521
1407.85205	0.66654
1405.92349	0.66850
1403.99492	0.67005
1402.06636	0.67026
1400.13779	0.66986
1398.20923	0.66895
1396.28066	0.66679
1394.35210	0.66284
1392.42354	0.65763
1390.49497	0.65291
1388.56641	0.64883
1386.63784	0.64388
1384.70928	0.63787
1382.78071	0.63223
1380.85215	0.62734
1378.92358	0.62332
1376.99502	0.62058
1375.06646	0.61895
1373.13789	0.61744
1371.20933	0.61594
1369.28076	0.61504
1367.35220	0.61415
1365.42363	0.61292
1363.49507	0.61182
1361.56650	0.61039
1359.63794	0.60828
1357.70937	0.60637
1355.78081	0.60502
1353.85225	0.60388
1351.92368	0.60290
1349.99512	0.60221
1348.06655	0.60149
1346.13799	0.60053
1344.20942	0.59961
1342.28086	0.59920
1340.35229	0.59927
1338.42373	0.59885
1336.49517	0.59762
1334.56660	0.59659
1332.63804	0.59622
1330.70947	0.59626
1328.78091	0.59663
1326.85234	0.59741
1324.92378	0.59840
1322.99521	0.59938
1321.06665	0.60044
1319.13809	0.60143
1317.20952	0.60197
1315.28096	0.60205
1313.35239	0.60182
1311.42383	0.60114
1309.49526	0.60019
1307.56670	0.59941
1305.63813	0.59884
1303.70957	0.59822
1301.78101	0.59739
1299.85244	0.59631
1297.92388	0.59506
1295.99531	0.59374
1294.06675	0.59234
1292.13818	0.59093
1290.20962	0.58959
1288.28105	0.58830
1286.35249	0.58696
1284.42393	0.58558
1282.49536	0.58417
1280.56680	0.58272
1278.63823	0.58127
1276.70967	0.57988
1274.78110	0.57866
1272.85254	0.57773
1270.92397	0.57706
1268.99541	0.57638
1267.06685	0.57555
1265.13828	0.57470
1263.20972	0.57387
1261.28115	0.57306
1259.35259	0.57232
1257.42402	0.57170
1255.49546	0.57126
1253.56689	0.57112
1251.63833	0.57129
1249.70977	0.57158
1247.78120	0.57167
1245.85264	0.57147
1243.92407	0.57098
1241.99551	0.57014
1240.06694	0.56882
1238.13838	0.56703
1236.20981	0.56490
1234.28125	0.56251
1232.35269	0.56008
1230.42412	0.55791
1228.49556	0.55597
1226.56699	0.55401
1224.63843	0.55206
1222.70986	0.55020
1220.78130	0.54844
1218.85273	0.54683
1216.92417	0.54541
1214.99561	0.54424
1213.06704	0.54329
1211.13848	0.54247
1209.20991	0.54174
1207.28135	0.54105
1205.35278	0.54021
1203.42422	0.53924
1201.49565	0.53830
1199.56709	0.53743
1197.63853	0.53662
1195.70996	0.53595
1193.78140	0.53549
1191.85283	0.53518
1189.92427	0.53481
1187.99570	0.53437
1186.06714	0.53404
1184.13857	0.53407
1182.21001	0.53454
1180.28145	0.53540
1178.35288	0.53662
1176.42432	0.53810
1174.49575	0.53946
1172.56719	0.54044
1170.63862	0.54101
1168.71006	0.54107
1166.78149	0.54069
1164.85293	0.54026
1162.92437	0.54003
1160.99580	0.53983
1159.06724	0.53952
1157.13867	0.53901
1155.21011	0.53815
1153.28154	0.53692
1151.35298	0.53516
1149.42441	0.53278
1147.49585	0.53007
1145.56729	0.52731
1143.63872	0.52467
1141.71016	0.52236
1139.78159	0.52039
1137.85303	0.51890
1135.92446	0.51791
1133.99590	0.51726
1132.06733	0.51707
1130.13877	0.51719
1128.21021	0.51712
1126.28164	0.51671
1124.35308	0.51608
1122.42451	0.51540
1120.49595	0.51472
1118.56738	0.51432
1116.63882	0.51442
1114.71025	0.51475
1112.78169	0.51506
1110.85312	0.51537
1108.92456	0.51579
1106.99600	0.51643
1105.06743	0.51733
1103.13887	0.51853
1101.21030	0.52004
1099.28174	0.52179
1097.35317	0.52391
1095.42461	0.52668
1093.49604	0.53019
1091.56748	0.53454
1089.63892	0.53992
1087.71035	0.54656
1085.78179	0.55425
1083.85322	0.56213
1081.92466	0.56913
1079.99609	0.57416
1078.06753	0.57658
1076.13896	0.57639
1074.21040	0.57365
1072.28184	0.56878
1070.35327	0.56245
1068.42471	0.55518
1066.49614	0.54795
1064.56758	0.54150
1062.63901	0.53565
1060.71045	0.53033
1058.78188	0.52576
1056.85332	0.52179
1054.92476	0.51818
1052.99619	0.51516
1051.06763	0.51282
1049.13906	0.51089
1047.21050	0.50939
1045.28193	0.50826
1043.35337	0.50738
1041.42480	0.50669
1039.49624	0.50598
1037.56768	0.50533
1035.63911	0.50497
1033.71055	0.50462
1031.78198	0.50394
1029.85342	0.50285
1027.92485	0.50145
1025.99629	0.50011
1024.06772	0.49919
1022.13916	0.49875
1020.21060	0.49872
1018.28203	0.49901
1016.35347	0.49946
1014.42490	0.49978
1012.49634	0.49998
1010.56777	0.50028
1008.63921	0.50079
1006.71064	0.50161
1004.78208	0.50289
1002.85352	0.50482
1000.92495	0.50740
998.99639	0.51067
997.06782	0.51462
995.13926	0.51889
993.21069	0.52305
991.28213	0.52673
989.35356	0.52933
987.42500	0.53067
985.49644	0.53121
983.56787	0.53133
981.63931	0.53148
979.71074	0.53217
977.78218	0.53349
975.85361	0.53538
973.92505	0.53780
971.99648	0.54071
970.06792	0.54403
968.13936	0.54775
966.21079	0.55193
964.28223	0.55645
962.35366	0.56114
960.42510	0.56600
958.49653	0.57119
956.56797	0.57682
954.63940	0.58292
952.71084	0.58910
950.78228	0.59522
948.85371	0.60162
946.92515	0.60812
944.99658	0.61442
943.06802	0.62077
941.13945	0.62707
939.21089	0.63302
937.28232	0.63878
935.35376	0.64454
933.42520	0.65027
931.49663	0.65595
929.56807	0.66171
927.63950	0.66754
925.71094	0.67351
923.78237	0.67970
921.85381	0.68580
919.92524	0.69200
917.99668	0.69871
916.06812	0.70605
914.13955	0.71379
912.21099	0.72171
910.28242	0.73012
908.35386	0.73871
906.42529	0.74691
904.49673	0.75528
902.56816	0.76416
900.63960	0.77347
898.71104	0.78371
896.78247	0.79464
894.85391	0.80521
892.92534	0.81441
890.99678	0.82248
889.06821	0.83177
887.13965	0.84338
885.21108	0.85552
883.28252	0.86699
881.35396	0.87802
879.42539	0.88860
877.49683	0.89962
875.56826	0.91152
873.63970	0.92302
871.71113	0.93486
869.78257	0.94807
867.85400	0.96097
865.92544	0.97295
863.99687	0.98460
862.06831	0.99503
860.13975	1.00491
858.21118	1.01661
856.28262	1.03005
854.35405	1.04357
852.42549	1.05651
850.49692	1.07029
848.56836	1.08340
846.63979	1.09358
844.71123	1.10357
842.78267	1.11408
840.85410	1.12396
838.92554	1.13396
836.99697	1.14449
835.06841	1.15572
833.13984	1.16862
831.21128	1.18122
829.28271	1.18994
827.35415	1.19756
825.42559	1.20911
823.49702	1.22504
821.56846	1.23725
819.63989	1.23983
817.71133	1.24128
815.78276	1.25083
813.85420	1.26707
811.92563	1.28350
809.99707	1.30044
808.06851	1.31913
806.13994	1.33055
804.21138	1.32594
802.28281	1.32139
800.35425	1.33073
798.42568	1.33596
796.49712	1.32735
794.56855	1.31633
792.63999	1.30468
790.71143	1.29257
788.78286	1.29697
786.85430	1.31801
784.92573	1.33361
782.99717	1.34236
781.06860	1.34110
779.14004	1.32435
777.21147	1.32630
775.28291	1.37204
773.35435	1.45019
771.42578	1.49669
769.49722	1.41988
767.56865	1.33999
765.64009	1.32019
763.71152	1.31545
761.78296	1.31216
759.85439	1.23476
757.92583	1.11647
755.99727	1.07123
754.06870	1.07568
752.14014	1.05329
750.21157	1.01919
748.28301	1.03869
746.35444	1.11813
744.42588	1.17420
742.49731	1.19450
740.56875	1.28399
738.64019	1.41717
736.71162	1.25978
734.78306	0.92960
732.85449	0.67044
730.92593	0.52233
728.99736	0.48817
727.06880	0.48825
725.14023	0.40267
723.21167	0.30874
721.28311	0.26777
719.35454	0.19228
717.42598	0.08570
715.49741	0.03229
713.56885	-0.02942
711.64028	-0.16645
709.71172	-0.19496
707.78315	0.00003
705.85459	0.12536
703.92603	0.12955
701.99746	0.09941
700.06890	0.09851
698.14033	0.14752
696.21177	0.23118
694.28320	0.28025
692.35464	0.28237
690.42607	0.33739
688.49751	0.45743
686.56895	0.47051
684.64038	0.31171
682.71182	0.21356
680.78325	0.21368
678.85469	0.21882
676.92612	0.18479
674.99756	0.20195
673.06899	0.28662
671.14043	0.38674
669.21187	0.45992
667.28330	0.41784
665.35474	0.35971
663.42617	0.29130
661.49761	0.19927
659.56904	0.14891
657.64048	0.17066
655.71191	0.24988
653.78335	0.28091
651.85479	0.21814
649.92622	0.16325
647.99766	0.19681
646.06909	0.31758
644.14053	0.38741
642.21196	0.33092
640.28340	0.32301
638.35483	0.37016
636.42627	0.39322
634.49771	0.49876
632.56914	0.59921
630.64058	0.48133
628.71201	0.41949
626.78345	0.41933
624.85488	0.34888
622.92632	0.19927
620.99775	0.11447
619.06919	0.11408
617.14062	0.14455
615.21206	0.16864
613.28350	0.20117
611.35493	0.24391
609.42637	0.23068
607.49780	0.18438
605.56924	0.15589
603.64067	0.15572
601.71211	0.18664
599.78354	0.20758
597.85498	0.19308
595.92642	0.18856
593.99785	0.19384
592.06929	0.22848
590.14072	0.31202
588.21216	0.34615
586.28359	0.27644
584.35503	0.21123
582.42646	0.20383
580.49790	0.23833
578.56934	0.27649
576.64077	0.29788
574.71221	0.31219
572.78364	0.27976
570.85508	0.21525
568.92651	0.15987
566.99795	0.12077
565.06938	0.12668
563.14082	0.15152
561.21226	0.14093
559.28369	0.11498
557.35513	0.12938
555.42656	0.18598
553.49800	0.23150
551.56943	0.22366
549.64087	0.19247
547.71230	0.18282
545.78374	0.22371
543.85518	0.25212
541.92661	0.21050
539.99805	0.19870
538.06948	0.26573
536.14092	0.36533
534.21235	0.36943
532.28379	0.26218
530.35522	0.15676
528.42666	0.11101
526.49810	0.13325
524.56953	0.17809
522.64097	0.18956
520.71240	0.19158
518.78384	0.20082
516.85527	0.20490
514.92671	0.19897
512.99814	0.17807
511.06958	0.16184
509.14102	0.17459
507.21245	0.19348
505.28389	0.18990
503.35532	0.16425
501.42676	0.12671
499.49819	0.11562
