3997.91411	0.06203
3995.98555	0.06289
3994.05698	0.06409
3992.12842	0.06479
3990.19985	0.06506
3988.27129	0.06507
3986.34272	0.06505
3984.41416	0.06540
3982.48560	0.06599
3980.55703	0.06628
3978.62847	0.06617
3976.69990	0.06636
3974.77134	0.06716
3972.84277	0.06777
3970.91421	0.06786
3968.98564	0.06790
3967.05708	0.06770
3965.12852	0.06727
3963.19995	0.06744
3961.27139	0.06807
3959.34282	0.06826
3957.41426	0.06824
3955.48569	0.06847
3953.55713	0.06880
3951.62856	0.06970
3949.70000	0.07159
3947.77144	0.07302
3945.84287	0.07268
3943.91431	0.07241
3941.98574	0.07285
3940.05718	0.07169
3938.12861	0.06950
3936.20005	0.06870
3934.27148	0.07004
3932.34292	0.07285
3930.41436	0.07458
3928.48579	0.07352
3926.55723	0.07252
3924.62866	0.07365
3922.70010	0.07433
3920.77153	0.07339
3918.84297	0.07338
3916.91440	0.07417
3914.98584	0.07278
3913.05728	0.06961
3911.12871	0.06774
3909.20015	0.06798
3907.27158	0.07026
3905.34302	0.07518
3903.41445	0.08128
3901.48589	0.08440
3899.55732	0.08340
3897.62876	0.07926
3895.70020	0.07442
3893.77163	0.07332
3891.84307	0.07648
3889.91450	0.07827
3887.98594	0.07678
3886.05737	0.07747
3884.12881	0.08007
3882.20024	0.08114
3880.27168	0.08147
3878.34312	0.07908
3876.41455	0.07594
3874.48599	0.07755
3872.55742	0.08250
3870.62886	0.08677
3868.70029	0.08792
3866.77173	0.08570
3864.84316	0.08511
3862.91460	0.08554
3860.98604	0.08257
3859.05747	0.07963
3857.12891	0.08111
3855.20034	0.08751
3853.27178	0.09728
3851.34321	0.09862
3849.41465	0.08883
3847.48608	0.08111
3845.55752	0.07915
3843.62896	0.08262
3841.70039	0.08911
3839.77183	0.09566
3837.84326	0.09970
3835.91470	0.09842
3833.98613	0.09455
3832.05757	0.09180
3830.12900	0.08983
3828.20044	0.08888
3826.27187	0.08977
3824.34331	0.09161
3822.41475	0.09586
3820.48618	0.10333
3818.55762	0.10598
3816.62905	0.10366
3814.70049	0.10014
3812.77192	0.09453
3810.84336	0.09107
3808.91479	0.09271
3806.98623	0.09839
3805.05767	0.10355
3803.12910	0.10730
3801.20054	0.11229
3799.27197	0.11332
3797.34341	0.11012
3795.41484	0.10762
3793.48628	0.10481
3791.55771	0.10250
3789.62915	0.10213
3787.70059	0.10355
3785.77202	0.10680
3783.84346	0.11016
3781.91489	0.11200
3779.98633	0.11440
3778.05776	0.11674
3776.12920	0.11608
3774.20063	0.11539
3772.27207	0.11790
3770.34351	0.12326
3768.41494	0.12813
3766.48638	0.12998
3764.55781	0.13056
3762.62925	0.13127
3760.70068	0.13435
3758.77212	0.14028
3756.84355	0.14468
3754.91499	0.14705
3752.98643	0.15281
3751.05786	0.16409
3749.12930	0.17276
3747.20073	0.17280
3745.27217	0.17290
3743.34360	0.17506
3741.41504	0.17530
3739.48647	0.17628
3737.55791	0.18193
3735.62935	0.19305
3733.70078	0.20251
3731.77222	0.20202
3729.84365	0.19816
3727.91509	0.19859
3725.98652	0.20464
3724.05796	0.21307
3722.12939	0.22034
3720.20083	0.22615
3718.27227	0.23083
3716.34370	0.23586
3714.41514	0.24389
3712.48657	0.25816
3710.55801	0.27725
3708.62944	0.28995
3706.70088	0.29551
3704.77231	0.30300
3702.84375	0.31631
3700.91519	0.33478
3698.98662	0.35271
3697.05806	0.36884
3695.12949	0.38751
3693.20093	0.40945
3691.27236	0.43606
3689.34380	0.46993
3687.41523	0.50376
3685.48667	0.52786
3683.55811	0.54957
3681.62954	0.57709
3679.70098	0.61182
3677.77241	0.65093
3675.84385	0.69727
3673.91528	0.75251
3671.98672	0.79391
3670.05815	0.83270
3668.12959	0.88356
3666.20103	0.92592
3664.27246	0.96253
3662.34390	1.00531
3660.41533	1.05337
3658.48677	1.10208
3656.55820	1.15481
3654.62964	1.21205
3652.70107	1.26035
3650.77251	1.30729
3648.84395	1.37284
3646.91538	1.44081
3644.98682	1.48204
3643.05825	1.51473
3641.12969	1.55228
3639.20112	1.59550
3637.27256	1.64018
3635.34399	1.68486
3633.41543	1.73044
3631.48687	1.77437
3629.55830	1.82073
3627.62974	1.87793
3625.70117	1.92453
3623.77261	1.95447
3621.84404	1.98716
3619.91548	2.02854
3617.98691	2.07737
3616.05835	2.12071
3614.12979	2.15639
3612.20122	2.19444
3610.27266	2.23245
3608.34409	2.27240
3606.41553	2.31520
3604.48696	2.35182
3602.55840	2.38412
3600.62983	2.42282
3598.70127	2.46701
3596.77271	2.50917
3594.84414	2.55058
3592.91558	2.59257
3590.98701	2.63114
3589.05845	2.66726
3587.12988	2.71106
3585.20132	2.75763
3583.27275	2.79577
3581.34419	2.83235
3579.41562	2.87298
3577.48706	2.91649
3575.55850	2.96054
3573.62993	3.00433
3571.70137	3.04608
3569.77280	3.08825
3567.84424	3.13742
3565.91567	3.19480
3563.98711	3.24140
3562.05854	3.27574
3560.12998	3.31378
3558.20142	3.35838
3556.27285	3.40445
3554.34429	3.44884
3552.41572	3.49609
3550.48716	3.54585
3548.55859	3.59286
3546.63003	3.63832
3544.70146	3.68524
3542.77290	3.73107
3540.84434	3.77492
3538.91577	3.81938
3536.98721	3.86641
3535.05864	3.91867
3533.13008	3.97065
3531.20151	4.01782
3529.27295	4.06308
3527.34438	4.11030
3525.41582	4.15973
3523.48726	4.20961
3521.55869	4.25847
3519.63013	4.30385
3517.70156	4.34912
3515.77300	4.39788
3513.84443	4.44889
3511.91587	4.49857
3509.98730	4.54862
3508.05874	4.60122
3506.13018	4.65033
3504.20161	4.69741
3502.27305	4.74855
3500.34448	4.79808
3498.41592	4.84453
3496.48735	4.89307
3494.55879	4.93965
3492.63022	4.98506
3490.70166	5.03421
3488.77310	5.08264
3486.84453	5.12614
3484.91597	5.17042
3482.98740	5.22267
3481.05884	5.27908
3479.13027	5.33028
3477.20171	5.37758
3475.27314	5.42951
3473.34458	5.48219
3471.41602	5.52424
3469.48745	5.56387
3467.55889	5.61174
3465.63032	5.66054
3463.70176	5.70955
3461.77319	5.76563
3459.84463	5.82937
3457.91606	5.88918
3455.98750	5.93850
3454.05894	5.98490
3452.13037	6.03466
3450.20181	6.08529
3448.27324	6.13225
3446.34468	6.18200
3444.41611	6.23210
3442.48755	6.28576
3440.55898	6.34872
3438.63042	6.40649
3436.70186	6.44952
3434.77329	6.48623
3432.84473	6.52445
3430.91616	6.56825
3428.98760	6.61810
3427.05903	6.65956
3425.13047	6.70743
3423.20190	6.77059
3421.27334	6.82413
3419.34478	6.86110
3417.41621	6.90253
3415.48765	6.95891
3413.55908	7.02224
3411.63052	7.09347
3409.70195	7.16360
3407.77339	7.23294
3405.84482	7.28401
3403.91626	7.30248
3401.98770	7.31974
3400.05913	7.35053
3398.13057	7.36965
3396.20200	7.37560
3394.27344	7.40158
3392.34487	7.44760
3390.41631	7.49946
3388.48774	7.54197
3386.55918	7.59995
3384.63062	7.66901
3382.70205	7.71362
3380.77349	7.72060
3378.84492	7.69083
3376.91636	7.69559
3374.98779	7.74132
3373.05923	7.76465
3371.13066	7.76317
3369.20210	7.81495
3367.27354	7.94175
3365.34497	8.05168
3363.41641	8.06625
3361.48784	8.03103
3359.55928	8.02813
3357.63071	8.05374
3355.70215	8.08995
3353.77358	8.11974
3351.84502	8.13280
3349.91646	8.12487
3347.98789	8.10368
3346.05933	8.08026
3344.13076	8.10786
3342.20220	8.19454
3340.27363	8.18443
3338.34507	8.09609
3336.41650	8.08789
3334.48794	8.14636
3332.55937	8.18167
3330.63081	8.20209
3328.70225	8.22736
3326.77368	8.24537
3324.84512	8.22847
3322.91655	8.24400
3320.98799	8.38377
3319.05942	8.44876
3317.13086	8.34263
3315.20229	8.27365
3313.27373	8.30650
3311.34517	8.31267
3309.41660	8.24418
3307.48804	8.20577
3305.55947	8.18297
3303.63091	8.15775
3301.70234	8.16688
3299.77378	8.17526
3297.84521	8.16409
3295.91665	8.19874
3293.98809	8.25650
3292.05952	8.24570
3290.13096	8.19318
3288.20239	8.20987
3286.27383	8.30522
3284.34526	8.32582
3282.41670	8.25778
3280.48813	8.23677
3278.55957	8.24665
3276.63101	8.21801
3274.70244	8.24848
3272.77388	8.37887
3270.84531	8.43748
3268.91675	8.34583
3266.98818	8.25472
3265.05962	8.26378
3263.13105	8.31760
3261.20249	8.29960
3259.27393	8.15529
3257.34536	8.06359
3255.41680	8.10381
3253.48823	8.13974
3251.55967	8.19892
3249.63110	8.33408
3247.70254	8.39591
3245.77397	8.32233
3243.84541	8.23015
3241.91685	8.18551
3239.98828	8.18939
3238.05972	8.24126
3236.13115	8.33682
3234.20259	8.38414
3232.27402	8.33221
3230.34546	8.30129
3228.41689	8.30058
3226.48833	8.24113
3224.55977	8.14529
3222.63120	8.09285
3220.70264	8.08375
3218.77407	8.09933
3216.84551	8.14578
3214.91694	8.11983
3212.98838	7.98035
3211.05981	7.88735
3209.13125	7.90421
3207.20269	7.95433
3205.27412	7.99970
3203.34556	8.02825
3201.41699	8.00246
3199.48843	7.93333
3197.55986	7.87173
3195.63130	7.82488
3193.70273	7.74815
3191.77417	7.65245
3189.84561	7.60792
3187.91704	7.61796
3185.98848	7.61388
3184.05991	7.57468
3182.13135	7.53380
3180.20278	7.49804
3178.27422	7.47265
3176.34565	7.45649
3174.41709	7.40780
3172.48853	7.31937
3170.55996	7.21128
3168.63140	7.08570
3166.70283	6.97930
3164.77427	6.92403
3162.84570	6.88720
3160.91714	6.83860
3158.98857	6.77344
3157.06001	6.70121
3155.13145	6.64698
3153.20288	6.58958
3151.27432	6.51451
3149.34575	6.44487
3147.41719	6.38386
3145.48862	6.32361
3143.56006	6.25040
3141.63149	6.16477
3139.70293	6.08559
3137.77437	6.02101
3135.84580	5.96099
3133.91724	5.89351
3131.98867	5.82010
3130.06011	5.74871
3128.13154	5.67720
3126.20298	5.59887
3124.27441	5.51826
3122.34585	5.44077
3120.41729	5.36618
3118.48872	5.29419
3116.56016	5.22563
3114.63159	5.15847
3112.70303	5.09167
3110.77446	5.02388
3108.84590	4.95202
3106.91733	4.87998
3104.98877	4.80916
3103.06021	4.73778
3101.13164	4.66642
3099.20308	4.59552
3097.27451	4.52632
3095.34595	4.45897
3093.41738	4.39240
3091.48882	4.32631
3089.56025	4.26079
3087.63169	4.19597
3085.70312	4.13183
3083.77456	4.06594
3081.84600	3.99838
3079.91743	3.93340
3077.98887	3.87140
3076.06030	3.80958
3074.13174	3.74813
3072.20317	3.68906
3070.27461	3.63164
3068.34604	3.57308
3066.41748	3.51302
3064.48892	3.45406
3062.56035	3.39754
3060.63179	3.34248
3058.70322	3.28737
3056.77466	3.23230
3054.84609	3.17835
3052.91753	3.12489
3050.98896	3.07175
3049.06040	3.01970
3047.13184	2.96784
3045.20327	2.91558
3043.27471	2.86468
3041.34614	2.81597
3039.41758	2.76784
3037.48901	2.71988
3035.56045	2.67292
3033.63188	2.62692
3031.70332	2.58125
3029.77476	2.53610
3027.84619	2.49204
3025.91763	2.44833
3023.98906	2.40486
3022.06050	2.36246
3020.13193	2.32046
3018.20337	2.27870
3016.27480	2.23851
3014.34624	2.19969
3012.41768	2.16079
3010.48911	2.12187
3008.56055	2.08405
3006.63198	2.04725
3004.70342	2.01090
3002.77485	1.97477
3000.84629	1.93865
2998.91772	1.90299
2996.98916	1.86825
2995.06060	1.83440
2993.13203	1.80120
2991.20347	1.76835
2989.27490	1.73584
2987.34634	1.70398
2985.41777	1.67284
2983.48921	1.64226
2981.56064	1.61221
2979.63208	1.58263
2977.70352	1.55310
2975.77495	1.52355
2973.84639	1.49439
2971.91782	1.46585
2969.98926	1.43819
2968.06069	1.41139
2966.13213	1.38486
2964.20356	1.35824
2962.27500	1.33204
2960.34644	1.30667
2958.41787	1.28189
2956.48931	1.25758
2954.56074	1.23390
2952.63218	1.21087
2950.70361	1.18836
2948.77505	1.16623
2946.84648	1.14428
2944.91792	1.12230
2942.98936	1.10060
2941.06079	1.07977
2939.13223	1.05947
2937.20366	1.03913
2935.27510	1.01877
2933.34653	0.99862
2931.41797	0.97925
2929.48940	0.96089
2927.56084	0.94302
2925.63228	0.92568
2923.70371	0.90923
2921.77515	0.89282
2919.84658	0.87589
2917.91802	0.85899
2915.98945	0.84251
2914.06089	0.82704
2912.13232	0.81298
2910.20376	0.79960
2908.27520	0.78595
2906.34663	0.77204
2904.41807	0.75855
2902.48950	0.74574
2900.56094	0.73316
2898.63237	0.72063
2896.70381	0.70839
2894.77524	0.69629
2892.84668	0.68427
2890.91812	0.67247
2888.98955	0.66065
2887.06099	0.64894
2885.13242	0.63778
2883.20386	0.62699
2881.27529	0.61622
2879.34673	0.60547
2877.41816	0.59479
2875.48960	0.58417
2873.56104	0.57370
2871.63247	0.56365
2869.70391	0.55394
2867.77534	0.54408
2865.84678	0.53412
2863.91821	0.52452
2861.98965	0.51526
2860.06108	0.50616
2858.13252	0.49731
2856.20396	0.48875
2854.27539	0.48029
2852.34683	0.47193
2850.41826	0.46382
2848.48970	0.45579
2846.56113	0.44814
2844.63257	0.44141
2842.70400	0.43515
2840.77544	0.42895
2838.84687	0.42317
2836.91831	0.41786
2834.98975	0.41254
2833.06118	0.40711
2831.13262	0.40156
2829.20405	0.39580
2827.27549	0.38983
2825.34692	0.38383
2823.41836	0.37807
2821.48979	0.37253
2819.56123	0.36695
2817.63267	0.36131
2815.70410	0.35583
2813.77554	0.35051
2811.84697	0.34525
2809.91841	0.34012
2807.98984	0.33509
2806.06128	0.33008
2804.13271	0.32509
2802.20415	0.32024
2800.27559	0.31564
2798.34702	0.31122
2796.41846	0.30691
2794.48989	0.30264
2792.56133	0.29834
2790.63276	0.29400
2788.70420	0.28967
2786.77563	0.28548
2784.84707	0.28140
2782.91851	0.27736
2780.98994	0.27358
2779.06138	0.27005
2777.13281	0.26654
2775.20425	0.26289
2773.27568	0.25929
2771.34712	0.25594
2769.41855	0.25275
2767.48999	0.24952
2765.56143	0.24624
2763.63286	0.24303
2761.70430	0.23990
2759.77573	0.23677
2757.84717	0.23365
2755.91860	0.23080
2753.99004	0.22818
2752.06147	0.22554
2750.13291	0.22286
2748.20435	0.22014
2746.27578	0.21740
2744.34722	0.21485
2742.41865	0.21248
2740.49009	0.21012
2738.56152	0.20779
2736.63296	0.20545
2734.70439	0.20311
2732.77583	0.20077
2730.84727	0.19847
2728.91870	0.19639
2726.99014	0.19454
2725.06157	0.19266
2723.13301	0.19072
2721.20444	0.18875
2719.27588	0.18681
2717.34731	0.18500
2715.41875	0.18325
2713.49019	0.18154
2711.56162	0.17987
2709.63306	0.17820
2707.70449	0.17656
2705.77593	0.17509
2703.84736	0.17380
2701.91880	0.17246
2699.99023	0.17092
2698.06167	0.16935
2696.13311	0.16793
2694.20454	0.16665
2692.27598	0.16536
2690.34741	0.16410
2688.41885	0.16299
2686.49028	0.16190
2684.56172	0.16062
2682.63315	0.15926
2680.70459	0.15809
2678.77603	0.15714
2676.84746	0.15622
2674.91890	0.15525
2672.99033	0.15423
2671.06177	0.15325
2669.13320	0.15239
2667.20464	0.15162
2665.27607	0.15084
2663.34751	0.15004
2661.41895	0.14916
2659.49038	0.14830
2657.56182	0.14769
2655.63325	0.14719
2653.70469	0.14663
2651.77612	0.14622
2649.84756	0.14589
2647.91899	0.14530
2645.99043	0.14447
2644.06187	0.14384
2642.13330	0.14343
2640.20474	0.14298
2638.27617	0.14248
2636.34761	0.14210
2634.41904	0.14185
2632.49048	0.14164
2630.56191	0.14140
2628.63335	0.14116
2626.70479	0.14095
2624.77622	0.14074
2622.84766	0.14051
2620.91909	0.14031
2618.99053	0.14017
2617.06196	0.14006
2615.13340	0.14000
2613.20483	0.13994
2611.27627	0.13983
2609.34771	0.13976
2607.41914	0.13984
2605.49058	0.13993
2603.56201	0.13989
2601.63345	0.13983
2599.70488	0.13996
2597.77632	0.14026
2595.84775	0.14061
2593.91919	0.14083
2591.99062	0.14087
2590.06206	0.14095
2588.13350	0.14120
2586.20493	0.14165
2584.27637	0.14215
2582.34780	0.14246
2580.41924	0.14264
2578.49067	0.14293
2576.56211	0.14336
2574.63354	0.14386
2572.70498	0.14425
2570.77642	0.14461
2568.84785	0.14512
2566.91929	0.14573
2564.99072	0.14622
2563.06216	0.14659
2561.13359	0.14700
2559.20503	0.14761
2557.27646	0.14831
2555.34790	0.14890
2553.41934	0.14936
2551.49077	0.14992
2549.56221	0.15062
2547.63364	0.15136
2545.70508	0.15217
2543.77651	0.15286
2541.84795	0.15340
2539.91938	0.15403
2537.99082	0.15482
2536.06226	0.15558
2534.13369	0.15622
2532.20513	0.15686
2530.27656	0.15755
2528.34800	0.15832
2526.41943	0.15915
2524.49087	0.15999
2522.56230	0.16090
2520.63374	0.16189
2518.70518	0.16282
2516.77661	0.16356
2514.84805	0.16425
2512.91948	0.16510
2510.99092	0.16607
2509.06235	0.16700
2507.13379	0.16785
2505.20522	0.16861
2503.27666	0.16943
2501.34810	0.17046
2499.41953	0.17157
2497.49097	0.17254
2495.56240	0.17336
2493.63384	0.17418
2491.70527	0.17508
2489.77671	0.17596
2487.84814	0.17684
2485.91958	0.17783
2483.99102	0.17881
2482.06245	0.17978
2480.13389	0.18082
2478.20532	0.18183
2476.27676	0.18280
2474.34819	0.18384
2472.41963	0.18484
2470.49106	0.18580
2468.56250	0.18683
2466.63394	0.18790
2464.70537	0.18894
2462.77681	0.18991
2460.84824	0.19087
2458.91968	0.19191
2456.99111	0.19300
2455.06255	0.19399
2453.13398	0.19487
2451.20542	0.19586
2449.27686	0.19706
2447.34829	0.19826
2445.41973	0.19934
2443.49116	0.20031
2441.56260	0.20132
2439.63403	0.20237
2437.70547	0.20338
2435.77690	0.20443
2433.84834	0.20562
2431.91978	0.20683
2429.99121	0.20797
2428.06265	0.20902
2426.13408	0.21011
2424.20552	0.21127
2422.27695	0.21238
2420.34839	0.21352
2418.41982	0.21478
2416.49126	0.21602
2414.56270	0.21723
2412.63413	0.21854
2410.70557	0.21992
2408.77700	0.22123
2406.84844	0.22243
2404.91987	0.22359
2402.99131	0.22472
2401.06274	0.22591
2399.13418	0.22715
2397.20562	0.22835
2395.27705	0.22951
2393.34849	0.23080
2391.41992	0.23229
2389.49136	0.23379
2387.56279	0.23539
2385.63423	0.23740
2383.70566	0.23992
2381.77710	0.24297
2379.84854	0.24653
2377.91997	0.25049
2375.99141	0.25478
2374.06284	0.25948
2372.13428	0.26475
2370.20571	0.27074
2368.27715	0.27697
2366.34858	0.28274
2364.42002	0.28752
2362.49146	0.29105
2360.56289	0.29371
2358.63433	0.29550
2356.70576	0.29543
2354.77720	0.29317
2352.84863	0.28993
2350.92007	0.28671
2348.99150	0.28494
2347.06294	0.28606
2345.13437	0.29075
2343.20581	0.29681
2341.27725	0.30030
2339.34868	0.30165
2337.42012	0.30270
2335.49155	0.30362
2333.56299	0.30411
2331.63442	0.30478
2329.70586	0.30584
2327.77729	0.30681
2325.84873	0.30742
2323.92017	0.30758
2321.99160	0.30742
2320.06304	0.30709
2318.13447	0.30683
2316.20591	0.30690
2314.27734	0.30744
2312.34878	0.30831
2310.42021	0.30922
2308.49165	0.30998
2306.56309	0.31058
2304.63452	0.31120
2302.70596	0.31215
2300.77739	0.31343
2298.84883	0.31473
2296.92026	0.31594
2294.99170	0.31719
2293.06313	0.31847
2291.13457	0.31979
2289.20601	0.32136
2287.27744	0.32307
2285.34888	0.32466
2283.42031	0.32629
2281.49175	0.32827
2279.56318	0.33051
2277.63462	0.33275
2275.70605	0.33494
2273.77749	0.33709
2271.84893	0.33918
2269.92036	0.34125
2267.99180	0.34334
2266.06323	0.34544
2264.13467	0.34750
2262.20610	0.34962
2260.27754	0.35190
2258.34897	0.35418
2256.42041	0.35623
2254.49185	0.35814
2252.56328	0.36016
2250.63472	0.36233
2248.70615	0.36456
2246.77759	0.36681
2244.84902	0.36900
2242.92046	0.37116
2240.99189	0.37338
2239.06333	0.37562
2237.13477	0.37789
2235.20620	0.38020
2233.27764	0.38247
2231.34907	0.38463
2229.42051	0.38680
2227.49194	0.38911
2225.56338	0.39154
2223.63481	0.39397
2221.70625	0.39620
2219.77769	0.39829
2217.84912	0.40039
2215.92056	0.40262
2213.99199	0.40487
2212.06343	0.40704
2210.13486	0.40927
2208.20630	0.41154
2206.27773	0.41370
2204.34917	0.41574
2202.42061	0.41779
2200.49204	0.41989
2198.56348	0.42199
2196.63491	0.42399
2194.70635	0.42595
2192.77778	0.42801
2190.84922	0.43003
2188.92065	0.43189
2186.99209	0.43373
2185.06353	0.43562
2183.13496	0.43742
2181.20640	0.43915
2179.27783	0.44085
2177.34927	0.44256
2175.42070	0.44421
2173.49214	0.44568
2171.56357	0.44702
2169.63501	0.44842
2167.70645	0.44990
2165.77788	0.45128
2163.84932	0.45250
2161.92075	0.45370
2159.99219	0.45483
2158.06362	0.45589
2156.13506	0.45695
2154.20649	0.45788
2152.27793	0.45861
2150.34937	0.45926
2148.42080	0.45996
2146.49224	0.46071
2144.56367	0.46135
2142.63511	0.46184
2140.70654	0.46223
2138.77798	0.46250
2136.84941	0.46267
2134.92085	0.46288
2132.99229	0.46301
2131.06372	0.46290
2129.13516	0.46266
2127.20659	0.46243
2125.27803	0.46210
2123.34946	0.46160
2121.42090	0.46111
2119.49233	0.46070
2117.56377	0.46030
2115.63521	0.45975
2113.70664	0.45895
2111.77808	0.45796
2109.84951	0.45694
2107.92095	0.45596
2105.99238	0.45494
2104.06382	0.45381
2102.13525	0.45254
2100.20669	0.45114
2098.27812	0.44962
2096.34956	0.44807
2094.42100	0.44655
2092.49243	0.44501
2090.56387	0.44339
2088.63530	0.44167
2086.70674	0.43992
2084.77817	0.43811
2082.84961	0.43613
2080.92104	0.43400
2078.99248	0.43190
2077.06392	0.42983
2075.13535	0.42770
2073.20679	0.42558
2071.27822	0.42339
2069.34966	0.42112
2067.42109	0.41892
2065.49253	0.41684
2063.56396	0.41448
2061.63540	0.41181
2059.70684	0.40920
2057.77827	0.40667
2055.84971	0.40409
2053.92114	0.40151
2051.99258	0.39899
2050.06401	0.39641
2048.13545	0.39371
2046.20688	0.39098
2044.27832	0.38834
2042.34976	0.38573
2040.42119	0.38304
2038.49263	0.38021
2036.56406	0.37740
2034.63550	0.37468
2032.70693	0.37191
2030.77837	0.36902
2028.84980	0.36612
2026.92124	0.36336
2024.99268	0.36070
2023.06411	0.35796
2021.13555	0.35512
2019.20698	0.35256
2017.27842	0.35019
2015.34985	0.34727
2013.42129	0.34395
2011.49272	0.34086
2009.56416	0.33815
2007.63560	0.33552
2005.70703	0.33281
2003.77847	0.33011
2001.84990	0.32748
1999.92134	0.32490
1997.99277	0.32233
1996.06421	0.31983
1994.13564	0.31770
1992.20708	0.31567
1990.27852	0.31296
1988.34995	0.30989
1986.42139	0.30700
1984.49282	0.30425
1982.56426	0.30164
1980.63569	0.29922
1978.70713	0.29691
1976.77856	0.29466
1974.85000	0.29242
1972.92144	0.29018
1970.99287	0.28811
1969.06431	0.28650
1967.13574	0.28499
1965.20718	0.28277
1963.27861	0.28015
1961.35005	0.27792
1959.42148	0.27593
1957.49292	0.27403
1955.56436	0.27223
1953.63579	0.27042
1951.70723	0.26855
1949.77866	0.26687
1947.85010	0.26547
1945.92153	0.26447
1943.99297	0.26387
1942.06440	0.26281
1940.13584	0.26050
1938.20728	0.25800
1936.27871	0.25625
1934.35015	0.25494
1932.42158	0.25378
1930.49302	0.25258
1928.56445	0.25138
1926.63589	0.25041
1924.70732	0.25007
1922.77876	0.24991
1920.85020	0.24902
1918.92163	0.24804
1916.99307	0.24701
1915.06450	0.24527
1913.13594	0.24383
1911.20737	0.24347
1909.27881	0.24339
1907.35024	0.24260
1905.42168	0.24138
1903.49312	0.24043
1901.56455	0.23969
1899.63599	0.23900
1897.70742	0.23870
1895.77886	0.23882
1893.85029	0.23868
1891.92173	0.23846
1889.99316	0.23879
1888.06460	0.23855
1886.13604	0.23748
1884.20747	0.23672
1882.27891	0.23634
1880.35034	0.23611
1878.42178	0.23598
1876.49321	0.23590
1874.56465	0.23590
1872.63608	0.23642
1870.70752	0.23824
1868.77896	0.24093
1866.85039	0.24125
1864.92183	0.23913
1862.99326	0.23759
1861.06470	0.23739
1859.13613	0.23781
1857.20757	0.23817
1855.27900	0.23851
1853.35044	0.23895
1851.42187	0.23968
1849.49331	0.24087
1847.56475	0.24258
1845.63618	0.24479
1843.70762	0.24650
1841.77905	0.24608
1839.85049	0.24514
1837.92192	0.24553
1835.99336	0.24647
1834.06479	0.24736
1832.13623	0.24924
1830.20767	0.25254
1828.27910	0.25469
1826.35054	0.25500
1824.42197	0.25550
1822.49341	0.25570
1820.56484	0.25594
1818.63628	0.25707
1816.70771	0.25875
1814.77915	0.26051
1812.85059	0.26294
1810.92202	0.26587
1808.99346	0.26792
1807.06489	0.26916
1805.13633	0.27084
1803.20776	0.27384
1801.27920	0.27771
1799.35063	0.28103
1797.42207	0.28323
1795.49351	0.28585
1793.56494	0.29000
1791.63638	0.29457
1789.70781	0.29652
1787.77925	0.29723
1785.85068	0.29989
1783.92212	0.30398
1781.99355	0.30853
1780.06499	0.31318
1778.13643	0.31739
1776.20786	0.32177
1774.27930	0.32792
1772.35073	0.33615
1770.42217	0.34248
1768.49360	0.34578
1766.56504	0.34906
1764.63647	0.35367
1762.70791	0.36034
1760.77935	0.36871
1758.85078	0.37587
1756.92222	0.38300
1754.99365	0.39055
1753.06509	0.39807
1751.13652	0.40870
1749.20796	0.42160
1747.27939	0.43201
1745.35083	0.43992
1743.42227	0.44868
1741.49370	0.45914
1739.56514	0.47164
1737.63657	0.48401
1735.70801	0.49620
1733.77944	0.51514
1731.85088	0.53439
1729.92231	0.54745
1727.99375	0.56125
1726.06519	0.57744
1724.13662	0.59641
1722.20806	0.61730
1720.27949	0.63772
1718.35093	0.66343
1716.42236	0.69839
1714.49380	0.72695
1712.56523	0.74872
1710.63667	0.77118
1708.70811	0.79716
1706.77954	0.82811
1704.85098	0.86436
1702.92241	0.89601
1700.99385	0.92828
1699.06528	0.97533
1697.13672	1.01595
1695.20815	1.05459
1693.27959	1.09170
1691.35103	1.12303
1689.42246	1.16066
1687.49390	1.20055
1685.56533	1.24019
1683.63677	1.29866
1681.70820	1.35422
1679.77964	1.38865
1677.85107	1.42335
1675.92251	1.46533
1673.99395	1.51727
1672.06538	1.56283
1670.13682	1.60618
1668.20825	1.65920
1666.27969	1.70063
1664.35112	1.73629
1662.42256	1.78059
1660.49399	1.82857
1658.56543	1.86628
1656.63687	1.89971
1654.70830	1.93466
1652.77974	1.99076
1650.85117	2.04273
1648.92261	2.06474
1646.99404	2.09438
1645.06548	2.12629
1643.13691	2.14668
1641.20835	2.15990
1639.27979	2.17288
1637.35122	2.18521
1635.42266	2.19281
1633.49409	2.18752
1631.56553	2.17528
1629.63696	2.16282
1627.70840	2.14124
1625.77983	2.11443
1623.85127	2.08035
1621.92271	2.03740
1619.99414	1.99755
1618.06558	1.95851
1616.13701	1.90213
1614.20845	1.84125
1612.27988	1.79358
1610.35132	1.74537
1608.42275	1.69385
1606.49419	1.64238
1604.56562	1.59404
1602.63706	1.54697
1600.70850	1.50052
1598.77993	1.45717
1596.85137	1.41612
1594.92280	1.37638
1592.99424	1.33786
1591.06567	1.30192
1589.13711	1.26743
1587.20854	1.23459
1585.27998	1.20401
1583.35142	1.17526
1581.42285	1.14842
1579.49429	1.12546
1577.56572	1.10561
1575.63716	1.08005
1573.70859	1.05435
1571.78003	1.03711
1569.85146	1.02012
1567.92290	0.99951
1565.99434	0.98165
1564.06577	0.96662
1562.13721	0.95508
1560.20864	0.94788
1558.28008	0.93325
1556.35151	0.91238
1554.42295	0.89753
1552.49438	0.88457
1550.56582	0.87299
1548.63726	0.86179
1546.70869	0.85274
1544.78013	0.84686
1542.85156	0.84263
1540.92300	0.83688
1538.99443	0.82244
1537.06587	0.80815
1535.13730	0.80042
1533.20874	0.79316
1531.28018	0.78404
1529.35161	0.77722
1527.42305	0.77261
1525.49448	0.76815
1523.56592	0.76423
1521.63735	0.76029
1519.70879	0.75339
1517.78022	0.74618
1515.85166	0.73909
1513.92310	0.73193
1511.99453	0.72719
1510.06597	0.72563
1508.13740	0.72674
1506.20884	0.72290
1504.28027	0.71179
1502.35171	0.70466
1500.42314	0.70129
1498.49458	0.69958
1496.56602	0.69656
1494.63745	0.69150
1492.70889	0.68818
1490.78032	0.68790
1488.85176	0.68725
1486.92319	0.68266
1484.99463	0.67695
1483.06606	0.67290
1481.13750	0.67034
1479.20894	0.66836
1477.28037	0.66729
1475.35181	0.66738
1473.42324	0.66718
1471.49468	0.66305
1469.56611	0.65659
1467.63755	0.65248
1465.70898	0.65067
1463.78042	0.64850
1461.85186	0.64590
1459.92329	0.64570
1457.99473	0.64767
1456.06616	0.64551
1454.13760	0.63891
1452.20903	0.63428
1450.28047	0.63163
1448.35190	0.62994
1446.42334	0.62784
1444.49478	0.62522
1442.56621	0.62314
1440.63765	0.62191
1438.70908	0.62177
1436.78052	0.62204
1434.85195	0.62047
1432.92339	0.61808
1430.99482	0.61665
1429.06626	0.61517
1427.13770	0.61310
1425.20913	0.61174
1423.28057	0.61091
1421.35200	0.61010
1419.42344	0.60994
1417.49487	0.60845
1415.56631	0.60476
1413.63774	0.60169
1411.70918	0.59974
1409.78062	0.59801
1407.85205	0.59653
1405.92349	0.59570
1403.99492	0.59456
1402.06636	0.59288
1400.13779	0.59200
1398.20923	0.59184
1396.28066	0.59117
1394.35210	0.58916
1392.42354	0.58619
1390.49497	0.58406
1388.56641	0.58337
1386.63784	0.58270
1384.70928	0.58084
1382.78071	0.57886
1380.85215	0.57763
1378.92358	0.57705
1376.99502	0.57707
1375.06646	0.57741
1373.13789	0.57664
1371.20933	0.57480
1369.28076	0.57344
1367.35220	0.57245
1365.42363	0.57175
1363.49507	0.57176
1361.56650	0.57117
1359.63794	0.56915
1357.70937	0.56728
1355.78081	0.56617
1353.85225	0.56528
1351.92368	0.56433
1349.99512	0.56341
1348.06655	0.56238
1346.13799	0.56122
1344.20942	0.56030
1342.28086	0.56009
1340.35229	0.56046
1338.42373	0.55996
1336.49517	0.55803
1334.56660	0.55603
1332.63804	0.55466
1330.70947	0.55364
1328.78091	0.55272
1326.85234	0.55183
1324.92378	0.55103
1322.99521	0.55039
1321.06665	0.54995
1319.13809	0.54955
1317.20952	0.54879
1315.28096	0.54783
1313.35239	0.54693
1311.42383	0.54587
1309.49526	0.54472
1307.56670	0.54376
1305.63813	0.54287
1303.70957	0.54191
1301.78101	0.54099
1299.85244	0.54011
1297.92388	0.53932
1295.99531	0.53848
1294.06675	0.53748
1292.13818	0.53659
1290.20962	0.53614
1288.28105	0.53585
1286.35249	0.53542
1284.42393	0.53494
1282.49536	0.53447
1280.56680	0.53406
1278.63823	0.53365
1276.70967	0.53314
1274.78110	0.53259
1272.85254	0.53208
1270.92397	0.53162
1268.99541	0.53124
1267.06685	0.53091
1265.13828	0.53053
1263.20972	0.53018
1261.28115	0.52992
1259.35259	0.52961
1257.42402	0.52924
1255.49546	0.52888
1253.56689	0.52869
1251.63833	0.52870
1249.70977	0.52866
1247.78120	0.52834
1245.85264	0.52792
1243.92407	0.52753
1241.99551	0.52712
1240.06694	0.52675
1238.13838	0.52641
1236.20981	0.52590
1234.28125	0.52512
1232.35269	0.52437
1230.42412	0.52396
1228.49556	0.52367
1226.56699	0.52318
1224.63843	0.52245
1222.70986	0.52157
1220.78130	0.52082
1218.85273	0.52024
1216.92417	0.51963
1214.99561	0.51891
1213.06704	0.51816
1211.13848	0.51746
1209.20991	0.51690
1207.28135	0.51646
1205.35278	0.51607
1203.42422	0.51568
1201.49565	0.51538
1199.56709	0.51501
1197.63853	0.51433
1195.70996	0.51358
1193.78140	0.51303
1191.85283	0.51259
1189.92427	0.51219
1187.99570	0.51184
1186.06714	0.51156
1184.13857	0.51138
1182.21001	0.51123
1180.28145	0.51124
1178.35288	0.51151
1176.42432	0.51195
1174.49575	0.51243
1172.56719	0.51291
1170.63862	0.51343
1168.71006	0.51406
1166.78149	0.51472
1164.85293	0.51527
1162.92437	0.51557
1160.99580	0.51570
1159.06724	0.51580
1157.13867	0.51578
1155.21011	0.51534
1153.28154	0.51422
1151.35298	0.51252
1149.42441	0.51050
1147.49585	0.50825
1145.56729	0.50585
1143.63872	0.50340
1141.71016	0.50100
1139.78159	0.49861
1137.85303	0.49633
1135.92446	0.49430
1133.99590	0.49245
1132.06733	0.49074
1130.13877	0.48921
1128.21021	0.48786
1126.28164	0.48673
1124.35308	0.48586
1122.42451	0.48517
1120.49595	0.48453
1118.56738	0.48402
1116.63882	0.48393
1114.71025	0.48422
1112.78169	0.48473
1110.85312	0.48549
1108.92456	0.48648
1106.99600	0.48752
1105.06743	0.48852
1103.13887	0.48971
1101.21030	0.49134
1099.28174	0.49336
1097.35317	0.49561
1095.42461	0.49825
1093.49604	0.50174
1091.56748	0.50638
1089.63892	0.51188
1087.71035	0.51802
1085.78179	0.52470
1083.85322	0.53163
1081.92466	0.53836
1079.99609	0.54424
1078.06753	0.54823
1076.13896	0.54929
1074.21040	0.54723
1072.28184	0.54267
1070.35327	0.53651
1068.42471	0.52983
1066.49614	0.52342
1064.56758	0.51752
1062.63901	0.51211
1060.71045	0.50728
1058.78188	0.50305
1056.85332	0.49919
1054.92476	0.49568
1052.99619	0.49268
1051.06763	0.49020
1049.13906	0.48824
1047.21050	0.48681
1045.28193	0.48569
1043.35337	0.48490
1041.42480	0.48463
1039.49624	0.48452
1037.56768	0.48423
1035.63911	0.48408
1033.71055	0.48418
1031.78198	0.48418
1029.85342	0.48389
1027.92485	0.48350
1025.99629	0.48327
1024.06772	0.48333
1022.13916	0.48361
1020.21060	0.48410
1018.28203	0.48469
1016.35347	0.48524
1014.42490	0.48582
1012.49634	0.48656
1010.56777	0.48746
1008.63921	0.48848
1006.71064	0.48981
1004.78208	0.49158
1002.85352	0.49371
1000.92495	0.49630
998.99639	0.49955
997.06782	0.50336
995.13926	0.50734
993.21069	0.51109
991.28213	0.51433
989.35356	0.51682
987.42500	0.51833
985.49644	0.51896
983.56787	0.51938
981.63931	0.52014
979.71074	0.52141
977.78218	0.52324
975.85361	0.52559
973.92505	0.52837
971.99648	0.53156
970.06792	0.53508
968.13936	0.53895
966.21079	0.54330
964.28223	0.54810
962.35366	0.55322
960.42510	0.55850
958.49653	0.56382
956.56797	0.56940
954.63940	0.57550
952.71084	0.58184
950.78228	0.58789
948.85371	0.59375
946.92515	0.59979
944.99658	0.60595
943.06802	0.61212
941.13945	0.61840
939.21089	0.62471
937.28232	0.63074
935.35376	0.63630
933.42520	0.64152
931.49663	0.64673
929.56807	0.65244
927.63950	0.65871
925.71094	0.66485
923.78237	0.67086
921.85381	0.67754
919.92524	0.68513
917.99668	0.69286
916.06812	0.70006
914.13955	0.70728
912.21099	0.71496
910.28242	0.72288
908.35386	0.73097
906.42529	0.73938
904.49673	0.74810
902.56816	0.75705
900.63960	0.76603
898.71104	0.77514
896.78247	0.78483
894.85391	0.79466
892.92534	0.80429
890.99678	0.81434
889.06821	0.82499
887.13965	0.83637
885.21108	0.84811
883.28252	0.85940
881.35396	0.87055
879.42539	0.88195
877.49683	0.89380
875.56826	0.90590
873.63970	0.91749
871.71113	0.92868
869.78257	0.93953
867.85400	0.95068
865.92544	0.96250
863.99687	0.97377
862.06831	0.98469
860.13975	0.99578
858.21118	1.00724
856.28262	1.01888
854.35405	1.03001
852.42549	1.04139
850.49692	1.05241
848.56836	1.06264
846.63979	1.07518
844.71123	1.09067
842.78267	1.10486
840.85410	1.11502
838.92554	1.12297
836.99697	1.13330
835.06841	1.14708
833.13984	1.15941
831.21128	1.16758
829.28271	1.17734
827.35415	1.19362
825.42559	1.20933
823.49702	1.21815
821.56846	1.22100
819.63989	1.22241
817.71133	1.23202
815.78276	1.25273
813.85420	1.27829
811.92563	1.30372
809.99707	1.32187
808.06851	1.32083
806.13994	1.31151
804.21138	1.31109
802.28281	1.31316
800.35425	1.31408
798.42568	1.32161
796.49712	1.32812
794.56855	1.31425
792.63999	1.30387
790.71143	1.34261
788.78286	1.39933
786.85430	1.38194
784.92573	1.33903
782.99717	1.34584
781.06860	1.37406
779.14004	1.37155
777.21147	1.35301
775.28291	1.33794
773.35435	1.30834
771.42578	1.27687
769.49722	1.28502
767.56865	1.34181
765.64009	1.39661
763.71152	1.38974
761.78296	1.34871
759.85439	1.37650
757.92583	1.47088
755.99727	1.37259
754.06870	1.21809
752.14014	1.19142
750.21157	1.25544
748.28301	1.30029
746.35444	1.27501
744.42588	1.23844
742.49731	1.17945
740.56875	1.05002
738.64019	0.93895
736.71162	0.91472
734.78306	0.92646
732.85449	0.93661
730.92593	1.01510
728.99736	0.98989
727.06880	0.64284
725.14023	0.39576
723.21167	0.28322
721.28311	0.20704
719.35454	0.14209
717.42598	0.12172
715.49741	0.13930
713.56885	0.15783
711.64028	0.05343
709.71172	-0.11442
707.78315	-0.02850
705.85459	0.09947
703.92603	0.29451
701.99746	0.78772
700.06890	4.20041
698.14033	0.79033
696.21177	0.40031
694.28320	0.26321
692.35464	0.25337
690.42607	0.31952
688.49751	0.39013
686.56895	0.39890
684.64038	0.35309
682.71182	0.32142
680.78325	0.34709
678.85469	0.41023
676.92612	0.47375
674.99756	0.49597
673.06899	0.44817
671.14043	0.37053
669.21187	0.35931
667.28330	0.42161
665.35474	0.41205
663.42617	0.38416
661.49761	0.44174
659.56904	0.46172
657.64048	0.34970
655.71191	0.32488
653.78335	0.40951
651.85479	0.42030
649.92622	0.35157
647.99766	0.34361
646.06909	0.38117
644.14053	0.35981
642.21196	0.30962
640.28340	0.28810
638.35483	0.21886
636.42627	0.09839
634.49771	0.07358
632.56914	0.18552
630.64058	0.33481
628.71201	0.45134
626.78345	0.45775
624.85488	0.32026
622.92632	0.20631
620.99775	0.21454
619.06919	0.28573
617.14062	0.31401
615.21206	0.26455
613.28350	0.18048
611.35493	0.15956
609.42637	0.21423
607.49780	0.24788
605.56924	0.22254
603.64067	0.18850
601.71211	0.16524
599.78354	0.18763
597.85498	0.29228
595.92642	0.34130
593.99785	0.25925
592.06929	0.26856
590.14072	0.35718
588.21216	0.40702
586.28359	0.35561
584.35503	0.27451
582.42646	0.25672
580.49790	0.29134
578.56934	0.32167
576.64077	0.36561
574.71221	0.41376
572.78364	0.34499
570.85508	0.24132
568.92651	0.20870
566.99795	0.26132
565.06938	0.29410
563.14082	0.26508
561.21226	0.27287
559.28369	0.28198
557.35513	0.25883
555.42656	0.25287
553.49800	0.26192
551.56943	0.23672
549.64087	0.19294
547.71230	0.16209
545.78374	0.16174
543.85518	0.21358
541.92661	0.30903
539.99805	0.41536
538.06948	0.44702
536.14092	0.31471
534.21235	0.22899
532.28379	0.23379
530.35522	0.28826
528.42666	0.32108
526.49810	0.30072
524.56953	0.25764
522.64097	0.23190
520.71240	0.26096
518.78384	0.31637
516.85527	0.31414
514.92671	0.29857
512.99814	0.30585
511.06958	0.27386
509.14102	0.23805
507.21245	0.24398
505.28389	0.26205
503.35532	0.28284
501.42676	0.30960
499.49819	0.32361
