3997.91411	0.06919
3995.98555	0.06985
3994.05698	0.07078
3992.12842	0.07123
3990.19985	0.07135
3988.27129	0.07140
3986.34272	0.07154
3984.41416	0.07204
3982.48560	0.07267
3980.55703	0.07300
3978.62847	0.07315
3976.69990	0.07375
3974.77134	0.07464
3972.84277	0.07502
3970.91421	0.07490
3968.98564	0.07469
3967.05708	0.07430
3965.12852	0.07396
3963.19995	0.07443
3961.27139	0.07524
3959.34282	0.07534
3957.41426	0.07533
3955.48569	0.07584
3953.55713	0.07632
3951.62856	0.07740
3949.70000	0.07982
3947.77144	0.08151
3945.84287	0.08082
3943.91431	0.08051
3941.98574	0.08119
3940.05718	0.07953
3938.12861	0.07667
3936.20005	0.07584
3934.27148	0.07771
3932.34292	0.08148
3930.41436	0.08390
3928.48579	0.08261
3926.55723	0.08108
3924.62866	0.08223
3922.70010	0.08311
3920.77153	0.08214
3918.84297	0.08249
3916.91440	0.08377
3914.98584	0.08203
3913.05728	0.07784
3911.12871	0.07496
3909.20015	0.07471
3907.27158	0.07780
3905.34302	0.08535
3903.41445	0.09461
3901.48589	0.09899
3899.55732	0.09688
3897.62876	0.09045
3895.70020	0.08394
3893.77163	0.08288
3891.84307	0.08697
3889.91450	0.08852
3887.98594	0.08607
3886.05737	0.08733
3884.12881	0.09131
3882.20024	0.09281
3880.27168	0.09286
3878.34312	0.08933
3876.41455	0.08517
3874.48599	0.08746
3872.55742	0.09396
3870.62886	0.09930
3868.70029	0.10035
3866.77173	0.09714
3864.84316	0.09673
3862.91460	0.09821
3860.98604	0.09460
3859.05747	0.09004
3857.12891	0.09129
3855.20034	0.09971
3853.27178	0.11336
3851.34321	0.11541
3849.41465	0.10177
3847.48608	0.09110
3845.55752	0.08837
3843.62896	0.09276
3841.70039	0.10097
3839.77183	0.10942
3837.84326	0.11486
3835.91470	0.11301
3833.98613	0.10728
3832.05757	0.10296
3830.12900	0.09977
3828.20044	0.09825
3826.27187	0.09952
3824.34331	0.10223
3822.41475	0.10825
3820.48618	0.11777
3818.55762	0.11997
3816.62905	0.11640
3814.70049	0.11171
3812.77192	0.10394
3810.84336	0.09920
3808.91479	0.10146
3806.98623	0.10879
3805.05767	0.11489
3803.12910	0.11934
3801.20054	0.12571
3799.27197	0.12659
3797.34341	0.12179
3795.41484	0.11770
3793.48628	0.11298
3791.55771	0.10924
3789.62915	0.10862
3787.70059	0.11051
3785.77202	0.11441
3783.84346	0.11823
3781.91489	0.12024
3779.98633	0.12333
3778.05776	0.12618
3776.12920	0.12438
3774.20063	0.12224
3772.27207	0.12472
3770.34351	0.13151
3768.41494	0.13757
3766.48638	0.13929
3764.55781	0.13919
3762.62925	0.13942
3760.70068	0.14326
3758.77212	0.15095
3756.84355	0.15603
3754.91499	0.15820
3752.98643	0.16510
3751.05786	0.17923
3749.12930	0.18963
3747.20073	0.18869
3745.27217	0.18788
3743.34360	0.18936
3741.41504	0.18829
3739.48647	0.18864
3737.55791	0.19543
3735.62935	0.20957
3733.70078	0.22111
3731.77222	0.21857
3729.84365	0.21130
3727.91509	0.21013
3725.98652	0.21660
3724.05796	0.22583
3722.12939	0.23271
3720.20083	0.23677
3718.27227	0.23923
3716.34370	0.24279
3714.41514	0.25117
3712.48657	0.26797
3710.55801	0.28996
3708.62944	0.30208
3706.70088	0.30490
3704.77231	0.31098
3702.84375	0.32449
3700.91519	0.34273
3698.98662	0.35892
3697.05806	0.37382
3695.12949	0.39286
3693.20093	0.41627
3691.27236	0.44520
3689.34380	0.48106
3687.41523	0.51351
3685.48667	0.53404
3683.55811	0.55352
3681.62954	0.58080
3679.70098	0.61674
3677.77241	0.65817
3675.84385	0.70766
3673.91528	0.76384
3671.98672	0.80315
3670.05815	0.84084
3668.12959	0.89004
3666.20103	0.92873
3664.27246	0.96247
3662.34390	1.00414
3660.41533	1.05231
3658.48677	1.10144
3656.55820	1.15453
3654.62964	1.21236
3652.70107	1.26169
3650.77251	1.31110
3648.84395	1.38071
3646.91538	1.44935
3644.98682	1.48662
3643.05825	1.51594
3641.12969	1.55241
3639.20112	1.59584
3637.27256	1.64059
3635.34399	1.68556
3633.41543	1.73212
3631.48687	1.77693
3629.55830	1.82445
3627.62974	1.88334
3625.70117	1.92907
3623.77261	1.95656
3621.84404	1.98843
3619.91548	2.03144
3617.98691	2.08249
3616.05835	2.12632
3614.12979	2.16202
3612.20122	2.20147
3610.27266	2.24151
3608.34409	2.28153
3606.41553	2.32157
3604.48696	2.35694
3602.55840	2.39185
3600.62983	2.43299
3598.70127	2.47610
3596.77271	2.51642
3594.84414	2.55755
3592.91558	2.59869
3590.98701	2.63637
3589.05845	2.67508
3587.12988	2.72451
3585.20132	2.77336
3583.27275	2.80802
3581.34419	2.84113
3579.41562	2.88186
3577.48706	2.92714
3575.55850	2.97150
3573.62993	3.01441
3571.70137	3.05577
3569.77280	3.09889
3567.84424	3.14954
3565.91567	3.20704
3563.98711	3.25495
3562.05854	3.29240
3560.12998	3.33134
3558.20142	3.37383
3556.27285	3.41744
3554.34429	3.46175
3552.41572	3.50954
3550.48716	3.55651
3548.55859	3.60006
3546.63003	3.64677
3544.70146	3.69914
3542.77290	3.74882
3540.84434	3.79361
3538.91577	3.84016
3536.98721	3.88959
3535.05864	3.93989
3533.13008	3.98810
3531.20151	4.03641
3529.27295	4.08863
3527.34438	4.14199
3525.41582	4.18901
3523.48726	4.23232
3521.55869	4.28017
3519.63013	4.33121
3517.70156	4.38057
3515.77300	4.42502
3513.84443	4.46883
3511.91587	4.51511
3509.98730	4.56332
3508.05874	4.61383
3506.13018	4.66387
3504.20161	4.71385
3502.27305	4.76584
3500.34448	4.81616
3498.41592	4.85958
3496.48735	4.89798
3494.55879	4.94044
3492.63022	4.99338
3490.70166	5.05340
3488.77310	5.11101
3486.84453	5.15865
3484.91597	5.20104
3482.98740	5.24529
3481.05884	5.29322
3479.13027	5.34799
3477.20171	5.40609
3475.27314	5.45509
3473.34458	5.49327
3471.41602	5.53431
3469.48745	5.58269
3467.55889	5.62954
3465.63032	5.67388
3463.70176	5.72685
3461.77319	5.78435
3459.84463	5.83603
3457.91606	5.88905
3455.98750	5.94698
3454.05894	5.99943
3452.13037	6.04518
3450.20181	6.08642
3448.27324	6.12577
3446.34468	6.18271
3444.41611	6.24271
3442.48755	6.28854
3440.55898	6.34579
3438.63042	6.41055
3436.70186	6.46005
3434.77329	6.49604
3432.84473	6.51780
3430.91616	6.54245
3428.98760	6.60135
3427.05903	6.67260
3425.13047	6.73186
3423.20190	6.79620
3421.27334	6.86872
3419.34478	6.91965
3417.41621	6.94963
3415.48765	6.97206
3413.55908	6.98763
3411.63052	7.03190
3409.70195	7.10617
3407.77339	7.18408
3405.84482	7.24929
3403.91626	7.28062
3401.98770	7.26703
3400.05913	7.24644
3398.13057	7.28430
3396.20200	7.39067
3394.27344	7.48759
3392.34487	7.50341
3390.41631	7.51072
3388.48774	7.57637
3386.55918	7.66771
3384.63062	7.71115
3382.70205	7.69441
3380.77349	7.68797
3378.84492	7.72615
3376.91636	7.77592
3374.98779	7.81150
3373.05923	7.86055
3371.13066	7.89399
3369.20210	7.88298
3367.27354	7.85113
3365.34497	7.86324
3363.41641	7.93964
3361.48784	7.97916
3359.55928	7.92551
3357.63071	7.88019
3355.70215	7.94281
3353.77358	8.03216
3351.84502	8.06215
3349.91646	8.06211
3347.98789	8.08683
3346.05933	8.15215
3344.13076	8.22943
3342.20220	8.26076
3340.27363	8.16855
3338.34507	8.07125
3336.41650	8.09835
3334.48794	8.20507
3332.55937	8.24216
3330.63081	8.18345
3328.70225	8.15839
3326.77368	8.17331
3324.84512	8.13994
3322.91655	8.12469
3320.98799	8.20790
3319.05942	8.25731
3317.13086	8.23838
3315.20229	8.28043
3313.27373	8.37548
3311.34517	8.40130
3309.41660	8.35867
3307.48804	8.31163
3305.55947	8.27712
3303.63091	8.27392
3301.70234	8.27178
3299.77378	8.31555
3297.84521	8.42197
3295.91665	8.48920
3293.98809	8.42911
3292.05952	8.30116
3290.13096	8.26187
3288.20239	8.31559
3286.27383	8.34434
3284.34526	8.33342
3282.41670	8.37986
3280.48813	8.46911
3278.55957	8.48831
3276.63101	8.41329
3274.70244	8.40158
3272.77388	8.51022
3270.84531	8.50118
3268.91675	8.39075
3266.98818	8.47931
3265.05962	8.70958
3263.13105	8.68654
3261.20249	8.49054
3259.27393	8.38965
3257.34536	8.30931
3255.41680	8.22310
3253.48823	8.26899
3251.55967	8.39968
3249.63110	8.39445
3247.70254	8.28285
3245.77397	8.22135
3243.84541	8.24334
3241.91685	8.28473
3239.98828	8.34086
3238.05972	8.45514
3236.13115	8.49762
3234.20259	8.39965
3232.27402	8.30633
3230.34546	8.27459
3228.41689	8.28156
3226.48833	8.36192
3224.55977	8.48053
3222.63120	8.43968
3220.70264	8.27008
3218.77407	8.18971
3216.84551	8.19507
3214.91694	8.20324
3212.98838	8.22608
3211.05981	8.24196
3209.13125	8.18170
3207.20269	8.05480
3205.27412	7.94740
3203.34556	7.90842
3201.41699	7.90553
3199.48843	7.90425
3197.55986	7.86949
3195.63130	7.78567
3193.70273	7.74117
3191.77417	7.73545
3189.84561	7.68047
3187.91704	7.61819
3185.98848	7.59932
3184.05991	7.54999
3182.13135	7.42958
3180.20278	7.33334
3178.27422	7.30744
3176.34565	7.28042
3174.41709	7.20828
3172.48853	7.15051
3170.55996	7.11870
3168.63140	7.07170
3166.70283	7.03145
3164.77427	6.98804
3162.84570	6.91714
3160.91714	6.85202
3158.98857	6.78544
3157.06001	6.69473
3155.13145	6.60785
3153.20288	6.54319
3151.27432	6.49150
3149.34575	6.43852
3147.41719	6.37006
3145.48862	6.28918
3143.56006	6.21390
3141.63149	6.15053
3139.70293	6.07806
3137.77437	5.99015
3135.84580	5.91029
3133.91724	5.84628
3131.98867	5.78669
3130.06011	5.72842
3128.13154	5.66845
3126.20298	5.59645
3124.27441	5.51999
3122.34585	5.44481
3120.41729	5.36455
3118.48872	5.28661
3116.56016	5.21703
3114.63159	5.15082
3112.70303	5.08382
3110.77446	5.01564
3108.84590	4.94708
3106.91733	4.87510
3104.98877	4.80104
3103.06021	4.73095
3101.13164	4.66269
3099.20308	4.59510
3097.27451	4.53024
3095.34595	4.46472
3093.41738	4.39742
3091.48882	4.33210
3089.56025	4.26986
3087.63169	4.20799
3085.70312	4.14546
3083.77456	4.08407
3081.84600	4.02434
3079.91743	3.96444
3077.98887	3.90348
3076.06030	3.84298
3074.13174	3.78445
3072.20317	3.72769
3070.27461	3.67199
3068.34604	3.61585
3066.41748	3.55786
3064.48892	3.49949
3062.56035	3.44185
3060.63179	3.38523
3058.70322	3.33166
3056.77466	3.28074
3054.84609	3.22877
3052.91753	3.17494
3050.98896	3.12165
3049.06040	3.07037
3047.13184	3.02085
3045.20327	2.97177
3043.27471	2.92198
3041.34614	2.87196
3039.41758	2.82360
3037.48901	2.77735
3035.56045	2.73179
3033.63188	2.68661
3031.70332	2.64187
3029.77476	2.59742
3027.84619	2.55339
3025.91763	2.50917
3023.98906	2.46479
3022.06050	2.42155
3020.13193	2.37909
3018.20337	2.33715
3016.27480	2.29708
3014.34624	2.25849
3012.41768	2.22004
3010.48911	2.18149
3008.56055	2.14343
3006.63198	2.10670
3004.70342	2.07087
3002.77485	2.03521
3000.84629	1.99984
2998.91772	1.96521
2996.98916	1.93205
2995.06060	1.90025
2993.13203	1.86898
2991.20347	1.83821
2989.27490	1.80802
2987.34634	1.77829
2985.41777	1.74903
2983.48921	1.72034
2981.56064	1.69274
2979.63208	1.66613
2977.70352	1.63977
2975.77495	1.61402
2973.84639	1.58884
2971.91782	1.56376
2969.98926	1.53944
2968.06069	1.51606
2966.13213	1.49240
2964.20356	1.46782
2962.27500	1.44332
2960.34644	1.41964
2958.41787	1.39611
2956.48931	1.37205
2954.56074	1.34756
2952.63218	1.32307
2950.70361	1.29900
2948.77505	1.27576
2946.84648	1.25310
2944.91792	1.23065
2942.98936	1.20898
2941.06079	1.18851
2939.13223	1.16843
2937.20366	1.14805
2935.27510	1.12759
2933.34653	1.10738
2931.41797	1.08751
2929.48940	1.06793
2927.56084	1.04851
2925.63228	1.02904
2923.70371	1.00966
2921.77515	0.99100
2919.84658	0.97315
2917.91802	0.95538
2915.98945	0.93737
2914.06089	0.91971
2912.13232	0.90316
2910.20376	0.88756
2908.27520	0.87214
2906.34663	0.85699
2904.41807	0.84252
2902.48950	0.82842
2900.56094	0.81434
2898.63237	0.80047
2896.70381	0.78702
2894.77524	0.77398
2892.84668	0.76150
2890.91812	0.74958
2888.98955	0.73787
2887.06099	0.72638
2885.13242	0.71554
2883.20386	0.70534
2881.27529	0.69542
2879.34673	0.68574
2877.41816	0.67623
2875.48960	0.66664
2873.56104	0.65668
2871.63247	0.64603
2869.70391	0.63458
2867.77534	0.62258
2865.84678	0.61024
2863.91821	0.59775
2861.98965	0.58571
2860.06108	0.57444
2858.13252	0.56374
2856.20396	0.55361
2854.27539	0.54387
2852.34683	0.53428
2850.41826	0.52475
2848.48970	0.51552
2846.56113	0.50700
2844.63257	0.49928
2842.70400	0.49221
2840.77544	0.48570
2838.84687	0.47962
2836.91831	0.47368
2834.98975	0.46775
2833.06118	0.46186
2831.13262	0.45588
2829.20405	0.44977
2827.27549	0.44373
2825.34692	0.43791
2823.41836	0.43207
2821.48979	0.42597
2819.56123	0.41986
2817.63267	0.41379
2815.70410	0.40771
2813.77554	0.40172
2811.84697	0.39592
2809.91841	0.39042
2807.98984	0.38516
2806.06128	0.37982
2804.13271	0.37434
2802.20415	0.36891
2800.27559	0.36370
2798.34702	0.35869
2796.41846	0.35387
2794.48989	0.34921
2792.56133	0.34451
2790.63276	0.33973
2788.70420	0.33493
2786.77563	0.33022
2784.84707	0.32571
2782.91851	0.32131
2780.98994	0.31701
2779.06138	0.31288
2777.13281	0.30886
2775.20425	0.30489
2773.27568	0.30087
2771.34712	0.29694
2769.41855	0.29324
2767.48999	0.28952
2765.56143	0.28570
2763.63286	0.28207
2761.70430	0.27861
2759.77573	0.27511
2757.84717	0.27160
2755.91860	0.26835
2753.99004	0.26525
2752.06147	0.26206
2750.13291	0.25890
2748.20435	0.25591
2746.27578	0.25300
2744.34722	0.25011
2742.41865	0.24733
2740.49009	0.24472
2738.56152	0.24214
2736.63296	0.23942
2734.70439	0.23664
2732.77583	0.23389
2730.84727	0.23121
2728.91870	0.22877
2726.99014	0.22662
2725.06157	0.22458
2723.13301	0.22242
2721.20444	0.22012
2719.27588	0.21772
2717.34731	0.21535
2715.41875	0.21317
2713.49019	0.21131
2711.56162	0.20955
2709.63306	0.20766
2707.70449	0.20582
2705.77593	0.20423
2703.84736	0.20285
2701.91880	0.20146
2699.99023	0.19982
2698.06167	0.19802
2696.13311	0.19633
2694.20454	0.19491
2692.27598	0.19354
2690.34741	0.19217
2688.41885	0.19093
2686.49028	0.18968
2684.56172	0.18833
2682.63315	0.18697
2680.70459	0.18562
2678.77603	0.18438
2676.84746	0.18330
2674.91890	0.18223
2672.99033	0.18106
2671.06177	0.17988
2669.13320	0.17870
2667.20464	0.17761
2665.27607	0.17666
2663.34751	0.17574
2661.41895	0.17476
2659.49038	0.17379
2657.56182	0.17298
2655.63325	0.17224
2653.70469	0.17148
2651.77612	0.17074
2649.84756	0.17009
2647.91899	0.16945
2645.99043	0.16877
2644.06187	0.16813
2642.13330	0.16750
2640.20474	0.16674
2638.27617	0.16594
2636.34761	0.16532
2634.41904	0.16498
2632.49048	0.16470
2630.56191	0.16429
2628.63335	0.16389
2626.70479	0.16354
2624.77622	0.16314
2622.84766	0.16271
2620.91909	0.16233
2618.99053	0.16205
2617.06196	0.16181
2615.13340	0.16158
2613.20483	0.16130
2611.27627	0.16089
2609.34771	0.16057
2607.41914	0.16052
2605.49058	0.16055
2603.56201	0.16044
2601.63345	0.16028
2599.70488	0.16017
2597.77632	0.16014
2595.84775	0.16019
2593.91919	0.16031
2591.99062	0.16041
2590.06206	0.16042
2588.13350	0.16042
2586.20493	0.16063
2584.27637	0.16104
2582.34780	0.16135
2580.41924	0.16141
2578.49067	0.16143
2576.56211	0.16160
2574.63354	0.16192
2572.70498	0.16233
2570.77642	0.16274
2568.84785	0.16311
2566.91929	0.16346
2564.99072	0.16377
2563.06216	0.16411
2561.13359	0.16455
2559.20503	0.16502
2557.27646	0.16543
2555.34790	0.16586
2553.41934	0.16626
2551.49077	0.16661
2549.56221	0.16700
2547.63364	0.16749
2545.70508	0.16809
2543.77651	0.16872
2541.84795	0.16931
2539.91938	0.16985
2537.99082	0.17040
2536.06226	0.17096
2534.13369	0.17157
2532.20513	0.17220
2530.27656	0.17276
2528.34800	0.17338
2526.41943	0.17414
2524.49087	0.17489
2522.56230	0.17555
2520.63374	0.17625
2518.70518	0.17701
2516.77661	0.17770
2514.84805	0.17840
2512.91948	0.17921
2510.99092	0.18004
2509.06235	0.18087
2507.13379	0.18167
2505.20522	0.18233
2503.27666	0.18291
2501.34810	0.18369
2499.41953	0.18463
2497.49097	0.18552
2495.56240	0.18626
2493.63384	0.18687
2491.70527	0.18758
2489.77671	0.18843
2487.84814	0.18925
2485.91958	0.19012
2483.99102	0.19105
2482.06245	0.19195
2480.13389	0.19278
2478.20532	0.19357
2476.27676	0.19444
2474.34819	0.19535
2472.41963	0.19618
2470.49106	0.19698
2468.56250	0.19790
2466.63394	0.19893
2464.70537	0.19991
2462.77681	0.20074
2460.84824	0.20146
2458.91968	0.20220
2456.99111	0.20309
2455.06255	0.20409
2453.13398	0.20516
2451.20542	0.20621
2449.27686	0.20714
2447.34829	0.20803
2445.41973	0.20898
2443.49116	0.20994
2441.56260	0.21092
2439.63403	0.21198
2437.70547	0.21301
2435.77690	0.21398
2433.84834	0.21503
2431.91978	0.21610
2429.99121	0.21709
2428.06265	0.21808
2426.13408	0.21911
2424.20552	0.22012
2422.27695	0.22109
2420.34839	0.22217
2418.41982	0.22341
2416.49126	0.22461
2414.56270	0.22574
2412.63413	0.22691
2410.70557	0.22817
2408.77700	0.22938
2406.84844	0.23043
2404.91987	0.23149
2402.99131	0.23269
2401.06274	0.23388
2399.13418	0.23501
2397.20562	0.23620
2395.27705	0.23749
2393.34849	0.23877
2391.41992	0.24001
2389.49136	0.24135
2387.56279	0.24303
2385.63423	0.24535
2383.70566	0.24849
2381.77710	0.25248
2379.84854	0.25717
2377.91997	0.26234
2375.99141	0.26802
2374.06284	0.27465
2372.13428	0.28238
2370.20571	0.29070
2368.27715	0.29874
2366.34858	0.30603
2364.42002	0.31269
2362.49146	0.31868
2360.56289	0.32321
2358.63433	0.32462
2356.70576	0.32224
2354.77720	0.31748
2352.84863	0.31167
2350.92007	0.30563
2348.99150	0.30197
2347.06294	0.30281
2345.13437	0.30860
2343.20581	0.31637
2341.27725	0.32097
2339.34868	0.32234
2337.42012	0.32309
2335.49155	0.32401
2333.56299	0.32429
2331.63442	0.32437
2329.70586	0.32492
2327.77729	0.32542
2325.84873	0.32524
2323.92017	0.32456
2321.99160	0.32363
2320.06304	0.32240
2318.13447	0.32091
2316.20591	0.31969
2314.27734	0.31936
2312.34878	0.31987
2310.42021	0.32052
2308.49165	0.32078
2306.56309	0.32075
2304.63452	0.32079
2302.70596	0.32112
2300.77739	0.32177
2298.84883	0.32260
2296.92026	0.32353
2294.99170	0.32450
2293.06313	0.32543
2291.13457	0.32646
2289.20601	0.32780
2287.27744	0.32919
2285.34888	0.33044
2283.42031	0.33191
2281.49175	0.33377
2279.56318	0.33593
2277.63462	0.33817
2275.70605	0.34039
2273.77749	0.34260
2271.84893	0.34477
2269.92036	0.34680
2267.99180	0.34870
2266.06323	0.35068
2264.13467	0.35278
2262.20610	0.35491
2260.27754	0.35703
2258.34897	0.35911
2256.42041	0.36106
2254.49185	0.36301
2252.56328	0.36515
2250.63472	0.36733
2248.70615	0.36949
2246.77759	0.37174
2244.84902	0.37397
2242.92046	0.37603
2240.99189	0.37800
2239.06333	0.38003
2237.13477	0.38215
2235.20620	0.38427
2233.27764	0.38636
2231.34907	0.38859
2229.42051	0.39101
2227.49194	0.39338
2225.56338	0.39565
2223.63481	0.39796
2221.70625	0.40020
2219.77769	0.40222
2217.84912	0.40427
2215.92056	0.40660
2213.99199	0.40902
2212.06343	0.41130
2210.13486	0.41343
2208.20630	0.41550
2206.27773	0.41754
2204.34917	0.41956
2202.42061	0.42164
2200.49204	0.42381
2198.56348	0.42594
2196.63491	0.42792
2194.70635	0.42977
2192.77778	0.43164
2190.84922	0.43350
2188.92065	0.43533
2186.99209	0.43721
2185.06353	0.43903
2183.13496	0.44074
2181.20640	0.44242
2179.27783	0.44408
2177.34927	0.44570
2175.42070	0.44734
2173.49214	0.44890
2171.56357	0.45026
2169.63501	0.45150
2167.70645	0.45281
2165.77788	0.45419
2163.84932	0.45550
2161.92075	0.45671
2159.99219	0.45784
2158.06362	0.45890
2156.13506	0.45987
2154.20649	0.46073
2152.27793	0.46155
2150.34937	0.46233
2148.42080	0.46298
2146.49224	0.46354
2144.56367	0.46399
2142.63511	0.46439
2140.70654	0.46487
2138.77798	0.46532
2136.84941	0.46548
2134.92085	0.46540
2132.99229	0.46523
2131.06372	0.46511
2129.13516	0.46499
2127.20659	0.46478
2125.27803	0.46443
2123.34946	0.46397
2121.42090	0.46356
2119.49233	0.46311
2117.56377	0.46250
2115.63521	0.46182
2113.70664	0.46112
2111.77808	0.46030
2109.84951	0.45933
2107.92095	0.45825
2105.99238	0.45712
2104.06382	0.45600
2102.13525	0.45479
2100.20669	0.45344
2098.27812	0.45199
2096.34956	0.45046
2094.42100	0.44893
2092.49243	0.44742
2090.56387	0.44586
2088.63530	0.44412
2086.70674	0.44223
2084.77817	0.44038
2082.84961	0.43853
2080.92104	0.43646
2078.99248	0.43426
2077.06392	0.43212
2075.13535	0.43005
2073.20679	0.42790
2071.27822	0.42565
2069.34966	0.42341
2067.42109	0.42132
2065.49253	0.41928
2063.56396	0.41686
2061.63540	0.41414
2059.70684	0.41150
2057.77827	0.40886
2055.84971	0.40611
2053.92114	0.40341
2051.99258	0.40087
2050.06401	0.39833
2048.13545	0.39576
2046.20688	0.39314
2044.27832	0.39059
2042.34976	0.38813
2040.42119	0.38547
2038.49263	0.38250
2036.56406	0.37951
2034.63550	0.37666
2032.70693	0.37387
2030.77837	0.37108
2028.84980	0.36823
2026.92124	0.36544
2024.99268	0.36279
2023.06411	0.36016
2021.13555	0.35746
2019.20698	0.35501
2017.27842	0.35273
2015.34985	0.34980
2013.42129	0.34639
2011.49272	0.34331
2009.56416	0.34066
2007.63560	0.33800
2005.70703	0.33524
2003.77847	0.33252
2001.84990	0.32982
1999.92134	0.32711
1997.99277	0.32447
1996.06421	0.32206
1994.13564	0.32025
1992.20708	0.31870
1990.27852	0.31624
1988.34995	0.31302
1986.42139	0.30985
1984.49282	0.30694
1982.56426	0.30438
1980.63569	0.30205
1978.70713	0.29974
1976.77856	0.29742
1974.85000	0.29513
1972.92144	0.29293
1970.99287	0.29097
1969.06431	0.28954
1967.13574	0.28818
1965.20718	0.28586
1963.27861	0.28306
1961.35005	0.28081
1959.42148	0.27889
1957.49292	0.27707
1955.56436	0.27542
1953.63579	0.27367
1951.70723	0.27171
1949.77866	0.26992
1947.85010	0.26857
1945.92153	0.26783
1943.99297	0.26761
1942.06440	0.26674
1940.13584	0.26415
1938.20728	0.26128
1936.27871	0.25935
1934.35015	0.25797
1932.42158	0.25673
1930.49302	0.25549
1928.56445	0.25429
1926.63589	0.25339
1924.70732	0.25338
1922.77876	0.25367
1920.85020	0.25292
1918.92163	0.25193
1916.99307	0.25081
1915.06450	0.24877
1913.13594	0.24718
1911.20737	0.24701
1909.27881	0.24712
1907.35024	0.24623
1905.42168	0.24476
1903.49312	0.24369
1901.56455	0.24298
1899.63599	0.24236
1897.70742	0.24220
1895.77886	0.24253
1893.85029	0.24247
1891.92173	0.24225
1889.99316	0.24276
1888.06460	0.24257
1886.13604	0.24125
1884.20747	0.24027
1882.27891	0.23975
1880.35034	0.23945
1878.42178	0.23932
1876.49321	0.23923
1874.56465	0.23920
1872.63608	0.23989
1870.70752	0.24241
1868.77896	0.24595
1866.85039	0.24615
1864.92183	0.24321
1862.99326	0.24123
1861.06470	0.24093
1859.13613	0.24127
1857.20757	0.24154
1855.27900	0.24178
1853.35044	0.24215
1851.42187	0.24292
1849.49331	0.24438
1847.56475	0.24667
1845.63618	0.24959
1843.70762	0.25155
1841.77905	0.25044
1839.85049	0.24878
1837.92192	0.24905
1835.99336	0.25005
1834.06479	0.25092
1832.13623	0.25315
1830.20767	0.25720
1828.27910	0.25955
1826.35054	0.25956
1824.42197	0.25978
1822.49341	0.25949
1820.56484	0.25928
1818.63628	0.26036
1816.70771	0.26207
1814.77915	0.26376
1812.85059	0.26640
1810.92202	0.26977
1808.99346	0.27180
1807.06489	0.27266
1805.13633	0.27416
1803.20776	0.27745
1801.27920	0.28186
1799.35063	0.28529
1797.42207	0.28714
1795.49351	0.28972
1793.56494	0.29441
1791.63638	0.29927
1789.70781	0.30040
1787.77925	0.30024
1785.85068	0.30263
1783.92212	0.30683
1781.99355	0.31161
1780.06499	0.31640
1778.13643	0.32046
1776.20786	0.32491
1774.27930	0.33179
1772.35073	0.34097
1770.42217	0.34715
1768.49360	0.34936
1766.56504	0.35170
1764.63647	0.35590
1762.70791	0.36280
1760.77935	0.37130
1758.85078	0.37814
1756.92222	0.38499
1754.99365	0.39227
1753.06509	0.39992
1751.13652	0.41147
1749.20796	0.42520
1747.27939	0.43510
1745.35083	0.44212
1743.42227	0.45049
1741.49370	0.46076
1739.56514	0.47293
1737.63657	0.48492
1735.70801	0.49716
1733.77944	0.51657
1731.85088	0.53556
1729.92231	0.54765
1727.99375	0.56022
1726.06519	0.57546
1724.13662	0.59418
1722.20806	0.61513
1720.27949	0.63599
1718.35093	0.66306
1716.42236	0.69939
1714.49380	0.72722
1712.56523	0.74744
1710.63667	0.76919
1708.70811	0.79560
1706.77954	0.82766
1704.85098	0.86502
1702.92241	0.89751
1700.99385	0.93154
1699.06528	0.98198
1697.13672	1.02564
1695.20815	1.06690
1693.27959	1.10671
1691.35103	1.14156
1689.42246	1.18479
1687.49390	1.23170
1685.56533	1.27932
1683.63677	1.34971
1681.70820	1.41607
1679.77964	1.45660
1677.85107	1.49726
1675.92251	1.54698
1673.99395	1.60988
1672.06538	1.66687
1670.13682	1.72331
1668.20825	1.79324
1666.27969	1.84944
1664.35112	1.90100
1662.42256	1.96835
1660.49399	2.04290
1658.56543	2.10134
1656.63687	2.15079
1654.70830	2.19839
1652.77974	2.26565
1650.85117	2.32077
1648.92261	2.33955
1646.99404	2.36588
1645.06548	2.38840
1643.13691	2.39908
1641.20835	2.40474
1639.27979	2.41273
1637.35122	2.41946
1635.42266	2.41745
1633.49409	2.40273
1631.56553	2.38334
1629.63696	2.36330
1627.70840	2.33202
1625.77983	2.29539
1623.85127	2.24985
1621.92271	2.19360
1619.99414	2.14277
1618.06558	2.09550
1616.13701	2.02973
1614.20845	1.95956
1612.27988	1.90515
1610.35132	1.85104
1608.42275	1.79293
1606.49419	1.73436
1604.56562	1.68071
1602.63706	1.62991
1600.70850	1.58013
1598.77993	1.53452
1596.85137	1.49305
1594.92280	1.45345
1592.99424	1.41478
1591.06567	1.37947
1589.13711	1.34716
1587.20854	1.31751
1585.27998	1.29053
1583.35142	1.26612
1581.42285	1.24487
1579.49429	1.22827
1577.56572	1.21546
1575.63716	1.19916
1573.70859	1.18180
1571.78003	1.17125
1569.85146	1.16402
1567.92290	1.15528
1565.99434	1.14780
1564.06577	1.14442
1562.13721	1.14489
1560.20864	1.15205
1558.28008	1.16712
1556.35151	1.17172
1554.42295	1.17129
1552.49438	1.17335
1550.56582	1.17492
1548.63726	1.17346
1546.70869	1.16960
1544.78013	1.16449
1542.85156	1.15689
1540.92300	1.14168
1538.99443	1.10744
1537.06587	1.07566
1535.13730	1.05592
1533.20874	1.03344
1531.28018	1.00768
1529.35161	0.98863
1527.42305	0.97331
1525.49448	0.95858
1523.56592	0.94662
1521.63735	0.93565
1519.70879	0.92173
1517.78022	0.90836
1515.85166	0.89284
1513.92310	0.87579
1511.99453	0.86242
1510.06597	0.85373
1508.13740	0.84856
1506.20884	0.83329
1504.28027	0.80999
1502.35171	0.79627
1500.42314	0.78842
1498.49458	0.78261
1496.56602	0.77448
1494.63745	0.76343
1492.70889	0.75549
1490.78032	0.75193
1488.85176	0.74754
1486.92319	0.73865
1484.99463	0.72988
1483.06606	0.72443
1481.13750	0.72147
1479.20894	0.71982
1477.28037	0.72039
1475.35181	0.72367
1473.42324	0.72755
1471.49468	0.72642
1469.56611	0.72046
1467.63755	0.71630
1465.70898	0.71549
1463.78042	0.71511
1461.85186	0.71439
1459.92329	0.71693
1457.99473	0.72326
1456.06616	0.72475
1454.13760	0.71792
1452.20903	0.71194
1450.28047	0.70828
1448.35190	0.70588
1446.42334	0.70282
1444.49478	0.69896
1442.56621	0.69567
1440.63765	0.69327
1438.70908	0.69185
1436.78052	0.69009
1434.85195	0.68576
1432.92339	0.68157
1430.99482	0.67968
1429.06626	0.67883
1427.13770	0.67839
1425.20913	0.67961
1423.28057	0.68191
1421.35200	0.68398
1419.42344	0.68669
1417.49487	0.68736
1415.56631	0.68408
1413.63774	0.68139
1411.70918	0.68104
1409.78062	0.68216
1407.85205	0.68417
1405.92349	0.68717
1403.99492	0.68964
1402.06636	0.69030
1400.13779	0.69075
1398.20923	0.69085
1396.28066	0.68888
1394.35210	0.68398
1392.42354	0.67695
1390.49497	0.67099
1388.56641	0.66674
1386.63784	0.66150
1384.70928	0.65437
1382.78071	0.64757
1380.85215	0.64200
1378.92358	0.63763
1376.99502	0.63492
1375.06646	0.63383
1373.13789	0.63239
1371.20933	0.63025
1369.28076	0.62894
1367.35220	0.62785
1365.42363	0.62661
1363.49507	0.62603
1361.56650	0.62473
1359.63794	0.62184
1357.70937	0.61920
1355.78081	0.61758
1353.85225	0.61644
1351.92368	0.61548
1349.99512	0.61476
1348.06655	0.61391
1346.13799	0.61276
1344.20942	0.61196
1342.28086	0.61230
1340.35229	0.61352
1338.42373	0.61357
1336.49517	0.61167
1334.56660	0.60986
1332.63804	0.60925
1330.70947	0.60948
1328.78091	0.61009
1326.85234	0.61094
1324.92378	0.61207
1322.99521	0.61338
1321.06665	0.61480
1319.13809	0.61621
1317.20952	0.61709
1315.28096	0.61733
1313.35239	0.61715
1311.42383	0.61641
1309.49526	0.61537
1307.56670	0.61447
1305.63813	0.61371
1303.70957	0.61299
1301.78101	0.61230
1299.85244	0.61141
1297.92388	0.61010
1295.99531	0.60849
1294.06675	0.60699
1292.13818	0.60567
1290.20962	0.60433
1288.28105	0.60294
1286.35249	0.60134
1284.42393	0.59966
1282.49536	0.59813
1280.56680	0.59662
1278.63823	0.59499
1276.70967	0.59336
1274.78110	0.59193
1272.85254	0.59095
1270.92397	0.59032
1268.99541	0.58963
1267.06685	0.58883
1265.13828	0.58792
1263.20972	0.58688
1261.28115	0.58589
1259.35259	0.58505
1257.42402	0.58428
1255.49546	0.58377
1253.56689	0.58368
1251.63833	0.58387
1249.70977	0.58419
1247.78120	0.58438
1245.85264	0.58425
1243.92407	0.58368
1241.99551	0.58257
1240.06694	0.58100
1238.13838	0.57902
1236.20981	0.57665
1234.28125	0.57398
1232.35269	0.57124
1230.42412	0.56872
1228.49556	0.56656
1226.56699	0.56451
1224.63843	0.56221
1222.70986	0.55986
1220.78130	0.55784
1218.85273	0.55615
1216.92417	0.55464
1214.99561	0.55336
1213.06704	0.55237
1211.13848	0.55166
1209.20991	0.55104
1207.28135	0.55034
1205.35278	0.54945
1203.42422	0.54843
1201.49565	0.54743
1199.56709	0.54647
1197.63853	0.54550
1195.70996	0.54456
1193.78140	0.54379
1191.85283	0.54326
1189.92427	0.54279
1187.99570	0.54225
1186.06714	0.54192
1184.13857	0.54206
1182.21001	0.54256
1180.28145	0.54344
1178.35288	0.54482
1176.42432	0.54647
1174.49575	0.54792
1172.56719	0.54885
1170.63862	0.54915
1168.71006	0.54890
1166.78149	0.54850
1164.85293	0.54830
1162.92437	0.54829
1160.99580	0.54818
1159.06724	0.54767
1157.13867	0.54692
1155.21011	0.54618
1153.28154	0.54519
1151.35298	0.54352
1149.42441	0.54112
1147.49585	0.53830
1145.56729	0.53544
1143.63872	0.53278
1141.71016	0.53035
1139.78159	0.52833
1137.85303	0.52705
1135.92446	0.52662
1133.99590	0.52670
1132.06733	0.52694
1130.13877	0.52712
1128.21021	0.52694
1126.28164	0.52651
1124.35308	0.52609
1122.42451	0.52583
1120.49595	0.52579
1118.56738	0.52583
1116.63882	0.52603
1114.71025	0.52661
1112.78169	0.52723
1110.85312	0.52756
1108.92456	0.52808
1106.99600	0.52916
1105.06743	0.53045
1103.13887	0.53165
1101.21030	0.53279
1099.28174	0.53411
1097.35317	0.53602
1095.42461	0.53885
1093.49604	0.54264
1091.56748	0.54727
1089.63892	0.55270
1087.71035	0.55930
1085.78179	0.56714
1083.85322	0.57527
1081.92466	0.58256
1079.99609	0.58814
1078.06753	0.59108
1076.13896	0.59073
1074.21040	0.58727
1072.28184	0.58165
1070.35327	0.57483
1068.42471	0.56745
1066.49614	0.56019
1064.56758	0.55358
1062.63901	0.54767
1060.71045	0.54249
1058.78188	0.53807
1056.85332	0.53416
1054.92476	0.53061
1052.99619	0.52749
1051.06763	0.52490
1049.13906	0.52295
1047.21050	0.52152
1045.28193	0.52064
1043.35337	0.52030
1041.42480	0.51992
1039.49624	0.51926
1037.56768	0.51882
1035.63911	0.51870
1033.71055	0.51834
1031.78198	0.51734
1029.85342	0.51585
1027.92485	0.51413
1025.99629	0.51253
1024.06772	0.51146
1022.13916	0.51088
1020.21060	0.51043
1018.28203	0.51011
1016.35347	0.51006
1014.42490	0.51008
1012.49634	0.50999
1010.56777	0.50991
1008.63921	0.51009
1006.71064	0.51065
1004.78208	0.51168
1002.85352	0.51355
1000.92495	0.51641
998.99639	0.51995
997.06782	0.52405
995.13926	0.52851
993.21069	0.53276
991.28213	0.53619
989.35356	0.53838
987.42500	0.53926
985.49644	0.53929
983.56787	0.53907
981.63931	0.53912
979.71074	0.53976
977.78218	0.54101
975.85361	0.54289
973.92505	0.54535
971.99648	0.54820
970.06792	0.55145
968.13936	0.55523
966.21079	0.55945
964.28223	0.56379
962.35366	0.56824
960.42510	0.57308
958.49653	0.57838
956.56797	0.58412
954.63940	0.59021
952.71084	0.59637
950.78228	0.60255
948.85371	0.60892
946.92515	0.61542
944.99658	0.62176
943.06802	0.62803
941.13945	0.63455
939.21089	0.64094
937.28232	0.64676
935.35376	0.65242
933.42520	0.65842
931.49663	0.66451
929.56807	0.67022
927.63950	0.67583
925.71094	0.68146
923.78237	0.68705
921.85381	0.69326
919.92524	0.70033
917.99668	0.70779
916.06812	0.71548
914.13955	0.72303
912.21099	0.73017
910.28242	0.73778
908.35386	0.74668
906.42529	0.75560
904.49673	0.76387
902.56816	0.77271
900.63960	0.78243
898.71104	0.79268
896.78247	0.80302
894.85391	0.81282
892.92534	0.82219
890.99678	0.83220
889.06821	0.84370
887.13965	0.85510
885.21108	0.86498
883.28252	0.87593
881.35396	0.88943
879.42539	0.90275
877.49683	0.91430
875.56826	0.92521
873.63970	0.93591
871.71113	0.94737
869.78257	0.96053
867.85400	0.97318
865.92544	0.98368
863.99687	0.99348
862.06831	1.00459
860.13975	1.01674
858.21118	1.02849
856.28262	1.03981
854.35405	1.05156
852.42549	1.06522
850.49692	1.08042
848.56836	1.09318
846.63979	1.10234
844.71123	1.11096
842.78267	1.12021
840.85410	1.12993
838.92554	1.14087
836.99697	1.15385
835.06841	1.16872
833.13984	1.18336
831.21128	1.19674
829.28271	1.21115
827.35415	1.22636
825.42559	1.23939
823.49702	1.25026
821.56846	1.25749
819.63989	1.26306
817.71133	1.27452
815.78276	1.29230
813.85420	1.30894
811.92563	1.32281
809.99707	1.34042
808.06851	1.35680
806.13994	1.36723
804.21138	1.38025
802.28281	1.39626
800.35425	1.40391
798.42568	1.40276
796.49712	1.40442
794.56855	1.41083
792.63999	1.42806
790.71143	1.46449
788.78286	1.48497
786.85430	1.45070
784.92573	1.41718
782.99717	1.44018
781.06860	1.52559
779.14004	1.60359
777.21147	1.62010
775.28291	1.67154
773.35435	1.67739
771.42578	1.55452
769.49722	1.45947
767.56865	1.42826
765.64009	1.43257
763.71152	1.43952
761.78296	1.37895
759.85439	1.22149
757.92583	1.09396
755.99727	1.08633
754.06870	1.20156
752.14014	1.34451
750.21157	1.40716
748.28301	1.47158
746.35444	1.69473
744.42588	4.46656
742.49731	4.45498
740.56875	4.44341
738.64019	4.43184
736.71162	1.38492
734.78306	0.91166
732.85449	0.76444
730.92593	0.87969
728.99736	1.11728
727.06880	0.88325
725.14023	0.65496
723.21167	0.53510
721.28311	0.49399
719.35454	0.42932
717.42598	0.30759
715.49741	0.21648
713.56885	0.09248
711.64028	-0.12973
709.71172	-0.21069
707.78315	-0.00101
705.85459	0.26981
703.92603	0.39513
701.99746	0.34242
700.06890	0.39329
698.14033	0.42072
696.21177	0.32750
694.28320	0.30083
692.35464	0.40977
690.42607	0.50667
688.49751	0.45113
686.56895	0.44898
684.64038	0.61119
682.71182	0.76938
680.78325	0.61161
678.85469	0.47702
676.92612	0.49490
674.99756	0.73505
673.06899	0.98969
671.14043	0.80154
669.21187	0.61009
667.28330	0.52017
665.35474	0.44678
663.42617	0.35895
661.49761	0.33437
659.56904	0.33989
657.64048	0.30303
655.71191	0.29504
653.78335	0.30275
651.85479	0.27008
649.92622	0.29718
647.99766	0.44625
646.06909	0.60832
644.14053	0.52279
642.21196	0.39185
640.28340	0.38787
638.35483	0.44657
636.42627	0.37942
634.49771	0.25249
632.56914	0.28070
630.64058	0.42810
628.71201	0.53769
626.78345	0.42750
624.85488	0.29426
622.92632	0.24888
620.99775	0.22122
619.06919	0.17590
617.14062	0.15596
615.21206	0.17373
613.28350	0.21377
611.35493	0.26983
609.42637	0.39673
607.49780	0.57320
605.56924	0.61187
603.64067	0.63537
601.71211	0.61401
599.78354	0.46442
597.85498	0.49255
595.92642	1.03225
593.99785	1.16374
592.06929	0.65692
590.14072	0.56558
588.21216	0.48966
586.28359	0.38507
584.35503	0.31040
582.42646	0.33598
580.49790	0.41835
578.56934	0.44266
576.64077	0.40789
574.71221	0.37448
572.78364	0.34469
570.85508	0.35283
568.92651	0.45010
566.99795	0.52335
565.06938	0.49191
563.14082	0.42725
561.21226	0.32160
559.28369	0.26728
557.35513	0.27226
555.42656	0.32463
553.49800	0.37631
551.56943	0.35730
549.64087	0.31711
547.71230	0.27422
545.78374	0.24654
543.85518	0.24841
541.92661	0.27919
539.99805	0.31798
538.06948	0.30257
536.14092	0.27054
534.21235	0.28087
532.28379	0.29006
530.35522	0.26312
528.42666	0.22481
526.49810	0.20221
524.56953	0.23068
522.64097	0.33635
520.71240	0.44499
518.78384	0.40460
516.85527	0.34948
514.92671	0.36633
512.99814	0.38303
511.06958	0.38428
509.14102	0.43101
507.21245	0.50018
505.28389	0.49985
503.35532	0.40353
501.42676	0.30349
499.49819	0.26703
