3997.91411	0.05030
3995.98555	0.05067
3994.05698	0.05074
3992.12842	0.05084
3990.19985	0.05121
3988.27129	0.05172
3986.34272	0.05200
3984.41416	0.05218
3982.48560	0.05269
3980.55703	0.05332
3978.62847	0.05363
3976.69990	0.05374
3974.77134	0.05390
3972.84277	0.05407
3970.91421	0.05410
3968.98564	0.05412
3967.05708	0.05419
3965.12852	0.05416
3963.19995	0.05416
3961.27139	0.05436
3959.34282	0.05449
3957.41426	0.05445
3955.48569	0.05463
3953.55713	0.05493
3951.62856	0.05515
3949.70000	0.05540
3947.77144	0.05547
3945.84287	0.05541
3943.91431	0.05577
3941.98574	0.05640
3940.05718	0.05633
3938.12861	0.05559
3936.20005	0.05509
3934.27148	0.05533
3932.34292	0.05615
3930.41436	0.05678
3928.48579	0.05662
3926.55723	0.05643
3924.62866	0.05675
3922.70010	0.05673
3920.77153	0.05633
3918.84297	0.05628
3916.91440	0.05625
3914.98584	0.05582
3913.05728	0.05530
3911.12871	0.05516
3909.20015	0.05517
3907.27158	0.05524
3905.34302	0.05577
3903.41445	0.05670
3901.48589	0.05737
3899.55732	0.05779
3897.62876	0.05753
3895.70020	0.05637
3893.77163	0.05569
3891.84307	0.05614
3889.91450	0.05682
3887.98594	0.05692
3886.05737	0.05715
3884.12881	0.05769
3882.20024	0.05774
3880.27168	0.05759
3878.34312	0.05726
3876.41455	0.05686
3874.48599	0.05733
3872.55742	0.05828
3870.62886	0.05903
3868.70029	0.05969
3866.77173	0.05954
3864.84316	0.05942
3862.91460	0.06001
3860.98604	0.05993
3859.05747	0.05937
3857.12891	0.05958
3855.20034	0.06094
3853.27178	0.06361
3851.34321	0.06527
3849.41465	0.06380
3847.48608	0.06225
3845.55752	0.06211
3843.62896	0.06307
3841.70039	0.06440
3839.77183	0.06601
3837.84326	0.06767
3835.91470	0.06824
3833.98613	0.06809
3832.05757	0.06821
3830.12900	0.06830
3828.20044	0.06821
3826.27187	0.06845
3824.34331	0.06921
3822.41475	0.07058
3820.48618	0.07296
3818.55762	0.07488
3816.62905	0.07543
3814.70049	0.07577
3812.77192	0.07580
3810.84336	0.07574
3808.91479	0.07629
3806.98623	0.07792
3805.05767	0.08023
3803.12910	0.08180
3801.20054	0.08302
3799.27197	0.08431
3797.34341	0.08514
3795.41484	0.08611
3793.48628	0.08705
3791.55771	0.08772
3789.62915	0.08874
3787.70059	0.09018
3785.77202	0.09179
3783.84346	0.09343
3781.91489	0.09472
3779.98633	0.09622
3778.05776	0.09853
3776.12920	0.10019
3774.20063	0.10092
3772.27207	0.10196
3770.34351	0.10411
3768.41494	0.10709
3766.48638	0.10956
3764.55781	0.11136
3762.62925	0.11281
3760.70068	0.11464
3758.77212	0.11748
3756.84355	0.12025
3754.91499	0.12226
3752.98643	0.12457
3751.05786	0.12824
3749.12930	0.13275
3747.20073	0.13549
3745.27217	0.13705
3743.34360	0.13959
3741.41504	0.14239
3739.48647	0.14450
3737.55791	0.14709
3735.62935	0.15134
3733.70078	0.15693
3731.77222	0.16124
3729.84365	0.16399
3727.91509	0.16695
3725.98652	0.17209
3724.05796	0.17947
3722.12939	0.18724
3720.20083	0.19504
3718.27227	0.20316
3716.34370	0.21133
3714.41514	0.21935
3712.48657	0.22864
3710.55801	0.24142
3708.62944	0.25516
3706.70088	0.26636
3704.77231	0.27701
3702.84375	0.29016
3700.91519	0.30746
3698.98662	0.32597
3697.05806	0.34356
3695.12949	0.36249
3693.20093	0.38280
3691.27236	0.40513
3689.34380	0.43396
3687.41523	0.46890
3685.48667	0.49965
3683.55811	0.52637
3681.62954	0.55511
3679.70098	0.58728
3677.77241	0.62104
3675.84385	0.66072
3673.91528	0.71311
3671.98672	0.75682
3670.05815	0.79636
3668.12959	0.84956
3666.20103	0.89835
3664.27246	0.93952
3662.34390	0.98375
3660.41533	1.03147
3658.48677	1.07819
3656.55820	1.12724
3654.62964	1.18187
3652.70107	1.22883
3650.77251	1.27080
3648.84395	1.32767
3646.91538	1.39484
3644.98682	1.44436
3643.05825	1.48324
3641.12969	1.52352
3639.20112	1.56808
3637.27256	1.61287
3635.34399	1.65620
3633.41543	1.69950
3631.48687	1.74025
3629.55830	1.78118
3627.62974	1.83359
3625.70117	1.88346
3623.77261	1.91831
3621.84404	1.95176
3619.91548	1.99050
3617.98691	2.03735
3616.05835	2.08224
3614.12979	2.11961
3612.20122	2.15866
3610.27266	2.19802
3608.34409	2.23788
3606.41553	2.28087
3604.48696	2.32130
3602.55840	2.35680
3600.62983	2.39385
3598.70127	2.43483
3596.77271	2.47661
3594.84414	2.51869
3592.91558	2.56081
3590.98701	2.60003
3589.05845	2.63689
3587.12988	2.68094
3585.20132	2.72902
3583.27275	2.77002
3581.34419	2.80926
3579.41562	2.85205
3577.48706	2.89579
3575.55850	2.93833
3573.62993	2.98193
3571.70137	3.02498
3569.77280	3.06539
3567.84424	3.10696
3565.91567	3.15788
3563.98711	3.20917
3562.05854	3.25307
3560.12998	3.29706
3558.20142	3.34208
3556.27285	3.38684
3554.34429	3.43145
3552.41572	3.47706
3550.48716	3.52218
3548.55859	3.56584
3546.63003	3.61163
3544.70146	3.66259
3542.77290	3.71250
3540.84434	3.75767
3538.91577	3.80332
3536.98721	3.85137
3535.05864	3.90113
3533.13008	3.94905
3531.20151	3.99595
3529.27295	4.04397
3527.34438	4.09286
3525.41582	4.14175
3523.48726	4.19001
3521.55869	4.23929
3519.63013	4.28842
3517.70156	4.33602
3515.77300	4.38262
3513.84443	4.42885
3511.91587	4.47563
3509.98730	4.52453
3508.05874	4.57243
3506.13018	4.61820
3504.20161	4.66600
3502.27305	4.71733
3500.34448	4.76897
3498.41592	4.81633
3496.48735	4.86519
3494.55879	4.91998
3492.63022	4.97180
3490.70166	5.01571
3488.77310	5.05877
3486.84453	5.10436
3484.91597	5.15000
3482.98740	5.19802
3481.05884	5.25133
3479.13027	5.30383
3477.20171	5.35025
3475.27314	5.39872
3473.34458	5.45489
3471.41602	5.50343
3469.48745	5.53378
3467.55889	5.56646
3465.63032	5.61770
3463.70176	5.67681
3461.77319	5.72777
3459.84463	5.77150
3457.91606	5.82148
3455.98750	5.87949
3454.05894	5.93465
3452.13037	5.98650
3450.20181	6.03756
3448.27324	6.08269
3446.34468	6.12733
3444.41611	6.17613
3442.48755	6.22843
3440.55898	6.27568
3438.63042	6.30765
3436.70186	6.33891
3434.77329	6.39428
3432.84473	6.47345
3430.91616	6.54676
3428.98760	6.59219
3427.05903	6.63240
3425.13047	6.69125
3423.20190	6.73290
3421.27334	6.75168
3419.34478	6.79192
3417.41621	6.87014
3415.48765	6.95875
3413.55908	7.00961
3411.63052	7.01671
3409.70195	7.01733
3407.77339	7.05749
3405.84482	7.13493
3403.91626	7.21616
3401.98770	7.27242
3400.05913	7.29491
3398.13057	7.30736
3396.20200	7.32770
3394.27344	7.34316
3392.34487	7.33281
3390.41631	7.34009
3388.48774	7.40034
3386.55918	7.48627
3384.63062	7.54551
3382.70205	7.56651
3380.77349	7.57888
3378.84492	7.61358
3376.91636	7.67866
3374.98779	7.72325
3373.05923	7.73840
3371.13066	7.75109
3369.20210	7.75671
3367.27354	7.72620
3365.34497	7.70979
3363.41641	7.78320
3361.48784	7.89626
3359.55928	7.97139
3357.63071	8.01276
3355.70215	8.02732
3353.77358	8.00250
3351.84502	7.99033
3349.91646	7.99498
3347.98789	7.98619
3346.05933	7.95862
3344.13076	7.94386
3342.20220	7.99796
3340.27363	8.07773
3338.34507	8.08723
3336.41650	8.03104
3334.48794	8.00381
3332.55937	7.99637
3330.63081	7.99318
3328.70225	8.03030
3326.77368	8.07646
3324.84512	8.12036
3322.91655	8.21080
3320.98799	8.30956
3319.05942	8.28469
3317.13086	8.17698
3315.20229	8.08886
3313.27373	8.05656
3311.34517	8.05493
3309.41660	8.05295
3307.48804	8.08603
3305.55947	8.17000
3303.63091	8.25255
3301.70234	8.23186
3299.77378	8.15088
3297.84521	8.11022
3295.91665	8.10045
3293.98809	8.06378
3292.05952	8.02081
3290.13096	8.04992
3288.20239	8.11255
3286.27383	8.14441
3284.34526	8.20976
3282.41670	8.31092
3280.48813	8.29476
3278.55957	8.17121
3276.63101	8.10753
3274.70244	8.16573
3272.77388	8.25884
3270.84531	8.29958
3268.91675	8.31883
3266.98818	8.31204
3265.05962	8.22151
3263.13105	8.09640
3261.20249	8.05174
3259.27393	8.07026
3257.34536	8.11421
3255.41680	8.20911
3253.48823	8.30394
3251.55967	8.30556
3249.63110	8.25697
3247.70254	8.28954
3245.77397	8.37554
3243.84541	8.37676
3241.91685	8.30480
3239.98828	8.24448
3238.05972	8.16374
3236.13115	8.05401
3234.20259	7.99648
3232.27402	8.01613
3230.34546	8.05008
3228.41689	8.06576
3226.48833	8.09403
3224.55977	8.11376
3222.63120	8.12742
3220.70264	8.14712
3218.77407	8.12073
3216.84551	8.03357
3214.91694	7.93684
3212.98838	7.89445
3211.05981	7.90777
3209.13125	7.92581
3207.20269	7.89676
3205.27412	7.82077
3203.34556	7.76834
3201.41699	7.74983
3199.48843	7.70971
3197.55986	7.66916
3195.63130	7.67056
3193.70273	7.66274
3191.77417	7.60718
3189.84561	7.55369
3187.91704	7.50222
3185.98848	7.43366
3184.05991	7.38196
3182.13135	7.33266
3180.20278	7.26868
3178.27422	7.21627
3176.34565	7.17193
3174.41709	7.11502
3172.48853	7.05579
3170.55996	7.00553
3168.63140	6.94988
3166.70283	6.88510
3164.77427	6.83304
3162.84570	6.79775
3160.91714	6.74106
3158.98857	6.65472
3157.06001	6.57878
3155.13145	6.52602
3153.20288	6.47823
3151.27432	6.42388
3149.34575	6.35699
3147.41719	6.28268
3145.48862	6.22186
3143.56006	6.17402
3141.63149	6.10914
3139.70293	6.02240
3137.77437	5.95034
3135.84580	5.89355
3133.91724	5.82097
3131.98867	5.74439
3130.06011	5.68354
3128.13154	5.62345
3126.20298	5.55183
3124.27441	5.47683
3122.34585	5.40329
3120.41729	5.33181
3118.48872	5.26562
3116.56016	5.20115
3114.63159	5.13043
3112.70303	5.05452
3110.77446	4.98146
3108.84590	4.91326
3106.91733	4.84514
3104.98877	4.77473
3103.06021	4.70475
3101.13164	4.63636
3099.20308	4.56925
3097.27451	4.50409
3095.34595	4.44044
3093.41738	4.37677
3091.48882	4.31375
3089.56025	4.25269
3087.63169	4.19105
3085.70312	4.12721
3083.77456	4.06390
3081.84600	4.00287
3079.91743	3.94318
3077.98887	3.88465
3076.06030	3.82662
3074.13174	3.76852
3072.20317	3.71108
3070.27461	3.65295
3068.34604	3.59392
3066.41748	3.53652
3064.48892	3.48068
3062.56035	3.42346
3060.63179	3.36622
3058.70322	3.31336
3056.77466	3.26321
3054.84609	3.21148
3052.91753	3.15863
3050.98896	3.10683
3049.06040	3.05582
3047.13184	3.00499
3045.20327	2.95463
3043.27471	2.90503
3041.34614	2.85644
3039.41758	2.80815
3037.48901	2.76018
3035.56045	2.71418
3033.63188	2.66940
3031.70332	2.62343
3029.77476	2.57672
3027.84619	2.53122
3025.91763	2.48738
3023.98906	2.44485
3022.06050	2.40305
3020.13193	2.36134
3018.20337	2.32004
3016.27480	2.27969
3014.34624	2.24041
3012.41768	2.20187
3010.48911	2.16327
3008.56055	2.12464
3006.63198	2.08712
3004.70342	2.05113
3002.77485	2.01596
3000.84629	1.98125
2998.91772	1.94699
2996.98916	1.91321
2995.06060	1.88055
2993.13203	1.84926
2991.20347	1.81894
2989.27490	1.78884
2987.34634	1.75836
2985.41777	1.72831
2983.48921	1.69993
2981.56064	1.67276
2979.63208	1.64594
2977.70352	1.61959
2975.77495	1.59351
2973.84639	1.56738
2971.91782	1.54168
2969.98926	1.51661
2968.06069	1.49172
2966.13213	1.46701
2964.20356	1.44271
2962.27500	1.41858
2960.34644	1.39432
2958.41787	1.36984
2956.48931	1.34538
2954.56074	1.32135
2952.63218	1.29770
2950.70361	1.27428
2948.77505	1.25124
2946.84648	1.22871
2944.91792	1.20663
2942.98936	1.18487
2941.06079	1.16358
2939.13223	1.14279
2937.20366	1.12226
2935.27510	1.10193
2933.34653	1.08159
2931.41797	1.06154
2929.48940	1.04224
2927.56084	1.02305
2925.63228	1.00364
2923.70371	0.98465
2921.77515	0.96620
2919.84658	0.94831
2917.91802	0.93121
2915.98945	0.91454
2914.06089	0.89791
2912.13232	0.88166
2910.20376	0.86608
2908.27520	0.85103
2906.34663	0.83649
2904.41807	0.82216
2902.48950	0.80778
2900.56094	0.79378
2898.63237	0.78040
2896.70381	0.76728
2894.77524	0.75420
2892.84668	0.74134
2890.91812	0.72907
2888.98955	0.71767
2887.06099	0.70693
2885.13242	0.69631
2883.20386	0.68574
2881.27529	0.67559
2879.34673	0.66594
2877.41816	0.65648
2875.48960	0.64682
2873.56104	0.63659
2871.63247	0.62575
2869.70391	0.61442
2867.77534	0.60262
2865.84678	0.59052
2863.91821	0.57831
2861.98965	0.56620
2860.06108	0.55477
2858.13252	0.54431
2856.20396	0.53447
2854.27539	0.52499
2852.34683	0.51567
2850.41826	0.50654
2848.48970	0.49789
2846.56113	0.48981
2844.63257	0.48224
2842.70400	0.47514
2840.77544	0.46854
2838.84687	0.46245
2836.91831	0.45651
2834.98975	0.45052
2833.06118	0.44460
2831.13262	0.43876
2829.20405	0.43290
2827.27549	0.42706
2825.34692	0.42109
2823.41836	0.41497
2821.48979	0.40889
2819.56123	0.40291
2817.63267	0.39712
2815.70410	0.39142
2813.77554	0.38568
2811.84697	0.37993
2809.91841	0.37433
2807.98984	0.36892
2806.06128	0.36368
2804.13271	0.35857
2802.20415	0.35342
2800.27559	0.34824
2798.34702	0.34321
2796.41846	0.33829
2794.48989	0.33342
2792.56133	0.32860
2790.63276	0.32384
2788.70420	0.31917
2786.77563	0.31465
2784.84707	0.31025
2782.91851	0.30594
2780.98994	0.30174
2779.06138	0.29763
2777.13281	0.29354
2775.20425	0.28939
2773.27568	0.28530
2771.34712	0.28148
2769.41855	0.27788
2767.48999	0.27427
2765.56143	0.27061
2763.63286	0.26708
2761.70430	0.26374
2759.77573	0.26038
2757.84717	0.25698
2755.91860	0.25371
2753.99004	0.25057
2752.06147	0.24744
2750.13291	0.24447
2748.20435	0.24168
2746.27578	0.23876
2744.34722	0.23566
2742.41865	0.23277
2740.49009	0.23015
2738.56152	0.22763
2736.63296	0.22509
2734.70439	0.22247
2732.77583	0.21991
2730.84727	0.21762
2728.91870	0.21546
2726.99014	0.21321
2725.06157	0.21087
2723.13301	0.20858
2721.20444	0.20647
2719.27588	0.20450
2717.34731	0.20249
2715.41875	0.20039
2713.49019	0.19834
2711.56162	0.19641
2709.63306	0.19454
2707.70449	0.19280
2705.77593	0.19125
2703.84736	0.18975
2701.91880	0.18811
2699.99023	0.18638
2698.06167	0.18471
2696.13311	0.18314
2694.20454	0.18172
2692.27598	0.18044
2690.34741	0.17918
2688.41885	0.17783
2686.49028	0.17646
2684.56172	0.17519
2682.63315	0.17400
2680.70459	0.17275
2678.77603	0.17145
2676.84746	0.17023
2674.91890	0.16899
2672.99033	0.16774
2671.06177	0.16666
2669.13320	0.16572
2667.20464	0.16482
2665.27607	0.16393
2663.34751	0.16297
2661.41895	0.16207
2659.49038	0.16135
2657.56182	0.16064
2655.63325	0.15971
2653.70469	0.15869
2651.77612	0.15791
2649.84756	0.15736
2647.91899	0.15679
2645.99043	0.15627
2644.06187	0.15583
2642.13330	0.15523
2640.20474	0.15457
2638.27617	0.15407
2636.34761	0.15358
2634.41904	0.15300
2632.49048	0.15251
2630.56191	0.15215
2628.63335	0.15180
2626.70479	0.15132
2624.77622	0.15077
2622.84766	0.15039
2620.91909	0.15021
2618.99053	0.14998
2617.06196	0.14970
2615.13340	0.14955
2613.20483	0.14944
2611.27627	0.14917
2609.34771	0.14883
2607.41914	0.14866
2605.49058	0.14862
2603.56201	0.14851
2601.63345	0.14843
2599.70488	0.14849
2597.77632	0.14863
2595.84775	0.14874
2593.91919	0.14879
2591.99062	0.14884
2590.06206	0.14895
2588.13350	0.14902
2586.20493	0.14900
2584.27637	0.14907
2582.34780	0.14931
2580.41924	0.14961
2578.49067	0.14986
2576.56211	0.15017
2574.63354	0.15057
2572.70498	0.15097
2570.77642	0.15132
2568.84785	0.15152
2566.91929	0.15168
2564.99072	0.15197
2563.06216	0.15234
2561.13359	0.15275
2559.20503	0.15327
2557.27646	0.15385
2555.34790	0.15437
2553.41934	0.15492
2551.49077	0.15554
2549.56221	0.15607
2547.63364	0.15652
2545.70508	0.15702
2543.77651	0.15754
2541.84795	0.15803
2539.91938	0.15855
2537.99082	0.15915
2536.06226	0.15979
2534.13369	0.16041
2532.20513	0.16108
2530.27656	0.16176
2528.34800	0.16245
2526.41943	0.16322
2524.49087	0.16399
2522.56230	0.16469
2520.63374	0.16541
2518.70518	0.16618
2516.77661	0.16697
2514.84805	0.16775
2512.91948	0.16848
2510.99092	0.16914
2509.06235	0.16988
2507.13379	0.17071
2505.20522	0.17159
2503.27666	0.17244
2501.34810	0.17320
2499.41953	0.17394
2497.49097	0.17472
2495.56240	0.17550
2493.63384	0.17628
2491.70527	0.17715
2489.77671	0.17809
2487.84814	0.17899
2485.91958	0.17988
2483.99102	0.18071
2482.06245	0.18145
2480.13389	0.18217
2478.20532	0.18300
2476.27676	0.18393
2474.34819	0.18487
2472.41963	0.18581
2470.49106	0.18672
2468.56250	0.18756
2466.63394	0.18843
2464.70537	0.18940
2462.77681	0.19037
2460.84824	0.19133
2458.91968	0.19230
2456.99111	0.19331
2455.06255	0.19430
2453.13398	0.19521
2451.20542	0.19606
2449.27686	0.19688
2447.34829	0.19772
2445.41973	0.19864
2443.49116	0.19967
2441.56260	0.20075
2439.63403	0.20191
2437.70547	0.20309
2435.77690	0.20415
2433.84834	0.20510
2431.91978	0.20604
2429.99121	0.20697
2428.06265	0.20794
2426.13408	0.20911
2424.20552	0.21042
2422.27695	0.21161
2420.34839	0.21258
2418.41982	0.21356
2416.49126	0.21475
2414.56270	0.21602
2412.63413	0.21713
2410.70557	0.21820
2408.77700	0.21937
2406.84844	0.22061
2404.91987	0.22184
2402.99131	0.22304
2401.06274	0.22421
2399.13418	0.22539
2397.20562	0.22666
2395.27705	0.22798
2393.34849	0.22922
2391.41992	0.23036
2389.49136	0.23143
2387.56279	0.23228
2385.63423	0.23258
2383.70566	0.23207
2381.77710	0.23062
2379.84854	0.22829
2377.91997	0.22528
2375.99141	0.22164
2374.06284	0.21725
2372.13428	0.21198
2370.20571	0.20595
2368.27715	0.19948
2366.34858	0.19346
2364.42002	0.18903
2362.49146	0.18603
2360.56289	0.18472
2358.63433	0.18636
2356.70576	0.19125
2354.77720	0.20007
2352.84863	0.21183
2350.92007	0.22256
2348.99150	0.22848
2347.06294	0.22867
2345.13437	0.22446
2343.20581	0.21994
2341.27725	0.21919
2339.34868	0.22144
2337.42012	0.22436
2335.49155	0.22715
2333.56299	0.23032
2331.63442	0.23366
2329.70586	0.23659
2327.77729	0.23957
2325.84873	0.24347
2323.92017	0.24828
2321.99160	0.25354
2320.06304	0.25902
2318.13447	0.26446
2316.20591	0.26931
2314.27734	0.27320
2312.34878	0.27631
2310.42021	0.27935
2308.49165	0.28268
2306.56309	0.28625
2304.63452	0.28981
2302.70596	0.29302
2300.77739	0.29598
2298.84883	0.29901
2296.92026	0.30198
2294.99170	0.30472
2293.06313	0.30742
2291.13457	0.31030
2289.20601	0.31326
2287.27744	0.31608
2285.34888	0.31868
2283.42031	0.32101
2281.49175	0.32305
2279.56318	0.32484
2277.63462	0.32659
2275.70605	0.32849
2273.77749	0.33049
2271.84893	0.33252
2269.92036	0.33465
2267.99180	0.33681
2266.06323	0.33899
2264.13467	0.34127
2262.20610	0.34367
2260.27754	0.34611
2258.34897	0.34853
2256.42041	0.35081
2254.49185	0.35307
2252.56328	0.35533
2250.63472	0.35763
2248.70615	0.35998
2246.77759	0.36237
2244.84902	0.36470
2242.92046	0.36700
2240.99189	0.36931
2239.06333	0.37160
2237.13477	0.37381
2235.20620	0.37595
2233.27764	0.37818
2231.34907	0.38058
2229.42051	0.38300
2227.49194	0.38536
2225.56338	0.38762
2223.63481	0.38976
2221.70625	0.39200
2219.77769	0.39434
2217.84912	0.39658
2215.92056	0.39869
2213.99199	0.40083
2212.06343	0.40313
2210.13486	0.40540
2208.20630	0.40741
2206.27773	0.40937
2204.34917	0.41148
2202.42061	0.41359
2200.49204	0.41563
2198.56348	0.41771
2196.63491	0.41985
2194.70635	0.42195
2192.77778	0.42392
2190.84922	0.42581
2188.92065	0.42776
2186.99209	0.42975
2185.06353	0.43153
2183.13496	0.43315
2181.20640	0.43480
2179.27783	0.43641
2177.34927	0.43792
2175.42070	0.43949
2173.49214	0.44115
2171.56357	0.44269
2169.63501	0.44406
2167.70645	0.44541
2165.77788	0.44678
2163.84932	0.44811
2161.92075	0.44932
2159.99219	0.45047
2158.06362	0.45146
2156.13506	0.45224
2154.20649	0.45295
2152.27793	0.45375
2150.34937	0.45462
2148.42080	0.45540
2146.49224	0.45606
2144.56367	0.45655
2142.63511	0.45689
2140.70654	0.45721
2138.77798	0.45757
2136.84941	0.45782
2134.92085	0.45796
2132.99229	0.45811
2131.06372	0.45815
2129.13516	0.45807
2127.20659	0.45791
2125.27803	0.45764
2123.34946	0.45721
2121.42090	0.45666
2119.49233	0.45605
2117.56377	0.45548
2115.63521	0.45484
2113.70664	0.45398
2111.77808	0.45301
2109.84951	0.45209
2107.92095	0.45113
2105.99238	0.45004
2104.06382	0.44887
2102.13525	0.44758
2100.20669	0.44622
2098.27812	0.44482
2096.34956	0.44338
2094.42100	0.44189
2092.49243	0.44029
2090.56387	0.43863
2088.63530	0.43684
2086.70674	0.43490
2084.77817	0.43309
2082.84961	0.43139
2080.92104	0.42947
2078.99248	0.42736
2077.06392	0.42530
2075.13535	0.42319
2073.20679	0.42094
2071.27822	0.41865
2069.34966	0.41642
2067.42109	0.41420
2065.49253	0.41191
2063.56396	0.40943
2061.63540	0.40687
2059.70684	0.40430
2057.77827	0.40177
2055.84971	0.39931
2053.92114	0.39683
2051.99258	0.39425
2050.06401	0.39160
2048.13545	0.38897
2046.20688	0.38630
2044.27832	0.38359
2042.34976	0.38090
2040.42119	0.37818
2038.49263	0.37545
2036.56406	0.37276
2034.63550	0.37008
2032.70693	0.36735
2030.77837	0.36454
2028.84980	0.36168
2026.92124	0.35891
2024.99268	0.35614
2023.06411	0.35328
2021.13555	0.35041
2019.20698	0.34764
2017.27842	0.34494
2015.34985	0.34216
2013.42129	0.33931
2011.49272	0.33650
2009.56416	0.33379
2007.63560	0.33114
2005.70703	0.32847
2003.77847	0.32575
2001.84990	0.32300
1999.92134	0.32027
1997.99277	0.31770
1996.06421	0.31524
1994.13564	0.31271
1992.20708	0.31014
1990.27852	0.30755
1988.34995	0.30499
1986.42139	0.30246
1984.49282	0.29999
1982.56426	0.29764
1980.63569	0.29534
1978.70713	0.29300
1976.77856	0.29073
1974.85000	0.28865
1972.92144	0.28657
1970.99287	0.28440
1969.06431	0.28233
1967.13574	0.28038
1965.20718	0.27835
1963.27861	0.27625
1961.35005	0.27423
1959.42148	0.27229
1957.49292	0.27039
1955.56436	0.26853
1953.63579	0.26675
1951.70723	0.26502
1949.77866	0.26336
1947.85010	0.26172
1945.92153	0.26011
1943.99297	0.25860
1942.06440	0.25713
1940.13584	0.25564
1938.20728	0.25420
1936.27871	0.25282
1934.35015	0.25147
1932.42158	0.25019
1930.49302	0.24900
1928.56445	0.24792
1926.63589	0.24679
1924.70732	0.24572
1922.77876	0.24482
1920.85020	0.24397
1918.92163	0.24313
1916.99307	0.24225
1915.06450	0.24126
1913.13594	0.24034
1911.20737	0.23960
1909.27881	0.23891
1907.35024	0.23817
1905.42168	0.23745
1903.49312	0.23685
1901.56455	0.23635
1899.63599	0.23584
1897.70742	0.23543
1895.77886	0.23514
1893.85029	0.23483
1891.92173	0.23441
1889.99316	0.23416
1888.06460	0.23393
1886.13604	0.23352
1884.20747	0.23313
1882.27891	0.23291
1880.35034	0.23287
1878.42178	0.23288
1876.49321	0.23290
1874.56465	0.23291
1872.63608	0.23301
1870.70752	0.23328
1868.77896	0.23385
1866.85039	0.23417
1864.92183	0.23397
1862.99326	0.23388
1861.06470	0.23412
1859.13613	0.23452
1857.20757	0.23488
1855.27900	0.23524
1853.35044	0.23560
1851.42187	0.23610
1849.49331	0.23683
1847.56475	0.23765
1845.63618	0.23861
1843.70762	0.23977
1841.77905	0.24056
1839.85049	0.24089
1837.92192	0.24160
1835.99336	0.24257
1834.06479	0.24349
1832.13623	0.24444
1830.20767	0.24588
1828.27910	0.24749
1826.35054	0.24865
1824.42197	0.24985
1822.49341	0.25101
1820.56484	0.25219
1818.63628	0.25357
1816.70771	0.25524
1814.77915	0.25692
1812.85059	0.25870
1810.92202	0.26078
1808.99346	0.26286
1807.06489	0.26478
1805.13633	0.26672
1803.20776	0.26896
1801.27920	0.27150
1799.35063	0.27435
1797.42207	0.27695
1795.49351	0.27944
1793.56494	0.28235
1791.63638	0.28596
1789.70781	0.28929
1787.77925	0.29179
1785.85068	0.29485
1783.92212	0.29856
1781.99355	0.30259
1780.06499	0.30680
1778.13643	0.31109
1776.20786	0.31514
1774.27930	0.31950
1772.35073	0.32537
1770.42217	0.33171
1768.49360	0.33705
1766.56504	0.34226
1764.63647	0.34766
1762.70791	0.35358
1760.77935	0.36097
1758.85078	0.36798
1756.92222	0.37510
1754.99365	0.38291
1753.06509	0.39003
1751.13652	0.39846
1749.20796	0.40902
1747.27939	0.41931
1745.35083	0.42827
1743.42227	0.43772
1741.49370	0.44816
1739.56514	0.46043
1737.63657	0.47280
1735.70801	0.48385
1733.77944	0.50028
1731.85088	0.51973
1729.92231	0.53514
1727.99375	0.55082
1726.06519	0.56790
1724.13662	0.58654
1722.20806	0.60647
1720.27949	0.62495
1718.35093	0.64677
1716.42236	0.67863
1714.49380	0.70909
1712.56523	0.73409
1710.63667	0.75853
1708.70811	0.78486
1706.77954	0.81456
1704.85098	0.84962
1702.92241	0.88114
1700.99385	0.91265
1699.06528	0.95913
1697.13672	1.00229
1695.20815	1.04680
1693.27959	1.09092
1691.35103	1.12696
1689.42246	1.16832
1687.49390	1.21224
1685.56533	1.25522
1683.63677	1.32001
1681.70820	1.38740
1679.77964	1.43177
1677.85107	1.47435
1675.92251	1.52319
1673.99395	1.58242
1672.06538	1.63554
1670.13682	1.68855
1668.20825	1.75798
1666.27969	1.81666
1664.35112	1.86774
1662.42256	1.93157
1660.49399	2.00329
1658.56543	2.05928
1656.63687	2.10379
1654.70830	2.14313
1652.77974	2.20025
1650.85117	2.25567
1648.92261	2.27755
1646.99404	2.30403
1645.06548	2.33227
1643.13691	2.35094
1641.20835	2.36011
1639.27979	2.36711
1637.35122	2.37078
1635.42266	2.36777
1633.49409	2.35645
1631.56553	2.33983
1629.63696	2.32092
1627.70840	2.29149
1625.77983	2.25762
1623.85127	2.21496
1621.92271	2.16246
1619.99414	2.11419
1618.06558	2.06623
1616.13701	2.00023
1614.20845	1.93343
1612.27988	1.88153
1610.35132	1.82775
1608.42275	1.77025
1606.49419	1.71388
1604.56562	1.66191
1602.63706	1.61205
1600.70850	1.56351
1598.77993	1.51834
1596.85137	1.47588
1594.92280	1.43537
1592.99424	1.39671
1591.06567	1.36145
1589.13711	1.32884
1587.20854	1.29879
1585.27998	1.27136
1583.35142	1.24628
1581.42285	1.22355
1579.49429	1.20414
1577.56572	1.18735
1575.63716	1.16845
1573.70859	1.15190
1571.78003	1.14075
1569.85146	1.13012
1567.92290	1.11952
1565.99434	1.11235
1564.06577	1.10798
1562.13721	1.10538
1560.20864	1.10538
1558.28008	1.11050
1556.35151	1.11595
1554.42295	1.11856
1552.49438	1.12092
1550.56582	1.12148
1548.63726	1.11922
1546.70869	1.11416
1544.78013	1.10569
1542.85156	1.09329
1540.92300	1.07401
1538.99443	1.04414
1537.06587	1.02139
1535.13730	1.00535
1533.20874	0.98451
1531.28018	0.96231
1529.35161	0.94581
1527.42305	0.93037
1525.49448	0.91440
1523.56592	0.90075
1521.63735	0.88848
1519.70879	0.87658
1517.78022	0.86618
1515.85166	0.85393
1513.92310	0.84061
1511.99453	0.82861
1510.06597	0.81771
1508.13740	0.80714
1506.20884	0.79200
1504.28027	0.77893
1502.35171	0.77131
1500.42314	0.76468
1498.49458	0.75769
1496.56602	0.74970
1494.63745	0.74179
1492.70889	0.73555
1490.78032	0.73018
1488.85176	0.72426
1486.92319	0.71858
1484.99463	0.71407
1483.06606	0.71065
1481.13750	0.70794
1479.20894	0.70597
1477.28037	0.70502
1475.35181	0.70483
1473.42324	0.70482
1471.49468	0.70420
1469.56611	0.70259
1467.63755	0.70053
1465.70898	0.69878
1463.78042	0.69776
1461.85186	0.69739
1459.92329	0.69758
1457.99473	0.69830
1456.06616	0.69841
1454.13760	0.69659
1452.20903	0.69413
1450.28047	0.69162
1448.35190	0.68906
1446.42334	0.68622
1444.49478	0.68343
1442.56621	0.68096
1440.63765	0.67851
1438.70908	0.67585
1436.78052	0.67246
1434.85195	0.66864
1432.92339	0.66566
1430.99482	0.66376
1429.06626	0.66281
1427.13770	0.66260
1425.20913	0.66307
1423.28057	0.66402
1421.35200	0.66481
1419.42344	0.66547
1417.49487	0.66560
1415.56631	0.66469
1413.63774	0.66386
1411.70918	0.66383
1409.78062	0.66473
1407.85205	0.66630
1405.92349	0.66824
1403.99492	0.66992
1402.06636	0.67036
1400.13779	0.66956
1398.20923	0.66778
1396.28066	0.66510
1394.35210	0.66131
1392.42354	0.65682
1390.49497	0.65253
1388.56641	0.64822
1386.63784	0.64311
1384.70928	0.63757
1382.78071	0.63247
1380.85215	0.62783
1378.92358	0.62373
1376.99502	0.62065
1375.06646	0.61870
1373.13789	0.61741
1371.20933	0.61660
1369.28076	0.61602
1367.35220	0.61499
1365.42363	0.61339
1363.49507	0.61170
1361.56650	0.61014
1359.63794	0.60856
1357.70937	0.60705
1355.78081	0.60576
1353.85225	0.60469
1351.92368	0.60377
1349.99512	0.60299
1348.06655	0.60223
1346.13799	0.60139
1344.20942	0.60054
1342.28086	0.59975
1340.35229	0.59918
1338.42373	0.59872
1336.49517	0.59812
1334.56660	0.59746
1332.63804	0.59712
1330.70947	0.59721
1328.78091	0.59771
1326.85234	0.59859
1324.92378	0.59961
1322.99521	0.60049
1321.06665	0.60119
1319.13809	0.60187
1317.20952	0.60239
1315.28096	0.60249
1313.35239	0.60219
1311.42383	0.60161
1309.49526	0.60095
1307.56670	0.60036
1305.63813	0.59975
1303.70957	0.59908
1301.78101	0.59835
1299.85244	0.59745
1297.92388	0.59636
1295.99531	0.59514
1294.06675	0.59380
1292.13818	0.59239
1290.20962	0.59106
1288.28105	0.58989
1286.35249	0.58868
1284.42393	0.58725
1282.49536	0.58569
1280.56680	0.58419
1278.63823	0.58277
1276.70967	0.58139
1274.78110	0.58009
1272.85254	0.57893
1270.92397	0.57795
1268.99541	0.57719
1267.06685	0.57658
1265.13828	0.57593
1263.20972	0.57520
1261.28115	0.57440
1259.35259	0.57362
1257.42402	0.57297
1255.49546	0.57256
1253.56689	0.57250
1251.63833	0.57272
1249.70977	0.57293
1247.78120	0.57290
1245.85264	0.57260
1243.92407	0.57203
1241.99551	0.57122
1240.06694	0.56996
1238.13838	0.56805
1236.20981	0.56574
1234.28125	0.56339
1232.35269	0.56112
1230.42412	0.55898
1228.49556	0.55693
1226.56699	0.55485
1224.63843	0.55274
1222.70986	0.55067
1220.78130	0.54876
1218.85273	0.54713
1216.92417	0.54578
1214.99561	0.54470
1213.06704	0.54382
1211.13848	0.54301
1209.20991	0.54220
1207.28135	0.54142
1205.35278	0.54071
1203.42422	0.54002
1201.49565	0.53920
1199.56709	0.53819
1197.63853	0.53710
1195.70996	0.53614
1193.78140	0.53539
1191.85283	0.53482
1189.92427	0.53444
1187.99570	0.53415
1186.06714	0.53385
1184.13857	0.53376
1182.21001	0.53416
1180.28145	0.53511
1178.35288	0.53645
1176.42432	0.53795
1174.49575	0.53925
1172.56719	0.54007
1170.63862	0.54041
1168.71006	0.54052
1166.78149	0.54064
1164.85293	0.54072
1162.92437	0.54056
1160.99580	0.54027
1159.06724	0.53992
1157.13867	0.53934
1155.21011	0.53858
1153.28154	0.53759
1151.35298	0.53601
1149.42441	0.53367
1147.49585	0.53090
1145.56729	0.52802
1143.63872	0.52518
1141.71016	0.52264
1139.78159	0.52070
1137.85303	0.51924
1135.92446	0.51815
1133.99590	0.51758
1132.06733	0.51739
1130.13877	0.51735
1128.21021	0.51733
1126.28164	0.51706
1124.35308	0.51645
1122.42451	0.51599
1120.49595	0.51609
1118.56738	0.51639
1116.63882	0.51662
1114.71025	0.51706
1112.78169	0.51771
1110.85312	0.51839
1108.92456	0.51927
1106.99600	0.52041
1105.06743	0.52160
1103.13887	0.52276
1101.21030	0.52395
1099.28174	0.52530
1097.35317	0.52707
1095.42461	0.52952
1093.49604	0.53282
1091.56748	0.53724
1089.63892	0.54298
1087.71035	0.54998
1085.78179	0.55792
1083.85322	0.56610
1081.92466	0.57336
1079.99609	0.57863
1078.06753	0.58139
1076.13896	0.58122
1074.21040	0.57812
1072.28184	0.57274
1070.35327	0.56589
1068.42471	0.55854
1066.49614	0.55158
1064.56758	0.54534
1062.63901	0.53975
1060.71045	0.53469
1058.78188	0.53025
1056.85332	0.52644
1054.92476	0.52311
1052.99619	0.52015
1051.06763	0.51750
1049.13906	0.51538
1047.21050	0.51406
1045.28193	0.51335
1043.35337	0.51275
1041.42480	0.51211
1039.49624	0.51170
1037.56768	0.51167
1035.63911	0.51168
1033.71055	0.51113
1031.78198	0.51000
1029.85342	0.50871
1027.92485	0.50747
1025.99629	0.50627
1024.06772	0.50527
1022.13916	0.50456
1020.21060	0.50421
1018.28203	0.50420
1016.35347	0.50432
1014.42490	0.50425
1012.49634	0.50393
1010.56777	0.50389
1008.63921	0.50436
1006.71064	0.50520
1004.78208	0.50646
1002.85352	0.50821
1000.92495	0.51054
998.99639	0.51378
997.06782	0.51791
995.13926	0.52248
993.21069	0.52681
991.28213	0.53015
989.35356	0.53223
987.42500	0.53320
985.49644	0.53345
983.56787	0.53350
981.63931	0.53374
979.71074	0.53435
977.78218	0.53566
975.85361	0.53767
973.92505	0.53992
971.99648	0.54253
970.06792	0.54580
968.13936	0.54947
966.21079	0.55353
964.28223	0.55811
962.35366	0.56289
960.42510	0.56769
958.49653	0.57278
956.56797	0.57831
954.63940	0.58422
952.71084	0.59048
950.78228	0.59681
948.85371	0.60293
946.92515	0.60912
944.99658	0.61570
943.06802	0.62227
941.13945	0.62849
939.21089	0.63447
937.28232	0.64032
935.35376	0.64619
933.42520	0.65230
931.49663	0.65826
929.56807	0.66333
927.63950	0.66811
925.71094	0.67386
923.78237	0.68061
921.85381	0.68785
919.92524	0.69506
917.99668	0.70196
916.06812	0.70870
914.13955	0.71565
912.21099	0.72379
910.28242	0.73281
908.35386	0.74110
906.42529	0.74937
904.49673	0.75884
902.56816	0.76779
900.63960	0.77552
898.71104	0.78416
896.78247	0.79417
894.85391	0.80409
892.92534	0.81438
890.99678	0.82544
889.06821	0.83589
887.13965	0.84592
885.21108	0.85730
883.28252	0.86993
881.35396	0.88210
879.42539	0.89382
877.49683	0.90572
875.56826	0.91654
873.63970	0.92666
871.71113	0.93847
869.78257	0.95130
867.85400	0.96291
865.92544	0.97368
863.99687	0.98466
862.06831	0.99601
860.13975	1.00760
858.21118	1.01865
856.28262	1.02946
854.35405	1.04179
852.42549	1.05537
850.49692	1.06797
848.56836	1.07877
846.63979	1.08934
844.71123	1.10022
842.78267	1.11108
840.85410	1.12282
838.92554	1.13354
836.99697	1.14274
835.06841	1.15312
833.13984	1.16608
831.21128	1.18264
829.28271	1.19746
827.35415	1.20518
825.42559	1.21242
823.49702	1.22363
821.56846	1.23500
819.63989	1.24461
817.71133	1.25211
815.78276	1.26092
813.85420	1.27706
811.92563	1.29831
809.99707	1.31479
808.06851	1.31871
806.13994	1.31095
804.21138	1.30187
802.28281	1.30441
800.35425	1.31462
798.42568	1.32510
796.49712	1.34424
794.56855	1.35745
792.63999	1.34734
790.71143	1.33878
788.78286	1.33728
786.85430	1.33344
784.92573	1.32969
782.99717	1.32329
781.06860	1.33984
779.14004	1.36574
777.21147	1.35443
775.28291	1.33200
773.35435	1.34546
771.42578	1.42584
769.49722	1.52632
767.56865	1.50624
765.64009	1.41007
763.71152	1.37035
761.78296	1.38218
759.85439	1.33845
757.92583	1.23410
755.99727	1.17579
754.06870	1.19672
752.14014	1.23475
750.21157	1.22200
748.28301	1.19986
746.35444	1.23843
744.42588	1.30413
742.49731	1.21575
740.56875	1.04490
738.64019	0.98092
736.71162	1.06103
734.78306	1.13098
732.85449	0.93961
730.92593	0.71509
728.99736	0.57254
727.06880	0.47334
725.14023	0.40290
723.21167	0.33090
721.28311	0.15483
719.35454	-0.05103
717.42598	-0.09964
715.49741	0.01363
713.56885	0.11559
711.64028	0.22205
709.71172	0.32523
707.78315	0.25614
705.85459	0.22106
703.92603	0.26865
701.99746	0.28857
700.06890	0.25690
698.14033	0.32855
696.21177	0.54208
694.28320	0.62259
692.35464	0.46395
690.42607	0.42681
688.49751	0.49228
686.56895	0.59177
684.64038	0.65294
682.71182	0.47504
680.78325	0.31811
678.85469	0.30532
676.92612	0.32087
674.99756	0.26574
673.06899	0.26733
671.14043	0.36501
669.21187	0.41152
667.28330	0.39740
665.35474	0.43795
663.42617	0.48000
661.49761	0.45555
659.56904	0.43122
657.64048	0.47332
655.71191	0.47754
653.78335	0.38391
651.85479	0.33353
649.92622	0.36318
647.99766	0.38117
646.06909	0.33080
644.14053	0.30042
642.21196	0.32410
640.28340	0.31990
638.35483	0.26049
636.42627	0.23263
634.49771	0.25811
632.56914	0.27876
630.64058	0.31686
628.71201	0.38837
626.78345	0.37217
624.85488	0.32430
622.92632	0.34639
620.99775	0.39721
619.06919	0.37715
617.14062	0.30006
615.21206	0.24814
613.28350	0.27128
611.35493	0.29960
609.42637	0.26983
607.49780	0.22763
605.56924	0.21162
603.64067	0.19944
601.71211	0.17546
599.78354	0.18060
597.85498	0.25996
595.92642	0.33950
593.99785	0.33950
592.06929	0.32452
590.14072	0.31299
588.21216	0.26033
586.28359	0.20128
584.35503	0.19788
582.42646	0.27905
580.49790	0.36319
578.56934	0.34212
576.64077	0.32235
574.71221	0.31474
572.78364	0.26125
570.85508	0.21895
568.92651	0.23599
566.99795	0.29748
565.06938	0.34817
563.14082	0.33790
561.21226	0.28865
559.28369	0.25079
557.35513	0.23082
555.42656	0.21318
553.49800	0.19966
551.56943	0.21182
549.64087	0.25491
547.71230	0.27241
545.78374	0.23793
543.85518	0.20164
541.92661	0.20589
539.99805	0.23800
538.06948	0.27224
536.14092	0.30434
534.21235	0.33529
532.28379	0.36642
530.35522	0.34219
528.42666	0.28249
526.49810	0.28398
524.56953	0.33899
522.64097	0.36322
520.71240	0.32452
518.78384	0.27830
516.85527	0.23792
514.92671	0.24380
512.99814	0.32156
511.06958	0.37846
509.14102	0.35581
507.21245	0.35783
505.28389	0.34561
503.35532	0.26984
501.42676	0.19741
499.49819	0.18794
