3997.91411	0.06061
3995.98555	0.06124
3994.05698	0.06183
3992.12842	0.06215
3990.19985	0.06206
3988.27129	0.06184
3986.34272	0.06197
3984.41416	0.06255
3982.48560	0.06310
3980.55703	0.06330
3978.62847	0.06324
3976.69990	0.06322
3974.77134	0.06355
3972.84277	0.06401
3970.91421	0.06437
3968.98564	0.06477
3967.05708	0.06513
3965.12852	0.06538
3963.19995	0.06584
3961.27139	0.06646
3959.34282	0.06657
3957.41426	0.06606
3955.48569	0.06568
3953.55713	0.06601
3951.62856	0.06716
3949.70000	0.06854
3947.77144	0.06892
3945.84287	0.06830
3943.91431	0.06818
3941.98574	0.06841
3940.05718	0.06771
3938.12861	0.06672
3936.20005	0.06646
3934.27148	0.06687
3932.34292	0.06782
3930.41436	0.06866
3928.48579	0.06833
3926.55723	0.06780
3924.62866	0.06844
3922.70010	0.06893
3920.77153	0.06837
3918.84297	0.06842
3916.91440	0.06906
3914.98584	0.06840
3913.05728	0.06690
3911.12871	0.06603
3909.20015	0.06583
3907.27158	0.06684
3905.34302	0.06969
3903.41445	0.07294
3901.48589	0.07425
3899.55732	0.07366
3897.62876	0.07165
3895.70020	0.06931
3893.77163	0.06899
3891.84307	0.07062
3889.91450	0.07101
3887.98594	0.06975
3886.05737	0.06982
3884.12881	0.07109
3882.20024	0.07209
3880.27168	0.07263
3878.34312	0.07153
3876.41455	0.07017
3874.48599	0.07121
3872.55742	0.07358
3870.62886	0.07521
3868.70029	0.07527
3866.77173	0.07418
3864.84316	0.07451
3862.91460	0.07588
3860.98604	0.07534
3859.05747	0.07409
3857.12891	0.07478
3855.20034	0.07799
3853.27178	0.08284
3851.34321	0.08315
3849.41465	0.07815
3847.48608	0.07477
3845.55752	0.07445
3843.62896	0.07663
3841.70039	0.08035
3839.77183	0.08450
3837.84326	0.08722
3835.91470	0.08644
3833.98613	0.08416
3832.05757	0.08282
3830.12900	0.08214
3828.20044	0.08211
3826.27187	0.08302
3824.34331	0.08444
3822.41475	0.08719
3820.48618	0.09156
3818.55762	0.09300
3816.62905	0.09165
3814.70049	0.09054
3812.77192	0.08897
3810.84336	0.08779
3808.91479	0.08866
3806.98623	0.09170
3805.05767	0.09501
3803.12910	0.09783
3801.20054	0.10085
3799.27197	0.10151
3797.34341	0.10035
3795.41484	0.09961
3793.48628	0.09846
3791.55771	0.09779
3789.62915	0.09854
3787.70059	0.10030
3785.77202	0.10274
3783.84346	0.10497
3781.91489	0.10642
3779.98633	0.10829
3778.05776	0.11036
3776.12920	0.11117
3774.20063	0.11182
3772.27207	0.11374
3770.34351	0.11722
3768.41494	0.12091
3766.48638	0.12287
3764.55781	0.12387
3762.62925	0.12515
3760.70068	0.12801
3758.77212	0.13245
3756.84355	0.13594
3754.91499	0.13832
3752.98643	0.14254
3751.05786	0.14971
3749.12930	0.15557
3747.20073	0.15690
3745.27217	0.15814
3743.34360	0.16058
3741.41504	0.16204
3739.48647	0.16362
3737.55791	0.16772
3735.62935	0.17533
3733.70078	0.18264
3731.77222	0.18480
3729.84365	0.18533
3727.91509	0.18829
3725.98652	0.19442
3724.05796	0.20199
3722.12939	0.20911
3720.20083	0.21573
3718.27227	0.22212
3716.34370	0.22891
3714.41514	0.23720
3712.48657	0.24892
3710.55801	0.26417
3708.62944	0.27699
3706.70088	0.28567
3704.77231	0.29513
3702.84375	0.30837
3700.91519	0.32559
3698.98662	0.34346
3697.05806	0.36075
3695.12949	0.37982
3693.20093	0.40097
3691.27236	0.42543
3689.34380	0.45631
3687.41523	0.49042
3685.48667	0.51850
3683.55811	0.54310
3681.62954	0.57107
3679.70098	0.60428
3677.77241	0.64045
3675.84385	0.68310
3673.91528	0.73654
3671.98672	0.77929
3670.05815	0.81858
3668.12959	0.87022
3666.20103	0.91613
3664.27246	0.95570
3662.34390	0.99928
3660.41533	1.04672
3658.48677	1.09398
3656.55820	1.14453
3654.62964	1.20035
3652.70107	1.24842
3650.77251	1.29288
3648.84395	1.35246
3646.91538	1.41856
3644.98682	1.46499
3643.05825	1.50207
3641.12969	1.54164
3639.20112	1.58612
3637.27256	1.63126
3635.34399	1.67485
3633.41543	1.71809
3631.48687	1.75951
3629.55830	1.80353
3627.62974	1.85943
3625.70117	1.90805
3623.77261	1.94075
3621.84404	1.97448
3619.91548	2.01421
3617.98691	2.06003
3616.05835	2.10367
3614.12979	2.14194
3612.20122	2.18167
3610.27266	2.22065
3608.34409	2.26038
3606.41553	2.30203
3604.48696	2.34027
3602.55840	2.37624
3600.62983	2.41585
3598.70127	2.45737
3596.77271	2.49714
3594.84414	2.53809
3592.91558	2.58021
3590.98701	2.61867
3589.05845	2.65535
3587.12988	2.70062
3585.20132	2.74868
3583.27275	2.78798
3581.34419	2.82547
3579.41562	2.86711
3577.48706	2.91131
3575.55850	2.95549
3573.62993	2.99947
3571.70137	3.04130
3569.77280	3.08325
3567.84424	3.13092
3565.91567	3.18545
3563.98711	3.23267
3562.05854	3.27066
3560.12998	3.31040
3558.20142	3.35352
3556.27285	3.39921
3554.34429	3.44631
3552.41572	3.49360
3550.48716	3.53886
3548.55859	3.58216
3546.63003	3.62712
3544.70146	3.67702
3542.77290	3.72830
3540.84434	3.77633
3538.91577	3.82222
3536.98721	3.86845
3535.05864	3.91786
3533.13008	3.96738
3531.20151	4.01491
3529.27295	4.06130
3527.34438	4.10756
3525.41582	4.15479
3523.48726	4.20357
3521.55869	4.25341
3519.63013	4.29929
3517.70156	4.34257
3515.77300	4.39208
3513.84443	4.44697
3511.91587	4.49752
3509.98730	4.54639
3508.05874	4.59905
3506.13018	4.65010
3504.20161	4.69615
3502.27305	4.73869
3500.34448	4.78166
3498.41592	4.82746
3496.48735	4.87582
3494.55879	4.92931
3492.63022	4.98425
3490.70166	5.03056
3488.77310	5.07371
3486.84453	5.12179
3484.91597	5.17174
3482.98740	5.22338
3481.05884	5.27650
3479.13027	5.32476
3477.20171	5.36677
3475.27314	5.41380
3473.34458	5.47386
3471.41602	5.53405
3469.48745	5.57967
3467.55889	5.61502
3465.63032	5.65432
3463.70176	5.70621
3461.77319	5.76247
3459.84463	5.81413
3457.91606	5.86181
3455.98750	5.91567
3454.05894	5.97918
3452.13037	6.03613
3450.20181	6.08126
3448.27324	6.12508
3446.34468	6.17521
3444.41611	6.22988
3442.48755	6.28465
3440.55898	6.32989
3438.63042	6.37345
3436.70186	6.42599
3434.77329	6.47481
3432.84473	6.52470
3430.91616	6.57327
3428.98760	6.61105
3427.05903	6.65273
3425.13047	6.70342
3423.20190	6.75964
3421.27334	6.82224
3419.34478	6.87599
3417.41621	6.92712
3415.48765	6.98490
3413.55908	7.03278
3411.63052	7.07978
3409.70195	7.12048
3407.77339	7.13712
3405.84482	7.15064
3403.91626	7.19657
3401.98770	7.27546
3400.05913	7.36923
3398.13057	7.45278
3396.20200	7.50109
3394.27344	7.51407
3392.34487	7.50121
3390.41631	7.49446
3388.48774	7.52303
3386.55918	7.59909
3384.63062	7.67782
3382.70205	7.71466
3380.77349	7.71173
3378.84492	7.70280
3376.91636	7.73908
3374.98779	7.78380
3373.05923	7.80035
3371.13066	7.81276
3369.20210	7.84194
3367.27354	7.87297
3365.34497	7.90269
3363.41641	7.94266
3361.48784	7.98682
3359.55928	8.02187
3357.63071	8.02912
3355.70215	8.04798
3353.77358	8.08933
3351.84502	8.08858
3349.91646	8.02443
3347.98789	7.98779
3346.05933	8.02155
3344.13076	8.07038
3342.20220	8.09613
3340.27363	8.13833
3338.34507	8.22922
3336.41650	8.27448
3334.48794	8.24364
3332.55937	8.19528
3330.63081	8.17552
3328.70225	8.20078
3326.77368	8.24502
3324.84512	8.27595
3322.91655	8.27481
3320.98799	8.24979
3319.05942	8.20271
3317.13086	8.19527
3315.20229	8.28020
3313.27373	8.39103
3311.34517	8.38071
3309.41660	8.28196
3307.48804	8.24917
3305.55947	8.30815
3303.63091	8.40614
3301.70234	8.49289
3299.77378	8.50414
3297.84521	8.37239
3295.91665	8.22085
3293.98809	8.14785
3292.05952	8.12380
3290.13096	8.09760
3288.20239	8.10314
3286.27383	8.22301
3284.34526	8.35624
3282.41670	8.37997
3280.48813	8.33821
3278.55957	8.31709
3276.63101	8.29746
3274.70244	8.23481
3272.77388	8.20743
3270.84531	8.23695
3268.91675	8.23277
3266.98818	8.19963
3265.05962	8.26301
3263.13105	8.40923
3261.20249	8.48000
3259.27393	8.39557
3257.34536	8.26751
3255.41680	8.21878
3253.48823	8.25375
3251.55967	8.31893
3249.63110	8.33129
3247.70254	8.31128
3245.77397	8.35853
3243.84541	8.43675
3241.91685	8.39461
3239.98828	8.26353
3238.05972	8.21419
3236.13115	8.26374
3234.20259	8.30245
3232.27402	8.27923
3230.34546	8.22458
3228.41689	8.19126
3226.48833	8.17231
3224.55977	8.08764
3222.63120	8.00247
3220.70264	8.05543
3218.77407	8.20008
3216.84551	8.23933
3214.91694	8.17622
3212.98838	8.13906
3211.05981	8.10405
3209.13125	8.05577
3207.20269	8.02763
3205.27412	8.00715
3203.34556	7.99328
3201.41699	7.99770
3199.48843	7.96952
3197.55986	7.87797
3195.63130	7.79135
3193.70273	7.74427
3191.77417	7.69211
3189.84561	7.62344
3187.91704	7.57154
3185.98848	7.53794
3184.05991	7.52093
3182.13135	7.50806
3180.20278	7.47824
3178.27422	7.44211
3176.34565	7.37103
3174.41709	7.26493
3172.48853	7.20172
3170.55996	7.17324
3168.63140	7.11492
3166.70283	7.04062
3164.77427	6.99136
3162.84570	6.95310
3160.91714	6.89202
3158.98857	6.81425
3157.06001	6.73388
3155.13145	6.66057
3153.20288	6.58694
3151.27432	6.50101
3149.34575	6.43243
3147.41719	6.38416
3145.48862	6.32428
3143.56006	6.25746
3141.63149	6.19218
3139.70293	6.11660
3137.77437	6.03685
3135.84580	5.96333
3133.91724	5.89090
3131.98867	5.81630
3130.06011	5.74703
3128.13154	5.68416
3126.20298	5.61201
3124.27441	5.52674
3122.34585	5.44070
3120.41729	5.35766
3118.48872	5.27822
3116.56016	5.20687
3114.63159	5.14229
3112.70303	5.07999
3110.77446	5.01744
3108.84590	4.95037
3106.91733	4.87563
3104.98877	4.79934
3103.06021	4.73197
3101.13164	4.67093
3099.20308	4.60606
3097.27451	4.53648
3095.34595	4.46649
3093.41738	4.39719
3091.48882	4.32947
3089.56025	4.26448
3087.63169	4.19991
3085.70312	4.13506
3083.77456	4.07281
3081.84600	4.01333
3079.91743	3.95196
3077.98887	3.88736
3076.06030	3.82548
3074.13174	3.76823
3072.20317	3.71045
3070.27461	3.64981
3068.34604	3.59013
3066.41748	3.53422
3064.48892	3.47832
3062.56035	3.41889
3060.63179	3.35985
3058.70322	3.30473
3056.77466	3.25136
3054.84609	3.19773
3052.91753	3.14444
3050.98896	3.09230
3049.06040	3.04188
3047.13184	2.99231
3045.20327	2.94189
3043.27471	2.89156
3041.34614	2.84259
3039.41758	2.79433
3037.48901	2.74669
3035.56045	2.70011
3033.63188	2.65420
3031.70332	2.60841
3029.77476	2.56291
3027.84619	2.51806
3025.91763	2.47377
3023.98906	2.43017
3022.06050	2.38768
3020.13193	2.34633
3018.20337	2.30583
3016.27480	2.26613
3014.34624	2.22721
3012.41768	2.18854
3010.48911	2.14954
3008.56055	2.11070
3006.63198	2.07281
3004.70342	2.03592
3002.77485	2.00001
3000.84629	1.96505
2998.91772	1.93101
2996.98916	1.89791
2995.06060	1.86510
2993.13203	1.83240
2991.20347	1.80058
2989.27490	1.76951
2987.34634	1.73862
2985.41777	1.70827
2983.48921	1.67880
2981.56064	1.64973
2979.63208	1.62064
2977.70352	1.59194
2975.77495	1.56438
2973.84639	1.53760
2971.91782	1.51086
2969.98926	1.48437
2968.06069	1.45818
2966.13213	1.43226
2964.20356	1.40695
2962.27500	1.38226
2960.34644	1.35756
2958.41787	1.33274
2956.48931	1.30816
2954.56074	1.28377
2952.63218	1.26011
2950.70361	1.23720
2948.77505	1.21416
2946.84648	1.19144
2944.91792	1.16953
2942.98936	1.14799
2941.06079	1.12704
2939.13223	1.10659
2937.20366	1.08578
2935.27510	1.06497
2933.34653	1.04494
2931.41797	1.02516
2929.48940	1.00526
2927.56084	0.98579
2925.63228	0.96700
2923.70371	0.94890
2921.77515	0.93131
2919.84658	0.91367
2917.91802	0.89606
2915.98945	0.87947
2914.06089	0.86440
2912.13232	0.84999
2910.20376	0.83534
2908.27520	0.82080
2906.34663	0.80690
2904.41807	0.79349
2902.48950	0.78035
2900.56094	0.76728
2898.63237	0.75414
2896.70381	0.74111
2894.77524	0.72840
2892.84668	0.71609
2890.91812	0.70423
2888.98955	0.69281
2887.06099	0.68179
2885.13242	0.67105
2883.20386	0.66053
2881.27529	0.65038
2879.34673	0.64040
2877.41816	0.63016
2875.48960	0.61972
2873.56104	0.60935
2871.63247	0.59893
2869.70391	0.58820
2867.77534	0.57718
2865.84678	0.56608
2863.91821	0.55488
2861.98965	0.54381
2860.06108	0.53336
2858.13252	0.52350
2856.20396	0.51398
2854.27539	0.50479
2852.34683	0.49583
2850.41826	0.48698
2848.48970	0.47832
2846.56113	0.47042
2844.63257	0.46374
2842.70400	0.45787
2840.77544	0.45236
2838.84687	0.44687
2836.91831	0.44120
2834.98975	0.43548
2833.06118	0.42973
2831.13262	0.42388
2829.20405	0.41803
2827.27549	0.41216
2825.34692	0.40616
2823.41836	0.40024
2821.48979	0.39456
2819.56123	0.38893
2817.63267	0.38323
2815.70410	0.37745
2813.77554	0.37173
2811.84697	0.36632
2809.91841	0.36113
2807.98984	0.35588
2806.06128	0.35063
2804.13271	0.34556
2802.20415	0.34060
2800.27559	0.33560
2798.34702	0.33060
2796.41846	0.32574
2794.48989	0.32113
2792.56133	0.31677
2790.63276	0.31244
2788.70420	0.30804
2786.77563	0.30363
2784.84707	0.29935
2782.91851	0.29531
2780.98994	0.29141
2779.06138	0.28748
2777.13281	0.28353
2775.20425	0.27972
2773.27568	0.27610
2771.34712	0.27250
2769.41855	0.26894
2767.48999	0.26554
2765.56143	0.26215
2763.63286	0.25870
2761.70430	0.25536
2759.77573	0.25217
2757.84717	0.24898
2755.91860	0.24580
2753.99004	0.24280
2752.06147	0.23997
2750.13291	0.23709
2748.20435	0.23421
2746.27578	0.23149
2744.34722	0.22892
2742.41865	0.22641
2740.49009	0.22390
2738.56152	0.22127
2736.63296	0.21861
2734.70439	0.21606
2732.77583	0.21364
2730.84727	0.21140
2728.91870	0.20931
2726.99014	0.20718
2725.06157	0.20498
2723.13301	0.20289
2721.20444	0.20087
2719.27588	0.19883
2717.34731	0.19677
2715.41875	0.19474
2713.49019	0.19287
2711.56162	0.19120
2709.63306	0.18958
2707.70449	0.18795
2705.77593	0.18637
2703.84736	0.18475
2701.91880	0.18310
2699.99023	0.18159
2698.06167	0.18027
2696.13311	0.17895
2694.20454	0.17748
2692.27598	0.17605
2690.34741	0.17472
2688.41885	0.17342
2686.49028	0.17214
2684.56172	0.17088
2682.63315	0.16965
2680.70459	0.16853
2678.77603	0.16758
2676.84746	0.16665
2674.91890	0.16556
2672.99033	0.16436
2671.06177	0.16332
2669.13320	0.16245
2667.20464	0.16151
2665.27607	0.16048
2663.34751	0.15951
2661.41895	0.15862
2659.49038	0.15782
2657.56182	0.15709
2655.63325	0.15629
2653.70469	0.15547
2651.77612	0.15480
2649.84756	0.15434
2647.91899	0.15393
2645.99043	0.15345
2644.06187	0.15298
2642.13330	0.15249
2640.20474	0.15191
2638.27617	0.15136
2636.34761	0.15096
2634.41904	0.15064
2632.49048	0.15024
2630.56191	0.14977
2628.63335	0.14944
2626.70479	0.14924
2624.77622	0.14895
2622.84766	0.14861
2620.91909	0.14828
2618.99053	0.14801
2617.06196	0.14788
2615.13340	0.14779
2613.20483	0.14763
2611.27627	0.14756
2609.34771	0.14763
2607.41914	0.14770
2605.49058	0.14767
2603.56201	0.14759
2601.63345	0.14753
2599.70488	0.14757
2597.77632	0.14767
2595.84775	0.14769
2593.91919	0.14766
2591.99062	0.14779
2590.06206	0.14804
2588.13350	0.14824
2586.20493	0.14843
2584.27637	0.14873
2582.34780	0.14904
2580.41924	0.14928
2578.49067	0.14956
2576.56211	0.14994
2574.63354	0.15035
2572.70498	0.15069
2570.77642	0.15100
2568.84785	0.15131
2566.91929	0.15169
2564.99072	0.15216
2563.06216	0.15271
2561.13359	0.15327
2559.20503	0.15375
2557.27646	0.15418
2555.34790	0.15467
2553.41934	0.15526
2551.49077	0.15583
2549.56221	0.15638
2547.63364	0.15700
2545.70508	0.15770
2543.77651	0.15841
2541.84795	0.15907
2539.91938	0.15964
2537.99082	0.16020
2536.06226	0.16084
2534.13369	0.16156
2532.20513	0.16235
2530.27656	0.16317
2528.34800	0.16393
2526.41943	0.16460
2524.49087	0.16522
2522.56230	0.16583
2520.63374	0.16651
2518.70518	0.16729
2516.77661	0.16814
2514.84805	0.16895
2512.91948	0.16975
2510.99092	0.17064
2509.06235	0.17160
2507.13379	0.17254
2505.20522	0.17343
2503.27666	0.17422
2501.34810	0.17502
2499.41953	0.17589
2497.49097	0.17674
2495.56240	0.17755
2493.63384	0.17841
2491.70527	0.17939
2489.77671	0.18041
2487.84814	0.18130
2485.91958	0.18214
2483.99102	0.18301
2482.06245	0.18384
2480.13389	0.18476
2478.20532	0.18579
2476.27676	0.18673
2474.34819	0.18758
2472.41963	0.18838
2470.49106	0.18918
2468.56250	0.19016
2466.63394	0.19126
2464.70537	0.19234
2462.77681	0.19329
2460.84824	0.19411
2458.91968	0.19496
2456.99111	0.19595
2455.06255	0.19695
2453.13398	0.19789
2451.20542	0.19883
2449.27686	0.19983
2447.34829	0.20095
2445.41973	0.20200
2443.49116	0.20295
2441.56260	0.20398
2439.63403	0.20512
2437.70547	0.20618
2435.77690	0.20715
2433.84834	0.20828
2431.91978	0.20958
2429.99121	0.21079
2428.06265	0.21187
2426.13408	0.21293
2424.20552	0.21401
2422.27695	0.21511
2420.34839	0.21624
2418.41982	0.21742
2416.49126	0.21860
2414.56270	0.21972
2412.63413	0.22081
2410.70557	0.22190
2408.77700	0.22304
2406.84844	0.22427
2404.91987	0.22557
2402.99131	0.22685
2401.06274	0.22806
2399.13418	0.22916
2397.20562	0.23032
2395.27705	0.23165
2393.34849	0.23300
2391.41992	0.23430
2389.49136	0.23563
2387.56279	0.23695
2385.63423	0.23825
2383.70566	0.23982
2381.77710	0.24168
2379.84854	0.24359
2377.91997	0.24549
2375.99141	0.24729
2374.06284	0.24905
2372.13428	0.25112
2370.20571	0.25337
2368.27715	0.25538
2366.34858	0.25733
2364.42002	0.25901
2362.49146	0.26102
2360.56289	0.26423
2358.63433	0.26616
2356.70576	0.26644
2354.77720	0.26776
2352.84863	0.26964
2350.92007	0.27051
2348.99150	0.27083
2347.06294	0.27155
2345.13437	0.27326
2343.20581	0.27587
2341.27725	0.27838
2339.34868	0.28032
2337.42012	0.28183
2335.49155	0.28298
2333.56299	0.28420
2331.63442	0.28604
2329.70586	0.28815
2327.77729	0.29006
2325.84873	0.29147
2323.92017	0.29248
2321.99160	0.29354
2320.06304	0.29479
2318.13447	0.29635
2316.20591	0.29817
2314.27734	0.29986
2312.34878	0.30123
2310.42021	0.30262
2308.49165	0.30417
2306.56309	0.30566
2304.63452	0.30715
2302.70596	0.30872
2300.77739	0.31039
2298.84883	0.31214
2296.92026	0.31391
2294.99170	0.31570
2293.06313	0.31755
2291.13457	0.31942
2289.20601	0.32133
2287.27744	0.32327
2285.34888	0.32517
2283.42031	0.32706
2281.49175	0.32906
2279.56318	0.33114
2277.63462	0.33318
2275.70605	0.33523
2273.77749	0.33741
2271.84893	0.33967
2269.92036	0.34187
2267.99180	0.34398
2266.06323	0.34606
2264.13467	0.34811
2262.20610	0.35014
2260.27754	0.35226
2258.34897	0.35453
2256.42041	0.35681
2254.49185	0.35896
2252.56328	0.36111
2250.63472	0.36340
2248.70615	0.36570
2246.77759	0.36781
2244.84902	0.36987
2242.92046	0.37205
2240.99189	0.37435
2239.06333	0.37672
2237.13477	0.37910
2235.20620	0.38137
2233.27764	0.38358
2231.34907	0.38585
2229.42051	0.38814
2227.49194	0.39041
2225.56338	0.39271
2223.63481	0.39503
2221.70625	0.39731
2219.77769	0.39950
2217.84912	0.40166
2215.92056	0.40387
2213.99199	0.40610
2212.06343	0.40838
2210.13486	0.41064
2208.20630	0.41290
2206.27773	0.41517
2204.34917	0.41732
2202.42061	0.41928
2200.49204	0.42116
2198.56348	0.42298
2196.63491	0.42482
2194.70635	0.42687
2192.77778	0.42909
2190.84922	0.43120
2188.92065	0.43303
2186.99209	0.43481
2185.06353	0.43667
2183.13496	0.43851
2181.20640	0.44024
2179.27783	0.44184
2177.34927	0.44337
2175.42070	0.44496
2173.49214	0.44654
2171.56357	0.44789
2169.63501	0.44918
2167.70645	0.45061
2165.77788	0.45206
2163.84932	0.45334
2161.92075	0.45450
2159.99219	0.45567
2158.06362	0.45681
2156.13506	0.45783
2154.20649	0.45877
2152.27793	0.45962
2150.34937	0.46033
2148.42080	0.46100
2146.49224	0.46166
2144.56367	0.46216
2142.63511	0.46258
2140.70654	0.46300
2138.77798	0.46326
2136.84941	0.46336
2134.92085	0.46346
2132.99229	0.46356
2131.06372	0.46354
2129.13516	0.46331
2127.20659	0.46292
2125.27803	0.46253
2123.34946	0.46218
2121.42090	0.46181
2119.49233	0.46138
2117.56377	0.46089
2115.63521	0.46026
2113.70664	0.45943
2111.77808	0.45846
2109.84951	0.45749
2107.92095	0.45648
2105.99238	0.45541
2104.06382	0.45437
2102.13525	0.45321
2100.20669	0.45184
2098.27812	0.45029
2096.34956	0.44861
2094.42100	0.44696
2092.49243	0.44548
2090.56387	0.44405
2088.63530	0.44242
2086.70674	0.44054
2084.77817	0.43849
2082.84961	0.43650
2080.92104	0.43451
2078.99248	0.43245
2077.06392	0.43039
2075.13535	0.42834
2073.20679	0.42628
2071.27822	0.42416
2069.34966	0.42192
2067.42109	0.41956
2065.49253	0.41709
2063.56396	0.41453
2061.63540	0.41205
2059.70684	0.40965
2057.77827	0.40719
2055.84971	0.40463
2053.92114	0.40199
2051.99258	0.39929
2050.06401	0.39662
2048.13545	0.39405
2046.20688	0.39149
2044.27832	0.38898
2042.34976	0.38643
2040.42119	0.38365
2038.49263	0.38073
2036.56406	0.37791
2034.63550	0.37515
2032.70693	0.37233
2030.77837	0.36952
2028.84980	0.36672
2026.92124	0.36388
2024.99268	0.36097
2023.06411	0.35804
2021.13555	0.35528
2019.20698	0.35274
2017.27842	0.35018
2015.34985	0.34733
2013.42129	0.34435
2011.49272	0.34141
2009.56416	0.33858
2007.63560	0.33587
2005.70703	0.33320
2003.77847	0.33046
2001.84990	0.32774
1999.92134	0.32515
1997.99277	0.32254
1996.06421	0.31991
1994.13564	0.31757
1992.20708	0.31539
1990.27852	0.31288
1988.34995	0.31014
1986.42139	0.30746
1984.49282	0.30486
1982.56426	0.30244
1980.63569	0.30011
1978.70713	0.29780
1976.77856	0.29551
1974.85000	0.29319
1972.92144	0.29086
1970.99287	0.28872
1969.06431	0.28688
1967.13574	0.28515
1965.20718	0.28306
1963.27861	0.28075
1961.35005	0.27861
1959.42148	0.27659
1957.49292	0.27463
1955.56436	0.27277
1953.63579	0.27102
1951.70723	0.26930
1949.77866	0.26757
1947.85010	0.26594
1945.92153	0.26460
1943.99297	0.26351
1942.06440	0.26223
1940.13584	0.26045
1938.20728	0.25863
1936.27871	0.25709
1934.35015	0.25568
1932.42158	0.25441
1930.49302	0.25323
1928.56445	0.25210
1926.63589	0.25106
1924.70732	0.25038
1922.77876	0.24990
1920.85020	0.24909
1918.92163	0.24811
1916.99307	0.24702
1915.06450	0.24565
1913.13594	0.24450
1911.20737	0.24393
1909.27881	0.24351
1907.35024	0.24274
1905.42168	0.24176
1903.49312	0.24098
1901.56455	0.24037
1899.63599	0.23986
1897.70742	0.23958
1895.77886	0.23945
1893.85029	0.23913
1891.92173	0.23879
1889.99316	0.23887
1888.06460	0.23870
1886.13604	0.23800
1884.20747	0.23743
1882.27891	0.23712
1880.35034	0.23697
1878.42178	0.23690
1876.49321	0.23691
1874.56465	0.23694
1872.63608	0.23724
1870.70752	0.23823
1868.77896	0.23972
1866.85039	0.24005
1864.92183	0.23917
1862.99326	0.23859
1861.06470	0.23859
1859.13613	0.23880
1857.20757	0.23898
1855.27900	0.23930
1853.35044	0.23979
1851.42187	0.24046
1849.49331	0.24134
1847.56475	0.24256
1845.63618	0.24413
1843.70762	0.24549
1841.77905	0.24570
1839.85049	0.24548
1837.92192	0.24601
1835.99336	0.24694
1834.06479	0.24790
1832.13623	0.24933
1830.20767	0.25157
1828.27910	0.25333
1826.35054	0.25408
1824.42197	0.25504
1822.49341	0.25594
1820.56484	0.25681
1818.63628	0.25803
1816.70771	0.25961
1814.77915	0.26133
1812.85059	0.26339
1810.92202	0.26578
1808.99346	0.26788
1807.06489	0.26962
1805.13633	0.27144
1803.20776	0.27390
1801.27920	0.27696
1799.35063	0.28002
1797.42207	0.28245
1795.49351	0.28495
1793.56494	0.28835
1791.63638	0.29231
1789.70781	0.29509
1787.77925	0.29701
1785.85068	0.30004
1783.92212	0.30393
1781.99355	0.30809
1780.06499	0.31240
1778.13643	0.31669
1776.20786	0.32106
1774.27930	0.32640
1772.35073	0.33333
1770.42217	0.33949
1768.49360	0.34389
1766.56504	0.34829
1764.63647	0.35335
1762.70791	0.35957
1760.77935	0.36731
1758.85078	0.37435
1756.92222	0.38146
1754.99365	0.38927
1753.06509	0.39672
1751.13652	0.40615
1749.20796	0.41762
1747.27939	0.42780
1745.35083	0.43620
1743.42227	0.44527
1741.49370	0.45566
1739.56514	0.46794
1737.63657	0.48024
1735.70801	0.49171
1733.77944	0.50912
1731.85088	0.52869
1729.92231	0.54339
1727.99375	0.55832
1726.06519	0.57501
1724.13662	0.59386
1722.20806	0.61446
1720.27949	0.63430
1718.35093	0.65808
1716.42236	0.69088
1714.49380	0.72032
1712.56523	0.74413
1710.63667	0.76792
1708.70811	0.79433
1706.77954	0.82480
1704.85098	0.86047
1702.92241	0.89214
1700.99385	0.92419
1699.06528	0.97103
1697.13672	1.01313
1695.20815	1.05498
1693.27959	1.09615
1691.35103	1.13051
1689.42246	1.17065
1687.49390	1.21319
1685.56533	1.25505
1683.63677	1.31691
1681.70820	1.37881
1679.77964	1.41881
1677.85107	1.45768
1675.92251	1.50315
1673.99395	1.55920
1672.06538	1.60985
1670.13682	1.65941
1668.20825	1.72109
1666.27969	1.77138
1664.35112	1.81510
1662.42256	1.86905
1660.49399	1.92900
1658.56543	1.97682
1656.63687	2.01700
1654.70830	2.05595
1652.77974	2.11353
1650.85117	2.16409
1648.92261	2.18313
1646.99404	2.20938
1645.06548	2.23905
1643.13691	2.25877
1641.20835	2.26999
1639.27979	2.27987
1637.35122	2.28748
1635.42266	2.28973
1633.49409	2.28271
1631.56553	2.26943
1629.63696	2.25373
1627.70840	2.22686
1625.77983	2.19431
1623.85127	2.15437
1621.92271	2.10701
1619.99414	2.06393
1618.06558	2.02069
1616.13701	1.95898
1614.20845	1.89508
1612.27988	1.84627
1610.35132	1.79616
1608.42275	1.74167
1606.49419	1.68739
1604.56562	1.63694
1602.63706	1.58840
1600.70850	1.54115
1598.77993	1.49737
1596.85137	1.45626
1594.92280	1.41683
1592.99424	1.37886
1591.06567	1.34358
1589.13711	1.31012
1587.20854	1.27889
1585.27998	1.25009
1583.35142	1.22331
1581.42285	1.19881
1579.49429	1.17784
1577.56572	1.15926
1575.63716	1.13667
1573.70859	1.11568
1571.78003	1.10161
1569.85146	1.08766
1567.92290	1.07198
1565.99434	1.05944
1564.06577	1.04949
1562.13721	1.04187
1560.20864	1.03750
1558.28008	1.03238
1556.35151	1.02517
1554.42295	1.01929
1552.49438	1.01401
1550.56582	1.00853
1548.63726	1.00164
1546.70869	0.99401
1544.78013	0.98603
1542.85156	0.97695
1540.92300	0.96352
1538.99443	0.94027
1537.06587	0.92136
1535.13730	0.90939
1533.20874	0.89538
1531.28018	0.87998
1529.35161	0.86839
1527.42305	0.85811
1525.49448	0.84778
1523.56592	0.83920
1521.63735	0.83112
1519.70879	0.82152
1517.78022	0.81252
1515.85166	0.80273
1513.92310	0.79250
1511.99453	0.78407
1510.06597	0.77763
1508.13740	0.77252
1506.20884	0.76273
1504.28027	0.75092
1502.35171	0.74379
1500.42314	0.73867
1498.49458	0.73394
1496.56602	0.72827
1494.63745	0.72199
1492.70889	0.71735
1490.78032	0.71436
1488.85176	0.71063
1486.92319	0.70536
1484.99463	0.70055
1483.06606	0.69714
1481.13750	0.69478
1479.20894	0.69298
1477.28037	0.69189
1475.35181	0.69164
1473.42324	0.69156
1471.49468	0.68941
1469.56611	0.68559
1467.63755	0.68269
1465.70898	0.68090
1463.78042	0.67911
1461.85186	0.67752
1459.92329	0.67725
1457.99473	0.67793
1456.06616	0.67678
1454.13760	0.67311
1452.20903	0.66963
1450.28047	0.66679
1448.35190	0.66434
1446.42334	0.66166
1444.49478	0.65896
1442.56621	0.65661
1440.63765	0.65455
1438.70908	0.65298
1436.78052	0.65145
1434.85195	0.64898
1432.92339	0.64642
1430.99482	0.64469
1429.06626	0.64333
1427.13770	0.64210
1425.20913	0.64160
1423.28057	0.64174
1421.35200	0.64194
1419.42344	0.64232
1417.49487	0.64189
1415.56631	0.63995
1413.63774	0.63800
1411.70918	0.63672
1409.78062	0.63610
1407.85205	0.63602
1405.92349	0.63642
1403.99492	0.63655
1402.06636	0.63586
1400.13779	0.63500
1398.20923	0.63395
1396.28066	0.63209
1394.35210	0.62920
1392.42354	0.62566
1390.49497	0.62247
1388.56641	0.61979
1386.63784	0.61674
1384.70928	0.61310
1382.78071	0.60971
1380.85215	0.60676
1378.92358	0.60425
1376.99502	0.60246
1375.06646	0.60142
1373.13789	0.60029
1371.20933	0.59895
1369.28076	0.59797
1367.35220	0.59702
1365.42363	0.59598
1363.49507	0.59523
1361.56650	0.59415
1359.63794	0.59242
1357.70937	0.59086
1355.78081	0.58965
1353.85225	0.58856
1351.92368	0.58767
1349.99512	0.58689
1348.06655	0.58601
1346.13799	0.58499
1344.20942	0.58408
1342.28086	0.58361
1340.35229	0.58349
1338.42373	0.58286
1336.49517	0.58150
1334.56660	0.58026
1332.63804	0.57953
1330.70947	0.57910
1328.78091	0.57885
1326.85234	0.57878
1324.92378	0.57892
1322.99521	0.57922
1321.06665	0.57954
1319.13809	0.57968
1317.20952	0.57944
1315.28096	0.57894
1313.35239	0.57839
1311.42383	0.57769
1309.49526	0.57684
1307.56670	0.57594
1305.63813	0.57497
1303.70957	0.57395
1301.78101	0.57296
1299.85244	0.57187
1297.92388	0.57079
1295.99531	0.56980
1294.06675	0.56870
1292.13818	0.56750
1290.20962	0.56652
1288.28105	0.56573
1286.35249	0.56488
1284.42393	0.56384
1282.49536	0.56270
1280.56680	0.56168
1278.63823	0.56088
1276.70967	0.56002
1274.78110	0.55901
1272.85254	0.55811
1270.92397	0.55743
1268.99541	0.55685
1267.06685	0.55632
1265.13828	0.55581
1263.20972	0.55532
1261.28115	0.55478
1259.35259	0.55430
1257.42402	0.55394
1255.49546	0.55357
1253.56689	0.55323
1251.63833	0.55304
1249.70977	0.55297
1247.78120	0.55281
1245.85264	0.55249
1243.92407	0.55213
1241.99551	0.55169
1240.06694	0.55086
1238.13838	0.54954
1236.20981	0.54801
1234.28125	0.54655
1232.35269	0.54520
1230.42412	0.54379
1228.49556	0.54239
1226.56699	0.54109
1224.63843	0.53974
1222.70986	0.53836
1220.78130	0.53716
1218.85273	0.53607
1216.92417	0.53494
1214.99561	0.53393
1213.06704	0.53315
1211.13848	0.53245
1209.20991	0.53173
1207.28135	0.53107
1205.35278	0.53040
1203.42422	0.52971
1201.49565	0.52893
1199.56709	0.52805
1197.63853	0.52728
1195.70996	0.52675
1193.78140	0.52630
1191.85283	0.52578
1189.92427	0.52525
1187.99570	0.52484
1186.06714	0.52458
1184.13857	0.52445
1182.21001	0.52450
1180.28145	0.52495
1178.35288	0.52585
1176.42432	0.52688
1174.49575	0.52781
1172.56719	0.52867
1170.63862	0.52939
1168.71006	0.52980
1166.78149	0.52994
1164.85293	0.52998
1162.92437	0.53010
1160.99580	0.53022
1159.06724	0.53001
1157.13867	0.52946
1155.21011	0.52874
1153.28154	0.52770
1151.35298	0.52602
1149.42441	0.52374
1147.49585	0.52130
1145.56729	0.51882
1143.63872	0.51623
1141.71016	0.51371
1139.78159	0.51137
1137.85303	0.50936
1135.92446	0.50792
1133.99590	0.50697
1132.06733	0.50628
1130.13877	0.50564
1128.21021	0.50489
1126.28164	0.50409
1124.35308	0.50335
1122.42451	0.50282
1120.49595	0.50258
1118.56738	0.50238
1116.63882	0.50216
1114.71025	0.50220
1112.78169	0.50255
1110.85312	0.50308
1108.92456	0.50380
1106.99600	0.50471
1105.06743	0.50573
1103.13887	0.50676
1101.21030	0.50793
1099.28174	0.50953
1097.35317	0.51160
1095.42461	0.51416
1093.49604	0.51763
1091.56748	0.52238
1089.63892	0.52813
1087.71035	0.53457
1085.78179	0.54172
1083.85322	0.54930
1081.92466	0.55639
1079.99609	0.56177
1078.06753	0.56474
1076.13896	0.56503
1074.21040	0.56250
1072.28184	0.55759
1070.35327	0.55134
1068.42471	0.54451
1066.49614	0.53767
1064.56758	0.53132
1062.63901	0.52558
1060.71045	0.52059
1058.78188	0.51652
1056.85332	0.51303
1054.92476	0.50967
1052.99619	0.50664
1051.06763	0.50425
1049.13906	0.50250
1047.21050	0.50114
1045.28193	0.50008
1043.35337	0.49946
1041.42480	0.49924
1039.49624	0.49911
1037.56768	0.49887
1035.63911	0.49864
1033.71055	0.49834
1031.78198	0.49786
1029.85342	0.49728
1027.92485	0.49652
1025.99629	0.49555
1024.06772	0.49474
1022.13916	0.49441
1020.21060	0.49457
1018.28203	0.49501
1016.35347	0.49547
1014.42490	0.49581
1012.49634	0.49624
1010.56777	0.49698
1008.63921	0.49786
1006.71064	0.49870
1004.78208	0.49988
1002.85352	0.50184
1000.92495	0.50460
998.99639	0.50802
997.06782	0.51184
995.13926	0.51588
993.21069	0.52000
991.28213	0.52359
989.35356	0.52598
987.42500	0.52706
985.49644	0.52731
983.56787	0.52751
981.63931	0.52823
979.71074	0.52951
977.78218	0.53118
975.85361	0.53331
973.92505	0.53600
971.99648	0.53912
970.06792	0.54263
968.13936	0.54651
966.21079	0.55061
964.28223	0.55488
962.35366	0.55960
960.42510	0.56492
958.49653	0.57058
956.56797	0.57617
954.63940	0.58176
952.71084	0.58775
950.78228	0.59421
948.85371	0.60092
946.92515	0.60759
944.99658	0.61396
943.06802	0.61990
941.13945	0.62562
939.21089	0.63157
937.28232	0.63779
935.35376	0.64364
933.42520	0.64903
931.49663	0.65461
929.56807	0.66049
927.63950	0.66607
925.71094	0.67143
923.78237	0.67761
921.85381	0.68484
919.92524	0.69211
917.99668	0.69870
916.06812	0.70514
914.13955	0.71211
912.21099	0.71956
910.28242	0.72734
908.35386	0.73586
906.42529	0.74530
904.49673	0.75495
902.56816	0.76439
900.63960	0.77358
898.71104	0.78249
896.78247	0.79231
894.85391	0.80308
892.92534	0.81343
890.99678	0.82381
889.06821	0.83455
887.13965	0.84487
885.21108	0.85495
883.28252	0.86573
881.35396	0.87733
879.42539	0.88945
877.49683	0.90215
875.56826	0.91494
873.63970	0.92611
871.71113	0.93569
869.78257	0.94682
867.85400	0.95933
865.92544	0.96995
863.99687	0.97899
862.06831	0.98884
860.13975	1.00045
858.21118	1.01302
856.28262	1.02584
854.35405	1.03988
852.42549	1.05411
850.49692	1.06617
848.56836	1.07706
846.63979	1.08834
844.71123	1.09875
842.78267	1.10742
840.85410	1.11736
838.92554	1.13066
836.99697	1.14399
835.06841	1.15499
833.13984	1.16560
831.21128	1.17491
829.28271	1.18291
827.35415	1.19518
825.42559	1.21122
823.49702	1.22702
821.56846	1.24175
819.63989	1.25130
817.71133	1.25923
815.78276	1.27563
813.85420	1.29127
811.92563	1.29568
809.99707	1.30739
808.06851	1.33745
806.13994	1.36586
804.21138	1.37777
802.28281	1.37990
800.35425	1.37120
798.42568	1.35850
796.49712	1.36937
794.56855	1.41154
792.63999	1.44829
790.71143	1.45342
788.78286	1.47089
786.85430	1.52436
784.92573	1.58126
782.99717	1.58403
781.06860	1.51191
779.14004	1.43192
777.21147	1.35974
775.28291	1.30282
773.35435	1.34330
771.42578	1.51453
769.49722	1.64997
767.56865	1.64419
765.64009	1.62868
763.71152	1.51118
761.78296	1.36142
759.85439	1.28509
757.92583	1.26031
755.99727	1.22170
754.06870	1.20977
752.14014	1.29789
750.21157	1.40659
748.28301	1.37347
746.35444	1.39756
744.42588	1.58536
742.49731	1.37185
740.56875	1.04143
738.64019	0.88287
736.71162	0.76919
734.78306	0.63261
732.85449	0.55057
730.92593	0.54665
728.99736	0.45151
727.06880	0.28106
725.14023	0.19243
723.21167	0.15290
721.28311	0.04138
719.35454	-0.05286
717.42598	-0.07370
715.49741	-0.02233
713.56885	0.08034
711.64028	0.13654
709.71172	0.13372
707.78315	0.23100
705.85459	0.44316
703.92603	0.51265
701.99746	0.55384
700.06890	0.96556
698.14033	4.18884
696.21177	1.66883
694.28320	0.83460
692.35464	0.65117
690.42607	0.55738
688.49751	0.63732
686.56895	0.76354
684.64038	0.47188
682.71182	0.31451
680.78325	0.35879
678.85469	0.42453
676.92612	0.33175
674.99756	0.28601
673.06899	0.32946
671.14043	0.41597
669.21187	0.46485
667.28330	0.42917
665.35474	0.37735
663.42617	0.38449
661.49761	0.42070
659.56904	0.43108
657.64048	0.50542
655.71191	0.62425
653.78335	0.52661
651.85479	0.41428
649.92622	0.35374
647.99766	0.30322
646.06909	0.28031
644.14053	0.31645
642.21196	0.41380
640.28340	0.57860
638.35483	0.70782
636.42627	0.63741
634.49771	0.64446
632.56914	0.60561
630.64058	0.41238
628.71201	0.31202
626.78345	0.32048
624.85488	0.34083
622.92632	0.34232
620.99775	0.35027
619.06919	0.34704
617.14062	0.34370
615.21206	0.34697
613.28350	0.34335
611.35493	0.37654
609.42637	0.39038
607.49780	0.32587
605.56924	0.27486
603.64067	0.24729
601.71211	0.26807
599.78354	0.34739
597.85498	0.39751
595.92642	0.38469
593.99785	0.34788
592.06929	0.35052
590.14072	0.40828
588.21216	0.47248
586.28359	0.49326
584.35503	0.49286
582.42646	0.56843
580.49790	0.68765
578.56934	0.51328
576.64077	0.31175
574.71221	0.25799
572.78364	0.30501
570.85508	0.39942
568.92651	0.52036
566.99795	0.57106
565.06938	0.49081
563.14082	0.43281
561.21226	0.41228
559.28369	0.37777
557.35513	0.30622
555.42656	0.24315
553.49800	0.23855
551.56943	0.29108
549.64087	0.38366
547.71230	0.40986
545.78374	0.33954
543.85518	0.28669
541.92661	0.26712
539.99805	0.26122
538.06948	0.26061
536.14092	0.26281
534.21235	0.26843
532.28379	0.26971
530.35522	0.27202
528.42666	0.32260
526.49810	0.39725
524.56953	0.37571
522.64097	0.33292
520.71240	0.31655
518.78384	0.31951
516.85527	0.36747
514.92671	0.40273
512.99814	0.35538
511.06958	0.30110
509.14102	0.25042
507.21245	0.20396
505.28389	0.22330
503.35532	0.27796
501.42676	0.26533
499.49819	0.18996
