3997.91411	0.06605
3995.98555	0.06642
3994.05698	0.06667
3992.12842	0.06704
3990.19985	0.06745
3988.27129	0.06779
3986.34272	0.06799
3984.41416	0.06810
3982.48560	0.06822
3980.55703	0.06847
3978.62847	0.06890
3976.69990	0.06946
3974.77134	0.06982
3972.84277	0.06981
3970.91421	0.06981
3968.98564	0.06997
3967.05708	0.06999
3965.12852	0.06986
3963.19995	0.06995
3961.27139	0.07036
3959.34282	0.07071
3957.41426	0.07062
3955.48569	0.07038
3953.55713	0.07053
3951.62856	0.07108
3949.70000	0.07178
3947.77144	0.07228
3945.84287	0.07225
3943.91431	0.07201
3941.98574	0.07170
3940.05718	0.07099
3938.12861	0.07046
3936.20005	0.07069
3934.27148	0.07117
3932.34292	0.07143
3930.41436	0.07143
3928.48579	0.07110
3926.55723	0.07080
3924.62866	0.07096
3922.70010	0.07119
3920.77153	0.07118
3918.84297	0.07128
3916.91440	0.07166
3914.98584	0.07182
3913.05728	0.07119
3911.12871	0.07034
3909.20015	0.07010
3907.27158	0.07044
3905.34302	0.07113
3903.41445	0.07223
3901.48589	0.07295
3899.55732	0.07251
3897.62876	0.07170
3895.70020	0.07108
3893.77163	0.07087
3891.84307	0.07128
3889.91450	0.07147
3887.98594	0.07084
3886.05737	0.07086
3884.12881	0.07194
3882.20024	0.07265
3880.27168	0.07271
3878.34312	0.07226
3876.41455	0.07169
3874.48599	0.07196
3872.55742	0.07278
3870.62886	0.07351
3868.70029	0.07407
3866.77173	0.07396
3864.84316	0.07384
3862.91460	0.07411
3860.98604	0.07404
3859.05747	0.07386
3857.12891	0.07402
3855.20034	0.07465
3853.27178	0.07629
3851.34321	0.07791
3849.41465	0.07768
3847.48608	0.07707
3845.55752	0.07700
3843.62896	0.07765
3841.70039	0.07875
3839.77183	0.07981
3837.84326	0.08090
3835.91470	0.08182
3833.98613	0.08227
3832.05757	0.08259
3830.12900	0.08313
3828.20044	0.08375
3826.27187	0.08439
3824.34331	0.08491
3822.41475	0.08568
3820.48618	0.08759
3818.55762	0.08901
3816.62905	0.08936
3814.70049	0.08997
3812.77192	0.09015
3810.84336	0.09015
3808.91479	0.09095
3806.98623	0.09281
3805.05767	0.09485
3803.12910	0.09606
3801.20054	0.09722
3799.27197	0.09823
3797.34341	0.09876
3795.41484	0.09975
3793.48628	0.10087
3791.55771	0.10170
3789.62915	0.10253
3787.70059	0.10366
3785.77202	0.10534
3783.84346	0.10713
3781.91489	0.10840
3779.98633	0.10996
3778.05776	0.11229
3776.12920	0.11392
3774.20063	0.11483
3772.27207	0.11613
3770.34351	0.11813
3768.41494	0.12052
3766.48638	0.12263
3764.55781	0.12452
3762.62925	0.12602
3760.70068	0.12760
3758.77212	0.13031
3756.84355	0.13344
3754.91499	0.13578
3752.98643	0.13819
3751.05786	0.14191
3749.12930	0.14634
3747.20073	0.14927
3745.27217	0.15220
3743.34360	0.15711
3741.41504	0.16112
3739.48647	0.16333
3737.55791	0.16634
3735.62935	0.17182
3733.70078	0.17914
3731.77222	0.18464
3729.84365	0.18814
3727.91509	0.19186
3725.98652	0.19697
3724.05796	0.20299
3722.12939	0.20928
3720.20083	0.21615
3718.27227	0.22299
3716.34370	0.22963
3714.41514	0.23678
3712.48657	0.24625
3710.55801	0.25992
3708.62944	0.27473
3706.70088	0.28702
3704.77231	0.29832
3702.84375	0.31126
3700.91519	0.32815
3698.98662	0.34666
3697.05806	0.36394
3695.12949	0.38215
3693.20093	0.40177
3691.27236	0.42318
3689.34380	0.45050
3687.41523	0.48427
3685.48667	0.51470
3683.55811	0.54110
3681.62954	0.56944
3679.70098	0.60150
3677.77241	0.63531
3675.84385	0.67494
3673.91528	0.72707
3671.98672	0.77035
3670.05815	0.80975
3668.12959	0.86343
3666.20103	0.91271
3664.27246	0.95373
3662.34390	0.99733
3660.41533	1.04446
3658.48677	1.09115
3656.55820	1.14107
3654.62964	1.19664
3652.70107	1.24361
3650.77251	1.28488
3648.84395	1.34086
3646.91538	1.40845
3644.98682	1.45933
3643.05825	1.49917
3641.12969	1.54004
3639.20112	1.58501
3637.27256	1.63050
3635.34399	1.67508
3633.41543	1.71933
3631.48687	1.76006
3629.55830	1.80107
3627.62974	1.85486
3625.70117	1.90589
3623.77261	1.94098
3621.84404	1.97478
3619.91548	2.01399
3617.98691	2.06016
3616.05835	2.10332
3614.12979	2.13954
3612.20122	2.17856
3610.27266	2.21926
3608.34409	2.26085
3606.41553	2.30490
3604.48696	2.34515
3602.55840	2.38032
3600.62983	2.41845
3598.70127	2.46006
3596.77271	2.50074
3594.84414	2.54279
3592.91558	2.58631
3590.98701	2.62622
3589.05845	2.66302
3587.12988	2.70756
3585.20132	2.75679
3583.27275	2.79743
3581.34419	2.83412
3579.41562	2.87413
3577.48706	2.91736
3575.55850	2.96136
3573.62993	3.00564
3571.70137	3.04732
3569.77280	3.08729
3567.84424	3.13196
3565.91567	3.18622
3563.98711	3.23736
3562.05854	3.27935
3560.12998	3.32097
3558.20142	3.36418
3556.27285	3.40779
3554.34429	3.45207
3552.41572	3.50004
3550.48716	3.54954
3548.55859	3.59603
3546.63003	3.64107
3544.70146	3.68949
3542.77290	3.73955
3540.84434	3.78734
3538.91577	3.83346
3536.98721	3.87949
3535.05864	3.92761
3533.13008	3.97561
3531.20151	4.02401
3529.27295	4.07409
3527.34438	4.12477
3525.41582	4.17352
3523.48726	4.22061
3521.55869	4.27061
3519.63013	4.32084
3517.70156	4.36855
3515.77300	4.41577
3513.84443	4.46376
3511.91587	4.51178
3509.98730	4.56318
3508.05874	4.62032
3506.13018	4.67564
3504.20161	4.72164
3502.27305	4.76003
3500.34448	4.79990
3498.41592	4.84580
3496.48735	4.89633
3494.55879	4.94712
3492.63022	4.99448
3490.70166	5.04193
3488.77310	5.09354
3486.84453	5.14933
3484.91597	5.20614
3482.98740	5.25635
3481.05884	5.29895
3479.13027	5.34152
3477.20171	5.38858
3475.27314	5.43553
3473.34458	5.47615
3471.41602	5.51498
3469.48745	5.56149
3467.55889	5.61844
3465.63032	5.67901
3463.70176	5.73579
3461.77319	5.78365
3459.84463	5.82263
3457.91606	5.86314
3455.98750	5.92190
3454.05894	5.99870
3452.13037	6.06936
3450.20181	6.12182
3448.27324	6.16226
3446.34468	6.20121
3444.41611	6.24961
3442.48755	6.30432
3440.55898	6.34722
3438.63042	6.38289
3436.70186	6.42343
3434.77329	6.45775
3432.84473	6.48744
3430.91616	6.53834
3428.98760	6.61650
3427.05903	6.69272
3425.13047	6.76007
3423.20190	6.83000
3421.27334	6.89635
3419.34478	6.95004
3417.41621	7.00427
3415.48765	7.04503
3413.55908	7.05492
3411.63052	7.07255
3409.70195	7.10669
3407.77339	7.15522
3405.84482	7.21843
3403.91626	7.27113
3401.98770	7.30093
3400.05913	7.33695
3398.13057	7.38625
3396.20200	7.42759
3394.27344	7.45684
3392.34487	7.48764
3390.41631	7.56484
3388.48774	7.62837
3386.55918	7.62661
3384.63062	7.63836
3382.70205	7.68666
3380.77349	7.73499
3378.84492	7.78777
3376.91636	7.82983
3374.98779	7.81426
3373.05923	7.80141
3371.13066	7.84662
3369.20210	7.92433
3367.27354	7.96447
3365.34497	7.96942
3363.41641	7.97871
3361.48784	7.97352
3359.55928	7.98644
3357.63071	8.03502
3355.70215	8.06682
3353.77358	8.04831
3351.84502	8.06518
3349.91646	8.15083
3347.98789	8.22421
3346.05933	8.22850
3344.13076	8.19506
3342.20220	8.19977
3340.27363	8.22739
3338.34507	8.22298
3336.41650	8.23764
3334.48794	8.34177
3332.55937	8.41695
3330.63081	8.39616
3328.70225	8.35410
3326.77368	8.34854
3324.84512	8.38612
3322.91655	8.35685
3320.98799	8.28771
3319.05942	8.26426
3317.13086	8.25086
3315.20229	8.19928
3313.27373	8.15541
3311.34517	8.16851
3309.41660	8.21736
3307.48804	8.24969
3305.55947	8.27159
3303.63091	8.34148
3301.70234	8.39364
3299.77378	8.38035
3297.84521	8.33427
3295.91665	8.32413
3293.98809	8.39046
3292.05952	8.41251
3290.13096	8.33585
3288.20239	8.31229
3286.27383	8.37191
3284.34526	8.34715
3282.41670	8.28092
3280.48813	8.34572
3278.55957	8.48902
3276.63101	8.48558
3274.70244	8.33074
3272.77388	8.23625
3270.84531	8.26659
3268.91675	8.34192
3266.98818	8.39686
3265.05962	8.43776
3263.13105	8.41756
3261.20249	8.37444
3259.27393	8.43320
3257.34536	8.54053
3255.41680	8.57807
3253.48823	8.58541
3251.55967	8.59687
3249.63110	8.56934
3247.70254	8.53265
3245.77397	8.53170
3243.84541	8.52920
3241.91685	8.50948
3239.98828	8.51032
3238.05972	8.43058
3236.13115	8.25090
3234.20259	8.16632
3232.27402	8.21829
3230.34546	8.28140
3228.41689	8.30686
3226.48833	8.34588
3224.55977	8.39533
3222.63120	8.40506
3220.70264	8.36221
3218.77407	8.32589
3216.84551	8.26828
3214.91694	8.12504
3212.98838	8.01584
3211.05981	7.99402
3209.13125	7.95416
3207.20269	7.89864
3205.27412	7.89797
3203.34556	7.90244
3201.41699	7.86293
3199.48843	7.81018
3197.55986	7.76795
3195.63130	7.75256
3193.70273	7.75479
3191.77417	7.73093
3189.84561	7.66528
3187.91704	7.58204
3185.98848	7.51157
3184.05991	7.46807
3182.13135	7.44469
3180.20278	7.40162
3178.27422	7.30935
3176.34565	7.19279
3174.41709	7.09950
3172.48853	7.08058
3170.55996	7.10352
3168.63140	7.09247
3166.70283	7.05891
3164.77427	7.00410
3162.84570	6.92285
3160.91714	6.84874
3158.98857	6.78446
3157.06001	6.72127
3155.13145	6.64773
3153.20288	6.55870
3151.27432	6.47984
3149.34575	6.41273
3147.41719	6.34276
3145.48862	6.28016
3143.56006	6.22662
3141.63149	6.16239
3139.70293	6.07679
3137.77437	5.99118
3135.84580	5.92269
3133.91724	5.86132
3131.98867	5.79999
3130.06011	5.74124
3128.13154	5.67481
3126.20298	5.59164
3124.27441	5.50613
3122.34585	5.42857
3120.41729	5.35916
3118.48872	5.29898
3116.56016	5.24089
3114.63159	5.17269
3112.70303	5.09333
3110.77446	5.01166
3108.84590	4.93418
3106.91733	4.86409
3104.98877	4.79698
3103.06021	4.72788
3101.13164	4.66095
3099.20308	4.59917
3097.27451	4.53844
3095.34595	4.47510
3093.41738	4.41127
3091.48882	4.34955
3089.56025	4.28576
3087.63169	4.21766
3085.70312	4.15209
3083.77456	4.09115
3081.84600	4.03117
3079.91743	3.97279
3077.98887	3.91475
3076.06030	3.85319
3074.13174	3.79102
3072.20317	3.73264
3070.27461	3.67709
3068.34604	3.62280
3066.41748	3.56811
3064.48892	3.51103
3062.56035	3.45334
3060.63179	3.39816
3058.70322	3.34447
3056.77466	3.28965
3054.84609	3.23493
3052.91753	3.18308
3050.98896	3.13361
3049.06040	3.08435
3047.13184	3.03395
3045.20327	2.98266
3043.27471	2.93302
3041.34614	2.88576
3039.41758	2.83845
3037.48901	2.79108
3035.56045	2.74508
3033.63188	2.69943
3031.70332	2.65356
3029.77476	2.60905
3027.84619	2.56568
3025.91763	2.52171
3023.98906	2.47756
3022.06050	2.43425
3020.13193	2.39194
3018.20337	2.35108
3016.27480	2.31121
3014.34624	2.27158
3012.41768	2.23250
3010.48911	2.19362
3008.56055	2.15511
3006.63198	2.11823
3004.70342	2.08270
3002.77485	2.04732
3000.84629	2.01208
2998.91772	1.97798
2996.98916	1.94548
2995.06060	1.91380
2993.13203	1.88250
2991.20347	1.85214
2989.27490	1.82250
2987.34634	1.79290
2985.41777	1.76391
2983.48921	1.73594
2981.56064	1.70862
2979.63208	1.68197
2977.70352	1.65599
2975.77495	1.63060
2973.84639	1.60569
2971.91782	1.58134
2969.98926	1.55763
2968.06069	1.53403
2966.13213	1.51050
2964.20356	1.48705
2962.27500	1.46332
2960.34644	1.43933
2958.41787	1.41501
2956.48931	1.39067
2954.56074	1.36681
2952.63218	1.34306
2950.70361	1.31886
2948.77505	1.29485
2946.84648	1.27178
2944.91792	1.24957
2942.98936	1.22825
2941.06079	1.20784
2939.13223	1.18761
2937.20366	1.16708
2935.27510	1.14652
2933.34653	1.12645
2931.41797	1.10706
2929.48940	1.08773
2927.56084	1.06807
2925.63228	1.04856
2923.70371	1.02947
2921.77515	1.01061
2919.84658	0.99185
2917.91802	0.97344
2915.98945	0.95575
2914.06089	0.93859
2912.13232	0.92181
2910.20376	0.90556
2908.27520	0.88958
2906.34663	0.87378
2904.41807	0.85863
2902.48950	0.84402
2900.56094	0.82967
2898.63237	0.81567
2896.70381	0.80199
2894.77524	0.78854
2892.84668	0.77543
2890.91812	0.76304
2888.98955	0.75134
2887.06099	0.74005
2885.13242	0.72939
2883.20386	0.71946
2881.27529	0.70977
2879.34673	0.70007
2877.41816	0.69056
2875.48960	0.68104
2873.56104	0.67092
2871.63247	0.65987
2869.70391	0.64806
2867.77534	0.63578
2865.84678	0.62316
2863.91821	0.61068
2861.98965	0.59876
2860.06108	0.58745
2858.13252	0.57664
2856.20396	0.56633
2854.27539	0.55635
2852.34683	0.54638
2850.41826	0.53654
2848.48970	0.52701
2846.56113	0.51799
2844.63257	0.51002
2842.70400	0.50299
2840.77544	0.49622
2838.84687	0.48961
2836.91831	0.48331
2834.98975	0.47716
2833.06118	0.47103
2831.13262	0.46494
2829.20405	0.45880
2827.27549	0.45260
2825.34692	0.44645
2823.41836	0.44031
2821.48979	0.43414
2819.56123	0.42789
2817.63267	0.42149
2815.70410	0.41517
2813.77554	0.40913
2811.84697	0.40340
2809.91841	0.39787
2807.98984	0.39238
2806.06128	0.38693
2804.13271	0.38156
2802.20415	0.37619
2800.27559	0.37082
2798.34702	0.36563
2796.41846	0.36056
2794.48989	0.35551
2792.56133	0.35046
2790.63276	0.34557
2788.70420	0.34104
2786.77563	0.33665
2784.84707	0.33215
2782.91851	0.32760
2780.98994	0.32313
2779.06138	0.31885
2777.13281	0.31480
2775.20425	0.31082
2773.27568	0.30675
2771.34712	0.30270
2769.41855	0.29883
2767.48999	0.29500
2765.56143	0.29116
2763.63286	0.28741
2761.70430	0.28379
2759.77573	0.28027
2757.84717	0.27684
2755.91860	0.27352
2753.99004	0.27025
2752.06147	0.26691
2750.13291	0.26358
2748.20435	0.26045
2746.27578	0.25755
2744.34722	0.25473
2742.41865	0.25193
2740.49009	0.24907
2738.56152	0.24611
2736.63296	0.24320
2734.70439	0.24051
2732.77583	0.23801
2730.84727	0.23558
2728.91870	0.23310
2726.99014	0.23065
2725.06157	0.22837
2723.13301	0.22616
2721.20444	0.22391
2719.27588	0.22163
2717.34731	0.21942
2715.41875	0.21725
2713.49019	0.21505
2711.56162	0.21302
2709.63306	0.21127
2707.70449	0.20958
2705.77593	0.20775
2703.84736	0.20593
2701.91880	0.20423
2699.99023	0.20267
2698.06167	0.20118
2696.13311	0.19962
2694.20454	0.19801
2692.27598	0.19654
2690.34741	0.19522
2688.41885	0.19397
2686.49028	0.19270
2684.56172	0.19146
2682.63315	0.19015
2680.70459	0.18865
2678.77603	0.18716
2676.84746	0.18585
2674.91890	0.18477
2672.99033	0.18378
2671.06177	0.18276
2669.13320	0.18167
2667.20464	0.18052
2665.27607	0.17932
2663.34751	0.17824
2661.41895	0.17726
2659.49038	0.17630
2657.56182	0.17547
2655.63325	0.17476
2653.70469	0.17397
2651.77612	0.17308
2649.84756	0.17229
2647.91899	0.17168
2645.99043	0.17100
2644.06187	0.17018
2642.13330	0.16945
2640.20474	0.16889
2638.27617	0.16844
2636.34761	0.16808
2634.41904	0.16762
2632.49048	0.16695
2630.56191	0.16631
2628.63335	0.16580
2626.70479	0.16526
2624.77622	0.16473
2622.84766	0.16438
2620.91909	0.16412
2618.99053	0.16379
2617.06196	0.16334
2615.13340	0.16288
2613.20483	0.16258
2611.27627	0.16253
2609.34771	0.16252
2607.41914	0.16227
2605.49058	0.16204
2603.56201	0.16210
2601.63345	0.16216
2599.70488	0.16201
2597.77632	0.16183
2595.84775	0.16174
2593.91919	0.16173
2591.99062	0.16177
2590.06206	0.16190
2588.13350	0.16206
2586.20493	0.16214
2584.27637	0.16216
2582.34780	0.16215
2580.41924	0.16233
2578.49067	0.16273
2576.56211	0.16305
2574.63354	0.16325
2572.70498	0.16348
2570.77642	0.16366
2568.84785	0.16375
2566.91929	0.16400
2564.99072	0.16454
2563.06216	0.16511
2561.13359	0.16543
2559.20503	0.16569
2557.27646	0.16609
2555.34790	0.16650
2553.41934	0.16692
2551.49077	0.16745
2549.56221	0.16797
2547.63364	0.16841
2545.70508	0.16888
2543.77651	0.16948
2541.84795	0.17009
2539.91938	0.17066
2537.99082	0.17129
2536.06226	0.17190
2534.13369	0.17238
2532.20513	0.17284
2530.27656	0.17337
2528.34800	0.17400
2526.41943	0.17480
2524.49087	0.17565
2522.56230	0.17639
2520.63374	0.17705
2518.70518	0.17781
2516.77661	0.17863
2514.84805	0.17930
2512.91948	0.17989
2510.99092	0.18061
2509.06235	0.18136
2507.13379	0.18204
2505.20522	0.18270
2503.27666	0.18340
2501.34810	0.18414
2499.41953	0.18497
2497.49097	0.18573
2495.56240	0.18639
2493.63384	0.18718
2491.70527	0.18821
2489.77671	0.18926
2487.84814	0.19003
2485.91958	0.19066
2483.99102	0.19130
2482.06245	0.19203
2480.13389	0.19288
2478.20532	0.19375
2476.27676	0.19459
2474.34819	0.19545
2472.41963	0.19631
2470.49106	0.19719
2468.56250	0.19811
2466.63394	0.19901
2464.70537	0.19996
2462.77681	0.20087
2460.84824	0.20160
2458.91968	0.20231
2456.99111	0.20326
2455.06255	0.20425
2453.13398	0.20512
2451.20542	0.20599
2449.27686	0.20693
2447.34829	0.20791
2445.41973	0.20890
2443.49116	0.20993
2441.56260	0.21097
2439.63403	0.21195
2437.70547	0.21292
2435.77690	0.21384
2433.84834	0.21473
2431.91978	0.21569
2429.99121	0.21669
2428.06265	0.21768
2426.13408	0.21880
2424.20552	0.22005
2422.27695	0.22124
2420.34839	0.22225
2418.41982	0.22326
2416.49126	0.22439
2414.56270	0.22553
2412.63413	0.22661
2410.70557	0.22771
2408.77700	0.22888
2406.84844	0.23006
2404.91987	0.23117
2402.99131	0.23225
2401.06274	0.23346
2399.13418	0.23472
2397.20562	0.23586
2395.27705	0.23703
2393.34849	0.23827
2391.41992	0.23943
2389.49136	0.24061
2387.56279	0.24218
2385.63423	0.24433
2383.70566	0.24716
2381.77710	0.25067
2379.84854	0.25465
2377.91997	0.25903
2375.99141	0.26391
2374.06284	0.26956
2372.13428	0.27597
2370.20571	0.28286
2368.27715	0.29001
2366.34858	0.29699
2364.42002	0.30290
2362.49146	0.30730
2360.56289	0.31005
2358.63433	0.31107
2356.70576	0.31037
2354.77720	0.30783
2352.84863	0.30379
2350.92007	0.29902
2348.99150	0.29596
2347.06294	0.29667
2345.13437	0.30153
2343.20581	0.30792
2341.27725	0.31187
2339.34868	0.31374
2337.42012	0.31494
2335.49155	0.31538
2333.56299	0.31514
2331.63442	0.31549
2329.70586	0.31671
2327.77729	0.31749
2325.84873	0.31716
2323.92017	0.31640
2321.99160	0.31578
2320.06304	0.31548
2318.13447	0.31532
2316.20591	0.31500
2314.27734	0.31496
2312.34878	0.31569
2310.42021	0.31657
2308.49165	0.31696
2306.56309	0.31714
2304.63452	0.31742
2302.70596	0.31807
2300.77739	0.31919
2298.84883	0.32039
2296.92026	0.32149
2294.99170	0.32265
2293.06313	0.32389
2291.13457	0.32510
2289.20601	0.32630
2287.27744	0.32754
2285.34888	0.32892
2283.42031	0.33065
2281.49175	0.33269
2279.56318	0.33477
2277.63462	0.33678
2275.70605	0.33891
2273.77749	0.34111
2271.84893	0.34330
2269.92036	0.34543
2267.99180	0.34748
2266.06323	0.34948
2264.13467	0.35153
2262.20610	0.35368
2260.27754	0.35582
2258.34897	0.35787
2256.42041	0.35990
2254.49185	0.36194
2252.56328	0.36401
2250.63472	0.36616
2248.70615	0.36829
2246.77759	0.37031
2244.84902	0.37234
2242.92046	0.37455
2240.99189	0.37682
2239.06333	0.37904
2237.13477	0.38121
2235.20620	0.38341
2233.27764	0.38564
2231.34907	0.38792
2229.42051	0.39017
2227.49194	0.39238
2225.56338	0.39462
2223.63481	0.39682
2221.70625	0.39893
2219.77769	0.40103
2217.84912	0.40322
2215.92056	0.40548
2213.99199	0.40784
2212.06343	0.41015
2210.13486	0.41222
2208.20630	0.41412
2206.27773	0.41607
2204.34917	0.41818
2202.42061	0.42040
2200.49204	0.42257
2198.56348	0.42464
2196.63491	0.42659
2194.70635	0.42841
2192.77778	0.43024
2190.84922	0.43213
2188.92065	0.43400
2186.99209	0.43582
2185.06353	0.43763
2183.13496	0.43943
2181.20640	0.44116
2179.27783	0.44279
2177.34927	0.44433
2175.42070	0.44592
2173.49214	0.44764
2171.56357	0.44923
2169.63501	0.45051
2167.70645	0.45174
2165.77788	0.45306
2163.84932	0.45431
2161.92075	0.45540
2159.99219	0.45643
2158.06362	0.45745
2156.13506	0.45840
2154.20649	0.45929
2152.27793	0.46023
2150.34937	0.46111
2148.42080	0.46175
2146.49224	0.46225
2144.56367	0.46270
2142.63511	0.46311
2140.70654	0.46339
2138.77798	0.46354
2136.84941	0.46367
2134.92085	0.46387
2132.99229	0.46402
2131.06372	0.46412
2129.13516	0.46419
2127.20659	0.46404
2125.27803	0.46357
2123.34946	0.46295
2121.42090	0.46242
2119.49233	0.46192
2117.56377	0.46127
2115.63521	0.46048
2113.70664	0.45962
2111.77808	0.45872
2109.84951	0.45782
2107.92095	0.45689
2105.99238	0.45577
2104.06382	0.45451
2102.13525	0.45322
2100.20669	0.45200
2098.27812	0.45070
2096.34956	0.44915
2094.42100	0.44743
2092.49243	0.44566
2090.56387	0.44391
2088.63530	0.44226
2086.70674	0.44068
2084.77817	0.43890
2082.84961	0.43687
2080.92104	0.43475
2078.99248	0.43267
2077.06392	0.43062
2075.13535	0.42859
2073.20679	0.42652
2071.27822	0.42437
2069.34966	0.42212
2067.42109	0.41974
2065.49253	0.41734
2063.56396	0.41494
2061.63540	0.41245
2059.70684	0.40993
2057.77827	0.40742
2055.84971	0.40486
2053.92114	0.40223
2051.99258	0.39957
2050.06401	0.39686
2048.13545	0.39417
2046.20688	0.39158
2044.27832	0.38892
2042.34976	0.38611
2040.42119	0.38335
2038.49263	0.38064
2036.56406	0.37783
2034.63550	0.37505
2032.70693	0.37227
2030.77837	0.36938
2028.84980	0.36649
2026.92124	0.36377
2024.99268	0.36109
2023.06411	0.35834
2021.13555	0.35552
2019.20698	0.35273
2017.27842	0.35003
2015.34985	0.34727
2013.42129	0.34444
2011.49272	0.34160
2009.56416	0.33876
2007.63560	0.33594
2005.70703	0.33318
2003.77847	0.33049
2001.84990	0.32783
1999.92134	0.32515
1997.99277	0.32253
1996.06421	0.32006
1994.13564	0.31765
1992.20708	0.31518
1990.27852	0.31260
1988.34995	0.31004
1986.42139	0.30747
1984.49282	0.30492
1982.56426	0.30250
1980.63569	0.30018
1978.70713	0.29789
1976.77856	0.29561
1974.85000	0.29340
1972.92144	0.29126
1970.99287	0.28914
1969.06431	0.28709
1967.13574	0.28511
1965.20718	0.28309
1963.27861	0.28103
1961.35005	0.27898
1959.42148	0.27702
1957.49292	0.27516
1955.56436	0.27328
1953.63579	0.27137
1951.70723	0.26956
1949.77866	0.26797
1947.85010	0.26648
1945.92153	0.26503
1943.99297	0.26368
1942.06440	0.26228
1940.13584	0.26066
1938.20728	0.25905
1936.27871	0.25760
1934.35015	0.25623
1932.42158	0.25493
1930.49302	0.25370
1928.56445	0.25252
1926.63589	0.25142
1924.70732	0.25048
1922.77876	0.24961
1920.85020	0.24866
1918.92163	0.24772
1916.99307	0.24674
1915.06450	0.24569
1913.13594	0.24471
1911.20737	0.24392
1909.27881	0.24328
1907.35024	0.24272
1905.42168	0.24214
1903.49312	0.24151
1901.56455	0.24086
1899.63599	0.24030
1897.70742	0.23988
1895.77886	0.23959
1893.85029	0.23936
1891.92173	0.23909
1889.99316	0.23889
1888.06460	0.23857
1886.13604	0.23815
1884.20747	0.23784
1882.27891	0.23759
1880.35034	0.23739
1878.42178	0.23725
1876.49321	0.23721
1874.56465	0.23718
1872.63608	0.23719
1870.70752	0.23747
1868.77896	0.23810
1866.85039	0.23843
1864.92183	0.23827
1862.99326	0.23820
1861.06470	0.23840
1859.13613	0.23877
1857.20757	0.23912
1855.27900	0.23953
1853.35044	0.24000
1851.42187	0.24053
1849.49331	0.24110
1847.56475	0.24181
1845.63618	0.24272
1843.70762	0.24374
1841.77905	0.24454
1839.85049	0.24498
1837.92192	0.24565
1835.99336	0.24653
1834.06479	0.24751
1832.13623	0.24858
1830.20767	0.25006
1828.27910	0.25153
1826.35054	0.25255
1824.42197	0.25379
1822.49341	0.25510
1820.56484	0.25631
1818.63628	0.25763
1816.70771	0.25925
1814.77915	0.26091
1812.85059	0.26262
1810.92202	0.26464
1808.99346	0.26679
1807.06489	0.26882
1805.13633	0.27077
1803.20776	0.27302
1801.27920	0.27553
1799.35063	0.27818
1797.42207	0.28060
1795.49351	0.28300
1793.56494	0.28584
1791.63638	0.28942
1789.70781	0.29282
1787.77925	0.29544
1785.85068	0.29858
1783.92212	0.30234
1781.99355	0.30638
1780.06499	0.31060
1778.13643	0.31480
1776.20786	0.31877
1774.27930	0.32314
1772.35073	0.32902
1770.42217	0.33527
1768.49360	0.34056
1766.56504	0.34569
1764.63647	0.35099
1762.70791	0.35691
1760.77935	0.36437
1758.85078	0.37139
1756.92222	0.37845
1754.99365	0.38623
1753.06509	0.39335
1751.13652	0.40175
1749.20796	0.41226
1747.27939	0.42262
1745.35083	0.43167
1743.42227	0.44105
1741.49370	0.45135
1739.56514	0.46353
1737.63657	0.47589
1735.70801	0.48700
1733.77944	0.50348
1731.85088	0.52291
1729.92231	0.53844
1727.99375	0.55419
1726.06519	0.57117
1724.13662	0.58973
1722.20806	0.60974
1720.27949	0.62843
1718.35093	0.65041
1716.42236	0.68223
1714.49380	0.71265
1712.56523	0.73771
1710.63667	0.76203
1708.70811	0.78814
1706.77954	0.81776
1704.85098	0.85293
1702.92241	0.88468
1700.99385	0.91671
1699.06528	0.96418
1697.13672	1.00820
1695.20815	1.05391
1693.27959	1.09945
1691.35103	1.13676
1689.42246	1.17972
1687.49390	1.22537
1685.56533	1.26991
1683.63677	1.33718
1681.70820	1.40748
1679.77964	1.45395
1677.85107	1.49853
1675.92251	1.54962
1673.99395	1.61163
1672.06538	1.66696
1670.13682	1.72213
1668.20825	1.79501
1666.27969	1.85682
1664.35112	1.91082
1662.42256	1.97888
1660.49399	2.05673
1658.56543	2.11905
1656.63687	2.16926
1654.70830	2.21329
1652.77974	2.27547
1650.85117	2.33359
1648.92261	2.35419
1646.99404	2.37948
1645.06548	2.40555
1643.13691	2.42121
1641.20835	2.42765
1639.27979	2.43220
1637.35122	2.43319
1635.42266	2.42704
1633.49409	2.41326
1631.56553	2.39627
1629.63696	2.37801
1627.70840	2.34719
1625.77983	2.30854
1623.85127	2.25976
1621.92271	2.20271
1619.99414	2.15289
1618.06558	2.10512
1616.13701	2.03815
1614.20845	1.96845
1612.27988	1.91412
1610.35132	1.85838
1608.42275	1.79879
1606.49419	1.74017
1604.56562	1.68639
1602.63706	1.63551
1600.70850	1.58672
1598.77993	1.54192
1596.85137	1.49968
1594.92280	1.45865
1592.99424	1.41949
1591.06567	1.38445
1589.13711	1.35251
1587.20854	1.32346
1585.27998	1.29720
1583.35142	1.27327
1581.42285	1.25193
1579.49429	1.23420
1577.56572	1.21906
1575.63716	1.20203
1573.70859	1.18744
1571.78003	1.17800
1569.85146	1.16948
1567.92290	1.16155
1565.99434	1.15687
1564.06577	1.15506
1562.13721	1.15482
1560.20864	1.15743
1558.28008	1.16875
1556.35151	1.17980
1554.42295	1.18518
1552.49438	1.19110
1550.56582	1.19565
1548.63726	1.19642
1546.70869	1.19255
1544.78013	1.18407
1542.85156	1.17146
1540.92300	1.15102
1538.99443	1.11690
1537.06587	1.09009
1535.13730	1.07115
1533.20874	1.04688
1531.28018	1.02144
1529.35161	1.00261
1527.42305	0.98490
1525.49448	0.96678
1523.56592	0.95157
1521.63735	0.93748
1519.70879	0.92336
1517.78022	0.91144
1515.85166	0.89745
1513.92310	0.88185
1511.99453	0.86785
1510.06597	0.85555
1508.13740	0.84373
1506.20884	0.82535
1504.28027	0.80878
1502.35171	0.79951
1500.42314	0.79176
1498.49458	0.78345
1496.56602	0.77362
1494.63745	0.76400
1492.70889	0.75675
1490.78032	0.75044
1488.85176	0.74321
1486.92319	0.73633
1484.99463	0.73093
1483.06606	0.72682
1481.13750	0.72362
1479.20894	0.72142
1477.28037	0.72065
1475.35181	0.72120
1473.42324	0.72233
1471.49468	0.72269
1469.56611	0.72158
1467.63755	0.71979
1465.70898	0.71824
1463.78042	0.71734
1461.85186	0.71723
1459.92329	0.71791
1457.99473	0.71947
1456.06616	0.72054
1454.13760	0.71874
1452.20903	0.71590
1450.28047	0.71315
1448.35190	0.71052
1446.42334	0.70766
1444.49478	0.70483
1442.56621	0.70206
1440.63765	0.69915
1438.70908	0.69621
1436.78052	0.69251
1434.85195	0.68791
1432.92339	0.68425
1430.99482	0.68202
1429.06626	0.68110
1427.13770	0.68134
1425.20913	0.68252
1423.28057	0.68420
1421.35200	0.68562
1419.42344	0.68705
1417.49487	0.68817
1415.56631	0.68779
1413.63774	0.68708
1411.70918	0.68729
1409.78062	0.68868
1407.85205	0.69079
1405.92349	0.69329
1403.99492	0.69576
1402.06636	0.69707
1400.13779	0.69694
1398.20923	0.69541
1396.28066	0.69243
1394.35210	0.68784
1392.42354	0.68240
1390.49497	0.67725
1388.56641	0.67201
1386.63784	0.66591
1384.70928	0.65947
1382.78071	0.65334
1380.85215	0.64741
1378.92358	0.64218
1376.99502	0.63829
1375.06646	0.63577
1373.13789	0.63422
1371.20933	0.63327
1369.28076	0.63264
1367.35220	0.63170
1365.42363	0.63013
1363.49507	0.62828
1361.56650	0.62643
1359.63794	0.62467
1357.70937	0.62304
1355.78081	0.62158
1353.85225	0.62035
1351.92368	0.61931
1349.99512	0.61851
1348.06655	0.61784
1346.13799	0.61710
1344.20942	0.61631
1342.28086	0.61551
1340.35229	0.61486
1338.42373	0.61436
1336.49517	0.61387
1334.56660	0.61349
1332.63804	0.61346
1330.70947	0.61387
1328.78091	0.61466
1326.85234	0.61575
1324.92378	0.61696
1322.99521	0.61833
1321.06665	0.61985
1319.13809	0.62117
1317.20952	0.62199
1315.28096	0.62236
1313.35239	0.62238
1311.42383	0.62199
1309.49526	0.62142
1307.56670	0.62096
1305.63813	0.62050
1303.70957	0.61981
1301.78101	0.61894
1299.85244	0.61779
1297.92388	0.61638
1295.99531	0.61497
1294.06675	0.61359
1292.13818	0.61206
1290.20962	0.61052
1288.28105	0.60908
1286.35249	0.60750
1284.42393	0.60572
1282.49536	0.60394
1280.56680	0.60222
1278.63823	0.60051
1276.70967	0.59890
1274.78110	0.59752
1272.85254	0.59647
1270.92397	0.59570
1268.99541	0.59498
1267.06685	0.59412
1265.13828	0.59319
1263.20972	0.59230
1261.28115	0.59138
1259.35259	0.59048
1257.42402	0.58975
1255.49546	0.58939
1253.56689	0.58946
1251.63833	0.58971
1249.70977	0.58991
1247.78120	0.59007
1245.85264	0.59006
1243.92407	0.58953
1241.99551	0.58837
1240.06694	0.58674
1238.13838	0.58471
1236.20981	0.58221
1234.28125	0.57933
1232.35269	0.57634
1230.42412	0.57345
1228.49556	0.57082
1226.56699	0.56838
1224.63843	0.56602
1222.70986	0.56388
1220.78130	0.56201
1218.85273	0.56025
1216.92417	0.55855
1214.99561	0.55701
1213.06704	0.55582
1211.13848	0.55505
1209.20991	0.55443
1207.28135	0.55372
1205.35278	0.55287
1203.42422	0.55182
1201.49565	0.55060
1199.56709	0.54949
1197.63853	0.54867
1195.70996	0.54799
1193.78140	0.54730
1191.85283	0.54671
1189.92427	0.54627
1187.99570	0.54588
1186.06714	0.54550
1184.13857	0.54542
1182.21001	0.54602
1180.28145	0.54726
1178.35288	0.54893
1176.42432	0.55087
1174.49575	0.55266
1172.56719	0.55379
1170.63862	0.55413
1168.71006	0.55406
1166.78149	0.55393
1164.85293	0.55379
1162.92437	0.55363
1160.99580	0.55338
1159.06724	0.55296
1157.13867	0.55239
1155.21011	0.55163
1153.28154	0.55052
1151.35298	0.54880
1149.42441	0.54628
1147.49585	0.54324
1145.56729	0.54014
1143.63872	0.53716
1141.71016	0.53451
1139.78159	0.53250
1137.85303	0.53125
1135.92446	0.53063
1133.99590	0.53051
1132.06733	0.53085
1130.13877	0.53136
1128.21021	0.53155
1126.28164	0.53130
1124.35308	0.53093
1122.42451	0.53064
1120.49595	0.53042
1118.56738	0.53047
1116.63882	0.53106
1114.71025	0.53192
1112.78169	0.53261
1110.85312	0.53310
1108.92456	0.53377
1106.99600	0.53477
1105.06743	0.53594
1103.13887	0.53717
1101.21030	0.53848
1099.28174	0.53998
1097.35317	0.54193
1095.42461	0.54463
1093.49604	0.54834
1091.56748	0.55321
1089.63892	0.55930
1087.71035	0.56675
1085.78179	0.57530
1083.85322	0.58390
1081.92466	0.59144
1079.99609	0.59712
1078.06753	0.60016
1076.13896	0.59989
1074.21040	0.59626
1072.28184	0.59021
1070.35327	0.58296
1068.42471	0.57541
1066.49614	0.56813
1064.56758	0.56135
1062.63901	0.55510
1060.71045	0.54965
1058.78188	0.54523
1056.85332	0.54138
1054.92476	0.53757
1052.99619	0.53410
1051.06763	0.53123
1049.13906	0.52887
1047.21050	0.52723
1045.28193	0.52626
1043.35337	0.52553
1041.42480	0.52503
1039.49624	0.52474
1037.56768	0.52440
1035.63911	0.52389
1033.71055	0.52311
1031.78198	0.52187
1029.85342	0.52017
1027.92485	0.51834
1025.99629	0.51689
1024.06772	0.51590
1022.13916	0.51505
1020.21060	0.51423
1018.28203	0.51359
1016.35347	0.51321
1014.42490	0.51296
1012.49634	0.51278
1010.56777	0.51273
1008.63921	0.51278
1006.71064	0.51311
1004.78208	0.51408
1002.85352	0.51587
1000.92495	0.51848
998.99639	0.52189
997.06782	0.52603
995.13926	0.53065
993.21069	0.53514
991.28213	0.53860
989.35356	0.54061
987.42500	0.54148
985.49644	0.54155
983.56787	0.54118
981.63931	0.54095
979.71074	0.54128
977.78218	0.54231
975.85361	0.54401
973.92505	0.54635
971.99648	0.54930
970.06792	0.55266
968.13936	0.55635
966.21079	0.56044
964.28223	0.56484
962.35366	0.56951
960.42510	0.57458
958.49653	0.57998
956.56797	0.58555
954.63940	0.59127
952.71084	0.59724
950.78228	0.60372
948.85371	0.61050
946.92515	0.61689
944.99658	0.62299
943.06802	0.62929
941.13945	0.63545
939.21089	0.64128
937.28232	0.64724
935.35376	0.65359
933.42520	0.66016
931.49663	0.66633
929.56807	0.67187
927.63950	0.67735
925.71094	0.68314
923.78237	0.68941
921.85381	0.69625
919.92524	0.70337
917.99668	0.71033
916.06812	0.71708
914.13955	0.72422
912.21099	0.73222
910.28242	0.74014
908.35386	0.74733
906.42529	0.75532
904.49673	0.76494
902.56816	0.77476
900.63960	0.78391
898.71104	0.79289
896.78247	0.80230
894.85391	0.81241
892.92534	0.82302
890.99678	0.83317
889.06821	0.84258
887.13965	0.85292
885.21108	0.86542
883.28252	0.87908
881.35396	0.89189
879.42539	0.90301
877.49683	0.91276
875.56826	0.92271
873.63970	0.93495
871.71113	0.94837
869.78257	0.96045
867.85400	0.97186
865.92544	0.98377
863.99687	0.99552
862.06831	1.00692
860.13975	1.01835
858.21118	1.03052
856.28262	1.04377
854.35405	1.05701
852.42549	1.06896
850.49692	1.08030
848.56836	1.09309
846.63979	1.10667
844.71123	1.11857
842.78267	1.12909
840.85410	1.13896
838.92554	1.14750
836.99697	1.15611
835.06841	1.16775
833.13984	1.18369
831.21128	1.20113
829.28271	1.21599
827.35415	1.22785
825.42559	1.23868
823.49702	1.24929
821.56846	1.25872
819.63989	1.27251
817.71133	1.29197
815.78276	1.30613
813.85420	1.31324
811.92563	1.31724
809.99707	1.31729
808.06851	1.32327
806.13994	1.34453
804.21138	1.37075
802.28281	1.38610
800.35425	1.38944
798.42568	1.39865
796.49712	1.40414
794.56855	1.40426
792.63999	1.44389
790.71143	1.50422
788.78286	1.53875
786.85430	1.58094
784.92573	1.62393
782.99717	1.60858
781.06860	1.58135
779.14004	1.55242
777.21147	1.47970
775.28291	1.43901
773.35435	1.49407
771.42578	1.65642
769.49722	2.04362
767.56865	4.60541
765.64009	2.14881
763.71152	1.71932
761.78296	1.76053
759.85439	2.38424
757.92583	4.54755
755.99727	2.53510
754.06870	2.02182
752.14014	1.72690
750.21157	1.44803
748.28301	1.49926
746.35444	4.47813
744.42588	4.46656
742.49731	1.42404
740.56875	1.20488
738.64019	1.18462
736.71162	1.04893
734.78306	0.79432
732.85449	0.64007
730.92593	0.52940
728.99736	0.40041
727.06880	0.32253
725.14023	0.28053
723.21167	0.20017
721.28311	0.12573
719.35454	0.22910
717.42598	0.40246
715.49741	0.32843
713.56885	0.21526
711.64028	0.14276
709.71172	0.06731
707.78315	0.02780
705.85459	0.10347
703.92603	0.37009
701.99746	1.32289
700.06890	1.13787
698.14033	0.68426
696.21177	0.60698
694.28320	0.57857
692.35464	0.53921
690.42607	0.50638
688.49751	0.50727
686.56895	0.52359
684.64038	0.54095
682.71182	0.61441
680.78325	0.75027
678.85469	0.73211
676.92612	0.58868
674.99756	0.50638
673.06899	0.44164
671.14043	0.37309
669.21187	0.33034
667.28330	0.33401
665.35474	0.41365
663.42617	0.55452
661.49761	0.59544
659.56904	0.54784
657.64048	0.45598
655.71191	0.32906
653.78335	0.29071
651.85479	0.35090
649.92622	0.44202
647.99766	0.47094
646.06909	0.38050
644.14053	0.27623
642.21196	0.27633
640.28340	0.35611
638.35483	0.40235
636.42627	0.40257
634.49771	0.49155
632.56914	0.68790
630.64058	0.71476
628.71201	0.49255
626.78345	0.35467
624.85488	0.28230
622.92632	0.23308
620.99775	0.21912
619.06919	0.26365
617.14062	0.30926
615.21206	0.28082
613.28350	0.26381
611.35493	0.30559
609.42637	0.29848
607.49780	0.21977
605.56924	0.19183
603.64067	0.25848
601.71211	0.34958
599.78354	0.36164
597.85498	0.31118
595.92642	0.29712
593.99785	0.33742
592.06929	0.39555
590.14072	0.48557
588.21216	0.56208
586.28359	0.45297
584.35503	0.37768
582.42646	0.37489
580.49790	0.35854
578.56934	0.31367
576.64077	0.28426
574.71221	0.30419
572.78364	0.35197
570.85508	0.36403
568.92651	0.33341
566.99795	0.30106
565.06938	0.32132
563.14082	0.36954
561.21226	0.32694
559.28369	0.23127
557.35513	0.20121
555.42656	0.23590
553.49800	0.27508
551.56943	0.28501
549.64087	0.31545
547.71230	0.35843
545.78374	0.36991
543.85518	0.38298
541.92661	0.36727
539.99805	0.32285
538.06948	0.31388
536.14092	0.31592
534.21235	0.29521
532.28379	0.25552
530.35522	0.21766
528.42666	0.20880
526.49810	0.24151
524.56953	0.26926
522.64097	0.25376
520.71240	0.24315
518.78384	0.22178
516.85527	0.17605
514.92671	0.18922
512.99814	0.24852
511.06958	0.32323
509.14102	0.38693
507.21245	0.37564
505.28389	0.36774
503.35532	0.44223
501.42676	0.53232
499.49819	0.45260
