3997.91411	0.05975
3995.98555	0.05983
3994.05698	0.06027
3992.12842	0.06059
3990.19985	0.06093
3988.27129	0.06149
3986.34272	0.06193
3984.41416	0.06222
3982.48560	0.06248
3980.55703	0.06275
3978.62847	0.06303
3976.69990	0.06319
3974.77134	0.06331
3972.84277	0.06355
3970.91421	0.06372
3968.98564	0.06372
3967.05708	0.06357
3965.12852	0.06337
3963.19995	0.06356
3961.27139	0.06428
3959.34282	0.06502
3957.41426	0.06527
3955.48569	0.06504
3953.55713	0.06470
3951.62856	0.06460
3949.70000	0.06476
3947.77144	0.06506
3945.84287	0.06532
3943.91431	0.06558
3941.98574	0.06601
3940.05718	0.06620
3938.12861	0.06595
3936.20005	0.06539
3934.27148	0.06480
3932.34292	0.06488
3930.41436	0.06535
3928.48579	0.06534
3926.55723	0.06516
3924.62866	0.06522
3922.70010	0.06520
3920.77153	0.06493
3918.84297	0.06474
3916.91440	0.06479
3914.98584	0.06469
3913.05728	0.06417
3911.12871	0.06375
3909.20015	0.06374
3907.27158	0.06375
3905.34302	0.06364
3903.41445	0.06378
3901.48589	0.06428
3899.55732	0.06474
3897.62876	0.06471
3895.70020	0.06441
3893.77163	0.06420
3891.84307	0.06420
3889.91450	0.06434
3887.98594	0.06427
3886.05737	0.06451
3884.12881	0.06514
3882.20024	0.06519
3880.27168	0.06525
3878.34312	0.06577
3876.41455	0.06584
3874.48599	0.06578
3872.55742	0.06579
3870.62886	0.06578
3868.70029	0.06638
3866.77173	0.06679
3864.84316	0.06666
3862.91460	0.06698
3860.98604	0.06771
3859.05747	0.06804
3857.12891	0.06756
3855.20034	0.06702
3853.27178	0.06832
3851.34321	0.07092
3849.41465	0.07121
3847.48608	0.07060
3845.55752	0.07035
3843.62896	0.07060
3841.70039	0.07122
3839.77183	0.07174
3837.84326	0.07266
3835.91470	0.07409
3833.98613	0.07495
3832.05757	0.07544
3830.12900	0.07600
3828.20044	0.07653
3826.27187	0.07722
3824.34331	0.07756
3822.41475	0.07729
3820.48618	0.07841
3818.55762	0.08059
3816.62905	0.08165
3814.70049	0.08310
3812.77192	0.08459
3810.84336	0.08482
3808.91479	0.08469
3806.98623	0.08555
3805.05767	0.08724
3803.12910	0.08816
3801.20054	0.08930
3799.27197	0.09142
3797.34341	0.09291
3795.41484	0.09421
3793.48628	0.09535
3791.55771	0.09608
3789.62915	0.09702
3787.70059	0.09827
3785.77202	0.09977
3783.84346	0.10176
3781.91489	0.10361
3779.98633	0.10493
3778.05776	0.10649
3776.12920	0.10812
3774.20063	0.10951
3772.27207	0.11102
3770.34351	0.11296
3768.41494	0.11537
3766.48638	0.11736
3764.55781	0.11900
3762.62925	0.12056
3760.70068	0.12221
3758.77212	0.12471
3756.84355	0.12747
3754.91499	0.12924
3752.98643	0.13090
3751.05786	0.13420
3749.12930	0.13877
3747.20073	0.14138
3745.27217	0.14332
3743.34360	0.14806
3741.41504	0.15315
3739.48647	0.15611
3737.55791	0.15933
3735.62935	0.16460
3733.70078	0.17142
3731.77222	0.17751
3729.84365	0.18253
3727.91509	0.18694
3725.98652	0.19213
3724.05796	0.19843
3722.12939	0.20497
3720.20083	0.21188
3718.27227	0.21868
3716.34370	0.22517
3714.41514	0.23179
3712.48657	0.24044
3710.55801	0.25393
3708.62944	0.26937
3706.70088	0.28206
3704.77231	0.29356
3702.84375	0.30673
3700.91519	0.32373
3698.98662	0.34260
3697.05806	0.36059
3695.12949	0.37897
3693.20093	0.39796
3691.27236	0.41841
3689.34380	0.44476
3687.41523	0.47825
3685.48667	0.50940
3683.55811	0.53646
3681.62954	0.56483
3679.70098	0.59608
3677.77241	0.62842
3675.84385	0.66694
3673.91528	0.71915
3671.98672	0.76322
3670.05815	0.80308
3668.12959	0.85713
3666.20103	0.90696
3664.27246	0.94836
3662.34390	0.99241
3660.41533	1.03986
3658.48677	1.08620
3656.55820	1.13483
3654.62964	1.18905
3652.70107	1.23563
3650.77251	1.27635
3648.84395	1.33097
3646.91538	1.39811
3644.98682	1.45070
3643.05825	1.49184
3641.12969	1.53289
3639.20112	1.57775
3637.27256	1.62286
3635.34399	1.66641
3633.41543	1.70990
3631.48687	1.75078
3629.55830	1.79216
3627.62974	1.84636
3625.70117	1.89816
3623.77261	1.93391
3621.84404	1.96739
3619.91548	2.00470
3617.98691	2.04925
3616.05835	2.09290
3614.12979	2.12981
3612.20122	2.16881
3610.27266	2.20946
3608.34409	2.25056
3606.41553	2.29284
3604.48696	2.33237
3602.55840	2.36836
3600.62983	2.40669
3598.70127	2.44886
3596.77271	2.49084
3594.84414	2.53285
3592.91558	2.57585
3590.98701	2.61583
3589.05845	2.65216
3587.12988	2.69511
3585.20132	2.74318
3583.27275	2.78495
3581.34419	2.82437
3579.41562	2.86680
3577.48706	2.90990
3575.55850	2.95114
3573.62993	2.99247
3571.70137	3.03344
3569.77280	3.07400
3567.84424	3.11818
3565.91567	3.17188
3563.98711	3.22376
3562.05854	3.26585
3560.12998	3.30749
3558.20142	3.35258
3556.27285	3.39914
3554.34429	3.44496
3552.41572	3.49217
3550.48716	3.53954
3548.55859	3.58364
3546.63003	3.62666
3544.70146	3.67437
3542.77290	3.72503
3540.84434	3.77252
3538.91577	3.81825
3536.98721	3.86545
3535.05864	3.91607
3533.13008	3.96673
3531.20151	4.01543
3529.27295	4.06350
3527.34438	4.11143
3525.41582	4.16122
3523.48726	4.21491
3521.55869	4.26860
3519.63013	4.31741
3517.70156	4.36383
3515.77300	4.40951
3513.84443	4.45483
3511.91587	4.50066
3509.98730	4.54822
3508.05874	4.59720
3506.13018	4.64485
3504.20161	4.69019
3502.27305	4.73493
3500.34448	4.78281
3498.41592	4.83540
3496.48735	4.89068
3494.55879	4.94375
3492.63022	4.99199
3490.70166	5.03866
3488.77310	5.08755
3486.84453	5.13586
3484.91597	5.18016
3482.98740	5.22595
3481.05884	5.27765
3479.13027	5.33022
3477.20171	5.38562
3475.27314	5.44527
3473.34458	5.49676
3471.41602	5.53545
3469.48745	5.56976
3467.55889	5.61072
3465.63032	5.65900
3463.70176	5.70753
3461.77319	5.75580
3459.84463	5.80698
3457.91606	5.86320
3455.98750	5.92495
3454.05894	5.98546
3452.13037	6.03716
3450.20181	6.08557
3448.27324	6.13867
3446.34468	6.19346
3444.41611	6.24188
3442.48755	6.29045
3440.55898	6.33881
3438.63042	6.37876
3436.70186	6.41700
3434.77329	6.46035
3432.84473	6.50988
3430.91616	6.57012
3428.98760	6.63832
3427.05903	6.70204
3425.13047	6.76270
3423.20190	6.80229
3421.27334	6.81514
3419.34478	6.83585
3417.41621	6.87560
3415.48765	6.92943
3413.55908	6.99762
3411.63052	7.05757
3409.70195	7.08879
3407.77339	7.12179
3405.84482	7.17486
3403.91626	7.24973
3401.98770	7.31794
3400.05913	7.33576
3398.13057	7.34666
3396.20200	7.40092
3394.27344	7.46010
3392.34487	7.48993
3390.41631	7.53988
3388.48774	7.61321
3386.55918	7.65378
3384.63062	7.63456
3382.70205	7.61484
3380.77349	7.65121
3378.84492	7.69840
3376.91636	7.72541
3374.98779	7.76045
3373.05923	7.82222
3371.13066	7.88543
3369.20210	7.92241
3367.27354	7.91537
3365.34497	7.90186
3363.41641	7.92415
3361.48784	7.96480
3359.55928	8.01433
3357.63071	8.04382
3355.70215	8.03705
3353.77358	8.02559
3351.84502	8.03924
3349.91646	8.07635
3347.98789	8.13993
3346.05933	8.20924
3344.13076	8.22042
3342.20220	8.18041
3340.27363	8.19994
3338.34507	8.27346
3336.41650	8.24974
3334.48794	8.16961
3332.55937	8.14879
3330.63081	8.20457
3328.70225	8.25779
3326.77368	8.23501
3324.84512	8.18990
3322.91655	8.16666
3320.98799	8.18398
3319.05942	8.27172
3317.13086	8.39810
3315.20229	8.40819
3313.27373	8.31287
3311.34517	8.27848
3309.41660	8.31723
3307.48804	8.34731
3305.55947	8.37180
3303.63091	8.41347
3301.70234	8.41893
3299.77378	8.36366
3297.84521	8.27199
3295.91665	8.25265
3293.98809	8.29553
3292.05952	8.26279
3290.13096	8.18303
3288.20239	8.18611
3286.27383	8.27421
3284.34526	8.31992
3282.41670	8.30849
3280.48813	8.30792
3278.55957	8.35542
3276.63101	8.43940
3274.70244	8.50562
3272.77388	8.52812
3270.84531	8.49499
3268.91675	8.43194
3266.98818	8.38122
3265.05962	8.39636
3263.13105	8.47714
3261.20249	8.51737
3259.27393	8.47941
3257.34536	8.46866
3255.41680	8.49728
3253.48823	8.50505
3251.55967	8.50145
3249.63110	8.55043
3247.70254	8.63510
3245.77397	8.57602
3243.84541	8.39085
3241.91685	8.25949
3239.98828	8.24803
3238.05972	8.30380
3236.13115	8.33213
3234.20259	8.30563
3232.27402	8.22803
3230.34546	8.16521
3228.41689	8.17567
3226.48833	8.24171
3224.55977	8.31128
3222.63120	8.31020
3220.70264	8.25363
3218.77407	8.21028
3216.84551	8.17786
3214.91694	8.15583
3212.98838	8.14325
3211.05981	8.12521
3209.13125	8.09828
3207.20269	8.04003
3205.27412	7.97734
3203.34556	7.94986
3201.41699	7.92334
3199.48843	7.88663
3197.55986	7.87418
3195.63130	7.85948
3193.70273	7.82788
3191.77417	7.78792
3189.84561	7.72124
3187.91704	7.65962
3185.98848	7.62836
3184.05991	7.60743
3182.13135	7.55165
3180.20278	7.45679
3178.27422	7.38978
3176.34565	7.36340
3174.41709	7.32010
3172.48853	7.23793
3170.55996	7.14566
3168.63140	7.05317
3166.70283	6.96754
3164.77427	6.91113
3162.84570	6.87027
3160.91714	6.82505
3158.98857	6.78331
3157.06001	6.73099
3155.13145	6.64869
3153.20288	6.55696
3151.27432	6.48263
3149.34575	6.42219
3147.41719	6.35939
3145.48862	6.29015
3143.56006	6.21556
3141.63149	6.14524
3139.70293	6.08696
3137.77437	6.02642
3135.84580	5.95889
3133.91724	5.89353
3131.98867	5.82206
3130.06011	5.74116
3128.13154	5.66458
3126.20298	5.59684
3124.27441	5.52763
3122.34585	5.45224
3120.41729	5.37666
3118.48872	5.30030
3116.56016	5.22331
3114.63159	5.14853
3112.70303	5.07810
3110.77446	5.01267
3108.84590	4.94410
3106.91733	4.87329
3104.98877	4.80887
3103.06021	4.74686
3101.13164	4.68024
3099.20308	4.61080
3097.27451	4.54440
3095.34595	4.48187
3093.41738	4.41721
3091.48882	4.34813
3089.56025	4.27990
3087.63169	4.21565
3085.70312	4.15270
3083.77456	4.08919
3081.84600	4.02790
3079.91743	3.96998
3077.98887	3.91121
3076.06030	3.84950
3074.13174	3.78970
3072.20317	3.73304
3070.27461	3.67434
3068.34604	3.61444
3066.41748	3.55790
3064.48892	3.50405
3062.56035	3.44941
3060.63179	3.39260
3058.70322	3.33536
3056.77466	3.28006
3054.84609	3.22747
3052.91753	3.17649
3050.98896	3.12540
3049.06040	3.07393
3047.13184	3.02273
3045.20327	2.97211
3043.27471	2.92187
3041.34614	2.87234
3039.41758	2.82444
3037.48901	2.77749
3035.56045	2.73082
3033.63188	2.68470
3031.70332	2.63906
3029.77476	2.59466
3027.84619	2.55110
3025.91763	2.50721
3023.98906	2.46350
3022.06050	2.42020
3020.13193	2.37722
3018.20337	2.33541
3016.27480	2.29496
3014.34624	2.25496
3012.41768	2.21518
3010.48911	2.17652
3008.56055	2.13918
3006.63198	2.10217
3004.70342	2.06543
3002.77485	2.02945
3000.84629	1.99387
2998.91772	1.95918
2996.98916	1.92621
2995.06060	1.89451
2993.13203	1.86297
2991.20347	1.83137
2989.27490	1.80066
2987.34634	1.77104
2985.41777	1.74179
2983.48921	1.71301
2981.56064	1.68501
2979.63208	1.65733
2977.70352	1.62977
2975.77495	1.60286
2973.84639	1.57706
2971.91782	1.55196
2969.98926	1.52649
2968.06069	1.50064
2966.13213	1.47533
2964.20356	1.45041
2962.27500	1.42562
2960.34644	1.40118
2958.41787	1.37681
2956.48931	1.35233
2954.56074	1.32798
2952.63218	1.30379
2950.70361	1.27995
2948.77505	1.25685
2946.84648	1.23417
2944.91792	1.21124
2942.98936	1.18854
2941.06079	1.16674
2939.13223	1.14539
2937.20366	1.12402
2935.27510	1.10295
2933.34653	1.08214
2931.41797	1.06101
2929.48940	1.04022
2927.56084	1.02032
2925.63228	1.00041
2923.70371	0.98049
2921.77515	0.96125
2919.84658	0.94280
2917.91802	0.92520
2915.98945	0.90860
2914.06089	0.89317
2912.13232	0.87874
2910.20376	0.86452
2908.27520	0.84999
2906.34663	0.83536
2904.41807	0.82100
2902.48950	0.80721
2900.56094	0.79411
2898.63237	0.78145
2896.70381	0.76894
2894.77524	0.75640
2892.84668	0.74403
2890.91812	0.73226
2888.98955	0.72122
2887.06099	0.71057
2885.13242	0.69999
2883.20386	0.68944
2881.27529	0.67914
2879.34673	0.66921
2877.41816	0.65932
2875.48960	0.64930
2873.56104	0.63913
2871.63247	0.62849
2869.70391	0.61715
2867.77534	0.60522
2865.84678	0.59287
2863.91821	0.58033
2861.98965	0.56824
2860.06108	0.55702
2858.13252	0.54609
2856.20396	0.53486
2854.27539	0.52377
2852.34683	0.51348
2850.41826	0.50419
2848.48970	0.49579
2846.56113	0.48838
2844.63257	0.48208
2842.70400	0.47682
2840.77544	0.47199
2838.84687	0.46681
2836.91831	0.46134
2834.98975	0.45590
2833.06118	0.45040
2831.13262	0.44475
2829.20405	0.43904
2827.27549	0.43335
2825.34692	0.42761
2823.41836	0.42172
2821.48979	0.41567
2819.56123	0.40963
2817.63267	0.40388
2815.70410	0.39831
2813.77554	0.39252
2811.84697	0.38664
2809.91841	0.38088
2807.98984	0.37528
2806.06128	0.37000
2804.13271	0.36493
2802.20415	0.35984
2800.27559	0.35475
2798.34702	0.34969
2796.41846	0.34470
2794.48989	0.33995
2792.56133	0.33534
2790.63276	0.33079
2788.70420	0.32630
2786.77563	0.32180
2784.84707	0.31732
2782.91851	0.31289
2780.98994	0.30854
2779.06138	0.30439
2777.13281	0.30043
2775.20425	0.29650
2773.27568	0.29247
2771.34712	0.28844
2769.41855	0.28460
2767.48999	0.28103
2765.56143	0.27761
2763.63286	0.27414
2761.70430	0.27061
2759.77573	0.26715
2757.84717	0.26379
2755.91860	0.26056
2753.99004	0.25746
2752.06147	0.25446
2750.13291	0.25145
2748.20435	0.24840
2746.27578	0.24537
2744.34722	0.24245
2742.41865	0.23958
2740.49009	0.23671
2738.56152	0.23394
2736.63296	0.23143
2734.70439	0.22911
2732.77583	0.22672
2730.84727	0.22423
2728.91870	0.22182
2726.99014	0.21956
2725.06157	0.21731
2723.13301	0.21497
2721.20444	0.21267
2719.27588	0.21050
2717.34731	0.20846
2715.41875	0.20649
2713.49019	0.20453
2711.56162	0.20263
2709.63306	0.20082
2707.70449	0.19905
2705.77593	0.19736
2703.84736	0.19582
2701.91880	0.19434
2699.99023	0.19277
2698.06167	0.19108
2696.13311	0.18947
2694.20454	0.18811
2692.27598	0.18690
2690.34741	0.18564
2688.41885	0.18438
2686.49028	0.18315
2684.56172	0.18185
2682.63315	0.18052
2680.70459	0.17926
2678.77603	0.17801
2676.84746	0.17674
2674.91890	0.17553
2672.99033	0.17446
2671.06177	0.17350
2669.13320	0.17250
2667.20464	0.17140
2665.27607	0.17035
2663.34751	0.16943
2661.41895	0.16856
2659.49038	0.16765
2657.56182	0.16681
2655.63325	0.16607
2653.70469	0.16522
2651.77612	0.16423
2649.84756	0.16347
2647.91899	0.16295
2645.99043	0.16241
2644.06187	0.16176
2642.13330	0.16108
2640.20474	0.16048
2638.27617	0.15999
2636.34761	0.15949
2634.41904	0.15901
2632.49048	0.15865
2630.56191	0.15828
2628.63335	0.15782
2626.70479	0.15741
2624.77622	0.15702
2622.84766	0.15659
2620.91909	0.15624
2618.99053	0.15604
2617.06196	0.15582
2615.13340	0.15552
2613.20483	0.15525
2611.27627	0.15504
2609.34771	0.15491
2607.41914	0.15484
2605.49058	0.15472
2603.56201	0.15463
2601.63345	0.15473
2599.70488	0.15486
2597.77632	0.15482
2595.84775	0.15480
2593.91919	0.15492
2591.99062	0.15502
2590.06206	0.15501
2588.13350	0.15501
2586.20493	0.15508
2584.27637	0.15521
2582.34780	0.15540
2580.41924	0.15565
2578.49067	0.15590
2576.56211	0.15615
2574.63354	0.15649
2572.70498	0.15695
2570.77642	0.15736
2568.84785	0.15763
2566.91929	0.15794
2564.99072	0.15838
2563.06216	0.15887
2561.13359	0.15930
2559.20503	0.15963
2557.27646	0.16000
2555.34790	0.16057
2553.41934	0.16120
2551.49077	0.16174
2549.56221	0.16220
2547.63364	0.16270
2545.70508	0.16331
2543.77651	0.16395
2541.84795	0.16450
2539.91938	0.16499
2537.99082	0.16549
2536.06226	0.16606
2534.13369	0.16679
2532.20513	0.16756
2530.27656	0.16818
2528.34800	0.16873
2526.41943	0.16935
2524.49087	0.17006
2522.56230	0.17082
2520.63374	0.17158
2518.70518	0.17229
2516.77661	0.17298
2514.84805	0.17373
2512.91948	0.17453
2510.99092	0.17535
2509.06235	0.17613
2507.13379	0.17690
2505.20522	0.17772
2503.27666	0.17858
2501.34810	0.17949
2499.41953	0.18041
2497.49097	0.18113
2495.56240	0.18170
2493.63384	0.18248
2491.70527	0.18352
2489.77671	0.18446
2487.84814	0.18520
2485.91958	0.18603
2483.99102	0.18701
2482.06245	0.18796
2480.13389	0.18883
2478.20532	0.18970
2476.27676	0.19056
2474.34819	0.19133
2472.41963	0.19213
2470.49106	0.19313
2468.56250	0.19410
2466.63394	0.19491
2464.70537	0.19575
2462.77681	0.19665
2460.84824	0.19756
2458.91968	0.19845
2456.99111	0.19930
2455.06255	0.20021
2453.13398	0.20123
2451.20542	0.20232
2449.27686	0.20344
2447.34829	0.20452
2445.41973	0.20550
2443.49116	0.20639
2441.56260	0.20721
2439.63403	0.20806
2437.70547	0.20905
2435.77690	0.21015
2433.84834	0.21124
2431.91978	0.21229
2429.99121	0.21338
2428.06265	0.21450
2426.13408	0.21556
2424.20552	0.21656
2422.27695	0.21765
2420.34839	0.21878
2418.41982	0.21988
2416.49126	0.22100
2414.56270	0.22222
2412.63413	0.22348
2410.70557	0.22470
2408.77700	0.22581
2406.84844	0.22681
2404.91987	0.22787
2402.99131	0.22907
2401.06274	0.23034
2399.13418	0.23157
2397.20562	0.23280
2395.27705	0.23401
2393.34849	0.23527
2391.41992	0.23667
2389.49136	0.23819
2387.56279	0.24001
2385.63423	0.24244
2383.70566	0.24566
2381.77710	0.24961
2379.84854	0.25418
2377.91997	0.25939
2375.99141	0.26545
2374.06284	0.27262
2372.13428	0.28077
2370.20571	0.28931
2368.27715	0.29767
2366.34858	0.30580
2364.42002	0.31351
2362.49146	0.31968
2360.56289	0.32352
2358.63433	0.32505
2356.70576	0.32361
2354.77720	0.31892
2352.84863	0.31240
2350.92007	0.30563
2348.99150	0.30124
2347.06294	0.30166
2345.13437	0.30773
2343.20581	0.31612
2341.27725	0.32103
2339.34868	0.32243
2337.42012	0.32250
2335.49155	0.32231
2333.56299	0.32243
2331.63442	0.32337
2329.70586	0.32457
2327.77729	0.32501
2325.84873	0.32439
2323.92017	0.32325
2321.99160	0.32214
2320.06304	0.32114
2318.13447	0.31999
2316.20591	0.31883
2314.27734	0.31827
2312.34878	0.31842
2310.42021	0.31877
2308.49165	0.31882
2306.56309	0.31855
2304.63452	0.31841
2302.70596	0.31876
2300.77739	0.31940
2298.84883	0.32015
2296.92026	0.32110
2294.99170	0.32229
2293.06313	0.32354
2291.13457	0.32477
2289.20601	0.32598
2287.27744	0.32712
2285.34888	0.32832
2283.42031	0.32980
2281.49175	0.33163
2279.56318	0.33377
2277.63462	0.33606
2275.70605	0.33831
2273.77749	0.34044
2271.84893	0.34254
2269.92036	0.34468
2267.99180	0.34683
2266.06323	0.34885
2264.13467	0.35081
2262.20610	0.35288
2260.27754	0.35497
2258.34897	0.35696
2256.42041	0.35894
2254.49185	0.36101
2252.56328	0.36310
2250.63472	0.36522
2248.70615	0.36734
2246.77759	0.36938
2244.84902	0.37141
2242.92046	0.37357
2240.99189	0.37595
2239.06333	0.37835
2237.13477	0.38059
2235.20620	0.38272
2233.27764	0.38492
2231.34907	0.38720
2229.42051	0.38946
2227.49194	0.39168
2225.56338	0.39386
2223.63481	0.39601
2221.70625	0.39815
2219.77769	0.40027
2217.84912	0.40242
2215.92056	0.40465
2213.99199	0.40691
2212.06343	0.40913
2210.13486	0.41135
2208.20630	0.41363
2206.27773	0.41587
2204.34917	0.41799
2202.42061	0.42006
2200.49204	0.42216
2198.56348	0.42427
2196.63491	0.42632
2194.70635	0.42828
2192.77778	0.43008
2190.84922	0.43183
2188.92065	0.43368
2186.99209	0.43561
2185.06353	0.43756
2183.13496	0.43946
2181.20640	0.44116
2179.27783	0.44268
2177.34927	0.44421
2175.42070	0.44577
2173.49214	0.44735
2171.56357	0.44889
2169.63501	0.45032
2167.70645	0.45162
2165.77788	0.45280
2163.84932	0.45398
2161.92075	0.45518
2159.99219	0.45638
2158.06362	0.45747
2156.13506	0.45846
2154.20649	0.45934
2152.27793	0.46009
2150.34937	0.46079
2148.42080	0.46150
2146.49224	0.46214
2144.56367	0.46253
2142.63511	0.46287
2140.70654	0.46324
2138.77798	0.46355
2136.84941	0.46375
2134.92085	0.46382
2132.99229	0.46377
2131.06372	0.46371
2129.13516	0.46360
2127.20659	0.46329
2125.27803	0.46296
2123.34946	0.46265
2121.42090	0.46219
2119.49233	0.46153
2117.56377	0.46083
2115.63521	0.46010
2113.70664	0.45932
2111.77808	0.45851
2109.84951	0.45759
2107.92095	0.45654
2105.99238	0.45542
2104.06382	0.45421
2102.13525	0.45285
2100.20669	0.45144
2098.27812	0.45003
2096.34956	0.44851
2094.42100	0.44687
2092.49243	0.44527
2090.56387	0.44364
2088.63530	0.44191
2086.70674	0.44012
2084.77817	0.43826
2082.84961	0.43638
2080.92104	0.43444
2078.99248	0.43240
2077.06392	0.43028
2075.13535	0.42802
2073.20679	0.42564
2071.27822	0.42328
2069.34966	0.42098
2067.42109	0.41861
2065.49253	0.41629
2063.56396	0.41395
2061.63540	0.41148
2059.70684	0.40897
2057.77827	0.40648
2055.84971	0.40393
2053.92114	0.40135
2051.99258	0.39879
2050.06401	0.39614
2048.13545	0.39343
2046.20688	0.39075
2044.27832	0.38808
2042.34976	0.38529
2040.42119	0.38245
2038.49263	0.37969
2036.56406	0.37695
2034.63550	0.37417
2032.70693	0.37127
2030.77837	0.36828
2028.84980	0.36536
2026.92124	0.36258
2024.99268	0.35988
2023.06411	0.35718
2021.13555	0.35444
2019.20698	0.35167
2017.27842	0.34886
2015.34985	0.34602
2013.42129	0.34322
2011.49272	0.34045
2009.56416	0.33771
2007.63560	0.33501
2005.70703	0.33235
2003.77847	0.32968
2001.84990	0.32694
1999.92134	0.32420
1997.99277	0.32149
1996.06421	0.31889
1994.13564	0.31644
1992.20708	0.31404
1990.27852	0.31155
1988.34995	0.30899
1986.42139	0.30639
1984.49282	0.30379
1982.56426	0.30131
1980.63569	0.29905
1978.70713	0.29686
1976.77856	0.29462
1974.85000	0.29240
1972.92144	0.29024
1970.99287	0.28807
1969.06431	0.28585
1967.13574	0.28368
1965.20718	0.28162
1963.27861	0.27966
1961.35005	0.27776
1959.42148	0.27593
1957.49292	0.27416
1955.56436	0.27232
1953.63579	0.27045
1951.70723	0.26872
1949.77866	0.26710
1947.85010	0.26543
1945.92153	0.26374
1943.99297	0.26212
1942.06440	0.26064
1940.13584	0.25928
1938.20728	0.25787
1936.27871	0.25646
1934.35015	0.25513
1932.42158	0.25384
1930.49302	0.25257
1928.56445	0.25136
1926.63589	0.25024
1924.70732	0.24919
1922.77876	0.24812
1920.85020	0.24701
1918.92163	0.24605
1916.99307	0.24526
1915.06450	0.24447
1913.13594	0.24357
1911.20737	0.24274
1909.27881	0.24202
1907.35024	0.24140
1905.42168	0.24080
1903.49312	0.24022
1901.56455	0.23966
1899.63599	0.23914
1897.70742	0.23869
1895.77886	0.23826
1893.85029	0.23786
1891.92173	0.23742
1889.99316	0.23709
1888.06460	0.23688
1886.13604	0.23666
1884.20747	0.23644
1882.27891	0.23628
1880.35034	0.23622
1878.42178	0.23623
1876.49321	0.23626
1874.56465	0.23620
1872.63608	0.23619
1870.70752	0.23625
1868.77896	0.23657
1866.85039	0.23701
1864.92183	0.23720
1862.99326	0.23736
1861.06470	0.23761
1859.13613	0.23799
1857.20757	0.23840
1855.27900	0.23886
1853.35044	0.23928
1851.42187	0.23966
1849.49331	0.24007
1847.56475	0.24058
1845.63618	0.24125
1843.70762	0.24226
1841.77905	0.24333
1839.85049	0.24405
1837.92192	0.24488
1835.99336	0.24579
1834.06479	0.24663
1832.13623	0.24745
1830.20767	0.24874
1828.27910	0.25035
1826.35054	0.25160
1824.42197	0.25292
1822.49341	0.25431
1820.56484	0.25559
1818.63628	0.25691
1816.70771	0.25847
1814.77915	0.26007
1812.85059	0.26173
1810.92202	0.26366
1808.99346	0.26578
1807.06489	0.26792
1805.13633	0.26993
1803.20776	0.27204
1801.27920	0.27438
1799.35063	0.27713
1797.42207	0.27976
1795.49351	0.28211
1793.56494	0.28467
1791.63638	0.28821
1789.70781	0.29195
1787.77925	0.29480
1785.85068	0.29798
1783.92212	0.30171
1781.99355	0.30563
1780.06499	0.30973
1778.13643	0.31406
1776.20786	0.31811
1774.27930	0.32215
1772.35073	0.32756
1770.42217	0.33391
1768.49360	0.33959
1766.56504	0.34496
1764.63647	0.35031
1762.70791	0.35604
1760.77935	0.36334
1758.85078	0.37041
1756.92222	0.37749
1754.99365	0.38521
1753.06509	0.39214
1751.13652	0.39998
1749.20796	0.40968
1747.27939	0.41958
1745.35083	0.42868
1743.42227	0.43822
1741.49370	0.44860
1739.56514	0.46066
1737.63657	0.47276
1735.70801	0.48345
1733.77944	0.49956
1731.85088	0.51936
1729.92231	0.53555
1727.99375	0.55194
1726.06519	0.56954
1724.13662	0.58844
1722.20806	0.60855
1720.27949	0.62722
1718.35093	0.64898
1716.42236	0.68044
1714.49380	0.71120
1712.56523	0.73701
1710.63667	0.76201
1708.70811	0.78849
1706.77954	0.81805
1704.85098	0.85297
1702.92241	0.88492
1700.99385	0.91724
1699.06528	0.96404
1697.13672	1.00699
1695.20815	1.05167
1693.27959	1.09674
1691.35103	1.13377
1689.42246	1.17594
1687.49390	1.22031
1685.56533	1.26304
1683.63677	1.32722
1681.70820	1.39545
1679.77964	1.44068
1677.85107	1.48307
1675.92251	1.53211
1673.99395	1.59275
1672.06538	1.64687
1670.13682	1.69885
1668.20825	1.76628
1666.27969	1.82441
1664.35112	1.87561
1662.42256	1.93929
1660.49399	2.01078
1658.56543	2.06691
1656.63687	2.11210
1654.70830	2.15317
1652.77974	2.21266
1650.85117	2.26801
1648.92261	2.28784
1646.99404	2.31211
1645.06548	2.33915
1643.13691	2.35798
1641.20835	2.36809
1639.27979	2.37511
1637.35122	2.37625
1635.42266	2.37067
1633.49409	2.36168
1631.56553	2.34817
1629.63696	2.32985
1627.70840	2.29880
1625.77983	2.26301
1623.85127	2.21842
1621.92271	2.16372
1619.99414	2.11436
1618.06558	2.06653
1616.13701	2.00160
1614.20845	1.93587
1612.27988	1.88428
1610.35132	1.83049
1608.42275	1.77275
1606.49419	1.71606
1604.56562	1.66383
1602.63706	1.61352
1600.70850	1.56474
1598.77993	1.52034
1596.85137	1.47902
1594.92280	1.43895
1592.99424	1.40030
1591.06567	1.36497
1589.13711	1.33239
1587.20854	1.30260
1585.27998	1.27526
1583.35142	1.24995
1581.42285	1.22714
1579.49429	1.20765
1577.56572	1.19039
1575.63716	1.17114
1573.70859	1.15494
1571.78003	1.14427
1569.85146	1.13408
1567.92290	1.12406
1565.99434	1.11708
1564.06577	1.11245
1562.13721	1.10928
1560.20864	1.10817
1558.28008	1.11193
1556.35151	1.11769
1554.42295	1.12106
1552.49438	1.12393
1550.56582	1.12495
1548.63726	1.12321
1546.70869	1.11829
1544.78013	1.10932
1542.85156	1.09610
1540.92300	1.07655
1538.99443	1.04769
1537.06587	1.02546
1535.13730	1.00941
1533.20874	0.98914
1531.28018	0.96789
1529.35161	0.95173
1527.42305	0.93637
1525.49448	0.92056
1523.56592	0.90690
1521.63735	0.89449
1519.70879	0.88262
1517.78022	0.87197
1515.85166	0.85953
1513.92310	0.84643
1511.99453	0.83444
1510.06597	0.82327
1508.13740	0.81252
1506.20884	0.79767
1504.28027	0.78479
1502.35171	0.77706
1500.42314	0.77012
1498.49458	0.76276
1496.56602	0.75464
1494.63745	0.74674
1492.70889	0.74023
1490.78032	0.73417
1488.85176	0.72773
1486.92319	0.72225
1484.99463	0.71793
1483.06606	0.71440
1481.13750	0.71148
1479.20894	0.70926
1477.28037	0.70797
1475.35181	0.70739
1473.42324	0.70711
1471.49468	0.70639
1469.56611	0.70473
1467.63755	0.70248
1465.70898	0.70042
1463.78042	0.69923
1461.85186	0.69879
1459.92329	0.69866
1457.99473	0.69884
1456.06616	0.69883
1454.13760	0.69737
1452.20903	0.69510
1450.28047	0.69261
1448.35190	0.69026
1446.42334	0.68797
1444.49478	0.68563
1442.56621	0.68325
1440.63765	0.68075
1438.70908	0.67802
1436.78052	0.67457
1434.85195	0.67082
1432.92339	0.66793
1430.99482	0.66594
1429.06626	0.66501
1427.13770	0.66506
1425.20913	0.66561
1423.28057	0.66651
1421.35200	0.66725
1419.42344	0.66756
1417.49487	0.66750
1415.56631	0.66685
1413.63774	0.66609
1411.70918	0.66591
1409.78062	0.66668
1407.85205	0.66816
1405.92349	0.66998
1403.99492	0.67168
1402.06636	0.67231
1400.13779	0.67173
1398.20923	0.67011
1396.28066	0.66754
1394.35210	0.66384
1392.42354	0.65942
1390.49497	0.65507
1388.56641	0.65055
1386.63784	0.64536
1384.70928	0.64002
1382.78071	0.63497
1380.85215	0.63012
1378.92358	0.62590
1376.99502	0.62276
1375.06646	0.62065
1373.13789	0.61932
1371.20933	0.61856
1369.28076	0.61797
1367.35220	0.61694
1365.42363	0.61527
1363.49507	0.61342
1361.56650	0.61184
1359.63794	0.61046
1357.70937	0.60916
1355.78081	0.60790
1353.85225	0.60678
1351.92368	0.60586
1349.99512	0.60505
1348.06655	0.60420
1346.13799	0.60334
1344.20942	0.60254
1342.28086	0.60180
1340.35229	0.60112
1338.42373	0.60047
1336.49517	0.59982
1334.56660	0.59931
1332.63804	0.59918
1330.70947	0.59943
1328.78091	0.59988
1326.85234	0.60054
1324.92378	0.60140
1322.99521	0.60224
1321.06665	0.60291
1319.13809	0.60350
1317.20952	0.60400
1315.28096	0.60419
1313.35239	0.60387
1311.42383	0.60311
1309.49526	0.60234
1307.56670	0.60179
1305.63813	0.60129
1303.70957	0.60063
1301.78101	0.59973
1299.85244	0.59860
1297.92388	0.59739
1295.99531	0.59611
1294.06675	0.59460
1292.13818	0.59298
1290.20962	0.59143
1288.28105	0.59002
1286.35249	0.58880
1284.42393	0.58769
1282.49536	0.58640
1280.56680	0.58491
1278.63823	0.58347
1276.70967	0.58216
1274.78110	0.58087
1272.85254	0.57977
1270.92397	0.57904
1268.99541	0.57843
1267.06685	0.57762
1265.13828	0.57678
1263.20972	0.57602
1261.28115	0.57520
1259.35259	0.57453
1257.42402	0.57413
1255.49546	0.57387
1253.56689	0.57378
1251.63833	0.57394
1249.70977	0.57412
1247.78120	0.57408
1245.85264	0.57394
1243.92407	0.57363
1241.99551	0.57285
1240.06694	0.57143
1238.13838	0.56950
1236.20981	0.56731
1234.28125	0.56508
1232.35269	0.56289
1230.42412	0.56069
1228.49556	0.55843
1226.56699	0.55619
1224.63843	0.55416
1222.70986	0.55233
1220.78130	0.55057
1218.85273	0.54898
1216.92417	0.54769
1214.99561	0.54663
1213.06704	0.54566
1211.13848	0.54487
1209.20991	0.54429
1207.28135	0.54371
1205.35278	0.54290
1203.42422	0.54181
1201.49565	0.54069
1199.56709	0.53974
1197.63853	0.53890
1195.70996	0.53813
1193.78140	0.53739
1191.85283	0.53668
1189.92427	0.53604
1187.99570	0.53557
1186.06714	0.53532
1184.13857	0.53531
1182.21001	0.53571
1180.28145	0.53668
1178.35288	0.53808
1176.42432	0.53957
1174.49575	0.54092
1172.56719	0.54192
1170.63862	0.54231
1168.71006	0.54230
1166.78149	0.54230
1164.85293	0.54243
1162.92437	0.54251
1160.99580	0.54236
1159.06724	0.54206
1157.13867	0.54162
1155.21011	0.54082
1153.28154	0.53958
1151.35298	0.53789
1149.42441	0.53563
1147.49585	0.53291
1145.56729	0.52996
1143.63872	0.52702
1141.71016	0.52445
1139.78159	0.52253
1137.85303	0.52117
1135.92446	0.52011
1133.99590	0.51943
1132.06733	0.51917
1130.13877	0.51895
1128.21021	0.51855
1126.28164	0.51810
1124.35308	0.51755
1122.42451	0.51699
1120.49595	0.51689
1118.56738	0.51736
1116.63882	0.51811
1114.71025	0.51893
1112.78169	0.51963
1110.85312	0.52044
1108.92456	0.52146
1106.99600	0.52229
1105.06743	0.52299
1103.13887	0.52392
1101.21030	0.52510
1099.28174	0.52665
1097.35317	0.52883
1095.42461	0.53177
1093.49604	0.53542
1091.56748	0.53991
1089.63892	0.54562
1087.71035	0.55263
1085.78179	0.56062
1083.85322	0.56876
1081.92466	0.57604
1079.99609	0.58145
1078.06753	0.58405
1076.13896	0.58350
1074.21040	0.58011
1072.28184	0.57486
1070.35327	0.56857
1068.42471	0.56157
1066.49614	0.55448
1064.56758	0.54801
1062.63901	0.54244
1060.71045	0.53769
1058.78188	0.53355
1056.85332	0.52971
1054.92476	0.52614
1052.99619	0.52310
1051.06763	0.52051
1049.13906	0.51813
1047.21050	0.51630
1045.28193	0.51539
1043.35337	0.51499
1041.42480	0.51468
1039.49624	0.51448
1037.56768	0.51434
1035.63911	0.51416
1033.71055	0.51382
1031.78198	0.51303
1029.85342	0.51174
1027.92485	0.51030
1025.99629	0.50904
1024.06772	0.50800
1022.13916	0.50719
1020.21060	0.50670
1018.28203	0.50641
1016.35347	0.50623
1014.42490	0.50620
1012.49634	0.50624
1010.56777	0.50625
1008.63921	0.50643
1006.71064	0.50702
1004.78208	0.50817
1002.85352	0.51005
1000.92495	0.51271
998.99639	0.51607
997.06782	0.52011
995.13926	0.52461
993.21069	0.52890
991.28213	0.53236
989.35356	0.53466
987.42500	0.53572
985.49644	0.53588
983.56787	0.53574
981.63931	0.53577
979.71074	0.53634
977.78218	0.53761
975.85361	0.53960
973.92505	0.54220
971.99648	0.54524
970.06792	0.54864
968.13936	0.55235
966.21079	0.55645
964.28223	0.56092
962.35366	0.56551
960.42510	0.57023
958.49653	0.57539
956.56797	0.58107
954.63940	0.58726
952.71084	0.59374
950.78228	0.60001
948.85371	0.60612
946.92515	0.61247
944.99658	0.61879
943.06802	0.62495
941.13945	0.63130
939.21089	0.63771
937.28232	0.64389
935.35376	0.64980
933.42520	0.65538
931.49663	0.66085
929.56807	0.66664
927.63950	0.67295
925.71094	0.67945
923.78237	0.68541
921.85381	0.69115
919.92524	0.69777
917.99668	0.70530
916.06812	0.71308
914.13955	0.72094
912.21099	0.72876
910.28242	0.73664
908.35386	0.74495
906.42529	0.75345
904.49673	0.76250
902.56816	0.77260
900.63960	0.78265
898.71104	0.79172
896.78247	0.80009
894.85391	0.80892
892.92534	0.81933
890.99678	0.83078
889.06821	0.84215
887.13965	0.85322
885.21108	0.86457
883.28252	0.87639
881.35396	0.88775
879.42539	0.89882
877.49683	0.91042
875.56826	0.92243
873.63970	0.93439
871.71113	0.94548
869.78257	0.95588
867.85400	0.96723
865.92544	0.97960
863.99687	0.99179
862.06831	1.00353
860.13975	1.01474
858.21118	1.02554
856.28262	1.03695
854.35405	1.04981
852.42549	1.06446
850.49692	1.07913
848.56836	1.09004
846.63979	1.09846
844.71123	1.10974
842.78267	1.12325
840.85410	1.13501
838.92554	1.14461
836.99697	1.15330
835.06841	1.16333
833.13984	1.17649
831.21128	1.19017
829.28271	1.20328
827.35415	1.21836
825.42559	1.23448
823.49702	1.24967
821.56846	1.25925
819.63989	1.26384
817.71133	1.27543
815.78276	1.29332
813.85420	1.30757
811.92563	1.31259
809.99707	1.30484
808.06851	1.30009
806.13994	1.31617
804.21138	1.34623
802.28281	1.36985
800.35425	1.37667
798.42568	1.38805
796.49712	1.42056
794.56855	1.44478
792.63999	1.43554
790.71143	1.41864
788.78286	1.41413
786.85430	1.42363
784.92573	1.45668
782.99717	1.52783
781.06860	1.68001
779.14004	1.83473
777.21147	1.70847
775.28291	1.55264
773.35435	1.51820
771.42578	1.57744
769.49722	1.67028
767.56865	1.71897
765.64009	1.68792
763.71152	1.57800
761.78296	1.47299
759.85439	1.49183
757.92583	1.57540
755.99727	1.45721
754.06870	1.31945
752.14014	1.31099
750.21157	1.37132
748.28301	1.48031
746.35444	1.60848
744.42588	1.37755
742.49731	1.10141
740.56875	0.96228
738.64019	0.94269
736.71162	0.96062
734.78306	0.94700
732.85449	0.94238
730.92593	0.90509
728.99736	0.83470
727.06880	0.76586
725.14023	0.59682
723.21167	0.47484
721.28311	0.48291
719.35454	0.51459
717.42598	0.52832
715.49741	0.45518
713.56885	0.10730
711.64028	-0.11204
709.71172	0.46337
707.78315	0.73415
705.85459	0.37958
703.92603	0.19259
701.99746	0.16784
700.06890	0.16379
698.14033	0.13158
696.21177	0.10770
694.28320	0.10422
692.35464	0.11154
690.42607	0.13187
688.49751	0.14430
686.56895	0.15843
684.64038	0.20745
682.71182	0.24188
680.78325	0.22813
678.85469	0.21182
676.92612	0.24076
674.99756	0.37370
673.06899	0.59571
671.14043	0.55554
669.21187	0.47021
667.28330	0.42145
665.35474	0.34384
663.42617	0.33109
661.49761	0.37044
659.56904	0.32665
657.64048	0.23143
655.71191	0.20224
653.78335	0.21278
651.85479	0.18731
649.92622	0.18156
647.99766	0.19227
646.06909	0.24853
644.14053	0.37823
642.21196	0.44658
640.28340	0.46826
638.35483	0.44861
636.42627	0.30281
634.49771	0.22212
632.56914	0.22752
630.64058	0.24438
628.71201	0.28777
626.78345	0.33652
624.85488	0.29636
622.92632	0.21990
620.99775	0.18627
619.06919	0.19120
617.14062	0.20503
615.21206	0.21835
613.28350	0.29585
611.35493	0.46508
609.42637	0.46963
607.49780	0.28075
605.56924	0.18676
603.64067	0.20017
601.71211	0.23897
599.78354	0.30374
597.85498	0.40082
595.92642	0.39412
593.99785	0.29810
592.06929	0.28387
590.14072	0.31160
588.21216	0.34571
586.28359	0.43151
584.35503	0.54479
582.42646	0.52833
580.49790	0.41821
578.56934	0.31734
576.64077	0.22757
574.71221	0.16926
572.78364	0.19459
570.85508	0.27032
568.92651	0.34676
566.99795	0.34845
565.06938	0.24049
563.14082	0.17847
561.21226	0.22839
559.28369	0.34516
557.35513	0.52009
555.42656	0.78720
553.49800	3.32099
551.56943	3.30942
549.64087	1.32619
547.71230	0.45000
545.78374	0.24739
543.85518	0.19332
541.92661	0.20215
539.99805	0.17808
538.06948	0.14533
536.14092	0.19597
534.21235	0.29943
532.28379	0.28921
530.35522	0.20774
528.42666	0.20209
526.49810	0.29194
524.56953	0.41068
522.64097	0.41497
520.71240	0.32230
518.78384	0.29232
516.85527	0.28943
514.92671	0.24285
512.99814	0.22312
511.06958	0.24581
509.14102	0.27927
507.21245	0.26332
505.28389	0.22321
503.35532	0.24407
501.42676	0.25555
499.49819	0.17495
