3997.91411	0.07402
3995.98555	0.07475
3994.05698	0.07513
3992.12842	0.07516
3990.19985	0.07514
3988.27129	0.07518
3986.34272	0.07547
3984.41416	0.07586
3982.48560	0.07592
3980.55703	0.07607
3978.62847	0.07656
3976.69990	0.07677
3974.77134	0.07651
3972.84277	0.07657
3970.91421	0.07732
3968.98564	0.07808
3967.05708	0.07815
3965.12852	0.07786
3963.19995	0.07791
3961.27139	0.07829
3959.34282	0.07862
3957.41426	0.07875
3955.48569	0.07867
3953.55713	0.07874
3951.62856	0.07900
3949.70000	0.07891
3947.77144	0.07846
3945.84287	0.07824
3943.91431	0.07838
3941.98574	0.07878
3940.05718	0.07894
3938.12861	0.07836
3936.20005	0.07758
3934.27148	0.07737
3932.34292	0.07770
3930.41436	0.07834
3928.48579	0.07873
3926.55723	0.07859
3924.62866	0.07836
3922.70010	0.07816
3920.77153	0.07808
3918.84297	0.07816
3916.91440	0.07817
3914.98584	0.07820
3913.05728	0.07818
3911.12871	0.07798
3909.20015	0.07768
3907.27158	0.07745
3905.34302	0.07751
3903.41445	0.07790
3901.48589	0.07859
3899.55732	0.07919
3897.62876	0.07901
3895.70020	0.07829
3893.77163	0.07789
3891.84307	0.07810
3889.91450	0.07829
3887.98594	0.07795
3886.05737	0.07773
3884.12881	0.07790
3882.20024	0.07813
3880.27168	0.07861
3878.34312	0.07899
3876.41455	0.07888
3874.48599	0.07909
3872.55742	0.07963
3870.62886	0.07980
3868.70029	0.07996
3866.77173	0.08004
3864.84316	0.08021
3862.91460	0.08096
3860.98604	0.08146
3859.05747	0.08139
3857.12891	0.08143
3855.20034	0.08186
3853.27178	0.08298
3851.34321	0.08408
3849.41465	0.08377
3847.48608	0.08340
3845.55752	0.08357
3843.62896	0.08400
3841.70039	0.08464
3839.77183	0.08581
3837.84326	0.08739
3835.91470	0.08833
3833.98613	0.08851
3832.05757	0.08872
3830.12900	0.08902
3828.20044	0.08945
3826.27187	0.09014
3824.34331	0.09072
3822.41475	0.09150
3820.48618	0.09342
3818.55762	0.09523
3816.62905	0.09606
3814.70049	0.09666
3812.77192	0.09671
3810.84336	0.09661
3808.91479	0.09716
3806.98623	0.09853
3805.05767	0.10002
3803.12910	0.10096
3801.20054	0.10218
3799.27197	0.10380
3797.34341	0.10488
3795.41484	0.10568
3793.48628	0.10625
3791.55771	0.10694
3789.62915	0.10819
3787.70059	0.10972
3785.77202	0.11129
3783.84346	0.11287
3781.91489	0.11429
3779.98633	0.11593
3778.05776	0.11800
3776.12920	0.11988
3774.20063	0.12158
3772.27207	0.12339
3770.34351	0.12535
3768.41494	0.12722
3766.48638	0.12870
3764.55781	0.13044
3762.62925	0.13236
3760.70068	0.13424
3758.77212	0.13670
3756.84355	0.13943
3754.91499	0.14173
3752.98643	0.14444
3751.05786	0.14871
3749.12930	0.15295
3747.20073	0.15458
3745.27217	0.15593
3743.34360	0.15982
3741.41504	0.16431
3739.48647	0.16723
3737.55791	0.17026
3735.62935	0.17523
3733.70078	0.18194
3731.77222	0.18714
3729.84365	0.19074
3727.91509	0.19474
3725.98652	0.20011
3724.05796	0.20660
3722.12939	0.21337
3720.20083	0.22025
3718.27227	0.22718
3716.34370	0.23436
3714.41514	0.24192
3712.48657	0.25109
3710.55801	0.26399
3708.62944	0.27827
3706.70088	0.29041
3704.77231	0.30184
3702.84375	0.31477
3700.91519	0.33145
3698.98662	0.35008
3697.05806	0.36789
3695.12949	0.38669
3693.20093	0.40668
3691.27236	0.42802
3689.34380	0.45494
3687.41523	0.48859
3685.48667	0.51962
3683.55811	0.54690
3681.62954	0.57578
3679.70098	0.60778
3677.77241	0.64126
3675.84385	0.68037
3673.91528	0.73186
3671.98672	0.77503
3670.05815	0.81402
3668.12959	0.86737
3666.20103	0.91785
3664.27246	0.96040
3662.34390	1.00469
3660.41533	1.05186
3658.48677	1.09855
3656.55820	1.14811
3654.62964	1.20290
3652.70107	1.24956
3650.77251	1.29057
3648.84395	1.34563
3646.91538	1.41241
3644.98682	1.46396
3643.05825	1.50460
3641.12969	1.54554
3639.20112	1.59025
3637.27256	1.63500
3635.34399	1.67861
3633.41543	1.72292
3631.48687	1.76443
3629.55830	1.80590
3627.62974	1.85970
3625.70117	1.90983
3623.77261	1.94366
3621.84404	1.97655
3619.91548	2.01479
3617.98691	2.06051
3616.05835	2.10489
3614.12979	2.14287
3612.20122	2.18260
3610.27266	2.22258
3608.34409	2.26321
3606.41553	2.30623
3604.48696	2.34581
3602.55840	2.38102
3600.62983	2.41909
3598.70127	2.46101
3596.77271	2.50236
3594.84414	2.54402
3592.91558	2.58619
3590.98701	2.62571
3589.05845	2.66290
3587.12988	2.70641
3585.20132	2.75421
3583.27275	2.79526
3581.34419	2.83271
3579.41562	2.87288
3577.48706	2.91607
3575.55850	2.96047
3573.62993	3.00647
3571.70137	3.05080
3569.77280	3.09163
3567.84424	3.13477
3565.91567	3.18861
3563.98711	3.24045
3562.05854	3.28110
3560.12998	3.32180
3558.20142	3.36640
3556.27285	3.41081
3554.34429	3.45327
3552.41572	3.49891
3550.48716	3.54738
3548.55859	3.59396
3546.63003	3.63985
3544.70146	3.68724
3542.77290	3.73322
3540.84434	3.77876
3538.91577	3.82746
3536.98721	3.87657
3535.05864	3.92580
3533.13008	3.97559
3531.20151	4.02433
3529.27295	4.07225
3527.34438	4.12095
3525.41582	4.16749
3523.48726	4.21324
3521.55869	4.26453
3519.63013	4.31701
3517.70156	4.36490
3515.77300	4.40813
3513.84443	4.45223
3511.91587	4.50078
3509.98730	4.55141
3508.05874	4.60303
3506.13018	4.65350
3504.20161	4.70065
3502.27305	4.74770
3500.34448	4.79527
3498.41592	4.84350
3496.48735	4.89830
3494.55879	4.95347
3492.63022	4.99959
3490.70166	5.04346
3488.77310	5.09005
3486.84453	5.13878
3484.91597	5.19386
3482.98740	5.24906
3481.05884	5.29237
3479.13027	5.33383
3477.20171	5.38869
3475.27314	5.44635
3473.34458	5.49561
3471.41602	5.54170
3469.48745	5.58407
3467.55889	5.62235
3465.63032	5.66777
3463.70176	5.72636
3461.77319	5.78794
3459.84463	5.84503
3457.91606	5.89507
3455.98750	5.93747
3454.05894	5.98200
3452.13037	6.03296
3450.20181	6.08186
3448.27324	6.12653
3446.34468	6.16944
3444.41611	6.21022
3442.48755	6.26653
3440.55898	6.33850
3438.63042	6.40196
3436.70186	6.44868
3434.77329	6.48689
3432.84473	6.52528
3430.91616	6.56776
3428.98760	6.62089
3427.05903	6.67754
3425.13047	6.73019
3423.20190	6.77996
3421.27334	6.83647
3419.34478	6.88980
3417.41621	6.92310
3415.48765	6.94951
3413.55908	6.97989
3411.63052	7.03088
3409.70195	7.09881
3407.77339	7.15815
3405.84482	7.19662
3403.91626	7.22907
3401.98770	7.27203
3400.05913	7.33324
3398.13057	7.39824
3396.20200	7.43450
3394.27344	7.46312
3392.34487	7.51740
3390.41631	7.57991
3388.48774	7.59054
3386.55918	7.57392
3384.63062	7.60044
3382.70205	7.65855
3380.77349	7.70364
3378.84492	7.71850
3376.91636	7.70588
3374.98779	7.69882
3373.05923	7.74002
3371.13066	7.78449
3369.20210	7.80727
3367.27354	7.85066
3365.34497	7.91501
3363.41641	7.95386
3361.48784	7.97139
3359.55928	8.01292
3357.63071	8.06457
3355.70215	8.08795
3353.77358	8.04910
3351.84502	8.00901
3349.91646	7.99898
3347.98789	7.97844
3346.05933	7.99017
3344.13076	8.06888
3342.20220	8.13809
3340.27363	8.14547
3338.34507	8.14462
3336.41650	8.13426
3334.48794	8.10973
3332.55937	8.08726
3330.63081	8.05504
3328.70225	8.01144
3326.77368	8.01247
3324.84512	8.08807
3322.91655	8.15654
3320.98799	8.18124
3319.05942	8.18520
3317.13086	8.18218
3315.20229	8.19799
3313.27373	8.23540
3311.34517	8.25667
3309.41660	8.27763
3307.48804	8.32187
3305.55947	8.35080
3303.63091	8.35164
3301.70234	8.34277
3299.77378	8.34065
3297.84521	8.29606
3295.91665	8.21447
3293.98809	8.19588
3292.05952	8.27120
3290.13096	8.33691
3288.20239	8.36494
3286.27383	8.42212
3284.34526	8.41002
3282.41670	8.34170
3280.48813	8.34221
3278.55957	8.38333
3276.63101	8.37305
3274.70244	8.29473
3272.77388	8.25693
3270.84531	8.32603
3268.91675	8.38356
3266.98818	8.33240
3265.05962	8.28623
3263.13105	8.34542
3261.20249	8.45233
3259.27393	8.46693
3257.34536	8.40884
3255.41680	8.35769
3253.48823	8.33259
3251.55967	8.34693
3249.63110	8.33918
3247.70254	8.28553
3245.77397	8.27931
3243.84541	8.38009
3241.91685	8.49707
3239.98828	8.47103
3238.05972	8.30750
3236.13115	8.17703
3234.20259	8.19095
3232.27402	8.28492
3230.34546	8.28504
3228.41689	8.20788
3226.48833	8.19963
3224.55977	8.21780
3222.63120	8.17388
3220.70264	8.11312
3218.77407	8.09106
3216.84551	8.08718
3214.91694	8.09658
3212.98838	8.12042
3211.05981	8.07901
3209.13125	7.96956
3207.20269	7.88725
3205.27412	7.85888
3203.34556	7.84180
3201.41699	7.81473
3199.48843	7.79526
3197.55986	7.78615
3195.63130	7.75069
3193.70273	7.67719
3191.77417	7.61149
3189.84561	7.56753
3187.91704	7.51646
3185.98848	7.47297
3184.05991	7.45286
3182.13135	7.41758
3180.20278	7.36464
3178.27422	7.30924
3176.34565	7.24051
3174.41709	7.15472
3172.48853	7.07059
3170.55996	7.02464
3168.63140	7.00906
3166.70283	6.98008
3164.77427	6.92900
3162.84570	6.86822
3160.91714	6.79544
3158.98857	6.71751
3157.06001	6.65859
3155.13145	6.61427
3153.20288	6.55507
3151.27432	6.47966
3149.34575	6.39479
3147.41719	6.30751
3145.48862	6.24337
3143.56006	6.19745
3141.63149	6.13650
3139.70293	6.05626
3137.77437	5.98124
3135.84580	5.91560
3133.91724	5.84480
3131.98867	5.77045
3130.06011	5.69997
3128.13154	5.63377
3126.20298	5.56638
3124.27441	5.49384
3122.34585	5.42171
3120.41729	5.35333
3118.48872	5.28278
3116.56016	5.20837
3114.63159	5.13607
3112.70303	5.06646
3110.77446	4.99860
3108.84590	4.93327
3106.91733	4.86679
3104.98877	4.79854
3103.06021	4.72953
3101.13164	4.65899
3099.20308	4.59044
3097.27451	4.52455
3095.34595	4.45879
3093.41738	4.39386
3091.48882	4.33100
3089.56025	4.26873
3087.63169	4.20510
3085.70312	4.14189
3083.77456	4.08062
3081.84600	4.02140
3079.91743	3.96485
3077.98887	3.90897
3076.06030	3.85074
3074.13174	3.79023
3072.20317	3.72936
3070.27461	3.67077
3068.34604	3.61566
3066.41748	3.56079
3064.48892	3.50450
3062.56035	3.44942
3060.63179	3.39553
3058.70322	3.34103
3056.77466	3.28665
3054.84609	3.23297
3052.91753	3.17986
3050.98896	3.12827
3049.06040	3.07809
3047.13184	3.02785
3045.20327	2.97796
3043.27471	2.92934
3041.34614	2.88082
3039.41758	2.83220
3037.48901	2.78484
3035.56045	2.73887
3033.63188	2.69347
3031.70332	2.64822
3029.77476	2.60347
3027.84619	2.55965
3025.91763	2.51652
3023.98906	2.47369
3022.06050	2.43085
3020.13193	2.38790
3018.20337	2.34640
3016.27480	2.30701
3014.34624	2.26797
3012.41768	2.22863
3010.48911	2.18916
3008.56055	2.15017
3006.63198	2.11300
3004.70342	2.07744
3002.77485	2.04239
3000.84629	2.00751
2998.91772	1.97317
2996.98916	1.94006
2995.06060	1.90845
2993.13203	1.87753
2991.20347	1.84666
2989.27490	1.81643
2987.34634	1.78749
2985.41777	1.75917
2983.48921	1.73052
2981.56064	1.70203
2979.63208	1.67483
2977.70352	1.64920
2975.77495	1.62424
2973.84639	1.59917
2971.91782	1.57437
2969.98926	1.55031
2968.06069	1.52666
2966.13213	1.50302
2964.20356	1.47918
2962.27500	1.45505
2960.34644	1.43083
2958.41787	1.40679
2956.48931	1.38261
2954.56074	1.35790
2952.63218	1.33286
2950.70361	1.30822
2948.77505	1.28454
2946.84648	1.26169
2944.91792	1.23968
2942.98936	1.21855
2941.06079	1.19787
2939.13223	1.17740
2937.20366	1.15724
2935.27510	1.13721
2933.34653	1.11684
2931.41797	1.09662
2929.48940	1.07725
2927.56084	1.05808
2925.63228	1.03856
2923.70371	1.01901
2921.77515	0.99996
2919.84658	0.98182
2917.91802	0.96410
2915.98945	0.94630
2914.06089	0.92870
2912.13232	0.91175
2910.20376	0.89564
2908.27520	0.87993
2906.34663	0.86448
2904.41807	0.84943
2902.48950	0.83487
2900.56094	0.82069
2898.63237	0.80667
2896.70381	0.79301
2894.77524	0.77984
2892.84668	0.76704
2890.91812	0.75471
2888.98955	0.74295
2887.06099	0.73173
2885.13242	0.72097
2883.20386	0.71062
2881.27529	0.70067
2879.34673	0.69094
2877.41816	0.68143
2875.48960	0.67201
2873.56104	0.66200
2871.63247	0.65127
2869.70391	0.64014
2867.77534	0.62838
2865.84678	0.61583
2863.91821	0.60314
2861.98965	0.59118
2860.06108	0.58004
2858.13252	0.56938
2856.20396	0.55925
2854.27539	0.54958
2852.34683	0.54000
2850.41826	0.53065
2848.48970	0.52171
2846.56113	0.51297
2844.63257	0.50489
2842.70400	0.49773
2840.77544	0.49087
2838.84687	0.48422
2836.91831	0.47804
2834.98975	0.47206
2833.06118	0.46602
2831.13262	0.45990
2829.20405	0.45379
2827.27549	0.44764
2825.34692	0.44144
2823.41836	0.43526
2821.48979	0.42922
2819.56123	0.42336
2817.63267	0.41753
2815.70410	0.41156
2813.77554	0.40550
2811.84697	0.39968
2809.91841	0.39429
2807.98984	0.38912
2806.06128	0.38371
2804.13271	0.37803
2802.20415	0.37257
2800.27559	0.36756
2798.34702	0.36277
2796.41846	0.35794
2794.48989	0.35302
2792.56133	0.34809
2790.63276	0.34325
2788.70420	0.33849
2786.77563	0.33385
2784.84707	0.32929
2782.91851	0.32467
2780.98994	0.32020
2779.06138	0.31606
2777.13281	0.31206
2775.20425	0.30813
2773.27568	0.30424
2771.34712	0.30032
2769.41855	0.29644
2767.48999	0.29279
2765.56143	0.28928
2763.63286	0.28571
2761.70430	0.28209
2759.77573	0.27851
2757.84717	0.27499
2755.91860	0.27164
2753.99004	0.26853
2752.06147	0.26560
2750.13291	0.26260
2748.20435	0.25944
2746.27578	0.25622
2744.34722	0.25309
2742.41865	0.25017
2740.49009	0.24743
2738.56152	0.24471
2736.63296	0.24204
2734.70439	0.23952
2732.77583	0.23698
2730.84727	0.23439
2728.91870	0.23185
2726.99014	0.22938
2725.06157	0.22709
2723.13301	0.22499
2721.20444	0.22288
2719.27588	0.22071
2717.34731	0.21866
2715.41875	0.21665
2713.49019	0.21459
2711.56162	0.21253
2709.63306	0.21053
2707.70449	0.20864
2705.77593	0.20695
2703.84736	0.20542
2701.91880	0.20392
2699.99023	0.20249
2698.06167	0.20110
2696.13311	0.19960
2694.20454	0.19797
2692.27598	0.19642
2690.34741	0.19495
2688.41885	0.19346
2686.49028	0.19210
2684.56172	0.19093
2682.63315	0.18975
2680.70459	0.18854
2678.77603	0.18735
2676.84746	0.18616
2674.91890	0.18499
2672.99033	0.18385
2671.06177	0.18280
2669.13320	0.18180
2667.20464	0.18078
2665.27607	0.17978
2663.34751	0.17886
2661.41895	0.17797
2659.49038	0.17713
2657.56182	0.17636
2655.63325	0.17557
2653.70469	0.17481
2651.77612	0.17412
2649.84756	0.17334
2647.91899	0.17245
2645.99043	0.17168
2644.06187	0.17113
2642.13330	0.17067
2640.20474	0.17019
2638.27617	0.16957
2636.34761	0.16884
2634.41904	0.16818
2632.49048	0.16768
2630.56191	0.16738
2628.63335	0.16716
2626.70479	0.16687
2624.77622	0.16643
2622.84766	0.16593
2620.91909	0.16549
2618.99053	0.16516
2617.06196	0.16485
2615.13340	0.16456
2613.20483	0.16431
2611.27627	0.16416
2609.34771	0.16412
2607.41914	0.16395
2605.49058	0.16361
2603.56201	0.16337
2601.63345	0.16331
2599.70488	0.16330
2597.77632	0.16331
2595.84775	0.16335
2593.91919	0.16344
2591.99062	0.16349
2590.06206	0.16334
2588.13350	0.16323
2586.20493	0.16345
2584.27637	0.16369
2582.34780	0.16382
2580.41924	0.16407
2578.49067	0.16441
2576.56211	0.16463
2574.63354	0.16480
2572.70498	0.16505
2570.77642	0.16539
2568.84785	0.16574
2566.91929	0.16599
2564.99072	0.16620
2563.06216	0.16649
2561.13359	0.16686
2559.20503	0.16733
2557.27646	0.16788
2555.34790	0.16842
2553.41934	0.16886
2551.49077	0.16924
2549.56221	0.16973
2547.63364	0.17030
2545.70508	0.17073
2543.77651	0.17113
2541.84795	0.17165
2539.91938	0.17217
2537.99082	0.17268
2536.06226	0.17334
2534.13369	0.17408
2532.20513	0.17470
2530.27656	0.17530
2528.34800	0.17593
2526.41943	0.17657
2524.49087	0.17728
2522.56230	0.17809
2520.63374	0.17883
2518.70518	0.17947
2516.77661	0.18018
2514.84805	0.18101
2512.91948	0.18182
2510.99092	0.18255
2509.06235	0.18319
2507.13379	0.18385
2505.20522	0.18465
2503.27666	0.18554
2501.34810	0.18634
2499.41953	0.18703
2497.49097	0.18768
2495.56240	0.18848
2493.63384	0.18940
2491.70527	0.19025
2489.77671	0.19109
2487.84814	0.19193
2485.91958	0.19264
2483.99102	0.19323
2482.06245	0.19397
2480.13389	0.19487
2478.20532	0.19577
2476.27676	0.19666
2474.34819	0.19759
2472.41963	0.19850
2470.49106	0.19935
2468.56250	0.20022
2466.63394	0.20117
2464.70537	0.20214
2462.77681	0.20303
2460.84824	0.20382
2458.91968	0.20469
2456.99111	0.20569
2455.06255	0.20661
2453.13398	0.20739
2451.20542	0.20824
2449.27686	0.20921
2447.34829	0.21019
2445.41973	0.21116
2443.49116	0.21217
2441.56260	0.21319
2439.63403	0.21420
2437.70547	0.21518
2435.77690	0.21614
2433.84834	0.21704
2431.91978	0.21793
2429.99121	0.21893
2428.06265	0.22000
2426.13408	0.22112
2424.20552	0.22232
2422.27695	0.22351
2420.34839	0.22459
2418.41982	0.22562
2416.49126	0.22666
2414.56270	0.22774
2412.63413	0.22894
2410.70557	0.23022
2408.77700	0.23141
2406.84844	0.23247
2404.91987	0.23348
2402.99131	0.23461
2401.06274	0.23583
2399.13418	0.23698
2397.20562	0.23815
2395.27705	0.23949
2393.34849	0.24084
2391.41992	0.24215
2389.49136	0.24343
2387.56279	0.24466
2385.63423	0.24610
2383.70566	0.24797
2381.77710	0.25020
2379.84854	0.25274
2377.91997	0.25555
2375.99141	0.25851
2374.06284	0.26162
2372.13428	0.26490
2370.20571	0.26836
2368.27715	0.27186
2366.34858	0.27570
2364.42002	0.28029
2362.49146	0.28438
2360.56289	0.28673
2358.63433	0.28832
2356.70576	0.28915
2354.77720	0.28788
2352.84863	0.28589
2350.92007	0.28458
2348.99150	0.28407
2347.06294	0.28488
2345.13437	0.28779
2343.20581	0.29187
2341.27725	0.29473
2339.34868	0.29648
2337.42012	0.29792
2335.49155	0.29918
2333.56299	0.30042
2331.63442	0.30184
2329.70586	0.30311
2327.77729	0.30393
2325.84873	0.30459
2323.92017	0.30527
2321.99160	0.30580
2320.06304	0.30635
2318.13447	0.30709
2316.20591	0.30784
2314.27734	0.30889
2312.34878	0.31041
2310.42021	0.31178
2308.49165	0.31277
2306.56309	0.31380
2304.63452	0.31496
2302.70596	0.31621
2300.77739	0.31760
2298.84883	0.31910
2296.92026	0.32069
2294.99170	0.32234
2293.06313	0.32407
2291.13457	0.32578
2289.20601	0.32749
2287.27744	0.32923
2285.34888	0.33094
2283.42031	0.33267
2281.49175	0.33460
2279.56318	0.33672
2277.63462	0.33892
2275.70605	0.34106
2273.77749	0.34304
2271.84893	0.34495
2269.92036	0.34694
2267.99180	0.34908
2266.06323	0.35129
2264.13467	0.35350
2262.20610	0.35566
2260.27754	0.35773
2258.34897	0.35983
2256.42041	0.36201
2254.49185	0.36408
2252.56328	0.36604
2250.63472	0.36815
2248.70615	0.37035
2246.77759	0.37250
2244.84902	0.37468
2242.92046	0.37686
2240.99189	0.37908
2239.06333	0.38142
2237.13477	0.38375
2235.20620	0.38596
2233.27764	0.38822
2231.34907	0.39047
2229.42051	0.39260
2227.49194	0.39471
2225.56338	0.39685
2223.63481	0.39909
2221.70625	0.40147
2219.77769	0.40377
2217.84912	0.40593
2215.92056	0.40813
2213.99199	0.41037
2212.06343	0.41259
2210.13486	0.41480
2208.20630	0.41696
2206.27773	0.41901
2204.34917	0.42097
2202.42061	0.42292
2200.49204	0.42492
2198.56348	0.42702
2196.63491	0.42907
2194.70635	0.43103
2192.77778	0.43295
2190.84922	0.43482
2188.92065	0.43663
2186.99209	0.43844
2185.06353	0.44023
2183.13496	0.44195
2181.20640	0.44371
2179.27783	0.44549
2177.34927	0.44719
2175.42070	0.44875
2173.49214	0.45020
2171.56357	0.45156
2169.63501	0.45288
2167.70645	0.45431
2165.77788	0.45573
2163.84932	0.45693
2161.92075	0.45798
2159.99219	0.45897
2158.06362	0.45991
2156.13506	0.46090
2154.20649	0.46189
2152.27793	0.46269
2150.34937	0.46326
2148.42080	0.46378
2146.49224	0.46450
2144.56367	0.46525
2142.63511	0.46571
2140.70654	0.46597
2138.77798	0.46628
2136.84941	0.46650
2134.92085	0.46655
2132.99229	0.46646
2131.06372	0.46626
2129.13516	0.46603
2127.20659	0.46582
2125.27803	0.46553
2123.34946	0.46507
2121.42090	0.46456
2119.49233	0.46410
2117.56377	0.46364
2115.63521	0.46299
2113.70664	0.46217
2111.77808	0.46130
2109.84951	0.46035
2107.92095	0.45921
2105.99238	0.45800
2104.06382	0.45684
2102.13525	0.45566
2100.20669	0.45439
2098.27812	0.45299
2096.34956	0.45151
2094.42100	0.45000
2092.49243	0.44840
2090.56387	0.44673
2088.63530	0.44503
2086.70674	0.44322
2084.77817	0.44129
2082.84961	0.43933
2080.92104	0.43725
2078.99248	0.43508
2077.06392	0.43291
2075.13535	0.43078
2073.20679	0.42863
2071.27822	0.42634
2069.34966	0.42396
2067.42109	0.42158
2065.49253	0.41921
2063.56396	0.41687
2061.63540	0.41452
2059.70684	0.41208
2057.77827	0.40958
2055.84971	0.40699
2053.92114	0.40428
2051.99258	0.40159
2050.06401	0.39895
2048.13545	0.39634
2046.20688	0.39372
2044.27832	0.39109
2042.34976	0.38837
2040.42119	0.38556
2038.49263	0.38275
2036.56406	0.37998
2034.63550	0.37715
2032.70693	0.37432
2030.77837	0.37157
2028.84980	0.36884
2026.92124	0.36606
2024.99268	0.36325
2023.06411	0.36040
2021.13555	0.35753
2019.20698	0.35477
2017.27842	0.35207
2015.34985	0.34926
2013.42129	0.34637
2011.49272	0.34352
2009.56416	0.34072
2007.63560	0.33791
2005.70703	0.33519
2003.77847	0.33256
2001.84990	0.32993
1999.92134	0.32730
1997.99277	0.32471
1996.06421	0.32207
1994.13564	0.31939
1992.20708	0.31680
1990.27852	0.31428
1988.34995	0.31178
1986.42139	0.30933
1984.49282	0.30694
1982.56426	0.30457
1980.63569	0.30216
1978.70713	0.29981
1976.77856	0.29758
1974.85000	0.29534
1972.92144	0.29302
1970.99287	0.29077
1969.06431	0.28876
1967.13574	0.28683
1965.20718	0.28475
1963.27861	0.28265
1961.35005	0.28059
1959.42148	0.27857
1957.49292	0.27670
1955.56436	0.27492
1953.63579	0.27318
1951.70723	0.27155
1949.77866	0.26995
1947.85010	0.26825
1945.92153	0.26658
1943.99297	0.26507
1942.06440	0.26361
1940.13584	0.26206
1938.20728	0.26055
1936.27871	0.25914
1934.35015	0.25774
1932.42158	0.25639
1930.49302	0.25514
1928.56445	0.25401
1926.63589	0.25292
1924.70732	0.25187
1922.77876	0.25088
1920.85020	0.24985
1918.92163	0.24886
1916.99307	0.24794
1915.06450	0.24704
1913.13594	0.24618
1911.20737	0.24543
1909.27881	0.24475
1907.35024	0.24410
1905.42168	0.24349
1903.49312	0.24289
1901.56455	0.24225
1899.63599	0.24164
1897.70742	0.24118
1895.77886	0.24085
1893.85029	0.24060
1891.92173	0.24028
1889.99316	0.23999
1888.06460	0.23968
1886.13604	0.23928
1884.20747	0.23892
1882.27891	0.23869
1880.35034	0.23860
1878.42178	0.23858
1876.49321	0.23855
1874.56465	0.23843
1872.63608	0.23837
1870.70752	0.23847
1868.77896	0.23887
1866.85039	0.23924
1864.92183	0.23933
1862.99326	0.23943
1861.06470	0.23963
1859.13613	0.24000
1857.20757	0.24044
1855.27900	0.24087
1853.35044	0.24120
1851.42187	0.24160
1849.49331	0.24213
1847.56475	0.24276
1845.63618	0.24357
1843.70762	0.24463
1841.77905	0.24552
1839.85049	0.24598
1837.92192	0.24662
1835.99336	0.24752
1834.06479	0.24850
1832.13623	0.24942
1830.20767	0.25064
1828.27910	0.25209
1826.35054	0.25323
1824.42197	0.25451
1822.49341	0.25584
1820.56484	0.25711
1818.63628	0.25852
1816.70771	0.26022
1814.77915	0.26187
1812.85059	0.26357
1810.92202	0.26554
1808.99346	0.26761
1807.06489	0.26967
1805.13633	0.27162
1803.20776	0.27371
1801.27920	0.27612
1799.35063	0.27890
1797.42207	0.28143
1795.49351	0.28377
1793.56494	0.28642
1791.63638	0.28996
1789.70781	0.29360
1787.77925	0.29642
1785.85068	0.29953
1783.92212	0.30310
1781.99355	0.30695
1780.06499	0.31114
1778.13643	0.31549
1776.20786	0.31955
1774.27930	0.32380
1772.35073	0.32945
1770.42217	0.33570
1768.49360	0.34113
1766.56504	0.34633
1764.63647	0.35165
1762.70791	0.35757
1760.77935	0.36506
1758.85078	0.37216
1756.92222	0.37931
1754.99365	0.38714
1753.06509	0.39424
1751.13652	0.40246
1749.20796	0.41263
1747.27939	0.42275
1745.35083	0.43190
1743.42227	0.44162
1741.49370	0.45221
1739.56514	0.46459
1737.63657	0.47707
1735.70801	0.48799
1733.77944	0.50383
1731.85088	0.52309
1729.92231	0.53904
1727.99375	0.55508
1726.06519	0.57218
1724.13662	0.59077
1722.20806	0.61078
1720.27949	0.62935
1718.35093	0.65087
1716.42236	0.68210
1714.49380	0.71256
1712.56523	0.73793
1710.63667	0.76253
1708.70811	0.78894
1706.77954	0.81880
1704.85098	0.85407
1702.92241	0.88584
1700.99385	0.91766
1699.06528	0.96467
1697.13672	1.00846
1695.20815	1.05393
1693.27959	1.09968
1691.35103	1.13750
1689.42246	1.18054
1687.49390	1.22578
1685.56533	1.26988
1683.63677	1.33647
1681.70820	1.40626
1679.77964	1.45267
1677.85107	1.49697
1675.92251	1.54769
1673.99395	1.61004
1672.06538	1.66638
1670.13682	1.72153
1668.20825	1.79289
1666.27969	1.85353
1664.35112	1.90675
1662.42256	1.97349
1660.49399	2.04957
1658.56543	2.11014
1656.63687	2.15812
1654.70830	2.20061
1652.77974	2.26403
1650.85117	2.32254
1648.92261	2.34048
1646.99404	2.36190
1645.06548	2.38699
1643.13691	2.40457
1641.20835	2.41347
1639.27979	2.42176
1637.35122	2.42482
1635.42266	2.41771
1633.49409	2.40571
1631.56553	2.39069
1629.63696	2.37134
1627.70840	2.33809
1625.77983	2.29946
1623.85127	2.25322
1621.92271	2.19825
1619.99414	2.14854
1618.06558	2.09969
1616.13701	2.03274
1614.20845	1.96507
1612.27988	1.91207
1610.35132	1.85673
1608.42275	1.79806
1606.49419	1.74118
1604.56562	1.68866
1602.63706	1.63815
1600.70850	1.58935
1598.77993	1.54439
1596.85137	1.50210
1594.92280	1.46146
1592.99424	1.42257
1591.06567	1.38707
1589.13711	1.35443
1587.20854	1.32473
1585.27998	1.29767
1583.35142	1.27272
1581.42285	1.25032
1579.49429	1.23166
1577.56572	1.21561
1575.63716	1.19752
1573.70859	1.18193
1571.78003	1.17171
1569.85146	1.16256
1567.92290	1.15414
1565.99434	1.14886
1564.06577	1.14624
1562.13721	1.14527
1560.20864	1.14686
1558.28008	1.15557
1556.35151	1.16526
1554.42295	1.17068
1552.49438	1.17585
1550.56582	1.17924
1548.63726	1.17932
1546.70869	1.17516
1544.78013	1.16624
1542.85156	1.15273
1540.92300	1.13167
1538.99443	1.09930
1537.06587	1.07473
1535.13730	1.05709
1533.20874	1.03378
1531.28018	1.00915
1529.35161	0.99099
1527.42305	0.97376
1525.49448	0.95597
1523.56592	0.94098
1521.63735	0.92706
1519.70879	0.91345
1517.78022	0.90215
1515.85166	0.88899
1513.92310	0.87443
1511.99453	0.86094
1510.06597	0.84832
1508.13740	0.83569
1506.20884	0.81796
1504.28027	0.80350
1502.35171	0.79524
1500.42314	0.78760
1498.49458	0.77926
1496.56602	0.77009
1494.63745	0.76127
1492.70889	0.75426
1490.78032	0.74789
1488.85176	0.74072
1486.92319	0.73430
1484.99463	0.72950
1483.06606	0.72585
1481.13750	0.72296
1479.20894	0.72081
1477.28037	0.71981
1475.35181	0.71992
1473.42324	0.72069
1471.49468	0.72100
1469.56611	0.71988
1467.63755	0.71790
1465.70898	0.71594
1463.78042	0.71451
1461.85186	0.71386
1459.92329	0.71376
1457.99473	0.71397
1456.06616	0.71393
1454.13760	0.71262
1452.20903	0.71039
1450.28047	0.70769
1448.35190	0.70486
1446.42334	0.70191
1444.49478	0.69908
1442.56621	0.69636
1440.63765	0.69345
1438.70908	0.69023
1436.78052	0.68595
1434.85195	0.68118
1432.92339	0.67779
1430.99482	0.67586
1429.06626	0.67518
1427.13770	0.67543
1425.20913	0.67630
1423.28057	0.67760
1421.35200	0.67870
1419.42344	0.67968
1417.49487	0.68040
1415.56631	0.68005
1413.63774	0.67968
1411.70918	0.68016
1409.78062	0.68152
1407.85205	0.68349
1405.92349	0.68588
1403.99492	0.68815
1402.06636	0.68920
1400.13779	0.68886
1398.20923	0.68733
1396.28066	0.68461
1394.35210	0.68043
1392.42354	0.67535
1390.49497	0.67035
1388.56641	0.66509
1386.63784	0.65893
1384.70928	0.65255
1382.78071	0.64658
1380.85215	0.64095
1378.92358	0.63591
1376.99502	0.63188
1375.06646	0.62914
1373.13789	0.62745
1371.20933	0.62635
1369.28076	0.62551
1367.35220	0.62437
1365.42363	0.62271
1363.49507	0.62088
1361.56650	0.61914
1359.63794	0.61744
1357.70937	0.61598
1355.78081	0.61477
1353.85225	0.61364
1351.92368	0.61264
1349.99512	0.61196
1348.06655	0.61145
1346.13799	0.61075
1344.20942	0.60987
1342.28086	0.60912
1340.35229	0.60865
1338.42373	0.60820
1336.49517	0.60765
1334.56660	0.60723
1332.63804	0.60722
1330.70947	0.60773
1328.78091	0.60859
1326.85234	0.60959
1324.92378	0.61061
1322.99521	0.61175
1321.06665	0.61298
1319.13809	0.61412
1317.20952	0.61488
1315.28096	0.61501
1313.35239	0.61467
1311.42383	0.61430
1309.49526	0.61402
1307.56670	0.61364
1305.63813	0.61319
1303.70957	0.61274
1301.78101	0.61215
1299.85244	0.61120
1297.92388	0.60984
1295.99531	0.60826
1294.06675	0.60670
1292.13818	0.60520
1290.20962	0.60375
1288.28105	0.60228
1286.35249	0.60081
1284.42393	0.59942
1282.49536	0.59798
1280.56680	0.59635
1278.63823	0.59469
1276.70967	0.59314
1274.78110	0.59171
1272.85254	0.59053
1270.92397	0.58965
1268.99541	0.58888
1267.06685	0.58814
1265.13828	0.58742
1263.20972	0.58658
1261.28115	0.58557
1259.35259	0.58456
1257.42402	0.58376
1255.49546	0.58335
1253.56689	0.58333
1251.63833	0.58356
1249.70977	0.58384
1247.78120	0.58396
1245.85264	0.58390
1243.92407	0.58356
1241.99551	0.58265
1240.06694	0.58101
1238.13838	0.57885
1236.20981	0.57632
1234.28125	0.57358
1232.35269	0.57089
1230.42412	0.56835
1228.49556	0.56589
1226.56699	0.56349
1224.63843	0.56118
1222.70986	0.55906
1220.78130	0.55726
1218.85273	0.55570
1216.92417	0.55427
1214.99561	0.55308
1213.06704	0.55207
1211.13848	0.55120
1209.20991	0.55048
1207.28135	0.54974
1205.35278	0.54883
1203.42422	0.54768
1201.49565	0.54644
1199.56709	0.54540
1197.63853	0.54463
1195.70996	0.54407
1193.78140	0.54356
1191.85283	0.54298
1189.92427	0.54239
1187.99570	0.54188
1186.06714	0.54162
1184.13857	0.54188
1182.21001	0.54261
1180.28145	0.54366
1178.35288	0.54516
1176.42432	0.54694
1174.49575	0.54836
1172.56719	0.54912
1170.63862	0.54936
1168.71006	0.54920
1166.78149	0.54867
1164.85293	0.54801
1162.92437	0.54744
1160.99580	0.54686
1159.06724	0.54605
1157.13867	0.54514
1155.21011	0.54425
1153.28154	0.54307
1151.35298	0.54136
1149.42441	0.53914
1147.49585	0.53667
1145.56729	0.53415
1143.63872	0.53175
1141.71016	0.52968
1139.78159	0.52797
1137.85303	0.52651
1135.92446	0.52543
1133.99590	0.52476
1132.06733	0.52428
1130.13877	0.52376
1128.21021	0.52314
1126.28164	0.52239
1124.35308	0.52154
1122.42451	0.52069
1120.49595	0.51997
1118.56738	0.51969
1116.63882	0.51983
1114.71025	0.51996
1112.78169	0.52004
1110.85312	0.52026
1108.92456	0.52078
1106.99600	0.52172
1105.06743	0.52290
1103.13887	0.52428
1101.21030	0.52599
1099.28174	0.52793
1097.35317	0.53015
1095.42461	0.53290
1093.49604	0.53622
1091.56748	0.54027
1089.63892	0.54525
1087.71035	0.55107
1085.78179	0.55756
1083.85322	0.56433
1081.92466	0.57065
1079.99609	0.57559
1078.06753	0.57842
1076.13896	0.57871
1074.21040	0.57635
1072.28184	0.57161
1070.35327	0.56549
1068.42471	0.55897
1066.49614	0.55235
1064.56758	0.54581
1062.63901	0.53970
1060.71045	0.53426
1058.78188	0.52967
1056.85332	0.52573
1054.92476	0.52212
1052.99619	0.51878
1051.06763	0.51575
1049.13906	0.51313
1047.21050	0.51094
1045.28193	0.50909
1043.35337	0.50759
1041.42480	0.50634
1039.49624	0.50520
1037.56768	0.50420
1035.63911	0.50336
1033.71055	0.50265
1031.78198	0.50217
1029.85342	0.50194
1027.92485	0.50156
1025.99629	0.50081
1024.06772	0.50016
1022.13916	0.50010
1020.21060	0.50051
1018.28203	0.50105
1016.35347	0.50149
1014.42490	0.50175
1012.49634	0.50201
1010.56777	0.50252
1008.63921	0.50338
1006.71064	0.50466
1004.78208	0.50639
1002.85352	0.50855
1000.92495	0.51110
998.99639	0.51422
997.06782	0.51812
995.13926	0.52239
993.21069	0.52646
991.28213	0.52994
989.35356	0.53242
987.42500	0.53376
985.49644	0.53454
983.56787	0.53523
981.63931	0.53573
979.71074	0.53623
977.78218	0.53743
975.85361	0.53961
973.92505	0.54236
971.99648	0.54522
970.06792	0.54826
968.13936	0.55193
966.21079	0.55628
964.28223	0.56092
962.35366	0.56554
960.42510	0.57023
958.49653	0.57542
956.56797	0.58098
954.63940	0.58670
952.71084	0.59287
950.78228	0.59938
948.85371	0.60593
946.92515	0.61251
944.99658	0.61899
943.06802	0.62526
941.13945	0.63135
939.21089	0.63727
937.28232	0.64297
935.35376	0.64865
933.42520	0.65467
931.49663	0.66092
929.56807	0.66676
927.63950	0.67204
925.71094	0.67756
923.78237	0.68382
921.85381	0.69070
919.92524	0.69782
917.99668	0.70481
916.06812	0.71191
914.13955	0.71952
912.21099	0.72739
910.28242	0.73496
908.35386	0.74281
906.42529	0.75157
904.49673	0.76054
902.56816	0.76959
900.63960	0.77933
898.71104	0.78964
896.78247	0.79980
894.85391	0.80877
892.92534	0.81721
890.99678	0.82695
889.06821	0.83758
887.13965	0.84851
885.21108	0.86014
883.28252	0.87177
881.35396	0.88308
879.42539	0.89485
877.49683	0.90688
875.56826	0.91868
873.63970	0.93047
871.71113	0.94257
869.78257	0.95472
867.85400	0.96570
865.92544	0.97604
863.99687	0.98765
862.06831	0.99914
860.13975	1.00951
858.21118	1.02089
856.28262	1.03362
854.35405	1.04711
852.42549	1.06111
850.49692	1.07400
848.56836	1.08515
846.63979	1.09574
844.71123	1.10618
842.78267	1.11663
840.85410	1.12955
838.92554	1.14543
836.99697	1.15863
835.06841	1.16472
833.13984	1.16895
831.21128	1.17925
829.28271	1.19448
827.35415	1.20745
825.42559	1.21713
823.49702	1.22958
821.56846	1.24524
819.63989	1.25534
817.71133	1.25712
815.78276	1.26178
813.85420	1.27347
811.92563	1.28392
809.99707	1.28988
808.06851	1.29798
806.13994	1.31740
804.21138	1.33797
802.28281	1.34066
800.35425	1.33966
798.42568	1.36633
796.49712	1.41250
794.56855	1.44537
792.63999	1.46223
790.71143	1.45713
788.78286	1.44365
786.85430	1.43431
784.92573	1.40900
782.99717	1.39580
781.06860	1.43809
779.14004	1.50344
777.21147	1.52844
775.28291	1.50380
773.35435	1.45906
771.42578	1.48477
769.49722	1.56574
767.56865	1.55142
765.64009	1.49689
763.71152	1.51669
761.78296	1.55364
759.85439	1.47934
757.92583	1.38134
755.99727	1.34031
754.06870	1.38182
752.14014	1.54114
750.21157	1.62299
748.28301	1.36417
746.35444	1.19950
744.42588	1.15473
742.49731	1.15002
740.56875	1.12134
738.64019	0.99656
736.71162	0.90016
734.78306	0.88805
732.85449	0.83898
730.92593	0.75868
728.99736	0.71501
727.06880	0.62615
725.14023	0.51271
723.21167	0.42506
721.28311	0.32753
719.35454	0.29620
717.42598	0.43372
715.49741	0.68470
713.56885	0.89033
711.64028	0.80610
709.71172	0.49446
707.78315	0.12364
705.85459	-0.02844
703.92603	0.17981
701.99746	0.22661
700.06890	0.25303
698.14033	0.31912
696.21177	0.28311
694.28320	0.25045
692.35464	0.31813
690.42607	0.44401
688.49751	0.63274
686.56895	0.70599
684.64038	0.50906
682.71182	0.35174
680.78325	0.31846
678.85469	0.36456
676.92612	0.45344
674.99756	0.51214
673.06899	0.44188
671.14043	0.41763
669.21187	0.51613
667.28330	0.67230
665.35474	0.65290
663.42617	0.50680
661.49761	0.36579
659.56904	0.29520
657.64048	0.30138
655.71191	0.29339
653.78335	0.24569
651.85479	0.25478
649.92622	0.37599
647.99766	0.76206
646.06909	3.87641
644.14053	0.62606
642.21196	0.35652
640.28340	0.31482
638.35483	0.40588
636.42627	0.51212
634.49771	0.38881
632.56914	0.19617
630.64058	0.15716
628.71201	0.23760
626.78345	0.37842
624.85488	0.47115
622.92632	0.51841
620.99775	0.62023
619.06919	0.57355
617.14062	0.36016
615.21206	0.24404
613.28350	0.21879
611.35493	0.26706
609.42637	0.39603
607.49780	0.51725
605.56924	0.42869
603.64067	0.36149
601.71211	0.35278
599.78354	0.34777
597.85498	0.31689
595.92642	0.29287
593.99785	0.24907
592.06929	0.19057
590.14072	0.20314
588.21216	0.29938
586.28359	0.32895
584.35503	0.33338
582.42646	0.47763
580.49790	0.59015
578.56934	0.38954
576.64077	0.25656
574.71221	0.27726
572.78364	0.43958
570.85508	0.50542
568.92651	0.42873
566.99795	0.36668
565.06938	0.30809
563.14082	0.26358
561.21226	0.24407
559.28369	0.26118
557.35513	0.30961
555.42656	0.29699
553.49800	0.24255
551.56943	0.24262
549.64087	0.28179
547.71230	0.30325
545.78374	0.26835
543.85518	0.21129
541.92661	0.17971
539.99805	0.19860
538.06948	0.26743
536.14092	0.32217
534.21235	0.35975
532.28379	0.39146
530.35522	0.30196
528.42666	0.18159
526.49810	0.12605
524.56953	0.13579
522.64097	0.21082
520.71240	0.38691
518.78384	3.11270
516.85527	3.10113
514.92671	0.69344
512.99814	0.46347
511.06958	0.38312
509.14102	0.30497
507.21245	0.26678
505.28389	0.23586
503.35532	0.21186
501.42676	0.25959
499.49819	0.34794
