3997.91411	0.06595
3995.98555	0.06602
3994.05698	0.06625
3992.12842	0.06654
3990.19985	0.06672
3988.27129	0.06665
3986.34272	0.06673
3984.41416	0.06718
3982.48560	0.06785
3980.55703	0.06835
3978.62847	0.06853
3976.69990	0.06879
3974.77134	0.06907
3972.84277	0.06904
3970.91421	0.06893
3968.98564	0.06912
3967.05708	0.06954
3965.12852	0.06965
3963.19995	0.06958
3961.27139	0.06975
3959.34282	0.06993
3957.41426	0.06995
3955.48569	0.06994
3953.55713	0.07001
3951.62856	0.07031
3949.70000	0.07063
3947.77144	0.07054
3945.84287	0.07030
3943.91431	0.07051
3941.98574	0.07106
3940.05718	0.07113
3938.12861	0.07070
3936.20005	0.07031
3934.27148	0.07023
3932.34292	0.07071
3930.41436	0.07154
3928.48579	0.07173
3926.55723	0.07123
3924.62866	0.07088
3922.70010	0.07070
3920.77153	0.07055
3918.84297	0.07075
3916.91440	0.07089
3914.98584	0.07038
3913.05728	0.06966
3911.12871	0.06925
3909.20015	0.06922
3907.27158	0.06956
3905.34302	0.07005
3903.41445	0.07053
3901.48589	0.07105
3899.55732	0.07148
3897.62876	0.07123
3895.70020	0.07030
3893.77163	0.06965
3891.84307	0.06963
3889.91450	0.06992
3887.98594	0.07003
3886.05737	0.07018
3884.12881	0.07060
3882.20024	0.07094
3880.27168	0.07113
3878.34312	0.07093
3876.41455	0.07051
3874.48599	0.07076
3872.55742	0.07175
3870.62886	0.07262
3868.70029	0.07297
3866.77173	0.07297
3864.84316	0.07327
3862.91460	0.07381
3860.98604	0.07383
3859.05747	0.07350
3857.12891	0.07350
3855.20034	0.07426
3853.27178	0.07614
3851.34321	0.07740
3849.41465	0.07662
3847.48608	0.07589
3845.55752	0.07580
3843.62896	0.07624
3841.70039	0.07712
3839.77183	0.07817
3837.84326	0.07937
3835.91470	0.08027
3833.98613	0.08055
3832.05757	0.08104
3830.12900	0.08183
3828.20044	0.08222
3826.27187	0.08253
3824.34331	0.08309
3822.41475	0.08392
3820.48618	0.08572
3818.55762	0.08720
3816.62905	0.08735
3814.70049	0.08766
3812.77192	0.08825
3810.84336	0.08886
3808.91479	0.08986
3806.98623	0.09140
3805.05767	0.09301
3803.12910	0.09430
3801.20054	0.09566
3799.27197	0.09674
3797.34341	0.09726
3795.41484	0.09812
3793.48628	0.09925
3791.55771	0.10041
3789.62915	0.10163
3787.70059	0.10276
3785.77202	0.10412
3783.84346	0.10599
3781.91489	0.10780
3779.98633	0.10946
3778.05776	0.11120
3776.12920	0.11253
3774.20063	0.11361
3772.27207	0.11509
3770.34351	0.11752
3768.41494	0.12056
3766.48638	0.12286
3764.55781	0.12450
3762.62925	0.12608
3760.70068	0.12815
3758.77212	0.13091
3756.84355	0.13347
3754.91499	0.13551
3752.98643	0.13777
3751.05786	0.14091
3749.12930	0.14465
3747.20073	0.14718
3745.27217	0.14937
3743.34360	0.15307
3741.41504	0.15661
3739.48647	0.15890
3737.55791	0.16158
3735.62935	0.16613
3733.70078	0.17213
3731.77222	0.17721
3729.84365	0.18141
3727.91509	0.18549
3725.98652	0.19042
3724.05796	0.19661
3722.12939	0.20330
3720.20083	0.21061
3718.27227	0.21864
3716.34370	0.22685
3714.41514	0.23491
3712.48657	0.24418
3710.55801	0.25683
3708.62944	0.27076
3706.70088	0.28279
3704.77231	0.29433
3702.84375	0.30769
3700.91519	0.32479
3698.98662	0.34347
3697.05806	0.36133
3695.12949	0.38024
3693.20093	0.40023
3691.27236	0.42197
3689.34380	0.44978
3687.41523	0.48353
3685.48667	0.51404
3683.55811	0.54115
3681.62954	0.57012
3679.70098	0.60224
3677.77241	0.63555
3675.84385	0.67480
3673.91528	0.72767
3671.98672	0.77212
3670.05815	0.81154
3668.12959	0.86448
3666.20103	0.91396
3664.27246	0.95595
3662.34390	1.00039
3660.41533	1.04792
3658.48677	1.09469
3656.55820	1.14415
3654.62964	1.19887
3652.70107	1.24531
3650.77251	1.28606
3648.84395	1.34129
3646.91538	1.40859
3644.98682	1.45988
3643.05825	1.49989
3641.12969	1.54059
3639.20112	1.58564
3637.27256	1.63109
3635.34399	1.67455
3633.41543	1.71756
3631.48687	1.75828
3629.55830	1.79918
3627.62974	1.85167
3625.70117	1.90229
3623.77261	1.93766
3621.84404	1.97085
3619.91548	2.00887
3617.98691	2.05507
3616.05835	2.09953
3614.12979	2.13663
3612.20122	2.17557
3610.27266	2.21498
3608.34409	2.25488
3606.41553	2.29776
3604.48696	2.33788
3602.55840	2.37376
3600.62983	2.41230
3598.70127	2.45405
3596.77271	2.49509
3594.84414	2.53671
3592.91558	2.57853
3590.98701	2.61644
3589.05845	2.65169
3587.12988	2.69481
3585.20132	2.74344
3583.27275	2.78628
3581.34419	2.82683
3579.41562	2.86893
3577.48706	2.91097
3575.55850	2.95262
3573.62993	2.99583
3571.70137	3.03838
3569.77280	3.07921
3567.84424	3.12237
3565.91567	3.17408
3563.98711	3.22525
3562.05854	3.26858
3560.12998	3.31113
3558.20142	3.35551
3556.27285	3.40050
3554.34429	3.44600
3552.41572	3.49451
3550.48716	3.54300
3548.55859	3.58832
3546.63003	3.63309
3544.70146	3.68089
3542.77290	3.72989
3540.84434	3.77662
3538.91577	3.82212
3536.98721	3.86752
3535.05864	3.91483
3533.13008	3.96433
3531.20151	4.01607
3529.27295	4.06719
3527.34438	4.11566
3525.41582	4.16335
3523.48726	4.21230
3521.55869	4.26130
3519.63013	4.30571
3517.70156	4.34918
3515.77300	4.39612
3513.84443	4.44479
3511.91587	4.49262
3509.98730	4.53921
3508.05874	4.58810
3506.13018	4.64157
3504.20161	4.69401
3502.27305	4.74440
3500.34448	4.79614
3498.41592	4.84427
3496.48735	4.88856
3494.55879	4.93440
3492.63022	4.98185
3490.70166	5.02843
3488.77310	5.07772
3486.84453	5.12972
3484.91597	5.17408
3482.98740	5.21279
3481.05884	5.25763
3479.13027	5.30561
3477.20171	5.35129
3475.27314	5.40252
3473.34458	5.46270
3471.41602	5.52074
3469.48745	5.56949
3467.55889	5.61735
3465.63032	5.66941
3463.70176	5.71468
3461.77319	5.75025
3459.84463	5.79490
3457.91606	5.85085
3455.98750	5.90476
3454.05894	5.95742
3452.13037	6.01433
3450.20181	6.06655
3448.27324	6.10734
3446.34468	6.14940
3444.41611	6.19477
3442.48755	6.24674
3440.55898	6.30500
3438.63042	6.35375
3436.70186	6.39851
3434.77329	6.45780
3432.84473	6.52204
3430.91616	6.56808
3428.98760	6.60202
3427.05903	6.64141
3425.13047	6.70154
3423.20190	6.78206
3421.27334	6.85642
3419.34478	6.88616
3417.41621	6.89734
3415.48765	6.95550
3413.55908	7.05369
3411.63052	7.12177
3409.70195	7.13122
3407.77339	7.15564
3405.84482	7.21522
3403.91626	7.25956
3401.98770	7.27216
3400.05913	7.27496
3398.13057	7.28337
3396.20200	7.31167
3394.27344	7.38068
3392.34487	7.45990
3390.41631	7.52981
3388.48774	7.57595
3386.55918	7.58081
3384.63062	7.56590
3382.70205	7.58891
3380.77349	7.65218
3378.84492	7.68243
3376.91636	7.69805
3374.98779	7.75001
3373.05923	7.80726
3371.13066	7.83022
3369.20210	7.86637
3367.27354	7.89830
3365.34497	7.87680
3363.41641	7.85847
3361.48784	7.85129
3359.55928	7.83660
3357.63071	7.86195
3355.70215	7.94831
3353.77358	8.01076
3351.84502	8.02696
3349.91646	8.05370
3347.98789	8.09450
3346.05933	8.11648
3344.13076	8.12410
3342.20220	8.10126
3340.27363	8.00951
3338.34507	7.93651
3336.41650	7.94460
3334.48794	8.00972
3332.55937	8.06620
3330.63081	8.06945
3328.70225	8.03609
3326.77368	8.03546
3324.84512	8.09050
3322.91655	8.13115
3320.98799	8.17054
3319.05942	8.22216
3317.13086	8.24843
3315.20229	8.21075
3313.27373	8.13128
3311.34517	8.10140
3309.41660	8.15282
3307.48804	8.25859
3305.55947	8.37271
3303.63091	8.43130
3301.70234	8.39750
3299.77378	8.33872
3297.84521	8.28190
3295.91665	8.23816
3293.98809	8.22721
3292.05952	8.22303
3290.13096	8.23990
3288.20239	8.26093
3286.27383	8.23801
3284.34526	8.22302
3282.41670	8.27287
3280.48813	8.33746
3278.55957	8.37486
3276.63101	8.39156
3274.70244	8.39249
3272.77388	8.34339
3270.84531	8.23877
3268.91675	8.17749
3266.98818	8.21356
3265.05962	8.30605
3263.13105	8.38817
3261.20249	8.42227
3259.27393	8.40632
3257.34536	8.38269
3255.41680	8.33576
3253.48823	8.25400
3251.55967	8.24375
3249.63110	8.32142
3247.70254	8.37994
3245.77397	8.38474
3243.84541	8.34567
3241.91685	8.26275
3239.98828	8.19444
3238.05972	8.13879
3236.13115	8.09409
3234.20259	8.11595
3232.27402	8.18571
3230.34546	8.25267
3228.41689	8.30568
3226.48833	8.33505
3224.55977	8.32595
3222.63120	8.28100
3220.70264	8.22642
3218.77407	8.18980
3216.84551	8.14195
3214.91694	8.07349
3212.98838	8.02001
3211.05981	8.00868
3209.13125	8.04554
3207.20269	8.06703
3205.27412	8.01953
3203.34556	7.92534
3201.41699	7.83770
3199.48843	7.79540
3197.55986	7.78122
3195.63130	7.75323
3193.70273	7.70948
3191.77417	7.66734
3189.84561	7.63549
3187.91704	7.61833
3185.98848	7.57438
3184.05991	7.48682
3182.13135	7.40986
3180.20278	7.36462
3178.27422	7.32970
3176.34565	7.28366
3174.41709	7.21905
3172.48853	7.16189
3170.55996	7.12430
3168.63140	7.06747
3166.70283	6.98443
3164.77427	6.91803
3162.84570	6.86254
3160.91714	6.78261
3158.98857	6.69577
3157.06001	6.63066
3155.13145	6.57996
3153.20288	6.52408
3151.27432	6.46235
3149.34575	6.40345
3147.41719	6.34431
3145.48862	6.28003
3143.56006	6.21125
3141.63149	6.14123
3139.70293	6.06629
3137.77437	5.98424
3135.84580	5.90437
3133.91724	5.82928
3131.98867	5.75397
3130.06011	5.68723
3128.13154	5.63153
3126.20298	5.56803
3124.27441	5.49301
3122.34585	5.41894
3120.41729	5.34639
3118.48872	5.26969
3116.56016	5.19561
3114.63159	5.12821
3112.70303	5.05742
3110.77446	4.98383
3108.84590	4.91560
3106.91733	4.84931
3104.98877	4.78167
3103.06021	4.71589
3101.13164	4.65044
3099.20308	4.58390
3097.27451	4.51796
3095.34595	4.45230
3093.41738	4.38783
3091.48882	4.32306
3089.56025	4.25489
3087.63169	4.18751
3085.70312	4.12626
3083.77456	4.06829
3081.84600	4.00885
3079.91743	3.94681
3077.98887	3.88473
3076.06030	3.82579
3074.13174	3.76868
3072.20317	3.71100
3070.27461	3.65270
3068.34604	3.59404
3066.41748	3.53625
3064.48892	3.48065
3062.56035	3.42617
3060.63179	3.37208
3058.70322	3.31784
3056.77466	3.26253
3054.84609	3.20777
3052.91753	3.15496
3050.98896	3.10309
3049.06040	3.05161
3047.13184	3.00063
3045.20327	2.94995
3043.27471	2.90022
3041.34614	2.85157
3039.41758	2.80334
3037.48901	2.75603
3035.56045	2.71043
3033.63188	2.66587
3031.70332	2.62030
3029.77476	2.57411
3027.84619	2.52985
3025.91763	2.48721
3023.98906	2.44480
3022.06050	2.40225
3020.13193	2.35957
3018.20337	2.31768
3016.27480	2.27728
3014.34624	2.23823
3012.41768	2.20004
3010.48911	2.16215
3008.56055	2.12434
3006.63198	2.08670
3004.70342	2.04993
3002.77485	2.01445
3000.84629	1.97979
2998.91772	1.94554
2996.98916	1.91176
2995.06060	1.87868
2993.13203	1.84654
2991.20347	1.81553
2989.27490	1.78553
2987.34634	1.75596
2985.41777	1.72643
2983.48921	1.69719
2981.56064	1.66864
2979.63208	1.64079
2977.70352	1.61351
2975.77495	1.58678
2973.84639	1.56043
2971.91782	1.53446
2969.98926	1.50907
2968.06069	1.48424
2966.13213	1.45993
2964.20356	1.43608
2962.27500	1.41228
2960.34644	1.38820
2958.41787	1.36386
2956.48931	1.33951
2954.56074	1.31543
2952.63218	1.29143
2950.70361	1.26727
2948.77505	1.24363
2946.84648	1.22124
2944.91792	1.19967
2942.98936	1.17840
2941.06079	1.15769
2939.13223	1.13761
2937.20366	1.11762
2935.27510	1.09759
2933.34653	1.07780
2931.41797	1.05847
2929.48940	1.03971
2927.56084	1.02121
2925.63228	1.00276
2923.70371	0.98440
2921.77515	0.96598
2919.84658	0.94749
2917.91802	0.92936
2915.98945	0.91183
2914.06089	0.89461
2912.13232	0.87776
2910.20376	0.86140
2908.27520	0.84544
2906.34663	0.83029
2904.41807	0.81594
2902.48950	0.80173
2900.56094	0.78766
2898.63237	0.77397
2896.70381	0.76064
2894.77524	0.74780
2892.84668	0.73528
2890.91812	0.72280
2888.98955	0.71066
2887.06099	0.69930
2885.13242	0.68862
2883.20386	0.67836
2881.27529	0.66832
2879.34673	0.65827
2877.41816	0.64825
2875.48960	0.63834
2873.56104	0.62839
2871.63247	0.61812
2869.70391	0.60748
2867.77534	0.59655
2865.84678	0.58523
2863.91821	0.57371
2861.98965	0.56252
2860.06108	0.55200
2858.13252	0.54223
2856.20396	0.53329
2854.27539	0.52463
2852.34683	0.51559
2850.41826	0.50643
2848.48970	0.49753
2846.56113	0.48898
2844.63257	0.48103
2842.70400	0.47380
2840.77544	0.46709
2838.84687	0.46064
2836.91831	0.45436
2834.98975	0.44815
2833.06118	0.44204
2831.13262	0.43602
2829.20405	0.43000
2827.27549	0.42401
2825.34692	0.41806
2823.41836	0.41216
2821.48979	0.40632
2819.56123	0.40049
2817.63267	0.39475
2815.70410	0.38909
2813.77554	0.38343
2811.84697	0.37789
2809.91841	0.37251
2807.98984	0.36725
2806.06128	0.36192
2804.13271	0.35647
2802.20415	0.35108
2800.27559	0.34592
2798.34702	0.34109
2796.41846	0.33637
2794.48989	0.33164
2792.56133	0.32714
2790.63276	0.32284
2788.70420	0.31843
2786.77563	0.31388
2784.84707	0.30942
2782.91851	0.30515
2780.98994	0.30106
2779.06138	0.29705
2777.13281	0.29316
2775.20425	0.28933
2773.27568	0.28537
2771.34712	0.28146
2769.41855	0.27792
2767.48999	0.27463
2765.56143	0.27123
2763.63286	0.26760
2761.70430	0.26403
2759.77573	0.26074
2757.84717	0.25766
2755.91860	0.25462
2753.99004	0.25150
2752.06147	0.24829
2750.13291	0.24521
2748.20435	0.24242
2746.27578	0.23976
2744.34722	0.23700
2742.41865	0.23429
2740.49009	0.23166
2738.56152	0.22892
2736.63296	0.22621
2734.70439	0.22367
2732.77583	0.22124
2730.84727	0.21889
2728.91870	0.21650
2726.99014	0.21417
2725.06157	0.21201
2723.13301	0.20993
2721.20444	0.20794
2719.27588	0.20595
2717.34731	0.20382
2715.41875	0.20172
2713.49019	0.19987
2711.56162	0.19823
2709.63306	0.19660
2707.70449	0.19491
2705.77593	0.19325
2703.84736	0.19167
2701.91880	0.19017
2699.99023	0.18861
2698.06167	0.18692
2696.13311	0.18538
2694.20454	0.18413
2692.27598	0.18284
2690.34741	0.18130
2688.41885	0.17987
2686.49028	0.17875
2684.56172	0.17770
2682.63315	0.17653
2680.70459	0.17533
2678.77603	0.17416
2676.84746	0.17308
2674.91890	0.17206
2672.99033	0.17102
2671.06177	0.17004
2669.13320	0.16909
2667.20464	0.16821
2665.27607	0.16743
2663.34751	0.16663
2661.41895	0.16572
2659.49038	0.16477
2657.56182	0.16385
2655.63325	0.16303
2653.70469	0.16235
2651.77612	0.16181
2649.84756	0.16131
2647.91899	0.16073
2645.99043	0.16000
2644.06187	0.15924
2642.13330	0.15865
2640.20474	0.15827
2638.27617	0.15789
2636.34761	0.15732
2634.41904	0.15676
2632.49048	0.15639
2630.56191	0.15603
2628.63335	0.15561
2626.70479	0.15530
2624.77622	0.15504
2622.84766	0.15472
2620.91909	0.15436
2618.99053	0.15401
2617.06196	0.15376
2615.13340	0.15363
2613.20483	0.15351
2611.27627	0.15342
2609.34771	0.15340
2607.41914	0.15342
2605.49058	0.15338
2603.56201	0.15330
2601.63345	0.15325
2599.70488	0.15322
2597.77632	0.15327
2595.84775	0.15336
2593.91919	0.15331
2591.99062	0.15326
2590.06206	0.15338
2588.13350	0.15356
2586.20493	0.15370
2584.27637	0.15391
2582.34780	0.15421
2580.41924	0.15450
2578.49067	0.15476
2576.56211	0.15506
2574.63354	0.15536
2572.70498	0.15571
2570.77642	0.15618
2568.84785	0.15668
2566.91929	0.15704
2564.99072	0.15718
2563.06216	0.15728
2561.13359	0.15762
2559.20503	0.15817
2557.27646	0.15866
2555.34790	0.15908
2553.41934	0.15955
2551.49077	0.16011
2549.56221	0.16078
2547.63364	0.16150
2545.70508	0.16216
2543.77651	0.16269
2541.84795	0.16322
2539.91938	0.16382
2537.99082	0.16439
2536.06226	0.16498
2534.13369	0.16565
2532.20513	0.16630
2530.27656	0.16697
2528.34800	0.16767
2526.41943	0.16829
2524.49087	0.16897
2522.56230	0.16978
2520.63374	0.17058
2518.70518	0.17135
2516.77661	0.17221
2514.84805	0.17307
2512.91948	0.17380
2510.99092	0.17452
2509.06235	0.17535
2507.13379	0.17618
2505.20522	0.17687
2503.27666	0.17759
2501.34810	0.17841
2499.41953	0.17927
2497.49097	0.18021
2495.56240	0.18121
2493.63384	0.18209
2491.70527	0.18285
2489.77671	0.18366
2487.84814	0.18454
2485.91958	0.18543
2483.99102	0.18631
2482.06245	0.18723
2480.13389	0.18821
2478.20532	0.18924
2476.27676	0.19019
2474.34819	0.19099
2472.41963	0.19165
2470.49106	0.19235
2468.56250	0.19327
2466.63394	0.19434
2464.70537	0.19532
2462.77681	0.19622
2460.84824	0.19724
2458.91968	0.19831
2456.99111	0.19936
2455.06255	0.20040
2453.13398	0.20131
2451.20542	0.20215
2449.27686	0.20309
2447.34829	0.20411
2445.41973	0.20506
2443.49116	0.20601
2441.56260	0.20703
2439.63403	0.20806
2437.70547	0.20903
2435.77690	0.20989
2433.84834	0.21081
2431.91978	0.21206
2429.99121	0.21341
2428.06265	0.21454
2426.13408	0.21558
2424.20552	0.21658
2422.27695	0.21759
2420.34839	0.21871
2418.41982	0.21984
2416.49126	0.22092
2414.56270	0.22209
2412.63413	0.22336
2410.70557	0.22458
2408.77700	0.22568
2406.84844	0.22668
2404.91987	0.22776
2402.99131	0.22895
2401.06274	0.23021
2399.13418	0.23149
2397.20562	0.23273
2395.27705	0.23396
2393.34849	0.23520
2391.41992	0.23642
2389.49136	0.23765
2387.56279	0.23890
2385.63423	0.24007
2383.70566	0.24110
2381.77710	0.24197
2379.84854	0.24282
2377.91997	0.24380
2375.99141	0.24477
2374.06284	0.24543
2372.13428	0.24563
2370.20571	0.24551
2368.27715	0.24541
2366.34858	0.24561
2364.42002	0.24595
2362.49146	0.24644
2360.56289	0.24746
2358.63433	0.24932
2356.70576	0.25217
2354.77720	0.25548
2352.84863	0.25897
2350.92007	0.26207
2348.99150	0.26377
2347.06294	0.26430
2345.13437	0.26478
2343.20581	0.26598
2341.27725	0.26752
2339.34868	0.26933
2337.42012	0.27116
2335.49155	0.27297
2333.56299	0.27484
2331.63442	0.27654
2329.70586	0.27820
2327.77729	0.28012
2325.84873	0.28198
2323.92017	0.28387
2321.99160	0.28631
2320.06304	0.28891
2318.13447	0.29110
2316.20591	0.29302
2314.27734	0.29491
2312.34878	0.29684
2310.42021	0.29899
2308.49165	0.30142
2306.56309	0.30381
2304.63452	0.30594
2302.70596	0.30792
2300.77739	0.30974
2298.84883	0.31146
2296.92026	0.31339
2294.99170	0.31553
2293.06313	0.31766
2291.13457	0.31976
2289.20601	0.32182
2287.27744	0.32379
2285.34888	0.32585
2283.42031	0.32802
2281.49175	0.33005
2279.56318	0.33193
2277.63462	0.33388
2275.70605	0.33598
2273.77749	0.33813
2271.84893	0.34027
2269.92036	0.34242
2267.99180	0.34453
2266.06323	0.34657
2264.13467	0.34866
2262.20610	0.35088
2260.27754	0.35311
2258.34897	0.35527
2256.42041	0.35740
2254.49185	0.35954
2252.56328	0.36177
2250.63472	0.36410
2248.70615	0.36645
2246.77759	0.36874
2244.84902	0.37100
2242.92046	0.37325
2240.99189	0.37541
2239.06333	0.37753
2237.13477	0.37977
2235.20620	0.38213
2233.27764	0.38450
2231.34907	0.38675
2229.42051	0.38890
2227.49194	0.39110
2225.56338	0.39341
2223.63481	0.39570
2221.70625	0.39798
2219.77769	0.40024
2217.84912	0.40233
2215.92056	0.40430
2213.99199	0.40634
2212.06343	0.40848
2210.13486	0.41066
2208.20630	0.41294
2206.27773	0.41523
2204.34917	0.41738
2202.42061	0.41937
2200.49204	0.42139
2198.56348	0.42349
2196.63491	0.42553
2194.70635	0.42750
2192.77778	0.42945
2190.84922	0.43133
2188.92065	0.43318
2186.99209	0.43507
2185.06353	0.43705
2183.13496	0.43901
2181.20640	0.44076
2179.27783	0.44232
2177.34927	0.44391
2175.42070	0.44555
2173.49214	0.44707
2171.56357	0.44840
2169.63501	0.44977
2167.70645	0.45121
2165.77788	0.45249
2163.84932	0.45362
2161.92075	0.45476
2159.99219	0.45588
2158.06362	0.45689
2156.13506	0.45781
2154.20649	0.45862
2152.27793	0.45935
2150.34937	0.46015
2148.42080	0.46094
2146.49224	0.46151
2144.56367	0.46187
2142.63511	0.46226
2140.70654	0.46273
2138.77798	0.46314
2136.84941	0.46335
2134.92085	0.46345
2132.99229	0.46350
2131.06372	0.46347
2129.13516	0.46339
2127.20659	0.46322
2125.27803	0.46284
2123.34946	0.46225
2121.42090	0.46173
2119.49233	0.46127
2117.56377	0.46072
2115.63521	0.46005
2113.70664	0.45929
2111.77808	0.45833
2109.84951	0.45724
2107.92095	0.45623
2105.99238	0.45524
2104.06382	0.45414
2102.13525	0.45296
2100.20669	0.45168
2098.27812	0.45026
2096.34956	0.44868
2094.42100	0.44697
2092.49243	0.44532
2090.56387	0.44379
2088.63530	0.44211
2086.70674	0.44027
2084.77817	0.43844
2082.84961	0.43655
2080.92104	0.43454
2078.99248	0.43252
2077.06392	0.43047
2075.13535	0.42833
2073.20679	0.42620
2071.27822	0.42405
2069.34966	0.42174
2067.42109	0.41929
2065.49253	0.41690
2063.56396	0.41453
2061.63540	0.41212
2059.70684	0.40967
2057.77827	0.40719
2055.84971	0.40466
2053.92114	0.40200
2051.99258	0.39926
2050.06401	0.39658
2048.13545	0.39400
2046.20688	0.39140
2044.27832	0.38874
2042.34976	0.38599
2040.42119	0.38317
2038.49263	0.38035
2036.56406	0.37756
2034.63550	0.37482
2032.70693	0.37209
2030.77837	0.36936
2028.84980	0.36656
2026.92124	0.36375
2024.99268	0.36101
2023.06411	0.35826
2021.13555	0.35545
2019.20698	0.35260
2017.27842	0.34979
2015.34985	0.34705
2013.42129	0.34426
2011.49272	0.34138
2009.56416	0.33856
2007.63560	0.33585
2005.70703	0.33318
2003.77847	0.33044
2001.84990	0.32763
1999.92134	0.32481
1997.99277	0.32212
1996.06421	0.31959
1994.13564	0.31706
1992.20708	0.31446
1990.27852	0.31192
1988.34995	0.30952
1986.42139	0.30713
1984.49282	0.30465
1982.56426	0.30218
1980.63569	0.29977
1978.70713	0.29746
1976.77856	0.29521
1974.85000	0.29297
1972.92144	0.29073
1970.99287	0.28859
1969.06431	0.28661
1967.13574	0.28460
1965.20718	0.28243
1963.27861	0.28030
1961.35005	0.27830
1959.42148	0.27640
1957.49292	0.27453
1955.56436	0.27269
1953.63579	0.27089
1951.70723	0.26908
1949.77866	0.26734
1947.85010	0.26572
1945.92153	0.26418
1943.99297	0.26275
1942.06440	0.26135
1940.13584	0.25979
1938.20728	0.25827
1936.27871	0.25688
1934.35015	0.25555
1932.42158	0.25426
1930.49302	0.25302
1928.56445	0.25183
1926.63589	0.25076
1924.70732	0.24980
1922.77876	0.24882
1920.85020	0.24772
1918.92163	0.24672
1916.99307	0.24589
1915.06450	0.24501
1913.13594	0.24408
1911.20737	0.24329
1909.27881	0.24266
1907.35024	0.24205
1905.42168	0.24135
1903.49312	0.24064
1901.56455	0.24003
1899.63599	0.23951
1897.70742	0.23910
1895.77886	0.23877
1893.85029	0.23841
1891.92173	0.23803
1889.99316	0.23781
1888.06460	0.23756
1886.13604	0.23716
1884.20747	0.23683
1882.27891	0.23665
1880.35034	0.23654
1878.42178	0.23644
1876.49321	0.23645
1874.56465	0.23650
1872.63608	0.23653
1870.70752	0.23667
1868.77896	0.23707
1866.85039	0.23730
1864.92183	0.23720
1862.99326	0.23726
1861.06470	0.23759
1859.13613	0.23807
1857.20757	0.23847
1855.27900	0.23887
1853.35044	0.23930
1851.42187	0.23980
1849.49331	0.24033
1847.56475	0.24098
1845.63618	0.24180
1843.70762	0.24279
1841.77905	0.24368
1839.85049	0.24417
1837.92192	0.24481
1835.99336	0.24569
1834.06479	0.24662
1832.13623	0.24757
1830.20767	0.24893
1828.27910	0.25045
1826.35054	0.25162
1824.42197	0.25291
1822.49341	0.25418
1820.56484	0.25544
1818.63628	0.25684
1816.70771	0.25845
1814.77915	0.26002
1812.85059	0.26172
1810.92202	0.26370
1808.99346	0.26572
1807.06489	0.26765
1805.13633	0.26959
1803.20776	0.27184
1801.27920	0.27438
1799.35063	0.27720
1797.42207	0.27977
1795.49351	0.28219
1793.56494	0.28502
1791.63638	0.28869
1789.70781	0.29225
1787.77925	0.29494
1785.85068	0.29801
1783.92212	0.30167
1781.99355	0.30561
1780.06499	0.30979
1778.13643	0.31410
1776.20786	0.31821
1774.27930	0.32254
1772.35073	0.32829
1770.42217	0.33460
1768.49360	0.34001
1766.56504	0.34527
1764.63647	0.35072
1762.70791	0.35660
1760.77935	0.36398
1758.85078	0.37114
1756.92222	0.37835
1754.99365	0.38615
1753.06509	0.39326
1751.13652	0.40166
1749.20796	0.41220
1747.27939	0.42267
1745.35083	0.43190
1743.42227	0.44151
1741.49370	0.45211
1739.56514	0.46452
1737.63657	0.47689
1735.70801	0.48776
1733.77944	0.50391
1731.85088	0.52327
1729.92231	0.53888
1727.99375	0.55488
1726.06519	0.57223
1724.13662	0.59098
1722.20806	0.61110
1720.27949	0.62998
1718.35093	0.65195
1716.42236	0.68345
1714.49380	0.71373
1712.56523	0.73895
1710.63667	0.76350
1708.70811	0.78964
1706.77954	0.81900
1704.85098	0.85386
1702.92241	0.88558
1700.99385	0.91745
1699.06528	0.96408
1697.13672	1.00707
1695.20815	1.05127
1693.27959	1.09538
1691.35103	1.13166
1689.42246	1.17323
1687.49390	1.21722
1685.56533	1.25993
1683.63677	1.32393
1681.70820	1.39037
1679.77964	1.43396
1677.85107	1.47574
1675.92251	1.52404
1673.99395	1.58345
1672.06538	1.63650
1670.13682	1.68769
1668.20825	1.75396
1666.27969	1.81014
1664.35112	1.85890
1662.42256	1.91962
1660.49399	1.98832
1658.56543	2.04286
1656.63687	2.08674
1654.70830	2.12493
1652.77974	2.18047
1650.85117	2.23635
1648.92261	2.25896
1646.99404	2.28558
1645.06548	2.31392
1643.13691	2.33283
1641.20835	2.34336
1639.27979	2.35137
1637.35122	2.35368
1635.42266	2.35073
1633.49409	2.34519
1631.56553	2.33332
1629.63696	2.31658
1627.70840	2.28750
1625.77983	2.25185
1623.85127	2.20804
1621.92271	2.15781
1619.99414	2.11210
1618.06558	2.06479
1616.13701	1.99936
1614.20845	1.93472
1612.27988	1.88491
1610.35132	1.83235
1608.42275	1.77576
1606.49419	1.72026
1604.56562	1.66944
1602.63706	1.62089
1600.70850	1.57321
1598.77993	1.52874
1596.85137	1.48702
1594.92280	1.44679
1592.99424	1.40789
1591.06567	1.37217
1589.13711	1.33879
1587.20854	1.30769
1585.27998	1.27908
1583.35142	1.25277
1581.42285	1.22908
1579.49429	1.20861
1577.56572	1.18980
1575.63716	1.16798
1573.70859	1.14955
1571.78003	1.13752
1569.85146	1.12550
1567.92290	1.11275
1565.99434	1.10337
1564.06577	1.09672
1562.13721	1.09203
1560.20864	1.08955
1558.28008	1.08896
1556.35151	1.08940
1554.42295	1.08995
1552.49438	1.09072
1550.56582	1.08981
1548.63726	1.08612
1546.70869	1.08001
1544.78013	1.07079
1542.85156	1.05789
1540.92300	1.03958
1538.99443	1.01314
1537.06587	0.99293
1535.13730	0.97828
1533.20874	0.95936
1531.28018	0.93938
1529.35161	0.92439
1527.42305	0.91026
1525.49448	0.89590
1523.56592	0.88351
1521.63735	0.87162
1519.70879	0.86007
1517.78022	0.85061
1515.85166	0.83993
1513.92310	0.82844
1511.99453	0.81785
1510.06597	0.80782
1508.13740	0.79801
1506.20884	0.78447
1504.28027	0.77299
1502.35171	0.76616
1500.42314	0.76001
1498.49458	0.75351
1496.56602	0.74620
1494.63745	0.73913
1492.70889	0.73360
1490.78032	0.72863
1488.85176	0.72311
1486.92319	0.71809
1484.99463	0.71410
1483.06606	0.71103
1481.13750	0.70866
1479.20894	0.70686
1477.28037	0.70583
1475.35181	0.70553
1473.42324	0.70547
1471.49468	0.70456
1469.56611	0.70247
1467.63755	0.70010
1465.70898	0.69797
1463.78042	0.69628
1461.85186	0.69528
1459.92329	0.69484
1457.99473	0.69455
1456.06616	0.69330
1454.13760	0.69067
1452.20903	0.68775
1450.28047	0.68474
1448.35190	0.68176
1446.42334	0.67887
1444.49478	0.67614
1442.56621	0.67343
1440.63765	0.67060
1438.70908	0.66775
1436.78052	0.66445
1434.85195	0.66088
1432.92339	0.65801
1430.99482	0.65590
1429.06626	0.65470
1427.13770	0.65455
1425.20913	0.65498
1423.28057	0.65554
1421.35200	0.65588
1419.42344	0.65609
1417.49487	0.65601
1415.56631	0.65521
1413.63774	0.65440
1411.70918	0.65416
1409.78062	0.65467
1407.85205	0.65569
1405.92349	0.65699
1403.99492	0.65818
1402.06636	0.65845
1400.13779	0.65757
1398.20923	0.65569
1396.28066	0.65316
1394.35210	0.64980
1392.42354	0.64571
1390.49497	0.64172
1388.56641	0.63775
1386.63784	0.63331
1384.70928	0.62863
1382.78071	0.62401
1380.85215	0.61942
1378.92358	0.61542
1376.99502	0.61252
1375.06646	0.61056
1373.13789	0.60903
1371.20933	0.60788
1369.28076	0.60700
1367.35220	0.60593
1365.42363	0.60449
1363.49507	0.60289
1361.56650	0.60131
1359.63794	0.59990
1357.70937	0.59870
1355.78081	0.59763
1353.85225	0.59663
1351.92368	0.59570
1349.99512	0.59491
1348.06655	0.59420
1346.13799	0.59346
1344.20942	0.59273
1342.28086	0.59204
1340.35229	0.59142
1338.42373	0.59089
1336.49517	0.59034
1334.56660	0.58984
1332.63804	0.58966
1330.70947	0.58980
1328.78091	0.58999
1326.85234	0.59024
1324.92378	0.59077
1322.99521	0.59151
1321.06665	0.59223
1319.13809	0.59289
1317.20952	0.59330
1315.28096	0.59331
1313.35239	0.59290
1311.42383	0.59214
1309.49526	0.59146
1307.56670	0.59112
1305.63813	0.59067
1303.70957	0.58982
1301.78101	0.58883
1299.85244	0.58790
1297.92388	0.58688
1295.99531	0.58571
1294.06675	0.58449
1292.13818	0.58322
1290.20962	0.58180
1288.28105	0.58041
1286.35249	0.57924
1284.42393	0.57818
1282.49536	0.57702
1280.56680	0.57573
1278.63823	0.57440
1276.70967	0.57322
1274.78110	0.57219
1272.85254	0.57126
1270.92397	0.57039
1268.99541	0.56951
1267.06685	0.56875
1265.13828	0.56808
1263.20972	0.56732
1261.28115	0.56651
1259.35259	0.56590
1257.42402	0.56551
1255.49546	0.56528
1253.56689	0.56524
1251.63833	0.56527
1249.70977	0.56527
1247.78120	0.56531
1245.85264	0.56528
1243.92407	0.56489
1241.99551	0.56401
1240.06694	0.56275
1238.13838	0.56125
1236.20981	0.55944
1234.28125	0.55735
1232.35269	0.55533
1230.42412	0.55353
1228.49556	0.55177
1226.56699	0.54995
1224.63843	0.54823
1222.70986	0.54672
1220.78130	0.54535
1218.85273	0.54411
1216.92417	0.54295
1214.99561	0.54186
1213.06704	0.54084
1211.13848	0.53992
1209.20991	0.53915
1207.28135	0.53849
1205.35278	0.53780
1203.42422	0.53694
1201.49565	0.53595
1199.56709	0.53500
1197.63853	0.53426
1195.70996	0.53368
1193.78140	0.53324
1191.85283	0.53297
1189.92427	0.53274
1187.99570	0.53238
1186.06714	0.53207
1184.13857	0.53214
1182.21001	0.53266
1180.28145	0.53355
1178.35288	0.53464
1176.42432	0.53585
1174.49575	0.53698
1172.56719	0.53774
1170.63862	0.53793
1168.71006	0.53770
1166.78149	0.53739
1164.85293	0.53701
1162.92437	0.53646
1160.99580	0.53587
1159.06724	0.53520
1157.13867	0.53431
1155.21011	0.53320
1153.28154	0.53167
1151.35298	0.52966
1149.42441	0.52741
1147.49585	0.52504
1145.56729	0.52247
1143.63872	0.51984
1141.71016	0.51742
1139.78159	0.51536
1137.85303	0.51366
1135.92446	0.51230
1133.99590	0.51135
1132.06733	0.51065
1130.13877	0.50988
1128.21021	0.50896
1126.28164	0.50798
1124.35308	0.50693
1122.42451	0.50590
1120.49595	0.50514
1118.56738	0.50472
1116.63882	0.50450
1114.71025	0.50426
1112.78169	0.50410
1110.85312	0.50425
1108.92456	0.50466
1106.99600	0.50541
1105.06743	0.50659
1103.13887	0.50801
1101.21030	0.50960
1099.28174	0.51158
1097.35317	0.51413
1095.42461	0.51719
1093.49604	0.52058
1091.56748	0.52440
1089.63892	0.52893
1087.71035	0.53421
1085.78179	0.54011
1083.85322	0.54638
1081.92466	0.55237
1079.99609	0.55730
1078.06753	0.56045
1076.13896	0.56113
1074.21040	0.55904
1072.28184	0.55465
1070.35327	0.54872
1068.42471	0.54195
1066.49614	0.53519
1064.56758	0.52886
1062.63901	0.52315
1060.71045	0.51825
1058.78188	0.51387
1056.85332	0.50973
1054.92476	0.50608
1052.99619	0.50308
1051.06763	0.50059
1049.13906	0.49850
1047.21050	0.49664
1045.28193	0.49489
1043.35337	0.49332
1041.42480	0.49186
1039.49624	0.49045
1037.56768	0.48925
1035.63911	0.48853
1033.71055	0.48831
1031.78198	0.48831
1029.85342	0.48824
1027.92485	0.48801
1025.99629	0.48784
1024.06772	0.48794
1022.13916	0.48828
1020.21060	0.48887
1018.28203	0.48966
1016.35347	0.49053
1014.42490	0.49155
1012.49634	0.49266
1010.56777	0.49380
1008.63921	0.49509
1006.71064	0.49673
1004.78208	0.49878
1002.85352	0.50110
1000.92495	0.50364
998.99639	0.50661
997.06782	0.51023
995.13926	0.51439
993.21069	0.51853
991.28213	0.52208
989.35356	0.52474
987.42500	0.52646
985.49644	0.52755
983.56787	0.52843
981.63931	0.52934
979.71074	0.53047
977.78218	0.53219
975.85361	0.53460
973.92505	0.53749
971.99648	0.54066
970.06792	0.54400
968.13936	0.54753
966.21079	0.55130
964.28223	0.55565
962.35366	0.56074
960.42510	0.56618
958.49653	0.57154
956.56797	0.57687
954.63940	0.58254
952.71084	0.58862
950.78228	0.59483
948.85371	0.60109
946.92515	0.60755
944.99658	0.61409
943.06802	0.62032
941.13945	0.62646
939.21089	0.63301
937.28232	0.63942
935.35376	0.64529
933.42520	0.65118
931.49663	0.65699
929.56807	0.66235
927.63950	0.66782
925.71094	0.67392
923.78237	0.68050
921.85381	0.68700
919.92524	0.69357
917.99668	0.70096
916.06812	0.70873
914.13955	0.71603
912.21099	0.72302
910.28242	0.73049
908.35386	0.73881
906.42529	0.74758
904.49673	0.75626
902.56816	0.76463
900.63960	0.77316
898.71104	0.78251
896.78247	0.79226
894.85391	0.80189
892.92534	0.81195
890.99678	0.82316
889.06821	0.83493
887.13965	0.84596
885.21108	0.85651
883.28252	0.86757
881.35396	0.87896
879.42539	0.89047
877.49683	0.90245
875.56826	0.91457
873.63970	0.92597
871.71113	0.93660
869.78257	0.94738
867.85400	0.95878
865.92544	0.97019
863.99687	0.98190
862.06831	0.99491
860.13975	1.00762
858.21118	1.01885
856.28262	1.03026
854.35405	1.04176
852.42549	1.05254
850.49692	1.06345
848.56836	1.07567
846.63979	1.08910
844.71123	1.10126
842.78267	1.11069
840.85410	1.11813
838.92554	1.12639
836.99697	1.13940
835.06841	1.15456
833.13984	1.16768
831.21128	1.17731
829.28271	1.18286
827.35415	1.19222
825.42559	1.20994
823.49702	1.22885
821.56846	1.24431
819.63989	1.25572
817.71133	1.26070
815.78276	1.26205
813.85420	1.26482
811.92563	1.27174
809.99707	1.28980
808.06851	1.31442
806.13994	1.32848
804.21138	1.33404
802.28281	1.34362
800.35425	1.35526
798.42568	1.36414
796.49712	1.36917
794.56855	1.37291
792.63999	1.37463
790.71143	1.37334
788.78286	1.39435
786.85430	1.42455
784.92573	1.42536
782.99717	1.44076
781.06860	1.48902
779.14004	1.54343
777.21147	1.60429
775.28291	1.58774
773.35435	1.50584
771.42578	1.48584
769.49722	1.48384
767.56865	1.40737
765.64009	1.33579
763.71152	1.33984
761.78296	1.36281
759.85439	1.34292
757.92583	1.36479
755.99727	1.54738
754.06870	1.96561
752.14014	1.61053
750.21157	1.28009
748.28301	1.21660
746.35444	1.25401
744.42588	1.20555
742.49731	1.20424
740.56875	1.36115
738.64019	1.29778
736.71162	1.09261
734.78306	1.06174
732.85449	1.10876
730.92593	1.06940
728.99736	0.90252
727.06880	0.62998
725.14023	0.45844
723.21167	0.44485
721.28311	0.49833
719.35454	0.48042
717.42598	0.30997
715.49741	0.20140
713.56885	0.19729
711.64028	0.24738
709.71172	0.35545
707.78315	0.47677
705.85459	0.42412
703.92603	0.27158
701.99746	0.13190
700.06890	0.05861
698.14033	0.06295
696.21177	0.13157
694.28320	0.17306
692.35464	0.19048
690.42607	0.27269
688.49751	0.31462
686.56895	0.24270
684.64038	0.20919
682.71182	0.40468
680.78325	1.45398
678.85469	1.47977
676.92612	0.52268
674.99756	0.38384
673.06899	0.39716
671.14043	0.38641
669.21187	0.35098
667.28330	0.30288
665.35474	0.24936
663.42617	0.26530
661.49761	0.35847
659.56904	0.41054
657.64048	0.41011
655.71191	0.41648
653.78335	0.38977
651.85479	0.36803
649.92622	0.40091
647.99766	0.42878
646.06909	0.36691
644.14053	0.32067
642.21196	0.34895
640.28340	0.32404
638.35483	0.27908
636.42627	0.28865
634.49771	0.34743
632.56914	0.41200
630.64058	0.46375
628.71201	0.43363
626.78345	0.27229
624.85488	0.14643
622.92632	0.13021
620.99775	0.22895
619.06919	0.30464
617.14062	0.28849
615.21206	0.31882
613.28350	0.34761
611.35493	0.27167
609.42637	0.22692
607.49780	0.24401
605.56924	0.36212
603.64067	0.79000
601.71211	3.61027
599.78354	3.59870
597.85498	3.58713
595.92642	0.48058
593.99785	0.38613
592.06929	0.44123
590.14072	0.37906
588.21216	0.19966
586.28359	0.12777
584.35503	0.20418
582.42646	0.36541
580.49790	0.45391
578.56934	0.42254
576.64077	0.43667
574.71221	0.42996
572.78364	0.34179
570.85508	0.26341
568.92651	0.21703
566.99795	0.20988
565.06938	0.27237
563.14082	0.34188
561.21226	0.33437
559.28369	0.31353
557.35513	0.31886
555.42656	0.32919
553.49800	0.32924
551.56943	0.35774
549.64087	0.37098
547.71230	0.30087
545.78374	0.28368
543.85518	0.33944
541.92661	0.34508
539.99805	0.25675
538.06948	0.19493
536.14092	0.19426
534.21235	0.27115
532.28379	0.52866
530.35522	0.92663
528.42666	0.40106
526.49810	0.22251
524.56953	0.18546
522.64097	0.23301
520.71240	0.27348
518.78384	0.24226
516.85527	0.19973
514.92671	0.23200
512.99814	0.41185
511.06958	0.64278
509.14102	0.40350
507.21245	0.28016
505.28389	0.26984
503.35532	0.24541
501.42676	0.23971
499.49819	0.29242
