3997.91411	0.06659
3995.98555	0.06706
3994.05698	0.06776
3992.12842	0.06827
3990.19985	0.06856
3988.27129	0.06869
3986.34272	0.06882
3984.41416	0.06923
3982.48560	0.06970
3980.55703	0.06985
3978.62847	0.06984
3976.69990	0.07004
3974.77134	0.07029
3972.84277	0.07039
3970.91421	0.07060
3968.98564	0.07087
3967.05708	0.07072
3965.12852	0.07035
3963.19995	0.07037
3961.27139	0.07063
3959.34282	0.07089
3957.41426	0.07133
3955.48569	0.07175
3953.55713	0.07184
3951.62856	0.07203
3949.70000	0.07277
3947.77144	0.07335
3945.84287	0.07312
3943.91431	0.07294
3941.98574	0.07311
3940.05718	0.07269
3938.12861	0.07178
3936.20005	0.07127
3934.27148	0.07161
3932.34292	0.07275
3930.41436	0.07374
3928.48579	0.07361
3926.55723	0.07305
3924.62866	0.07301
3922.70010	0.07298
3920.77153	0.07253
3918.84297	0.07267
3916.91440	0.07339
3914.98584	0.07302
3913.05728	0.07161
3911.12871	0.07062
3909.20015	0.07027
3907.27158	0.07070
3905.34302	0.07247
3903.41445	0.07524
3901.48589	0.07713
3899.55732	0.07710
3897.62876	0.07543
3895.70020	0.07330
3893.77163	0.07264
3891.84307	0.07395
3889.91450	0.07496
3887.98594	0.07444
3886.05737	0.07480
3884.12881	0.07612
3882.20024	0.07646
3880.27168	0.07639
3878.34312	0.07546
3876.41455	0.07416
3874.48599	0.07480
3872.55742	0.07670
3870.62886	0.07809
3868.70029	0.07864
3866.77173	0.07820
3864.84316	0.07809
3862.91460	0.07830
3860.98604	0.07750
3859.05747	0.07664
3857.12891	0.07715
3855.20034	0.07945
3853.27178	0.08343
3851.34321	0.08486
3849.41465	0.08148
3847.48608	0.07850
3845.55752	0.07790
3843.62896	0.07957
3841.70039	0.08235
3839.77183	0.08485
3837.84326	0.08637
3835.91470	0.08619
3833.98613	0.08521
3832.05757	0.08473
3830.12900	0.08449
3828.20044	0.08459
3826.27187	0.08566
3824.34331	0.08722
3822.41475	0.08951
3820.48618	0.09320
3818.55762	0.09489
3816.62905	0.09418
3814.70049	0.09318
3812.77192	0.09154
3810.84336	0.09047
3808.91479	0.09136
3806.98623	0.09429
3805.05767	0.09728
3803.12910	0.09917
3801.20054	0.10141
3799.27197	0.10273
3797.34341	0.10260
3795.41484	0.10273
3793.48628	0.10242
3791.55771	0.10199
3789.62915	0.10267
3787.70059	0.10426
3785.77202	0.10623
3783.84346	0.10818
3781.91489	0.10979
3779.98633	0.11180
3778.05776	0.11401
3776.12920	0.11490
3774.20063	0.11528
3772.27207	0.11674
3770.34351	0.11949
3768.41494	0.12246
3766.48638	0.12452
3764.55781	0.12597
3762.62925	0.12739
3760.70068	0.12998
3758.77212	0.13402
3756.84355	0.13748
3754.91499	0.13966
3752.98643	0.14265
3751.05786	0.14801
3749.12930	0.15350
3747.20073	0.15553
3745.27217	0.15705
3743.34360	0.16062
3741.41504	0.16391
3739.48647	0.16611
3737.55791	0.16970
3735.62935	0.17658
3733.70078	0.18440
3731.77222	0.18794
3729.84365	0.18919
3727.91509	0.19191
3725.98652	0.19737
3724.05796	0.20437
3722.12939	0.21119
3720.20083	0.21787
3718.27227	0.22429
3716.34370	0.23049
3714.41514	0.23748
3712.48657	0.24785
3710.55801	0.26286
3708.62944	0.27697
3706.70088	0.28736
3704.77231	0.29782
3702.84375	0.31092
3700.91519	0.32773
3698.98662	0.34577
3697.05806	0.36316
3695.12949	0.38178
3693.20093	0.40174
3691.27236	0.42422
3689.34380	0.45316
3687.41523	0.48696
3685.48667	0.51601
3683.55811	0.54145
3681.62954	0.56974
3679.70098	0.60265
3677.77241	0.63779
3675.84385	0.67884
3673.91528	0.73192
3671.98672	0.77542
3670.05815	0.81477
3668.12959	0.86684
3666.20103	0.91337
3664.27246	0.95284
3662.34390	0.99632
3660.41533	1.04397
3658.48677	1.09104
3656.55820	1.14094
3654.62964	1.19675
3652.70107	1.24484
3650.77251	1.28828
3648.84395	1.34699
3646.91538	1.41423
3644.98682	1.46176
3643.05825	1.49936
3641.12969	1.53964
3639.20112	1.58418
3637.27256	1.62868
3635.34399	1.67287
3633.41543	1.71793
3631.48687	1.75990
3629.55830	1.80204
3627.62974	1.85562
3625.70117	1.90441
3623.77261	1.93800
3621.84404	1.97174
3619.91548	2.01119
3617.98691	2.05735
3616.05835	2.10070
3614.12979	2.13782
3612.20122	2.17765
3610.27266	2.21750
3608.34409	2.25750
3606.41553	2.30016
3604.48696	2.34005
3602.55840	2.37671
3600.62983	2.41576
3598.70127	2.45628
3596.77271	2.49554
3594.84414	2.53651
3592.91558	2.57938
3590.98701	2.61936
3589.05845	2.65646
3587.12988	2.70043
3585.20132	2.74858
3583.27275	2.78949
3581.34419	2.82696
3579.41562	2.86715
3577.48706	2.91024
3575.55850	2.95441
3573.62993	2.99943
3571.70137	3.04225
3569.77280	3.08252
3567.84424	3.12608
3565.91567	3.17982
3563.98711	3.23067
3562.05854	3.27182
3560.12998	3.31490
3558.20142	3.36115
3556.27285	3.40609
3554.34429	3.45058
3552.41572	3.49842
3550.48716	3.54608
3548.55859	3.59099
3546.63003	3.63570
3544.70146	3.68263
3542.77290	3.73149
3540.84434	3.77931
3538.91577	3.82532
3536.98721	3.87139
3535.05864	3.92027
3533.13008	3.96968
3531.20151	4.01717
3529.27295	4.06293
3527.34438	4.11034
3525.41582	4.15972
3523.48726	4.20851
3521.55869	4.25780
3519.63013	4.30715
3517.70156	4.35751
3515.77300	4.40770
3513.84443	4.45500
3511.91587	4.50182
3509.98730	4.55233
3508.05874	4.60404
3506.13018	4.65259
3504.20161	4.69948
3502.27305	4.74771
3500.34448	4.79514
3498.41592	4.84013
3496.48735	4.88771
3494.55879	4.93658
3492.63022	4.98482
3490.70166	5.03497
3488.77310	5.08138
3486.84453	5.12171
3484.91597	5.16699
3482.98740	5.21952
3481.05884	5.26975
3479.13027	5.31622
3477.20171	5.36524
3475.27314	5.41460
3473.34458	5.46016
3471.41602	5.50768
3469.48745	5.55883
3467.55889	5.61042
3465.63032	5.66045
3463.70176	5.70700
3461.77319	5.74914
3459.84463	5.78688
3457.91606	5.82740
3455.98750	5.88370
3454.05894	5.95173
3452.13037	6.01767
3450.20181	6.08066
3448.27324	6.13932
3446.34468	6.18970
3444.41611	6.23212
3442.48755	6.27743
3440.55898	6.32968
3438.63042	6.37837
3436.70186	6.41690
3434.77329	6.45270
3432.84473	6.49138
3430.91616	6.53818
3428.98760	6.60454
3427.05903	6.67172
3425.13047	6.71766
3423.20190	6.74626
3421.27334	6.78008
3419.34478	6.82813
3417.41621	6.88267
3415.48765	6.93657
3413.55908	6.98074
3411.63052	7.02718
3409.70195	7.08233
3407.77339	7.12582
3405.84482	7.14710
3403.91626	7.19393
3401.98770	7.25274
3400.05913	7.28161
3398.13057	7.31855
3396.20200	7.35506
3394.27344	7.37909
3392.34487	7.41603
3390.41631	7.48818
3388.48774	7.57532
3386.55918	7.61135
3384.63062	7.58850
3382.70205	7.57363
3380.77349	7.59578
3378.84492	7.65475
3376.91636	7.74417
3374.98779	7.81094
3373.05923	7.85114
3371.13066	7.84992
3369.20210	7.78898
3367.27354	7.75119
3365.34497	7.77953
3363.41641	7.80451
3361.48784	7.81141
3359.55928	7.85206
3357.63071	7.91860
3355.70215	7.98244
3353.77358	8.00087
3351.84502	7.99720
3349.91646	8.00811
3347.98789	8.02647
3346.05933	8.05187
3344.13076	8.08735
3342.20220	8.10786
3340.27363	8.09683
3338.34507	8.10559
3336.41650	8.13526
3334.48794	8.15615
3332.55937	8.14449
3330.63081	8.11593
3328.70225	8.05720
3326.77368	7.97943
3324.84512	7.97138
3322.91655	8.01369
3320.98799	8.03965
3319.05942	8.05159
3317.13086	8.13663
3315.20229	8.29529
3313.27373	8.38585
3311.34517	8.33957
3309.41660	8.22573
3307.48804	8.16399
3305.55947	8.21354
3303.63091	8.26968
3301.70234	8.20754
3299.77378	8.16348
3297.84521	8.22968
3295.91665	8.26984
3293.98809	8.20210
3292.05952	8.17004
3290.13096	8.26202
3288.20239	8.36078
3286.27383	8.36427
3284.34526	8.32502
3282.41670	8.29839
3280.48813	8.24861
3278.55957	8.19329
3276.63101	8.20105
3274.70244	8.25376
3272.77388	8.26462
3270.84531	8.22668
3268.91675	8.23915
3266.98818	8.29999
3265.05962	8.28878
3263.13105	8.26904
3261.20249	8.38603
3259.27393	8.48606
3257.34536	8.39910
3255.41680	8.25432
3253.48823	8.15051
3251.55967	8.09417
3249.63110	8.11070
3247.70254	8.15974
3245.77397	8.14019
3243.84541	8.13736
3241.91685	8.25164
3239.98828	8.34555
3238.05972	8.24810
3236.13115	8.12570
3234.20259	8.10604
3232.27402	8.08281
3230.34546	8.01400
3228.41689	7.92615
3226.48833	7.89542
3224.55977	7.95672
3222.63120	8.02414
3220.70264	8.08354
3218.77407	8.14609
3216.84551	8.13090
3214.91694	8.03021
3212.98838	7.91727
3211.05981	7.84376
3209.13125	7.81385
3207.20269	7.80237
3205.27412	7.82222
3203.34556	7.86149
3201.41699	7.84987
3199.48843	7.79800
3197.55986	7.79926
3195.63130	7.83337
3193.70273	7.78975
3191.77417	7.69710
3189.84561	7.61917
3187.91704	7.54752
3185.98848	7.49713
3184.05991	7.48007
3182.13135	7.44402
3180.20278	7.36764
3178.27422	7.30306
3176.34565	7.26759
3174.41709	7.24302
3172.48853	7.19156
3170.55996	7.09567
3168.63140	7.02065
3166.70283	6.97098
3164.77427	6.89215
3162.84570	6.81226
3160.91714	6.76076
3158.98857	6.71721
3157.06001	6.67381
3155.13145	6.62462
3153.20288	6.55651
3151.27432	6.48131
3149.34575	6.40948
3147.41719	6.33758
3145.48862	6.25934
3143.56006	6.17084
3141.63149	6.08599
3139.70293	6.01691
3137.77437	5.96264
3135.84580	5.90979
3133.91724	5.84534
3131.98867	5.77059
3130.06011	5.69471
3128.13154	5.62778
3126.20298	5.56717
3124.27441	5.49999
3122.34585	5.42203
3120.41729	5.34397
3118.48872	5.27222
3116.56016	5.20201
3114.63159	5.13008
3112.70303	5.05764
3110.77446	4.98763
3108.84590	4.92166
3106.91733	4.85897
3104.98877	4.79623
3103.06021	4.72976
3101.13164	4.65912
3099.20308	4.58894
3097.27451	4.52366
3095.34595	4.46115
3093.41738	4.39721
3091.48882	4.33185
3089.56025	4.26657
3087.63169	4.20215
3085.70312	4.14020
3083.77456	4.08121
3081.84600	4.02356
3079.91743	3.96548
3077.98887	3.90685
3076.06030	3.84756
3074.13174	3.78807
3072.20317	3.72950
3070.27461	3.67131
3068.34604	3.61359
3066.41748	3.55688
3064.48892	3.50149
3062.56035	3.44707
3060.63179	3.39261
3058.70322	3.33848
3056.77466	3.28559
3054.84609	3.23328
3052.91753	3.18059
3050.98896	3.12831
3049.06040	3.07681
3047.13184	3.02598
3045.20327	2.97609
3043.27471	2.92652
3041.34614	2.87759
3039.41758	2.83012
3037.48901	2.78340
3035.56045	2.73696
3033.63188	2.69121
3031.70332	2.64600
3029.77476	2.60106
3027.84619	2.55677
3025.91763	2.51334
3023.98906	2.47040
3022.06050	2.42763
3020.13193	2.38503
3018.20337	2.34304
3016.27480	2.30201
3014.34624	2.26219
3012.41768	2.22342
3010.48911	2.18500
3008.56055	2.14698
3006.63198	2.10972
3004.70342	2.07318
3002.77485	2.03785
3000.84629	2.00380
2998.91772	1.97020
2996.98916	1.93678
2995.06060	1.90372
2993.13203	1.87146
2991.20347	1.84087
2989.27490	1.81183
2987.34634	1.78324
2985.41777	1.75433
2983.48921	1.72549
2981.56064	1.69783
2979.63208	1.67129
2977.70352	1.64507
2975.77495	1.61927
2973.84639	1.59393
2971.91782	1.56890
2969.98926	1.54452
2968.06069	1.52073
2966.13213	1.49710
2964.20356	1.47344
2962.27500	1.44945
2960.34644	1.42506
2958.41787	1.40065
2956.48931	1.37632
2954.56074	1.35191
2952.63218	1.32736
2950.70361	1.30318
2948.77505	1.27977
2946.84648	1.25688
2944.91792	1.23452
2942.98936	1.21288
2941.06079	1.19197
2939.13223	1.17154
2937.20366	1.15099
2935.27510	1.13015
2933.34653	1.10973
2931.41797	1.09019
2929.48940	1.07089
2927.56084	1.05119
2925.63228	1.03134
2923.70371	1.01246
2921.77515	0.99441
2919.84658	0.97607
2917.91802	0.95760
2915.98945	0.93969
2914.06089	0.92252
2912.13232	0.90613
2910.20376	0.89027
2908.27520	0.87467
2906.34663	0.85918
2904.41807	0.84402
2902.48950	0.82949
2900.56094	0.81533
2898.63237	0.80134
2896.70381	0.78774
2894.77524	0.77450
2892.84668	0.76158
2890.91812	0.74924
2888.98955	0.73742
2887.06099	0.72590
2885.13242	0.71491
2883.20386	0.70455
2881.27529	0.69462
2879.34673	0.68508
2877.41816	0.67572
2875.48960	0.66598
2873.56104	0.65570
2871.63247	0.64511
2869.70391	0.63395
2867.77534	0.62202
2865.84678	0.60972
2863.91821	0.59722
2861.98965	0.58484
2860.06108	0.57347
2858.13252	0.56314
2856.20396	0.55313
2854.27539	0.54314
2852.34683	0.53330
2850.41826	0.52398
2848.48970	0.51535
2846.56113	0.50708
2844.63257	0.49906
2842.70400	0.49179
2840.77544	0.48530
2838.84687	0.47913
2836.91831	0.47305
2834.98975	0.46701
2833.06118	0.46094
2831.13262	0.45484
2829.20405	0.44869
2827.27549	0.44258
2825.34692	0.43661
2823.41836	0.43074
2821.48979	0.42480
2819.56123	0.41870
2817.63267	0.41254
2815.70410	0.40665
2813.77554	0.40103
2811.84697	0.39535
2809.91841	0.38973
2807.98984	0.38433
2806.06128	0.37893
2804.13271	0.37342
2802.20415	0.36797
2800.27559	0.36277
2798.34702	0.35785
2796.41846	0.35304
2794.48989	0.34821
2792.56133	0.34339
2790.63276	0.33852
2788.70420	0.33366
2786.77563	0.32897
2784.84707	0.32451
2782.91851	0.32017
2780.98994	0.31595
2779.06138	0.31183
2777.13281	0.30771
2775.20425	0.30360
2773.27568	0.29953
2771.34712	0.29562
2769.41855	0.29189
2767.48999	0.28822
2765.56143	0.28453
2763.63286	0.28091
2761.70430	0.27739
2759.77573	0.27377
2757.84717	0.27023
2755.91860	0.26705
2753.99004	0.26397
2752.06147	0.26082
2750.13291	0.25777
2748.20435	0.25482
2746.27578	0.25175
2744.34722	0.24867
2742.41865	0.24580
2740.49009	0.24310
2738.56152	0.24046
2736.63296	0.23782
2734.70439	0.23516
2732.77583	0.23248
2730.84727	0.22982
2728.91870	0.22722
2726.99014	0.22482
2725.06157	0.22272
2723.13301	0.22070
2721.20444	0.21845
2719.27588	0.21608
2717.34731	0.21387
2715.41875	0.21180
2713.49019	0.20991
2711.56162	0.20812
2709.63306	0.20630
2707.70449	0.20449
2705.77593	0.20282
2703.84736	0.20130
2701.91880	0.19976
2699.99023	0.19801
2698.06167	0.19622
2696.13311	0.19472
2694.20454	0.19341
2692.27598	0.19202
2690.34741	0.19059
2688.41885	0.18930
2686.49028	0.18809
2684.56172	0.18686
2682.63315	0.18556
2680.70459	0.18426
2678.77603	0.18303
2676.84746	0.18188
2674.91890	0.18078
2672.99033	0.17971
2671.06177	0.17854
2669.13320	0.17734
2667.20464	0.17633
2665.27607	0.17549
2663.34751	0.17466
2661.41895	0.17375
2659.49038	0.17277
2657.56182	0.17182
2655.63325	0.17094
2653.70469	0.17016
2651.77612	0.16952
2649.84756	0.16894
2647.91899	0.16825
2645.99043	0.16748
2644.06187	0.16681
2642.13330	0.16627
2640.20474	0.16572
2638.27617	0.16511
2636.34761	0.16452
2634.41904	0.16411
2632.49048	0.16377
2630.56191	0.16327
2628.63335	0.16274
2626.70479	0.16236
2624.77622	0.16199
2622.84766	0.16157
2620.91909	0.16124
2618.99053	0.16100
2617.06196	0.16074
2615.13340	0.16040
2613.20483	0.16011
2611.27627	0.15991
2609.34771	0.15973
2607.41914	0.15957
2605.49058	0.15937
2603.56201	0.15915
2601.63345	0.15908
2599.70488	0.15915
2597.77632	0.15922
2595.84775	0.15919
2593.91919	0.15907
2591.99062	0.15893
2590.06206	0.15896
2588.13350	0.15919
2586.20493	0.15951
2584.27637	0.15969
2582.34780	0.15974
2580.41924	0.15982
2578.49067	0.15994
2576.56211	0.16013
2574.63354	0.16046
2572.70498	0.16083
2570.77642	0.16118
2568.84785	0.16158
2566.91929	0.16199
2564.99072	0.16228
2563.06216	0.16249
2561.13359	0.16276
2559.20503	0.16318
2557.27646	0.16374
2555.34790	0.16428
2553.41934	0.16466
2551.49077	0.16499
2549.56221	0.16543
2547.63364	0.16600
2545.70508	0.16662
2543.77651	0.16721
2541.84795	0.16777
2539.91938	0.16836
2537.99082	0.16897
2536.06226	0.16955
2534.13369	0.17016
2532.20513	0.17075
2530.27656	0.17123
2528.34800	0.17174
2526.41943	0.17246
2524.49087	0.17330
2522.56230	0.17406
2520.63374	0.17477
2518.70518	0.17553
2516.77661	0.17628
2514.84805	0.17697
2512.91948	0.17771
2510.99092	0.17846
2509.06235	0.17922
2507.13379	0.18005
2505.20522	0.18081
2503.27666	0.18146
2501.34810	0.18215
2499.41953	0.18298
2497.49097	0.18382
2495.56240	0.18457
2493.63384	0.18529
2491.70527	0.18605
2489.77671	0.18684
2487.84814	0.18770
2485.91958	0.18863
2483.99102	0.18953
2482.06245	0.19036
2480.13389	0.19117
2478.20532	0.19196
2476.27676	0.19280
2474.34819	0.19368
2472.41963	0.19451
2470.49106	0.19529
2468.56250	0.19615
2466.63394	0.19712
2464.70537	0.19813
2462.77681	0.19907
2460.84824	0.20002
2458.91968	0.20094
2456.99111	0.20176
2455.06255	0.20258
2453.13398	0.20349
2451.20542	0.20446
2449.27686	0.20543
2447.34829	0.20645
2445.41973	0.20751
2443.49116	0.20843
2441.56260	0.20928
2439.63403	0.21026
2437.70547	0.21127
2435.77690	0.21222
2433.84834	0.21325
2431.91978	0.21429
2429.99121	0.21521
2428.06265	0.21616
2426.13408	0.21729
2424.20552	0.21841
2422.27695	0.21941
2420.34839	0.22048
2418.41982	0.22170
2416.49126	0.22284
2414.56270	0.22391
2412.63413	0.22510
2410.70557	0.22639
2408.77700	0.22765
2406.84844	0.22884
2404.91987	0.23003
2402.99131	0.23112
2401.06274	0.23212
2399.13418	0.23328
2397.20562	0.23457
2395.27705	0.23578
2393.34849	0.23703
2391.41992	0.23846
2389.49136	0.23981
2387.56279	0.24112
2385.63423	0.24283
2383.70566	0.24508
2381.77710	0.24771
2379.84854	0.25060
2377.91997	0.25383
2375.99141	0.25757
2374.06284	0.26182
2372.13428	0.26641
2370.20571	0.27135
2368.27715	0.27656
2366.34858	0.28143
2364.42002	0.28508
2362.49146	0.28765
2360.56289	0.28996
2358.63433	0.29187
2356.70576	0.29240
2354.77720	0.29135
2352.84863	0.28970
2350.92007	0.28759
2348.99150	0.28608
2347.06294	0.28690
2345.13437	0.29083
2343.20581	0.29609
2341.27725	0.29923
2339.34868	0.30039
2337.42012	0.30122
2335.49155	0.30208
2333.56299	0.30304
2331.63442	0.30466
2329.70586	0.30635
2327.77729	0.30737
2325.84873	0.30778
2323.92017	0.30785
2321.99160	0.30790
2320.06304	0.30808
2318.13447	0.30825
2316.20591	0.30827
2314.27734	0.30874
2312.34878	0.30990
2310.42021	0.31113
2308.49165	0.31209
2306.56309	0.31292
2304.63452	0.31376
2302.70596	0.31472
2300.77739	0.31593
2298.84883	0.31727
2296.92026	0.31863
2294.99170	0.32003
2293.06313	0.32153
2291.13457	0.32305
2289.20601	0.32458
2287.27744	0.32606
2285.34888	0.32754
2283.42031	0.32928
2281.49175	0.33140
2279.56318	0.33371
2277.63462	0.33592
2275.70605	0.33792
2273.77749	0.33984
2271.84893	0.34182
2269.92036	0.34394
2267.99180	0.34612
2266.06323	0.34825
2264.13467	0.35036
2262.20610	0.35247
2260.27754	0.35454
2258.34897	0.35663
2256.42041	0.35872
2254.49185	0.36083
2252.56328	0.36299
2250.63472	0.36514
2248.70615	0.36729
2246.77759	0.36947
2244.84902	0.37164
2242.92046	0.37381
2240.99189	0.37602
2239.06333	0.37817
2237.13477	0.38025
2235.20620	0.38238
2233.27764	0.38463
2231.34907	0.38692
2229.42051	0.38918
2227.49194	0.39146
2225.56338	0.39382
2223.63481	0.39613
2221.70625	0.39827
2219.77769	0.40035
2217.84912	0.40251
2215.92056	0.40475
2213.99199	0.40695
2212.06343	0.40903
2210.13486	0.41109
2208.20630	0.41320
2206.27773	0.41540
2204.34917	0.41764
2202.42061	0.41976
2200.49204	0.42170
2198.56348	0.42360
2196.63491	0.42564
2194.70635	0.42783
2192.77778	0.42986
2190.84922	0.43167
2188.92065	0.43346
2186.99209	0.43533
2185.06353	0.43718
2183.13496	0.43893
2181.20640	0.44063
2179.27783	0.44229
2177.34927	0.44391
2175.42070	0.44554
2173.49214	0.44713
2171.56357	0.44855
2169.63501	0.44986
2167.70645	0.45121
2165.77788	0.45258
2163.84932	0.45379
2161.92075	0.45486
2159.99219	0.45587
2158.06362	0.45682
2156.13506	0.45782
2154.20649	0.45878
2152.27793	0.45962
2150.34937	0.46038
2148.42080	0.46107
2146.49224	0.46164
2144.56367	0.46210
2142.63511	0.46254
2140.70654	0.46301
2138.77798	0.46333
2136.84941	0.46339
2134.92085	0.46334
2132.99229	0.46329
2131.06372	0.46324
2129.13516	0.46308
2127.20659	0.46281
2125.27803	0.46246
2123.34946	0.46202
2121.42090	0.46153
2119.49233	0.46102
2117.56377	0.46052
2115.63521	0.45996
2113.70664	0.45920
2111.77808	0.45826
2109.84951	0.45729
2107.92095	0.45630
2105.99238	0.45521
2104.06382	0.45400
2102.13525	0.45263
2100.20669	0.45116
2098.27812	0.44965
2096.34956	0.44817
2094.42100	0.44671
2092.49243	0.44516
2090.56387	0.44347
2088.63530	0.44163
2086.70674	0.43977
2084.77817	0.43795
2082.84961	0.43610
2080.92104	0.43414
2078.99248	0.43208
2077.06392	0.42994
2075.13535	0.42774
2073.20679	0.42548
2071.27822	0.42313
2069.34966	0.42087
2067.42109	0.41874
2065.49253	0.41650
2063.56396	0.41394
2061.63540	0.41133
2059.70684	0.40888
2057.77827	0.40643
2055.84971	0.40385
2053.92114	0.40120
2051.99258	0.39853
2050.06401	0.39585
2048.13545	0.39321
2046.20688	0.39055
2044.27832	0.38796
2042.34976	0.38536
2040.42119	0.38258
2038.49263	0.37975
2036.56406	0.37696
2034.63550	0.37415
2032.70693	0.37129
2030.77837	0.36850
2028.84980	0.36575
2026.92124	0.36300
2024.99268	0.36022
2023.06411	0.35739
2021.13555	0.35458
2019.20698	0.35188
2017.27842	0.34917
2015.34985	0.34624
2013.42129	0.34328
2011.49272	0.34050
2009.56416	0.33783
2007.63560	0.33513
2005.70703	0.33235
2003.77847	0.32959
2001.84990	0.32688
1999.92134	0.32421
1997.99277	0.32159
1996.06421	0.31907
1994.13564	0.31668
1992.20708	0.31431
1990.27852	0.31173
1988.34995	0.30909
1986.42139	0.30652
1984.49282	0.30397
1982.56426	0.30146
1980.63569	0.29905
1978.70713	0.29675
1976.77856	0.29446
1974.85000	0.29217
1972.92144	0.28994
1970.99287	0.28787
1969.06431	0.28601
1967.13574	0.28415
1965.20718	0.28198
1963.27861	0.27975
1961.35005	0.27775
1959.42148	0.27585
1957.49292	0.27400
1955.56436	0.27217
1953.63579	0.27028
1951.70723	0.26837
1949.77866	0.26664
1947.85010	0.26514
1945.92153	0.26385
1943.99297	0.26277
1942.06440	0.26153
1940.13584	0.25977
1938.20728	0.25794
1936.27871	0.25639
1934.35015	0.25502
1932.42158	0.25375
1930.49302	0.25248
1928.56445	0.25125
1926.63589	0.25014
1924.70732	0.24935
1922.77876	0.24870
1920.85020	0.24776
1918.92163	0.24675
1916.99307	0.24577
1915.06450	0.24462
1913.13594	0.24362
1911.20737	0.24307
1909.27881	0.24261
1907.35024	0.24186
1905.42168	0.24098
1903.49312	0.24028
1901.56455	0.23966
1899.63599	0.23903
1897.70742	0.23859
1895.77886	0.23837
1893.85029	0.23814
1891.92173	0.23786
1889.99316	0.23782
1888.06460	0.23764
1886.13604	0.23710
1884.20747	0.23658
1882.27891	0.23625
1880.35034	0.23606
1878.42178	0.23595
1876.49321	0.23593
1874.56465	0.23593
1872.63608	0.23610
1870.70752	0.23676
1868.77896	0.23789
1866.85039	0.23819
1864.92183	0.23751
1862.99326	0.23704
1861.06470	0.23711
1859.13613	0.23749
1857.20757	0.23790
1855.27900	0.23834
1853.35044	0.23877
1851.42187	0.23932
1849.49331	0.24009
1847.56475	0.24108
1845.63618	0.24231
1843.70762	0.24350
1841.77905	0.24390
1839.85049	0.24386
1837.92192	0.24444
1835.99336	0.24544
1834.06479	0.24646
1832.13623	0.24777
1830.20767	0.24974
1828.27910	0.25139
1826.35054	0.25226
1824.42197	0.25328
1822.49341	0.25420
1820.56484	0.25513
1818.63628	0.25643
1816.70771	0.25802
1814.77915	0.25964
1812.85059	0.26157
1810.92202	0.26388
1808.99346	0.26595
1807.06489	0.26769
1805.13633	0.26952
1803.20776	0.27197
1801.27920	0.27491
1799.35063	0.27782
1797.42207	0.28022
1795.49351	0.28272
1793.56494	0.28599
1791.63638	0.28990
1789.70781	0.29282
1787.77925	0.29475
1785.85068	0.29763
1783.92212	0.30147
1781.99355	0.30570
1780.06499	0.31001
1778.13643	0.31418
1776.20786	0.31826
1774.27930	0.32303
1772.35073	0.32945
1770.42217	0.33578
1768.49360	0.34062
1766.56504	0.34524
1764.63647	0.35028
1762.70791	0.35633
1760.77935	0.36398
1758.85078	0.37101
1756.92222	0.37809
1754.99365	0.38581
1753.06509	0.39304
1751.13652	0.40198
1749.20796	0.41297
1747.27939	0.42320
1745.35083	0.43202
1743.42227	0.44145
1741.49370	0.45193
1739.56514	0.46423
1737.63657	0.47658
1735.70801	0.48787
1733.77944	0.50480
1731.85088	0.52408
1729.92231	0.53892
1727.99375	0.55412
1726.06519	0.57090
1724.13662	0.58956
1722.20806	0.60976
1720.27949	0.62881
1718.35093	0.65166
1716.42236	0.68438
1714.49380	0.71444
1712.56523	0.73872
1710.63667	0.76271
1708.70811	0.78902
1706.77954	0.81926
1704.85098	0.85502
1702.92241	0.88707
1700.99385	0.91952
1699.06528	0.96735
1697.13672	1.01117
1695.20815	1.05615
1693.27959	1.10085
1691.35103	1.13773
1689.42246	1.18062
1687.49390	1.22648
1685.56533	1.27163
1683.63677	1.33955
1681.70820	1.40927
1679.77964	1.45458
1677.85107	1.49807
1675.92251	1.54836
1673.99395	1.61071
1672.06538	1.66776
1670.13682	1.72431
1668.20825	1.79636
1666.27969	1.85560
1664.35112	1.90738
1662.42256	1.97410
1660.49399	2.05047
1658.56543	2.11068
1656.63687	2.15962
1654.70830	2.20453
1652.77974	2.26706
1650.85117	2.32118
1648.92261	2.33953
1646.99404	2.36340
1645.06548	2.38852
1643.13691	2.40494
1641.20835	2.41349
1639.27979	2.42270
1637.35122	2.42922
1635.42266	2.42585
1633.49409	2.41279
1631.56553	2.39567
1629.63696	2.37605
1627.70840	2.34353
1625.77983	2.30518
1623.85127	2.25864
1621.92271	2.20328
1619.99414	2.15301
1618.06558	2.10317
1616.13701	2.03454
1614.20845	1.96579
1612.27988	1.91329
1610.35132	1.85905
1608.42275	1.80046
1606.49419	1.74228
1604.56562	1.68889
1602.63706	1.63842
1600.70850	1.58974
1598.77993	1.54482
1596.85137	1.50250
1594.92280	1.46161
1592.99424	1.42266
1591.06567	1.38731
1589.13711	1.35446
1587.20854	1.32448
1585.27998	1.29763
1583.35142	1.27317
1581.42285	1.25101
1579.49429	1.23246
1577.56572	1.21706
1575.63716	1.19976
1573.70859	1.18404
1571.78003	1.17379
1569.85146	1.16508
1567.92290	1.15676
1565.99434	1.15124
1564.06577	1.14858
1562.13721	1.14791
1560.20864	1.15048
1558.28008	1.16051
1556.35151	1.16981
1554.42295	1.17468
1552.49438	1.17981
1550.56582	1.18310
1548.63726	1.18269
1546.70869	1.17844
1544.78013	1.17041
1542.85156	1.15838
1540.92300	1.13876
1538.99443	1.10562
1537.06587	1.07893
1535.13730	1.06053
1533.20874	1.03723
1531.28018	1.01202
1529.35161	0.99310
1527.42305	0.97573
1525.49448	0.95821
1523.56592	0.94359
1521.63735	0.93022
1519.70879	0.91677
1517.78022	0.90518
1515.85166	0.89138
1513.92310	0.87601
1511.99453	0.86224
1510.06597	0.85033
1508.13740	0.83951
1506.20884	0.82225
1504.28027	0.80531
1502.35171	0.79560
1500.42314	0.78794
1498.49458	0.78022
1496.56602	0.77109
1494.63745	0.76155
1492.70889	0.75417
1490.78032	0.74821
1488.85176	0.74145
1486.92319	0.73448
1484.99463	0.72900
1483.06606	0.72521
1481.13750	0.72243
1479.20894	0.72044
1477.28037	0.71976
1475.35181	0.72050
1473.42324	0.72191
1471.49468	0.72189
1469.56611	0.71965
1467.63755	0.71715
1465.70898	0.71552
1463.78042	0.71454
1461.85186	0.71399
1459.92329	0.71464
1457.99473	0.71658
1456.06616	0.71677
1454.13760	0.71352
1452.20903	0.71012
1450.28047	0.70728
1448.35190	0.70469
1446.42334	0.70163
1444.49478	0.69832
1442.56621	0.69531
1440.63765	0.69253
1438.70908	0.68982
1436.78052	0.68620
1434.85195	0.68150
1432.92339	0.67773
1430.99482	0.67553
1429.06626	0.67464
1427.13770	0.67467
1425.20913	0.67547
1423.28057	0.67694
1421.35200	0.67845
1419.42344	0.68004
1417.49487	0.68075
1415.56631	0.67960
1413.63774	0.67866
1411.70918	0.67912
1409.78062	0.68072
1407.85205	0.68301
1405.92349	0.68582
1403.99492	0.68819
1402.06636	0.68904
1400.13779	0.68877
1398.20923	0.68752
1396.28066	0.68480
1394.35210	0.68020
1392.42354	0.67450
1390.49497	0.66926
1388.56641	0.66436
1386.63784	0.65851
1384.70928	0.65177
1382.78071	0.64537
1380.85215	0.63966
1378.92358	0.63486
1376.99502	0.63122
1375.06646	0.62870
1373.13789	0.62681
1371.20933	0.62548
1369.28076	0.62467
1367.35220	0.62356
1365.42363	0.62193
1363.49507	0.62027
1361.56650	0.61856
1359.63794	0.61668
1357.70937	0.61496
1355.78081	0.61356
1353.85225	0.61243
1351.92368	0.61155
1349.99512	0.61098
1348.06655	0.61044
1346.13799	0.60961
1344.20942	0.60874
1342.28086	0.60826
1340.35229	0.60810
1338.42373	0.60770
1336.49517	0.60694
1334.56660	0.60632
1332.63804	0.60619
1330.70947	0.60663
1328.78091	0.60748
1326.85234	0.60854
1324.92378	0.60975
1322.99521	0.61111
1321.06665	0.61243
1319.13809	0.61347
1317.20952	0.61413
1315.28096	0.61451
1313.35239	0.61453
1311.42383	0.61400
1309.49526	0.61331
1307.56670	0.61290
1305.63813	0.61268
1303.70957	0.61227
1301.78101	0.61146
1299.85244	0.61031
1297.92388	0.60902
1295.99531	0.60761
1294.06675	0.60616
1292.13818	0.60465
1290.20962	0.60308
1288.28105	0.60155
1286.35249	0.60006
1284.42393	0.59856
1282.49536	0.59704
1280.56680	0.59539
1278.63823	0.59366
1276.70967	0.59214
1274.78110	0.59092
1272.85254	0.58995
1270.92397	0.58914
1268.99541	0.58832
1267.06685	0.58738
1265.13828	0.58634
1263.20972	0.58538
1261.28115	0.58455
1259.35259	0.58381
1257.42402	0.58319
1255.49546	0.58285
1253.56689	0.58276
1251.63833	0.58284
1249.70977	0.58317
1247.78120	0.58352
1245.85264	0.58348
1243.92407	0.58291
1241.99551	0.58192
1240.06694	0.58042
1238.13838	0.57833
1236.20981	0.57573
1234.28125	0.57282
1232.35269	0.56998
1230.42412	0.56754
1228.49556	0.56542
1226.56699	0.56323
1224.63843	0.56091
1222.70986	0.55871
1220.78130	0.55674
1218.85273	0.55505
1216.92417	0.55367
1214.99561	0.55242
1213.06704	0.55121
1211.13848	0.55024
1209.20991	0.54948
1207.28135	0.54864
1205.35278	0.54761
1203.42422	0.54657
1201.49565	0.54566
1199.56709	0.54471
1197.63853	0.54365
1195.70996	0.54273
1193.78140	0.54214
1191.85283	0.54177
1189.92427	0.54142
1187.99570	0.54115
1186.06714	0.54111
1184.13857	0.54130
1182.21001	0.54178
1180.28145	0.54279
1178.35288	0.54434
1176.42432	0.54605
1174.49575	0.54753
1172.56719	0.54846
1170.63862	0.54856
1168.71006	0.54801
1166.78149	0.54738
1164.85293	0.54694
1162.92437	0.54642
1160.99580	0.54562
1159.06724	0.54476
1157.13867	0.54394
1155.21011	0.54294
1153.28154	0.54154
1151.35298	0.53964
1149.42441	0.53734
1147.49585	0.53484
1145.56729	0.53222
1143.63872	0.52961
1141.71016	0.52719
1139.78159	0.52507
1137.85303	0.52344
1135.92446	0.52241
1133.99590	0.52191
1132.06733	0.52180
1130.13877	0.52179
1128.21021	0.52143
1126.28164	0.52059
1124.35308	0.51955
1122.42451	0.51877
1120.49595	0.51850
1118.56738	0.51851
1116.63882	0.51841
1114.71025	0.51835
1112.78169	0.51868
1110.85312	0.51919
1108.92456	0.51967
1106.99600	0.52037
1105.06743	0.52138
1103.13887	0.52278
1101.21030	0.52461
1099.28174	0.52659
1097.35317	0.52875
1095.42461	0.53150
1093.49604	0.53495
1091.56748	0.53904
1089.63892	0.54384
1087.71035	0.54949
1085.78179	0.55588
1083.85322	0.56257
1081.92466	0.56893
1079.99609	0.57412
1078.06753	0.57728
1076.13896	0.57772
1074.21040	0.57523
1072.28184	0.57053
1070.35327	0.56441
1068.42471	0.55748
1066.49614	0.55064
1064.56758	0.54426
1062.63901	0.53825
1060.71045	0.53279
1058.78188	0.52809
1056.85332	0.52407
1054.92476	0.52062
1052.99619	0.51746
1051.06763	0.51438
1049.13906	0.51164
1047.21050	0.50948
1045.28193	0.50772
1043.35337	0.50615
1041.42480	0.50481
1039.49624	0.50355
1037.56768	0.50244
1035.63911	0.50182
1033.71055	0.50146
1031.78198	0.50097
1029.85342	0.50029
1027.92485	0.49955
1025.99629	0.49903
1024.06772	0.49888
1022.13916	0.49896
1020.21060	0.49918
1018.28203	0.49961
1016.35347	0.50016
1014.42490	0.50068
1012.49634	0.50119
1010.56777	0.50178
1008.63921	0.50250
1006.71064	0.50353
1004.78208	0.50519
1002.85352	0.50753
1000.92495	0.51027
998.99639	0.51339
997.06782	0.51725
995.13926	0.52176
993.21069	0.52623
991.28213	0.52979
989.35356	0.53207
987.42500	0.53330
985.49644	0.53402
983.56787	0.53461
981.63931	0.53527
979.71074	0.53614
977.78218	0.53731
975.85361	0.53909
973.92505	0.54181
971.99648	0.54500
970.06792	0.54823
968.13936	0.55184
966.21079	0.55604
964.28223	0.56049
962.35366	0.56504
960.42510	0.56988
958.49653	0.57524
956.56797	0.58093
954.63940	0.58662
952.71084	0.59260
950.78228	0.59904
948.85371	0.60567
946.92515	0.61248
944.99658	0.61913
943.06802	0.62516
941.13945	0.63088
939.21089	0.63670
937.28232	0.64258
935.35376	0.64831
933.42520	0.65415
931.49663	0.66049
929.56807	0.66694
927.63950	0.67300
925.71094	0.67847
923.78237	0.68382
921.85381	0.69018
919.92524	0.69729
917.99668	0.70412
916.06812	0.71109
914.13955	0.71853
912.21099	0.72573
910.28242	0.73292
908.35386	0.74086
906.42529	0.74967
904.49673	0.75934
902.56816	0.76924
900.63960	0.77871
898.71104	0.78823
896.78247	0.79815
894.85391	0.80858
892.92534	0.81924
890.99678	0.82928
889.06821	0.83935
887.13965	0.85035
885.21108	0.86153
883.28252	0.87288
881.35396	0.88507
879.42539	0.89748
877.49683	0.90947
875.56826	0.92119
873.63970	0.93193
871.71113	0.94140
869.78257	0.95181
867.85400	0.96412
865.92544	0.97591
863.99687	0.98674
862.06831	0.99872
860.13975	1.01178
858.21118	1.02480
856.28262	1.03683
854.35405	1.04702
852.42549	1.05710
850.49692	1.06957
848.56836	1.08226
846.63979	1.09242
844.71123	1.10240
842.78267	1.11328
840.85410	1.12336
838.92554	1.13367
836.99697	1.14735
835.06841	1.16280
833.13984	1.17434
831.21128	1.18215
829.28271	1.19342
827.35415	1.20864
825.42559	1.21851
823.49702	1.22320
821.56846	1.23135
819.63989	1.24417
817.71133	1.25490
815.78276	1.26063
813.85420	1.26580
811.92563	1.27638
809.99707	1.29645
808.06851	1.31773
806.13994	1.32933
804.21138	1.33205
802.28281	1.33418
800.35425	1.33824
798.42568	1.34050
796.49712	1.34185
794.56855	1.34930
792.63999	1.36635
790.71143	1.37036
788.78286	1.34922
786.85430	1.32882
784.92573	1.32879
782.99717	1.33991
781.06860	1.34558
779.14004	1.34960
777.21147	1.36463
775.28291	1.38480
773.35435	1.38946
771.42578	1.36791
769.49722	1.33584
767.56865	1.33152
765.64009	1.32054
763.71152	1.28827
761.78296	1.30452
759.85439	1.33165
757.92583	1.29277
755.99727	1.22609
754.06870	1.15312
752.14014	1.10801
750.21157	1.12260
748.28301	1.13297
746.35444	1.10825
744.42588	1.14827
742.49731	1.26825
740.56875	1.24727
738.64019	1.09506
736.71162	1.02469
734.78306	0.97993
732.85449	0.79842
730.92593	0.59282
728.99736	0.52155
727.06880	0.56166
725.14023	0.48640
723.21167	0.30105
721.28311	0.16636
719.35454	0.08709
717.42598	0.08790
715.49741	0.13487
713.56885	0.08371
711.64028	-0.07166
709.71172	-0.09187
707.78315	0.03297
705.85459	0.06630
703.92603	0.09412
701.99746	0.15170
700.06890	0.25704
698.14033	0.36584
696.21177	0.41439
694.28320	0.41017
692.35464	0.37687
690.42607	0.35868
688.49751	0.34421
686.56895	0.32028
684.64038	0.35564
682.71182	0.51361
680.78325	0.70829
678.85469	0.65968
676.92612	0.45633
674.99756	0.30986
673.06899	0.29369
671.14043	0.35065
669.21187	0.38454
667.28330	0.37263
665.35474	0.35961
663.42617	0.34361
661.49761	0.35288
659.56904	0.36747
657.64048	0.34444
655.71191	0.34873
653.78335	0.33686
651.85479	0.28798
649.92622	0.22938
647.99766	0.17729
646.06909	0.17976
644.14053	0.24009
642.21196	0.36730
640.28340	0.51069
638.35483	0.48280
636.42627	0.27642
634.49771	0.15972
632.56914	0.17646
630.64058	0.21267
628.71201	0.23580
626.78345	0.23988
624.85488	0.24192
622.92632	0.30947
620.99775	0.36773
619.06919	0.27409
617.14062	0.16837
615.21206	0.12956
613.28350	0.18841
611.35493	0.31252
609.42637	0.35926
607.49780	0.27922
605.56924	0.22315
603.64067	0.24728
601.71211	0.28466
599.78354	0.26218
597.85498	0.25590
595.92642	0.28501
593.99785	0.28344
592.06929	0.30651
590.14072	0.39156
588.21216	0.47804
586.28359	0.45274
584.35503	0.33007
582.42646	0.23861
580.49790	0.19868
578.56934	0.18193
576.64077	0.19680
574.71221	0.23601
572.78364	0.22541
570.85508	0.16418
568.92651	0.12570
566.99795	0.16691
565.06938	0.29036
563.14082	0.30701
561.21226	0.21209
559.28369	0.18559
557.35513	0.23449
555.42656	0.28984
553.49800	0.26747
551.56943	0.22639
549.64087	0.21770
547.71230	0.20677
545.78374	0.18204
543.85518	0.19583
541.92661	0.24625
539.99805	0.28929
538.06948	0.33626
536.14092	0.35815
534.21235	0.30783
532.28379	0.24617
530.35522	0.20578
528.42666	0.17415
526.49810	0.13783
524.56953	0.12556
522.64097	0.16809
520.71240	0.24634
518.78384	0.32963
516.85527	0.34769
514.92671	0.26834
512.99814	0.23341
511.06958	0.24722
509.14102	0.22139
507.21245	0.17944
505.28389	0.20641
503.35532	0.28000
501.42676	0.28024
499.49819	0.22846
