3997.91411	0.07201
3995.98555	0.07213
3994.05698	0.07235
3992.12842	0.07281
3990.19985	0.07312
3988.27129	0.07338
3986.34272	0.07384
3984.41416	0.07420
3982.48560	0.07435
3980.55703	0.07462
3978.62847	0.07495
3976.69990	0.07518
3974.77134	0.07549
3972.84277	0.07583
3970.91421	0.07600
3968.98564	0.07598
3967.05708	0.07587
3965.12852	0.07568
3963.19995	0.07555
3961.27139	0.07582
3959.34282	0.07645
3957.41426	0.07684
3955.48569	0.07678
3953.55713	0.07671
3951.62856	0.07712
3949.70000	0.07786
3947.77144	0.07824
3945.84287	0.07797
3943.91431	0.07759
3941.98574	0.07720
3940.05718	0.07646
3938.12861	0.07604
3936.20005	0.07632
3934.27148	0.07696
3932.34292	0.07772
3930.41436	0.07809
3928.48579	0.07776
3926.55723	0.07743
3924.62866	0.07781
3922.70010	0.07835
3920.77153	0.07823
3918.84297	0.07791
3916.91440	0.07772
3914.98584	0.07723
3913.05728	0.07637
3911.12871	0.07575
3909.20015	0.07591
3907.27158	0.07667
3905.34302	0.07761
3903.41445	0.07843
3901.48589	0.07853
3899.55732	0.07828
3897.62876	0.07802
3895.70020	0.07737
3893.77163	0.07698
3891.84307	0.07744
3889.91450	0.07777
3887.98594	0.07732
3886.05737	0.07738
3884.12881	0.07824
3882.20024	0.07893
3880.27168	0.07939
3878.34312	0.07926
3876.41455	0.07854
3874.48599	0.07861
3872.55742	0.07982
3870.62886	0.08103
3868.70029	0.08140
3866.77173	0.08119
3864.84316	0.08146
3862.91460	0.08199
3860.98604	0.08170
3859.05747	0.08089
3857.12891	0.08064
3855.20034	0.08172
3853.27178	0.08424
3851.34321	0.08557
3849.41465	0.08434
3847.48608	0.08311
3845.55752	0.08288
3843.62896	0.08390
3841.70039	0.08573
3839.77183	0.08760
3837.84326	0.08905
3835.91470	0.08951
3833.98613	0.08944
3832.05757	0.08925
3830.12900	0.08914
3828.20044	0.08956
3826.27187	0.09045
3824.34331	0.09141
3822.41475	0.09274
3820.48618	0.09498
3818.55762	0.09627
3816.62905	0.09640
3814.70049	0.09649
3812.77192	0.09603
3810.84336	0.09588
3808.91479	0.09698
3806.98623	0.09912
3805.05767	0.10121
3803.12910	0.10271
3801.20054	0.10442
3799.27197	0.10569
3797.34341	0.10614
3795.41484	0.10663
3793.48628	0.10696
3791.55771	0.10741
3789.62915	0.10855
3787.70059	0.11016
3785.77202	0.11191
3783.84346	0.11350
3781.91489	0.11474
3779.98633	0.11647
3778.05776	0.11877
3776.12920	0.12012
3774.20063	0.12092
3772.27207	0.12232
3770.34351	0.12472
3768.41494	0.12771
3766.48638	0.12983
3764.55781	0.13117
3762.62925	0.13248
3760.70068	0.13450
3758.77212	0.13767
3756.84355	0.14083
3754.91499	0.14313
3752.98643	0.14584
3751.05786	0.15034
3749.12930	0.15508
3747.20073	0.15713
3745.27217	0.15898
3743.34360	0.16309
3741.41504	0.16714
3739.48647	0.17023
3737.55791	0.17449
3735.62935	0.18107
3733.70078	0.18855
3731.77222	0.19372
3729.84365	0.19710
3727.91509	0.20066
3725.98652	0.20567
3724.05796	0.21196
3722.12939	0.21852
3720.20083	0.22493
3718.27227	0.23107
3716.34370	0.23752
3714.41514	0.24489
3712.48657	0.25491
3710.55801	0.26923
3708.62944	0.28395
3706.70088	0.29569
3704.77231	0.30687
3702.84375	0.32014
3700.91519	0.33742
3698.98662	0.35615
3697.05806	0.37347
3695.12949	0.39171
3693.20093	0.41153
3691.27236	0.43335
3689.34380	0.46116
3687.41523	0.49499
3685.48667	0.52516
3683.55811	0.55159
3681.62954	0.58013
3679.70098	0.61245
3677.77241	0.64667
3675.84385	0.68664
3673.91528	0.73893
3671.98672	0.78239
3670.05815	0.82159
3668.12959	0.87446
3666.20103	0.92320
3664.27246	0.96428
3662.34390	1.00818
3660.41533	1.05562
3658.48677	1.10269
3656.55820	1.15316
3654.62964	1.20942
3652.70107	1.25690
3650.77251	1.29848
3648.84395	1.35472
3646.91538	1.42186
3644.98682	1.47177
3643.05825	1.51137
3641.12969	1.55252
3639.20112	1.59747
3637.27256	1.64256
3635.34399	1.68705
3633.41543	1.73197
3631.48687	1.77403
3629.55830	1.81608
3627.62974	1.86938
3625.70117	1.91924
3623.77261	1.95350
3621.84404	1.98659
3619.91548	2.02586
3617.98691	2.07337
3616.05835	2.11749
3614.12979	2.15341
3612.20122	2.19159
3610.27266	2.23138
3608.34409	2.27279
3606.41553	2.31669
3604.48696	2.35632
3602.55840	2.39103
3600.62983	2.42845
3598.70127	2.46948
3596.77271	2.50991
3594.84414	2.55123
3592.91558	2.59415
3590.98701	2.63400
3589.05845	2.67058
3587.12988	2.71438
3585.20132	2.76279
3583.27275	2.80324
3581.34419	2.83962
3579.41562	2.87888
3577.48706	2.92257
3575.55850	2.96826
3573.62993	3.01340
3571.70137	3.05553
3569.77280	3.09601
3567.84424	3.13860
3565.91567	3.18879
3563.98711	3.23858
3562.05854	3.28065
3560.12998	3.32235
3558.20142	3.36662
3556.27285	3.41168
3554.34429	3.45510
3552.41572	3.49906
3550.48716	3.54592
3548.55859	3.59401
3546.63003	3.64124
3544.70146	3.68920
3542.77290	3.73727
3540.84434	3.78338
3538.91577	3.83058
3536.98721	3.88107
3535.05864	3.93258
3533.13008	3.98101
3531.20151	4.02821
3529.27295	4.07438
3527.34438	4.11963
3525.41582	4.16838
3523.48726	4.22175
3521.55869	4.27633
3519.63013	4.32654
3517.70156	4.37173
3515.77300	4.41516
3513.84443	4.46095
3511.91587	4.51001
3509.98730	4.56070
3508.05874	4.61021
3506.13018	4.65710
3504.20161	4.70635
3502.27305	4.76053
3500.34448	4.81396
3498.41592	4.86338
3496.48735	4.91055
3494.55879	4.95768
3492.63022	5.00726
3490.70166	5.05661
3488.77310	5.10161
3486.84453	5.14673
3484.91597	5.20055
3482.98740	5.25522
3481.05884	5.29595
3479.13027	5.32874
3477.20171	5.36828
3475.27314	5.41618
3473.34458	5.46813
3471.41602	5.51985
3469.48745	5.57453
3467.55889	5.63804
3465.63032	5.69645
3463.70176	5.74110
3461.77319	5.78550
3459.84463	5.83989
3457.91606	5.89676
3455.98750	5.94872
3454.05894	6.00005
3452.13037	6.04951
3450.20181	6.09346
3448.27324	6.13391
3446.34468	6.18381
3444.41611	6.24405
3442.48755	6.29629
3440.55898	6.33996
3438.63042	6.38903
3436.70186	6.44203
3434.77329	6.49295
3432.84473	6.54177
3430.91616	6.58446
3428.98760	6.62672
3427.05903	6.68429
3425.13047	6.75862
3423.20190	6.82192
3421.27334	6.86949
3419.34478	6.90835
3417.41621	6.93030
3415.48765	6.94135
3413.55908	6.96809
3411.63052	7.03532
3409.70195	7.11067
3407.77339	7.14939
3405.84482	7.15848
3403.91626	7.19890
3401.98770	7.26495
3400.05913	7.30096
3398.13057	7.33234
3396.20200	7.38246
3394.27344	7.43543
3392.34487	7.45051
3390.41631	7.43106
3388.48774	7.44317
3386.55918	7.53072
3384.63062	7.63476
3382.70205	7.65352
3380.77349	7.64408
3378.84492	7.70863
3376.91636	7.79761
3374.98779	7.83359
3373.05923	7.86316
3371.13066	7.87825
3369.20210	7.84883
3367.27354	7.84337
3365.34497	7.91787
3363.41641	8.03483
3361.48784	8.10093
3359.55928	8.09702
3357.63071	8.09335
3355.70215	8.08609
3353.77358	8.04632
3351.84502	8.05430
3349.91646	8.09188
3347.98789	8.10648
3346.05933	8.09435
3344.13076	8.07696
3342.20220	8.12527
3340.27363	8.21818
3338.34507	8.27262
3336.41650	8.24866
3334.48794	8.20605
3332.55937	8.17890
3330.63081	8.16905
3328.70225	8.17938
3326.77368	8.19934
3324.84512	8.21128
3322.91655	8.18412
3320.98799	8.19357
3319.05942	8.27680
3317.13086	8.33522
3315.20229	8.30823
3313.27373	8.30204
3311.34517	8.34337
3309.41660	8.31153
3307.48804	8.24852
3305.55947	8.26963
3303.63091	8.31624
3301.70234	8.29627
3299.77378	8.27032
3297.84521	8.25698
3295.91665	8.22638
3293.98809	8.18699
3292.05952	8.18685
3290.13096	8.25809
3288.20239	8.32623
3286.27383	8.33039
3284.34526	8.30516
3282.41670	8.29269
3280.48813	8.26739
3278.55957	8.24059
3276.63101	8.22902
3274.70244	8.20501
3272.77388	8.17852
3270.84531	8.21667
3268.91675	8.39124
3266.98818	8.61931
3265.05962	8.70256
3263.13105	8.61249
3261.20249	8.48249
3259.27393	8.39176
3257.34536	8.35466
3255.41680	8.33448
3253.48823	8.29524
3251.55967	8.24730
3249.63110	8.20183
3247.70254	8.17928
3245.77397	8.18951
3243.84541	8.23700
3241.91685	8.27540
3239.98828	8.25852
3238.05972	8.26719
3236.13115	8.33769
3234.20259	8.37035
3232.27402	8.33548
3230.34546	8.29058
3228.41689	8.22767
3226.48833	8.14107
3224.55977	8.07416
3222.63120	8.06545
3220.70264	8.11703
3218.77407	8.16858
3216.84551	8.17198
3214.91694	8.21078
3212.98838	8.31904
3211.05981	8.36191
3209.13125	8.27028
3207.20269	8.09851
3205.27412	7.93328
3203.34556	7.85905
3201.41699	7.84644
3199.48843	7.82166
3197.55986	7.78103
3195.63130	7.74235
3193.70273	7.73913
3191.77417	7.76218
3189.84561	7.73288
3187.91704	7.62484
3185.98848	7.51862
3184.05991	7.50182
3182.13135	7.55219
3180.20278	7.56998
3178.27422	7.51052
3176.34565	7.42034
3174.41709	7.33617
3172.48853	7.25262
3170.55996	7.18373
3168.63140	7.13809
3166.70283	7.07423
3164.77427	6.99260
3162.84570	6.93428
3160.91714	6.86998
3158.98857	6.78135
3157.06001	6.70590
3155.13145	6.65730
3153.20288	6.60698
3151.27432	6.51883
3149.34575	6.40910
3147.41719	6.33275
3145.48862	6.29384
3143.56006	6.23773
3141.63149	6.15753
3139.70293	6.09524
3137.77437	6.05264
3135.84580	5.99887
3133.91724	5.92320
3131.98867	5.84008
3130.06011	5.76193
3128.13154	5.68593
3126.20298	5.60450
3124.27441	5.52312
3122.34585	5.44703
3120.41729	5.37040
3118.48872	5.29486
3116.56016	5.22778
3114.63159	5.16445
3112.70303	5.09629
3110.77446	5.02218
3108.84590	4.94778
3106.91733	4.88034
3104.98877	4.81751
3103.06021	4.75068
3101.13164	4.67655
3099.20308	4.60293
3097.27451	4.53694
3095.34595	4.47393
3093.41738	4.40672
3091.48882	4.33522
3089.56025	4.26612
3087.63169	4.20175
3085.70312	4.13902
3083.77456	4.07668
3081.84600	4.01450
3079.91743	3.95277
3077.98887	3.89287
3076.06030	3.83426
3074.13174	3.77524
3072.20317	3.71566
3070.27461	3.65566
3068.34604	3.59654
3066.41748	3.53994
3064.48892	3.48483
3062.56035	3.42926
3060.63179	3.37329
3058.70322	3.31788
3056.77466	3.26308
3054.84609	3.20933
3052.91753	3.15712
3050.98896	3.10551
3049.06040	3.05352
3047.13184	3.00136
3045.20327	2.94993
3043.27471	2.89988
3041.34614	2.85098
3039.41758	2.80304
3037.48901	2.75608
3035.56045	2.70963
3033.63188	2.66345
3031.70332	2.61793
3029.77476	2.57320
3027.84619	2.52892
3025.91763	2.48468
3023.98906	2.44070
3022.06050	2.39794
3020.13193	2.35660
3018.20337	2.31598
3016.27480	2.27577
3014.34624	2.23570
3012.41768	2.19600
3010.48911	2.15725
3008.56055	2.11918
3006.63198	2.08190
3004.70342	2.04560
3002.77485	2.00982
3000.84629	1.97463
2998.91772	1.94009
2996.98916	1.90612
2995.06060	1.87309
2993.13203	1.84089
2991.20347	1.80902
2989.27490	1.77762
2987.34634	1.74707
2985.41777	1.71705
2983.48921	1.68727
2981.56064	1.65809
2979.63208	1.62965
2977.70352	1.60168
2975.77495	1.57402
2973.84639	1.54659
2971.91782	1.51968
2969.98926	1.49356
2968.06069	1.46770
2966.13213	1.44197
2964.20356	1.41691
2962.27500	1.39219
2960.34644	1.36730
2958.41787	1.34283
2956.48931	1.31870
2954.56074	1.29432
2952.63218	1.27055
2950.70361	1.24777
2948.77505	1.22497
2946.84648	1.20212
2944.91792	1.17990
2942.98936	1.15841
2941.06079	1.13770
2939.13223	1.11732
2937.20366	1.09675
2935.27510	1.07617
2933.34653	1.05601
2931.41797	1.03648
2929.48940	1.01756
2927.56084	0.99904
2925.63228	0.98062
2923.70371	0.96259
2921.77515	0.94532
2919.84658	0.92834
2917.91802	0.91163
2915.98945	0.89541
2914.06089	0.87911
2912.13232	0.86301
2910.20376	0.84795
2908.27520	0.83348
2906.34663	0.81894
2904.41807	0.80442
2902.48950	0.79027
2900.56094	0.77670
2898.63237	0.76364
2896.70381	0.75096
2894.77524	0.73845
2892.84668	0.72613
2890.91812	0.71426
2888.98955	0.70271
2887.06099	0.69134
2885.13242	0.68032
2883.20386	0.66954
2881.27529	0.65902
2879.34673	0.64897
2877.41816	0.63896
2875.48960	0.62872
2873.56104	0.61850
2871.63247	0.60837
2869.70391	0.59798
2867.77534	0.58707
2865.84678	0.57591
2863.91821	0.56504
2861.98965	0.55460
2860.06108	0.54458
2858.13252	0.53495
2856.20396	0.52559
2854.27539	0.51645
2852.34683	0.50760
2850.41826	0.49919
2848.48970	0.49100
2846.56113	0.48285
2844.63257	0.47524
2842.70400	0.46850
2840.77544	0.46241
2838.84687	0.45661
2836.91831	0.45080
2834.98975	0.44489
2833.06118	0.43888
2831.13262	0.43280
2829.20405	0.42680
2827.27549	0.42093
2825.34692	0.41507
2823.41836	0.40912
2821.48979	0.40321
2819.56123	0.39734
2817.63267	0.39140
2815.70410	0.38545
2813.77554	0.37966
2811.84697	0.37424
2809.91841	0.36913
2807.98984	0.36406
2806.06128	0.35890
2804.13271	0.35369
2802.20415	0.34859
2800.27559	0.34367
2798.34702	0.33878
2796.41846	0.33400
2794.48989	0.32950
2792.56133	0.32511
2790.63276	0.32060
2788.70420	0.31607
2786.77563	0.31179
2784.84707	0.30780
2782.91851	0.30390
2780.98994	0.29985
2779.06138	0.29570
2777.13281	0.29175
2775.20425	0.28802
2773.27568	0.28433
2771.34712	0.28070
2769.41855	0.27715
2767.48999	0.27355
2765.56143	0.26996
2763.63286	0.26644
2761.70430	0.26305
2759.77573	0.25992
2757.84717	0.25702
2755.91860	0.25409
2753.99004	0.25106
2752.06147	0.24806
2750.13291	0.24515
2748.20435	0.24226
2746.27578	0.23946
2744.34722	0.23682
2742.41865	0.23423
2740.49009	0.23154
2738.56152	0.22886
2736.63296	0.22643
2734.70439	0.22424
2732.77583	0.22200
2730.84727	0.21966
2728.91870	0.21733
2726.99014	0.21510
2725.06157	0.21295
2723.13301	0.21084
2721.20444	0.20872
2719.27588	0.20661
2717.34731	0.20459
2715.41875	0.20263
2713.49019	0.20070
2711.56162	0.19890
2709.63306	0.19728
2707.70449	0.19571
2705.77593	0.19411
2703.84736	0.19257
2701.91880	0.19110
2699.99023	0.18967
2698.06167	0.18828
2696.13311	0.18685
2694.20454	0.18531
2692.27598	0.18378
2690.34741	0.18239
2688.41885	0.18120
2686.49028	0.18007
2684.56172	0.17894
2682.63315	0.17766
2680.70459	0.17625
2678.77603	0.17501
2676.84746	0.17402
2674.91890	0.17311
2672.99033	0.17211
2671.06177	0.17094
2669.13320	0.16975
2667.20464	0.16876
2665.27607	0.16795
2663.34751	0.16714
2661.41895	0.16629
2659.49038	0.16547
2657.56182	0.16479
2655.63325	0.16419
2653.70469	0.16348
2651.77612	0.16268
2649.84756	0.16200
2647.91899	0.16147
2645.99043	0.16091
2644.06187	0.16033
2642.13330	0.15988
2640.20474	0.15946
2638.27617	0.15895
2636.34761	0.15846
2634.41904	0.15799
2632.49048	0.15743
2630.56191	0.15685
2628.63335	0.15647
2626.70479	0.15629
2624.77622	0.15611
2622.84766	0.15582
2620.91909	0.15550
2618.99053	0.15526
2617.06196	0.15509
2615.13340	0.15495
2613.20483	0.15487
2611.27627	0.15483
2609.34771	0.15476
2607.41914	0.15462
2605.49058	0.15456
2603.56201	0.15470
2601.63345	0.15478
2599.70488	0.15468
2597.77632	0.15463
2595.84775	0.15474
2593.91919	0.15479
2591.99062	0.15479
2590.06206	0.15497
2588.13350	0.15533
2586.20493	0.15563
2584.27637	0.15585
2582.34780	0.15606
2580.41924	0.15627
2578.49067	0.15658
2576.56211	0.15699
2574.63354	0.15731
2572.70498	0.15762
2570.77642	0.15801
2568.84785	0.15837
2566.91929	0.15869
2564.99072	0.15906
2563.06216	0.15950
2561.13359	0.15992
2559.20503	0.16039
2557.27646	0.16102
2555.34790	0.16166
2553.41934	0.16220
2551.49077	0.16269
2549.56221	0.16318
2547.63364	0.16369
2545.70508	0.16430
2543.77651	0.16500
2541.84795	0.16568
2539.91938	0.16631
2537.99082	0.16696
2536.06226	0.16756
2534.13369	0.16808
2532.20513	0.16873
2530.27656	0.16951
2528.34800	0.17029
2526.41943	0.17099
2524.49087	0.17169
2522.56230	0.17247
2520.63374	0.17336
2518.70518	0.17427
2516.77661	0.17506
2514.84805	0.17579
2512.91948	0.17658
2510.99092	0.17744
2509.06235	0.17831
2507.13379	0.17921
2505.20522	0.18005
2503.27666	0.18072
2501.34810	0.18135
2499.41953	0.18212
2497.49097	0.18301
2495.56240	0.18390
2493.63384	0.18472
2491.70527	0.18556
2489.77671	0.18653
2487.84814	0.18752
2485.91958	0.18839
2483.99102	0.18918
2482.06245	0.19006
2480.13389	0.19104
2478.20532	0.19197
2476.27676	0.19286
2474.34819	0.19384
2472.41963	0.19483
2470.49106	0.19579
2468.56250	0.19667
2466.63394	0.19758
2464.70537	0.19860
2462.77681	0.19950
2460.84824	0.20023
2458.91968	0.20107
2456.99111	0.20208
2455.06255	0.20311
2453.13398	0.20421
2451.20542	0.20537
2449.27686	0.20646
2447.34829	0.20743
2445.41973	0.20839
2443.49116	0.20943
2441.56260	0.21051
2439.63403	0.21157
2437.70547	0.21259
2435.77690	0.21353
2433.84834	0.21448
2431.91978	0.21555
2429.99121	0.21665
2428.06265	0.21767
2426.13408	0.21875
2424.20552	0.21994
2422.27695	0.22114
2420.34839	0.22228
2418.41982	0.22346
2416.49126	0.22473
2414.56270	0.22596
2412.63413	0.22708
2410.70557	0.22813
2408.77700	0.22918
2406.84844	0.23027
2404.91987	0.23143
2402.99131	0.23266
2401.06274	0.23392
2399.13418	0.23515
2397.20562	0.23633
2395.27705	0.23759
2393.34849	0.23894
2391.41992	0.24030
2389.49136	0.24171
2387.56279	0.24344
2385.63423	0.24575
2383.70566	0.24896
2381.77710	0.25325
2379.84854	0.25838
2377.91997	0.26410
2375.99141	0.27056
2374.06284	0.27788
2372.13428	0.28582
2370.20571	0.29437
2368.27715	0.30346
2366.34858	0.31203
2364.42002	0.31928
2362.49146	0.32505
2360.56289	0.32823
2358.63433	0.32853
2356.70576	0.32664
2354.77720	0.32271
2352.84863	0.31688
2350.92007	0.31023
2348.99150	0.30619
2347.06294	0.30714
2345.13437	0.31360
2343.20581	0.32233
2341.27725	0.32734
2339.34868	0.32871
2337.42012	0.32927
2335.49155	0.32942
2333.56299	0.32881
2331.63442	0.32863
2329.70586	0.32931
2327.77729	0.32960
2325.84873	0.32886
2323.92017	0.32782
2321.99160	0.32684
2320.06304	0.32552
2318.13447	0.32403
2316.20591	0.32290
2314.27734	0.32247
2312.34878	0.32275
2310.42021	0.32309
2308.49165	0.32294
2306.56309	0.32258
2304.63452	0.32246
2302.70596	0.32282
2300.77739	0.32361
2298.84883	0.32459
2296.92026	0.32559
2294.99170	0.32648
2293.06313	0.32737
2291.13457	0.32846
2289.20601	0.32969
2287.27744	0.33084
2285.34888	0.33192
2283.42031	0.33328
2281.49175	0.33517
2279.56318	0.33738
2277.63462	0.33961
2275.70605	0.34178
2273.77749	0.34396
2271.84893	0.34624
2269.92036	0.34845
2267.99180	0.35048
2266.06323	0.35249
2264.13467	0.35459
2262.20610	0.35664
2260.27754	0.35851
2258.34897	0.36038
2256.42041	0.36247
2254.49185	0.36463
2252.56328	0.36678
2250.63472	0.36892
2248.70615	0.37099
2246.77759	0.37303
2244.84902	0.37510
2242.92046	0.37725
2240.99189	0.37954
2239.06333	0.38184
2237.13477	0.38404
2235.20620	0.38616
2233.27764	0.38837
2231.34907	0.39070
2229.42051	0.39303
2227.49194	0.39531
2225.56338	0.39756
2223.63481	0.39978
2221.70625	0.40202
2219.77769	0.40434
2217.84912	0.40661
2215.92056	0.40877
2213.99199	0.41084
2212.06343	0.41284
2210.13486	0.41492
2208.20630	0.41710
2206.27773	0.41925
2204.34917	0.42138
2202.42061	0.42362
2200.49204	0.42574
2198.56348	0.42768
2196.63491	0.42961
2194.70635	0.43159
2192.77778	0.43353
2190.84922	0.43545
2188.92065	0.43744
2186.99209	0.43939
2185.06353	0.44121
2183.13496	0.44301
2181.20640	0.44478
2179.27783	0.44631
2177.34927	0.44772
2175.42070	0.44920
2173.49214	0.45076
2171.56357	0.45236
2169.63501	0.45391
2167.70645	0.45534
2165.77788	0.45674
2163.84932	0.45800
2161.92075	0.45903
2159.99219	0.46002
2158.06362	0.46114
2156.13506	0.46221
2154.20649	0.46312
2152.27793	0.46399
2150.34937	0.46475
2148.42080	0.46532
2146.49224	0.46580
2144.56367	0.46625
2142.63511	0.46668
2140.70654	0.46715
2138.77798	0.46765
2136.84941	0.46798
2134.92085	0.46803
2132.99229	0.46794
2131.06372	0.46794
2129.13516	0.46796
2127.20659	0.46771
2125.27803	0.46716
2123.34946	0.46653
2121.42090	0.46605
2119.49233	0.46568
2117.56377	0.46514
2115.63521	0.46440
2113.70664	0.46356
2111.77808	0.46265
2109.84951	0.46169
2107.92095	0.46074
2105.99238	0.45972
2104.06382	0.45859
2102.13525	0.45729
2100.20669	0.45586
2098.27812	0.45439
2096.34956	0.45292
2094.42100	0.45142
2092.49243	0.44979
2090.56387	0.44806
2088.63530	0.44636
2086.70674	0.44473
2084.77817	0.44298
2082.84961	0.44103
2080.92104	0.43900
2078.99248	0.43689
2077.06392	0.43469
2075.13535	0.43254
2073.20679	0.43046
2071.27822	0.42832
2069.34966	0.42607
2067.42109	0.42374
2065.49253	0.42142
2063.56396	0.41908
2061.63540	0.41661
2059.70684	0.41399
2057.77827	0.41136
2055.84971	0.40873
2053.92114	0.40606
2051.99258	0.40345
2050.06401	0.40095
2048.13545	0.39841
2046.20688	0.39572
2044.27832	0.39300
2042.34976	0.39030
2040.42119	0.38756
2038.49263	0.38477
2036.56406	0.38201
2034.63550	0.37924
2032.70693	0.37638
2030.77837	0.37350
2028.84980	0.37069
2026.92124	0.36792
2024.99268	0.36511
2023.06411	0.36226
2021.13555	0.35949
2019.20698	0.35689
2017.27842	0.35427
2015.34985	0.35143
2013.42129	0.34853
2011.49272	0.34574
2009.56416	0.34299
2007.63560	0.34017
2005.70703	0.33729
2003.77847	0.33449
2001.84990	0.33176
1999.92134	0.32908
1997.99277	0.32644
1996.06421	0.32390
1994.13564	0.32147
1992.20708	0.31905
1990.27852	0.31646
1988.34995	0.31379
1986.42139	0.31122
1984.49282	0.30877
1982.56426	0.30639
1980.63569	0.30404
1978.70713	0.30171
1976.77856	0.29942
1974.85000	0.29722
1972.92144	0.29509
1970.99287	0.29292
1969.06431	0.29085
1967.13574	0.28888
1965.20718	0.28674
1963.27861	0.28449
1961.35005	0.28238
1959.42148	0.28046
1957.49292	0.27863
1955.56436	0.27682
1953.63579	0.27499
1951.70723	0.27315
1949.77866	0.27141
1947.85010	0.26981
1945.92153	0.26838
1943.99297	0.26712
1942.06440	0.26578
1940.13584	0.26414
1938.20728	0.26246
1936.27871	0.26097
1934.35015	0.25961
1932.42158	0.25833
1930.49302	0.25703
1928.56445	0.25578
1926.63589	0.25467
1924.70732	0.25378
1922.77876	0.25297
1920.85020	0.25201
1918.92163	0.25106
1916.99307	0.25007
1915.06450	0.24894
1913.13594	0.24799
1911.20737	0.24737
1909.27881	0.24680
1907.35024	0.24613
1905.42168	0.24542
1903.49312	0.24469
1901.56455	0.24398
1899.63599	0.24342
1897.70742	0.24304
1895.77886	0.24275
1893.85029	0.24245
1891.92173	0.24212
1889.99316	0.24191
1888.06460	0.24163
1886.13604	0.24118
1884.20747	0.24084
1882.27891	0.24062
1880.35034	0.24043
1878.42178	0.24021
1876.49321	0.24013
1874.56465	0.24017
1872.63608	0.24034
1870.70752	0.24077
1868.77896	0.24155
1866.85039	0.24191
1864.92183	0.24166
1862.99326	0.24147
1861.06470	0.24157
1859.13613	0.24193
1857.20757	0.24228
1855.27900	0.24267
1853.35044	0.24316
1851.42187	0.24374
1849.49331	0.24439
1847.56475	0.24520
1845.63618	0.24618
1843.70762	0.24717
1841.77905	0.24782
1839.85049	0.24818
1837.92192	0.24888
1835.99336	0.24976
1834.06479	0.25067
1832.13623	0.25177
1830.20767	0.25338
1828.27910	0.25495
1826.35054	0.25596
1824.42197	0.25711
1822.49341	0.25830
1820.56484	0.25945
1818.63628	0.26076
1816.70771	0.26241
1814.77915	0.26414
1812.85059	0.26601
1810.92202	0.26814
1808.99346	0.27020
1807.06489	0.27206
1805.13633	0.27396
1803.20776	0.27628
1801.27920	0.27889
1799.35063	0.28163
1797.42207	0.28413
1795.49351	0.28666
1793.56494	0.28971
1791.63638	0.29347
1789.70781	0.29682
1787.77925	0.29930
1785.85068	0.30239
1783.92212	0.30607
1781.99355	0.31001
1780.06499	0.31427
1778.13643	0.31864
1776.20786	0.32278
1774.27930	0.32737
1772.35073	0.33350
1770.42217	0.33976
1768.49360	0.34480
1766.56504	0.34974
1764.63647	0.35507
1762.70791	0.36114
1760.77935	0.36877
1758.85078	0.37588
1756.92222	0.38296
1754.99365	0.39073
1753.06509	0.39797
1751.13652	0.40659
1749.20796	0.41712
1747.27939	0.42740
1745.35083	0.43665
1743.42227	0.44632
1741.49370	0.45673
1739.56514	0.46899
1737.63657	0.48156
1735.70801	0.49296
1733.77944	0.50976
1731.85088	0.52931
1729.92231	0.54469
1727.99375	0.56036
1726.06519	0.57740
1724.13662	0.59613
1722.20806	0.61630
1720.27949	0.63512
1718.35093	0.65732
1716.42236	0.68945
1714.49380	0.71988
1712.56523	0.74476
1710.63667	0.76910
1708.70811	0.79544
1706.77954	0.82522
1704.85098	0.86006
1702.92241	0.89129
1700.99385	0.92288
1699.06528	0.96925
1697.13672	1.01146
1695.20815	1.05440
1693.27959	1.09672
1691.35103	1.13153
1689.42246	1.17172
1687.49390	1.21389
1685.56533	1.25500
1683.63677	1.31711
1681.70820	1.38014
1679.77964	1.42084
1677.85107	1.46027
1675.92251	1.50593
1673.99395	1.56194
1672.06538	1.61178
1670.13682	1.66006
1668.20825	1.72253
1666.27969	1.77478
1664.35112	1.81912
1662.42256	1.87292
1660.49399	1.93321
1658.56543	1.98177
1656.63687	2.02189
1654.70830	2.05816
1652.77974	2.11307
1650.85117	2.16642
1648.92261	2.18730
1646.99404	2.21419
1645.06548	2.24448
1643.13691	2.26480
1641.20835	2.27727
1639.27979	2.28866
1637.35122	2.29587
1635.42266	2.29665
1633.49409	2.29021
1631.56553	2.27650
1629.63696	2.25945
1627.70840	2.23283
1625.77983	2.20262
1623.85127	2.16472
1621.92271	2.11680
1619.99414	2.07185
1618.06558	2.02733
1616.13701	1.96555
1614.20845	1.90229
1612.27988	1.85337
1610.35132	1.80268
1608.42275	1.74832
1606.49419	1.69444
1604.56562	1.64378
1602.63706	1.59474
1600.70850	1.54722
1598.77993	1.50341
1596.85137	1.46230
1594.92280	1.42272
1592.99424	1.38426
1591.06567	1.34848
1589.13711	1.31473
1587.20854	1.28326
1585.27998	1.25430
1583.35142	1.22734
1581.42285	1.20256
1579.49429	1.18133
1577.56572	1.16242
1575.63716	1.13973
1573.70859	1.11902
1571.78003	1.10469
1569.85146	1.09008
1567.92290	1.07448
1565.99434	1.06245
1564.06577	1.05278
1562.13721	1.04505
1560.20864	1.03937
1558.28008	1.03214
1556.35151	1.02569
1554.42295	1.02138
1552.49438	1.01705
1550.56582	1.01190
1548.63726	1.00524
1546.70869	0.99777
1544.78013	0.98920
1542.85156	0.97876
1540.92300	0.96432
1538.99443	0.94237
1537.06587	0.92543
1535.13730	0.91384
1533.20874	0.89924
1531.28018	0.88351
1529.35161	0.87182
1527.42305	0.86115
1525.49448	0.84999
1523.56592	0.83997
1521.63735	0.83054
1519.70879	0.82121
1517.78022	0.81313
1515.85166	0.80383
1513.92310	0.79394
1511.99453	0.78546
1510.06597	0.77827
1508.13740	0.77180
1506.20884	0.76165
1504.28027	0.75144
1502.35171	0.74532
1500.42314	0.74041
1498.49458	0.73538
1496.56602	0.72954
1494.63745	0.72369
1492.70889	0.71906
1490.78032	0.71509
1488.85176	0.71062
1486.92319	0.70619
1484.99463	0.70247
1483.06606	0.69952
1481.13750	0.69709
1479.20894	0.69502
1477.28037	0.69355
1475.35181	0.69267
1473.42324	0.69189
1471.49468	0.69004
1469.56611	0.68743
1467.63755	0.68512
1465.70898	0.68314
1463.78042	0.68120
1461.85186	0.67966
1459.92329	0.67898
1457.99473	0.67861
1456.06616	0.67684
1454.13760	0.67380
1452.20903	0.67108
1450.28047	0.66860
1448.35190	0.66623
1446.42334	0.66379
1444.49478	0.66144
1442.56621	0.65922
1440.63765	0.65704
1438.70908	0.65510
1436.78052	0.65289
1434.85195	0.65007
1432.92339	0.64766
1430.99482	0.64610
1429.06626	0.64502
1427.13770	0.64420
1425.20913	0.64386
1423.28057	0.64387
1421.35200	0.64380
1419.42344	0.64360
1417.49487	0.64289
1415.56631	0.64130
1413.63774	0.63977
1411.70918	0.63897
1409.78062	0.63887
1407.85205	0.63892
1405.92349	0.63895
1403.99492	0.63893
1402.06636	0.63852
1400.13779	0.63769
1398.20923	0.63631
1396.28066	0.63419
1394.35210	0.63128
1392.42354	0.62798
1390.49497	0.62490
1388.56641	0.62197
1386.63784	0.61874
1384.70928	0.61523
1382.78071	0.61185
1380.85215	0.60886
1378.92358	0.60645
1376.99502	0.60466
1375.06646	0.60330
1373.13789	0.60203
1371.20933	0.60100
1369.28076	0.60032
1367.35220	0.59944
1365.42363	0.59819
1363.49507	0.59693
1361.56650	0.59560
1359.63794	0.59411
1357.70937	0.59278
1355.78081	0.59167
1353.85225	0.59068
1351.92368	0.58969
1349.99512	0.58874
1348.06655	0.58788
1346.13799	0.58710
1344.20942	0.58642
1342.28086	0.58579
1340.35229	0.58515
1338.42373	0.58428
1336.49517	0.58320
1334.56660	0.58219
1332.63804	0.58151
1330.70947	0.58118
1328.78091	0.58105
1326.85234	0.58106
1324.92378	0.58118
1322.99521	0.58131
1321.06665	0.58146
1319.13809	0.58155
1317.20952	0.58137
1315.28096	0.58103
1313.35239	0.58056
1311.42383	0.57981
1309.49526	0.57894
1307.56670	0.57811
1305.63813	0.57727
1303.70957	0.57640
1301.78101	0.57543
1299.85244	0.57436
1297.92388	0.57321
1295.99531	0.57198
1294.06675	0.57077
1292.13818	0.56969
1290.20962	0.56878
1288.28105	0.56799
1286.35249	0.56717
1284.42393	0.56624
1282.49536	0.56522
1280.56680	0.56421
1278.63823	0.56320
1276.70967	0.56217
1274.78110	0.56123
1272.85254	0.56050
1270.92397	0.55992
1268.99541	0.55929
1267.06685	0.55867
1265.13828	0.55813
1263.20972	0.55764
1261.28115	0.55713
1259.35259	0.55661
1257.42402	0.55614
1255.49546	0.55584
1253.56689	0.55573
1251.63833	0.55565
1249.70977	0.55555
1247.78120	0.55547
1245.85264	0.55531
1243.92407	0.55491
1241.99551	0.55425
1240.06694	0.55333
1238.13838	0.55211
1236.20981	0.55066
1234.28125	0.54928
1232.35269	0.54795
1230.42412	0.54644
1228.49556	0.54490
1226.56699	0.54349
1224.63843	0.54214
1222.70986	0.54086
1220.78130	0.53969
1218.85273	0.53854
1216.92417	0.53741
1214.99561	0.53645
1213.06704	0.53571
1211.13848	0.53510
1209.20991	0.53452
1207.28135	0.53395
1205.35278	0.53333
1203.42422	0.53257
1201.49565	0.53167
1199.56709	0.53078
1197.63853	0.53008
1195.70996	0.52955
1193.78140	0.52902
1191.85283	0.52842
1189.92427	0.52781
1187.99570	0.52726
1186.06714	0.52690
1184.13857	0.52681
1182.21001	0.52706
1180.28145	0.52766
1178.35288	0.52859
1176.42432	0.52980
1174.49575	0.53104
1172.56719	0.53186
1170.63862	0.53225
1168.71006	0.53256
1166.78149	0.53285
1164.85293	0.53306
1162.92437	0.53328
1160.99580	0.53334
1159.06724	0.53308
1157.13867	0.53254
1155.21011	0.53171
1153.28154	0.53045
1151.35298	0.52872
1149.42441	0.52666
1147.49585	0.52445
1145.56729	0.52194
1143.63872	0.51907
1141.71016	0.51629
1139.78159	0.51406
1137.85303	0.51243
1135.92446	0.51107
1133.99590	0.50981
1132.06733	0.50889
1130.13877	0.50833
1128.21021	0.50774
1126.28164	0.50682
1124.35308	0.50590
1122.42451	0.50539
1120.49595	0.50502
1118.56738	0.50453
1116.63882	0.50431
1114.71025	0.50458
1112.78169	0.50505
1110.85312	0.50552
1108.92456	0.50612
1106.99600	0.50703
1105.06743	0.50825
1103.13887	0.50955
1101.21030	0.51083
1099.28174	0.51243
1097.35317	0.51466
1095.42461	0.51753
1093.49604	0.52109
1091.56748	0.52564
1089.63892	0.53119
1087.71035	0.53757
1085.78179	0.54482
1083.85322	0.55240
1081.92466	0.55927
1079.99609	0.56474
1078.06753	0.56809
1076.13896	0.56855
1074.21040	0.56591
1072.28184	0.56078
1070.35327	0.55415
1068.42471	0.54717
1066.49614	0.54063
1064.56758	0.53452
1062.63901	0.52884
1060.71045	0.52389
1058.78188	0.51970
1056.85332	0.51594
1054.92476	0.51255
1052.99619	0.50960
1051.06763	0.50712
1049.13906	0.50525
1047.21050	0.50397
1045.28193	0.50308
1043.35337	0.50237
1041.42480	0.50186
1039.49624	0.50160
1037.56768	0.50139
1035.63911	0.50094
1033.71055	0.50042
1031.78198	0.50000
1029.85342	0.49940
1027.92485	0.49858
1025.99629	0.49782
1024.06772	0.49730
1022.13916	0.49700
1020.21060	0.49694
1018.28203	0.49716
1016.35347	0.49756
1014.42490	0.49797
1012.49634	0.49844
1010.56777	0.49912
1008.63921	0.49999
1006.71064	0.50101
1004.78208	0.50233
1002.85352	0.50430
1000.92495	0.50698
998.99639	0.51015
997.06782	0.51374
995.13926	0.51777
993.21069	0.52183
991.28213	0.52527
989.35356	0.52772
987.42500	0.52910
985.49644	0.52961
983.56787	0.52979
981.63931	0.53038
979.71074	0.53154
977.78218	0.53312
975.85361	0.53526
973.92505	0.53797
971.99648	0.54100
970.06792	0.54448
968.13936	0.54844
966.21079	0.55245
964.28223	0.55652
962.35366	0.56101
960.42510	0.56601
958.49653	0.57137
956.56797	0.57704
954.63940	0.58312
952.71084	0.58934
950.78228	0.59544
948.85371	0.60182
946.92515	0.60850
944.99658	0.61487
943.06802	0.62090
941.13945	0.62707
939.21089	0.63338
937.28232	0.63919
935.35376	0.64433
933.42520	0.64941
931.49663	0.65518
929.56807	0.66166
927.63950	0.66786
925.71094	0.67332
923.78237	0.67896
921.85381	0.68528
919.92524	0.69201
917.99668	0.69933
916.06812	0.70729
914.13955	0.71542
912.21099	0.72335
910.28242	0.73111
908.35386	0.73889
906.42529	0.74652
904.49673	0.75456
902.56816	0.76412
900.63960	0.77455
898.71104	0.78433
896.78247	0.79378
894.85391	0.80364
892.92534	0.81358
890.99678	0.82393
889.06821	0.83511
887.13965	0.84599
885.21108	0.85601
883.28252	0.86655
881.35396	0.87861
879.42539	0.89117
877.49683	0.90320
875.56826	0.91516
873.63970	0.92724
871.71113	0.93818
869.78257	0.94803
867.85400	0.95890
865.92544	0.97058
863.99687	0.98228
862.06831	0.99498
860.13975	1.00766
858.21118	1.01859
856.28262	1.02857
854.35405	1.03909
852.42549	1.05045
850.49692	1.06377
848.56836	1.07886
846.63979	1.09175
844.71123	1.10203
842.78267	1.11275
840.85410	1.12495
838.92554	1.13871
836.99697	1.15217
835.06841	1.16249
833.13984	1.17006
831.21128	1.17645
829.28271	1.18411
827.35415	1.19661
825.42559	1.21516
823.49702	1.23445
821.56846	1.24636
819.63989	1.25587
817.71133	1.27037
815.78276	1.28812
813.85420	1.30558
811.92563	1.31659
809.99707	1.31989
808.06851	1.32126
806.13994	1.33022
804.21138	1.35223
802.28281	1.36700
800.35425	1.35819
798.42568	1.35962
796.49712	1.39172
794.56855	1.42399
792.63999	1.43002
790.71143	1.42970
788.78286	1.43537
786.85430	1.43754
784.92573	1.47385
782.99717	1.54224
781.06860	1.54218
779.14004	1.47705
777.21147	1.41175
775.28291	1.37317
773.35435	1.39324
771.42578	1.44595
769.49722	1.44308
767.56865	1.43080
765.64009	1.43094
763.71152	1.40115
761.78296	1.40334
759.85439	1.45698
757.92583	1.45976
755.99727	1.37677
754.06870	1.30653
752.14014	1.27147
750.21157	1.21497
748.28301	1.16386
746.35444	1.15153
744.42588	1.09269
742.49731	0.99248
740.56875	0.92186
738.64019	0.84662
736.71162	0.78465
734.78306	0.81647
732.85449	0.88879
730.92593	0.69171
728.99736	0.46268
727.06880	0.38563
725.14023	0.32860
723.21167	0.18595
721.28311	0.04303
719.35454	0.01713
717.42598	0.07639
715.49741	0.10886
713.56885	0.13730
711.64028	0.12583
709.71172	0.03915
707.78315	-0.00525
705.85459	0.06068
703.92603	0.21122
701.99746	0.34733
700.06890	0.29720
698.14033	0.23808
696.21177	0.24536
694.28320	0.26584
692.35464	0.32341
690.42607	0.50830
688.49751	0.70935
686.56895	0.57131
684.64038	0.42257
682.71182	0.39501
680.78325	0.42570
678.85469	0.41961
676.92612	0.33159
674.99756	0.24387
673.06899	0.28054
671.14043	0.44908
669.21187	0.48715
667.28330	0.33749
665.35474	0.31011
663.42617	0.36443
661.49761	0.31272
659.56904	0.18798
657.64048	0.12343
655.71191	0.14949
653.78335	0.24935
651.85479	0.39510
649.92622	0.42496
647.99766	0.34061
646.06909	0.27279
644.14053	0.21383
642.21196	0.21012
640.28340	0.25656
638.35483	0.28849
636.42627	0.30820
634.49771	0.34357
632.56914	0.35696
630.64058	0.33844
628.71201	0.33505
626.78345	0.38700
624.85488	0.44159
622.92632	0.39174
620.99775	0.33615
619.06919	0.35659
617.14062	0.41585
615.21206	0.41335
613.28350	0.36872
611.35493	0.33306
609.42637	0.27892
607.49780	0.25522
605.56924	0.28909
603.64067	0.29181
601.71211	0.24609
599.78354	0.22129
597.85498	0.24404
595.92642	0.28492
593.99785	0.31407
592.06929	0.34004
590.14072	0.35093
588.21216	0.33073
586.28359	0.29601
584.35503	0.27779
582.42646	0.31174
580.49790	0.38653
578.56934	0.38872
576.64077	0.28414
574.71221	0.23156
572.78364	0.29329
570.85508	0.34962
568.92651	0.32779
566.99795	0.31895
565.06938	0.36707
563.14082	0.41166
561.21226	0.33871
559.28369	0.25129
557.35513	0.24039
555.42656	0.24809
553.49800	0.20748
551.56943	0.18811
549.64087	0.24342
547.71230	0.31913
545.78374	0.29868
543.85518	0.26123
541.92661	0.27447
539.99805	0.30849
538.06948	0.29629
536.14092	0.23250
534.21235	0.20892
532.28379	0.27251
530.35522	0.34690
528.42666	0.30278
526.49810	0.27327
524.56953	0.30170
522.64097	0.28550
520.71240	0.21462
518.78384	0.16537
516.85527	0.14954
514.92671	0.15186
512.99814	0.16105
511.06958	0.17976
509.14102	0.17253
507.21245	0.14281
505.28389	0.15991
503.35532	0.22685
501.42676	0.28509
499.49819	0.30124
