3997.91411	0.07317
3995.98555	0.07409
3994.05698	0.07471
3992.12842	0.07466
3990.19985	0.07452
3988.27129	0.07449
3986.34272	0.07449
3984.41416	0.07465
3982.48560	0.07496
3980.55703	0.07556
3978.62847	0.07630
3976.69990	0.07657
3974.77134	0.07643
3972.84277	0.07649
3970.91421	0.07655
3968.98564	0.07646
3967.05708	0.07676
3965.12852	0.07739
3963.19995	0.07789
3961.27139	0.07806
3959.34282	0.07790
3957.41426	0.07764
3955.48569	0.07743
3953.55713	0.07713
3951.62856	0.07679
3949.70000	0.07667
3947.77144	0.07673
3945.84287	0.07680
3943.91431	0.07671
3941.98574	0.07653
3940.05718	0.07667
3938.12861	0.07711
3936.20005	0.07727
3934.27148	0.07681
3932.34292	0.07603
3930.41436	0.07572
3928.48579	0.07620
3926.55723	0.07658
3924.62866	0.07644
3922.70010	0.07636
3920.77153	0.07651
3918.84297	0.07654
3916.91440	0.07648
3914.98584	0.07657
3913.05728	0.07660
3911.12871	0.07630
3909.20015	0.07598
3907.27158	0.07560
3905.34302	0.07490
3903.41445	0.07450
3901.48589	0.07466
3899.55732	0.07495
3897.62876	0.07543
3895.70020	0.07562
3893.77163	0.07512
3891.84307	0.07459
3889.91450	0.07502
3887.98594	0.07564
3886.05737	0.07561
3884.12881	0.07562
3882.20024	0.07590
3880.27168	0.07596
3878.34312	0.07588
3876.41455	0.07592
3874.48599	0.07597
3872.55742	0.07584
3870.62886	0.07571
3868.70029	0.07592
3866.77173	0.07603
3864.84316	0.07601
3862.91460	0.07644
3860.98604	0.07730
3859.05747	0.07806
3857.12891	0.07840
3855.20034	0.07803
3853.27178	0.07707
3851.34321	0.07752
3849.41465	0.07914
3847.48608	0.08023
3845.55752	0.08087
3843.62896	0.08118
3841.70039	0.08130
3839.77183	0.08157
3837.84326	0.08234
3835.91470	0.08351
3833.98613	0.08438
3832.05757	0.08498
3830.12900	0.08585
3828.20044	0.08678
3826.27187	0.08763
3824.34331	0.08807
3822.41475	0.08773
3820.48618	0.08804
3818.55762	0.08977
3816.62905	0.09113
3814.70049	0.09248
3812.77192	0.09406
3810.84336	0.09495
3808.91479	0.09520
3806.98623	0.09556
3805.05767	0.09656
3803.12910	0.09735
3801.20054	0.09814
3799.27197	0.09988
3797.34341	0.10161
3795.41484	0.10328
3793.48628	0.10493
3791.55771	0.10623
3789.62915	0.10752
3787.70059	0.10891
3785.77202	0.11020
3783.84346	0.11146
3781.91489	0.11277
3779.98633	0.11414
3778.05776	0.11592
3776.12920	0.11783
3774.20063	0.11941
3772.27207	0.12087
3770.34351	0.12248
3768.41494	0.12444
3766.48638	0.12633
3764.55781	0.12813
3762.62925	0.13007
3760.70068	0.13181
3758.77212	0.13368
3756.84355	0.13607
3754.91499	0.13791
3752.98643	0.13865
3751.05786	0.13923
3749.12930	0.14157
3747.20073	0.14479
3745.27217	0.14723
3743.34360	0.15059
3741.41504	0.15406
3739.48647	0.15546
3737.55791	0.15584
3735.62935	0.15677
3733.70078	0.15988
3731.77222	0.16418
3729.84365	0.16784
3727.91509	0.17132
3725.98652	0.17618
3724.05796	0.18330
3722.12939	0.19205
3720.20083	0.20211
3718.27227	0.21324
3716.34370	0.22446
3714.41514	0.23390
3712.48657	0.24135
3710.55801	0.24995
3708.62944	0.26150
3706.70088	0.27342
3704.77231	0.28507
3702.84375	0.29830
3700.91519	0.31572
3698.98662	0.33529
3697.05806	0.35384
3695.12949	0.37325
3693.20093	0.39352
3691.27236	0.41473
3689.34380	0.44214
3687.41523	0.47798
3685.48667	0.51147
3683.55811	0.54028
3681.62954	0.56990
3679.70098	0.60195
3677.77241	0.63458
3675.84385	0.67227
3673.91528	0.72426
3671.98672	0.76961
3670.05815	0.80959
3668.12959	0.86338
3666.20103	0.91437
3664.27246	0.95698
3662.34390	1.00146
3660.41533	1.04903
3658.48677	1.09547
3656.55820	1.14411
3654.62964	1.19849
3652.70107	1.24501
3650.77251	1.28485
3648.84395	1.33856
3646.91538	1.40583
3644.98682	1.45800
3643.05825	1.49859
3641.12969	1.53886
3639.20112	1.58250
3637.27256	1.62653
3635.34399	1.66874
3633.41543	1.70985
3631.48687	1.74816
3629.55830	1.78709
3627.62974	1.83866
3625.70117	1.88979
3623.77261	1.92646
3621.84404	1.96104
3619.91548	1.99971
3617.98691	2.04613
3616.05835	2.09236
3614.12979	2.13199
3612.20122	2.17238
3610.27266	2.21211
3608.34409	2.25088
3606.41553	2.29161
3604.48696	2.33089
3602.55840	2.36678
3600.62983	2.40452
3598.70127	2.44479
3596.77271	2.48435
3594.84414	2.52504
3592.91558	2.56753
3590.98701	2.60785
3589.05845	2.64577
3587.12988	2.69081
3585.20132	2.74067
3583.27275	2.78367
3581.34419	2.82293
3579.41562	2.86404
3577.48706	2.90740
3575.55850	2.95136
3573.62993	2.99609
3571.70137	3.04001
3569.77280	3.08171
3567.84424	3.12430
3565.91567	3.17623
3563.98711	3.22755
3562.05854	3.26877
3560.12998	3.30982
3558.20142	3.35437
3556.27285	3.39964
3554.34429	3.44355
3552.41572	3.48980
3550.48716	3.53881
3548.55859	3.58620
3546.63003	3.63269
3544.70146	3.68067
3542.77290	3.72752
3540.84434	3.77360
3538.91577	3.82101
3536.98721	3.86841
3535.05864	3.91655
3533.13008	3.96395
3531.20151	4.01085
3529.27295	4.05901
3527.34438	4.10839
3525.41582	4.15802
3523.48726	4.20799
3521.55869	4.25917
3519.63013	4.30753
3517.70156	4.35353
3515.77300	4.40230
3513.84443	4.45339
3511.91587	4.50345
3509.98730	4.55118
3508.05874	4.59642
3506.13018	4.64289
3504.20161	4.69054
3502.27305	4.73612
3500.34448	4.78203
3498.41592	4.83038
3496.48735	4.87818
3494.55879	4.92198
3492.63022	4.96584
3490.70166	5.01613
3488.77310	5.07245
3486.84453	5.12638
3484.91597	5.17427
3482.98740	5.21932
3481.05884	5.26406
3479.13027	5.31421
3477.20171	5.37090
3475.27314	5.42708
3473.34458	5.47889
3471.41602	5.53195
3469.48745	5.58603
3467.55889	5.63006
3465.63032	5.66716
3463.70176	5.71162
3461.77319	5.76307
3459.84463	5.81675
3457.91606	5.86843
3455.98750	5.91376
3454.05894	5.95654
3452.13037	6.00519
3450.20181	6.06176
3448.27324	6.11627
3446.34468	6.16519
3444.41611	6.21479
3442.48755	6.27614
3440.55898	6.34363
3438.63042	6.39885
3436.70186	6.44097
3434.77329	6.47827
3432.84473	6.51835
3430.91616	6.56934
3428.98760	6.63213
3427.05903	6.68799
3425.13047	6.73761
3423.20190	6.79775
3421.27334	6.84959
3419.34478	6.87667
3417.41621	6.91454
3415.48765	6.97043
3413.55908	7.02581
3411.63052	7.08905
3409.70195	7.13674
3407.77339	7.14722
3405.84482	7.13088
3403.91626	7.12809
3401.98770	7.18037
3400.05913	7.27121
3398.13057	7.33273
3396.20200	7.35532
3394.27344	7.38777
3392.34487	7.43408
3390.41631	7.49565
3388.48774	7.55197
3386.55918	7.60611
3384.63062	7.66845
3382.70205	7.70670
3380.77349	7.72464
3378.84492	7.74615
3376.91636	7.77968
3374.98779	7.81275
3373.05923	7.82952
3371.13066	7.84054
3369.20210	7.89291
3367.27354	7.92887
3365.34497	7.91655
3363.41641	7.91677
3361.48784	7.92606
3359.55928	7.96180
3357.63071	8.00010
3355.70215	8.01043
3353.77358	8.01300
3351.84502	8.03455
3349.91646	8.11398
3347.98789	8.23649
3346.05933	8.26833
3344.13076	8.21263
3342.20220	8.21901
3340.27363	8.23575
3338.34507	8.17779
3336.41650	8.09927
3334.48794	8.07394
3332.55937	8.11081
3330.63081	8.16773
3328.70225	8.20579
3326.77368	8.23592
3324.84512	8.24809
3322.91655	8.26309
3320.98799	8.36532
3319.05942	8.41281
3317.13086	8.30687
3315.20229	8.22708
3313.27373	8.24882
3311.34517	8.31518
3309.41660	8.34293
3307.48804	8.30234
3305.55947	8.27369
3303.63091	8.29563
3301.70234	8.34696
3299.77378	8.41835
3297.84521	8.40843
3295.91665	8.32247
3293.98809	8.26011
3292.05952	8.25090
3290.13096	8.27379
3288.20239	8.27341
3286.27383	8.28465
3284.34526	8.32769
3282.41670	8.34385
3280.48813	8.33674
3278.55957	8.38247
3276.63101	8.45313
3274.70244	8.43406
3272.77388	8.33431
3270.84531	8.29395
3268.91675	8.36727
3266.98818	8.44954
3265.05962	8.50041
3263.13105	8.55605
3261.20249	8.61049
3259.27393	8.63107
3257.34536	8.55186
3255.41680	8.41853
3253.48823	8.38022
3251.55967	8.45090
3249.63110	8.51339
3247.70254	8.48221
3245.77397	8.39657
3243.84541	8.35724
3241.91685	8.35792
3239.98828	8.35556
3238.05972	8.34732
3236.13115	8.35890
3234.20259	8.35023
3232.27402	8.27028
3230.34546	8.24778
3228.41689	8.27717
3226.48833	8.22731
3224.55977	8.18889
3222.63120	8.21665
3220.70264	8.23689
3218.77407	8.25555
3216.84551	8.23371
3214.91694	8.13832
3212.98838	8.06637
3211.05981	8.05044
3209.13125	8.04540
3207.20269	8.00879
3205.27412	7.95650
3203.34556	7.95387
3201.41699	7.95305
3199.48843	7.86891
3197.55986	7.77967
3195.63130	7.75095
3193.70273	7.75212
3191.77417	7.75426
3189.84561	7.72322
3187.91704	7.64413
3185.98848	7.58919
3184.05991	7.61132
3182.13135	7.61397
3180.20278	7.51804
3178.27422	7.41398
3176.34565	7.35458
3174.41709	7.28546
3172.48853	7.18812
3170.55996	7.09649
3168.63140	7.02590
3166.70283	6.98410
3164.77427	6.97492
3162.84570	6.94997
3160.91714	6.85635
3158.98857	6.73571
3157.06001	6.64224
3155.13145	6.57951
3153.20288	6.53106
3151.27432	6.47622
3149.34575	6.40686
3147.41719	6.34203
3145.48862	6.29516
3143.56006	6.23507
3141.63149	6.14642
3139.70293	6.05937
3137.77437	5.99301
3135.84580	5.93816
3133.91724	5.87551
3131.98867	5.79929
3130.06011	5.72457
3128.13154	5.65971
3126.20298	5.58959
3124.27441	5.50509
3122.34585	5.42169
3120.41729	5.35354
3118.48872	5.29080
3116.56016	5.22033
3114.63159	5.14612
3112.70303	5.07553
3110.77446	5.00815
3108.84590	4.94012
3106.91733	4.87228
3104.98877	4.80634
3103.06021	4.74032
3101.13164	4.67135
3099.20308	4.59815
3097.27451	4.52517
3095.34595	4.45682
3093.41738	4.39255
3091.48882	4.33241
3089.56025	4.27361
3087.63169	4.21099
3085.70312	4.14662
3083.77456	4.08383
3081.84600	4.02238
3079.91743	3.96259
3077.98887	3.90354
3076.06030	3.84361
3074.13174	3.78358
3072.20317	3.72464
3070.27461	3.66724
3068.34604	3.61126
3066.41748	3.55521
3064.48892	3.49832
3062.56035	3.44137
3060.63179	3.38501
3058.70322	3.32951
3056.77466	3.27567
3054.84609	3.22358
3052.91753	3.17155
3050.98896	3.11890
3049.06040	3.06695
3047.13184	3.01639
3045.20327	2.96737
3043.27471	2.91970
3041.34614	2.87187
3039.41758	2.82356
3037.48901	2.77603
3035.56045	2.72965
3033.63188	2.68410
3031.70332	2.63874
3029.77476	2.59345
3027.84619	2.54873
3025.91763	2.50466
3023.98906	2.46145
3022.06050	2.41912
3020.13193	2.37691
3018.20337	2.33490
3016.27480	2.29393
3014.34624	2.25430
3012.41768	2.21579
3010.48911	2.17754
3008.56055	2.13939
3006.63198	2.10218
3004.70342	2.06613
3002.77485	2.03066
3000.84629	1.99554
2998.91772	1.96106
2996.98916	1.92750
2995.06060	1.89481
2993.13203	1.86291
2991.20347	1.83211
2989.27490	1.80209
2987.34634	1.77198
2985.41777	1.74204
2983.48921	1.71286
2981.56064	1.68473
2979.63208	1.65759
2977.70352	1.63081
2975.77495	1.60407
2973.84639	1.57759
2971.91782	1.55156
2969.98926	1.52621
2968.06069	1.50149
2966.13213	1.47693
2964.20356	1.45231
2962.27500	1.42757
2960.34644	1.40261
2958.41787	1.37753
2956.48931	1.35230
2954.56074	1.32731
2952.63218	1.30313
2950.70361	1.27959
2948.77505	1.25631
2946.84648	1.23315
2944.91792	1.21025
2942.98936	1.18786
2941.06079	1.16628
2939.13223	1.14514
2937.20366	1.12355
2935.27510	1.10168
2933.34653	1.08033
2931.41797	1.05920
2929.48940	1.03796
2927.56084	1.01719
2925.63228	0.99722
2923.70371	0.97806
2921.77515	0.95972
2919.84658	0.94232
2917.91802	0.92611
2915.98945	0.91040
2914.06089	0.89461
2912.13232	0.87944
2910.20376	0.86500
2908.27520	0.85063
2906.34663	0.83608
2904.41807	0.82179
2902.48950	0.80805
2900.56094	0.79456
2898.63237	0.78145
2896.70381	0.76895
2894.77524	0.75674
2892.84668	0.74453
2890.91812	0.73245
2888.98955	0.72088
2887.06099	0.70981
2885.13242	0.69907
2883.20386	0.68875
2881.27529	0.67899
2879.34673	0.66938
2877.41816	0.65949
2875.48960	0.64936
2873.56104	0.63915
2871.63247	0.62855
2869.70391	0.61705
2867.77534	0.60503
2865.84678	0.59298
2863.91821	0.58081
2861.98965	0.56867
2860.06108	0.55695
2858.13252	0.54570
2856.20396	0.53487
2854.27539	0.52467
2852.34683	0.51541
2850.41826	0.50702
2848.48970	0.49924
2846.56113	0.49218
2844.63257	0.48606
2842.70400	0.48052
2840.77544	0.47508
2838.84687	0.46963
2836.91831	0.46414
2834.98975	0.45849
2833.06118	0.45289
2831.13262	0.44740
2829.20405	0.44174
2827.27549	0.43585
2825.34692	0.42989
2823.41836	0.42404
2821.48979	0.41830
2819.56123	0.41235
2817.63267	0.40630
2815.70410	0.40051
2813.77554	0.39484
2811.84697	0.38921
2809.91841	0.38378
2807.98984	0.37853
2806.06128	0.37333
2804.13271	0.36816
2802.20415	0.36301
2800.27559	0.35785
2798.34702	0.35273
2796.41846	0.34775
2794.48989	0.34301
2792.56133	0.33844
2790.63276	0.33388
2788.70420	0.32943
2786.77563	0.32514
2784.84707	0.32091
2782.91851	0.31659
2780.98994	0.31221
2779.06138	0.30799
2777.13281	0.30394
2775.20425	0.29987
2773.27568	0.29594
2771.34712	0.29220
2769.41855	0.28849
2767.48999	0.28484
2765.56143	0.28128
2763.63286	0.27776
2761.70430	0.27424
2759.77573	0.27072
2757.84717	0.26738
2755.91860	0.26429
2753.99004	0.26133
2752.06147	0.25838
2750.13291	0.25547
2748.20435	0.25258
2746.27578	0.24967
2744.34722	0.24680
2742.41865	0.24400
2740.49009	0.24118
2738.56152	0.23833
2736.63296	0.23550
2734.70439	0.23275
2732.77583	0.23018
2730.84727	0.22780
2728.91870	0.22542
2726.99014	0.22305
2725.06157	0.22083
2723.13301	0.21873
2721.20444	0.21668
2719.27588	0.21461
2717.34731	0.21246
2715.41875	0.21037
2713.49019	0.20852
2711.56162	0.20684
2709.63306	0.20514
2707.70449	0.20343
2705.77593	0.20172
2703.84736	0.20001
2701.91880	0.19839
2699.99023	0.19680
2698.06167	0.19519
2696.13311	0.19371
2694.20454	0.19234
2692.27598	0.19103
2690.34741	0.18976
2688.41885	0.18842
2686.49028	0.18701
2684.56172	0.18572
2682.63315	0.18450
2680.70459	0.18328
2678.77603	0.18215
2676.84746	0.18103
2674.91890	0.17984
2672.99033	0.17871
2671.06177	0.17786
2669.13320	0.17717
2667.20464	0.17636
2665.27607	0.17537
2663.34751	0.17440
2661.41895	0.17351
2659.49038	0.17260
2657.56182	0.17174
2655.63325	0.17105
2653.70469	0.17037
2651.77612	0.16967
2649.84756	0.16907
2647.91899	0.16844
2645.99043	0.16768
2644.06187	0.16691
2642.13330	0.16619
2640.20474	0.16557
2638.27617	0.16510
2636.34761	0.16478
2634.41904	0.16438
2632.49048	0.16384
2630.56191	0.16339
2628.63335	0.16301
2626.70479	0.16258
2624.77622	0.16219
2622.84766	0.16186
2620.91909	0.16152
2618.99053	0.16120
2617.06196	0.16100
2615.13340	0.16086
2613.20483	0.16069
2611.27627	0.16056
2609.34771	0.16047
2607.41914	0.16038
2605.49058	0.16036
2603.56201	0.16030
2601.63345	0.16012
2599.70488	0.16003
2597.77632	0.16005
2595.84775	0.16001
2593.91919	0.15994
2591.99062	0.15997
2590.06206	0.16004
2588.13350	0.16011
2586.20493	0.16022
2584.27637	0.16040
2582.34780	0.16068
2580.41924	0.16103
2578.49067	0.16131
2576.56211	0.16157
2574.63354	0.16187
2572.70498	0.16213
2570.77642	0.16236
2568.84785	0.16258
2566.91929	0.16291
2564.99072	0.16336
2563.06216	0.16379
2561.13359	0.16422
2559.20503	0.16473
2557.27646	0.16528
2555.34790	0.16588
2553.41934	0.16642
2551.49077	0.16678
2549.56221	0.16713
2547.63364	0.16758
2545.70508	0.16811
2543.77651	0.16866
2541.84795	0.16917
2539.91938	0.16968
2537.99082	0.17025
2536.06226	0.17089
2534.13369	0.17163
2532.20513	0.17233
2530.27656	0.17292
2528.34800	0.17355
2526.41943	0.17430
2524.49087	0.17508
2522.56230	0.17582
2520.63374	0.17656
2518.70518	0.17738
2516.77661	0.17814
2514.84805	0.17878
2512.91948	0.17943
2510.99092	0.18016
2509.06235	0.18093
2507.13379	0.18175
2505.20522	0.18256
2503.27666	0.18339
2501.34810	0.18421
2499.41953	0.18500
2497.49097	0.18578
2495.56240	0.18665
2493.63384	0.18755
2491.70527	0.18835
2489.77671	0.18910
2487.84814	0.18996
2485.91958	0.19090
2483.99102	0.19180
2482.06245	0.19260
2480.13389	0.19344
2478.20532	0.19440
2476.27676	0.19534
2474.34819	0.19620
2472.41963	0.19711
2470.49106	0.19800
2468.56250	0.19877
2466.63394	0.19949
2464.70537	0.20035
2462.77681	0.20135
2460.84824	0.20236
2458.91968	0.20333
2456.99111	0.20424
2455.06255	0.20513
2453.13398	0.20612
2451.20542	0.20716
2449.27686	0.20806
2447.34829	0.20892
2445.41973	0.20991
2443.49116	0.21098
2441.56260	0.21204
2439.63403	0.21303
2437.70547	0.21393
2435.77690	0.21492
2433.84834	0.21610
2431.91978	0.21729
2429.99121	0.21840
2428.06265	0.21949
2426.13408	0.22051
2424.20552	0.22144
2422.27695	0.22247
2420.34839	0.22368
2418.41982	0.22490
2416.49126	0.22600
2414.56270	0.22708
2412.63413	0.22822
2410.70557	0.22936
2408.77700	0.23035
2406.84844	0.23131
2404.91987	0.23246
2402.99131	0.23381
2401.06274	0.23515
2399.13418	0.23631
2397.20562	0.23741
2395.27705	0.23862
2393.34849	0.23988
2391.41992	0.24095
2389.49136	0.24169
2387.56279	0.24181
2385.63423	0.24037
2383.70566	0.23653
2381.77710	0.23009
2379.84854	0.22136
2377.91997	0.21089
2375.99141	0.19870
2374.06284	0.18412
2372.13428	0.16675
2370.20571	0.14734
2368.27715	0.12784
2366.34858	0.11026
2364.42002	0.09541
2362.49146	0.08472
2360.56289	0.08026
2358.63433	0.08283
2356.70576	0.09365
2354.77720	0.11305
2352.84863	0.13850
2350.92007	0.16428
2348.99150	0.18015
2347.06294	0.18097
2345.13437	0.16810
2343.20581	0.15129
2341.27725	0.14395
2339.34868	0.14606
2337.42012	0.15139
2335.49155	0.15721
2333.56299	0.16311
2331.63442	0.16839
2329.70586	0.17369
2327.77729	0.18032
2325.84873	0.18869
2323.92017	0.19821
2321.99160	0.20823
2320.06304	0.21890
2318.13447	0.23007
2316.20591	0.24019
2314.27734	0.24798
2312.34878	0.25389
2310.42021	0.25978
2308.49165	0.26679
2306.56309	0.27433
2304.63452	0.28127
2302.70596	0.28686
2300.77739	0.29140
2298.84883	0.29566
2296.92026	0.29989
2294.99170	0.30411
2293.06313	0.30847
2291.13457	0.31291
2289.20601	0.31724
2287.27744	0.32140
2285.34888	0.32529
2283.42031	0.32852
2281.49175	0.33075
2279.56318	0.33230
2277.63462	0.33377
2275.70605	0.33537
2273.77749	0.33709
2271.84893	0.33896
2269.92036	0.34095
2267.99180	0.34313
2266.06323	0.34550
2264.13467	0.34795
2262.20610	0.35043
2260.27754	0.35296
2258.34897	0.35552
2256.42041	0.35808
2254.49185	0.36072
2252.56328	0.36342
2250.63472	0.36607
2248.70615	0.36863
2246.77759	0.37110
2244.84902	0.37350
2242.92046	0.37589
2240.99189	0.37833
2239.06333	0.38073
2237.13477	0.38306
2235.20620	0.38535
2233.27764	0.38766
2231.34907	0.39006
2229.42051	0.39247
2227.49194	0.39476
2225.56338	0.39699
2223.63481	0.39924
2221.70625	0.40151
2219.77769	0.40375
2217.84912	0.40590
2215.92056	0.40795
2213.99199	0.41005
2212.06343	0.41224
2210.13486	0.41440
2208.20630	0.41657
2206.27773	0.41876
2204.34917	0.42094
2202.42061	0.42306
2200.49204	0.42508
2198.56348	0.42703
2196.63491	0.42896
2194.70635	0.43090
2192.77778	0.43281
2190.84922	0.43466
2188.92065	0.43649
2186.99209	0.43832
2185.06353	0.44011
2183.13496	0.44190
2181.20640	0.44375
2179.27783	0.44554
2177.34927	0.44718
2175.42070	0.44873
2173.49214	0.45018
2171.56357	0.45157
2169.63501	0.45298
2167.70645	0.45439
2165.77788	0.45576
2163.84932	0.45707
2161.92075	0.45823
2159.99219	0.45924
2158.06362	0.46016
2156.13506	0.46101
2154.20649	0.46181
2152.27793	0.46263
2150.34937	0.46343
2148.42080	0.46409
2146.49224	0.46463
2144.56367	0.46510
2142.63511	0.46551
2140.70654	0.46585
2138.77798	0.46617
2136.84941	0.46639
2134.92085	0.46648
2132.99229	0.46652
2131.06372	0.46643
2129.13516	0.46621
2127.20659	0.46599
2125.27803	0.46583
2123.34946	0.46556
2121.42090	0.46509
2119.49233	0.46451
2117.56377	0.46380
2115.63521	0.46299
2113.70664	0.46218
2111.77808	0.46135
2109.84951	0.46043
2107.92095	0.45940
2105.99238	0.45829
2104.06382	0.45709
2102.13525	0.45575
2100.20669	0.45441
2098.27812	0.45314
2096.34956	0.45173
2094.42100	0.45005
2092.49243	0.44825
2090.56387	0.44658
2088.63530	0.44498
2086.70674	0.44321
2084.77817	0.44118
2082.84961	0.43911
2080.92104	0.43708
2078.99248	0.43503
2077.06392	0.43297
2075.13535	0.43088
2073.20679	0.42872
2071.27822	0.42644
2069.34966	0.42411
2067.42109	0.42176
2065.49253	0.41941
2063.56396	0.41711
2061.63540	0.41473
2059.70684	0.41216
2057.77827	0.40954
2055.84971	0.40694
2053.92114	0.40430
2051.99258	0.40168
2050.06401	0.39906
2048.13545	0.39641
2046.20688	0.39373
2044.27832	0.39111
2042.34976	0.38845
2040.42119	0.38569
2038.49263	0.38291
2036.56406	0.38014
2034.63550	0.37736
2032.70693	0.37458
2030.77837	0.37178
2028.84980	0.36892
2026.92124	0.36607
2024.99268	0.36326
2023.06411	0.36043
2021.13555	0.35758
2019.20698	0.35474
2017.27842	0.35190
2015.34985	0.34916
2013.42129	0.34650
2011.49272	0.34374
2009.56416	0.34095
2007.63560	0.33823
2005.70703	0.33547
2003.77847	0.33269
2001.84990	0.32995
1999.92134	0.32730
1997.99277	0.32467
1996.06421	0.32210
1994.13564	0.31956
1992.20708	0.31694
1990.27852	0.31428
1988.34995	0.31174
1986.42139	0.30930
1984.49282	0.30692
1982.56426	0.30455
1980.63569	0.30208
1978.70713	0.29964
1976.77856	0.29735
1974.85000	0.29517
1972.92144	0.29293
1970.99287	0.29067
1969.06431	0.28850
1967.13574	0.28642
1965.20718	0.28444
1963.27861	0.28255
1961.35005	0.28069
1959.42148	0.27882
1957.49292	0.27692
1955.56436	0.27501
1953.63579	0.27311
1951.70723	0.27127
1949.77866	0.26956
1947.85010	0.26796
1945.92153	0.26635
1943.99297	0.26465
1942.06440	0.26301
1940.13584	0.26163
1938.20728	0.26034
1936.27871	0.25896
1934.35015	0.25758
1932.42158	0.25636
1930.49302	0.25522
1928.56445	0.25407
1926.63589	0.25289
1924.70732	0.25168
1922.77876	0.25052
1920.85020	0.24953
1918.92163	0.24862
1916.99307	0.24776
1915.06450	0.24708
1913.13594	0.24633
1911.20737	0.24545
1909.27881	0.24460
1907.35024	0.24395
1905.42168	0.24341
1903.49312	0.24291
1901.56455	0.24233
1899.63599	0.24168
1897.70742	0.24114
1895.77886	0.24072
1893.85029	0.24038
1891.92173	0.23999
1889.99316	0.23959
1888.06460	0.23928
1886.13604	0.23907
1884.20747	0.23890
1882.27891	0.23878
1880.35034	0.23869
1878.42178	0.23855
1876.49321	0.23845
1874.56465	0.23837
1872.63608	0.23829
1870.70752	0.23817
1868.77896	0.23833
1866.85039	0.23883
1864.92183	0.23920
1862.99326	0.23938
1861.06470	0.23956
1859.13613	0.23990
1857.20757	0.24031
1855.27900	0.24075
1853.35044	0.24122
1851.42187	0.24177
1849.49331	0.24223
1847.56475	0.24256
1845.63618	0.24299
1843.70762	0.24388
1841.77905	0.24507
1839.85049	0.24591
1837.92192	0.24670
1835.99336	0.24760
1834.06479	0.24856
1832.13623	0.24938
1830.20767	0.25032
1828.27910	0.25159
1826.35054	0.25278
1824.42197	0.25423
1822.49341	0.25591
1820.56484	0.25744
1818.63628	0.25878
1816.70771	0.26031
1814.77915	0.26192
1812.85059	0.26358
1810.92202	0.26548
1808.99346	0.26753
1807.06489	0.26951
1805.13633	0.27141
1803.20776	0.27346
1801.27920	0.27571
1799.35063	0.27846
1797.42207	0.28117
1795.49351	0.28352
1793.56494	0.28587
1791.63638	0.28918
1789.70781	0.29309
1787.77925	0.29623
1785.85068	0.29941
1783.92212	0.30297
1781.99355	0.30671
1780.06499	0.31077
1778.13643	0.31517
1776.20786	0.31916
1774.27930	0.32296
1772.35073	0.32805
1770.42217	0.33429
1768.49360	0.34025
1766.56504	0.34601
1764.63647	0.35155
1762.70791	0.35720
1760.77935	0.36438
1758.85078	0.37135
1756.92222	0.37827
1754.99365	0.38595
1753.06509	0.39290
1751.13652	0.40057
1749.20796	0.41008
1747.27939	0.42002
1745.35083	0.42917
1743.42227	0.43880
1741.49370	0.44930
1739.56514	0.46165
1737.63657	0.47416
1735.70801	0.48495
1733.77944	0.50073
1731.85088	0.52043
1729.92231	0.53685
1727.99375	0.55335
1726.06519	0.57094
1724.13662	0.58991
1722.20806	0.61012
1720.27949	0.62865
1718.35093	0.64974
1716.42236	0.68069
1714.49380	0.71172
1712.56523	0.73788
1710.63667	0.76283
1708.70811	0.78900
1706.77954	0.81835
1704.85098	0.85347
1702.92241	0.88539
1700.99385	0.91697
1699.06528	0.96323
1697.13672	1.00647
1695.20815	1.05208
1693.27959	1.09790
1691.35103	1.13481
1689.42246	1.17641
1687.49390	1.22048
1685.56533	1.26332
1683.63677	1.32809
1681.70820	1.39661
1679.77964	1.44216
1677.85107	1.48512
1675.92251	1.53368
1673.99395	1.59323
1672.06538	1.64723
1670.13682	1.70030
1668.20825	1.76935
1666.27969	1.82814
1664.35112	1.87948
1662.42256	1.94344
1660.49399	2.01563
1658.56543	2.07302
1656.63687	2.11970
1654.70830	2.16193
1652.77974	2.22248
1650.85117	2.27765
1648.92261	2.29745
1646.99404	2.32275
1645.06548	2.34901
1643.13691	2.36513
1641.20835	2.37381
1639.27979	2.38190
1637.35122	2.38561
1635.42266	2.38117
1633.49409	2.36968
1631.56553	2.35280
1629.63696	2.33202
1627.70840	2.30021
1625.77983	2.26506
1623.85127	2.22199
1621.92271	2.16896
1619.99414	2.12085
1618.06558	2.07409
1616.13701	2.00873
1614.20845	1.94160
1612.27988	1.88944
1610.35132	1.83489
1608.42275	1.77608
1606.49419	1.71876
1604.56562	1.66617
1602.63706	1.61549
1600.70850	1.56630
1598.77993	1.52102
1596.85137	1.47839
1594.92280	1.43738
1592.99424	1.39849
1591.06567	1.36316
1589.13711	1.33046
1587.20854	1.30080
1585.27998	1.27415
1583.35142	1.24951
1581.42285	1.22675
1579.49429	1.20698
1577.56572	1.18953
1575.63716	1.17017
1573.70859	1.15394
1571.78003	1.14324
1569.85146	1.13304
1567.92290	1.12346
1565.99434	1.11728
1564.06577	1.11328
1562.13721	1.11057
1560.20864	1.10990
1558.28008	1.11459
1556.35151	1.12151
1554.42295	1.12561
1552.49438	1.12921
1550.56582	1.13111
1548.63726	1.13026
1546.70869	1.12579
1544.78013	1.11666
1542.85156	1.10327
1540.92300	1.08342
1538.99443	1.05406
1537.06587	1.03259
1535.13730	1.01694
1533.20874	0.99585
1531.28018	0.97368
1529.35161	0.95712
1527.42305	0.94118
1525.49448	0.92489
1523.56592	0.91101
1521.63735	0.89842
1519.70879	0.88663
1517.78022	0.87611
1515.85166	0.86372
1513.92310	0.85093
1511.99453	0.83929
1510.06597	0.82798
1508.13740	0.81633
1506.20884	0.80023
1504.28027	0.78741
1502.35171	0.78004
1500.42314	0.77307
1498.49458	0.76532
1496.56602	0.75662
1494.63745	0.74847
1492.70889	0.74193
1490.78032	0.73547
1488.85176	0.72827
1486.92319	0.72249
1484.99463	0.71832
1483.06606	0.71478
1481.13750	0.71150
1479.20894	0.70876
1477.28037	0.70690
1475.35181	0.70569
1473.42324	0.70481
1471.49468	0.70377
1469.56611	0.70220
1467.63755	0.69997
1465.70898	0.69764
1463.78042	0.69608
1461.85186	0.69542
1459.92329	0.69510
1457.99473	0.69484
1456.06616	0.69474
1454.13760	0.69398
1452.20903	0.69223
1450.28047	0.68981
1448.35190	0.68724
1446.42334	0.68500
1444.49478	0.68309
1442.56621	0.68088
1440.63765	0.67813
1438.70908	0.67500
1436.78052	0.67111
1434.85195	0.66714
1432.92339	0.66429
1430.99482	0.66241
1429.06626	0.66144
1427.13770	0.66127
1425.20913	0.66157
1423.28057	0.66229
1421.35200	0.66294
1419.42344	0.66332
1417.49487	0.66350
1415.56631	0.66323
1413.63774	0.66301
1411.70918	0.66347
1409.78062	0.66483
1407.85205	0.66659
1405.92349	0.66844
1403.99492	0.67037
1402.06636	0.67139
1400.13779	0.67099
1398.20923	0.66941
1396.28066	0.66689
1394.35210	0.66325
1392.42354	0.65878
1390.49497	0.65420
1388.56641	0.64936
1386.63784	0.64395
1384.70928	0.63846
1382.78071	0.63315
1380.85215	0.62779
1378.92358	0.62296
1376.99502	0.61931
1375.06646	0.61681
1373.13789	0.61523
1371.20933	0.61437
1369.28076	0.61359
1367.35220	0.61230
1365.42363	0.61048
1363.49507	0.60858
1361.56650	0.60704
1359.63794	0.60587
1357.70937	0.60472
1355.78081	0.60346
1353.85225	0.60243
1351.92368	0.60182
1349.99512	0.60136
1348.06655	0.60076
1346.13799	0.60005
1344.20942	0.59931
1342.28086	0.59854
1340.35229	0.59778
1338.42373	0.59714
1336.49517	0.59672
1334.56660	0.59655
1332.63804	0.59660
1330.70947	0.59678
1328.78091	0.59714
1326.85234	0.59782
1324.92378	0.59876
1322.99521	0.59971
1321.06665	0.60046
1319.13809	0.60104
1317.20952	0.60154
1315.28096	0.60184
1313.35239	0.60180
1311.42383	0.60139
1309.49526	0.60086
1307.56670	0.60051
1305.63813	0.60023
1303.70957	0.59976
1301.78101	0.59907
1299.85244	0.59816
1297.92388	0.59705
1295.99531	0.59579
1294.06675	0.59451
1292.13818	0.59319
1290.20962	0.59181
1288.28105	0.59046
1286.35249	0.58908
1284.42393	0.58767
1282.49536	0.58624
1280.56680	0.58479
1278.63823	0.58339
1276.70967	0.58210
1274.78110	0.58091
1272.85254	0.57987
1270.92397	0.57906
1268.99541	0.57833
1267.06685	0.57749
1265.13828	0.57652
1263.20972	0.57564
1261.28115	0.57492
1259.35259	0.57417
1257.42402	0.57361
1255.49546	0.57358
1253.56689	0.57385
1251.63833	0.57406
1249.70977	0.57421
1247.78120	0.57434
1245.85264	0.57429
1243.92407	0.57387
1241.99551	0.57308
1240.06694	0.57196
1238.13838	0.57031
1236.20981	0.56810
1234.28125	0.56559
1232.35269	0.56311
1230.42412	0.56084
1228.49556	0.55876
1226.56699	0.55680
1224.63843	0.55494
1222.70986	0.55309
1220.78130	0.55125
1218.85273	0.54965
1216.92417	0.54840
1214.99561	0.54736
1213.06704	0.54646
1211.13848	0.54569
1209.20991	0.54499
1207.28135	0.54425
1205.35278	0.54332
1203.42422	0.54224
1201.49565	0.54120
1199.56709	0.54030
1197.63853	0.53947
1195.70996	0.53876
1193.78140	0.53821
1191.85283	0.53780
1189.92427	0.53755
1187.99570	0.53741
1186.06714	0.53729
1184.13857	0.53722
1182.21001	0.53739
1180.28145	0.53802
1178.35288	0.53923
1176.42432	0.54076
1174.49575	0.54213
1172.56719	0.54286
1170.63862	0.54283
1168.71006	0.54239
1166.78149	0.54186
1164.85293	0.54117
1162.92437	0.54032
1160.99580	0.53952
1159.06724	0.53878
1157.13867	0.53794
1155.21011	0.53684
1153.28154	0.53539
1151.35298	0.53363
1149.42441	0.53153
1147.49585	0.52910
1145.56729	0.52652
1143.63872	0.52404
1141.71016	0.52175
1139.78159	0.51956
1137.85303	0.51756
1135.92446	0.51607
1133.99590	0.51515
1132.06733	0.51452
1130.13877	0.51390
1128.21021	0.51318
1126.28164	0.51219
1124.35308	0.51104
1122.42451	0.51010
1120.49595	0.50955
1118.56738	0.50924
1116.63882	0.50912
1114.71025	0.50926
1112.78169	0.50961
1110.85312	0.50997
1108.92456	0.51047
1106.99600	0.51138
1105.06743	0.51277
1103.13887	0.51449
1101.21030	0.51624
1099.28174	0.51820
1097.35317	0.52084
1095.42461	0.52413
1093.49604	0.52767
1091.56748	0.53142
1089.63892	0.53583
1087.71035	0.54104
1085.78179	0.54683
1083.85322	0.55316
1081.92466	0.55941
1079.99609	0.56452
1078.06753	0.56787
1076.13896	0.56891
1074.21040	0.56696
1072.28184	0.56230
1070.35327	0.55617
1068.42471	0.54958
1066.49614	0.54290
1064.56758	0.53642
1062.63901	0.53048
1060.71045	0.52512
1058.78188	0.52032
1056.85332	0.51610
1054.92476	0.51245
1052.99619	0.50919
1051.06763	0.50625
1049.13906	0.50373
1047.21050	0.50144
1045.28193	0.49915
1043.35337	0.49698
1041.42480	0.49515
1039.49624	0.49371
1037.56768	0.49260
1035.63911	0.49182
1033.71055	0.49155
1031.78198	0.49166
1029.85342	0.49166
1027.92485	0.49156
1025.99629	0.49159
1024.06772	0.49177
1022.13916	0.49215
1020.21060	0.49285
1018.28203	0.49382
1016.35347	0.49478
1014.42490	0.49558
1012.49634	0.49640
1010.56777	0.49743
1008.63921	0.49869
1006.71064	0.50035
1004.78208	0.50244
1002.85352	0.50495
1000.92495	0.50778
998.99639	0.51090
997.06782	0.51445
995.13926	0.51841
993.21069	0.52245
991.28213	0.52615
989.35356	0.52908
987.42500	0.53099
985.49644	0.53188
983.56787	0.53226
981.63931	0.53289
979.71074	0.53404
977.78218	0.53564
975.85361	0.53780
973.92505	0.54045
971.99648	0.54350
970.06792	0.54699
968.13936	0.55083
966.21079	0.55490
964.28223	0.55931
962.35366	0.56416
960.42510	0.56927
958.49653	0.57460
956.56797	0.58026
954.63940	0.58621
952.71084	0.59242
950.78228	0.59891
948.85371	0.60560
946.92515	0.61234
944.99658	0.61890
943.06802	0.62526
941.13945	0.63163
939.21089	0.63781
937.28232	0.64336
935.35376	0.64863
933.42520	0.65422
931.49663	0.66001
929.56807	0.66572
927.63950	0.67148
925.71094	0.67752
923.78237	0.68373
921.85381	0.68965
919.92524	0.69558
917.99668	0.70270
916.06812	0.71098
914.13955	0.71933
912.21099	0.72710
910.28242	0.73437
908.35386	0.74196
906.42529	0.75046
904.49673	0.75977
902.56816	0.76974
900.63960	0.77963
898.71104	0.78898
896.78247	0.79834
894.85391	0.80798
892.92534	0.81827
890.99678	0.82944
889.06821	0.84014
887.13965	0.84976
885.21108	0.85995
883.28252	0.87117
881.35396	0.88269
879.42539	0.89491
877.49683	0.90798
875.56826	0.92117
873.63970	0.93309
871.71113	0.94354
869.78257	0.95464
867.85400	0.96595
865.92544	0.97573
863.99687	0.98615
862.06831	0.99841
860.13975	1.01135
858.21118	1.02472
856.28262	1.03753
854.35405	1.05017
852.42549	1.06332
850.49692	1.07600
848.56836	1.08782
846.63979	1.09808
844.71123	1.10854
842.78267	1.12182
840.85410	1.13545
838.92554	1.14627
836.99697	1.15690
835.06841	1.17066
833.13984	1.18493
831.21128	1.19463
829.28271	1.20100
827.35415	1.21095
825.42559	1.22743
823.49702	1.24522
821.56846	1.25656
819.63989	1.26006
817.71133	1.25998
815.78276	1.26814
813.85420	1.29156
811.92563	1.31348
809.99707	1.31996
808.06851	1.32791
806.13994	1.35314
804.21138	1.39043
802.28281	1.42790
800.35425	1.44680
798.42568	1.45462
796.49712	1.46925
794.56855	1.45520
792.63999	1.41633
790.71143	1.41963
788.78286	1.46218
786.85430	1.46912
784.92573	1.46211
782.99717	1.48500
781.06860	1.50820
779.14004	1.57577
777.21147	1.68894
775.28291	1.64573
773.35435	1.55015
771.42578	1.55669
769.49722	1.57714
767.56865	1.53260
765.64009	1.46261
763.71152	1.41769
761.78296	1.37280
759.85439	1.34197
757.92583	1.36998
755.99727	1.40183
754.06870	1.41373
752.14014	1.38940
750.21157	1.28353
748.28301	1.16378
746.35444	1.15032
744.42588	1.30210
742.49731	1.57923
740.56875	1.80061
738.64019	4.43184
736.71162	4.42027
734.78306	4.40870
732.85449	1.22325
730.92593	0.73790
728.99736	0.54608
727.06880	0.49591
725.14023	0.53311
723.21167	0.57228
721.28311	0.56964
719.35454	0.56067
717.42598	0.52441
715.49741	0.40632
713.56885	0.33719
711.64028	0.43882
709.71172	0.55727
707.78315	0.39992
705.85459	0.13047
703.92603	0.28293
701.99746	0.45254
700.06890	0.39062
698.14033	0.42605
696.21177	0.58698
694.28320	0.60559
692.35464	0.40965
690.42607	0.25125
688.49751	0.24557
686.56895	0.33514
684.64038	0.38080
682.71182	0.42019
680.78325	0.56337
678.85469	0.60849
676.92612	0.50113
674.99756	0.48370
673.06899	0.40978
671.14043	0.31429
669.21187	0.30391
667.28330	0.30345
665.35474	0.25237
663.42617	0.21118
661.49761	0.21955
659.56904	0.22186
657.64048	0.19660
655.71191	0.19036
653.78335	0.21837
651.85479	0.25824
649.92622	0.26123
647.99766	0.24105
646.06909	0.20010
644.14053	0.19218
642.21196	0.29210
640.28340	0.43675
638.35483	0.44180
636.42627	0.40113
634.49771	0.39863
632.56914	0.32963
630.64058	0.30158
628.71201	0.33405
626.78345	0.31947
624.85488	0.24443
622.92632	0.18935
620.99775	0.19489
619.06919	0.22550
617.14062	0.26500
615.21206	0.35204
613.28350	0.43573
611.35493	0.43112
609.42637	0.36547
607.49780	0.30877
605.56924	0.28183
603.64067	0.26095
601.71211	0.22239
599.78354	0.22466
597.85498	0.30017
595.92642	0.30159
593.99785	0.20774
592.06929	0.21443
590.14072	0.37160
588.21216	0.53733
586.28359	0.44356
584.35503	0.28763
582.42646	0.21683
580.49790	0.23499
578.56934	0.27935
576.64077	0.34321
574.71221	0.51398
572.78364	0.63330
570.85508	0.42869
568.92651	0.31752
566.99795	0.33430
565.06938	0.35382
563.14082	0.27385
561.21226	0.23761
559.28369	0.29295
557.35513	0.34803
555.42656	0.32188
553.49800	0.29452
551.56943	0.29545
549.64087	0.30754
547.71230	0.33247
545.78374	0.35069
543.85518	0.35548
541.92661	0.39805
539.99805	0.58966
538.06948	3.22842
536.14092	0.99782
534.21235	0.67012
532.28379	0.56718
530.35522	0.43956
528.42666	0.29913
526.49810	0.21757
524.56953	0.20376
522.64097	0.23574
520.71240	0.30482
518.78384	0.35672
516.85527	0.37419
514.92671	0.37794
512.99814	0.35510
511.06958	0.32003
509.14102	0.27319
507.21245	0.22602
505.28389	0.20467
503.35532	0.20837
501.42676	0.21420
499.49819	0.20211
