3997.91411	0.05124
3995.98555	0.05136
3994.05698	0.05169
3992.12842	0.05229
3990.19985	0.05272
3988.27129	0.05271
3986.34272	0.05262
3984.41416	0.05284
3982.48560	0.05349
3980.55703	0.05427
3978.62847	0.05467
3976.69990	0.05491
3974.77134	0.05553
3972.84277	0.05612
3970.91421	0.05592
3968.98564	0.05545
3967.05708	0.05535
3965.12852	0.05535
3963.19995	0.05570
3961.27139	0.05663
3959.34282	0.05724
3957.41426	0.05705
3955.48569	0.05662
3953.55713	0.05644
3951.62856	0.05689
3949.70000	0.05772
3947.77144	0.05791
3945.84287	0.05725
3943.91431	0.05686
3941.98574	0.05720
3940.05718	0.05725
3938.12861	0.05674
3936.20005	0.05640
3934.27148	0.05684
3932.34292	0.05815
3930.41436	0.05908
3928.48579	0.05868
3926.55723	0.05810
3924.62866	0.05830
3922.70010	0.05835
3920.77153	0.05796
3918.84297	0.05808
3916.91440	0.05843
3914.98584	0.05791
3913.05728	0.05686
3911.12871	0.05630
3909.20015	0.05632
3907.27158	0.05679
3905.34302	0.05815
3903.41445	0.06034
3901.48589	0.06158
3899.55732	0.06134
3897.62876	0.06050
3895.70020	0.05922
3893.77163	0.05846
3891.84307	0.05894
3889.91450	0.05958
3887.98594	0.05919
3886.05737	0.05894
3884.12881	0.05960
3882.20024	0.06046
3880.27168	0.06101
3878.34312	0.06028
3876.41455	0.05909
3874.48599	0.05947
3872.55742	0.06092
3870.62886	0.06227
3868.70029	0.06329
3866.77173	0.06328
3864.84316	0.06321
3862.91460	0.06369
3860.98604	0.06348
3859.05747	0.06280
3857.12891	0.06268
3855.20034	0.06369
3853.27178	0.06689
3851.34321	0.06979
3849.41465	0.06799
3847.48608	0.06555
3845.55752	0.06511
3843.62896	0.06645
3841.70039	0.06845
3839.77183	0.07058
3837.84326	0.07266
3835.91470	0.07326
3833.98613	0.07224
3832.05757	0.07147
3830.12900	0.07151
3828.20044	0.07174
3826.27187	0.07239
3824.34331	0.07342
3822.41475	0.07468
3820.48618	0.07703
3818.55762	0.07841
3816.62905	0.07825
3814.70049	0.07872
3812.77192	0.07884
3810.84336	0.07846
3808.91479	0.07903
3806.98623	0.08109
3805.05767	0.08345
3803.12910	0.08532
3801.20054	0.08762
3799.27197	0.08901
3797.34341	0.08884
3795.41484	0.08896
3793.48628	0.08923
3791.55771	0.08953
3789.62915	0.09033
3787.70059	0.09150
3785.77202	0.09315
3783.84346	0.09509
3781.91489	0.09671
3779.98633	0.09852
3778.05776	0.10070
3776.12920	0.10193
3774.20063	0.10259
3772.27207	0.10413
3770.34351	0.10715
3768.41494	0.11076
3766.48638	0.11334
3764.55781	0.11517
3762.62925	0.11671
3760.70068	0.11880
3758.77212	0.12224
3756.84355	0.12565
3754.91499	0.12786
3752.98643	0.13026
3751.05786	0.13458
3749.12930	0.13974
3747.20073	0.14233
3745.27217	0.14451
3743.34360	0.14883
3741.41504	0.15256
3739.48647	0.15513
3737.55791	0.15942
3735.62935	0.16691
3733.70078	0.17501
3731.77222	0.17976
3729.84365	0.18296
3727.91509	0.18693
3725.98652	0.19271
3724.05796	0.19935
3722.12939	0.20510
3720.20083	0.21053
3718.27227	0.21631
3716.34370	0.22238
3714.41514	0.22919
3712.48657	0.23935
3710.55801	0.25522
3708.62944	0.27132
3706.70088	0.28302
3704.77231	0.29388
3702.84375	0.30713
3700.91519	0.32427
3698.98662	0.34289
3697.05806	0.36055
3695.12949	0.37910
3693.20093	0.39901
3691.27236	0.42118
3689.34380	0.44948
3687.41523	0.48341
3685.48667	0.51326
3683.55811	0.53910
3681.62954	0.56733
3679.70098	0.59992
3677.77241	0.63485
3675.84385	0.67633
3673.91528	0.72945
3671.98672	0.77170
3670.05815	0.81027
3668.12959	0.86364
3666.20103	0.91250
3664.27246	0.95323
3662.34390	0.99683
3660.41533	1.04457
3658.48677	1.09227
3656.55820	1.14269
3654.62964	1.19857
3652.70107	1.24638
3650.77251	1.28870
3648.84395	1.34570
3646.91538	1.41330
3644.98682	1.46277
3643.05825	1.50117
3641.12969	1.54119
3639.20112	1.58568
3637.27256	1.63076
3635.34399	1.67517
3633.41543	1.72014
3631.48687	1.76247
3629.55830	1.80553
3627.62974	1.86104
3625.70117	1.91193
3623.77261	1.94606
3621.84404	1.97847
3619.91548	2.01569
3617.98691	2.06013
3616.05835	2.10240
3614.12979	2.13867
3612.20122	2.17732
3610.27266	2.21660
3608.34409	2.25769
3606.41553	2.30191
3604.48696	2.34214
3602.55840	2.37787
3600.62983	2.41620
3598.70127	2.45690
3596.77271	2.49681
3594.84414	2.53817
3592.91558	2.58008
3590.98701	2.61815
3589.05845	2.65456
3587.12988	2.69992
3585.20132	2.74844
3583.27275	2.78790
3581.34419	2.82535
3579.41562	2.86596
3577.48706	2.90713
3575.55850	2.94859
3573.62993	2.99253
3571.70137	3.03507
3569.77280	3.07458
3567.84424	3.11639
3565.91567	3.16777
3563.98711	3.21896
3562.05854	3.26199
3560.12998	3.30366
3558.20142	3.34704
3556.27285	3.39183
3554.34429	3.43712
3552.41572	3.48517
3550.48716	3.53331
3548.55859	3.57953
3546.63003	3.62711
3544.70146	3.67586
3542.77290	3.72177
3540.84434	3.76485
3538.91577	3.80881
3536.98721	3.85549
3535.05864	3.90512
3533.13008	3.95356
3531.20151	4.00202
3529.27295	4.05263
3527.34438	4.10209
3525.41582	4.14757
3523.48726	4.19236
3521.55869	4.24307
3519.63013	4.29512
3517.70156	4.34313
3515.77300	4.39003
3513.84443	4.43772
3511.91587	4.48561
3509.98730	4.53668
3508.05874	4.59106
3506.13018	4.64131
3504.20161	4.68446
3502.27305	4.72490
3500.34448	4.76825
3498.41592	4.81670
3496.48735	4.86796
3494.55879	4.91830
3492.63022	4.96500
3490.70166	5.01032
3488.77310	5.06177
3486.84453	5.11954
3484.91597	5.17393
3482.98740	5.21717
3481.05884	5.25397
3479.13027	5.29874
3477.20171	5.35592
3475.27314	5.41221
3473.34458	5.46143
3471.41602	5.51016
3469.48745	5.55712
3467.55889	5.60410
3465.63032	5.65972
3463.70176	5.72287
3461.77319	5.77810
3459.84463	5.81780
3457.91606	5.85313
3455.98750	5.89838
3454.05894	5.95864
3452.13037	6.02553
3450.20181	6.08631
3448.27324	6.13104
3446.34468	6.16413
3444.41611	6.20515
3442.48755	6.25746
3440.55898	6.30242
3438.63042	6.34864
3436.70186	6.40006
3434.77329	6.44287
3432.84473	6.49399
3430.91616	6.55473
3428.98760	6.60858
3427.05903	6.66079
3425.13047	6.72054
3423.20190	6.76656
3421.27334	6.79344
3419.34478	6.83629
3417.41621	6.90158
3415.48765	6.95720
3413.55908	6.99054
3411.63052	7.01667
3409.70195	7.03927
3407.77339	7.08192
3405.84482	7.17131
3403.91626	7.26874
3401.98770	7.28743
3400.05913	7.26339
3398.13057	7.29004
3396.20200	7.33854
3394.27344	7.37121
3392.34487	7.41583
3390.41631	7.49369
3388.48774	7.57995
3386.55918	7.67041
3384.63062	7.75073
3382.70205	7.75938
3380.77349	7.69482
3378.84492	7.67082
3376.91636	7.76114
3374.98779	7.84581
3373.05923	7.82514
3371.13066	7.77165
3369.20210	7.77702
3367.27354	7.84015
3365.34497	7.89006
3363.41641	7.89929
3361.48784	7.91816
3359.55928	7.99244
3357.63071	8.08764
3355.70215	8.12627
3353.77358	8.07359
3351.84502	8.00596
3349.91646	7.98742
3347.98789	8.02623
3346.05933	8.06544
3344.13076	8.05047
3342.20220	8.05012
3340.27363	8.12597
3338.34507	8.20321
3336.41650	8.16729
3334.48794	8.12746
3332.55937	8.15950
3330.63081	8.18283
3328.70225	8.20752
3326.77368	8.25786
3324.84512	8.23043
3322.91655	8.11548
3320.98799	8.03632
3319.05942	8.02266
3317.13086	8.09475
3315.20229	8.20920
3313.27373	8.25142
3311.34517	8.23617
3309.41660	8.23292
3307.48804	8.22686
3305.55947	8.18728
3303.63091	8.16777
3301.70234	8.20967
3299.77378	8.26759
3297.84521	8.26525
3295.91665	8.24428
3293.98809	8.25961
3292.05952	8.28060
3290.13096	8.30044
3288.20239	8.35007
3286.27383	8.36422
3284.34526	8.25006
3282.41670	8.17572
3280.48813	8.28720
3278.55957	8.43548
3276.63101	8.40477
3274.70244	8.29236
3272.77388	8.20505
3270.84531	8.14650
3268.91675	8.17649
3266.98818	8.25871
3265.05962	8.30376
3263.13105	8.30012
3261.20249	8.27016
3259.27393	8.25774
3257.34536	8.28151
3255.41680	8.26861
3253.48823	8.22989
3251.55967	8.23236
3249.63110	8.22211
3247.70254	8.22211
3245.77397	8.28694
3243.84541	8.31065
3241.91685	8.25546
3239.98828	8.24087
3238.05972	8.24890
3236.13115	8.22673
3234.20259	8.24618
3232.27402	8.27357
3230.34546	8.23795
3228.41689	8.22138
3226.48833	8.23323
3224.55977	8.20230
3222.63120	8.16797
3220.70264	8.16306
3218.77407	8.15988
3216.84551	8.13023
3214.91694	8.10516
3212.98838	8.08726
3211.05981	8.00954
3209.13125	7.91790
3207.20269	7.88147
3205.27412	7.88375
3203.34556	7.88874
3201.41699	7.87735
3199.48843	7.84178
3197.55986	7.79658
3195.63130	7.76662
3193.70273	7.73479
3191.77417	7.67482
3189.84561	7.61599
3187.91704	7.59751
3185.98848	7.58833
3184.05991	7.51790
3182.13135	7.40672
3180.20278	7.34609
3178.27422	7.32823
3176.34565	7.27693
3174.41709	7.20482
3172.48853	7.16724
3170.55996	7.15131
3168.63140	7.11032
3166.70283	7.03702
3164.77427	6.95609
3162.84570	6.88880
3160.91714	6.83415
3158.98857	6.77198
3157.06001	6.69368
3155.13145	6.61978
3153.20288	6.55329
3151.27432	6.47465
3149.34575	6.39329
3147.41719	6.32859
3145.48862	6.27129
3143.56006	6.20321
3141.63149	6.12834
3139.70293	6.05088
3137.77437	5.97139
3135.84580	5.90542
3133.91724	5.85439
3131.98867	5.79058
3130.06011	5.70627
3128.13154	5.62902
3126.20298	5.56539
3124.27441	5.49936
3122.34585	5.42675
3120.41729	5.35267
3118.48872	5.28077
3116.56016	5.21135
3114.63159	5.14191
3112.70303	5.07201
3110.77446	5.00228
3108.84590	4.93128
3106.91733	4.86195
3104.98877	4.79495
3103.06021	4.72628
3101.13164	4.65554
3099.20308	4.58402
3097.27451	4.51494
3095.34595	4.44862
3093.41738	4.38130
3091.48882	4.31345
3089.56025	4.24702
3087.63169	4.18086
3085.70312	4.11464
3083.77456	4.05128
3081.84600	3.99113
3079.91743	3.92935
3077.98887	3.86405
3076.06030	3.79926
3074.13174	3.73792
3072.20317	3.67850
3070.27461	3.61901
3068.34604	3.55872
3066.41748	3.49784
3064.48892	3.43837
3062.56035	3.38166
3060.63179	3.32675
3058.70322	3.27127
3056.77466	3.21478
3054.84609	3.16005
3052.91753	3.10769
3050.98896	3.05587
3049.06040	3.00468
3047.13184	2.95490
3045.20327	2.90543
3043.27471	2.85585
3041.34614	2.80607
3039.41758	2.75577
3037.48901	2.70690
3035.56045	2.66032
3033.63188	2.61428
3031.70332	2.56828
3029.77476	2.52344
3027.84619	2.47986
3025.91763	2.43658
3023.98906	2.39386
3022.06050	2.35196
3020.13193	2.30965
3018.20337	2.26756
3016.27480	2.22710
3014.34624	2.18743
3012.41768	2.14783
3010.48911	2.10889
3008.56055	2.07134
3006.63198	2.03485
3004.70342	1.99804
3002.77485	1.96114
3000.84629	1.92536
2998.91772	1.89031
2996.98916	1.85540
2995.06060	1.82118
2993.13203	1.78790
2991.20347	1.75536
2989.27490	1.72350
2987.34634	1.69176
2985.41777	1.66012
2983.48921	1.62927
2981.56064	1.59915
2979.63208	1.56914
2977.70352	1.53914
2975.77495	1.50987
2973.84639	1.48131
2971.91782	1.45268
2969.98926	1.42428
2968.06069	1.39675
2966.13213	1.36997
2964.20356	1.34358
2962.27500	1.31755
2960.34644	1.29221
2958.41787	1.26749
2956.48931	1.24319
2954.56074	1.21935
2952.63218	1.19585
2950.70361	1.17276
2948.77505	1.15031
2946.84648	1.12824
2944.91792	1.10616
2942.98936	1.08424
2941.06079	1.06290
2939.13223	1.04206
2937.20366	1.02139
2935.27510	1.00116
2933.34653	0.98171
2931.41797	0.96278
2929.48940	0.94407
2927.56084	0.92552
2925.63228	0.90714
2923.70371	0.88955
2921.77515	0.87284
2919.84658	0.85637
2917.91802	0.84020
2915.98945	0.82450
2914.06089	0.80923
2912.13232	0.79463
2910.20376	0.78042
2908.27520	0.76645
2906.34663	0.75312
2904.41807	0.74025
2902.48950	0.72755
2900.56094	0.71513
2898.63237	0.70292
2896.70381	0.69073
2894.77524	0.67866
2892.84668	0.66685
2890.91812	0.65532
2888.98955	0.64406
2887.06099	0.63297
2885.13242	0.62185
2883.20386	0.61070
2881.27529	0.59986
2879.34673	0.58924
2877.41816	0.57846
2875.48960	0.56783
2873.56104	0.55787
2871.63247	0.54807
2869.70391	0.53803
2867.77534	0.52814
2865.84678	0.51846
2863.91821	0.50879
2861.98965	0.49927
2860.06108	0.49000
2858.13252	0.48103
2856.20396	0.47237
2854.27539	0.46389
2852.34683	0.45553
2850.41826	0.44746
2848.48970	0.43992
2846.56113	0.43294
2844.63257	0.42641
2842.70400	0.42040
2840.77544	0.41493
2838.84687	0.40967
2836.91831	0.40439
2834.98975	0.39904
2833.06118	0.39348
2831.13262	0.38770
2829.20405	0.38201
2827.27549	0.37660
2825.34692	0.37119
2823.41836	0.36556
2821.48979	0.35977
2819.56123	0.35408
2817.63267	0.34868
2815.70410	0.34349
2813.77554	0.33825
2811.84697	0.33289
2809.91841	0.32759
2807.98984	0.32260
2806.06128	0.31785
2804.13271	0.31311
2802.20415	0.30835
2800.27559	0.30371
2798.34702	0.29928
2796.41846	0.29496
2794.48989	0.29066
2792.56133	0.28640
2790.63276	0.28223
2788.70420	0.27810
2786.77563	0.27396
2784.84707	0.26994
2782.91851	0.26604
2780.98994	0.26224
2779.06138	0.25858
2777.13281	0.25506
2775.20425	0.25157
2773.27568	0.24805
2771.34712	0.24473
2769.41855	0.24168
2767.48999	0.23857
2765.56143	0.23535
2763.63286	0.23227
2761.70430	0.22925
2759.77573	0.22625
2757.84717	0.22337
2755.91860	0.22064
2753.99004	0.21789
2752.06147	0.21503
2750.13291	0.21210
2748.20435	0.20936
2746.27578	0.20690
2744.34722	0.20455
2742.41865	0.20216
2740.49009	0.19974
2738.56152	0.19733
2736.63296	0.19495
2734.70439	0.19261
2732.77583	0.19043
2730.84727	0.18836
2728.91870	0.18627
2726.99014	0.18426
2725.06157	0.18239
2723.13301	0.18053
2721.20444	0.17864
2719.27588	0.17681
2717.34731	0.17497
2715.41875	0.17307
2713.49019	0.17137
2711.56162	0.16990
2709.63306	0.16833
2707.70449	0.16666
2705.77593	0.16517
2703.84736	0.16385
2701.91880	0.16249
2699.99023	0.16110
2698.06167	0.15974
2696.13311	0.15838
2694.20454	0.15702
2692.27598	0.15565
2690.34741	0.15425
2688.41885	0.15304
2686.49028	0.15209
2684.56172	0.15112
2682.63315	0.15005
2680.70459	0.14898
2678.77603	0.14795
2676.84746	0.14698
2674.91890	0.14598
2672.99033	0.14499
2671.06177	0.14415
2669.13320	0.14341
2667.20464	0.14265
2665.27607	0.14188
2663.34751	0.14109
2661.41895	0.14030
2659.49038	0.13956
2657.56182	0.13894
2655.63325	0.13840
2653.70469	0.13779
2651.77612	0.13723
2649.84756	0.13687
2647.91899	0.13656
2645.99043	0.13607
2644.06187	0.13541
2642.13330	0.13485
2640.20474	0.13446
2638.27617	0.13408
2636.34761	0.13368
2634.41904	0.13338
2632.49048	0.13318
2630.56191	0.13296
2628.63335	0.13269
2626.70479	0.13248
2624.77622	0.13238
2622.84766	0.13228
2620.91909	0.13209
2618.99053	0.13189
2617.06196	0.13176
2615.13340	0.13168
2613.20483	0.13166
2611.27627	0.13173
2609.34771	0.13183
2607.41914	0.13187
2605.49058	0.13193
2603.56201	0.13207
2601.63345	0.13224
2599.70488	0.13245
2597.77632	0.13269
2595.84775	0.13278
2593.91919	0.13274
2591.99062	0.13280
2590.06206	0.13307
2588.13350	0.13346
2586.20493	0.13383
2584.27637	0.13419
2582.34780	0.13466
2580.41924	0.13516
2578.49067	0.13553
2576.56211	0.13580
2574.63354	0.13615
2572.70498	0.13666
2570.77642	0.13723
2568.84785	0.13772
2566.91929	0.13819
2564.99072	0.13863
2563.06216	0.13902
2561.13359	0.13951
2559.20503	0.14012
2557.27646	0.14081
2555.34790	0.14143
2553.41934	0.14196
2551.49077	0.14259
2549.56221	0.14338
2547.63364	0.14414
2545.70508	0.14472
2543.77651	0.14522
2541.84795	0.14593
2539.91938	0.14689
2537.99082	0.14774
2536.06226	0.14840
2534.13369	0.14896
2532.20513	0.14950
2530.27656	0.15023
2528.34800	0.15114
2526.41943	0.15200
2524.49087	0.15289
2522.56230	0.15384
2520.63374	0.15477
2518.70518	0.15574
2516.77661	0.15669
2514.84805	0.15751
2512.91948	0.15827
2510.99092	0.15917
2509.06235	0.16015
2507.13379	0.16106
2505.20522	0.16183
2503.27666	0.16264
2501.34810	0.16355
2499.41953	0.16451
2497.49097	0.16563
2495.56240	0.16680
2493.63384	0.16772
2491.70527	0.16848
2489.77671	0.16933
2487.84814	0.17036
2485.91958	0.17142
2483.99102	0.17235
2482.06245	0.17326
2480.13389	0.17425
2478.20532	0.17527
2476.27676	0.17627
2474.34819	0.17727
2472.41963	0.17826
2470.49106	0.17924
2468.56250	0.18031
2466.63394	0.18135
2464.70537	0.18224
2462.77681	0.18312
2460.84824	0.18419
2458.91968	0.18533
2456.99111	0.18642
2455.06255	0.18748
2453.13398	0.18860
2451.20542	0.18973
2449.27686	0.19086
2447.34829	0.19200
2445.41973	0.19300
2443.49116	0.19390
2441.56260	0.19489
2439.63403	0.19602
2437.70547	0.19722
2435.77690	0.19840
2433.84834	0.19952
2431.91978	0.20065
2429.99121	0.20181
2428.06265	0.20297
2426.13408	0.20415
2424.20552	0.20529
2422.27695	0.20640
2420.34839	0.20757
2418.41982	0.20880
2416.49126	0.21004
2414.56270	0.21132
2412.63413	0.21267
2410.70557	0.21397
2408.77700	0.21508
2406.84844	0.21607
2404.91987	0.21717
2402.99131	0.21843
2401.06274	0.21973
2399.13418	0.22103
2397.20562	0.22232
2395.27705	0.22354
2393.34849	0.22477
2391.41992	0.22616
2389.49136	0.22780
2387.56279	0.22991
2385.63423	0.23276
2383.70566	0.23663
2381.77710	0.24173
2379.84854	0.24805
2377.91997	0.25526
2375.99141	0.26331
2374.06284	0.27261
2372.13428	0.28318
2370.20571	0.29444
2368.27715	0.30568
2366.34858	0.31651
2364.42002	0.32659
2362.49146	0.33488
2360.56289	0.33985
2358.63433	0.34093
2356.70576	0.33782
2354.77720	0.33062
2352.84863	0.32131
2350.92007	0.31166
2348.99150	0.30536
2347.06294	0.30581
2345.13437	0.31399
2343.20581	0.32533
2341.27725	0.33137
2339.34868	0.33227
2337.42012	0.33228
2335.49155	0.33249
2333.56299	0.33225
2331.63442	0.33212
2329.70586	0.33209
2327.77729	0.33119
2325.84873	0.32929
2323.92017	0.32737
2321.99160	0.32579
2320.06304	0.32356
2318.13447	0.32048
2316.20591	0.31784
2314.27734	0.31670
2312.34878	0.31674
2310.42021	0.31672
2308.49165	0.31598
2306.56309	0.31483
2304.63452	0.31402
2302.70596	0.31401
2300.77739	0.31450
2298.84883	0.31502
2296.92026	0.31559
2294.99170	0.31635
2293.06313	0.31730
2291.13457	0.31834
2289.20601	0.31922
2287.27744	0.31996
2285.34888	0.32089
2283.42031	0.32221
2281.49175	0.32396
2279.56318	0.32616
2277.63462	0.32860
2275.70605	0.33105
2273.77749	0.33336
2271.84893	0.33552
2269.92036	0.33764
2267.99180	0.33977
2266.06323	0.34188
2264.13467	0.34392
2262.20610	0.34584
2260.27754	0.34770
2258.34897	0.34968
2256.42041	0.35179
2254.49185	0.35392
2252.56328	0.35603
2250.63472	0.35809
2248.70615	0.36011
2246.77759	0.36212
2244.84902	0.36419
2242.92046	0.36632
2240.99189	0.36854
2239.06333	0.37082
2237.13477	0.37311
2235.20620	0.37538
2233.27764	0.37772
2231.34907	0.38005
2229.42051	0.38222
2227.49194	0.38441
2225.56338	0.38679
2223.63481	0.38914
2221.70625	0.39128
2219.77769	0.39342
2217.84912	0.39568
2215.92056	0.39792
2213.99199	0.40010
2212.06343	0.40230
2210.13486	0.40453
2208.20630	0.40669
2206.27773	0.40875
2204.34917	0.41091
2202.42061	0.41320
2200.49204	0.41539
2198.56348	0.41745
2196.63491	0.41945
2194.70635	0.42134
2192.77778	0.42319
2190.84922	0.42512
2188.92065	0.42706
2186.99209	0.42901
2185.06353	0.43097
2183.13496	0.43289
2181.20640	0.43476
2179.27783	0.43653
2177.34927	0.43822
2175.42070	0.43980
2173.49214	0.44118
2171.56357	0.44253
2169.63501	0.44403
2167.70645	0.44556
2165.77788	0.44700
2163.84932	0.44832
2161.92075	0.44946
2159.99219	0.45046
2158.06362	0.45147
2156.13506	0.45248
2154.20649	0.45344
2152.27793	0.45441
2150.34937	0.45531
2148.42080	0.45595
2146.49224	0.45646
2144.56367	0.45703
2142.63511	0.45759
2140.70654	0.45799
2138.77798	0.45820
2136.84941	0.45828
2134.92085	0.45847
2132.99229	0.45876
2131.06372	0.45885
2129.13516	0.45865
2127.20659	0.45831
2125.27803	0.45798
2123.34946	0.45770
2121.42090	0.45731
2119.49233	0.45672
2117.56377	0.45610
2115.63521	0.45540
2113.70664	0.45455
2111.77808	0.45369
2109.84951	0.45286
2107.92095	0.45197
2105.99238	0.45096
2104.06382	0.44979
2102.13525	0.44842
2100.20669	0.44698
2098.27812	0.44559
2096.34956	0.44415
2094.42100	0.44256
2092.49243	0.44092
2090.56387	0.43934
2088.63530	0.43771
2086.70674	0.43599
2084.77817	0.43417
2082.84961	0.43223
2080.92104	0.43023
2078.99248	0.42824
2077.06392	0.42616
2075.13535	0.42400
2073.20679	0.42191
2071.27822	0.41979
2069.34966	0.41750
2067.42109	0.41513
2065.49253	0.41282
2063.56396	0.41046
2061.63540	0.40802
2059.70684	0.40555
2057.77827	0.40306
2055.84971	0.40055
2053.92114	0.39806
2051.99258	0.39554
2050.06401	0.39295
2048.13545	0.39025
2046.20688	0.38748
2044.27832	0.38478
2042.34976	0.38210
2040.42119	0.37934
2038.49263	0.37654
2036.56406	0.37376
2034.63550	0.37094
2032.70693	0.36806
2030.77837	0.36521
2028.84980	0.36241
2026.92124	0.35970
2024.99268	0.35705
2023.06411	0.35437
2021.13555	0.35164
2019.20698	0.34890
2017.27842	0.34618
2015.34985	0.34338
2013.42129	0.34049
2011.49272	0.33758
2009.56416	0.33472
2007.63560	0.33201
2005.70703	0.32939
2003.77847	0.32672
2001.84990	0.32398
1999.92134	0.32126
1997.99277	0.31863
1996.06421	0.31607
1994.13564	0.31360
1992.20708	0.31119
1990.27852	0.30863
1988.34995	0.30597
1986.42139	0.30335
1984.49282	0.30082
1982.56426	0.29837
1980.63569	0.29595
1978.70713	0.29359
1976.77856	0.29135
1974.85000	0.28920
1972.92144	0.28698
1970.99287	0.28477
1969.06431	0.28277
1967.13574	0.28083
1965.20718	0.27863
1963.27861	0.27637
1961.35005	0.27435
1959.42148	0.27248
1957.49292	0.27063
1955.56436	0.26880
1953.63579	0.26701
1951.70723	0.26521
1949.77866	0.26350
1947.85010	0.26194
1945.92153	0.26054
1943.99297	0.25929
1942.06440	0.25800
1940.13584	0.25634
1938.20728	0.25458
1936.27871	0.25304
1934.35015	0.25170
1932.42158	0.25046
1930.49302	0.24925
1928.56445	0.24811
1926.63589	0.24710
1924.70732	0.24629
1922.77876	0.24546
1920.85020	0.24447
1918.92163	0.24355
1916.99307	0.24261
1915.06450	0.24147
1913.13594	0.24050
1911.20737	0.23993
1909.27881	0.23940
1907.35024	0.23864
1905.42168	0.23776
1903.49312	0.23700
1901.56455	0.23644
1899.63599	0.23597
1897.70742	0.23558
1895.77886	0.23527
1893.85029	0.23495
1891.92173	0.23462
1889.99316	0.23451
1888.06460	0.23428
1886.13604	0.23379
1884.20747	0.23339
1882.27891	0.23310
1880.35034	0.23294
1878.42178	0.23289
1876.49321	0.23293
1874.56465	0.23300
1872.63608	0.23322
1870.70752	0.23377
1868.77896	0.23466
1866.85039	0.23495
1864.92183	0.23445
1862.99326	0.23412
1861.06470	0.23432
1859.13613	0.23483
1857.20757	0.23529
1855.27900	0.23568
1853.35044	0.23608
1851.42187	0.23665
1849.49331	0.23744
1847.56475	0.23844
1845.63618	0.23961
1843.70762	0.24076
1841.77905	0.24127
1839.85049	0.24135
1837.92192	0.24194
1835.99336	0.24291
1834.06479	0.24390
1832.13623	0.24507
1830.20767	0.24686
1828.27910	0.24858
1826.35054	0.24960
1824.42197	0.25078
1822.49341	0.25188
1820.56484	0.25290
1818.63628	0.25424
1816.70771	0.25589
1814.77915	0.25758
1812.85059	0.25952
1810.92202	0.26177
1808.99346	0.26383
1807.06489	0.26562
1805.13633	0.26748
1803.20776	0.26989
1801.27920	0.27281
1799.35063	0.27584
1797.42207	0.27837
1795.49351	0.28079
1793.56494	0.28384
1791.63638	0.28777
1789.70781	0.29109
1787.77925	0.29338
1785.85068	0.29639
1783.92212	0.30021
1781.99355	0.30441
1780.06499	0.30888
1778.13643	0.31328
1776.20786	0.31745
1774.27930	0.32217
1772.35073	0.32848
1770.42217	0.33481
1768.49360	0.33986
1766.56504	0.34483
1764.63647	0.35013
1762.70791	0.35626
1760.77935	0.36399
1758.85078	0.37118
1756.92222	0.37834
1754.99365	0.38609
1753.06509	0.39331
1751.13652	0.40214
1749.20796	0.41303
1747.27939	0.42334
1745.35083	0.43234
1743.42227	0.44188
1741.49370	0.45245
1739.56514	0.46500
1737.63657	0.47770
1735.70801	0.48912
1733.77944	0.50604
1731.85088	0.52557
1729.92231	0.54086
1727.99375	0.55664
1726.06519	0.57392
1724.13662	0.59287
1722.20806	0.61331
1720.27949	0.63254
1718.35093	0.65516
1716.42236	0.68746
1714.49380	0.71780
1712.56523	0.74256
1710.63667	0.76681
1708.70811	0.79301
1706.77954	0.82253
1704.85098	0.85702
1702.92241	0.88785
1700.99385	0.91864
1699.06528	0.96351
1697.13672	1.00395
1695.20815	1.04438
1693.27959	1.08402
1691.35103	1.11622
1689.42246	1.15305
1687.49390	1.19157
1685.56533	1.22857
1683.63677	1.28385
1681.70820	1.34103
1679.77964	1.37833
1677.85107	1.41358
1675.92251	1.45398
1673.99395	1.50338
1672.06538	1.54765
1670.13682	1.59073
1668.20825	1.64408
1666.27969	1.68672
1664.35112	1.72284
1662.42256	1.76671
1660.49399	1.81499
1658.56543	1.85253
1656.63687	1.88352
1654.70830	1.91477
1652.77974	1.96706
1650.85117	2.01880
1648.92261	2.04259
1646.99404	2.07343
1645.06548	2.10642
1643.13691	2.12796
1641.20835	2.14279
1639.27979	2.15718
1637.35122	2.16846
1635.42266	2.17363
1633.49409	2.16999
1631.56553	2.15965
1629.63696	2.14691
1627.70840	2.12517
1625.77983	2.09831
1623.85127	2.06321
1621.92271	2.02052
1619.99414	1.98161
1618.06558	1.94165
1616.13701	1.88460
1614.20845	1.82632
1612.27988	1.78132
1610.35132	1.73399
1608.42275	1.68219
1606.49419	1.63015
1604.56562	1.58117
1602.63706	1.53382
1600.70850	1.48743
1598.77993	1.44376
1596.85137	1.40224
1594.92280	1.36247
1592.99424	1.32427
1591.06567	1.28861
1589.13711	1.25448
1587.20854	1.22218
1585.27998	1.19195
1583.35142	1.16329
1581.42285	1.13663
1579.49429	1.11345
1577.56572	1.09246
1575.63716	1.06636
1573.70859	1.04184
1571.78003	1.02499
1569.85146	1.00723
1567.92290	0.98656
1565.99434	0.96921
1564.06577	0.95435
1562.13721	0.94212
1560.20864	0.93179
1558.28008	0.91344
1556.35151	0.89511
1554.42295	0.88338
1552.49438	0.87202
1550.56582	0.86104
1548.63726	0.85020
1546.70869	0.84075
1544.78013	0.83263
1542.85156	0.82476
1540.92300	0.81592
1538.99443	0.80365
1537.06587	0.79387
1535.13730	0.78759
1533.20874	0.78070
1531.28018	0.77288
1529.35161	0.76656
1527.42305	0.76084
1525.49448	0.75491
1523.56592	0.74940
1521.63735	0.74371
1519.70879	0.73727
1517.78022	0.73178
1515.85166	0.72638
1513.92310	0.72090
1511.99453	0.71643
1510.06597	0.71311
1508.13740	0.71070
1506.20884	0.70606
1504.28027	0.69975
1502.35171	0.69563
1500.42314	0.69270
1498.49458	0.68992
1496.56602	0.68645
1494.63745	0.68272
1492.70889	0.67977
1490.78032	0.67757
1488.85176	0.67503
1486.92319	0.67161
1484.99463	0.66805
1483.06606	0.66496
1481.13750	0.66216
1479.20894	0.65942
1477.28037	0.65702
1475.35181	0.65493
1473.42324	0.65245
1471.49468	0.64851
1469.56611	0.64432
1467.63755	0.64121
1465.70898	0.63866
1463.78042	0.63597
1461.85186	0.63374
1459.92329	0.63243
1457.99473	0.63128
1456.06616	0.62871
1454.13760	0.62541
1452.20903	0.62295
1450.28047	0.62110
1448.35190	0.61950
1446.42334	0.61767
1444.49478	0.61582
1442.56621	0.61436
1440.63765	0.61325
1438.70908	0.61247
1436.78052	0.61178
1434.85195	0.61049
1432.92339	0.60878
1430.99482	0.60728
1429.06626	0.60589
1427.13770	0.60438
1425.20913	0.60293
1423.28057	0.60152
1421.35200	0.60011
1419.42344	0.59887
1417.49487	0.59740
1415.56631	0.59531
1413.63774	0.59331
1411.70918	0.59174
1409.78062	0.59032
1407.85205	0.58890
1405.92349	0.58766
1403.99492	0.58637
1402.06636	0.58486
1400.13779	0.58350
1398.20923	0.58234
1396.28066	0.58125
1394.35210	0.57996
1392.42354	0.57832
1390.49497	0.57681
1388.56641	0.57573
1386.63784	0.57468
1384.70928	0.57329
1382.78071	0.57194
1380.85215	0.57083
1378.92358	0.56994
1376.99502	0.56929
1375.06646	0.56875
1373.13789	0.56788
1371.20933	0.56668
1369.28076	0.56557
1367.35220	0.56457
1365.42363	0.56365
1363.49507	0.56304
1361.56650	0.56239
1359.63794	0.56131
1357.70937	0.56028
1355.78081	0.55946
1353.85225	0.55865
1351.92368	0.55772
1349.99512	0.55679
1348.06655	0.55587
1346.13799	0.55496
1344.20942	0.55412
1342.28086	0.55348
1340.35229	0.55304
1338.42373	0.55232
1336.49517	0.55111
1334.56660	0.54987
1332.63804	0.54893
1330.70947	0.54813
1328.78091	0.54725
1326.85234	0.54645
1324.92378	0.54574
1322.99521	0.54495
1321.06665	0.54400
1319.13809	0.54307
1317.20952	0.54223
1315.28096	0.54146
1313.35239	0.54065
1311.42383	0.53980
1309.49526	0.53902
1307.56670	0.53832
1305.63813	0.53763
1303.70957	0.53686
1301.78101	0.53599
1299.85244	0.53509
1297.92388	0.53427
1295.99531	0.53347
1294.06675	0.53268
1292.13818	0.53201
1290.20962	0.53144
1288.28105	0.53090
1286.35249	0.53043
1284.42393	0.53003
1282.49536	0.52958
1280.56680	0.52903
1278.63823	0.52846
1276.70967	0.52796
1274.78110	0.52761
1272.85254	0.52732
1270.92397	0.52694
1268.99541	0.52644
1267.06685	0.52598
1265.13828	0.52559
1263.20972	0.52530
1261.28115	0.52512
1259.35259	0.52482
1257.42402	0.52440
1255.49546	0.52414
1253.56689	0.52403
1251.63833	0.52387
1249.70977	0.52373
1247.78120	0.52368
1245.85264	0.52352
1243.92407	0.52316
1241.99551	0.52272
1240.06694	0.52235
1238.13838	0.52209
1236.20981	0.52181
1234.28125	0.52137
1232.35269	0.52078
1230.42412	0.52017
1228.49556	0.51967
1226.56699	0.51921
1224.63843	0.51864
1222.70986	0.51794
1220.78130	0.51729
1218.85273	0.51683
1216.92417	0.51643
1214.99561	0.51588
1213.06704	0.51517
1211.13848	0.51442
1209.20991	0.51371
1207.28135	0.51312
1205.35278	0.51264
1203.42422	0.51221
1201.49565	0.51180
1199.56709	0.51136
1197.63853	0.51084
1195.70996	0.51033
1193.78140	0.50996
1191.85283	0.50962
1189.92427	0.50924
1187.99570	0.50884
1186.06714	0.50852
1184.13857	0.50839
1182.21001	0.50838
1180.28145	0.50845
1178.35288	0.50864
1176.42432	0.50886
1174.49575	0.50901
1172.56719	0.50918
1170.63862	0.50947
1168.71006	0.50979
1166.78149	0.51000
1164.85293	0.51020
1162.92437	0.51034
1160.99580	0.51020
1159.06724	0.50979
1157.13867	0.50919
1155.21011	0.50840
1153.28154	0.50717
1151.35298	0.50550
1149.42441	0.50373
1147.49585	0.50179
1145.56729	0.49944
1143.63872	0.49687
1141.71016	0.49443
1139.78159	0.49217
1137.85303	0.48995
1135.92446	0.48784
1133.99590	0.48585
1132.06733	0.48385
1130.13877	0.48205
1128.21021	0.48055
1126.28164	0.47916
1124.35308	0.47776
1122.42451	0.47661
1120.49595	0.47592
1118.56738	0.47561
1116.63882	0.47544
1114.71025	0.47531
1112.78169	0.47541
1110.85312	0.47589
1108.92456	0.47659
1106.99600	0.47737
1105.06743	0.47843
1103.13887	0.47995
1101.21030	0.48189
1099.28174	0.48416
1097.35317	0.48670
1095.42461	0.48964
1093.49604	0.49322
1091.56748	0.49737
1089.63892	0.50201
1087.71035	0.50723
1085.78179	0.51310
1083.85322	0.51948
1081.92466	0.52585
1079.99609	0.53145
1078.06753	0.53544
1076.13896	0.53689
1074.21040	0.53546
1072.28184	0.53165
1070.35327	0.52600
1068.42471	0.51930
1066.49614	0.51259
1064.56758	0.50639
1062.63901	0.50083
1060.71045	0.49588
1058.78188	0.49145
1056.85332	0.48773
1054.92476	0.48466
1052.99619	0.48177
1051.06763	0.47896
1049.13906	0.47661
1047.21050	0.47491
1045.28193	0.47364
1043.35337	0.47253
1041.42480	0.47159
1039.49624	0.47089
1037.56768	0.47032
1035.63911	0.46997
1033.71055	0.47007
1031.78198	0.47047
1029.85342	0.47091
1027.92485	0.47123
1025.99629	0.47158
1024.06772	0.47210
1022.13916	0.47283
1020.21060	0.47372
1018.28203	0.47476
1016.35347	0.47602
1014.42490	0.47739
1012.49634	0.47869
1010.56777	0.48001
1008.63921	0.48159
1006.71064	0.48351
1004.78208	0.48574
1002.85352	0.48823
1000.92495	0.49097
998.99639	0.49415
997.06782	0.49780
995.13926	0.50159
993.21069	0.50528
991.28213	0.50861
989.35356	0.51121
987.42500	0.51291
985.49644	0.51403
983.56787	0.51518
981.63931	0.51655
979.71074	0.51812
977.78218	0.52017
975.85361	0.52280
973.92505	0.52581
971.99648	0.52915
970.06792	0.53277
968.13936	0.53670
966.21079	0.54102
964.28223	0.54557
962.35366	0.55022
960.42510	0.55519
958.49653	0.56063
956.56797	0.56647
954.63940	0.57255
952.71084	0.57887
950.78228	0.58545
948.85371	0.59220
946.92515	0.59875
944.99658	0.60471
943.06802	0.61047
941.13945	0.61671
939.21089	0.62310
937.28232	0.62886
935.35376	0.63424
933.42520	0.63990
931.49663	0.64548
929.56807	0.65079
927.63950	0.65652
925.71094	0.66302
923.78237	0.66991
921.85381	0.67639
919.92524	0.68216
917.99668	0.68800
916.06812	0.69504
914.13955	0.70308
912.21099	0.71092
910.28242	0.71836
908.35386	0.72617
906.42529	0.73490
904.49673	0.74452
902.56816	0.75469
900.63960	0.76486
898.71104	0.77410
896.78247	0.78248
894.85391	0.79172
892.92534	0.80222
890.99678	0.81244
889.06821	0.82270
887.13965	0.83427
885.21108	0.84657
883.28252	0.85878
881.35396	0.87039
879.42539	0.88077
877.49683	0.89127
875.56826	0.90350
873.63970	0.91593
871.71113	0.92688
869.78257	0.93718
867.85400	0.94834
865.92544	0.96043
863.99687	0.97195
862.06831	0.98299
860.13975	0.99505
858.21118	1.00790
856.28262	1.01994
854.35405	1.03104
852.42549	1.04195
850.49692	1.05270
848.56836	1.06346
846.63979	1.07469
844.71123	1.08649
842.78267	1.09894
840.85410	1.11144
838.92554	1.12206
836.99697	1.13126
835.06841	1.14195
833.13984	1.15397
831.21128	1.16373
829.28271	1.17109
827.35415	1.18040
825.42559	1.19306
823.49702	1.20840
821.56846	1.22346
819.63989	1.22977
817.71133	1.22608
815.78276	1.23113
813.85420	1.25474
811.92563	1.27493
809.99707	1.27887
808.06851	1.27803
806.13994	1.27845
804.21138	1.29055
802.28281	1.31459
800.35425	1.31908
798.42568	1.30249
796.49712	1.31626
794.56855	1.38217
792.63999	1.42949
790.71143	1.39257
788.78286	1.35193
786.85430	1.35883
784.92573	1.38684
782.99717	1.40096
781.06860	1.40816
779.14004	1.40511
777.21147	1.39047
775.28291	1.40101
773.35435	1.40768
771.42578	1.37284
769.49722	1.36473
767.56865	1.43717
765.64009	1.55781
763.71152	1.61669
761.78296	1.53334
759.85439	1.42709
757.92583	1.38123
755.99727	1.34596
754.06870	1.27057
752.14014	1.21568
750.21157	1.23176
748.28301	1.27342
746.35444	1.26030
744.42588	1.14497
742.49731	1.02538
740.56875	0.99070
738.64019	0.99533
736.71162	0.98018
734.78306	0.99790
732.85449	1.05334
730.92593	0.92911
728.99736	0.67709
727.06880	0.53147
725.14023	0.52496
723.21167	0.52372
721.28311	0.40555
719.35454	0.23012
717.42598	0.12031
715.49741	0.16430
713.56885	0.23919
711.64028	0.20860
709.71172	0.12176
707.78315	0.09198
705.85459	0.09889
703.92603	0.17319
701.99746	0.30389
700.06890	0.33156
698.14033	0.21279
696.21177	0.19237
694.28320	0.36985
692.35464	0.55779
690.42607	0.45762
688.49751	0.35555
686.56895	0.27975
684.64038	0.15470
682.71182	0.14622
680.78325	0.24627
678.85469	0.26520
676.92612	0.22662
674.99756	0.20531
673.06899	0.23923
671.14043	0.34449
669.21187	0.36598
667.28330	0.30077
665.35474	0.34322
663.42617	0.49061
661.49761	0.50664
659.56904	0.44555
657.64048	0.39791
655.71191	0.30612
653.78335	0.26350
651.85479	0.33138
649.92622	0.44111
647.99766	0.43776
646.06909	0.33733
644.14053	0.33012
642.21196	0.36236
640.28340	0.31631
638.35483	0.30836
636.42627	0.32261
634.49771	0.26034
632.56914	0.16716
630.64058	0.14326
628.71201	0.23963
626.78345	0.36714
624.85488	0.39218
622.92632	0.38923
620.99775	0.38975
619.06919	0.33244
617.14062	0.23315
615.21206	0.15368
613.28350	0.13198
611.35493	0.18257
609.42637	0.27339
607.49780	0.34100
605.56924	0.30066
603.64067	0.25092
601.71211	0.23985
599.78354	0.18844
597.85498	0.13342
595.92642	0.12211
593.99785	0.13503
592.06929	0.17612
590.14072	0.18731
588.21216	0.22213
586.28359	0.40862
584.35503	0.48743
582.42646	0.50136
580.49790	0.76192
578.56934	0.68610
576.64077	0.36840
574.71221	0.31433
572.78364	0.39857
570.85508	0.38217
568.92651	0.28015
566.99795	0.21966
565.06938	0.17732
563.14082	0.17114
561.21226	0.21849
559.28369	0.26204
557.35513	0.29271
555.42656	0.33130
553.49800	0.27273
551.56943	0.19714
549.64087	0.20523
547.71230	0.27065
545.78374	0.32658
543.85518	0.32719
541.92661	0.23519
539.99805	0.18453
538.06948	0.22584
536.14092	0.24072
534.21235	0.19219
532.28379	0.16901
530.35522	0.22955
528.42666	0.29215
526.49810	0.24891
524.56953	0.19823
522.64097	0.20686
520.71240	0.27860
518.78384	0.36579
516.85527	0.36755
514.92671	0.30829
512.99814	0.27387
511.06958	0.27893
509.14102	0.36961
507.21245	0.63839
505.28389	0.71729
503.35532	0.45719
501.42676	0.33207
499.49819	0.27487
