3997.91411	0.06731
3995.98555	0.06767
3994.05698	0.06772
3992.12842	0.06780
3990.19985	0.06795
3988.27129	0.06817
3986.34272	0.06843
3984.41416	0.06870
3982.48560	0.06895
3980.55703	0.06914
3978.62847	0.06928
3976.69990	0.06958
3974.77134	0.07000
3972.84277	0.07014
3970.91421	0.07015
3968.98564	0.07038
3967.05708	0.07053
3965.12852	0.07046
3963.19995	0.07065
3961.27139	0.07123
3959.34282	0.07154
3957.41426	0.07139
3955.48569	0.07112
3953.55713	0.07087
3951.62856	0.07098
3949.70000	0.07173
3947.77144	0.07260
3945.84287	0.07280
3943.91431	0.07247
3941.98574	0.07204
3940.05718	0.07144
3938.12861	0.07098
3936.20005	0.07096
3934.27148	0.07112
3932.34292	0.07130
3930.41436	0.07146
3928.48579	0.07147
3926.55723	0.07146
3924.62866	0.07162
3922.70010	0.07180
3920.77153	0.07191
3918.84297	0.07196
3916.91440	0.07208
3914.98584	0.07214
3913.05728	0.07160
3911.12871	0.07089
3909.20015	0.07070
3907.27158	0.07083
3905.34302	0.07108
3903.41445	0.07165
3901.48589	0.07191
3899.55732	0.07157
3897.62876	0.07128
3895.70020	0.07109
3893.77163	0.07100
3891.84307	0.07129
3889.91450	0.07142
3887.98594	0.07087
3886.05737	0.07076
3884.12881	0.07145
3882.20024	0.07198
3880.27168	0.07234
3878.34312	0.07237
3876.41455	0.07191
3874.48599	0.07185
3872.55742	0.07236
3870.62886	0.07300
3868.70029	0.07362
3866.77173	0.07389
3864.84316	0.07420
3862.91460	0.07460
3860.98604	0.07445
3859.05747	0.07416
3857.12891	0.07426
3855.20034	0.07488
3853.27178	0.07624
3851.34321	0.07755
3849.41465	0.07749
3847.48608	0.07709
3845.55752	0.07718
3843.62896	0.07798
3841.70039	0.07912
3839.77183	0.08014
3837.84326	0.08097
3835.91470	0.08135
3833.98613	0.08130
3832.05757	0.08124
3830.12900	0.08167
3828.20044	0.08263
3826.27187	0.08366
3824.34331	0.08440
3822.41475	0.08510
3820.48618	0.08659
3818.55762	0.08820
3816.62905	0.08905
3814.70049	0.08973
3812.77192	0.09010
3810.84336	0.09041
3808.91479	0.09125
3806.98623	0.09282
3805.05767	0.09454
3803.12910	0.09570
3801.20054	0.09675
3799.27197	0.09778
3797.34341	0.09854
3795.41484	0.09962
3793.48628	0.10096
3791.55771	0.10212
3789.62915	0.10311
3787.70059	0.10414
3785.77202	0.10542
3783.84346	0.10689
3781.91489	0.10844
3779.98633	0.11037
3778.05776	0.11256
3776.12920	0.11397
3774.20063	0.11492
3772.27207	0.11628
3770.34351	0.11827
3768.41494	0.12048
3766.48638	0.12232
3764.55781	0.12411
3762.62925	0.12581
3760.70068	0.12758
3758.77212	0.13032
3756.84355	0.13335
3754.91499	0.13530
3752.98643	0.13703
3751.05786	0.14034
3749.12930	0.14522
3747.20073	0.14840
3745.27217	0.15038
3743.34360	0.15386
3741.41504	0.15741
3739.48647	0.15988
3737.55791	0.16315
3735.62935	0.16842
3733.70078	0.17473
3731.77222	0.17985
3729.84365	0.18372
3727.91509	0.18726
3725.98652	0.19200
3724.05796	0.19842
3722.12939	0.20553
3720.20083	0.21308
3718.27227	0.22055
3716.34370	0.22770
3714.41514	0.23524
3712.48657	0.24489
3710.55801	0.25828
3708.62944	0.27272
3706.70088	0.28492
3704.77231	0.29596
3702.84375	0.30823
3700.91519	0.32462
3698.98662	0.34340
3697.05806	0.36111
3695.12949	0.37950
3693.20093	0.39912
3691.27236	0.42046
3689.34380	0.44773
3687.41523	0.48181
3685.48667	0.51308
3683.55811	0.54029
3681.62954	0.56896
3679.70098	0.60087
3677.77241	0.63433
3675.84385	0.67385
3673.91528	0.72627
3671.98672	0.76959
3670.05815	0.80833
3668.12959	0.86123
3666.20103	0.91087
3664.27246	0.95283
3662.34390	0.99695
3660.41533	1.04414
3658.48677	1.09065
3656.55820	1.14000
3654.62964	1.19497
3652.70107	1.24139
3650.77251	1.28180
3648.84395	1.33764
3646.91538	1.40604
3644.98682	1.45716
3643.05825	1.49717
3641.12969	1.53798
3639.20112	1.58244
3637.27256	1.62752
3635.34399	1.67181
3633.41543	1.71568
3631.48687	1.75595
3629.55830	1.79637
3627.62974	1.85019
3625.70117	1.90191
3623.77261	1.93705
3621.84404	1.97028
3619.91548	2.00868
3617.98691	2.05458
3616.05835	2.09828
3614.12979	2.13497
3612.20122	2.17402
3610.27266	2.21433
3608.34409	2.25526
3606.41553	2.29831
3604.48696	2.33834
3602.55840	2.37448
3600.62983	2.41337
3598.70127	2.45535
3596.77271	2.49619
3594.84414	2.53728
3592.91558	2.57927
3590.98701	2.61802
3589.05845	2.65378
3587.12988	2.69783
3585.20132	2.74838
3583.27275	2.79131
3581.34419	2.82892
3579.41562	2.86827
3577.48706	2.91101
3575.55850	2.95556
3573.62993	3.00092
3571.70137	3.04357
3569.77280	3.08350
3567.84424	3.12654
3565.91567	3.17923
3563.98711	3.23044
3562.05854	3.27347
3560.12998	3.31650
3558.20142	3.35985
3556.27285	3.40175
3554.34429	3.44427
3552.41572	3.49204
3550.48716	3.54313
3548.55859	3.59184
3546.63003	3.63726
3544.70146	3.68237
3542.77290	3.72811
3540.84434	3.77430
3538.91577	3.82144
3536.98721	3.86851
3535.05864	3.91733
3533.13008	3.96600
3531.20151	4.01285
3529.27295	4.06165
3527.34438	4.11372
3525.41582	4.16269
3523.48726	4.20906
3521.55869	4.26021
3519.63013	4.31274
3517.70156	4.36216
3515.77300	4.40754
3513.84443	4.45049
3511.91587	4.49685
3509.98730	4.55045
3508.05874	4.60486
3506.13018	4.65317
3504.20161	4.69998
3502.27305	4.74850
3500.34448	4.79348
3498.41592	4.83574
3496.48735	4.88322
3494.55879	4.93545
3492.63022	4.98698
3490.70166	5.03610
3488.77310	5.08338
3486.84453	5.13087
3484.91597	5.18214
3482.98740	5.23373
3481.05884	5.28357
3479.13027	5.33487
3477.20171	5.38376
3475.27314	5.43018
3473.34458	5.47743
3471.41602	5.52505
3469.48745	5.56989
3467.55889	5.61136
3465.63032	5.65844
3463.70176	5.71299
3461.77319	5.76693
3459.84463	5.82043
3457.91606	5.87199
3455.98750	5.92067
3454.05894	5.97219
3452.13037	6.02764
3450.20181	6.08192
3448.27324	6.13022
3446.34468	6.17218
3444.41611	6.20776
3442.48755	6.25122
3440.55898	6.29916
3438.63042	6.33470
3436.70186	6.37707
3434.77329	6.44352
3432.84473	6.51632
3430.91616	6.56710
3428.98760	6.59264
3427.05903	6.62317
3425.13047	6.68063
3423.20190	6.74019
3421.27334	6.78966
3419.34478	6.85671
3417.41621	6.93485
3415.48765	6.97892
3413.55908	6.99703
3411.63052	7.02607
3409.70195	7.06741
3407.77339	7.13381
3405.84482	7.21103
3403.91626	7.26201
3401.98770	7.27297
3400.05913	7.27423
3398.13057	7.31385
3396.20200	7.38583
3394.27344	7.44620
3392.34487	7.46858
3390.41631	7.48946
3388.48774	7.53489
3386.55918	7.61070
3384.63062	7.70071
3382.70205	7.75160
3380.77349	7.76883
3378.84492	7.81300
3376.91636	7.85266
3374.98779	7.81986
3373.05923	7.76842
3371.13066	7.73574
3369.20210	7.71220
3367.27354	7.68710
3365.34497	7.70836
3363.41641	7.79335
3361.48784	7.86792
3359.55928	7.92682
3357.63071	7.99712
3355.70215	8.05213
3353.77358	8.05194
3351.84502	8.06703
3349.91646	8.10920
3347.98789	8.08907
3346.05933	8.01102
3344.13076	7.94513
3342.20220	7.95916
3340.27363	8.03531
3338.34507	8.11148
3336.41650	8.17330
3334.48794	8.19654
3332.55937	8.11751
3330.63081	8.01876
3328.70225	7.97964
3326.77368	7.97355
3324.84512	8.02407
3322.91655	8.15470
3320.98799	8.26596
3319.05942	8.21432
3317.13086	8.10451
3315.20229	8.07912
3313.27373	8.13548
3311.34517	8.21135
3309.41660	8.23861
3307.48804	8.21598
3305.55947	8.19339
3303.63091	8.21014
3301.70234	8.23206
3299.77378	8.23165
3297.84521	8.22378
3295.91665	8.22923
3293.98809	8.26468
3292.05952	8.30338
3290.13096	8.31682
3288.20239	8.33503
3286.27383	8.32723
3284.34526	8.27835
3282.41670	8.30043
3280.48813	8.36992
3278.55957	8.35852
3276.63101	8.26749
3274.70244	8.21514
3272.77388	8.26437
3270.84531	8.35329
3268.91675	8.35931
3266.98818	8.28011
3265.05962	8.24985
3263.13105	8.26284
3261.20249	8.25440
3259.27393	8.26527
3257.34536	8.35199
3255.41680	8.44941
3253.48823	8.43533
3251.55967	8.36736
3249.63110	8.30510
3247.70254	8.27922
3245.77397	8.37299
3243.84541	8.47092
3241.91685	8.42882
3239.98828	8.38773
3238.05972	8.33059
3236.13115	8.20755
3234.20259	8.14914
3232.27402	8.14059
3230.34546	8.10962
3228.41689	8.11359
3226.48833	8.17175
3224.55977	8.21618
3222.63120	8.21763
3220.70264	8.18345
3218.77407	8.10406
3216.84551	7.98612
3214.91694	7.93399
3212.98838	7.98034
3211.05981	8.01701
3209.13125	8.01344
3207.20269	8.00675
3205.27412	7.98665
3203.34556	7.94072
3201.41699	7.87937
3199.48843	7.82468
3197.55986	7.80998
3195.63130	7.82440
3193.70273	7.81027
3191.77417	7.72437
3189.84561	7.62248
3187.91704	7.60564
3185.98848	7.61161
3184.05991	7.54687
3182.13135	7.45801
3180.20278	7.36729
3178.27422	7.28109
3176.34565	7.23372
3174.41709	7.20882
3172.48853	7.17380
3170.55996	7.13984
3168.63140	7.10750
3166.70283	7.04421
3164.77427	6.95701
3162.84570	6.88067
3160.91714	6.81776
3158.98857	6.77049
3157.06001	6.71475
3155.13145	6.62314
3153.20288	6.53311
3151.27432	6.46533
3149.34575	6.41256
3147.41719	6.36555
3145.48862	6.30108
3143.56006	6.22109
3141.63149	6.13828
3139.70293	6.04977
3137.77437	5.96750
3135.84580	5.90946
3133.91724	5.86361
3131.98867	5.80115
3130.06011	5.72349
3128.13154	5.65259
3126.20298	5.58800
3124.27441	5.51310
3122.34585	5.42638
3120.41729	5.34486
3118.48872	5.27583
3116.56016	5.21089
3114.63159	5.14588
3112.70303	5.08239
3110.77446	5.01751
3108.84590	4.94770
3106.91733	4.87421
3104.98877	4.80124
3103.06021	4.73192
3101.13164	4.66411
3099.20308	4.59746
3097.27451	4.53340
3095.34595	4.46968
3093.41738	4.40605
3091.48882	4.34236
3089.56025	4.27743
3087.63169	4.21383
3085.70312	4.15134
3083.77456	4.08676
3081.84600	4.02277
3079.91743	3.96164
3077.98887	3.90161
3076.06030	3.84250
3074.13174	3.78347
3072.20317	3.72312
3070.27461	3.66368
3068.34604	3.60690
3066.41748	3.55109
3064.48892	3.49565
3062.56035	3.44113
3060.63179	3.38674
3058.70322	3.33160
3056.77466	3.27631
3054.84609	3.22171
3052.91753	3.16777
3050.98896	3.11494
3049.06040	3.06398
3047.13184	3.01466
3045.20327	2.96559
3043.27471	2.91592
3041.34614	2.86672
3039.41758	2.81887
3037.48901	2.77156
3035.56045	2.72445
3033.63188	2.67866
3031.70332	2.63397
3029.77476	2.58917
3027.84619	2.54425
3025.91763	2.49960
3023.98906	2.45572
3022.06050	2.41316
3020.13193	2.37191
3018.20337	2.33150
3016.27480	2.29104
3014.34624	2.25048
3012.41768	2.21125
3010.48911	2.17341
3008.56055	2.13577
3006.63198	2.09844
3004.70342	2.06205
3002.77485	2.02664
3000.84629	1.99198
2998.91772	1.95776
2996.98916	1.92414
2995.06060	1.89176
2993.13203	1.86049
2991.20347	1.82954
2989.27490	1.79855
2987.34634	1.76785
2985.41777	1.73802
2983.48921	1.70925
2981.56064	1.68118
2979.63208	1.65342
2977.70352	1.62599
2975.77495	1.59945
2973.84639	1.57375
2971.91782	1.54839
2969.98926	1.52355
2968.06069	1.49905
2966.13213	1.47457
2964.20356	1.45003
2962.27500	1.42566
2960.34644	1.40175
2958.41787	1.37796
2956.48931	1.35411
2954.56074	1.33036
2952.63218	1.30643
2950.70361	1.28245
2948.77505	1.25916
2946.84648	1.23682
2944.91792	1.21521
2942.98936	1.19428
2941.06079	1.17404
2939.13223	1.15420
2937.20366	1.13428
2935.27510	1.11429
2933.34653	1.09467
2931.41797	1.07564
2929.48940	1.05696
2927.56084	1.03824
2925.63228	1.01966
2923.70371	1.00160
2921.77515	0.98388
2919.84658	0.96594
2917.91802	0.94758
2915.98945	0.92944
2914.06089	0.91228
2912.13232	0.89589
2910.20376	0.87978
2908.27520	0.86417
2906.34663	0.84919
2904.41807	0.83447
2902.48950	0.81971
2900.56094	0.80517
2898.63237	0.79145
2896.70381	0.77862
2894.77524	0.76606
2892.84668	0.75357
2890.91812	0.74145
2888.98955	0.72966
2887.06099	0.71805
2885.13242	0.70702
2883.20386	0.69663
2881.27529	0.68650
2879.34673	0.67646
2877.41816	0.66649
2875.48960	0.65657
2873.56104	0.64639
2871.63247	0.63567
2869.70391	0.62451
2867.77534	0.61300
2865.84678	0.60137
2863.91821	0.59001
2861.98965	0.57910
2860.06108	0.56864
2858.13252	0.55859
2856.20396	0.54899
2854.27539	0.53969
2852.34683	0.53040
2850.41826	0.52107
2848.48970	0.51193
2846.56113	0.50322
2844.63257	0.49517
2842.70400	0.48767
2840.77544	0.48057
2838.84687	0.47393
2836.91831	0.46771
2834.98975	0.46169
2833.06118	0.45570
2831.13262	0.44968
2829.20405	0.44360
2827.27549	0.43733
2825.34692	0.43101
2823.41836	0.42488
2821.48979	0.41887
2819.56123	0.41278
2817.63267	0.40657
2815.70410	0.40042
2813.77554	0.39453
2811.84697	0.38894
2809.91841	0.38355
2807.98984	0.37819
2806.06128	0.37288
2804.13271	0.36751
2802.20415	0.36200
2800.27559	0.35655
2798.34702	0.35145
2796.41846	0.34670
2794.48989	0.34210
2792.56133	0.33755
2790.63276	0.33306
2788.70420	0.32853
2786.77563	0.32391
2784.84707	0.31936
2782.91851	0.31492
2780.98994	0.31059
2779.06138	0.30644
2777.13281	0.30242
2775.20425	0.29845
2773.27568	0.29462
2771.34712	0.29099
2769.41855	0.28741
2767.48999	0.28373
2765.56143	0.28000
2763.63286	0.27637
2761.70430	0.27290
2759.77573	0.26962
2757.84717	0.26648
2755.91860	0.26342
2753.99004	0.26037
2752.06147	0.25723
2750.13291	0.25402
2748.20435	0.25100
2746.27578	0.24819
2744.34722	0.24545
2742.41865	0.24280
2740.49009	0.24011
2738.56152	0.23728
2736.63296	0.23455
2734.70439	0.23205
2732.77583	0.22962
2730.84727	0.22717
2728.91870	0.22473
2726.99014	0.22234
2725.06157	0.22003
2723.13301	0.21783
2721.20444	0.21569
2719.27588	0.21362
2717.34731	0.21162
2715.41875	0.20957
2713.49019	0.20745
2711.56162	0.20551
2709.63306	0.20387
2707.70449	0.20230
2705.77593	0.20060
2703.84736	0.19890
2701.91880	0.19738
2699.99023	0.19589
2698.06167	0.19435
2696.13311	0.19283
2694.20454	0.19129
2692.27598	0.18975
2690.34741	0.18832
2688.41885	0.18697
2686.49028	0.18563
2684.56172	0.18434
2682.63315	0.18309
2680.70459	0.18179
2678.77603	0.18053
2676.84746	0.17932
2674.91890	0.17812
2672.99033	0.17697
2671.06177	0.17586
2669.13320	0.17470
2667.20464	0.17363
2665.27607	0.17271
2663.34751	0.17176
2661.41895	0.17074
2659.49038	0.16984
2657.56182	0.16920
2655.63325	0.16864
2653.70469	0.16785
2651.77612	0.16694
2649.84756	0.16625
2647.91899	0.16575
2645.99043	0.16512
2644.06187	0.16436
2642.13330	0.16372
2640.20474	0.16319
2638.27617	0.16261
2636.34761	0.16206
2634.41904	0.16155
2632.49048	0.16088
2630.56191	0.16023
2628.63335	0.15985
2626.70479	0.15959
2624.77622	0.15932
2622.84766	0.15902
2620.91909	0.15865
2618.99053	0.15823
2617.06196	0.15783
2615.13340	0.15753
2613.20483	0.15739
2611.27627	0.15735
2609.34771	0.15733
2607.41914	0.15722
2605.49058	0.15712
2603.56201	0.15714
2601.63345	0.15711
2599.70488	0.15693
2597.77632	0.15677
2595.84775	0.15682
2593.91919	0.15700
2591.99062	0.15715
2590.06206	0.15723
2588.13350	0.15738
2586.20493	0.15763
2584.27637	0.15784
2582.34780	0.15789
2580.41924	0.15801
2578.49067	0.15838
2576.56211	0.15877
2574.63354	0.15898
2572.70498	0.15910
2570.77642	0.15929
2568.84785	0.15957
2566.91929	0.15991
2564.99072	0.16033
2563.06216	0.16083
2561.13359	0.16130
2559.20503	0.16173
2557.27646	0.16222
2555.34790	0.16266
2553.41934	0.16309
2551.49077	0.16364
2549.56221	0.16411
2547.63364	0.16451
2545.70508	0.16509
2543.77651	0.16587
2541.84795	0.16653
2539.91938	0.16702
2537.99082	0.16762
2536.06226	0.16827
2534.13369	0.16876
2532.20513	0.16925
2530.27656	0.17000
2528.34800	0.17087
2526.41943	0.17167
2524.49087	0.17239
2522.56230	0.17312
2520.63374	0.17392
2518.70518	0.17475
2516.77661	0.17549
2514.84805	0.17614
2512.91948	0.17680
2510.99092	0.17757
2509.06235	0.17842
2507.13379	0.17927
2505.20522	0.18008
2503.27666	0.18082
2501.34810	0.18159
2499.41953	0.18246
2497.49097	0.18328
2495.56240	0.18395
2493.63384	0.18466
2491.70527	0.18551
2489.77671	0.18637
2487.84814	0.18718
2485.91958	0.18789
2483.99102	0.18860
2482.06245	0.18950
2480.13389	0.19048
2478.20532	0.19137
2476.27676	0.19225
2474.34819	0.19317
2472.41963	0.19409
2470.49106	0.19499
2468.56250	0.19588
2466.63394	0.19680
2464.70537	0.19773
2462.77681	0.19858
2460.84824	0.19937
2458.91968	0.20025
2456.99111	0.20129
2455.06255	0.20232
2453.13398	0.20324
2451.20542	0.20407
2449.27686	0.20497
2447.34829	0.20606
2445.41973	0.20718
2443.49116	0.20819
2441.56260	0.20923
2439.63403	0.21032
2437.70547	0.21127
2435.77690	0.21209
2433.84834	0.21293
2431.91978	0.21399
2429.99121	0.21515
2428.06265	0.21617
2426.13408	0.21717
2424.20552	0.21836
2422.27695	0.21961
2420.34839	0.22070
2418.41982	0.22177
2416.49126	0.22297
2414.56270	0.22419
2412.63413	0.22532
2410.70557	0.22635
2408.77700	0.22738
2406.84844	0.22848
2404.91987	0.22964
2402.99131	0.23083
2401.06274	0.23206
2399.13418	0.23330
2397.20562	0.23450
2395.27705	0.23573
2393.34849	0.23701
2391.41992	0.23820
2389.49136	0.23929
2387.56279	0.24057
2385.63423	0.24197
2383.70566	0.24334
2381.77710	0.24476
2379.84854	0.24623
2377.91997	0.24757
2375.99141	0.24876
2374.06284	0.25012
2372.13428	0.25175
2370.20571	0.25369
2368.27715	0.25589
2366.34858	0.25761
2364.42002	0.25873
2362.49146	0.26020
2360.56289	0.26217
2358.63433	0.26375
2356.70576	0.26493
2354.77720	0.26641
2352.84863	0.26836
2350.92007	0.26988
2348.99150	0.27044
2347.06294	0.27082
2345.13437	0.27213
2343.20581	0.27428
2341.27725	0.27583
2339.34868	0.27727
2337.42012	0.27956
2335.49155	0.28168
2333.56299	0.28280
2331.63442	0.28389
2329.70586	0.28572
2327.77729	0.28790
2325.84873	0.28990
2323.92017	0.29150
2321.99160	0.29300
2320.06304	0.29469
2318.13447	0.29639
2316.20591	0.29793
2314.27734	0.29960
2312.34878	0.30144
2310.42021	0.30318
2308.49165	0.30500
2306.56309	0.30709
2304.63452	0.30896
2302.70596	0.31050
2300.77739	0.31216
2298.84883	0.31403
2296.92026	0.31600
2294.99170	0.31791
2293.06313	0.31973
2291.13457	0.32160
2289.20601	0.32359
2287.27744	0.32551
2285.34888	0.32733
2283.42031	0.32921
2281.49175	0.33110
2279.56318	0.33299
2277.63462	0.33498
2275.70605	0.33710
2273.77749	0.33928
2271.84893	0.34146
2269.92036	0.34356
2267.99180	0.34566
2266.06323	0.34782
2264.13467	0.34998
2262.20610	0.35211
2260.27754	0.35428
2258.34897	0.35657
2256.42041	0.35887
2254.49185	0.36098
2252.56328	0.36299
2250.63472	0.36510
2248.70615	0.36730
2246.77759	0.36955
2244.84902	0.37182
2242.92046	0.37410
2240.99189	0.37636
2239.06333	0.37863
2237.13477	0.38085
2235.20620	0.38304
2233.27764	0.38532
2231.34907	0.38763
2229.42051	0.38997
2227.49194	0.39230
2225.56338	0.39449
2223.63481	0.39662
2221.70625	0.39884
2219.77769	0.40105
2217.84912	0.40317
2215.92056	0.40527
2213.99199	0.40737
2212.06343	0.40946
2210.13486	0.41157
2208.20630	0.41372
2206.27773	0.41589
2204.34917	0.41813
2202.42061	0.42043
2200.49204	0.42255
2198.56348	0.42443
2196.63491	0.42633
2194.70635	0.42841
2192.77778	0.43053
2190.84922	0.43252
2188.92065	0.43436
2186.99209	0.43613
2185.06353	0.43789
2183.13496	0.43965
2181.20640	0.44142
2179.27783	0.44301
2177.34927	0.44442
2175.42070	0.44587
2173.49214	0.44747
2171.56357	0.44902
2169.63501	0.45041
2167.70645	0.45174
2165.77788	0.45308
2163.84932	0.45439
2161.92075	0.45567
2159.99219	0.45684
2158.06362	0.45788
2156.13506	0.45890
2154.20649	0.45987
2152.27793	0.46076
2150.34937	0.46156
2148.42080	0.46222
2146.49224	0.46272
2144.56367	0.46318
2142.63511	0.46361
2140.70654	0.46394
2138.77798	0.46421
2136.84941	0.46443
2134.92085	0.46454
2132.99229	0.46456
2131.06372	0.46453
2129.13516	0.46448
2127.20659	0.46436
2125.27803	0.46399
2123.34946	0.46337
2121.42090	0.46273
2119.49233	0.46219
2117.56377	0.46168
2115.63521	0.46104
2113.70664	0.46022
2111.77808	0.45930
2109.84951	0.45840
2107.92095	0.45750
2105.99238	0.45640
2104.06382	0.45513
2102.13525	0.45385
2100.20669	0.45257
2098.27812	0.45115
2096.34956	0.44964
2094.42100	0.44812
2092.49243	0.44650
2090.56387	0.44476
2088.63530	0.44303
2086.70674	0.44128
2084.77817	0.43935
2082.84961	0.43730
2080.92104	0.43523
2078.99248	0.43319
2077.06392	0.43119
2075.13535	0.42919
2073.20679	0.42712
2071.27822	0.42488
2069.34966	0.42249
2067.42109	0.42012
2065.49253	0.41782
2063.56396	0.41541
2061.63540	0.41292
2059.70684	0.41036
2057.77827	0.40768
2055.84971	0.40498
2053.92114	0.40240
2051.99258	0.39993
2050.06401	0.39739
2048.13545	0.39478
2046.20688	0.39217
2044.27832	0.38952
2042.34976	0.38675
2040.42119	0.38396
2038.49263	0.38118
2036.56406	0.37834
2034.63550	0.37552
2032.70693	0.37276
2030.77837	0.36994
2028.84980	0.36708
2026.92124	0.36436
2024.99268	0.36168
2023.06411	0.35886
2021.13555	0.35596
2019.20698	0.35317
2017.27842	0.35049
2015.34985	0.34774
2013.42129	0.34495
2011.49272	0.34213
2009.56416	0.33931
2007.63560	0.33652
2005.70703	0.33379
2003.77847	0.33117
2001.84990	0.32851
1999.92134	0.32574
1997.99277	0.32300
1996.06421	0.32040
1994.13564	0.31790
1992.20708	0.31542
1990.27852	0.31283
1988.34995	0.31023
1986.42139	0.30776
1984.49282	0.30534
1982.56426	0.30297
1980.63569	0.30063
1978.70713	0.29825
1976.77856	0.29591
1974.85000	0.29372
1972.92144	0.29159
1970.99287	0.28945
1969.06431	0.28737
1967.13574	0.28536
1965.20718	0.28327
1963.27861	0.28119
1961.35005	0.27923
1959.42148	0.27733
1957.49292	0.27550
1955.56436	0.27366
1953.63579	0.27175
1951.70723	0.26985
1949.77866	0.26813
1947.85010	0.26657
1945.92153	0.26510
1943.99297	0.26365
1942.06440	0.26218
1940.13584	0.26065
1938.20728	0.25919
1936.27871	0.25784
1934.35015	0.25649
1932.42158	0.25514
1930.49302	0.25385
1928.56445	0.25269
1926.63589	0.25158
1924.70732	0.25058
1922.77876	0.24965
1920.85020	0.24868
1918.92163	0.24773
1916.99307	0.24681
1915.06450	0.24584
1913.13594	0.24490
1911.20737	0.24412
1909.27881	0.24347
1907.35024	0.24288
1905.42168	0.24226
1903.49312	0.24162
1901.56455	0.24102
1899.63599	0.24050
1897.70742	0.24010
1895.77886	0.23976
1893.85029	0.23942
1891.92173	0.23908
1889.99316	0.23888
1888.06460	0.23867
1886.13604	0.23829
1884.20747	0.23791
1882.27891	0.23760
1880.35034	0.23742
1878.42178	0.23735
1876.49321	0.23736
1874.56465	0.23739
1872.63608	0.23748
1870.70752	0.23773
1868.77896	0.23821
1866.85039	0.23848
1864.92183	0.23842
1862.99326	0.23846
1861.06470	0.23863
1859.13613	0.23893
1857.20757	0.23927
1855.27900	0.23972
1853.35044	0.24022
1851.42187	0.24075
1849.49331	0.24135
1847.56475	0.24206
1845.63618	0.24286
1843.70762	0.24378
1841.77905	0.24460
1839.85049	0.24511
1837.92192	0.24581
1835.99336	0.24673
1834.06479	0.24773
1832.13623	0.24876
1830.20767	0.25012
1828.27910	0.25153
1826.35054	0.25252
1824.42197	0.25374
1822.49341	0.25511
1820.56484	0.25641
1818.63628	0.25779
1816.70771	0.25944
1814.77915	0.26112
1812.85059	0.26282
1810.92202	0.26475
1808.99346	0.26685
1807.06489	0.26892
1805.13633	0.27089
1803.20776	0.27309
1801.27920	0.27554
1799.35063	0.27831
1797.42207	0.28092
1795.49351	0.28336
1793.56494	0.28610
1791.63638	0.28970
1789.70781	0.29328
1787.77925	0.29598
1785.85068	0.29908
1783.92212	0.30278
1781.99355	0.30677
1780.06499	0.31097
1778.13643	0.31529
1776.20786	0.31936
1774.27930	0.32364
1772.35073	0.32931
1770.42217	0.33560
1768.49360	0.34109
1766.56504	0.34633
1764.63647	0.35171
1762.70791	0.35767
1760.77935	0.36518
1758.85078	0.37227
1756.92222	0.37943
1754.99365	0.38731
1753.06509	0.39453
1751.13652	0.40292
1749.20796	0.41329
1747.27939	0.42371
1745.35083	0.43312
1743.42227	0.44286
1741.49370	0.45324
1739.56514	0.46540
1737.63657	0.47786
1735.70801	0.48886
1733.77944	0.50488
1731.85088	0.52406
1729.92231	0.53970
1727.99375	0.55569
1726.06519	0.57294
1724.13662	0.59166
1722.20806	0.61173
1720.27949	0.63041
1718.35093	0.65217
1716.42236	0.68376
1714.49380	0.71425
1712.56523	0.73953
1710.63667	0.76404
1708.70811	0.79026
1706.77954	0.81994
1704.85098	0.85509
1702.92241	0.88667
1700.99385	0.91801
1699.06528	0.96396
1697.13672	1.00668
1695.20815	1.05118
1693.27959	1.09546
1691.35103	1.13150
1689.42246	1.17257
1687.49390	1.21581
1685.56533	1.25768
1683.63677	1.32135
1681.70820	1.38828
1679.77964	1.43218
1677.85107	1.47361
1675.92251	1.52112
1673.99395	1.57948
1672.06538	1.63170
1670.13682	1.68313
1668.20825	1.75018
1666.27969	1.80644
1664.35112	1.85464
1662.42256	1.91460
1660.49399	1.98338
1658.56543	2.03826
1656.63687	2.08194
1654.70830	2.12148
1652.77974	2.18142
1650.85117	2.23702
1648.92261	2.25590
1646.99404	2.27892
1645.06548	2.30520
1643.13691	2.32392
1641.20835	2.33454
1639.27979	2.34320
1637.35122	2.34694
1635.42266	2.34407
1633.49409	2.33692
1631.56553	2.32391
1629.63696	2.30574
1627.70840	2.27565
1625.77983	2.24078
1623.85127	2.19754
1621.92271	2.14607
1619.99414	2.09998
1618.06558	2.05373
1616.13701	1.98827
1614.20845	1.92231
1612.27988	1.87220
1610.35132	1.82005
1608.42275	1.76372
1606.49419	1.70816
1604.56562	1.65676
1602.63706	1.60761
1600.70850	1.55974
1598.77993	1.51514
1596.85137	1.47328
1594.92280	1.43324
1592.99424	1.39492
1591.06567	1.35986
1589.13711	1.32703
1587.20854	1.29659
1585.27998	1.26882
1583.35142	1.24335
1581.42285	1.22039
1579.49429	1.20069
1577.56572	1.18310
1575.63716	1.16258
1573.70859	1.14448
1571.78003	1.13253
1569.85146	1.12093
1567.92290	1.10870
1565.99434	1.09960
1564.06577	1.09303
1562.13721	1.08829
1560.20864	1.08591
1558.28008	1.08646
1556.35151	1.08800
1554.42295	1.08831
1552.49438	1.08823
1550.56582	1.08668
1548.63726	1.08292
1546.70869	1.07687
1544.78013	1.06777
1542.85156	1.05547
1540.92300	1.03801
1538.99443	1.01171
1537.06587	0.99142
1535.13730	0.97680
1533.20874	0.95788
1531.28018	0.93820
1529.35161	0.92391
1527.42305	0.91020
1525.49448	0.89547
1523.56592	0.88275
1521.63735	0.87140
1519.70879	0.86049
1517.78022	0.85094
1515.85166	0.83979
1513.92310	0.82794
1511.99453	0.81733
1510.06597	0.80756
1508.13740	0.79800
1506.20884	0.78444
1504.28027	0.77295
1502.35171	0.76621
1500.42314	0.76008
1498.49458	0.75350
1496.56602	0.74615
1494.63745	0.73901
1492.70889	0.73331
1490.78032	0.72815
1488.85176	0.72249
1486.92319	0.71732
1484.99463	0.71307
1483.06606	0.70971
1481.13750	0.70718
1479.20894	0.70532
1477.28037	0.70407
1475.35181	0.70345
1473.42324	0.70354
1471.49468	0.70343
1469.56611	0.70194
1467.63755	0.69980
1465.70898	0.69795
1463.78042	0.69680
1461.85186	0.69624
1459.92329	0.69605
1457.99473	0.69617
1456.06616	0.69574
1454.13760	0.69380
1452.20903	0.69146
1450.28047	0.68906
1448.35190	0.68655
1446.42334	0.68378
1444.49478	0.68115
1442.56621	0.67888
1440.63765	0.67660
1438.70908	0.67407
1436.78052	0.67092
1434.85195	0.66753
1432.92339	0.66493
1430.99482	0.66311
1429.06626	0.66196
1427.13770	0.66164
1425.20913	0.66198
1423.28057	0.66267
1421.35200	0.66326
1419.42344	0.66372
1417.49487	0.66368
1415.56631	0.66259
1413.63774	0.66138
1411.70918	0.66087
1409.78062	0.66126
1407.85205	0.66217
1405.92349	0.66330
1403.99492	0.66426
1402.06636	0.66425
1400.13779	0.66335
1398.20923	0.66176
1396.28066	0.65936
1394.35210	0.65588
1392.42354	0.65189
1390.49497	0.64820
1388.56641	0.64444
1386.63784	0.64003
1384.70928	0.63544
1382.78071	0.63124
1380.85215	0.62730
1378.92358	0.62377
1376.99502	0.62103
1375.06646	0.61927
1373.13789	0.61824
1371.20933	0.61755
1369.28076	0.61687
1367.35220	0.61584
1365.42363	0.61441
1363.49507	0.61294
1361.56650	0.61143
1359.63794	0.60977
1357.70937	0.60824
1355.78081	0.60693
1353.85225	0.60582
1351.92368	0.60481
1349.99512	0.60384
1348.06655	0.60296
1346.13799	0.60210
1344.20942	0.60114
1342.28086	0.60017
1340.35229	0.59937
1338.42373	0.59857
1336.49517	0.59774
1334.56660	0.59718
1332.63804	0.59690
1330.70947	0.59675
1328.78091	0.59680
1326.85234	0.59720
1324.92378	0.59790
1322.99521	0.59866
1321.06665	0.59939
1319.13809	0.60006
1317.20952	0.60042
1315.28096	0.60034
1313.35239	0.59989
1311.42383	0.59912
1309.49526	0.59820
1307.56670	0.59736
1305.63813	0.59664
1303.70957	0.59592
1301.78101	0.59517
1299.85244	0.59424
1297.92388	0.59299
1295.99531	0.59164
1294.06675	0.59039
1292.13818	0.58910
1290.20962	0.58773
1288.28105	0.58640
1286.35249	0.58518
1284.42393	0.58400
1282.49536	0.58261
1280.56680	0.58106
1278.63823	0.57964
1276.70967	0.57841
1274.78110	0.57734
1272.85254	0.57643
1270.92397	0.57575
1268.99541	0.57521
1267.06685	0.57459
1265.13828	0.57391
1263.20972	0.57331
1261.28115	0.57265
1259.35259	0.57199
1257.42402	0.57147
1255.49546	0.57108
1253.56689	0.57082
1251.63833	0.57075
1249.70977	0.57080
1247.78120	0.57075
1245.85264	0.57054
1243.92407	0.57010
1241.99551	0.56932
1240.06694	0.56811
1238.13838	0.56643
1236.20981	0.56441
1234.28125	0.56228
1232.35269	0.56020
1230.42412	0.55824
1228.49556	0.55637
1226.56699	0.55448
1224.63843	0.55260
1222.70986	0.55082
1220.78130	0.54918
1218.85273	0.54765
1216.92417	0.54627
1214.99561	0.54502
1213.06704	0.54402
1211.13848	0.54333
1209.20991	0.54272
1207.28135	0.54206
1205.35278	0.54132
1203.42422	0.54040
1201.49565	0.53939
1199.56709	0.53846
1197.63853	0.53760
1195.70996	0.53676
1193.78140	0.53599
1191.85283	0.53540
1189.92427	0.53494
1187.99570	0.53445
1186.06714	0.53406
1184.13857	0.53393
1182.21001	0.53418
1180.28145	0.53498
1178.35288	0.53622
1176.42432	0.53768
1174.49575	0.53903
1172.56719	0.53998
1170.63862	0.54057
1168.71006	0.54106
1166.78149	0.54159
1164.85293	0.54206
1162.92437	0.54238
1160.99580	0.54262
1159.06724	0.54273
1157.13867	0.54243
1155.21011	0.54164
1153.28154	0.54052
1151.35298	0.53890
1149.42441	0.53655
1147.49585	0.53373
1145.56729	0.53077
1143.63872	0.52787
1141.71016	0.52528
1139.78159	0.52326
1137.85303	0.52184
1135.92446	0.52092
1133.99590	0.52051
1132.06733	0.52046
1130.13877	0.52054
1128.21021	0.52045
1126.28164	0.52018
1124.35308	0.52001
1122.42451	0.51997
1120.49595	0.51993
1118.56738	0.52022
1116.63882	0.52092
1114.71025	0.52171
1112.78169	0.52252
1110.85312	0.52332
1108.92456	0.52412
1106.99600	0.52502
1105.06743	0.52595
1103.13887	0.52676
1101.21030	0.52759
1099.28174	0.52882
1097.35317	0.53068
1095.42461	0.53329
1093.49604	0.53693
1091.56748	0.54180
1089.63892	0.54806
1087.71035	0.55583
1085.78179	0.56457
1083.85322	0.57332
1081.92466	0.58096
1079.99609	0.58656
1078.06753	0.58956
1076.13896	0.58939
1074.21040	0.58587
1072.28184	0.58004
1070.35327	0.57312
1068.42471	0.56580
1066.49614	0.55869
1064.56758	0.55231
1062.63901	0.54677
1060.71045	0.54205
1058.78188	0.53801
1056.85332	0.53423
1054.92476	0.53059
1052.99619	0.52744
1051.06763	0.52502
1049.13906	0.52345
1047.21050	0.52279
1045.28193	0.52267
1043.35337	0.52272
1041.42480	0.52285
1039.49624	0.52305
1037.56768	0.52318
1035.63911	0.52307
1033.71055	0.52256
1031.78198	0.52144
1029.85342	0.51975
1027.92485	0.51799
1025.99629	0.51641
1024.06772	0.51486
1022.13916	0.51350
1020.21060	0.51272
1018.28203	0.51244
1016.35347	0.51203
1014.42490	0.51125
1012.49634	0.51061
1010.56777	0.51028
1008.63921	0.50996
1006.71064	0.50992
1004.78208	0.51078
1002.85352	0.51259
1000.92495	0.51511
998.99639	0.51828
997.06782	0.52221
995.13926	0.52675
993.21069	0.53110
991.28213	0.53430
989.35356	0.53597
987.42500	0.53629
985.49644	0.53592
983.56787	0.53564
981.63931	0.53576
979.71074	0.53636
977.78218	0.53759
975.85361	0.53954
973.92505	0.54215
971.99648	0.54509
970.06792	0.54812
968.13936	0.55163
966.21079	0.55581
964.28223	0.56026
962.35366	0.56473
960.42510	0.56938
958.49653	0.57456
956.56797	0.58029
954.63940	0.58617
952.71084	0.59218
950.78228	0.59854
948.85371	0.60512
946.92515	0.61177
944.99658	0.61830
943.06802	0.62430
941.13945	0.63007
939.21089	0.63620
937.28232	0.64239
935.35376	0.64812
933.42520	0.65354
931.49663	0.65900
929.56807	0.66460
927.63950	0.67029
925.71094	0.67627
923.78237	0.68278
921.85381	0.68962
919.92524	0.69695
917.99668	0.70460
916.06812	0.71160
914.13955	0.71818
912.21099	0.72539
910.28242	0.73333
908.35386	0.74155
906.42529	0.74986
904.49673	0.75851
902.56816	0.76805
900.63960	0.77841
898.71104	0.78854
896.78247	0.79832
894.85391	0.80806
892.92534	0.81710
890.99678	0.82615
889.06821	0.83677
887.13965	0.84871
885.21108	0.86057
883.28252	0.87163
881.35396	0.88226
879.42539	0.89285
877.49683	0.90474
875.56826	0.91847
873.63970	0.93122
871.71113	0.94260
869.78257	0.95479
867.85400	0.96665
865.92544	0.97728
863.99687	0.98841
862.06831	1.00040
860.13975	1.01223
858.21118	1.02279
856.28262	1.03211
854.35405	1.04290
852.42549	1.05666
850.49692	1.07144
848.56836	1.08423
846.63979	1.09351
844.71123	1.10184
842.78267	1.11239
840.85410	1.12545
838.92554	1.13975
836.99697	1.15442
835.06841	1.16769
833.13984	1.17763
831.21128	1.18809
829.28271	1.20166
827.35415	1.21336
825.42559	1.22360
823.49702	1.23746
821.56846	1.24996
819.63989	1.25806
817.71133	1.26888
815.78276	1.28283
813.85420	1.29116
811.92563	1.29545
809.99707	1.30726
808.06851	1.31944
806.13994	1.31938
804.21138	1.31935
802.28281	1.32256
800.35425	1.31683
798.42568	1.31399
796.49712	1.32456
794.56855	1.34154
792.63999	1.35128
790.71143	1.34509
788.78286	1.36124
786.85430	1.43298
784.92573	1.51348
782.99717	1.49617
781.06860	1.40775
779.14004	1.33818
777.21147	1.31891
775.28291	1.35709
773.35435	1.41651
771.42578	1.44313
769.49722	1.44158
767.56865	1.40913
765.64009	1.33870
763.71152	1.30310
761.78296	1.36632
759.85439	1.48953
757.92583	1.44321
755.99727	1.24804
754.06870	1.12458
752.14014	1.11943
750.21157	1.23401
748.28301	1.33417
746.35444	1.20910
744.42588	1.05751
742.49731	1.01627
740.56875	1.08387
738.64019	1.04419
736.71162	0.88035
734.78306	0.84624
732.85449	1.09395
730.92593	4.38556
728.99736	1.06095
727.06880	0.57169
725.14023	0.42675
723.21167	0.34589
721.28311	0.19072
719.35454	0.09816
717.42598	0.18076
715.49741	0.33860
713.56885	0.50836
711.64028	0.52291
709.71172	0.41188
707.78315	0.31713
705.85459	0.31046
703.92603	0.32087
701.99746	0.32170
700.06890	0.37151
698.14033	0.52386
696.21177	0.84234
694.28320	0.89995
692.35464	0.57413
690.42607	0.52682
688.49751	0.77124
686.56895	1.23750
684.64038	0.76928
682.71182	0.51784
680.78325	0.48787
678.85469	0.53153
676.92612	0.46353
674.99756	0.41553
673.06899	0.52661
671.14043	0.70741
669.21187	0.57690
667.28330	0.40572
665.35474	0.38534
663.42617	0.38177
661.49761	0.30934
659.56904	0.27613
657.64048	0.31210
655.71191	0.40811
653.78335	0.50806
651.85479	0.39855
649.92622	0.26192
647.99766	0.25259
646.06909	0.29972
644.14053	0.34635
642.21196	0.42778
640.28340	0.47371
638.35483	0.40316
636.42627	0.35859
634.49771	0.36686
632.56914	0.34148
630.64058	0.34188
628.71201	0.40114
626.78345	0.40902
624.85488	0.36686
622.92632	0.36306
620.99775	0.39816
619.06919	0.47522
617.14062	0.48343
615.21206	0.39385
613.28350	0.35788
611.35493	0.33544
609.42637	0.27461
607.49780	0.25997
605.56924	0.33823
603.64067	0.50857
601.71211	0.70593
599.78354	0.62198
597.85498	0.43866
595.92642	0.39822
593.99785	0.48352
592.06929	0.51270
590.14072	0.33692
588.21216	0.21835
586.28359	0.23205
584.35503	0.29833
582.42646	0.33759
580.49790	0.36494
578.56934	0.45141
576.64077	0.55066
574.71221	0.54292
572.78364	0.54921
570.85508	0.60296
568.92651	0.58381
566.99795	0.55032
565.06938	0.54734
563.14082	0.43340
561.21226	0.30096
559.28369	0.22783
557.35513	0.19589
555.42656	0.20314
553.49800	0.25300
551.56943	0.30604
549.64087	0.30623
547.71230	0.28710
545.78374	0.32938
543.85518	0.39285
541.92661	0.36281
539.99805	0.26820
538.06948	0.19851
536.14092	0.17872
534.21235	0.18457
532.28379	0.23204
530.35522	0.30386
528.42666	0.32517
526.49810	0.36949
524.56953	0.46214
522.64097	0.47594
520.71240	0.34615
518.78384	0.21773
516.85527	0.16276
514.92671	0.17911
512.99814	0.23128
511.06958	0.28870
509.14102	0.26615
507.21245	0.19797
505.28389	0.19945
503.35532	0.28343
501.42676	0.38622
499.49819	0.39715
