3997.91411	0.06338
3995.98555	0.06358
3994.05698	0.06351
3992.12842	0.06376
3990.19985	0.06403
3988.27129	0.06419
3986.34272	0.06463
3984.41416	0.06523
3982.48560	0.06561
3980.55703	0.06582
3978.62847	0.06595
3976.69990	0.06607
3974.77134	0.06611
3972.84277	0.06586
3970.91421	0.06577
3968.98564	0.06624
3967.05708	0.06677
3965.12852	0.06690
3963.19995	0.06694
3961.27139	0.06725
3959.34282	0.06762
3957.41426	0.06767
3955.48569	0.06738
3953.55713	0.06708
3951.62856	0.06719
3949.70000	0.06771
3947.77144	0.06810
3945.84287	0.06804
3943.91431	0.06773
3941.98574	0.06734
3940.05718	0.06697
3938.12861	0.06689
3936.20005	0.06697
3934.27148	0.06683
3932.34292	0.06659
3930.41436	0.06672
3928.48579	0.06698
3926.55723	0.06692
3924.62866	0.06694
3922.70010	0.06702
3920.77153	0.06675
3918.84297	0.06642
3916.91440	0.06658
3914.98584	0.06711
3913.05728	0.06721
3911.12871	0.06690
3909.20015	0.06665
3907.27158	0.06637
3905.34302	0.06590
3903.41445	0.06561
3901.48589	0.06563
3899.55732	0.06571
3897.62876	0.06600
3895.70020	0.06620
3893.77163	0.06600
3891.84307	0.06600
3889.91450	0.06633
3887.98594	0.06626
3886.05737	0.06608
3884.12881	0.06641
3882.20024	0.06676
3880.27168	0.06676
3878.34312	0.06684
3876.41455	0.06714
3874.48599	0.06745
3872.55742	0.06760
3870.62886	0.06773
3868.70029	0.06804
3866.77173	0.06824
3864.84316	0.06812
3862.91460	0.06812
3860.98604	0.06868
3859.05747	0.06912
3857.12891	0.06877
3855.20034	0.06816
3853.27178	0.06826
3851.34321	0.06970
3849.41465	0.07117
3847.48608	0.07195
3845.55752	0.07223
3843.62896	0.07236
3841.70039	0.07264
3839.77183	0.07320
3837.84326	0.07413
3835.91470	0.07508
3833.98613	0.07587
3832.05757	0.07663
3830.12900	0.07742
3828.20044	0.07839
3826.27187	0.07943
3824.34331	0.07998
3822.41475	0.08006
3820.48618	0.08061
3818.55762	0.08177
3816.62905	0.08314
3814.70049	0.08495
3812.77192	0.08626
3810.84336	0.08686
3808.91479	0.08738
3806.98623	0.08810
3805.05767	0.08912
3803.12910	0.08989
3801.20054	0.09066
3799.27197	0.09205
3797.34341	0.09348
3795.41484	0.09508
3793.48628	0.09679
3791.55771	0.09809
3789.62915	0.09915
3787.70059	0.10025
3785.77202	0.10152
3783.84346	0.10294
3781.91489	0.10430
3779.98633	0.10576
3778.05776	0.10779
3776.12920	0.10984
3774.20063	0.11139
3772.27207	0.11263
3770.34351	0.11395
3768.41494	0.11595
3766.48638	0.11824
3764.55781	0.12021
3762.62925	0.12174
3760.70068	0.12331
3758.77212	0.12567
3756.84355	0.12844
3754.91499	0.13046
3752.98643	0.13173
3751.05786	0.13338
3749.12930	0.13680
3747.20073	0.14052
3745.27217	0.14361
3743.34360	0.14756
3741.41504	0.15130
3739.48647	0.15386
3737.55791	0.15643
3735.62935	0.15989
3733.70078	0.16460
3731.77222	0.17018
3729.84365	0.17580
3727.91509	0.18059
3725.98652	0.18555
3724.05796	0.19178
3722.12939	0.19906
3720.20083	0.20716
3718.27227	0.21547
3716.34370	0.22358
3714.41514	0.23152
3712.48657	0.24020
3710.55801	0.25177
3708.62944	0.26596
3706.70088	0.27930
3704.77231	0.29132
3702.84375	0.30409
3700.91519	0.32051
3698.98662	0.33928
3697.05806	0.35737
3695.12949	0.37625
3693.20093	0.39586
3691.27236	0.41645
3689.34380	0.44309
3687.41523	0.47791
3685.48667	0.51054
3683.55811	0.53854
3681.62954	0.56748
3679.70098	0.59947
3677.77241	0.63258
3675.84385	0.67082
3673.91528	0.72241
3671.98672	0.76659
3670.05815	0.80643
3668.12959	0.86060
3666.20103	0.91125
3664.27246	0.95367
3662.34390	0.99810
3660.41533	1.04553
3658.48677	1.09223
3656.55820	1.14141
3654.62964	1.19605
3652.70107	1.24270
3650.77251	1.28279
3648.84395	1.33631
3646.91538	1.40374
3644.98682	1.45729
3643.05825	1.49891
3641.12969	1.53967
3639.20112	1.58394
3637.27256	1.62898
3635.34399	1.67281
3633.41543	1.71608
3631.48687	1.75610
3629.55830	1.79648
3627.62974	1.84987
3625.70117	1.90125
3623.77261	1.93676
3621.84404	1.97027
3619.91548	2.00758
3617.98691	2.05160
3616.05835	2.09541
3614.12979	2.13393
3612.20122	2.17455
3610.27266	2.21507
3608.34409	2.25481
3606.41553	2.29613
3604.48696	2.33528
3602.55840	2.37161
3600.62983	2.41065
3598.70127	2.45195
3596.77271	2.49208
3594.84414	2.53359
3592.91558	2.57637
3590.98701	2.61554
3589.05845	2.65202
3587.12988	2.69561
3585.20132	2.74289
3583.27275	2.78347
3581.34419	2.82193
3579.41562	2.86338
3577.48706	2.90703
3575.55850	2.95042
3573.62993	2.99364
3571.70137	3.03480
3569.77280	3.07422
3567.84424	3.11707
3565.91567	3.16909
3563.98711	3.21959
3562.05854	3.26196
3560.12998	3.30473
3558.20142	3.35049
3556.27285	3.39688
3554.34429	3.44172
3552.41572	3.48784
3550.48716	3.53553
3548.55859	3.58255
3546.63003	3.62952
3544.70146	3.67783
3542.77290	3.72678
3540.84434	3.77460
3538.91577	3.82070
3536.98721	3.86722
3535.05864	3.91750
3533.13008	3.96776
3531.20151	4.01486
3529.27295	4.05995
3527.34438	4.10708
3525.41582	4.15642
3523.48726	4.20506
3521.55869	4.25517
3519.63013	4.30461
3517.70156	4.35167
3515.77300	4.39934
3513.84443	4.44809
3511.91587	4.49522
3509.98730	4.54236
3508.05874	4.59205
3506.13018	4.64127
3504.20161	4.68851
3502.27305	4.73730
3500.34448	4.78858
3498.41592	4.83897
3496.48735	4.88745
3494.55879	4.93478
3492.63022	4.98355
3490.70166	5.03421
3488.77310	5.08348
3486.84453	5.13375
3484.91597	5.18838
3482.98740	5.23915
3481.05884	5.28392
3479.13027	5.33048
3477.20171	5.37885
3475.27314	5.43007
3473.34458	5.48607
3471.41602	5.53853
3469.48745	5.58112
3467.55889	5.61887
3465.63032	5.66333
3463.70176	5.72086
3461.77319	5.77741
3459.84463	5.82232
3457.91606	5.86705
3455.98750	5.92747
3454.05894	5.99428
3452.13037	6.04247
3450.20181	6.08091
3448.27324	6.12855
3446.34468	6.17644
3444.41611	6.21754
3442.48755	6.27117
3440.55898	6.32880
3438.63042	6.36573
3436.70186	6.39883
3434.77329	6.45139
3432.84473	6.52233
3430.91616	6.60222
3428.98760	6.67692
3427.05903	6.72701
3425.13047	6.75701
3423.20190	6.78015
3421.27334	6.81966
3419.34478	6.88243
3417.41621	6.94388
3415.48765	6.98981
3413.55908	7.01355
3411.63052	7.03781
3409.70195	7.08481
3407.77339	7.14712
3405.84482	7.21139
3403.91626	7.26842
3401.98770	7.29674
3400.05913	7.32251
3398.13057	7.39004
3396.20200	7.46786
3394.27344	7.51570
3392.34487	7.53036
3390.41631	7.54834
3388.48774	7.58497
3386.55918	7.61227
3384.63062	7.60597
3382.70205	7.59785
3380.77349	7.62701
3378.84492	7.68815
3376.91636	7.75894
3374.98779	7.82196
3373.05923	7.90398
3371.13066	7.95678
3369.20210	7.92783
3367.27354	7.89315
3365.34497	7.93737
3363.41641	8.02535
3361.48784	8.02607
3359.55928	7.92637
3357.63071	7.86286
3355.70215	7.92397
3353.77358	8.03037
3351.84502	8.07387
3349.91646	8.04774
3347.98789	8.03693
3346.05933	8.07832
3344.13076	8.10675
3342.20220	8.10624
3340.27363	8.11693
3338.34507	8.15913
3336.41650	8.19613
3334.48794	8.22780
3332.55937	8.25961
3330.63081	8.26972
3328.70225	8.25534
3326.77368	8.19788
3324.84512	8.11325
3322.91655	8.10973
3320.98799	8.21805
3319.05942	8.27575
3317.13086	8.26196
3315.20229	8.29345
3313.27373	8.34616
3311.34517	8.31080
3309.41660	8.19630
3307.48804	8.14181
3305.55947	8.20319
3303.63091	8.31580
3301.70234	8.40229
3299.77378	8.44354
3297.84521	8.41774
3295.91665	8.37886
3293.98809	8.35811
3292.05952	8.29496
3290.13096	8.23207
3288.20239	8.25437
3286.27383	8.31169
3284.34526	8.34140
3282.41670	8.39820
3280.48813	8.43320
3278.55957	8.38278
3276.63101	8.31730
3274.70244	8.29280
3272.77388	8.25777
3270.84531	8.17173
3268.91675	8.15595
3266.98818	8.28509
3265.05962	8.39593
3263.13105	8.29834
3261.20249	8.13413
3259.27393	8.05748
3257.34536	8.08850
3255.41680	8.18534
3253.48823	8.26458
3251.55967	8.30960
3249.63110	8.36101
3247.70254	8.45386
3245.77397	8.55501
3243.84541	8.58659
3241.91685	8.53043
3239.98828	8.43113
3238.05972	8.36996
3236.13115	8.42267
3234.20259	8.52386
3232.27402	8.51005
3230.34546	8.37642
3228.41689	8.28417
3226.48833	8.32737
3224.55977	8.40062
3222.63120	8.39969
3220.70264	8.35304
3218.77407	8.30927
3216.84551	8.27891
3214.91694	8.20990
3212.98838	8.12245
3211.05981	8.07824
3209.13125	8.05255
3207.20269	8.03552
3205.27412	8.05698
3203.34556	8.07384
3201.41699	8.03967
3199.48843	7.96885
3197.55986	7.91000
3195.63130	7.91305
3193.70273	7.90907
3191.77417	7.79668
3189.84561	7.64359
3187.91704	7.55430
3185.98848	7.54892
3184.05991	7.59050
3182.13135	7.58351
3180.20278	7.47731
3178.27422	7.34799
3176.34565	7.25786
3174.41709	7.20863
3172.48853	7.17812
3170.55996	7.12729
3168.63140	7.05882
3166.70283	7.00371
3164.77427	6.95541
3162.84570	6.90376
3160.91714	6.85933
3158.98857	6.81935
3157.06001	6.76034
3155.13145	6.67810
3153.20288	6.59581
3151.27432	6.52335
3149.34575	6.45046
3147.41719	6.37849
3145.48862	6.30175
3143.56006	6.21354
3141.63149	6.13400
3139.70293	6.06308
3137.77437	5.98920
3135.84580	5.92089
3133.91724	5.85777
3131.98867	5.78721
3130.06011	5.71175
3128.13154	5.64213
3126.20298	5.57913
3124.27441	5.51527
3122.34585	5.44107
3120.41729	5.36082
3118.48872	5.28457
3116.56016	5.21049
3114.63159	5.13421
3112.70303	5.06161
3110.77446	4.99558
3108.84590	4.92896
3106.91733	4.86322
3104.98877	4.80194
3103.06021	4.73605
3101.13164	4.66011
3099.20308	4.58676
3097.27451	4.52411
3095.34595	4.46221
3093.41738	4.39405
3091.48882	4.32522
3089.56025	4.26074
3087.63169	4.19798
3085.70312	4.13439
3083.77456	4.07047
3081.84600	4.00765
3079.91743	3.94586
3077.98887	3.88425
3076.06030	3.82381
3074.13174	3.76508
3072.20317	3.70733
3070.27461	3.64954
3068.34604	3.59153
3066.41748	3.53399
3064.48892	3.47742
3062.56035	3.42126
3060.63179	3.36501
3058.70322	3.30964
3056.77466	3.25546
3054.84609	3.20194
3052.91753	3.14948
3050.98896	3.09771
3049.06040	3.04531
3047.13184	2.99328
3045.20327	2.94309
3043.27471	2.89394
3041.34614	2.84465
3039.41758	2.79534
3037.48901	2.74746
3035.56045	2.70214
3033.63188	2.65797
3031.70332	2.61268
3029.77476	2.56703
3027.84619	2.52259
3025.91763	2.47876
3023.98906	2.43537
3022.06050	2.39247
3020.13193	2.34972
3018.20337	2.30793
3016.27480	2.26759
3014.34624	2.22827
3012.41768	2.18954
3010.48911	2.15101
3008.56055	2.11285
3006.63198	2.07577
3004.70342	2.03969
3002.77485	2.00413
3000.84629	1.96869
2998.91772	1.93382
2996.98916	1.90008
2995.06060	1.86712
2993.13203	1.83499
2991.20347	1.80359
2989.27490	1.77219
2987.34634	1.74108
2985.41777	1.71079
2983.48921	1.68120
2981.56064	1.65233
2979.63208	1.62431
2977.70352	1.59683
2975.77495	1.56971
2973.84639	1.54302
2971.91782	1.51665
2969.98926	1.49058
2968.06069	1.46471
2966.13213	1.43916
2964.20356	1.41415
2962.27500	1.38953
2960.34644	1.36521
2958.41787	1.34103
2956.48931	1.31658
2954.56074	1.29211
2952.63218	1.26809
2950.70361	1.24446
2948.77505	1.22130
2946.84648	1.19860
2944.91792	1.17611
2942.98936	1.15396
2941.06079	1.13254
2939.13223	1.11186
2937.20366	1.09145
2935.27510	1.07112
2933.34653	1.05122
2931.41797	1.03189
2929.48940	1.01289
2927.56084	0.99382
2925.63228	0.97474
2923.70371	0.95631
2921.77515	0.93900
2919.84658	0.92255
2917.91802	0.90584
2915.98945	0.88854
2914.06089	0.87161
2912.13232	0.85558
2910.20376	0.84029
2908.27520	0.82541
2906.34663	0.81072
2904.41807	0.79626
2902.48950	0.78228
2900.56094	0.76888
2898.63237	0.75591
2896.70381	0.74326
2894.77524	0.73060
2892.84668	0.71790
2890.91812	0.70593
2888.98955	0.69471
2887.06099	0.68345
2885.13242	0.67222
2883.20386	0.66148
2881.27529	0.65127
2879.34673	0.64133
2877.41816	0.63143
2875.48960	0.62148
2873.56104	0.61132
2871.63247	0.60089
2869.70391	0.59030
2867.77534	0.57937
2865.84678	0.56819
2863.91821	0.55713
2861.98965	0.54638
2860.06108	0.53617
2858.13252	0.52648
2856.20396	0.51713
2854.27539	0.50826
2852.34683	0.49961
2850.41826	0.49097
2848.48970	0.48246
2846.56113	0.47430
2844.63257	0.46696
2842.70400	0.46040
2840.77544	0.45413
2838.84687	0.44811
2836.91831	0.44241
2834.98975	0.43666
2833.06118	0.43069
2831.13262	0.42473
2829.20405	0.41887
2827.27549	0.41305
2825.34692	0.40732
2823.41836	0.40158
2821.48979	0.39571
2819.56123	0.38987
2817.63267	0.38409
2815.70410	0.37821
2813.77554	0.37237
2811.84697	0.36692
2809.91841	0.36180
2807.98984	0.35670
2806.06128	0.35163
2804.13271	0.34659
2802.20415	0.34153
2800.27559	0.33654
2798.34702	0.33174
2796.41846	0.32707
2794.48989	0.32244
2792.56133	0.31788
2790.63276	0.31344
2788.70420	0.30908
2786.77563	0.30474
2784.84707	0.30046
2782.91851	0.29636
2780.98994	0.29242
2779.06138	0.28849
2777.13281	0.28464
2775.20425	0.28098
2773.27568	0.27735
2771.34712	0.27356
2769.41855	0.26979
2767.48999	0.26623
2765.56143	0.26284
2763.63286	0.25947
2761.70430	0.25617
2759.77573	0.25310
2757.84717	0.25007
2755.91860	0.24696
2753.99004	0.24395
2752.06147	0.24111
2750.13291	0.23820
2748.20435	0.23519
2746.27578	0.23229
2744.34722	0.22956
2742.41865	0.22694
2740.49009	0.22433
2738.56152	0.22174
2736.63296	0.21927
2734.70439	0.21696
2732.77583	0.21464
2730.84727	0.21228
2728.91870	0.20999
2726.99014	0.20776
2725.06157	0.20553
2723.13301	0.20342
2721.20444	0.20144
2719.27588	0.19942
2717.34731	0.19740
2715.41875	0.19544
2713.49019	0.19354
2711.56162	0.19174
2709.63306	0.18997
2707.70449	0.18821
2705.77593	0.18657
2703.84736	0.18506
2701.91880	0.18367
2699.99023	0.18231
2698.06167	0.18084
2696.13311	0.17940
2694.20454	0.17810
2692.27598	0.17680
2690.34741	0.17542
2688.41885	0.17416
2686.49028	0.17315
2684.56172	0.17222
2682.63315	0.17099
2680.70459	0.16959
2678.77603	0.16835
2676.84746	0.16730
2674.91890	0.16631
2672.99033	0.16533
2671.06177	0.16431
2669.13320	0.16330
2667.20464	0.16236
2665.27607	0.16145
2663.34751	0.16055
2661.41895	0.15980
2659.49038	0.15917
2657.56182	0.15856
2655.63325	0.15794
2653.70469	0.15722
2651.77612	0.15640
2649.84756	0.15575
2647.91899	0.15527
2645.99043	0.15471
2644.06187	0.15410
2642.13330	0.15360
2640.20474	0.15322
2638.27617	0.15281
2636.34761	0.15237
2634.41904	0.15194
2632.49048	0.15148
2630.56191	0.15095
2628.63335	0.15047
2626.70479	0.15017
2624.77622	0.14999
2622.84766	0.14977
2620.91909	0.14948
2618.99053	0.14920
2617.06196	0.14897
2615.13340	0.14884
2613.20483	0.14879
2611.27627	0.14874
2609.34771	0.14868
2607.41914	0.14863
2605.49058	0.14866
2603.56201	0.14879
2601.63345	0.14881
2599.70488	0.14862
2597.77632	0.14847
2595.84775	0.14860
2593.91919	0.14888
2591.99062	0.14901
2590.06206	0.14906
2588.13350	0.14923
2586.20493	0.14946
2584.27637	0.14967
2582.34780	0.14987
2580.41924	0.15019
2578.49067	0.15069
2576.56211	0.15115
2574.63354	0.15143
2572.70498	0.15161
2570.77642	0.15179
2568.84785	0.15202
2566.91929	0.15231
2564.99072	0.15273
2563.06216	0.15328
2561.13359	0.15376
2559.20503	0.15417
2557.27646	0.15467
2555.34790	0.15521
2553.41934	0.15575
2551.49077	0.15632
2549.56221	0.15692
2547.63364	0.15761
2545.70508	0.15831
2543.77651	0.15891
2541.84795	0.15947
2539.91938	0.16014
2537.99082	0.16087
2536.06226	0.16149
2534.13369	0.16202
2532.20513	0.16264
2530.27656	0.16340
2528.34800	0.16423
2526.41943	0.16500
2524.49087	0.16574
2522.56230	0.16657
2520.63374	0.16749
2518.70518	0.16833
2516.77661	0.16901
2514.84805	0.16961
2512.91948	0.17033
2510.99092	0.17116
2509.06235	0.17197
2507.13379	0.17283
2505.20522	0.17370
2503.27666	0.17444
2501.34810	0.17516
2499.41953	0.17609
2497.49097	0.17706
2495.56240	0.17787
2493.63384	0.17859
2491.70527	0.17944
2489.77671	0.18047
2487.84814	0.18149
2485.91958	0.18229
2483.99102	0.18300
2482.06245	0.18388
2480.13389	0.18491
2478.20532	0.18586
2476.27676	0.18675
2474.34819	0.18773
2472.41963	0.18869
2470.49106	0.18955
2468.56250	0.19045
2466.63394	0.19141
2464.70537	0.19242
2462.77681	0.19338
2460.84824	0.19426
2458.91968	0.19523
2456.99111	0.19627
2455.06255	0.19722
2453.13398	0.19818
2451.20542	0.19924
2449.27686	0.20031
2447.34829	0.20139
2445.41973	0.20248
2443.49116	0.20357
2441.56260	0.20462
2439.63403	0.20558
2437.70547	0.20650
2435.77690	0.20743
2433.84834	0.20844
2431.91978	0.20960
2429.99121	0.21074
2428.06265	0.21178
2426.13408	0.21288
2424.20552	0.21403
2422.27695	0.21522
2420.34839	0.21644
2418.41982	0.21760
2416.49126	0.21868
2414.56270	0.21974
2412.63413	0.22086
2410.70557	0.22202
2408.77700	0.22318
2406.84844	0.22431
2404.91987	0.22549
2402.99131	0.22674
2401.06274	0.22799
2399.13418	0.22921
2397.20562	0.23042
2395.27705	0.23163
2393.34849	0.23287
2391.41992	0.23413
2389.49136	0.23539
2387.56279	0.23656
2385.63423	0.23753
2383.70566	0.23832
2381.77710	0.23894
2379.84854	0.23926
2377.91997	0.23936
2375.99141	0.23944
2374.06284	0.23947
2372.13428	0.23908
2370.20571	0.23834
2368.27715	0.23770
2366.34858	0.23695
2364.42002	0.23632
2362.49146	0.23690
2360.56289	0.23822
2358.63433	0.23966
2356.70576	0.24226
2354.77720	0.24624
2352.84863	0.25082
2350.92007	0.25478
2348.99150	0.25688
2347.06294	0.25724
2345.13437	0.25687
2343.20581	0.25711
2341.27725	0.25855
2339.34868	0.26072
2337.42012	0.26303
2335.49155	0.26503
2333.56299	0.26636
2331.63442	0.26771
2329.70586	0.26994
2327.77729	0.27253
2325.84873	0.27501
2323.92017	0.27760
2321.99160	0.28028
2320.06304	0.28302
2318.13447	0.28589
2316.20591	0.28853
2314.27734	0.29074
2312.34878	0.29282
2310.42021	0.29497
2308.49165	0.29723
2306.56309	0.29976
2304.63452	0.30231
2302.70596	0.30450
2300.77739	0.30651
2298.84883	0.30861
2296.92026	0.31079
2294.99170	0.31300
2293.06313	0.31522
2291.13457	0.31737
2289.20601	0.31942
2287.27744	0.32144
2285.34888	0.32352
2283.42031	0.32571
2281.49175	0.32786
2279.56318	0.32986
2277.63462	0.33182
2275.70605	0.33385
2273.77749	0.33586
2271.84893	0.33790
2269.92036	0.33995
2267.99180	0.34203
2266.06323	0.34422
2264.13467	0.34651
2262.20610	0.34883
2260.27754	0.35112
2258.34897	0.35343
2256.42041	0.35578
2254.49185	0.35805
2252.56328	0.36020
2250.63472	0.36229
2248.70615	0.36440
2246.77759	0.36658
2244.84902	0.36882
2242.92046	0.37112
2240.99189	0.37345
2239.06333	0.37575
2237.13477	0.37797
2235.20620	0.38016
2233.27764	0.38241
2231.34907	0.38472
2229.42051	0.38713
2227.49194	0.38955
2225.56338	0.39182
2223.63481	0.39403
2221.70625	0.39628
2219.77769	0.39849
2217.84912	0.40066
2215.92056	0.40285
2213.99199	0.40501
2212.06343	0.40711
2210.13486	0.40920
2208.20630	0.41128
2206.27773	0.41335
2204.34917	0.41549
2202.42061	0.41775
2200.49204	0.41995
2198.56348	0.42200
2196.63491	0.42392
2194.70635	0.42579
2192.77778	0.42769
2190.84922	0.42963
2188.92065	0.43153
2186.99209	0.43335
2185.06353	0.43507
2183.13496	0.43686
2181.20640	0.43875
2179.27783	0.44047
2177.34927	0.44201
2175.42070	0.44357
2173.49214	0.44518
2171.56357	0.44673
2169.63501	0.44812
2167.70645	0.44943
2165.77788	0.45073
2163.84932	0.45199
2161.92075	0.45313
2159.99219	0.45419
2158.06362	0.45524
2156.13506	0.45623
2154.20649	0.45718
2152.27793	0.45818
2150.34937	0.45907
2148.42080	0.45974
2146.49224	0.46028
2144.56367	0.46079
2142.63511	0.46121
2140.70654	0.46150
2138.77798	0.46175
2136.84941	0.46198
2134.92085	0.46211
2132.99229	0.46206
2131.06372	0.46192
2129.13516	0.46184
2127.20659	0.46172
2125.27803	0.46134
2123.34946	0.46071
2121.42090	0.46014
2119.49233	0.45972
2117.56377	0.45923
2115.63521	0.45856
2113.70664	0.45775
2111.77808	0.45684
2109.84951	0.45591
2107.92095	0.45503
2105.99238	0.45400
2104.06382	0.45272
2102.13525	0.45135
2100.20669	0.45003
2098.27812	0.44861
2096.34956	0.44708
2094.42100	0.44557
2092.49243	0.44401
2090.56387	0.44233
2088.63530	0.44064
2086.70674	0.43895
2084.77817	0.43708
2082.84961	0.43506
2080.92104	0.43308
2078.99248	0.43116
2077.06392	0.42917
2075.13535	0.42707
2073.20679	0.42489
2071.27822	0.42261
2069.34966	0.42031
2067.42109	0.41800
2065.49253	0.41561
2063.56396	0.41315
2061.63540	0.41074
2059.70684	0.40832
2057.77827	0.40576
2055.84971	0.40312
2053.92114	0.40052
2051.99258	0.39793
2050.06401	0.39527
2048.13545	0.39258
2046.20688	0.38990
2044.27832	0.38722
2042.34976	0.38446
2040.42119	0.38163
2038.49263	0.37885
2036.56406	0.37610
2034.63550	0.37339
2032.70693	0.37070
2030.77837	0.36793
2028.84980	0.36509
2026.92124	0.36228
2024.99268	0.35946
2023.06411	0.35661
2021.13555	0.35383
2019.20698	0.35114
2017.27842	0.34842
2015.34985	0.34560
2013.42129	0.34275
2011.49272	0.33986
2009.56416	0.33702
2007.63560	0.33429
2005.70703	0.33164
2003.77847	0.32898
2001.84990	0.32624
1999.92134	0.32353
1997.99277	0.32090
1996.06421	0.31831
1994.13564	0.31574
1992.20708	0.31315
1990.27852	0.31049
1988.34995	0.30793
1986.42139	0.30549
1984.49282	0.30310
1982.56426	0.30069
1980.63569	0.29829
1978.70713	0.29593
1976.77856	0.29361
1974.85000	0.29136
1972.92144	0.28916
1970.99287	0.28702
1969.06431	0.28493
1967.13574	0.28280
1965.20718	0.28062
1963.27861	0.27857
1961.35005	0.27672
1959.42148	0.27492
1957.49292	0.27307
1955.56436	0.27117
1953.63579	0.26931
1951.70723	0.26758
1949.77866	0.26599
1947.85010	0.26442
1945.92153	0.26282
1943.99297	0.26121
1942.06440	0.25966
1940.13584	0.25822
1938.20728	0.25683
1936.27871	0.25539
1934.35015	0.25397
1932.42158	0.25267
1930.49302	0.25142
1928.56445	0.25028
1926.63589	0.24920
1924.70732	0.24816
1922.77876	0.24713
1920.85020	0.24610
1918.92163	0.24508
1916.99307	0.24409
1915.06450	0.24317
1913.13594	0.24228
1911.20737	0.24155
1909.27881	0.24096
1907.35024	0.24038
1905.42168	0.23974
1903.49312	0.23912
1901.56455	0.23859
1899.63599	0.23812
1897.70742	0.23761
1895.77886	0.23709
1893.85029	0.23670
1891.92173	0.23637
1889.99316	0.23609
1888.06460	0.23583
1886.13604	0.23554
1884.20747	0.23525
1882.27891	0.23504
1880.35034	0.23491
1878.42178	0.23477
1876.49321	0.23479
1874.56465	0.23494
1872.63608	0.23507
1870.70752	0.23502
1868.77896	0.23504
1866.85039	0.23529
1864.92183	0.23560
1862.99326	0.23586
1861.06470	0.23611
1859.13613	0.23644
1857.20757	0.23677
1855.27900	0.23720
1853.35044	0.23773
1851.42187	0.23827
1849.49331	0.23871
1847.56475	0.23917
1845.63618	0.23969
1843.70762	0.24049
1841.77905	0.24157
1839.85049	0.24242
1837.92192	0.24325
1835.99336	0.24419
1834.06479	0.24521
1832.13623	0.24611
1830.20767	0.24718
1828.27910	0.24852
1826.35054	0.24962
1824.42197	0.25089
1822.49341	0.25238
1820.56484	0.25389
1818.63628	0.25538
1816.70771	0.25698
1814.77915	0.25855
1812.85059	0.26016
1810.92202	0.26204
1808.99346	0.26417
1807.06489	0.26635
1805.13633	0.26838
1803.20776	0.27047
1801.27920	0.27272
1799.35063	0.27534
1797.42207	0.27792
1795.49351	0.28033
1793.56494	0.28289
1791.63638	0.28632
1789.70781	0.29014
1787.77925	0.29327
1785.85068	0.29662
1783.92212	0.30034
1781.99355	0.30417
1780.06499	0.30828
1778.13643	0.31270
1776.20786	0.31679
1774.27930	0.32079
1772.35073	0.32612
1770.42217	0.33244
1768.49360	0.33823
1766.56504	0.34377
1764.63647	0.34927
1762.70791	0.35510
1760.77935	0.36249
1758.85078	0.36966
1756.92222	0.37682
1754.99365	0.38465
1753.06509	0.39173
1751.13652	0.39982
1749.20796	0.41004
1747.27939	0.42058
1745.35083	0.43003
1743.42227	0.43968
1741.49370	0.45013
1739.56514	0.46262
1737.63657	0.47536
1735.70801	0.48632
1733.77944	0.50219
1731.85088	0.52161
1729.92231	0.53767
1727.99375	0.55411
1726.06519	0.57169
1724.13662	0.59048
1722.20806	0.61056
1720.27949	0.62920
1718.35093	0.65056
1716.42236	0.68173
1714.49380	0.71263
1712.56523	0.73846
1710.63667	0.76320
1708.70811	0.78937
1706.77954	0.81878
1704.85098	0.85372
1702.92241	0.88542
1700.99385	0.91692
1699.06528	0.96278
1697.13672	1.00506
1695.20815	1.04910
1693.27959	1.09313
1691.35103	1.12898
1689.42246	1.16969
1687.49390	1.21213
1685.56533	1.25247
1683.63677	1.31371
1681.70820	1.37931
1679.77964	1.42310
1677.85107	1.46420
1675.92251	1.51078
1673.99395	1.56802
1672.06538	1.61948
1670.13682	1.66964
1668.20825	1.73420
1666.27969	1.78754
1664.35112	1.83276
1662.42256	1.88945
1660.49399	1.95373
1658.56543	2.00362
1656.63687	2.04358
1654.70830	2.08025
1652.77974	2.13586
1650.85117	2.19029
1648.92261	2.21139
1646.99404	2.23733
1645.06548	2.26739
1643.13691	2.28806
1641.20835	2.29965
1639.27979	2.30932
1637.35122	2.31540
1635.42266	2.31570
1633.49409	2.30926
1631.56553	2.29692
1629.63696	2.28094
1627.70840	2.25357
1625.77983	2.22141
1623.85127	2.18055
1621.92271	2.13001
1619.99414	2.08472
1618.06558	2.04088
1616.13701	1.97923
1614.20845	1.91505
1612.27988	1.86436
1610.35132	1.81161
1608.42275	1.75613
1606.49419	1.70258
1604.56562	1.65286
1602.63706	1.60436
1600.70850	1.55687
1598.77993	1.51272
1596.85137	1.47069
1594.92280	1.42963
1592.99424	1.38987
1591.06567	1.35333
1589.13711	1.31923
1587.20854	1.28742
1585.27998	1.25779
1583.35142	1.23031
1581.42285	1.20525
1579.49429	1.18328
1577.56572	1.16316
1575.63716	1.13971
1573.70859	1.11978
1571.78003	1.10669
1569.85146	1.09308
1567.92290	1.07853
1565.99434	1.06776
1564.06577	1.05917
1562.13721	1.05191
1560.20864	1.04627
1558.28008	1.04129
1556.35151	1.03959
1554.42295	1.03861
1552.49438	1.03658
1550.56582	1.03307
1548.63726	1.02787
1546.70869	1.02114
1544.78013	1.01199
1542.85156	0.99996
1540.92300	0.98349
1538.99443	0.96026
1537.06587	0.94322
1535.13730	0.93104
1533.20874	0.91517
1531.28018	0.89844
1529.35161	0.88576
1527.42305	0.87343
1525.49448	0.86071
1523.56592	0.84982
1521.63735	0.83957
1519.70879	0.82943
1517.78022	0.82089
1515.85166	0.81146
1513.92310	0.80169
1511.99453	0.79284
1510.06597	0.78437
1508.13740	0.77579
1506.20884	0.76404
1504.28027	0.75449
1502.35171	0.74876
1500.42314	0.74333
1498.49458	0.73749
1496.56602	0.73118
1494.63745	0.72520
1492.70889	0.72028
1490.78032	0.71560
1488.85176	0.71049
1486.92319	0.70618
1484.99463	0.70294
1483.06606	0.70029
1481.13750	0.69796
1479.20894	0.69594
1477.28037	0.69449
1475.35181	0.69346
1473.42324	0.69240
1471.49468	0.69081
1469.56611	0.68885
1467.63755	0.68666
1465.70898	0.68442
1463.78042	0.68243
1461.85186	0.68088
1459.92329	0.67950
1457.99473	0.67783
1456.06616	0.67576
1454.13760	0.67363
1452.20903	0.67137
1450.28047	0.66879
1448.35190	0.66614
1446.42334	0.66374
1444.49478	0.66161
1442.56621	0.65931
1440.63765	0.65670
1438.70908	0.65398
1436.78052	0.65078
1434.85195	0.64741
1432.92339	0.64480
1430.99482	0.64298
1429.06626	0.64184
1427.13770	0.64117
1425.20913	0.64073
1423.28057	0.64043
1421.35200	0.64005
1419.42344	0.63960
1417.49487	0.63914
1415.56631	0.63827
1413.63774	0.63734
1411.70918	0.63695
1409.78062	0.63723
1407.85205	0.63776
1405.92349	0.63833
1403.99492	0.63884
1402.06636	0.63875
1400.13779	0.63786
1398.20923	0.63631
1396.28066	0.63422
1394.35210	0.63139
1392.42354	0.62807
1390.49497	0.62479
1388.56641	0.62136
1386.63784	0.61751
1384.70928	0.61373
1382.78071	0.61020
1380.85215	0.60673
1378.92358	0.60350
1376.99502	0.60072
1375.06646	0.59852
1373.13789	0.59706
1371.20933	0.59618
1369.28076	0.59533
1367.35220	0.59413
1365.42363	0.59268
1363.49507	0.59128
1361.56650	0.58996
1359.63794	0.58864
1357.70937	0.58745
1355.78081	0.58643
1353.85225	0.58557
1351.92368	0.58483
1349.99512	0.58409
1348.06655	0.58334
1346.13799	0.58267
1344.20942	0.58209
1342.28086	0.58139
1340.35229	0.58057
1338.42373	0.57984
1336.49517	0.57928
1334.56660	0.57882
1332.63804	0.57848
1330.70947	0.57829
1328.78091	0.57824
1326.85234	0.57832
1324.92378	0.57843
1322.99521	0.57855
1321.06665	0.57868
1319.13809	0.57875
1317.20952	0.57865
1315.28096	0.57846
1313.35239	0.57816
1311.42383	0.57767
1309.49526	0.57709
1307.56670	0.57651
1305.63813	0.57593
1303.70957	0.57538
1301.78101	0.57482
1299.85244	0.57411
1297.92388	0.57316
1295.99531	0.57199
1294.06675	0.57080
1292.13818	0.56971
1290.20962	0.56866
1288.28105	0.56758
1286.35249	0.56653
1284.42393	0.56561
1282.49536	0.56466
1280.56680	0.56357
1278.63823	0.56251
1276.70967	0.56146
1274.78110	0.56038
1272.85254	0.55958
1270.92397	0.55908
1268.99541	0.55855
1267.06685	0.55787
1265.13828	0.55720
1263.20972	0.55656
1261.28115	0.55589
1259.35259	0.55529
1257.42402	0.55491
1255.49546	0.55481
1253.56689	0.55493
1251.63833	0.55515
1249.70977	0.55521
1247.78120	0.55503
1245.85264	0.55486
1243.92407	0.55462
1241.99551	0.55404
1240.06694	0.55306
1238.13838	0.55173
1236.20981	0.55010
1234.28125	0.54843
1232.35269	0.54688
1230.42412	0.54532
1228.49556	0.54368
1226.56699	0.54208
1224.63843	0.54068
1222.70986	0.53952
1220.78130	0.53842
1218.85273	0.53727
1216.92417	0.53611
1214.99561	0.53505
1213.06704	0.53420
1211.13848	0.53350
1209.20991	0.53282
1207.28135	0.53214
1205.35278	0.53139
1203.42422	0.53063
1201.49565	0.52997
1199.56709	0.52931
1197.63853	0.52863
1195.70996	0.52810
1193.78140	0.52775
1191.85283	0.52749
1189.92427	0.52729
1187.99570	0.52705
1186.06714	0.52667
1184.13857	0.52638
1182.21001	0.52661
1180.28145	0.52741
1178.35288	0.52848
1176.42432	0.52960
1174.49575	0.53069
1172.56719	0.53145
1170.63862	0.53160
1168.71006	0.53147
1166.78149	0.53148
1164.85293	0.53149
1162.92437	0.53118
1160.99580	0.53064
1159.06724	0.52999
1157.13867	0.52915
1155.21011	0.52814
1153.28154	0.52688
1151.35298	0.52510
1149.42441	0.52281
1147.49585	0.52034
1145.56729	0.51779
1143.63872	0.51509
1141.71016	0.51252
1139.78159	0.51033
1137.85303	0.50848
1135.92446	0.50680
1133.99590	0.50513
1132.06733	0.50358
1130.13877	0.50216
1128.21021	0.50069
1126.28164	0.49928
1124.35308	0.49812
1122.42451	0.49723
1120.49595	0.49666
1118.56738	0.49630
1116.63882	0.49615
1114.71025	0.49632
1112.78169	0.49653
1110.85312	0.49675
1108.92456	0.49728
1106.99600	0.49818
1105.06743	0.49943
1103.13887	0.50110
1101.21030	0.50302
1099.28174	0.50511
1097.35317	0.50745
1095.42461	0.51029
1093.49604	0.51378
1091.56748	0.51789
1089.63892	0.52252
1087.71035	0.52767
1085.78179	0.53349
1083.85322	0.53988
1081.92466	0.54600
1079.99609	0.55109
1078.06753	0.55462
1076.13896	0.55579
1074.21040	0.55410
1072.28184	0.54991
1070.35327	0.54411
1068.42471	0.53752
1066.49614	0.53083
1064.56758	0.52461
1062.63901	0.51905
1060.71045	0.51398
1058.78188	0.50930
1056.85332	0.50500
1054.92476	0.50114
1052.99619	0.49792
1051.06763	0.49528
1049.13906	0.49290
1047.21050	0.49066
1045.28193	0.48862
1043.35337	0.48675
1041.42480	0.48505
1039.49624	0.48382
1037.56768	0.48309
1035.63911	0.48269
1033.71055	0.48273
1031.78198	0.48296
1029.85342	0.48302
1027.92485	0.48302
1025.99629	0.48311
1024.06772	0.48336
1022.13916	0.48387
1020.21060	0.48465
1018.28203	0.48559
1016.35347	0.48658
1014.42490	0.48761
1012.49634	0.48880
1010.56777	0.49013
1008.63921	0.49154
1006.71064	0.49311
1004.78208	0.49500
1002.85352	0.49735
1000.92495	0.50022
998.99639	0.50349
997.06782	0.50708
995.13926	0.51093
993.21069	0.51474
991.28213	0.51816
989.35356	0.52094
987.42500	0.52291
985.49644	0.52409
983.56787	0.52485
981.63931	0.52575
979.71074	0.52716
977.78218	0.52910
975.85361	0.53157
973.92505	0.53446
971.99648	0.53748
970.06792	0.54064
968.13936	0.54425
966.21079	0.54825
964.28223	0.55258
962.35366	0.55732
960.42510	0.56249
958.49653	0.56796
956.56797	0.57369
954.63940	0.57973
952.71084	0.58607
950.78228	0.59259
948.85371	0.59894
946.92515	0.60502
944.99658	0.61116
943.06802	0.61753
941.13945	0.62394
939.21089	0.62996
937.28232	0.63588
935.35376	0.64204
933.42520	0.64780
931.49663	0.65279
929.56807	0.65771
927.63950	0.66308
925.71094	0.66901
923.78237	0.67561
921.85381	0.68259
919.92524	0.68961
917.99668	0.69655
916.06812	0.70364
914.13955	0.71125
912.21099	0.71940
910.28242	0.72780
908.35386	0.73645
906.42529	0.74509
904.49673	0.75305
902.56816	0.76130
900.63960	0.77134
898.71104	0.78241
896.78247	0.79316
894.85391	0.80276
892.92534	0.81140
890.99678	0.82027
889.06821	0.83027
887.13965	0.84135
885.21108	0.85295
883.28252	0.86522
881.35396	0.87813
879.42539	0.89100
877.49683	0.90293
875.56826	0.91367
873.63970	0.92376
871.71113	0.93400
869.78257	0.94524
867.85400	0.95726
865.92544	0.96928
863.99687	0.98078
862.06831	0.99130
860.13975	1.00235
858.21118	1.01642
856.28262	1.03106
854.35405	1.04289
852.42549	1.05372
850.49692	1.06424
848.56836	1.07426
846.63979	1.08575
844.71123	1.09852
842.78267	1.11043
840.85410	1.12145
838.92554	1.13320
836.99697	1.14734
835.06841	1.16288
833.13984	1.17493
831.21128	1.18416
829.28271	1.19649
827.35415	1.21084
825.42559	1.22211
823.49702	1.23064
821.56846	1.24110
819.63989	1.25581
817.71133	1.27144
815.78276	1.28559
813.85420	1.30104
811.92563	1.31766
809.99707	1.33137
808.06851	1.34266
806.13994	1.35113
804.21138	1.35929
802.28281	1.36963
800.35425	1.37061
798.42568	1.37913
796.49712	1.41565
794.56855	1.45287
792.63999	1.46281
790.71143	1.43756
788.78286	1.39556
786.85430	1.37338
784.92573	1.39835
782.99717	1.47891
781.06860	1.56667
779.14004	1.56475
777.21147	1.49931
775.28291	1.47319
773.35435	1.54035
771.42578	1.69637
769.49722	1.80758
767.56865	1.78238
765.64009	1.73077
763.71152	1.85480
761.78296	4.57070
759.85439	4.55913
757.92583	1.52678
755.99727	1.32964
754.06870	1.32809
752.14014	1.28767
750.21157	1.20807
748.28301	1.17691
746.35444	1.18682
744.42588	1.20625
742.49731	1.31510
740.56875	1.51262
738.64019	1.42272
736.71162	1.20048
734.78306	1.07095
732.85449	0.91564
730.92593	0.69186
728.99736	0.52492
727.06880	0.43872
725.14023	0.39940
723.21167	0.42042
721.28311	0.48295
719.35454	0.78633
717.42598	4.30456
715.49741	4.29298
713.56885	4.28141
711.64028	4.26984
709.71172	4.25827
707.78315	0.19983
705.85459	0.21365
703.92603	0.47162
701.99746	0.62055
700.06890	0.46820
698.14033	0.38578
696.21177	0.41351
694.28320	0.55781
692.35464	0.69833
690.42607	0.60089
688.49751	0.52812
686.56895	0.49332
684.64038	0.46034
682.71182	0.48038
680.78325	0.55451
678.85469	0.63613
676.92612	0.66951
674.99756	0.57978
673.06899	0.47121
671.14043	0.35611
669.21187	0.24173
667.28330	0.22039
665.35474	0.32246
663.42617	0.44612
661.49761	0.44947
659.56904	0.38852
657.64048	0.34682
655.71191	0.35653
653.78335	0.39355
651.85479	0.36958
649.92622	0.31827
647.99766	0.36744
646.06909	0.47910
644.14053	0.60456
642.21196	1.02421
640.28340	3.84170
638.35483	0.63359
636.42627	0.41243
634.49771	0.36370
632.56914	0.33564
630.64058	0.32017
628.71201	0.33757
626.78345	0.39603
624.85488	0.43516
622.92632	0.38419
620.99775	0.35631
619.06919	0.41691
617.14062	0.51418
615.21206	0.47123
613.28350	0.35303
611.35493	0.31841
609.42637	0.34398
607.49780	0.37912
605.56924	0.43612
603.64067	0.46597
601.71211	0.40695
599.78354	0.36163
597.85498	0.41651
595.92642	0.51882
593.99785	0.51743
592.06929	0.44388
590.14072	0.34039
588.21216	0.30272
586.28359	0.37741
584.35503	0.46335
582.42646	0.48565
580.49790	0.46932
578.56934	0.39735
576.64077	0.33003
574.71221	0.33968
572.78364	0.36789
570.85508	0.35167
568.92651	0.36216
566.99795	0.38711
565.06938	0.34304
563.14082	0.31097
561.21226	0.34864
559.28369	0.41569
557.35513	0.44946
555.42656	0.44623
553.49800	0.39364
551.56943	0.34968
549.64087	0.36000
547.71230	0.39370
545.78374	0.38087
543.85518	0.34506
541.92661	0.33573
539.99805	0.33509
538.06948	0.30154
536.14092	0.27563
534.21235	0.29925
532.28379	0.31039
530.35522	0.31253
528.42666	0.40124
526.49810	0.50038
524.56953	0.44683
522.64097	0.35695
520.71240	0.29286
518.78384	0.30193
516.85527	0.43659
514.92671	0.53481
512.99814	0.37857
511.06958	0.30466
509.14102	0.33710
507.21245	0.45747
505.28389	0.56609
503.35532	0.43796
501.42676	0.30599
499.49819	0.25995
