3997.91411	0.06880
3995.98555	0.06952
3994.05698	0.07034
3992.12842	0.07090
3990.19985	0.07152
3988.27129	0.07197
3986.34272	0.07191
3984.41416	0.07195
3982.48560	0.07242
3980.55703	0.07268
3978.62847	0.07265
3976.69990	0.07324
3974.77134	0.07433
3972.84277	0.07495
3970.91421	0.07496
3968.98564	0.07474
3967.05708	0.07427
3965.12852	0.07386
3963.19995	0.07440
3961.27139	0.07544
3959.34282	0.07565
3957.41426	0.07551
3955.48569	0.07576
3953.55713	0.07589
3951.62856	0.07690
3949.70000	0.07975
3947.77144	0.08169
3945.84287	0.08088
3943.91431	0.08046
3941.98574	0.08109
3940.05718	0.07956
3938.12861	0.07677
3936.20005	0.07576
3934.27148	0.07758
3932.34292	0.08150
3930.41436	0.08394
3928.48579	0.08240
3926.55723	0.08063
3924.62866	0.08166
3922.70010	0.08235
3920.77153	0.08113
3918.84297	0.08151
3916.91440	0.08323
3914.98584	0.08188
3913.05728	0.07786
3911.12871	0.07498
3909.20015	0.07444
3907.27158	0.07718
3905.34302	0.08472
3903.41445	0.09432
3901.48589	0.09906
3899.55732	0.09708
3897.62876	0.09060
3895.70020	0.08393
3893.77163	0.08272
3891.84307	0.08680
3889.91450	0.08845
3887.98594	0.08603
3886.05737	0.08713
3884.12881	0.09085
3882.20024	0.09230
3880.27168	0.09254
3878.34312	0.08919
3876.41455	0.08503
3874.48599	0.08718
3872.55742	0.09350
3870.62886	0.09886
3868.70029	0.10028
3866.77173	0.09746
3864.84316	0.09703
3862.91460	0.09800
3860.98604	0.09388
3859.05747	0.08933
3857.12891	0.09093
3855.20034	0.09959
3853.27178	0.11306
3851.34321	0.11500
3849.41465	0.10140
3847.48608	0.09049
3845.55752	0.08744
3843.62896	0.09170
3841.70039	0.09999
3839.77183	0.10864
3837.84326	0.11440
3835.91470	0.11297
3833.98613	0.10742
3832.05757	0.10294
3830.12900	0.09961
3828.20044	0.09810
3826.27187	0.09934
3824.34331	0.10205
3822.41475	0.10822
3820.48618	0.11811
3818.55762	0.12084
3816.62905	0.11745
3814.70049	0.11236
3812.77192	0.10396
3810.84336	0.09876
3808.91479	0.10078
3806.98623	0.10836
3805.05767	0.11501
3803.12910	0.11944
3801.20054	0.12564
3799.27197	0.12674
3797.34341	0.12210
3795.41484	0.11781
3793.48628	0.11270
3791.55771	0.10875
3789.62915	0.10818
3787.70059	0.11022
3785.77202	0.11426
3783.84346	0.11809
3781.91489	0.12014
3779.98633	0.12322
3778.05776	0.12592
3776.12920	0.12421
3774.20063	0.12231
3772.27207	0.12491
3770.34351	0.13167
3768.41494	0.13766
3766.48638	0.13945
3764.55781	0.13950
3762.62925	0.13971
3760.70068	0.14329
3758.77212	0.15093
3756.84355	0.15641
3754.91499	0.15884
3752.98643	0.16580
3751.05786	0.18038
3749.12930	0.19126
3747.20073	0.19035
3745.27217	0.19004
3743.34360	0.19291
3741.41504	0.19322
3739.48647	0.19483
3737.55791	0.20345
3735.62935	0.21989
3733.70078	0.23316
3731.77222	0.23192
3729.84365	0.22657
3727.91509	0.22725
3725.98652	0.23446
3724.05796	0.24271
3722.12939	0.24762
3720.20083	0.24965
3718.27227	0.24975
3716.34370	0.25055
3714.41514	0.25677
3712.48657	0.27351
3710.55801	0.29827
3708.62944	0.31329
3706.70088	0.31722
3704.77231	0.32373
3702.84375	0.33725
3700.91519	0.35515
3698.98662	0.37137
3697.05806	0.38642
3695.12949	0.40497
3693.20093	0.42761
3691.27236	0.45587
3689.34380	0.49038
3687.41523	0.52122
3685.48667	0.54162
3683.55811	0.56137
3681.62954	0.58823
3679.70098	0.62333
3677.77241	0.66387
3675.84385	0.71240
3673.91528	0.76788
3671.98672	0.80719
3670.05815	0.84527
3668.12959	0.89540
3666.20103	0.93472
3664.27246	0.96837
3662.34390	1.00996
3660.41533	1.05834
3658.48677	1.10813
3656.55820	1.16221
3654.62964	1.22008
3652.70107	1.26848
3650.77251	1.31715
3648.84395	1.38620
3646.91538	1.45483
3644.98682	1.49292
3643.05825	1.52285
3641.12969	1.55963
3639.20112	1.60383
3637.27256	1.65034
3635.34399	1.69725
3633.41543	1.74511
3631.48687	1.79174
3629.55830	1.84218
3627.62974	1.90195
3625.70117	1.94579
3623.77261	1.97241
3621.84404	2.00392
3619.91548	2.04549
3617.98691	2.09472
3616.05835	2.13834
3614.12979	2.17422
3612.20122	2.21178
3610.27266	2.24921
3608.34409	2.28943
3606.41553	2.33223
3604.48696	2.36946
3602.55840	2.40462
3600.62983	2.44583
3598.70127	2.48888
3596.77271	2.52870
3594.84414	2.57012
3592.91558	2.61195
3590.98701	2.64910
3589.05845	2.68612
3587.12988	2.73314
3585.20132	2.78009
3583.27275	2.81518
3581.34419	2.84906
3579.41562	2.88756
3577.48706	2.92847
3575.55850	2.97078
3573.62993	3.01531
3571.70137	3.05925
3569.77280	3.10373
3567.84424	3.15465
3565.91567	3.21127
3563.98711	3.25569
3562.05854	3.28997
3560.12998	3.32914
3558.20142	3.37359
3556.27285	3.41854
3554.34429	3.46256
3552.41572	3.50995
3550.48716	3.55988
3548.55859	3.60734
3546.63003	3.65306
3544.70146	3.70058
3542.77290	3.74770
3540.84434	3.79204
3538.91577	3.83713
3536.98721	3.88470
3535.05864	3.93466
3533.13008	3.98456
3531.20151	4.03349
3529.27295	4.08204
3527.34438	4.13079
3525.41582	4.17775
3523.48726	4.22436
3521.55869	4.27500
3519.63013	4.32557
3517.70156	4.37221
3515.77300	4.41517
3513.84443	4.45958
3511.91587	4.50837
3509.98730	4.55956
3508.05874	4.61288
3506.13018	4.66674
3504.20161	4.71815
3502.27305	4.76673
3500.34448	4.81275
3498.41592	4.85759
3496.48735	4.90393
3494.55879	4.95167
3492.63022	5.00128
3490.70166	5.05056
3488.77310	5.09787
3486.84453	5.14576
3484.91597	5.19515
3482.98740	5.25053
3481.05884	5.31176
3479.13027	5.36756
3477.20171	5.41298
3475.27314	5.45114
3473.34458	5.48816
3471.41602	5.52881
3469.48745	5.57476
3467.55889	5.62611
3465.63032	5.67779
3463.70176	5.73377
3461.77319	5.79795
3459.84463	5.86056
3457.91606	5.91581
3455.98750	5.96537
3454.05894	6.00566
3452.13037	6.04036
3450.20181	6.08121
3448.27324	6.13135
3446.34468	6.18993
3444.41611	6.24837
3442.48755	6.30090
3440.55898	6.34692
3438.63042	6.39857
3436.70186	6.46471
3434.77329	6.52408
3432.84473	6.56497
3430.91616	6.60849
3428.98760	6.66304
3427.05903	6.71469
3425.13047	6.77179
3423.20190	6.82567
3421.27334	6.86774
3419.34478	6.91188
3417.41621	6.95979
3415.48765	7.01298
3413.55908	7.07187
3411.63052	7.13014
3409.70195	7.16838
3407.77339	7.19465
3405.84482	7.21250
3403.91626	7.22277
3401.98770	7.25419
3400.05913	7.31461
3398.13057	7.37663
3396.20200	7.42659
3394.27344	7.47250
3392.34487	7.50359
3390.41631	7.54907
3388.48774	7.61597
3386.55918	7.66467
3384.63062	7.69751
3382.70205	7.74192
3380.77349	7.79344
3378.84492	7.83677
3376.91636	7.84703
3374.98779	7.80546
3373.05923	7.77551
3371.13066	7.79435
3369.20210	7.86222
3367.27354	7.95206
3365.34497	7.98816
3363.41641	7.94475
3361.48784	7.91876
3359.55928	7.95030
3357.63071	7.98295
3355.70215	8.04452
3353.77358	8.11314
3351.84502	8.15716
3349.91646	8.20535
3347.98789	8.21992
3346.05933	8.19352
3344.13076	8.16472
3342.20220	8.14353
3340.27363	8.17160
3338.34507	8.28581
3336.41650	8.42384
3334.48794	8.52787
3332.55937	8.52740
3330.63081	8.39925
3328.70225	8.26636
3326.77368	8.22129
3324.84512	8.20844
3322.91655	8.20672
3320.98799	8.28506
3319.05942	8.37111
3317.13086	8.39091
3315.20229	8.39090
3313.27373	8.42109
3311.34517	8.42379
3309.41660	8.34468
3307.48804	8.25803
3305.55947	8.25308
3303.63091	8.31305
3301.70234	8.28593
3299.77378	8.20440
3297.84521	8.21508
3295.91665	8.31049
3293.98809	8.39178
3292.05952	8.43376
3290.13096	8.44717
3288.20239	8.41400
3286.27383	8.37046
3284.34526	8.32555
3282.41670	8.28994
3280.48813	8.29335
3278.55957	8.35310
3276.63101	8.43232
3274.70244	8.45182
3272.77388	8.41482
3270.84531	8.39592
3268.91675	8.37407
3266.98818	8.30069
3265.05962	8.26554
3263.13105	8.31422
3261.20249	8.40789
3259.27393	8.45816
3257.34536	8.42594
3255.41680	8.41849
3253.48823	8.45336
3251.55967	8.44680
3249.63110	8.36104
3247.70254	8.23455
3245.77397	8.17909
3243.84541	8.23526
3241.91685	8.34530
3239.98828	8.44056
3238.05972	8.43276
3236.13115	8.37621
3234.20259	8.36736
3232.27402	8.40390
3230.34546	8.46467
3228.41689	8.45827
3226.48833	8.39456
3224.55977	8.37101
3222.63120	8.33671
3220.70264	8.25928
3218.77407	8.21162
3216.84551	8.17084
3214.91694	8.13296
3212.98838	8.12539
3211.05981	8.06713
3209.13125	8.00095
3207.20269	8.03202
3205.27412	8.08674
3203.34556	8.07531
3201.41699	8.02171
3199.48843	7.97895
3197.55986	7.97265
3195.63130	7.93962
3193.70273	7.86366
3191.77417	7.78410
3189.84561	7.68896
3187.91704	7.61856
3185.98848	7.60886
3184.05991	7.59901
3182.13135	7.53966
3180.20278	7.47604
3178.27422	7.42999
3176.34565	7.38635
3174.41709	7.33658
3172.48853	7.26454
3170.55996	7.19282
3168.63140	7.13939
3166.70283	7.07996
3164.77427	7.00971
3162.84570	6.93739
3160.91714	6.86637
3158.98857	6.80313
3157.06001	6.73875
3155.13145	6.67308
3153.20288	6.60508
3151.27432	6.52755
3149.34575	6.46540
3147.41719	6.41789
3145.48862	6.35165
3143.56006	6.26496
3141.63149	6.17365
3139.70293	6.08648
3137.77437	6.01719
3135.84580	5.97250
3133.91724	5.92286
3131.98867	5.83955
3130.06011	5.74666
3128.13154	5.67118
3126.20298	5.60515
3124.27441	5.53143
3122.34585	5.44962
3120.41729	5.37860
3118.48872	5.32137
3116.56016	5.25911
3114.63159	5.18363
3112.70303	5.10442
3110.77446	5.02982
3108.84590	4.95969
3106.91733	4.89070
3104.98877	4.82035
3103.06021	4.75044
3101.13164	4.67972
3099.20308	4.60660
3097.27451	4.53584
3095.34595	4.47040
3093.41738	4.40651
3091.48882	4.34039
3089.56025	4.27409
3087.63169	4.20871
3085.70312	4.14322
3083.77456	4.07662
3081.84600	4.00913
3079.91743	3.94373
3077.98887	3.88155
3076.06030	3.82160
3074.13174	3.76283
3072.20317	3.70307
3070.27461	3.64250
3068.34604	3.58386
3066.41748	3.52632
3064.48892	3.46762
3062.56035	3.40939
3060.63179	3.35360
3058.70322	3.29940
3056.77466	3.24586
3054.84609	3.19209
3052.91753	3.13806
3050.98896	3.08560
3049.06040	3.03489
3047.13184	2.98424
3045.20327	2.93315
3043.27471	2.88241
3041.34614	2.83239
3039.41758	2.78345
3037.48901	2.73592
3035.56045	2.68936
3033.63188	2.64332
3031.70332	2.59745
3029.77476	2.55175
3027.84619	2.50696
3025.91763	2.46321
3023.98906	2.41993
3022.06050	2.37719
3020.13193	2.33527
3018.20337	2.29392
3016.27480	2.25339
3014.34624	2.21410
3012.41768	2.17569
3010.48911	2.13778
3008.56055	2.10041
3006.63198	2.06352
3004.70342	2.02689
3002.77485	1.99025
3000.84629	1.95413
2998.91772	1.91933
2996.98916	1.88542
2995.06060	1.85163
2993.13203	1.81823
2991.20347	1.78577
2989.27490	1.75396
2987.34634	1.72249
2985.41777	1.69159
2983.48921	1.66113
2981.56064	1.63082
2979.63208	1.60085
2977.70352	1.57179
2975.77495	1.54382
2973.84639	1.51610
2971.91782	1.48808
2969.98926	1.46037
2968.06069	1.43335
2966.13213	1.40660
2964.20356	1.38015
2962.27500	1.35464
2960.34644	1.33011
2958.41787	1.30577
2956.48931	1.28147
2954.56074	1.25782
2952.63218	1.23490
2950.70361	1.21229
2948.77505	1.19002
2946.84648	1.16825
2944.91792	1.14681
2942.98936	1.12563
2941.06079	1.10476
2939.13223	1.08415
2937.20366	1.06364
2935.27510	1.04321
2933.34653	1.02313
2931.41797	1.00372
2929.48940	0.98504
2927.56084	0.96698
2925.63228	0.94952
2923.70371	0.93256
2921.77515	0.91572
2919.84658	0.89878
2917.91802	0.88205
2915.98945	0.86587
2914.06089	0.85045
2912.13232	0.83608
2910.20376	0.82233
2908.27520	0.80842
2906.34663	0.79454
2904.41807	0.78119
2902.48950	0.76823
2900.56094	0.75543
2898.63237	0.74287
2896.70381	0.73054
2894.77524	0.71832
2892.84668	0.70628
2890.91812	0.69441
2888.98955	0.68269
2887.06099	0.67143
2885.13242	0.66071
2883.20386	0.65011
2881.27529	0.63929
2879.34673	0.62826
2877.41816	0.61739
2875.48960	0.60681
2873.56104	0.59646
2871.63247	0.58639
2869.70391	0.57636
2867.77534	0.56620
2865.84678	0.55604
2863.91821	0.54604
2861.98965	0.53635
2860.06108	0.52680
2858.13252	0.51743
2856.20396	0.50847
2854.27539	0.49966
2852.34683	0.49097
2850.41826	0.48273
2848.48970	0.47472
2846.56113	0.46695
2844.63257	0.45991
2842.70400	0.45357
2840.77544	0.44754
2838.84687	0.44157
2836.91831	0.43561
2834.98975	0.42989
2833.06118	0.42440
2831.13262	0.41872
2829.20405	0.41279
2827.27549	0.40681
2825.34692	0.40091
2823.41836	0.39509
2821.48979	0.38926
2819.56123	0.38345
2817.63267	0.37776
2815.70410	0.37227
2813.77554	0.36679
2811.84697	0.36126
2809.91841	0.35592
2807.98984	0.35076
2806.06128	0.34558
2804.13271	0.34044
2802.20415	0.33552
2800.27559	0.33085
2798.34702	0.32640
2796.41846	0.32206
2794.48989	0.31755
2792.56133	0.31294
2790.63276	0.30843
2788.70420	0.30399
2786.77563	0.29968
2784.84707	0.29560
2782.91851	0.29167
2780.98994	0.28782
2779.06138	0.28404
2777.13281	0.28025
2775.20425	0.27643
2773.27568	0.27272
2771.34712	0.26918
2769.41855	0.26573
2767.48999	0.26232
2765.56143	0.25893
2763.63286	0.25563
2761.70430	0.25259
2759.77573	0.24959
2757.84717	0.24645
2755.91860	0.24342
2753.99004	0.24054
2752.06147	0.23770
2750.13291	0.23497
2748.20435	0.23235
2746.27578	0.22978
2744.34722	0.22726
2742.41865	0.22474
2740.49009	0.22226
2738.56152	0.21982
2736.63296	0.21737
2734.70439	0.21500
2732.77583	0.21273
2730.84727	0.21047
2728.91870	0.20831
2726.99014	0.20631
2725.06157	0.20441
2723.13301	0.20260
2721.20444	0.20065
2719.27588	0.19848
2717.34731	0.19639
2715.41875	0.19450
2713.49019	0.19276
2711.56162	0.19107
2709.63306	0.18940
2707.70449	0.18779
2705.77593	0.18627
2703.84736	0.18480
2701.91880	0.18326
2699.99023	0.18167
2698.06167	0.18016
2696.13311	0.17877
2694.20454	0.17741
2692.27598	0.17600
2690.34741	0.17465
2688.41885	0.17342
2686.49028	0.17218
2684.56172	0.17088
2682.63315	0.16959
2680.70459	0.16835
2678.77603	0.16726
2676.84746	0.16625
2674.91890	0.16524
2672.99033	0.16419
2671.06177	0.16314
2669.13320	0.16214
2667.20464	0.16112
2665.27607	0.16020
2663.34751	0.15949
2661.41895	0.15872
2659.49038	0.15776
2657.56182	0.15686
2655.63325	0.15613
2653.70469	0.15555
2651.77612	0.15508
2649.84756	0.15470
2647.91899	0.15422
2645.99043	0.15351
2644.06187	0.15284
2642.13330	0.15228
2640.20474	0.15169
2638.27617	0.15107
2636.34761	0.15051
2634.41904	0.15013
2632.49048	0.14991
2630.56191	0.14966
2628.63335	0.14925
2626.70479	0.14884
2624.77622	0.14855
2622.84766	0.14831
2620.91909	0.14811
2618.99053	0.14799
2617.06196	0.14790
2615.13340	0.14777
2613.20483	0.14765
2611.27627	0.14749
2609.34771	0.14729
2607.41914	0.14721
2605.49058	0.14731
2603.56201	0.14732
2601.63345	0.14724
2599.70488	0.14730
2597.77632	0.14754
2595.84775	0.14773
2593.91919	0.14777
2591.99062	0.14784
2590.06206	0.14813
2588.13350	0.14853
2586.20493	0.14894
2584.27637	0.14929
2582.34780	0.14953
2580.41924	0.14971
2578.49067	0.14989
2576.56211	0.15014
2574.63354	0.15048
2572.70498	0.15084
2570.77642	0.15124
2568.84785	0.15176
2566.91929	0.15230
2564.99072	0.15271
2563.06216	0.15314
2561.13359	0.15373
2559.20503	0.15434
2557.27646	0.15491
2555.34790	0.15546
2553.41934	0.15593
2551.49077	0.15641
2549.56221	0.15708
2547.63364	0.15792
2545.70508	0.15868
2543.77651	0.15924
2541.84795	0.15975
2539.91938	0.16036
2537.99082	0.16109
2536.06226	0.16180
2534.13369	0.16243
2532.20513	0.16302
2530.27656	0.16369
2528.34800	0.16450
2526.41943	0.16532
2524.49087	0.16604
2522.56230	0.16681
2520.63374	0.16770
2518.70518	0.16865
2516.77661	0.16953
2514.84805	0.17032
2512.91948	0.17110
2510.99092	0.17190
2509.06235	0.17274
2507.13379	0.17367
2505.20522	0.17459
2503.27666	0.17536
2501.34810	0.17620
2499.41953	0.17719
2497.49097	0.17812
2495.56240	0.17889
2493.63384	0.17963
2491.70527	0.18047
2489.77671	0.18148
2487.84814	0.18251
2485.91958	0.18342
2483.99102	0.18429
2482.06245	0.18528
2480.13389	0.18627
2478.20532	0.18714
2476.27676	0.18802
2474.34819	0.18900
2472.41963	0.18997
2470.49106	0.19093
2468.56250	0.19196
2466.63394	0.19300
2464.70537	0.19394
2462.77681	0.19481
2460.84824	0.19573
2458.91968	0.19668
2456.99111	0.19765
2455.06255	0.19866
2453.13398	0.19971
2451.20542	0.20078
2449.27686	0.20180
2447.34829	0.20285
2445.41973	0.20402
2443.49116	0.20517
2441.56260	0.20613
2439.63403	0.20705
2437.70547	0.20807
2435.77690	0.20916
2433.84834	0.21029
2431.91978	0.21132
2429.99121	0.21229
2428.06265	0.21343
2426.13408	0.21474
2424.20552	0.21595
2422.27695	0.21701
2420.34839	0.21806
2418.41982	0.21916
2416.49126	0.22021
2414.56270	0.22131
2412.63413	0.22259
2410.70557	0.22397
2408.77700	0.22530
2406.84844	0.22650
2404.91987	0.22762
2402.99131	0.22872
2401.06274	0.22988
2399.13418	0.23124
2397.20562	0.23272
2395.27705	0.23407
2393.34849	0.23528
2391.41992	0.23665
2389.49136	0.23847
2387.56279	0.24135
2385.63423	0.24625
2383.70566	0.25409
2381.77710	0.26501
2379.84854	0.27849
2377.91997	0.29416
2375.99141	0.31226
2374.06284	0.33304
2372.13428	0.35646
2370.20571	0.38198
2368.27715	0.40792
2366.34858	0.43191
2364.42002	0.45205
2362.49146	0.46725
2360.56289	0.47691
2358.63433	0.47909
2356.70576	0.47032
2354.77720	0.45092
2352.84863	0.42515
2350.92007	0.39885
2348.99150	0.38269
2347.06294	0.38312
2345.13437	0.40056
2343.20581	0.42459
2341.27725	0.43714
2339.34868	0.43762
2337.42012	0.43502
2335.49155	0.43233
2333.56299	0.42897
2331.63442	0.42619
2329.70586	0.42379
2327.77729	0.41999
2325.84873	0.41412
2323.92017	0.40683
2321.99160	0.39869
2320.06304	0.38974
2318.13447	0.38053
2316.20591	0.37237
2314.27734	0.36664
2312.34878	0.36330
2310.42021	0.36036
2308.49165	0.35608
2306.56309	0.35074
2304.63452	0.34583
2302.70596	0.34270
2300.77739	0.34115
2298.84883	0.33995
2296.92026	0.33876
2294.99170	0.33770
2293.06313	0.33656
2291.13457	0.33533
2289.20601	0.33436
2287.27744	0.33371
2285.34888	0.33328
2283.42031	0.33354
2281.49175	0.33507
2279.56318	0.33774
2277.63462	0.34068
2275.70605	0.34328
2273.77749	0.34557
2271.84893	0.34766
2269.92036	0.34973
2267.99180	0.35182
2266.06323	0.35381
2264.13467	0.35560
2262.20610	0.35730
2260.27754	0.35905
2258.34897	0.36085
2256.42041	0.36255
2254.49185	0.36409
2252.56328	0.36565
2250.63472	0.36733
2248.70615	0.36923
2246.77759	0.37131
2244.84902	0.37332
2242.92046	0.37519
2240.99189	0.37711
2239.06333	0.37915
2237.13477	0.38134
2235.20620	0.38358
2233.27764	0.38577
2231.34907	0.38790
2229.42051	0.39006
2227.49194	0.39237
2225.56338	0.39475
2223.63481	0.39700
2221.70625	0.39919
2219.77769	0.40144
2217.84912	0.40363
2215.92056	0.40580
2213.99199	0.40802
2212.06343	0.41022
2210.13486	0.41233
2208.20630	0.41445
2206.27773	0.41659
2204.34917	0.41866
2202.42061	0.42073
2200.49204	0.42289
2198.56348	0.42507
2196.63491	0.42714
2194.70635	0.42910
2192.77778	0.43106
2190.84922	0.43303
2188.92065	0.43492
2186.99209	0.43679
2185.06353	0.43872
2183.13496	0.44059
2181.20640	0.44233
2179.27783	0.44401
2177.34927	0.44557
2175.42070	0.44704
2173.49214	0.44854
2171.56357	0.45003
2169.63501	0.45141
2167.70645	0.45274
2165.77788	0.45406
2163.84932	0.45540
2161.92075	0.45671
2159.99219	0.45786
2158.06362	0.45881
2156.13506	0.45972
2154.20649	0.46065
2152.27793	0.46156
2150.34937	0.46238
2148.42080	0.46308
2146.49224	0.46373
2144.56367	0.46428
2142.63511	0.46473
2140.70654	0.46515
2138.77798	0.46550
2136.84941	0.46566
2134.92085	0.46571
2132.99229	0.46571
2131.06372	0.46564
2129.13516	0.46546
2127.20659	0.46519
2125.27803	0.46484
2123.34946	0.46436
2121.42090	0.46383
2119.49233	0.46339
2117.56377	0.46294
2115.63521	0.46237
2113.70664	0.46160
2111.77808	0.46066
2109.84951	0.45975
2107.92095	0.45885
2105.99238	0.45777
2104.06382	0.45655
2102.13525	0.45530
2100.20669	0.45405
2098.27812	0.45273
2096.34956	0.45125
2094.42100	0.44968
2092.49243	0.44811
2090.56387	0.44654
2088.63530	0.44481
2086.70674	0.44291
2084.77817	0.44100
2082.84961	0.43910
2080.92104	0.43709
2078.99248	0.43499
2077.06392	0.43290
2075.13535	0.43082
2073.20679	0.42872
2071.27822	0.42654
2069.34966	0.42427
2067.42109	0.42208
2065.49253	0.41995
2063.56396	0.41745
2061.63540	0.41471
2059.70684	0.41213
2057.77827	0.40966
2055.84971	0.40716
2053.92114	0.40457
2051.99258	0.40186
2050.06401	0.39915
2048.13545	0.39659
2046.20688	0.39411
2044.27832	0.39166
2042.34976	0.38917
2040.42119	0.38642
2038.49263	0.38345
2036.56406	0.38055
2034.63550	0.37775
2032.70693	0.37491
2030.77837	0.37200
2028.84980	0.36903
2026.92124	0.36621
2024.99268	0.36361
2023.06411	0.36099
2021.13555	0.35830
2019.20698	0.35587
2017.27842	0.35352
2015.34985	0.35054
2013.42129	0.34716
2011.49272	0.34411
2009.56416	0.34145
2007.63560	0.33875
2005.70703	0.33591
2003.77847	0.33308
2001.84990	0.33035
1999.92134	0.32775
1997.99277	0.32522
1996.06421	0.32282
1994.13564	0.32095
1992.20708	0.31931
1990.27852	0.31681
1988.34995	0.31363
1986.42139	0.31048
1984.49282	0.30750
1982.56426	0.30484
1980.63569	0.30240
1978.70713	0.30004
1976.77856	0.29774
1974.85000	0.29552
1972.92144	0.29338
1970.99287	0.29141
1969.06431	0.28995
1967.13574	0.28863
1965.20718	0.28640
1963.27861	0.28359
1961.35005	0.28119
1959.42148	0.27908
1957.49292	0.27718
1955.56436	0.27548
1953.63579	0.27367
1951.70723	0.27177
1949.77866	0.27013
1947.85010	0.26886
1945.92153	0.26806
1943.99297	0.26777
1942.06440	0.26683
1940.13584	0.26414
1938.20728	0.26123
1936.27871	0.25937
1934.35015	0.25808
1932.42158	0.25685
1930.49302	0.25556
1928.56445	0.25437
1926.63589	0.25352
1924.70732	0.25348
1922.77876	0.25369
1920.85020	0.25293
1918.92163	0.25199
1916.99307	0.25091
1915.06450	0.24883
1913.13594	0.24712
1911.20737	0.24688
1909.27881	0.24709
1907.35024	0.24633
1905.42168	0.24483
1903.49312	0.24364
1901.56455	0.24283
1899.63599	0.24222
1897.70742	0.24205
1895.77886	0.24235
1893.85029	0.24238
1891.92173	0.24224
1889.99316	0.24269
1888.06460	0.24237
1886.13604	0.24099
1884.20747	0.23998
1882.27891	0.23944
1880.35034	0.23910
1878.42178	0.23893
1876.49321	0.23883
1874.56465	0.23888
1872.63608	0.23970
1870.70752	0.24222
1868.77896	0.24564
1866.85039	0.24590
1864.92183	0.24313
1862.99326	0.24117
1861.06470	0.24082
1859.13613	0.24110
1857.20757	0.24130
1855.27900	0.24153
1853.35044	0.24191
1851.42187	0.24269
1849.49331	0.24418
1847.56475	0.24644
1845.63618	0.24934
1843.70762	0.25135
1841.77905	0.25029
1839.85049	0.24861
1837.92192	0.24886
1835.99336	0.24987
1834.06479	0.25076
1832.13623	0.25296
1830.20767	0.25690
1828.27910	0.25923
1826.35054	0.25929
1824.42197	0.25958
1822.49341	0.25942
1820.56484	0.25929
1818.63628	0.26029
1816.70771	0.26196
1814.77915	0.26373
1812.85059	0.26639
1810.92202	0.26975
1808.99346	0.27183
1807.06489	0.27272
1805.13633	0.27422
1803.20776	0.27745
1801.27920	0.28180
1799.35063	0.28530
1797.42207	0.28731
1795.49351	0.28997
1793.56494	0.29469
1791.63638	0.29967
1789.70781	0.30092
1787.77925	0.30073
1785.85068	0.30311
1783.92212	0.30738
1781.99355	0.31218
1780.06499	0.31697
1778.13643	0.32108
1776.20786	0.32556
1774.27930	0.33243
1772.35073	0.34149
1770.42217	0.34756
1768.49360	0.34984
1766.56504	0.35240
1764.63647	0.35687
1762.70791	0.36397
1760.77935	0.37262
1758.85078	0.37957
1756.92222	0.38653
1754.99365	0.39403
1753.06509	0.40187
1751.13652	0.41343
1749.20796	0.42704
1747.27939	0.43703
1745.35083	0.44429
1743.42227	0.45285
1741.49370	0.46328
1739.56514	0.47557
1737.63657	0.48769
1735.70801	0.50018
1733.77944	0.52000
1731.85088	0.53937
1729.92231	0.55171
1727.99375	0.56460
1726.06519	0.58003
1724.13662	0.59878
1722.20806	0.61988
1720.27949	0.64101
1718.35093	0.66817
1716.42236	0.70423
1714.49380	0.73186
1712.56523	0.75223
1710.63667	0.77413
1708.70811	0.80042
1706.77954	0.83232
1704.85098	0.86953
1702.92241	0.90147
1700.99385	0.93420
1699.06528	0.98264
1697.13672	1.02436
1695.20815	1.06281
1693.27959	1.09878
1691.35103	1.12968
1689.42246	1.16811
1687.49390	1.20961
1685.56533	1.25169
1683.63677	1.31354
1681.70820	1.37076
1679.77964	1.40557
1677.85107	1.44097
1675.92251	1.48400
1673.99395	1.53697
1672.06538	1.58372
1670.13682	1.62968
1668.20825	1.68501
1666.27969	1.72685
1664.35112	1.76427
1662.42256	1.81265
1660.49399	1.86434
1658.56543	1.90392
1656.63687	1.93902
1654.70830	1.97674
1652.77974	2.03536
1650.85117	2.08498
1648.92261	2.10556
1646.99404	2.13597
1645.06548	2.16699
1643.13691	2.18564
1641.20835	2.19845
1639.27979	2.21200
1637.35122	2.22486
1635.42266	2.23293
1633.49409	2.22594
1631.56553	2.20997
1629.63696	2.19535
1627.70840	2.17395
1625.77983	2.14726
1623.85127	2.11197
1621.92271	2.06697
1619.99414	2.02538
1618.06558	1.98604
1616.13701	1.92907
1614.20845	1.86624
1612.27988	1.81751
1610.35132	1.76960
1608.42275	1.71884
1606.49419	1.66700
1604.56562	1.61775
1602.63706	1.57057
1600.70850	1.52419
1598.77993	1.48074
1596.85137	1.44020
1594.92280	1.40095
1592.99424	1.36216
1591.06567	1.32622
1589.13711	1.29228
1587.20854	1.25991
1585.27998	1.22963
1583.35142	1.20119
1581.42285	1.17479
1579.49429	1.15264
1577.56572	1.13427
1575.63716	1.10991
1573.70859	1.08368
1571.78003	1.06606
1569.85146	1.04977
1567.92290	1.02956
1565.99434	1.01162
1564.06577	0.99708
1562.13721	0.98678
1560.20864	0.98230
1558.28008	0.97155
1556.35151	0.95081
1554.42295	0.93522
1552.49438	0.92223
1550.56582	0.91098
1548.63726	0.90020
1546.70869	0.89146
1544.78013	0.88603
1542.85156	0.88240
1540.92300	0.87701
1538.99443	0.86006
1537.06587	0.84179
1535.13730	0.83204
1533.20874	0.82344
1531.28018	0.81240
1529.35161	0.80413
1527.42305	0.79899
1525.49448	0.79429
1523.56592	0.79000
1521.63735	0.78547
1519.70879	0.77763
1517.78022	0.76976
1515.85166	0.76154
1513.92310	0.75250
1511.99453	0.74644
1510.06597	0.74468
1508.13740	0.74643
1506.20884	0.74186
1504.28027	0.72806
1502.35171	0.71952
1500.42314	0.71589
1498.49458	0.71442
1496.56602	0.71135
1494.63745	0.70561
1492.70889	0.70196
1490.78032	0.70219
1488.85176	0.70177
1486.92319	0.69625
1484.99463	0.68996
1483.06606	0.68628
1481.13750	0.68431
1479.20894	0.68268
1477.28037	0.68236
1475.35181	0.68399
1473.42324	0.68553
1471.49468	0.68220
1469.56611	0.67531
1467.63755	0.67086
1465.70898	0.66945
1463.78042	0.66796
1461.85186	0.66576
1459.92329	0.66639
1457.99473	0.66987
1456.06616	0.66791
1454.13760	0.65973
1452.20903	0.65396
1450.28047	0.65087
1448.35190	0.64888
1446.42334	0.64603
1444.49478	0.64248
1442.56621	0.63976
1440.63765	0.63830
1438.70908	0.63840
1436.78052	0.63911
1434.85195	0.63739
1432.92339	0.63460
1430.99482	0.63317
1429.06626	0.63176
1427.13770	0.62964
1425.20913	0.62855
1423.28057	0.62828
1421.35200	0.62812
1419.42344	0.62880
1417.49487	0.62769
1415.56631	0.62335
1413.63774	0.61951
1411.70918	0.61725
1409.78062	0.61553
1407.85205	0.61407
1405.92349	0.61340
1403.99492	0.61234
1402.06636	0.61051
1400.13779	0.60981
1398.20923	0.60995
1396.28066	0.60913
1394.35210	0.60669
1392.42354	0.60302
1390.49497	0.60034
1388.56641	0.59960
1386.63784	0.59877
1384.70928	0.59620
1382.78071	0.59361
1380.85215	0.59220
1378.92358	0.59160
1376.99502	0.59170
1375.06646	0.59241
1373.13789	0.59182
1371.20933	0.58972
1369.28076	0.58837
1367.35220	0.58766
1365.42363	0.58718
1363.49507	0.58758
1361.56650	0.58714
1359.63794	0.58458
1357.70937	0.58214
1355.78081	0.58078
1353.85225	0.57968
1351.92368	0.57843
1349.99512	0.57725
1348.06655	0.57610
1346.13799	0.57491
1344.20942	0.57395
1342.28086	0.57384
1340.35229	0.57460
1338.42373	0.57430
1336.49517	0.57196
1334.56660	0.56941
1332.63804	0.56780
1330.70947	0.56686
1328.78091	0.56606
1326.85234	0.56532
1324.92378	0.56485
1322.99521	0.56467
1321.06665	0.56470
1319.13809	0.56468
1317.20952	0.56407
1315.28096	0.56302
1313.35239	0.56197
1311.42383	0.56076
1309.49526	0.55939
1307.56670	0.55809
1305.63813	0.55684
1303.70957	0.55566
1301.78101	0.55451
1299.85244	0.55337
1297.92388	0.55240
1295.99531	0.55155
1294.06675	0.55067
1292.13818	0.54989
1290.20962	0.54929
1288.28105	0.54866
1286.35249	0.54785
1284.42393	0.54708
1282.49536	0.54654
1280.56680	0.54605
1278.63823	0.54538
1276.70967	0.54460
1274.78110	0.54398
1272.85254	0.54364
1270.92397	0.54333
1268.99541	0.54280
1267.06685	0.54219
1265.13828	0.54171
1263.20972	0.54142
1261.28115	0.54124
1259.35259	0.54090
1257.42402	0.54042
1255.49546	0.54005
1253.56689	0.53978
1251.63833	0.53949
1249.70977	0.53921
1247.78120	0.53906
1245.85264	0.53893
1243.92407	0.53855
1241.99551	0.53794
1240.06694	0.53731
1238.13838	0.53668
1236.20981	0.53596
1234.28125	0.53525
1232.35269	0.53451
1230.42412	0.53369
1228.49556	0.53292
1226.56699	0.53219
1224.63843	0.53136
1222.70986	0.53037
1220.78130	0.52936
1218.85273	0.52842
1216.92417	0.52751
1214.99561	0.52668
1213.06704	0.52599
1211.13848	0.52537
1209.20991	0.52479
1207.28135	0.52433
1205.35278	0.52394
1203.42422	0.52347
1201.49565	0.52285
1199.56709	0.52214
1197.63853	0.52135
1195.70996	0.52056
1193.78140	0.51991
1191.85283	0.51935
1189.92427	0.51887
1187.99570	0.51847
1186.06714	0.51817
1184.13857	0.51803
1182.21001	0.51802
1180.28145	0.51814
1178.35288	0.51853
1176.42432	0.51928
1174.49575	0.52023
1172.56719	0.52117
1170.63862	0.52203
1168.71006	0.52288
1166.78149	0.52375
1164.85293	0.52464
1162.92437	0.52551
1160.99580	0.52621
1159.06724	0.52675
1157.13867	0.52705
1155.21011	0.52672
1153.28154	0.52569
1151.35298	0.52416
1149.42441	0.52219
1147.49585	0.51975
1145.56729	0.51700
1143.63872	0.51420
1141.71016	0.51152
1139.78159	0.50920
1137.85303	0.50747
1135.92446	0.50613
1133.99590	0.50493
1132.06733	0.50408
1130.13877	0.50365
1128.21021	0.50315
1126.28164	0.50247
1124.35308	0.50178
1122.42451	0.50117
1120.49595	0.50075
1118.56738	0.50073
1116.63882	0.50116
1114.71025	0.50179
1112.78169	0.50247
1110.85312	0.50342
1108.92456	0.50454
1106.99600	0.50549
1105.06743	0.50627
1103.13887	0.50711
1101.21030	0.50818
1099.28174	0.50949
1097.35317	0.51111
1095.42461	0.51346
1093.49604	0.51687
1091.56748	0.52172
1089.63892	0.52827
1087.71035	0.53625
1085.78179	0.54510
1083.85322	0.55405
1081.92466	0.56202
1079.99609	0.56799
1078.06753	0.57116
1076.13896	0.57106
1074.21040	0.56784
1072.28184	0.56237
1070.35327	0.55566
1068.42471	0.54828
1066.49614	0.54106
1064.56758	0.53475
1062.63901	0.52948
1060.71045	0.52505
1058.78188	0.52114
1056.85332	0.51758
1054.92476	0.51433
1052.99619	0.51143
1051.06763	0.50925
1049.13906	0.50818
1047.21050	0.50809
1045.28193	0.50855
1043.35337	0.50920
1041.42480	0.50996
1039.49624	0.51072
1037.56768	0.51125
1035.63911	0.51147
1033.71055	0.51122
1031.78198	0.51026
1029.85342	0.50872
1027.92485	0.50697
1025.99629	0.50521
1024.06772	0.50373
1022.13916	0.50291
1020.21060	0.50261
1018.28203	0.50248
1016.35347	0.50237
1014.42490	0.50231
1012.49634	0.50217
1010.56777	0.50186
1008.63921	0.50161
1006.71064	0.50180
1004.78208	0.50261
1002.85352	0.50409
1000.92495	0.50635
998.99639	0.50965
997.06782	0.51385
995.13926	0.51828
993.21069	0.52235
991.28213	0.52566
989.35356	0.52761
987.42500	0.52815
985.49644	0.52806
983.56787	0.52809
981.63931	0.52852
979.71074	0.52939
977.78218	0.53065
975.85361	0.53243
973.92505	0.53496
971.99648	0.53810
970.06792	0.54154
968.13936	0.54521
966.21079	0.54927
964.28223	0.55373
962.35366	0.55850
960.42510	0.56362
958.49653	0.56891
956.56797	0.57430
954.63940	0.58021
952.71084	0.58655
950.78228	0.59276
948.85371	0.59885
946.92515	0.60518
944.99658	0.61160
943.06802	0.61797
941.13945	0.62429
939.21089	0.63023
937.28232	0.63594
935.35376	0.64188
933.42520	0.64774
931.49663	0.65342
929.56807	0.65927
927.63950	0.66529
925.71094	0.67139
923.78237	0.67755
921.85381	0.68395
919.92524	0.69085
917.99668	0.69825
916.06812	0.70583
914.13955	0.71336
912.21099	0.72093
910.28242	0.72905
908.35386	0.73803
906.42529	0.74744
904.49673	0.75619
902.56816	0.76420
900.63960	0.77337
898.71104	0.78395
896.78247	0.79338
894.85391	0.80105
892.92534	0.80966
890.99678	0.82040
889.06821	0.83222
887.13965	0.84464
885.21108	0.85655
883.28252	0.86676
881.35396	0.87661
879.42539	0.88788
877.49683	0.90028
875.56826	0.91140
873.63970	0.92094
871.71113	0.93211
869.78257	0.94537
867.85400	0.95783
865.92544	0.96818
863.99687	0.97876
862.06831	0.99214
860.13975	1.00623
858.21118	1.01789
856.28262	1.02810
854.35405	1.03947
852.42549	1.05104
850.49692	1.06069
848.56836	1.07114
846.63979	1.08449
844.71123	1.09867
842.78267	1.11260
840.85410	1.12639
838.92554	1.14012
836.99697	1.15354
835.06841	1.16352
833.13984	1.17005
831.21128	1.18029
829.28271	1.19861
827.35415	1.21862
825.42559	1.23196
823.49702	1.24115
821.56846	1.24966
819.63989	1.25713
817.71133	1.26702
815.78276	1.28136
813.85420	1.29325
811.92563	1.30118
809.99707	1.31157
808.06851	1.32183
806.13994	1.33270
804.21138	1.34996
802.28281	1.38064
800.35425	1.41556
798.42568	1.42508
796.49712	1.41827
794.56855	1.40979
792.63999	1.39639
790.71143	1.39167
788.78286	1.39336
786.85430	1.38925
784.92573	1.39991
782.99717	1.42420
781.06860	1.43314
779.14004	1.44805
777.21147	1.49576
775.28291	1.56888
773.35435	1.63639
771.42578	1.60275
769.49722	1.51583
767.56865	1.51844
765.64009	1.49490
763.71152	1.36920
761.78296	1.29412
759.85439	1.30305
757.92583	1.39741
755.99727	1.65043
754.06870	1.91085
752.14014	1.81274
750.21157	1.65604
748.28301	1.34377
746.35444	1.12587
744.42588	1.06393
742.49731	1.10065
740.56875	1.21106
738.64019	1.45508
736.71162	1.44821
734.78306	1.14107
732.85449	1.02237
730.92593	0.98677
728.99736	0.84473
727.06880	0.74014
725.14023	0.61449
723.21167	0.39569
721.28311	0.26079
719.35454	0.22160
717.42598	0.28560
715.49741	0.38796
713.56885	0.29888
711.64028	0.01584
709.71172	-0.07065
707.78315	0.17907
705.85459	0.29607
703.92603	0.17451
701.99746	0.09129
700.06890	0.08537
698.14033	0.14335
696.21177	0.24760
694.28320	0.39403
692.35464	0.52109
690.42607	0.54322
688.49751	0.58577
686.56895	0.70730
684.64038	0.87437
682.71182	0.88731
680.78325	0.64879
678.85469	0.43802
676.92612	0.33558
674.99756	0.34635
673.06899	0.38611
671.14043	0.41707
669.21187	0.46405
667.28330	0.41932
665.35474	0.33568
663.42617	0.29827
661.49761	0.25418
659.56904	0.20012
657.64048	0.20506
655.71191	0.29951
653.78335	0.36438
651.85479	0.33845
649.92622	0.33033
647.99766	0.32770
646.06909	0.30779
644.14053	0.32169
642.21196	0.42991
640.28340	0.51127
638.35483	0.42218
636.42627	0.40435
634.49771	0.52574
632.56914	0.48995
630.64058	0.42688
628.71201	0.44683
626.78345	0.50650
624.85488	0.46712
622.92632	0.34931
620.99775	0.30004
619.06919	0.29571
617.14062	0.32645
615.21206	0.37830
613.28350	0.32268
611.35493	0.25857
609.42637	0.28173
607.49780	0.36923
605.56924	0.42273
603.64067	0.40297
601.71211	0.42832
599.78354	0.45448
597.85498	0.39129
595.92642	0.30475
593.99785	0.27294
592.06929	0.38064
590.14072	0.59263
588.21216	0.69670
586.28359	0.78010
584.35503	1.11484
582.42646	0.76647
580.49790	0.52552
578.56934	0.43987
576.64077	0.37975
574.71221	0.31730
572.78364	0.32154
570.85508	0.43882
568.92651	0.51153
566.99795	0.35311
565.06938	0.27979
563.14082	0.31208
561.21226	0.37515
559.28369	0.37590
557.35513	0.28770
555.42656	0.22961
553.49800	0.27359
551.56943	0.33047
549.64087	0.29261
547.71230	0.24402
545.78374	0.23658
543.85518	0.23897
541.92661	0.24290
539.99805	0.25255
538.06948	0.26181
536.14092	0.26837
534.21235	0.28083
532.28379	0.32706
530.35522	0.39470
528.42666	0.38319
526.49810	0.28514
524.56953	0.21139
522.64097	0.20941
520.71240	0.25299
518.78384	0.28690
516.85527	0.31427
514.92671	0.36615
512.99814	0.38600
511.06958	0.32090
509.14102	0.24272
507.21245	0.21721
505.28389	0.26551
503.35532	0.34183
501.42676	0.35460
499.49819	0.36046
