3997.91411	0.05802
3995.98555	0.05833
3994.05698	0.05892
3992.12842	0.05958
3990.19985	0.05973
3988.27129	0.05958
3986.34272	0.05982
3984.41416	0.06046
3982.48560	0.06084
3980.55703	0.06077
3978.62847	0.06061
3976.69990	0.06073
3974.77134	0.06138
3972.84277	0.06215
3970.91421	0.06251
3968.98564	0.06255
3967.05708	0.06237
3965.12852	0.06231
3963.19995	0.06266
3961.27139	0.06335
3959.34282	0.06392
3957.41426	0.06387
3955.48569	0.06345
3953.55713	0.06337
3951.62856	0.06395
3949.70000	0.06469
3947.77144	0.06473
3945.84287	0.06419
3943.91431	0.06401
3941.98574	0.06417
3940.05718	0.06394
3938.12861	0.06360
3936.20005	0.06352
3934.27148	0.06373
3932.34292	0.06425
3930.41436	0.06458
3928.48579	0.06431
3926.55723	0.06387
3924.62866	0.06389
3922.70010	0.06416
3920.77153	0.06415
3918.84297	0.06428
3916.91440	0.06457
3914.98584	0.06426
3913.05728	0.06367
3911.12871	0.06326
3909.20015	0.06279
3907.27158	0.06274
3905.34302	0.06359
3903.41445	0.06456
3901.48589	0.06483
3899.55732	0.06496
3897.62876	0.06498
3895.70020	0.06455
3893.77163	0.06440
3891.84307	0.06499
3889.91450	0.06529
3887.98594	0.06462
3886.05737	0.06429
3884.12881	0.06481
3882.20024	0.06519
3880.27168	0.06541
3878.34312	0.06549
3876.41455	0.06523
3874.48599	0.06570
3872.55742	0.06702
3870.62886	0.06795
3868.70029	0.06799
3866.77173	0.06744
3864.84316	0.06744
3862.91460	0.06814
3860.98604	0.06833
3859.05747	0.06815
3857.12891	0.06835
3855.20034	0.06921
3853.27178	0.07094
3851.34321	0.07193
3849.41465	0.07058
3847.48608	0.06930
3845.55752	0.06940
3843.62896	0.07076
3841.70039	0.07271
3839.77183	0.07484
3837.84326	0.07669
3835.91470	0.07692
3833.98613	0.07586
3832.05757	0.07526
3830.12900	0.07560
3828.20044	0.07635
3826.27187	0.07727
3824.34331	0.07816
3822.41475	0.07933
3820.48618	0.08167
3818.55762	0.08323
3816.62905	0.08326
3814.70049	0.08367
3812.77192	0.08386
3810.84336	0.08365
3808.91479	0.08419
3806.98623	0.08596
3805.05767	0.08804
3803.12910	0.08944
3801.20054	0.09087
3799.27197	0.09238
3797.34341	0.09342
3795.41484	0.09419
3793.48628	0.09447
3791.55771	0.09483
3789.62915	0.09593
3787.70059	0.09758
3785.77202	0.09939
3783.84346	0.10095
3781.91489	0.10224
3779.98633	0.10386
3778.05776	0.10586
3776.12920	0.10721
3774.20063	0.10806
3772.27207	0.10942
3770.34351	0.11192
3768.41494	0.11484
3766.48638	0.11666
3764.55781	0.11815
3762.62925	0.12000
3760.70068	0.12231
3758.77212	0.12539
3756.84355	0.12827
3754.91499	0.13048
3752.98643	0.13324
3751.05786	0.13771
3749.12930	0.14258
3747.20073	0.14488
3745.27217	0.14660
3743.34360	0.15027
3741.41504	0.15413
3739.48647	0.15688
3737.55791	0.16019
3735.62935	0.16551
3733.70078	0.17225
3731.77222	0.17752
3729.84365	0.18132
3727.91509	0.18537
3725.98652	0.19085
3724.05796	0.19736
3722.12939	0.20401
3720.20083	0.21080
3718.27227	0.21747
3716.34370	0.22431
3714.41514	0.23187
3712.48657	0.24158
3710.55801	0.25520
3708.62944	0.26951
3706.70088	0.28103
3704.77231	0.29203
3702.84375	0.30540
3700.91519	0.32275
3698.98662	0.34119
3697.05806	0.35845
3695.12949	0.37707
3693.20093	0.39752
3691.27236	0.42005
3689.34380	0.44835
3687.41523	0.48228
3685.48667	0.51251
3683.55811	0.53863
3681.62954	0.56662
3679.70098	0.59841
3677.77241	0.63183
3675.84385	0.67141
3673.91528	0.72460
3671.98672	0.76902
3670.05815	0.80824
3668.12959	0.86026
3666.20103	0.90849
3664.27246	0.94975
3662.34390	0.99404
3660.41533	1.04202
3658.48677	1.08950
3656.55820	1.13963
3654.62964	1.19489
3652.70107	1.24170
3650.77251	1.28325
3648.84395	1.33950
3646.91538	1.40605
3644.98682	1.45615
3643.05825	1.49581
3641.12969	1.53615
3639.20112	1.58068
3637.27256	1.62628
3635.34399	1.67082
3633.41543	1.71458
3631.48687	1.75539
3629.55830	1.79784
3627.62974	1.85197
3625.70117	1.90069
3623.77261	1.93407
3621.84404	1.96675
3619.91548	2.00452
3617.98691	2.05105
3616.05835	2.09755
3614.12979	2.13621
3612.20122	2.17440
3610.27266	2.21270
3608.34409	2.25233
3606.41553	2.29444
3604.48696	2.33402
3602.55840	2.37010
3600.62983	2.40834
3598.70127	2.44933
3596.77271	2.49007
3594.84414	2.53187
3592.91558	2.57370
3590.98701	2.61173
3589.05845	2.64766
3587.12988	2.69154
3585.20132	2.74096
3583.27275	2.78359
3581.34419	2.82228
3579.41562	2.86336
3577.48706	2.90646
3575.55850	2.94883
3573.62993	2.99156
3571.70137	3.03293
3569.77280	3.07244
3567.84424	3.11628
3565.91567	3.16990
3563.98711	3.21949
3562.05854	3.25975
3560.12998	3.30215
3558.20142	3.34905
3556.27285	3.39552
3554.34429	3.43872
3552.41572	3.48356
3550.48716	3.53108
3548.55859	3.57598
3546.63003	3.61911
3544.70146	3.66657
3542.77290	3.71590
3540.84434	3.76306
3538.91577	3.81072
3536.98721	3.85970
3535.05864	3.90933
3533.13008	3.95714
3531.20151	4.00489
3529.27295	4.05346
3527.34438	4.10145
3525.41582	4.14942
3523.48726	4.19782
3521.55869	4.24616
3519.63013	4.29414
3517.70156	4.34564
3515.77300	4.39886
3513.84443	4.44702
3511.91587	4.49056
3509.98730	4.53545
3508.05874	4.58349
3506.13018	4.63265
3504.20161	4.68151
3502.27305	4.72960
3500.34448	4.77874
3498.41592	4.82909
3496.48735	4.87799
3494.55879	4.92509
3492.63022	4.97157
3490.70166	5.01579
3488.77310	5.06061
3486.84453	5.11060
3484.91597	5.16275
3482.98740	5.21340
3481.05884	5.26540
3479.13027	5.31846
3477.20171	5.37113
3475.27314	5.42602
3473.34458	5.47396
3471.41602	5.51082
3469.48745	5.55197
3467.55889	5.60074
3465.63032	5.65161
3463.70176	5.71228
3461.77319	5.77468
3459.84463	5.81849
3457.91606	5.85800
3455.98750	5.91591
3454.05894	5.97610
3452.13037	6.02124
3450.20181	6.05971
3448.27324	6.09858
3446.34468	6.14764
3444.41611	6.21756
3442.48755	6.29461
3440.55898	6.34192
3438.63042	6.36143
3436.70186	6.38163
3434.77329	6.41532
3432.84473	6.47365
3430.91616	6.55597
3428.98760	6.64465
3427.05903	6.70353
3425.13047	6.73908
3423.20190	6.77758
3421.27334	6.80838
3419.34478	6.84879
3417.41621	6.92418
3415.48765	6.98424
3413.55908	7.00575
3411.63052	7.05817
3409.70195	7.13689
3407.77339	7.17655
3405.84482	7.19093
3403.91626	7.23540
3401.98770	7.28706
3400.05913	7.31231
3398.13057	7.33757
3396.20200	7.37164
3394.27344	7.42070
3392.34487	7.47207
3390.41631	7.49204
3388.48774	7.49595
3386.55918	7.55685
3384.63062	7.67053
3382.70205	7.73127
3380.77349	7.70207
3378.84492	7.68190
3376.91636	7.74117
3374.98779	7.82553
3373.05923	7.87914
3371.13066	7.88058
3369.20210	7.87229
3367.27354	7.89533
3365.34497	7.94548
3363.41641	8.00469
3361.48784	8.01643
3359.55928	7.98441
3357.63071	7.95340
3355.70215	7.95781
3353.77358	7.99327
3351.84502	8.04390
3349.91646	8.10000
3347.98789	8.12914
3346.05933	8.11160
3344.13076	8.07798
3342.20220	8.05419
3340.27363	8.04798
3338.34507	8.07752
3336.41650	8.10758
3334.48794	8.10775
3332.55937	8.09820
3330.63081	8.15740
3328.70225	8.25529
3326.77368	8.23548
3324.84512	8.15605
3322.91655	8.15972
3320.98799	8.22379
3319.05942	8.24402
3317.13086	8.25214
3315.20229	8.26771
3313.27373	8.21638
3311.34517	8.14167
3309.41660	8.13428
3307.48804	8.19849
3305.55947	8.26917
3303.63091	8.31535
3301.70234	8.35659
3299.77378	8.38340
3297.84521	8.36514
3295.91665	8.30448
3293.98809	8.18246
3292.05952	8.07072
3290.13096	8.07272
3288.20239	8.13130
3286.27383	8.18641
3284.34526	8.26510
3282.41670	8.32689
3280.48813	8.32465
3278.55957	8.34505
3276.63101	8.42105
3274.70244	8.42667
3272.77388	8.31142
3270.84531	8.24627
3268.91675	8.35157
3266.98818	8.51557
3265.05962	8.51927
3263.13105	8.40682
3261.20249	8.39040
3259.27393	8.42686
3257.34536	8.37817
3255.41680	8.27045
3253.48823	8.18351
3251.55967	8.17044
3249.63110	8.21239
3247.70254	8.27462
3245.77397	8.37332
3243.84541	8.45656
3241.91685	8.38805
3239.98828	8.26428
3238.05972	8.23392
3236.13115	8.24658
3234.20259	8.27100
3232.27402	8.30468
3230.34546	8.27022
3228.41689	8.19557
3226.48833	8.17117
3224.55977	8.19170
3222.63120	8.22885
3220.70264	8.24531
3218.77407	8.20271
3216.84551	8.18238
3214.91694	8.25534
3212.98838	8.29498
3211.05981	8.19800
3209.13125	8.06286
3207.20269	7.96708
3205.27412	7.91002
3203.34556	7.85615
3201.41699	7.80245
3199.48843	7.78633
3197.55986	7.81036
3195.63130	7.81920
3193.70273	7.77574
3191.77417	7.69693
3189.84561	7.59886
3187.91704	7.51859
3185.98848	7.48748
3184.05991	7.47664
3182.13135	7.45463
3180.20278	7.42660
3178.27422	7.38990
3176.34565	7.33894
3174.41709	7.28268
3172.48853	7.21565
3170.55996	7.12710
3168.63140	7.04163
3166.70283	6.98314
3164.77427	6.94150
3162.84570	6.90779
3160.91714	6.86681
3158.98857	6.79934
3157.06001	6.71959
3155.13145	6.64601
3153.20288	6.57525
3151.27432	6.50090
3149.34575	6.42620
3147.41719	6.35733
3145.48862	6.28858
3143.56006	6.22002
3141.63149	6.15615
3139.70293	6.08741
3137.77437	6.01626
3135.84580	5.95149
3133.91724	5.88333
3131.98867	5.80017
3130.06011	5.71440
3128.13154	5.63812
3126.20298	5.56535
3124.27441	5.49493
3122.34585	5.42740
3120.41729	5.35922
3118.48872	5.28889
3116.56016	5.21617
3114.63159	5.14256
3112.70303	5.07130
3110.77446	5.00040
3108.84590	4.92935
3106.91733	4.86271
3104.98877	4.79825
3103.06021	4.73264
3101.13164	4.66512
3099.20308	4.59657
3097.27451	4.52929
3095.34595	4.46378
3093.41738	4.39854
3091.48882	4.33271
3089.56025	4.26703
3087.63169	4.20030
3085.70312	4.13404
3083.77456	4.07141
3081.84600	4.01076
3079.91743	3.94911
3077.98887	3.88706
3076.06030	3.82618
3074.13174	3.76545
3072.20317	3.70382
3070.27461	3.64314
3068.34604	3.58569
3066.41748	3.52975
3064.48892	3.47251
3062.56035	3.41462
3060.63179	3.35819
3058.70322	3.30287
3056.77466	3.24751
3054.84609	3.19259
3052.91753	3.13908
3050.98896	3.08726
3049.06040	3.03550
3047.13184	2.98380
3045.20327	2.93325
3043.27471	2.88330
3041.34614	2.83493
3039.41758	2.78817
3037.48901	2.74119
3035.56045	2.69414
3033.63188	2.64749
3031.70332	2.60085
3029.77476	2.55475
3027.84619	2.51023
3025.91763	2.46728
3023.98906	2.42490
3022.06050	2.38291
3020.13193	2.34175
3018.20337	2.30099
3016.27480	2.26031
3014.34624	2.21996
3012.41768	2.18028
3010.48911	2.14142
3008.56055	2.10337
3006.63198	2.06640
3004.70342	2.03025
3002.77485	1.99416
3000.84629	1.95859
2998.91772	1.92413
2996.98916	1.89050
2995.06060	1.85742
2993.13203	1.82477
2991.20347	1.79266
2989.27490	1.76099
2987.34634	1.72942
2985.41777	1.69834
2983.48921	1.66839
2981.56064	1.63953
2979.63208	1.61127
2977.70352	1.58309
2975.77495	1.55481
2973.84639	1.52675
2971.91782	1.49908
2969.98926	1.47178
2968.06069	1.44513
2966.13213	1.41935
2964.20356	1.39408
2962.27500	1.36888
2960.34644	1.34396
2958.41787	1.31950
2956.48931	1.29528
2954.56074	1.27129
2952.63218	1.24780
2950.70361	1.22499
2948.77505	1.20255
2946.84648	1.18030
2944.91792	1.15832
2942.98936	1.13665
2941.06079	1.11570
2939.13223	1.09516
2937.20366	1.07422
2935.27510	1.05384
2933.34653	1.03487
2931.41797	1.01613
2929.48940	0.99667
2927.56084	0.97696
2925.63228	0.95801
2923.70371	0.94053
2921.77515	0.92395
2919.84658	0.90710
2917.91802	0.88981
2915.98945	0.87315
2914.06089	0.85784
2912.13232	0.84338
2910.20376	0.82927
2908.27520	0.81530
2906.34663	0.80130
2904.41807	0.78742
2902.48950	0.77399
2900.56094	0.76102
2898.63237	0.74844
2896.70381	0.73618
2894.77524	0.72398
2892.84668	0.71171
2890.91812	0.69970
2888.98955	0.68831
2887.06099	0.67717
2885.13242	0.66596
2883.20386	0.65494
2881.27529	0.64437
2879.34673	0.63418
2877.41816	0.62380
2875.48960	0.61303
2873.56104	0.60262
2871.63247	0.59263
2869.70391	0.58222
2867.77534	0.57134
2865.84678	0.56069
2863.91821	0.55036
2861.98965	0.53998
2860.06108	0.52959
2858.13252	0.51956
2856.20396	0.51006
2854.27539	0.50116
2852.34683	0.49239
2850.41826	0.48342
2848.48970	0.47474
2846.56113	0.46703
2844.63257	0.46033
2842.70400	0.45422
2840.77544	0.44840
2838.84687	0.44272
2836.91831	0.43701
2834.98975	0.43131
2833.06118	0.42559
2831.13262	0.41980
2829.20405	0.41397
2827.27549	0.40821
2825.34692	0.40246
2823.41836	0.39659
2821.48979	0.39059
2819.56123	0.38461
2817.63267	0.37877
2815.70410	0.37306
2813.77554	0.36748
2811.84697	0.36198
2809.91841	0.35647
2807.98984	0.35102
2806.06128	0.34575
2804.13271	0.34076
2802.20415	0.33601
2800.27559	0.33132
2798.34702	0.32653
2796.41846	0.32177
2794.48989	0.31714
2792.56133	0.31260
2790.63276	0.30816
2788.70420	0.30380
2786.77563	0.29943
2784.84707	0.29520
2782.91851	0.29124
2780.98994	0.28737
2779.06138	0.28341
2777.13281	0.27947
2775.20425	0.27575
2773.27568	0.27223
2771.34712	0.26864
2769.41855	0.26498
2767.48999	0.26150
2765.56143	0.25816
2763.63286	0.25482
2761.70430	0.25158
2759.77573	0.24842
2757.84717	0.24530
2755.91860	0.24226
2753.99004	0.23931
2752.06147	0.23644
2750.13291	0.23359
2748.20435	0.23075
2746.27578	0.22801
2744.34722	0.22537
2742.41865	0.22279
2740.49009	0.22023
2738.56152	0.21775
2736.63296	0.21533
2734.70439	0.21292
2732.77583	0.21051
2730.84727	0.20817
2728.91870	0.20597
2726.99014	0.20384
2725.06157	0.20176
2723.13301	0.19976
2721.20444	0.19787
2719.27588	0.19600
2717.34731	0.19397
2715.41875	0.19189
2713.49019	0.19007
2711.56162	0.18852
2709.63306	0.18694
2707.70449	0.18523
2705.77593	0.18355
2703.84736	0.18188
2701.91880	0.18016
2699.99023	0.17860
2698.06167	0.17724
2696.13311	0.17584
2694.20454	0.17431
2692.27598	0.17285
2690.34741	0.17153
2688.41885	0.17022
2686.49028	0.16896
2684.56172	0.16777
2682.63315	0.16656
2680.70459	0.16543
2678.77603	0.16446
2676.84746	0.16345
2674.91890	0.16234
2672.99033	0.16128
2671.06177	0.16043
2669.13320	0.15962
2667.20464	0.15854
2665.27607	0.15731
2663.34751	0.15629
2661.41895	0.15549
2659.49038	0.15466
2657.56182	0.15380
2655.63325	0.15302
2653.70469	0.15244
2651.77612	0.15200
2649.84756	0.15146
2647.91899	0.15073
2645.99043	0.15003
2644.06187	0.14954
2642.13330	0.14912
2640.20474	0.14859
2638.27617	0.14810
2636.34761	0.14778
2634.41904	0.14754
2632.49048	0.14722
2630.56191	0.14680
2628.63335	0.14646
2626.70479	0.14615
2624.77622	0.14573
2622.84766	0.14531
2620.91909	0.14498
2618.99053	0.14476
2617.06196	0.14469
2615.13340	0.14466
2613.20483	0.14453
2611.27627	0.14442
2609.34771	0.14440
2607.41914	0.14438
2605.49058	0.14430
2603.56201	0.14430
2601.63345	0.14439
2599.70488	0.14433
2597.77632	0.14422
2595.84775	0.14427
2593.91919	0.14447
2591.99062	0.14475
2590.06206	0.14498
2588.13350	0.14505
2586.20493	0.14515
2584.27637	0.14550
2582.34780	0.14584
2580.41924	0.14602
2578.49067	0.14623
2576.56211	0.14657
2574.63354	0.14696
2572.70498	0.14740
2570.77642	0.14776
2568.84785	0.14811
2566.91929	0.14860
2564.99072	0.14905
2563.06216	0.14950
2561.13359	0.15001
2559.20503	0.15053
2557.27646	0.15109
2555.34790	0.15165
2553.41934	0.15217
2551.49077	0.15272
2549.56221	0.15328
2547.63364	0.15386
2545.70508	0.15452
2543.77651	0.15517
2541.84795	0.15578
2539.91938	0.15638
2537.99082	0.15703
2536.06226	0.15777
2534.13369	0.15853
2532.20513	0.15927
2530.27656	0.15996
2528.34800	0.16069
2526.41943	0.16144
2524.49087	0.16210
2522.56230	0.16277
2520.63374	0.16359
2518.70518	0.16455
2516.77661	0.16547
2514.84805	0.16628
2512.91948	0.16703
2510.99092	0.16783
2509.06235	0.16870
2507.13379	0.16957
2505.20522	0.17042
2503.27666	0.17125
2501.34810	0.17205
2499.41953	0.17290
2497.49097	0.17381
2495.56240	0.17465
2493.63384	0.17549
2491.70527	0.17645
2489.77671	0.17746
2487.84814	0.17839
2485.91958	0.17933
2483.99102	0.18020
2482.06245	0.18093
2480.13389	0.18174
2478.20532	0.18275
2476.27676	0.18376
2474.34819	0.18469
2472.41963	0.18562
2470.49106	0.18648
2468.56250	0.18729
2466.63394	0.18818
2464.70537	0.18920
2462.77681	0.19026
2460.84824	0.19125
2458.91968	0.19225
2456.99111	0.19328
2455.06255	0.19420
2453.13398	0.19511
2451.20542	0.19608
2449.27686	0.19709
2447.34829	0.19823
2445.41973	0.19936
2443.49116	0.20031
2441.56260	0.20127
2439.63403	0.20232
2437.70547	0.20334
2435.77690	0.20438
2433.84834	0.20553
2431.91978	0.20677
2429.99121	0.20798
2428.06265	0.20912
2426.13408	0.21019
2424.20552	0.21120
2422.27695	0.21218
2420.34839	0.21325
2418.41982	0.21449
2416.49126	0.21573
2414.56270	0.21680
2412.63413	0.21784
2410.70557	0.21904
2408.77700	0.22040
2406.84844	0.22172
2404.91987	0.22287
2402.99131	0.22403
2401.06274	0.22524
2399.13418	0.22635
2397.20562	0.22753
2395.27705	0.22888
2393.34849	0.23019
2391.41992	0.23141
2389.49136	0.23278
2387.56279	0.23438
2385.63423	0.23626
2383.70566	0.23864
2381.77710	0.24166
2379.84854	0.24520
2377.91997	0.24913
2375.99141	0.25338
2374.06284	0.25814
2372.13428	0.26359
2370.20571	0.26941
2368.27715	0.27507
2366.34858	0.28075
2364.42002	0.28652
2362.49146	0.29147
2360.56289	0.29518
2358.63433	0.29694
2356.70576	0.29591
2354.77720	0.29305
2352.84863	0.28966
2350.92007	0.28621
2348.99150	0.28422
2347.06294	0.28505
2345.13437	0.28927
2343.20581	0.29529
2341.27725	0.29935
2339.34868	0.30082
2337.42012	0.30173
2335.49155	0.30271
2333.56299	0.30315
2331.63442	0.30384
2329.70586	0.30498
2327.77729	0.30564
2325.84873	0.30563
2323.92017	0.30556
2321.99160	0.30565
2320.06304	0.30555
2318.13447	0.30535
2316.20591	0.30540
2314.27734	0.30588
2312.34878	0.30664
2310.42021	0.30740
2308.49165	0.30796
2306.56309	0.30847
2304.63452	0.30923
2302.70596	0.31036
2300.77739	0.31165
2298.84883	0.31286
2296.92026	0.31406
2294.99170	0.31540
2293.06313	0.31682
2291.13457	0.31832
2289.20601	0.31991
2287.27744	0.32138
2285.34888	0.32270
2283.42031	0.32428
2281.49175	0.32632
2279.56318	0.32857
2277.63462	0.33082
2275.70605	0.33307
2273.77749	0.33529
2271.84893	0.33740
2269.92036	0.33944
2267.99180	0.34146
2266.06323	0.34349
2264.13467	0.34557
2262.20610	0.34777
2260.27754	0.34997
2258.34897	0.35201
2256.42041	0.35394
2254.49185	0.35605
2252.56328	0.35838
2250.63472	0.36068
2248.70615	0.36283
2246.77759	0.36489
2244.84902	0.36706
2242.92046	0.36935
2240.99189	0.37162
2239.06333	0.37384
2237.13477	0.37607
2235.20620	0.37827
2233.27764	0.38048
2231.34907	0.38279
2229.42051	0.38507
2227.49194	0.38728
2225.56338	0.38955
2223.63481	0.39190
2221.70625	0.39418
2219.77769	0.39636
2217.84912	0.39855
2215.92056	0.40082
2213.99199	0.40308
2212.06343	0.40528
2210.13486	0.40748
2208.20630	0.40962
2206.27773	0.41172
2204.34917	0.41391
2202.42061	0.41609
2200.49204	0.41821
2198.56348	0.42030
2196.63491	0.42233
2194.70635	0.42427
2192.77778	0.42615
2190.84922	0.42805
2188.92065	0.42996
2186.99209	0.43180
2185.06353	0.43356
2183.13496	0.43532
2181.20640	0.43716
2179.27783	0.43892
2177.34927	0.44053
2175.42070	0.44206
2173.49214	0.44353
2171.56357	0.44491
2169.63501	0.44625
2167.70645	0.44763
2165.77788	0.44906
2163.84932	0.45045
2161.92075	0.45174
2159.99219	0.45292
2158.06362	0.45397
2156.13506	0.45495
2154.20649	0.45589
2152.27793	0.45681
2150.34937	0.45767
2148.42080	0.45843
2146.49224	0.45905
2144.56367	0.45948
2142.63511	0.45983
2140.70654	0.46018
2138.77798	0.46052
2136.84941	0.46079
2134.92085	0.46091
2132.99229	0.46086
2131.06372	0.46068
2129.13516	0.46048
2127.20659	0.46029
2125.27803	0.46005
2123.34946	0.45969
2121.42090	0.45922
2119.49233	0.45864
2117.56377	0.45805
2115.63521	0.45745
2113.70664	0.45670
2111.77808	0.45574
2109.84951	0.45469
2107.92095	0.45371
2105.99238	0.45274
2104.06382	0.45164
2102.13525	0.45041
2100.20669	0.44907
2098.27812	0.44761
2096.34956	0.44595
2094.42100	0.44424
2092.49243	0.44269
2090.56387	0.44127
2088.63530	0.43971
2086.70674	0.43791
2084.77817	0.43600
2082.84961	0.43409
2080.92104	0.43208
2078.99248	0.42994
2077.06392	0.42777
2075.13535	0.42566
2073.20679	0.42359
2071.27822	0.42145
2069.34966	0.41916
2067.42109	0.41684
2065.49253	0.41453
2063.56396	0.41211
2061.63540	0.40961
2059.70684	0.40710
2057.77827	0.40463
2055.84971	0.40215
2053.92114	0.39961
2051.99258	0.39704
2050.06401	0.39442
2048.13545	0.39181
2046.20688	0.38924
2044.27832	0.38663
2042.34976	0.38385
2040.42119	0.38094
2038.49263	0.37810
2036.56406	0.37541
2034.63550	0.37274
2032.70693	0.36988
2030.77837	0.36695
2028.84980	0.36411
2026.92124	0.36132
2024.99268	0.35843
2023.06411	0.35551
2021.13555	0.35278
2019.20698	0.35017
2017.27842	0.34747
2015.34985	0.34462
2013.42129	0.34174
2011.49272	0.33890
2009.56416	0.33614
2007.63560	0.33344
2005.70703	0.33069
2003.77847	0.32792
2001.84990	0.32526
1999.92134	0.32273
1997.99277	0.32013
1996.06421	0.31743
1994.13564	0.31487
1992.20708	0.31241
1990.27852	0.30984
1988.34995	0.30726
1986.42139	0.30472
1984.49282	0.30222
1982.56426	0.29980
1980.63569	0.29741
1978.70713	0.29504
1976.77856	0.29278
1974.85000	0.29061
1972.92144	0.28844
1970.99287	0.28629
1969.06431	0.28427
1967.13574	0.28228
1965.20718	0.28012
1963.27861	0.27794
1961.35005	0.27599
1959.42148	0.27414
1957.49292	0.27224
1955.56436	0.27028
1953.63579	0.26839
1951.70723	0.26664
1949.77866	0.26501
1947.85010	0.26343
1945.92153	0.26194
1943.99297	0.26058
1942.06440	0.25920
1940.13584	0.25762
1938.20728	0.25602
1936.27871	0.25458
1934.35015	0.25321
1932.42158	0.25189
1930.49302	0.25064
1928.56445	0.24951
1926.63589	0.24843
1924.70732	0.24748
1922.77876	0.24662
1920.85020	0.24568
1918.92163	0.24475
1916.99307	0.24378
1915.06450	0.24265
1913.13594	0.24167
1911.20737	0.24102
1909.27881	0.24045
1907.35024	0.23979
1905.42168	0.23906
1903.49312	0.23835
1901.56455	0.23772
1899.63599	0.23722
1897.70742	0.23690
1895.77886	0.23665
1893.85029	0.23622
1891.92173	0.23572
1889.99316	0.23553
1888.06460	0.23537
1886.13604	0.23496
1884.20747	0.23465
1882.27891	0.23451
1880.35034	0.23434
1878.42178	0.23415
1876.49321	0.23409
1874.56465	0.23408
1872.63608	0.23420
1870.70752	0.23457
1868.77896	0.23529
1866.85039	0.23573
1864.92183	0.23560
1862.99326	0.23550
1861.06470	0.23564
1859.13613	0.23594
1857.20757	0.23626
1855.27900	0.23669
1853.35044	0.23717
1851.42187	0.23770
1849.49331	0.23835
1847.56475	0.23921
1845.63618	0.24030
1843.70762	0.24145
1841.77905	0.24209
1839.85049	0.24232
1837.92192	0.24298
1835.99336	0.24390
1834.06479	0.24483
1832.13623	0.24592
1830.20767	0.24753
1828.27910	0.24916
1826.35054	0.25021
1824.42197	0.25133
1822.49341	0.25246
1820.56484	0.25361
1818.63628	0.25495
1816.70771	0.25658
1814.77915	0.25826
1812.85059	0.26009
1810.92202	0.26221
1808.99346	0.26431
1807.06489	0.26624
1805.13633	0.26814
1803.20776	0.27040
1801.27920	0.27305
1799.35063	0.27595
1797.42207	0.27858
1795.49351	0.28111
1793.56494	0.28412
1791.63638	0.28790
1789.70781	0.29131
1787.77925	0.29386
1785.85068	0.29694
1783.92212	0.30065
1781.99355	0.30463
1780.06499	0.30885
1778.13643	0.31318
1776.20786	0.31740
1774.27930	0.32203
1772.35073	0.32805
1770.42217	0.33427
1768.49360	0.33949
1766.56504	0.34464
1764.63647	0.35004
1762.70791	0.35607
1760.77935	0.36359
1758.85078	0.37068
1756.92222	0.37783
1754.99365	0.38560
1753.06509	0.39273
1751.13652	0.40129
1749.20796	0.41192
1747.27939	0.42219
1745.35083	0.43118
1743.42227	0.44064
1741.49370	0.45110
1739.56514	0.46348
1737.63657	0.47597
1735.70801	0.48722
1733.77944	0.50395
1731.85088	0.52352
1729.92231	0.53911
1727.99375	0.55502
1726.06519	0.57218
1724.13662	0.59090
1722.20806	0.61119
1720.27949	0.63035
1718.35093	0.65274
1716.42236	0.68451
1714.49380	0.71476
1712.56523	0.73988
1710.63667	0.76433
1708.70811	0.79046
1706.77954	0.82008
1704.85098	0.85509
1702.92241	0.88642
1700.99385	0.91757
1699.06528	0.96289
1697.13672	1.00429
1695.20815	1.04661
1693.27959	1.08875
1691.35103	1.12333
1689.42246	1.16257
1687.49390	1.20334
1685.56533	1.24291
1683.63677	1.30220
1681.70820	1.36325
1679.77964	1.40374
1677.85107	1.44252
1675.92251	1.48666
1673.99395	1.54068
1672.06538	1.58926
1670.13682	1.63596
1668.20825	1.69482
1666.27969	1.74362
1664.35112	1.78543
1662.42256	1.83630
1660.49399	1.89304
1658.56543	1.93786
1656.63687	1.97377
1654.70830	2.00709
1652.77974	2.06221
1650.85117	2.11775
1648.92261	2.13887
1646.99404	2.16418
1645.06548	2.19524
1643.13691	2.21819
1641.20835	2.23192
1639.27979	2.24289
1637.35122	2.25086
1635.42266	2.25494
1633.49409	2.24943
1631.56553	2.23503
1629.63696	2.21876
1627.70840	2.19419
1625.77983	2.16500
1623.85127	2.12695
1621.92271	2.07911
1619.99414	2.03470
1618.06558	1.99164
1616.13701	1.93362
1614.20845	1.87355
1612.27988	1.82550
1610.35132	1.77533
1608.42275	1.72166
1606.49419	1.66856
1604.56562	1.61888
1602.63706	1.57122
1600.70850	1.52501
1598.77993	1.48185
1596.85137	1.44089
1594.92280	1.40122
1592.99424	1.36274
1591.06567	1.32710
1589.13711	1.29344
1587.20854	1.26162
1585.27998	1.23164
1583.35142	1.20361
1581.42285	1.17811
1579.49429	1.15587
1577.56572	1.13560
1575.63716	1.11143
1573.70859	1.08947
1571.78003	1.07425
1569.85146	1.05854
1567.92290	1.04151
1565.99434	1.02804
1564.06577	1.01648
1562.13721	1.00693
1560.20864	0.99979
1558.28008	0.98944
1556.35151	0.97921
1554.42295	0.97224
1552.49438	0.96528
1550.56582	0.95778
1548.63726	0.94920
1546.70869	0.94048
1544.78013	0.93147
1542.85156	0.92126
1540.92300	0.90797
1538.99443	0.88929
1537.06587	0.87538
1535.13730	0.86595
1533.20874	0.85433
1531.28018	0.84178
1529.35161	0.83210
1527.42305	0.82295
1525.49448	0.81359
1523.56592	0.80562
1521.63735	0.79808
1519.70879	0.78996
1517.78022	0.78276
1515.85166	0.77488
1513.92310	0.76656
1511.99453	0.75944
1510.06597	0.75345
1508.13740	0.74823
1506.20884	0.74017
1504.28027	0.73150
1502.35171	0.72600
1500.42314	0.72166
1498.49458	0.71747
1496.56602	0.71258
1494.63745	0.70748
1492.70889	0.70352
1490.78032	0.70038
1488.85176	0.69694
1486.92319	0.69325
1484.99463	0.68993
1483.06606	0.68719
1481.13750	0.68485
1479.20894	0.68277
1477.28037	0.68113
1475.35181	0.67989
1473.42324	0.67870
1471.49468	0.67656
1469.56611	0.67368
1467.63755	0.67108
1465.70898	0.66900
1463.78042	0.66727
1461.85186	0.66580
1459.92329	0.66474
1457.99473	0.66389
1456.06616	0.66200
1454.13760	0.65905
1452.20903	0.65639
1450.28047	0.65395
1448.35190	0.65162
1446.42334	0.64937
1444.49478	0.64727
1442.56621	0.64529
1440.63765	0.64342
1438.70908	0.64174
1436.78052	0.63999
1434.85195	0.63778
1432.92339	0.63566
1430.99482	0.63407
1429.06626	0.63270
1427.13770	0.63145
1425.20913	0.63067
1423.28057	0.63021
1421.35200	0.62960
1419.42344	0.62902
1417.49487	0.62808
1415.56631	0.62628
1413.63774	0.62453
1411.70918	0.62331
1409.78062	0.62255
1407.85205	0.62201
1405.92349	0.62149
1403.99492	0.62075
1402.06636	0.61969
1400.13779	0.61857
1398.20923	0.61734
1396.28066	0.61571
1394.35210	0.61349
1392.42354	0.61088
1390.49497	0.60846
1388.56641	0.60630
1386.63784	0.60400
1384.70928	0.60140
1382.78071	0.59888
1380.85215	0.59671
1378.92358	0.59499
1376.99502	0.59365
1375.06646	0.59265
1373.13789	0.59175
1371.20933	0.59085
1369.28076	0.59005
1367.35220	0.58916
1365.42363	0.58818
1363.49507	0.58730
1361.56650	0.58623
1359.63794	0.58474
1357.70937	0.58330
1355.78081	0.58212
1353.85225	0.58109
1351.92368	0.58015
1349.99512	0.57930
1348.06655	0.57838
1346.13799	0.57735
1344.20942	0.57637
1342.28086	0.57550
1340.35229	0.57477
1338.42373	0.57399
1336.49517	0.57296
1334.56660	0.57190
1332.63804	0.57107
1330.70947	0.57052
1328.78091	0.57011
1326.85234	0.56971
1324.92378	0.56940
1322.99521	0.56921
1321.06665	0.56898
1319.13809	0.56864
1317.20952	0.56821
1315.28096	0.56768
1313.35239	0.56700
1311.42383	0.56619
1309.49526	0.56525
1307.56670	0.56423
1305.63813	0.56326
1303.70957	0.56232
1301.78101	0.56138
1299.85244	0.56040
1297.92388	0.55936
1295.99531	0.55838
1294.06675	0.55746
1292.13818	0.55648
1290.20962	0.55559
1288.28105	0.55486
1286.35249	0.55405
1284.42393	0.55309
1282.49536	0.55209
1280.56680	0.55111
1278.63823	0.55021
1276.70967	0.54951
1274.78110	0.54890
1272.85254	0.54828
1270.92397	0.54772
1268.99541	0.54718
1267.06685	0.54669
1265.13828	0.54634
1263.20972	0.54599
1261.28115	0.54556
1259.35259	0.54517
1257.42402	0.54490
1255.49546	0.54463
1253.56689	0.54435
1251.63833	0.54420
1249.70977	0.54414
1247.78120	0.54402
1245.85264	0.54375
1243.92407	0.54329
1241.99551	0.54272
1240.06694	0.54196
1238.13838	0.54095
1236.20981	0.53986
1234.28125	0.53880
1232.35269	0.53765
1230.42412	0.53638
1228.49556	0.53521
1226.56699	0.53408
1224.63843	0.53286
1222.70986	0.53172
1220.78130	0.53070
1218.85273	0.52968
1216.92417	0.52874
1214.99561	0.52790
1213.06704	0.52713
1211.13848	0.52652
1209.20991	0.52607
1207.28135	0.52556
1205.35278	0.52490
1203.42422	0.52418
1201.49565	0.52339
1199.56709	0.52264
1197.63853	0.52211
1195.70996	0.52152
1193.78140	0.52064
1191.85283	0.51973
1189.92427	0.51915
1187.99570	0.51888
1186.06714	0.51863
1184.13857	0.51834
1182.21001	0.51830
1180.28145	0.51870
1178.35288	0.51955
1176.42432	0.52061
1174.49575	0.52149
1172.56719	0.52218
1170.63862	0.52287
1168.71006	0.52351
1166.78149	0.52402
1164.85293	0.52453
1162.92437	0.52505
1160.99580	0.52544
1159.06724	0.52558
1157.13867	0.52547
1155.21011	0.52507
1153.28154	0.52412
1151.35298	0.52253
1149.42441	0.52041
1147.49585	0.51789
1145.56729	0.51528
1143.63872	0.51269
1141.71016	0.51005
1139.78159	0.50755
1137.85303	0.50559
1135.92446	0.50417
1133.99590	0.50310
1132.06733	0.50233
1130.13877	0.50155
1128.21021	0.50054
1126.28164	0.49974
1124.35308	0.49933
1122.42451	0.49896
1120.49595	0.49876
1118.56738	0.49896
1116.63882	0.49934
1114.71025	0.49978
1112.78169	0.50046
1110.85312	0.50135
1108.92456	0.50212
1106.99600	0.50278
1105.06743	0.50367
1103.13887	0.50485
1101.21030	0.50605
1099.28174	0.50736
1097.35317	0.50911
1095.42461	0.51154
1093.49604	0.51499
1091.56748	0.51970
1089.63892	0.52563
1087.71035	0.53274
1085.78179	0.54071
1083.85322	0.54897
1081.92466	0.55664
1079.99609	0.56253
1078.06753	0.56570
1076.13896	0.56579
1074.21040	0.56300
1072.28184	0.55794
1070.35327	0.55144
1068.42471	0.54443
1066.49614	0.53784
1064.56758	0.53187
1062.63901	0.52637
1060.71045	0.52151
1058.78188	0.51729
1056.85332	0.51359
1054.92476	0.51043
1052.99619	0.50764
1051.06763	0.50526
1049.13906	0.50360
1047.21050	0.50271
1045.28193	0.50235
1043.35337	0.50242
1041.42480	0.50283
1039.49624	0.50306
1037.56768	0.50297
1035.63911	0.50293
1033.71055	0.50276
1031.78198	0.50213
1029.85342	0.50123
1027.92485	0.50035
1025.99629	0.49944
1024.06772	0.49842
1022.13916	0.49762
1020.21060	0.49726
1018.28203	0.49722
1016.35347	0.49727
1014.42490	0.49727
1012.49634	0.49729
1010.56777	0.49748
1008.63921	0.49788
1006.71064	0.49848
1004.78208	0.49940
1002.85352	0.50097
1000.92495	0.50344
998.99639	0.50681
997.06782	0.51093
995.13926	0.51536
993.21069	0.51937
991.28213	0.52245
989.35356	0.52442
987.42500	0.52529
985.49644	0.52532
983.56787	0.52516
981.63931	0.52556
979.71074	0.52680
977.78218	0.52863
975.85361	0.53074
973.92505	0.53313
971.99648	0.53598
970.06792	0.53932
968.13936	0.54313
966.21079	0.54730
964.28223	0.55172
962.35366	0.55644
960.42510	0.56143
958.49653	0.56672
956.56797	0.57241
954.63940	0.57835
952.71084	0.58455
950.78228	0.59107
948.85371	0.59754
946.92515	0.60368
944.99658	0.60972
943.06802	0.61593
941.13945	0.62231
939.21089	0.62852
937.28232	0.63445
935.35376	0.64009
933.42520	0.64532
931.49663	0.65072
929.56807	0.65689
927.63950	0.66318
925.71094	0.66910
923.78237	0.67501
921.85381	0.68122
919.92524	0.68786
917.99668	0.69527
916.06812	0.70309
914.13955	0.71042
912.21099	0.71765
910.28242	0.72569
908.35386	0.73423
906.42529	0.74247
904.49673	0.75055
902.56816	0.75966
900.63960	0.76992
898.71104	0.77976
896.78247	0.78862
894.85391	0.79778
892.92534	0.80820
890.99678	0.81920
889.06821	0.82995
887.13965	0.84056
885.21108	0.85139
883.28252	0.86295
881.35396	0.87547
879.42539	0.88795
877.49683	0.89943
875.56826	0.91017
873.63970	0.92075
871.71113	0.93119
869.78257	0.94200
867.85400	0.95417
865.92544	0.96646
863.99687	0.97691
862.06831	0.98707
860.13975	0.99880
858.21118	1.01131
856.28262	1.02400
854.35405	1.03568
852.42549	1.04564
850.49692	1.05652
848.56836	1.06900
846.63979	1.08048
844.71123	1.09078
842.78267	1.10152
840.85410	1.11309
838.92554	1.12435
836.99697	1.13518
835.06841	1.14767
833.13984	1.16254
831.21128	1.17767
829.28271	1.19073
827.35415	1.20294
825.42559	1.21587
823.49702	1.22686
821.56846	1.23670
819.63989	1.24702
817.71133	1.25415
815.78276	1.26264
813.85420	1.27287
811.92563	1.27488
809.99707	1.27611
808.06851	1.29246
806.13994	1.31860
804.21138	1.32913
802.28281	1.31900
800.35425	1.30519
798.42568	1.30076
796.49712	1.31281
794.56855	1.33964
792.63999	1.37944
790.71143	1.42298
788.78286	1.45354
786.85430	1.45597
784.92573	1.43480
782.99717	1.43575
781.06860	1.47159
779.14004	1.48632
777.21147	1.46199
775.28291	1.42448
773.35435	1.36798
771.42578	1.32757
769.49722	1.35419
767.56865	1.46575
765.64009	1.60062
763.71152	1.63062
761.78296	1.55606
759.85439	1.41282
757.92583	1.32230
755.99727	1.32913
754.06870	1.34301
752.14014	1.35984
750.21157	1.40975
748.28301	1.34966
746.35444	1.22365
744.42588	1.17760
742.49731	1.19973
740.56875	1.14951
738.64019	1.04620
736.71162	1.04352
734.78306	1.21312
732.85449	1.53421
730.92593	1.19498
728.99736	0.75971
727.06880	0.48587
725.14023	0.31862
723.21167	0.22698
721.28311	0.15376
719.35454	0.06215
717.42598	0.02160
715.49741	0.11162
713.56885	0.30165
711.64028	0.39445
709.71172	0.32442
707.78315	0.32317
705.85459	0.42205
703.92603	0.53914
701.99746	0.66417
700.06890	0.57600
698.14033	0.60725
696.21177	0.88922
694.28320	1.03657
692.35464	0.74775
690.42607	0.61049
688.49751	0.56377
686.56895	0.61193
684.64038	0.65386
682.71182	0.53709
680.78325	0.44235
678.85469	0.44985
676.92612	0.40582
674.99756	0.28103
673.06899	0.23537
671.14043	0.31419
669.21187	0.48757
667.28330	0.56637
665.35474	0.48888
663.42617	0.41327
661.49761	0.38180
659.56904	0.42581
657.64048	0.52988
655.71191	0.47962
653.78335	0.34080
651.85479	0.28771
649.92622	0.33278
647.99766	0.40310
646.06909	0.45701
644.14053	0.60652
642.21196	0.71559
640.28340	0.58156
638.35483	0.50987
636.42627	0.45959
634.49771	0.38371
632.56914	0.34566
630.64058	0.36451
628.71201	0.41314
626.78345	0.43228
624.85488	0.45334
622.92632	0.48511
620.99775	0.41830
619.06919	0.30343
617.14062	0.27915
615.21206	0.36292
613.28350	0.40550
611.35493	0.34303
609.42637	0.35872
607.49780	0.47586
605.56924	0.52088
603.64067	0.41287
601.71211	0.29961
599.78354	0.28918
597.85498	0.37468
595.92642	0.47353
593.99785	0.46284
592.06929	0.39420
590.14072	0.36101
588.21216	0.38473
586.28359	0.40937
584.35503	0.36920
582.42646	0.31946
580.49790	0.26557
578.56934	0.24666
576.64077	0.28952
574.71221	0.33073
572.78364	0.34024
570.85508	0.35286
568.92651	0.36316
566.99795	0.35183
565.06938	0.33013
563.14082	0.36466
561.21226	0.51415
559.28369	0.63420
557.35513	0.47945
555.42656	0.38766
553.49800	0.34093
551.56943	0.24650
549.64087	0.21614
547.71230	0.27641
545.78374	0.32389
543.85518	0.34164
541.92661	0.34885
539.99805	0.32129
538.06948	0.30908
536.14092	0.31378
534.21235	0.29118
532.28379	0.27411
530.35522	0.31369
528.42666	0.40595
526.49810	0.44126
524.56953	0.38737
522.64097	0.33343
520.71240	0.28735
518.78384	0.29572
516.85527	0.37940
514.92671	0.42797
512.99814	0.39965
511.06958	0.37620
509.14102	0.31229
507.21245	0.24539
505.28389	0.23429
503.35532	0.27242
501.42676	0.34871
499.49819	0.38851
