3997.91411	0.06808
3995.98555	0.06855
3994.05698	0.06927
3992.12842	0.06983
3990.19985	0.07013
3988.27129	0.07017
3986.34272	0.07005
3984.41416	0.07012
3982.48560	0.07047
3980.55703	0.07062
3978.62847	0.07049
3976.69990	0.07085
3974.77134	0.07169
3972.84277	0.07225
3970.91421	0.07245
3968.98564	0.07253
3967.05708	0.07239
3965.12852	0.07217
3963.19995	0.07253
3961.27139	0.07320
3959.34282	0.07318
3957.41426	0.07289
3955.48569	0.07311
3953.55713	0.07339
3951.62856	0.07404
3949.70000	0.07577
3947.77144	0.07726
3945.84287	0.07695
3943.91431	0.07641
3941.98574	0.07656
3940.05718	0.07572
3938.12861	0.07429
3936.20005	0.07395
3934.27148	0.07497
3932.34292	0.07681
3930.41436	0.07791
3928.48579	0.07704
3926.55723	0.07605
3924.62866	0.07678
3922.70010	0.07749
3920.77153	0.07675
3918.84297	0.07661
3916.91440	0.07750
3914.98584	0.07688
3913.05728	0.07449
3911.12871	0.07259
3909.20015	0.07223
3907.27158	0.07391
3905.34302	0.07820
3903.41445	0.08386
3901.48589	0.08718
3899.55732	0.08656
3897.62876	0.08268
3895.70020	0.07798
3893.77163	0.07672
3891.84307	0.07949
3889.91450	0.08124
3887.98594	0.08021
3886.05737	0.08096
3884.12881	0.08299
3882.20024	0.08336
3880.27168	0.08327
3878.34312	0.08138
3876.41455	0.07888
3874.48599	0.08025
3872.55742	0.08438
3870.62886	0.08779
3868.70029	0.08884
3866.77173	0.08734
3864.84316	0.08702
3862.91460	0.08772
3860.98604	0.08569
3859.05747	0.08319
3857.12891	0.08404
3855.20034	0.08907
3853.27178	0.09739
3851.34321	0.09903
3849.41465	0.09099
3847.48608	0.08451
3845.55752	0.08279
3843.62896	0.08544
3841.70039	0.09043
3839.77183	0.09573
3837.84326	0.09978
3835.91470	0.09951
3833.98613	0.09636
3832.05757	0.09387
3830.12900	0.09201
3828.20044	0.09122
3826.27187	0.09242
3824.34331	0.09455
3822.41475	0.09847
3820.48618	0.10457
3818.55762	0.10641
3816.62905	0.10470
3814.70049	0.10227
3812.77192	0.09764
3810.84336	0.09459
3808.91479	0.09601
3806.98623	0.10088
3805.05767	0.10529
3803.12910	0.10862
3801.20054	0.11307
3799.27197	0.11437
3797.34341	0.11214
3795.41484	0.11011
3793.48628	0.10742
3791.55771	0.10537
3789.62915	0.10562
3787.70059	0.10732
3785.77202	0.10986
3783.84346	0.11256
3781.91489	0.11449
3779.98633	0.11697
3778.05776	0.11944
3776.12920	0.11942
3774.20063	0.11912
3772.27207	0.12140
3770.34351	0.12620
3768.41494	0.13040
3766.48638	0.13187
3764.55781	0.13247
3762.62925	0.13337
3760.70068	0.13636
3758.77212	0.14193
3756.84355	0.14625
3754.91499	0.14863
3752.98643	0.15364
3751.05786	0.16307
3749.12930	0.17052
3747.20073	0.17111
3745.27217	0.17214
3743.34360	0.17536
3741.41504	0.17607
3739.48647	0.17674
3737.55791	0.18182
3735.62935	0.19210
3733.70078	0.20123
3731.77222	0.20169
3729.84365	0.19896
3727.91509	0.19985
3725.98652	0.20588
3724.05796	0.21418
3722.12939	0.22130
3720.20083	0.22693
3718.27227	0.23159
3716.34370	0.23665
3714.41514	0.24450
3712.48657	0.25810
3710.55801	0.27646
3708.62944	0.28966
3706.70088	0.29648
3704.77231	0.30456
3702.84375	0.31742
3700.91519	0.33497
3698.98662	0.35265
3697.05806	0.36929
3695.12949	0.38843
3693.20093	0.41010
3691.27236	0.43530
3689.34380	0.46744
3687.41523	0.50140
3685.48667	0.52713
3683.55811	0.54976
3681.62954	0.57721
3679.70098	0.61114
3677.77241	0.64887
3675.84385	0.69380
3673.91528	0.74851
3671.98672	0.78979
3670.05815	0.82801
3668.12959	0.87898
3666.20103	0.92242
3664.27246	0.95952
3662.34390	1.00206
3660.41533	1.04981
3658.48677	1.09828
3656.55820	1.15068
3654.62964	1.20788
3652.70107	1.25614
3650.77251	1.30199
3648.84395	1.36528
3646.91538	1.43280
3644.98682	1.47601
3643.05825	1.51015
3641.12969	1.54842
3639.20112	1.59209
3637.27256	1.63684
3635.34399	1.68134
3633.41543	1.72624
3631.48687	1.76873
3629.55830	1.81352
3627.62974	1.87018
3625.70117	1.91778
3623.77261	1.94860
3621.84404	1.98171
3619.91548	2.02312
3617.98691	2.07139
3616.05835	2.11510
3614.12979	2.15248
3612.20122	2.19209
3610.27266	2.23065
3608.34409	2.26985
3606.41553	2.31132
3604.48696	2.34865
3602.55840	2.38379
3600.62983	2.42380
3598.70127	2.46594
3596.77271	2.50594
3594.84414	2.54695
3592.91558	2.58881
3590.98701	2.62775
3589.05845	2.66592
3587.12988	2.71227
3585.20132	2.75980
3583.27275	2.79725
3581.34419	2.83268
3579.41562	2.87284
3577.48706	2.91640
3575.55850	2.96073
3573.62993	3.00515
3571.70137	3.04738
3569.77280	3.08979
3567.84424	3.13808
3565.91567	3.19465
3563.98711	3.24425
3562.05854	3.28152
3560.12998	3.31906
3558.20142	3.36164
3556.27285	3.40709
3554.34429	3.45361
3552.41572	3.50316
3550.48716	3.55277
3548.55859	3.59888
3546.63003	3.64381
3544.70146	3.69111
3542.77290	3.73873
3540.84434	3.78392
3538.91577	3.82985
3536.98721	3.87802
3535.05864	3.92753
3533.13008	3.97527
3531.20151	4.02163
3529.27295	4.07019
3527.34438	4.12324
3525.41582	4.17607
3523.48726	4.22427
3521.55869	4.27083
3519.63013	4.31650
3517.70156	4.36222
3515.77300	4.41016
3513.84443	4.46012
3511.91587	4.50983
3509.98730	4.56098
3508.05874	4.61204
3506.13018	4.65774
3504.20161	4.70302
3502.27305	4.75186
3500.34448	4.79783
3498.41592	4.84070
3496.48735	4.88713
3494.55879	4.93479
3492.63022	4.98326
3490.70166	5.03503
3488.77310	5.08535
3486.84453	5.13254
3484.91597	5.17980
3482.98740	5.23022
3481.05884	5.28452
3479.13027	5.33367
3477.20171	5.37671
3475.27314	5.42554
3473.34458	5.47853
3471.41602	5.52650
3469.48745	5.57582
3467.55889	5.63291
3465.63032	5.68551
3463.70176	5.73189
3461.77319	5.78465
3459.84463	5.84199
3457.91606	5.89270
3455.98750	5.93665
3454.05894	5.97753
3452.13037	6.02171
3450.20181	6.07970
3448.27324	6.14531
3446.34468	6.20737
3444.41611	6.25473
3442.48755	6.28618
3440.55898	6.32327
3438.63042	6.38224
3436.70186	6.44059
3434.77329	6.48078
3432.84473	6.52365
3430.91616	6.56833
3428.98760	6.60432
3427.05903	6.65060
3425.13047	6.72161
3423.20190	6.79321
3421.27334	6.85340
3419.34478	6.91569
3417.41621	6.97005
3415.48765	6.99515
3413.55908	7.01136
3411.63052	7.05726
3409.70195	7.11460
3407.77339	7.16145
3405.84482	7.21006
3403.91626	7.27467
3401.98770	7.32922
3400.05913	7.36161
3398.13057	7.39595
3396.20200	7.43209
3394.27344	7.48641
3392.34487	7.54662
3390.41631	7.56598
3388.48774	7.55683
3386.55918	7.59473
3384.63062	7.66300
3382.70205	7.67420
3380.77349	7.65286
3378.84492	7.66795
3376.91636	7.72818
3374.98779	7.80164
3373.05923	7.85156
3371.13066	7.86564
3369.20210	7.91213
3367.27354	8.00108
3365.34497	8.06088
3363.41641	8.03381
3361.48784	7.95306
3359.55928	7.94919
3357.63071	8.03603
3355.70215	8.10704
3353.77358	8.10996
3351.84502	8.10793
3349.91646	8.12113
3347.98789	8.13574
3346.05933	8.12921
3344.13076	8.09297
3342.20220	8.11159
3340.27363	8.20197
3338.34507	8.26054
3336.41650	8.23242
3334.48794	8.20078
3332.55937	8.19924
3330.63081	8.22251
3328.70225	8.25314
3326.77368	8.26984
3324.84512	8.30349
3322.91655	8.33798
3320.98799	8.34386
3319.05942	8.32658
3317.13086	8.31991
3315.20229	8.33109
3313.27373	8.36626
3311.34517	8.38179
3309.41660	8.33165
3307.48804	8.29983
3305.55947	8.31199
3303.63091	8.29263
3301.70234	8.24959
3299.77378	8.29229
3297.84521	8.40989
3295.91665	8.48660
3293.98809	8.46318
3292.05952	8.36138
3290.13096	8.24585
3288.20239	8.21473
3286.27383	8.28979
3284.34526	8.37815
3282.41670	8.47580
3280.48813	8.59176
3278.55957	8.60377
3276.63101	8.49453
3274.70244	8.43880
3272.77388	8.44994
3270.84531	8.40415
3268.91675	8.32847
3266.98818	8.26485
3265.05962	8.21662
3263.13105	8.23387
3261.20249	8.28649
3259.27393	8.23661
3257.34536	8.14931
3255.41680	8.15197
3253.48823	8.22748
3251.55967	8.33453
3249.63110	8.41881
3247.70254	8.45312
3245.77397	8.44288
3243.84541	8.38299
3241.91685	8.29927
3239.98828	8.23891
3238.05972	8.23777
3236.13115	8.32465
3234.20259	8.41498
3232.27402	8.40672
3230.34546	8.38488
3228.41689	8.40276
3226.48833	8.42418
3224.55977	8.42185
3222.63120	8.34404
3220.70264	8.16546
3218.77407	8.03168
3216.84551	8.03966
3214.91694	8.12605
3212.98838	8.25440
3211.05981	8.36253
3209.13125	8.34497
3207.20269	8.26365
3205.27412	8.17540
3203.34556	8.06456
3201.41699	7.98081
3199.48843	7.95227
3197.55986	7.94149
3195.63130	7.90228
3193.70273	7.85559
3191.77417	7.82643
3189.84561	7.76498
3187.91704	7.68330
3185.98848	7.61421
3184.05991	7.52693
3182.13135	7.44752
3180.20278	7.43784
3178.27422	7.43820
3176.34565	7.35582
3174.41709	7.25952
3172.48853	7.21037
3170.55996	7.16323
3168.63140	7.10667
3166.70283	7.05820
3164.77427	6.99988
3162.84570	6.92198
3160.91714	6.83925
3158.98857	6.76664
3157.06001	6.70343
3155.13145	6.64220
3153.20288	6.58138
3151.27432	6.51982
3149.34575	6.45010
3147.41719	6.36964
3145.48862	6.29331
3143.56006	6.22346
3141.63149	6.14950
3139.70293	6.07777
3137.77437	6.01526
3135.84580	5.95489
3133.91724	5.88744
3131.98867	5.80601
3130.06011	5.71739
3128.13154	5.64255
3126.20298	5.58555
3124.27441	5.52296
3122.34585	5.44375
3120.41729	5.36633
3118.48872	5.29598
3116.56016	5.22380
3114.63159	5.15302
3112.70303	5.08531
3110.77446	5.01680
3108.84590	4.94864
3106.91733	4.87959
3104.98877	4.80847
3103.06021	4.74016
3101.13164	4.67419
3099.20308	4.60703
3097.27451	4.54073
3095.34595	4.47679
3093.41738	4.41366
3091.48882	4.34994
3089.56025	4.28449
3087.63169	4.21770
3085.70312	4.15035
3083.77456	4.08292
3081.84600	4.01894
3079.91743	3.95841
3077.98887	3.89693
3076.06030	3.83517
3074.13174	3.77646
3072.20317	3.72058
3070.27461	3.66487
3068.34604	3.60738
3066.41748	3.54941
3064.48892	3.49256
3062.56035	3.43552
3060.63179	3.37912
3058.70322	3.32533
3056.77466	3.27260
3054.84609	3.21890
3052.91753	3.16443
3050.98896	3.11062
3049.06040	3.05824
3047.13184	3.00699
3045.20327	2.95661
3043.27471	2.90739
3041.34614	2.85914
3039.41758	2.81157
3037.48901	2.76460
3035.56045	2.71796
3033.63188	2.67207
3031.70332	2.62633
3029.77476	2.58025
3027.84619	2.53557
3025.91763	2.49280
3023.98906	2.45026
3022.06050	2.40720
3020.13193	2.36440
3018.20337	2.32251
3016.27480	2.28153
3014.34624	2.24150
3012.41768	2.20231
3010.48911	2.16385
3008.56055	2.12622
3006.63198	2.08910
3004.70342	2.05223
3002.77485	2.01593
3000.84629	1.98083
2998.91772	1.94705
2996.98916	1.91375
2995.06060	1.88054
2993.13203	1.84816
2991.20347	1.81694
2989.27490	1.78594
2987.34634	1.75504
2985.41777	1.72506
2983.48921	1.69592
2981.56064	1.66730
2979.63208	1.63936
2977.70352	1.61194
2975.77495	1.58475
2973.84639	1.55782
2971.91782	1.53134
2969.98926	1.50571
2968.06069	1.48083
2966.13213	1.45595
2964.20356	1.43103
2962.27500	1.40626
2960.34644	1.38135
2958.41787	1.35646
2956.48931	1.33204
2954.56074	1.30804
2952.63218	1.28432
2950.70361	1.26088
2948.77505	1.23790
2946.84648	1.21553
2944.91792	1.19347
2942.98936	1.17149
2941.06079	1.14962
2939.13223	1.12786
2937.20366	1.10673
2935.27510	1.08643
2933.34653	1.06635
2931.41797	1.04668
2929.48940	1.02784
2927.56084	1.00926
2925.63228	0.99063
2923.70371	0.97235
2921.77515	0.95450
2919.84658	0.93674
2917.91802	0.91899
2915.98945	0.90150
2914.06089	0.88473
2912.13232	0.86895
2910.20376	0.85390
2908.27520	0.83912
2906.34663	0.82449
2904.41807	0.81012
2902.48950	0.79621
2900.56094	0.78267
2898.63237	0.76932
2896.70381	0.75629
2894.77524	0.74330
2892.84668	0.73038
2890.91812	0.71833
2888.98955	0.70690
2887.06099	0.69561
2885.13242	0.68477
2883.20386	0.67432
2881.27529	0.66399
2879.34673	0.65384
2877.41816	0.64381
2875.48960	0.63363
2873.56104	0.62338
2871.63247	0.61320
2869.70391	0.60250
2867.77534	0.59111
2865.84678	0.57982
2863.91821	0.56885
2861.98965	0.55782
2860.06108	0.54702
2858.13252	0.53685
2856.20396	0.52716
2854.27539	0.51782
2852.34683	0.50887
2850.41826	0.50029
2848.48970	0.49186
2846.56113	0.48371
2844.63257	0.47638
2842.70400	0.46990
2840.77544	0.46376
2838.84687	0.45768
2836.91831	0.45170
2834.98975	0.44582
2833.06118	0.44007
2831.13262	0.43434
2829.20405	0.42854
2827.27549	0.42264
2825.34692	0.41661
2823.41836	0.41052
2821.48979	0.40453
2819.56123	0.39873
2817.63267	0.39304
2815.70410	0.38737
2813.77554	0.38173
2811.84697	0.37625
2809.91841	0.37090
2807.98984	0.36553
2806.06128	0.36026
2804.13271	0.35503
2802.20415	0.34978
2800.27559	0.34475
2798.34702	0.34008
2796.41846	0.33560
2794.48989	0.33110
2792.56133	0.32645
2790.63276	0.32170
2788.70420	0.31700
2786.77563	0.31247
2784.84707	0.30814
2782.91851	0.30403
2780.98994	0.30009
2779.06138	0.29623
2777.13281	0.29234
2775.20425	0.28847
2773.27568	0.28461
2771.34712	0.28081
2769.41855	0.27736
2767.48999	0.27408
2765.56143	0.27059
2763.63286	0.26700
2761.70430	0.26357
2759.77573	0.26022
2757.84717	0.25687
2755.91860	0.25375
2753.99004	0.25076
2752.06147	0.24770
2750.13291	0.24467
2748.20435	0.24181
2746.27578	0.23906
2744.34722	0.23636
2742.41865	0.23370
2740.49009	0.23107
2738.56152	0.22848
2736.63296	0.22589
2734.70439	0.22324
2732.77583	0.22063
2730.84727	0.21821
2728.91870	0.21603
2726.99014	0.21409
2725.06157	0.21225
2723.13301	0.21022
2721.20444	0.20787
2719.27588	0.20550
2717.34731	0.20342
2715.41875	0.20157
2713.49019	0.19977
2711.56162	0.19790
2709.63306	0.19604
2707.70449	0.19435
2705.77593	0.19277
2703.84736	0.19126
2701.91880	0.18973
2699.99023	0.18812
2698.06167	0.18654
2696.13311	0.18507
2694.20454	0.18369
2692.27598	0.18235
2690.34741	0.18098
2688.41885	0.17973
2686.49028	0.17858
2684.56172	0.17737
2682.63315	0.17621
2680.70459	0.17517
2678.77603	0.17409
2676.84746	0.17298
2674.91890	0.17185
2672.99033	0.17067
2671.06177	0.16954
2669.13320	0.16849
2667.20464	0.16753
2665.27607	0.16672
2663.34751	0.16605
2661.41895	0.16526
2659.49038	0.16433
2657.56182	0.16351
2655.63325	0.16284
2653.70469	0.16217
2651.77612	0.16151
2649.84756	0.16095
2647.91899	0.16035
2645.99043	0.15959
2644.06187	0.15892
2642.13330	0.15845
2640.20474	0.15794
2638.27617	0.15732
2636.34761	0.15677
2634.41904	0.15639
2632.49048	0.15609
2630.56191	0.15575
2628.63335	0.15541
2626.70479	0.15511
2624.77622	0.15478
2622.84766	0.15439
2620.91909	0.15404
2618.99053	0.15379
2617.06196	0.15359
2615.13340	0.15346
2613.20483	0.15338
2611.27627	0.15324
2609.34771	0.15302
2607.41914	0.15286
2605.49058	0.15281
2603.56201	0.15275
2601.63345	0.15267
2599.70488	0.15270
2597.77632	0.15278
2595.84775	0.15288
2593.91919	0.15293
2591.99062	0.15292
2590.06206	0.15304
2588.13350	0.15332
2586.20493	0.15363
2584.27637	0.15390
2582.34780	0.15409
2580.41924	0.15424
2578.49067	0.15449
2576.56211	0.15485
2574.63354	0.15522
2572.70498	0.15556
2570.77642	0.15597
2568.84785	0.15647
2566.91929	0.15693
2564.99072	0.15730
2563.06216	0.15768
2561.13359	0.15808
2559.20503	0.15849
2557.27646	0.15902
2555.34790	0.15964
2553.41934	0.16013
2551.49077	0.16049
2549.56221	0.16101
2547.63364	0.16172
2545.70508	0.16240
2543.77651	0.16295
2541.84795	0.16348
2539.91938	0.16408
2537.99082	0.16474
2536.06226	0.16547
2534.13369	0.16621
2532.20513	0.16684
2530.27656	0.16735
2528.34800	0.16801
2526.41943	0.16885
2524.49087	0.16966
2522.56230	0.17034
2520.63374	0.17111
2518.70518	0.17198
2516.77661	0.17270
2514.84805	0.17333
2512.91948	0.17407
2510.99092	0.17488
2509.06235	0.17573
2507.13379	0.17662
2505.20522	0.17745
2503.27666	0.17820
2501.34810	0.17904
2499.41953	0.18003
2497.49097	0.18101
2495.56240	0.18180
2493.63384	0.18247
2491.70527	0.18323
2489.77671	0.18409
2487.84814	0.18500
2485.91958	0.18602
2483.99102	0.18700
2482.06245	0.18785
2480.13389	0.18869
2478.20532	0.18957
2476.27676	0.19046
2474.34819	0.19137
2472.41963	0.19220
2470.49106	0.19298
2468.56250	0.19387
2466.63394	0.19491
2464.70537	0.19603
2462.77681	0.19710
2460.84824	0.19807
2458.91968	0.19897
2456.99111	0.19985
2455.06255	0.20074
2453.13398	0.20166
2451.20542	0.20264
2449.27686	0.20369
2447.34829	0.20473
2445.41973	0.20573
2443.49116	0.20676
2441.56260	0.20784
2439.63403	0.20890
2437.70547	0.20989
2435.77690	0.21092
2433.84834	0.21202
2431.91978	0.21308
2429.99121	0.21407
2428.06265	0.21504
2426.13408	0.21607
2424.20552	0.21713
2422.27695	0.21823
2420.34839	0.21944
2418.41982	0.22069
2416.49126	0.22187
2414.56270	0.22296
2412.63413	0.22405
2410.70557	0.22526
2408.77700	0.22662
2406.84844	0.22789
2404.91987	0.22907
2402.99131	0.23026
2401.06274	0.23143
2399.13418	0.23256
2397.20562	0.23367
2395.27705	0.23485
2393.34849	0.23619
2391.41992	0.23756
2389.49136	0.23891
2387.56279	0.24051
2385.63423	0.24250
2383.70566	0.24495
2381.77710	0.24796
2379.84854	0.25139
2377.91997	0.25513
2375.99141	0.25935
2374.06284	0.26407
2372.13428	0.26935
2370.20571	0.27521
2368.27715	0.28116
2366.34858	0.28660
2364.42002	0.29122
2362.49146	0.29486
2360.56289	0.29780
2358.63433	0.29945
2356.70576	0.29875
2354.77720	0.29637
2352.84863	0.29376
2350.92007	0.29094
2348.99150	0.28910
2347.06294	0.29011
2345.13437	0.29481
2343.20581	0.30105
2341.27725	0.30476
2339.34868	0.30591
2337.42012	0.30654
2335.49155	0.30745
2333.56299	0.30806
2331.63442	0.30866
2329.70586	0.30990
2327.77729	0.31102
2325.84873	0.31122
2323.92017	0.31104
2321.99160	0.31108
2320.06304	0.31106
2318.13447	0.31072
2316.20591	0.31046
2314.27734	0.31089
2312.34878	0.31195
2310.42021	0.31306
2308.49165	0.31385
2306.56309	0.31445
2304.63452	0.31512
2302.70596	0.31608
2300.77739	0.31733
2298.84883	0.31862
2296.92026	0.31982
2294.99170	0.32103
2293.06313	0.32228
2291.13457	0.32358
2289.20601	0.32512
2287.27744	0.32683
2285.34888	0.32844
2283.42031	0.32999
2281.49175	0.33179
2279.56318	0.33393
2277.63462	0.33615
2275.70605	0.33828
2273.77749	0.34035
2271.84893	0.34246
2269.92036	0.34464
2267.99180	0.34685
2266.06323	0.34899
2264.13467	0.35105
2262.20610	0.35312
2260.27754	0.35521
2258.34897	0.35731
2256.42041	0.35935
2254.49185	0.36136
2252.56328	0.36346
2250.63472	0.36566
2248.70615	0.36797
2246.77759	0.37026
2244.84902	0.37243
2242.92046	0.37452
2240.99189	0.37661
2239.06333	0.37880
2237.13477	0.38106
2235.20620	0.38323
2233.27764	0.38533
2231.34907	0.38750
2229.42051	0.38976
2227.49194	0.39212
2225.56338	0.39457
2223.63481	0.39701
2221.70625	0.39932
2219.77769	0.40146
2217.84912	0.40347
2215.92056	0.40558
2213.99199	0.40782
2212.06343	0.40997
2210.13486	0.41206
2208.20630	0.41427
2206.27773	0.41651
2204.34917	0.41864
2202.42061	0.42066
2200.49204	0.42262
2198.56348	0.42462
2196.63491	0.42668
2194.70635	0.42874
2192.77778	0.43074
2190.84922	0.43271
2188.92065	0.43462
2186.99209	0.43649
2185.06353	0.43830
2183.13496	0.44005
2181.20640	0.44179
2179.27783	0.44345
2177.34927	0.44502
2175.42070	0.44654
2173.49214	0.44807
2171.56357	0.44958
2169.63501	0.45098
2167.70645	0.45226
2165.77788	0.45354
2163.84932	0.45485
2161.92075	0.45606
2159.99219	0.45717
2158.06362	0.45828
2156.13506	0.45926
2154.20649	0.46003
2152.27793	0.46072
2150.34937	0.46148
2148.42080	0.46227
2146.49224	0.46299
2144.56367	0.46347
2142.63511	0.46380
2140.70654	0.46417
2138.77798	0.46454
2136.84941	0.46476
2134.92085	0.46477
2132.99229	0.46462
2131.06372	0.46458
2129.13516	0.46466
2127.20659	0.46458
2125.27803	0.46422
2123.34946	0.46366
2121.42090	0.46310
2119.49233	0.46261
2117.56377	0.46212
2115.63521	0.46148
2113.70664	0.46064
2111.77808	0.45967
2109.84951	0.45861
2107.92095	0.45758
2105.99238	0.45659
2104.06382	0.45550
2102.13525	0.45421
2100.20669	0.45283
2098.27812	0.45148
2096.34956	0.45010
2094.42100	0.44858
2092.49243	0.44694
2090.56387	0.44523
2088.63530	0.44339
2086.70674	0.44149
2084.77817	0.43961
2082.84961	0.43769
2080.92104	0.43563
2078.99248	0.43345
2077.06392	0.43121
2075.13535	0.42900
2073.20679	0.42689
2071.27822	0.42478
2069.34966	0.42263
2067.42109	0.42050
2065.49253	0.41835
2063.56396	0.41591
2061.63540	0.41324
2059.70684	0.41059
2057.77827	0.40800
2055.84971	0.40539
2053.92114	0.40279
2051.99258	0.40027
2050.06401	0.39774
2048.13545	0.39514
2046.20688	0.39244
2044.27832	0.38974
2042.34976	0.38707
2040.42119	0.38433
2038.49263	0.38146
2036.56406	0.37865
2034.63550	0.37592
2032.70693	0.37313
2030.77837	0.37030
2028.84980	0.36745
2026.92124	0.36458
2024.99268	0.36179
2023.06411	0.35906
2021.13555	0.35630
2019.20698	0.35375
2017.27842	0.35134
2015.34985	0.34846
2013.42129	0.34527
2011.49272	0.34229
2009.56416	0.33953
2007.63560	0.33677
2005.70703	0.33395
2003.77847	0.33119
2001.84990	0.32857
1999.92134	0.32603
1997.99277	0.32345
1996.06421	0.32084
1994.13564	0.31861
1992.20708	0.31664
1990.27852	0.31415
1988.34995	0.31122
1986.42139	0.30838
1984.49282	0.30564
1982.56426	0.30303
1980.63569	0.30063
1978.70713	0.29840
1976.77856	0.29616
1974.85000	0.29391
1972.92144	0.29170
1970.99287	0.28966
1969.06431	0.28801
1967.13574	0.28645
1965.20718	0.28430
1963.27861	0.28182
1961.35005	0.27956
1959.42148	0.27751
1957.49292	0.27558
1955.56436	0.27373
1953.63579	0.27189
1951.70723	0.27010
1949.77866	0.26847
1947.85010	0.26702
1945.92153	0.26593
1943.99297	0.26518
1942.06440	0.26404
1940.13584	0.26186
1938.20728	0.25951
1936.27871	0.25780
1934.35015	0.25651
1932.42158	0.25530
1930.49302	0.25407
1928.56445	0.25288
1926.63589	0.25188
1924.70732	0.25143
1922.77876	0.25120
1920.85020	0.25038
1918.92163	0.24941
1916.99307	0.24836
1915.06450	0.24678
1913.13594	0.24546
1911.20737	0.24505
1909.27881	0.24486
1907.35024	0.24407
1905.42168	0.24290
1903.49312	0.24198
1901.56455	0.24128
1899.63599	0.24071
1897.70742	0.24046
1895.77886	0.24047
1893.85029	0.24029
1891.92173	0.24011
1889.99316	0.24036
1888.06460	0.24006
1886.13604	0.23906
1884.20747	0.23835
1882.27891	0.23800
1880.35034	0.23774
1878.42178	0.23756
1876.49321	0.23750
1874.56465	0.23751
1872.63608	0.23794
1870.70752	0.23947
1868.77896	0.24173
1866.85039	0.24200
1864.92183	0.24026
1862.99326	0.23909
1861.06470	0.23901
1859.13613	0.23938
1857.20757	0.23970
1855.27900	0.24003
1853.35044	0.24053
1851.42187	0.24130
1849.49331	0.24241
1847.56475	0.24394
1845.63618	0.24586
1843.70762	0.24733
1841.77905	0.24706
1839.85049	0.24639
1837.92192	0.24688
1835.99336	0.24783
1834.06479	0.24874
1832.13623	0.25045
1830.20767	0.25337
1828.27910	0.25539
1826.35054	0.25587
1824.42197	0.25653
1822.49341	0.25693
1820.56484	0.25730
1818.63628	0.25842
1816.70771	0.26007
1814.77915	0.26179
1812.85059	0.26408
1810.92202	0.26686
1808.99346	0.26893
1807.06489	0.27030
1805.13633	0.27199
1803.20776	0.27482
1801.27920	0.27849
1799.35063	0.28174
1797.42207	0.28389
1795.49351	0.28637
1793.56494	0.29032
1791.63638	0.29474
1789.70781	0.29688
1787.77925	0.29786
1785.85068	0.30055
1783.92212	0.30461
1781.99355	0.30908
1780.06499	0.31355
1778.13643	0.31766
1776.20786	0.32195
1774.27930	0.32774
1772.35073	0.33551
1770.42217	0.34189
1768.49360	0.34559
1766.56504	0.34919
1764.63647	0.35391
1762.70791	0.36049
1760.77935	0.36865
1758.85078	0.37560
1756.92222	0.38252
1754.99365	0.39000
1753.06509	0.39745
1751.13652	0.40767
1749.20796	0.41991
1747.27939	0.43001
1745.35083	0.43819
1743.42227	0.44732
1741.49370	0.45776
1739.56514	0.46993
1737.63657	0.48220
1735.70801	0.49429
1733.77944	0.51276
1731.85088	0.53190
1729.92231	0.54524
1727.99375	0.55914
1726.06519	0.57524
1724.13662	0.59410
1722.20806	0.61486
1720.27949	0.63483
1718.35093	0.65961
1716.42236	0.69412
1714.49380	0.72339
1712.56523	0.74583
1710.63667	0.76866
1708.70811	0.79479
1706.77954	0.82567
1704.85098	0.86211
1702.92241	0.89422
1700.99385	0.92671
1699.06528	0.97459
1697.13672	1.01740
1695.20815	1.05925
1693.27959	1.09977
1691.35103	1.13398
1689.42246	1.17507
1687.49390	1.21913
1685.56533	1.26303
1683.63677	1.32840
1681.70820	1.39212
1679.77964	1.43213
1677.85107	1.47175
1675.92251	1.51877
1673.99395	1.57683
1672.06538	1.62882
1670.13682	1.67964
1668.20825	1.74384
1666.27969	1.79679
1664.35112	1.84384
1662.42256	1.90309
1660.49399	1.96832
1658.56543	2.01943
1656.63687	2.06275
1654.70830	2.10492
1652.77974	2.16711
1650.85117	2.22072
1648.92261	2.23953
1646.99404	2.26500
1645.06548	2.29102
1643.13691	2.30699
1641.20835	2.31655
1639.27979	2.32616
1637.35122	2.33258
1635.42266	2.33187
1633.49409	2.32278
1631.56553	2.30817
1629.63696	2.29041
1627.70840	2.26090
1625.77983	2.22727
1623.85127	2.18669
1621.92271	2.13569
1619.99414	2.08866
1618.06558	2.04399
1616.13701	1.98105
1614.20845	1.91396
1612.27988	1.86185
1610.35132	1.80986
1608.42275	1.75471
1606.49419	1.69930
1604.56562	1.64727
1602.63706	1.59735
1600.70850	1.54887
1598.77993	1.50417
1596.85137	1.46275
1594.92280	1.42302
1592.99424	1.38416
1591.06567	1.34818
1589.13711	1.31491
1587.20854	1.28440
1585.27998	1.25662
1583.35142	1.23116
1581.42285	1.20821
1579.49429	1.18913
1577.56572	1.17318
1575.63716	1.15332
1573.70859	1.13357
1571.78003	1.12095
1569.85146	1.11016
1567.92290	1.09773
1565.99434	1.08744
1564.06577	1.08017
1562.13721	1.07583
1560.20864	1.07628
1558.28008	1.07912
1556.35151	1.07618
1554.42295	1.07247
1552.49438	1.07008
1550.56582	1.06732
1548.63726	1.06253
1546.70869	1.05644
1544.78013	1.04989
1542.85156	1.04205
1540.92300	1.02876
1538.99443	1.00152
1537.06587	0.97745
1535.13730	0.96243
1533.20874	0.94512
1531.28018	0.92554
1529.35161	0.91098
1527.42305	0.89895
1525.49448	0.88718
1523.56592	0.87724
1521.63735	0.86802
1519.70879	0.85699
1517.78022	0.84653
1515.85166	0.83472
1513.92310	0.82186
1511.99453	0.81134
1510.06597	0.80398
1508.13740	0.79904
1506.20884	0.78736
1504.28027	0.77120
1502.35171	0.76158
1500.42314	0.75541
1498.49458	0.75026
1496.56602	0.74359
1494.63745	0.73533
1492.70889	0.72930
1490.78032	0.72597
1488.85176	0.72177
1486.92319	0.71483
1484.99463	0.70817
1483.06606	0.70373
1481.13750	0.70086
1479.20894	0.69876
1477.28037	0.69797
1475.35181	0.69875
1473.42324	0.69988
1471.49468	0.69798
1469.56611	0.69323
1467.63755	0.68964
1465.70898	0.68794
1463.78042	0.68648
1461.85186	0.68522
1459.92329	0.68612
1457.99473	0.68914
1456.06616	0.68899
1454.13760	0.68399
1452.20903	0.67977
1450.28047	0.67699
1448.35190	0.67483
1446.42334	0.67209
1444.49478	0.66899
1442.56621	0.66639
1440.63765	0.66430
1438.70908	0.66292
1436.78052	0.66146
1434.85195	0.65819
1432.92339	0.65477
1430.99482	0.65284
1429.06626	0.65168
1427.13770	0.65084
1425.20913	0.65100
1423.28057	0.65187
1421.35200	0.65274
1419.42344	0.65398
1417.49487	0.65401
1415.56631	0.65158
1413.63774	0.64934
1411.70918	0.64859
1409.78062	0.64900
1407.85205	0.65004
1405.92349	0.65159
1403.99492	0.65259
1402.06636	0.65234
1400.13779	0.65198
1398.20923	0.65150
1396.28066	0.64987
1394.35210	0.64629
1392.42354	0.64120
1390.49497	0.63676
1388.56641	0.63355
1386.63784	0.62981
1384.70928	0.62473
1382.78071	0.61975
1380.85215	0.61562
1378.92358	0.61241
1376.99502	0.61029
1375.06646	0.60916
1373.13789	0.60786
1371.20933	0.60609
1369.28076	0.60483
1367.35220	0.60378
1365.42363	0.60271
1363.49507	0.60205
1361.56650	0.60084
1359.63794	0.59848
1357.70937	0.59638
1355.78081	0.59515
1353.85225	0.59430
1351.92368	0.59348
1349.99512	0.59276
1348.06655	0.59197
1346.13799	0.59096
1344.20942	0.59010
1342.28086	0.58996
1340.35229	0.59042
1338.42373	0.59011
1336.49517	0.58860
1334.56660	0.58721
1332.63804	0.58660
1330.70947	0.58651
1328.78091	0.58667
1326.85234	0.58695
1324.92378	0.58735
1322.99521	0.58787
1321.06665	0.58845
1319.13809	0.58897
1317.20952	0.58911
1315.28096	0.58889
1313.35239	0.58853
1311.42383	0.58796
1309.49526	0.58720
1307.56670	0.58644
1305.63813	0.58577
1303.70957	0.58513
1301.78101	0.58439
1299.85244	0.58357
1297.92388	0.58264
1295.99531	0.58143
1294.06675	0.58001
1292.13818	0.57873
1290.20962	0.57772
1288.28105	0.57673
1286.35249	0.57558
1284.42393	0.57443
1282.49536	0.57333
1280.56680	0.57220
1278.63823	0.57098
1276.70967	0.56972
1274.78110	0.56866
1272.85254	0.56796
1270.92397	0.56737
1268.99541	0.56671
1267.06685	0.56610
1265.13828	0.56537
1263.20972	0.56453
1261.28115	0.56384
1259.35259	0.56328
1257.42402	0.56279
1255.49546	0.56240
1253.56689	0.56223
1251.63833	0.56233
1249.70977	0.56254
1247.78120	0.56262
1245.85264	0.56250
1243.92407	0.56207
1241.99551	0.56123
1240.06694	0.56002
1238.13838	0.55862
1236.20981	0.55703
1234.28125	0.55521
1232.35269	0.55340
1230.42412	0.55163
1228.49556	0.54980
1226.56699	0.54799
1224.63843	0.54632
1222.70986	0.54487
1220.78130	0.54360
1218.85273	0.54244
1216.92417	0.54137
1214.99561	0.54037
1213.06704	0.53941
1211.13848	0.53859
1209.20991	0.53785
1207.28135	0.53705
1205.35278	0.53625
1203.42422	0.53544
1201.49565	0.53462
1199.56709	0.53385
1197.63853	0.53315
1195.70996	0.53252
1193.78140	0.53204
1191.85283	0.53161
1189.92427	0.53117
1187.99570	0.53086
1186.06714	0.53070
1184.13857	0.53063
1182.21001	0.53073
1180.28145	0.53122
1178.35288	0.53226
1176.42432	0.53361
1174.49575	0.53479
1172.56719	0.53543
1170.63862	0.53543
1168.71006	0.53506
1166.78149	0.53469
1164.85293	0.53454
1162.92437	0.53443
1160.99580	0.53407
1159.06724	0.53342
1157.13867	0.53260
1155.21011	0.53163
1153.28154	0.53039
1151.35298	0.52869
1149.42441	0.52659
1147.49585	0.52421
1145.56729	0.52164
1143.63872	0.51913
1141.71016	0.51684
1139.78159	0.51469
1137.85303	0.51296
1135.92446	0.51177
1133.99590	0.51076
1132.06733	0.50984
1130.13877	0.50917
1128.21021	0.50848
1126.28164	0.50746
1124.35308	0.50636
1122.42451	0.50551
1120.49595	0.50495
1118.56738	0.50462
1116.63882	0.50442
1114.71025	0.50436
1112.78169	0.50464
1110.85312	0.50519
1108.92456	0.50582
1106.99600	0.50669
1105.06743	0.50797
1103.13887	0.50948
1101.21030	0.51109
1099.28174	0.51298
1097.35317	0.51542
1095.42461	0.51848
1093.49604	0.52217
1091.56748	0.52655
1089.63892	0.53156
1087.71035	0.53733
1085.78179	0.54391
1083.85322	0.55072
1081.92466	0.55720
1079.99609	0.56276
1078.06753	0.56633
1076.13896	0.56691
1074.21040	0.56446
1072.28184	0.55978
1070.35327	0.55376
1068.42471	0.54691
1066.49614	0.53979
1064.56758	0.53294
1062.63901	0.52681
1060.71045	0.52170
1058.78188	0.51736
1056.85332	0.51330
1054.92476	0.50953
1052.99619	0.50620
1051.06763	0.50339
1049.13906	0.50111
1047.21050	0.49915
1045.28193	0.49746
1043.35337	0.49613
1041.42480	0.49496
1039.49624	0.49396
1037.56768	0.49336
1035.63911	0.49300
1033.71055	0.49266
1031.78198	0.49233
1029.85342	0.49197
1027.92485	0.49146
1025.99629	0.49089
1024.06772	0.49061
1022.13916	0.49087
1020.21060	0.49156
1018.28203	0.49231
1016.35347	0.49301
1014.42490	0.49378
1012.49634	0.49462
1010.56777	0.49564
1008.63921	0.49682
1006.71064	0.49804
1004.78208	0.49964
1002.85352	0.50180
1000.92495	0.50446
998.99639	0.50774
997.06782	0.51159
995.13926	0.51576
993.21069	0.52002
991.28213	0.52391
989.35356	0.52684
987.42500	0.52855
985.49644	0.52935
983.56787	0.52973
981.63931	0.53023
979.71074	0.53133
977.78218	0.53308
975.85361	0.53534
973.92505	0.53798
971.99648	0.54085
970.06792	0.54413
968.13936	0.54800
966.21079	0.55221
964.28223	0.55659
962.35366	0.56137
960.42510	0.56651
958.49653	0.57187
956.56797	0.57751
954.63940	0.58359
952.71084	0.58999
950.78228	0.59646
948.85371	0.60304
946.92515	0.60959
944.99658	0.61574
943.06802	0.62177
941.13945	0.62806
939.21089	0.63422
937.28232	0.63996
935.35376	0.64567
933.42520	0.65160
931.49663	0.65780
929.56807	0.66402
927.63950	0.66969
925.71094	0.67507
923.78237	0.68089
921.85381	0.68727
919.92524	0.69428
917.99668	0.70162
916.06812	0.70872
914.13955	0.71589
912.21099	0.72350
910.28242	0.73148
908.35386	0.74004
906.42529	0.74909
904.49673	0.75807
902.56816	0.76740
900.63960	0.77761
898.71104	0.78743
896.78247	0.79589
894.85391	0.80459
892.92534	0.81500
890.99678	0.82638
889.06821	0.83785
887.13965	0.84980
885.21108	0.86147
883.28252	0.87140
881.35396	0.88115
879.42539	0.89273
877.49683	0.90569
875.56826	0.91870
873.63970	0.93031
871.71113	0.94034
869.78257	0.95086
867.85400	0.96328
865.92544	0.97518
863.99687	0.98557
862.06831	0.99764
860.13975	1.01123
858.21118	1.02386
856.28262	1.03578
854.35405	1.04769
852.42549	1.05877
850.49692	1.06959
848.56836	1.08212
846.63979	1.09622
844.71123	1.11010
842.78267	1.12245
840.85410	1.13421
838.92554	1.14596
836.99697	1.15621
835.06841	1.16602
833.13984	1.17841
831.21128	1.19342
829.28271	1.20618
827.35415	1.21496
825.42559	1.22340
823.49702	1.23100
821.56846	1.24010
819.63989	1.25561
817.71133	1.27499
815.78276	1.29493
813.85420	1.30459
811.92563	1.30305
809.99707	1.31956
808.06851	1.35473
806.13994	1.37077
804.21138	1.37151
802.28281	1.37910
800.35425	1.38579
798.42568	1.39376
796.49712	1.39670
794.56855	1.38906
792.63999	1.39051
790.71143	1.40395
788.78286	1.43445
786.85430	1.48264
784.92573	1.54897
782.99717	1.61334
781.06860	1.61990
779.14004	1.61237
777.21147	1.66780
775.28291	1.74575
773.35435	1.78806
771.42578	1.77222
769.49722	1.67062
767.56865	1.61278
765.64009	1.52583
763.71152	1.40006
761.78296	1.35359
759.85439	1.38984
757.92583	1.38956
755.99727	1.36358
754.06870	1.36561
752.14014	1.30264
750.21157	1.26486
748.28301	1.33486
746.35444	1.34873
744.42588	1.22009
742.49731	1.15031
740.56875	1.13835
738.64019	1.10805
736.71162	1.06593
734.78306	1.02739
732.85449	0.94309
730.92593	0.82962
728.99736	0.74480
727.06880	0.69120
725.14023	0.56576
723.21167	0.41780
721.28311	0.37252
719.35454	0.41714
717.42598	0.55987
715.49741	0.89075
713.56885	0.66533
711.64028	0.19379
709.71172	0.04317
707.78315	0.07059
705.85459	0.07779
703.92603	0.17153
701.99746	0.32136
700.06890	0.39582
698.14033	0.36958
696.21177	0.38254
694.28320	0.43838
692.35464	0.50213
690.42607	0.63117
688.49751	0.70925
686.56895	0.57259
684.64038	0.53664
682.71182	0.80930
680.78325	0.94091
678.85469	0.52912
676.92612	0.43005
674.99756	0.47258
673.06899	0.39995
671.14043	0.31827
669.21187	0.33653
667.28330	0.55757
665.35474	1.03644
663.42617	0.68183
661.49761	0.48240
659.56904	0.40586
657.64048	0.36023
655.71191	0.41071
653.78335	0.46860
651.85479	0.45335
649.92622	0.39964
647.99766	0.32500
646.06909	0.29762
644.14053	0.31358
642.21196	0.35461
640.28340	0.37928
638.35483	0.34857
636.42627	0.32229
634.49771	0.37669
632.56914	0.45515
630.64058	0.46698
628.71201	0.44172
626.78345	0.39619
624.85488	0.32347
622.92632	0.24591
620.99775	0.21865
619.06919	0.21860
617.14062	0.17982
615.21206	0.16341
613.28350	0.22544
611.35493	0.25240
609.42637	0.24551
607.49780	0.27895
605.56924	0.28354
603.64067	0.25854
601.71211	0.28270
599.78354	0.34259
597.85498	0.37051
595.92642	0.32411
593.99785	0.30107
592.06929	0.34596
590.14072	0.39411
588.21216	0.38463
586.28359	0.33213
584.35503	0.32548
582.42646	0.39409
580.49790	0.43933
578.56934	0.42742
576.64077	0.34997
574.71221	0.28204
572.78364	0.30899
570.85508	0.39200
568.92651	0.45686
566.99795	0.53595
565.06938	0.49169
563.14082	0.35144
561.21226	0.30251
559.28369	0.30242
557.35513	0.24050
555.42656	0.14895
553.49800	0.12002
551.56943	0.14079
549.64087	0.15744
547.71230	0.17682
545.78374	0.18775
543.85518	0.17263
541.92661	0.17542
539.99805	0.22286
538.06948	0.31246
536.14092	0.39759
534.21235	0.40357
532.28379	0.36066
530.35522	0.33580
528.42666	0.32303
526.49810	0.31621
524.56953	0.30564
522.64097	0.27250
520.71240	0.26843
518.78384	0.30133
516.85527	0.31304
514.92671	0.26671
512.99814	0.22294
511.06958	0.23112
509.14102	0.28492
507.21245	0.27456
505.28389	0.22175
503.35532	0.23607
501.42676	0.31253
499.49819	0.38194
