3997.91411	0.06956
3995.98555	0.07000
3994.05698	0.07033
3992.12842	0.07071
3990.19985	0.07099
3988.27129	0.07113
3986.34272	0.07135
3984.41416	0.07158
3982.48560	0.07178
3980.55703	0.07201
3978.62847	0.07230
3976.69990	0.07274
3974.77134	0.07315
3972.84277	0.07325
3970.91421	0.07311
3968.98564	0.07312
3967.05708	0.07324
3965.12852	0.07327
3963.19995	0.07328
3961.27139	0.07354
3959.34282	0.07402
3957.41426	0.07427
3955.48569	0.07411
3953.55713	0.07392
3951.62856	0.07403
3949.70000	0.07442
3947.77144	0.07479
3945.84287	0.07484
3943.91431	0.07451
3941.98574	0.07389
3940.05718	0.07339
3938.12861	0.07363
3936.20005	0.07410
3934.27148	0.07411
3932.34292	0.07404
3930.41436	0.07411
3928.48579	0.07402
3926.55723	0.07384
3924.62866	0.07395
3922.70010	0.07412
3920.77153	0.07403
3918.84297	0.07387
3916.91440	0.07385
3914.98584	0.07394
3913.05728	0.07367
3911.12871	0.07317
3909.20015	0.07291
3907.27158	0.07278
3905.34302	0.07265
3903.41445	0.07264
3901.48589	0.07248
3899.55732	0.07235
3897.62876	0.07288
3895.70020	0.07347
3893.77163	0.07350
3891.84307	0.07334
3889.91450	0.07317
3887.98594	0.07264
3886.05737	0.07246
3884.12881	0.07316
3882.20024	0.07374
3880.27168	0.07393
3878.34312	0.07405
3876.41455	0.07405
3874.48599	0.07425
3872.55742	0.07474
3870.62886	0.07515
3868.70029	0.07519
3866.77173	0.07506
3864.84316	0.07518
3862.91460	0.07550
3860.98604	0.07594
3859.05747	0.07623
3857.12891	0.07606
3855.20034	0.07571
3853.27178	0.07586
3851.34321	0.07722
3849.41465	0.07855
3847.48608	0.07906
3845.55752	0.07916
3843.62896	0.07940
3841.70039	0.07990
3839.77183	0.08064
3837.84326	0.08176
3835.91470	0.08273
3833.98613	0.08321
3832.05757	0.08363
3830.12900	0.08431
3828.20044	0.08508
3826.27187	0.08574
3824.34331	0.08615
3822.41475	0.08650
3820.48618	0.08764
3818.55762	0.08912
3816.62905	0.09023
3814.70049	0.09164
3812.77192	0.09261
3810.84336	0.09285
3808.91479	0.09325
3806.98623	0.09441
3805.05767	0.09584
3803.12910	0.09650
3801.20054	0.09714
3799.27197	0.09873
3797.34341	0.10043
3795.41484	0.10196
3793.48628	0.10340
3791.55771	0.10463
3789.62915	0.10573
3787.70059	0.10678
3785.77202	0.10808
3783.84346	0.10965
3781.91489	0.11106
3779.98633	0.11252
3778.05776	0.11449
3776.12920	0.11642
3774.20063	0.11797
3772.27207	0.11910
3770.34351	0.12020
3768.41494	0.12213
3766.48638	0.12428
3764.55781	0.12603
3762.62925	0.12773
3760.70068	0.12977
3758.77212	0.13251
3756.84355	0.13551
3754.91499	0.13780
3752.98643	0.13951
3751.05786	0.14170
3749.12930	0.14539
3747.20073	0.14895
3745.27217	0.15178
3743.34360	0.15567
3741.41504	0.15962
3739.48647	0.16241
3737.55791	0.16546
3735.62935	0.17011
3733.70078	0.17644
3731.77222	0.18255
3729.84365	0.18764
3727.91509	0.19200
3725.98652	0.19666
3724.05796	0.20237
3722.12939	0.20907
3720.20083	0.21648
3718.27227	0.22396
3716.34370	0.23143
3714.41514	0.23891
3712.48657	0.24770
3710.55801	0.26024
3708.62944	0.27480
3706.70088	0.28762
3704.77231	0.29935
3702.84375	0.31222
3700.91519	0.32892
3698.98662	0.34781
3697.05806	0.36575
3695.12949	0.38436
3693.20093	0.40385
3691.27236	0.42444
3689.34380	0.45085
3687.41523	0.48495
3685.48667	0.51678
3683.55811	0.54428
3681.62954	0.57299
3679.70098	0.60483
3677.77241	0.63793
3675.84385	0.67647
3673.91528	0.72819
3671.98672	0.77196
3670.05815	0.81135
3668.12959	0.86527
3666.20103	0.91585
3664.27246	0.95793
3662.34390	1.00188
3660.41533	1.04908
3658.48677	1.09553
3656.55820	1.14463
3654.62964	1.19964
3652.70107	1.24634
3650.77251	1.28622
3648.84395	1.34019
3646.91538	1.40818
3644.98682	1.46119
3643.05825	1.50243
3641.12969	1.54392
3639.20112	1.58899
3637.27256	1.63430
3635.34399	1.67840
3633.41543	1.72172
3631.48687	1.76173
3629.55830	1.80265
3627.62974	1.85641
3625.70117	1.90746
3623.77261	1.94318
3621.84404	1.97762
3619.91548	2.01632
3617.98691	2.06169
3616.05835	2.10505
3614.12979	2.14100
3612.20122	2.17896
3610.27266	2.21889
3608.34409	2.25973
3606.41553	2.30274
3604.48696	2.34333
3602.55840	2.37945
3600.62983	2.41698
3598.70127	2.45866
3596.77271	2.50148
3594.84414	2.54345
3592.91558	2.58417
3590.98701	2.62321
3589.05845	2.66138
3587.12988	2.70591
3585.20132	2.75354
3583.27275	2.79443
3581.34419	2.83219
3579.41562	2.87236
3577.48706	2.91619
3575.55850	2.96199
3573.62993	3.00699
3571.70137	3.04787
3569.77280	3.08679
3567.84424	3.12839
3565.91567	3.17833
3563.98711	3.22854
3562.05854	3.27175
3560.12998	3.31511
3558.20142	3.36212
3556.27285	3.41143
3554.34429	3.45925
3552.41572	3.50574
3550.48716	3.55126
3548.55859	3.59503
3546.63003	3.63832
3544.70146	3.68519
3542.77290	3.73445
3540.84434	3.78119
3538.91577	3.82644
3536.98721	3.87328
3535.05864	3.92418
3533.13008	3.97478
3531.20151	4.02245
3529.27295	4.06976
3527.34438	4.11997
3525.41582	4.17255
3523.48726	4.22217
3521.55869	4.26828
3519.63013	4.31333
3517.70156	4.36036
3515.77300	4.41005
3513.84443	4.45966
3511.91587	4.50887
3509.98730	4.55872
3508.05874	4.60676
3506.13018	4.65530
3504.20161	4.70629
3502.27305	4.75387
3500.34448	4.79744
3498.41592	4.84347
3496.48735	4.89491
3494.55879	4.94775
3492.63022	4.99639
3490.70166	5.03987
3488.77310	5.08531
3486.84453	5.13935
3484.91597	5.19490
3482.98740	5.24240
3481.05884	5.28459
3479.13027	5.32564
3477.20171	5.36980
3475.27314	5.42385
3473.34458	5.48211
3471.41602	5.53300
3469.48745	5.57735
3467.55889	5.62229
3465.63032	5.67100
3463.70176	5.72752
3461.77319	5.78899
3459.84463	5.84593
3457.91606	5.89820
3455.98750	5.95033
3454.05894	5.99411
3452.13037	6.02965
3450.20181	6.08053
3448.27324	6.14610
3446.34468	6.20214
3444.41611	6.24262
3442.48755	6.28021
3440.55898	6.32636
3438.63042	6.38539
3436.70186	6.43892
3434.77329	6.48002
3432.84473	6.53046
3430.91616	6.58182
3428.98760	6.62205
3427.05903	6.66864
3425.13047	6.72351
3423.20190	6.76658
3421.27334	6.80243
3419.34478	6.84651
3417.41621	6.90593
3415.48765	6.95781
3413.55908	6.98576
3411.63052	7.03635
3409.70195	7.10629
3407.77339	7.14799
3405.84482	7.17772
3403.91626	7.23791
3401.98770	7.30202
3400.05913	7.34168
3398.13057	7.39369
3396.20200	7.46754
3394.27344	7.52751
3392.34487	7.55000
3390.41631	7.55937
3388.48774	7.57686
3386.55918	7.62475
3384.63062	7.69354
3382.70205	7.72865
3380.77349	7.70350
3378.84492	7.67441
3376.91636	7.72260
3374.98779	7.82000
3373.05923	7.88926
3371.13066	7.90474
3369.20210	7.89843
3367.27354	7.90970
3365.34497	7.97294
3363.41641	8.04356
3361.48784	8.02446
3359.55928	7.95208
3357.63071	7.93857
3355.70215	8.00663
3353.77358	8.04930
3351.84502	8.02367
3349.91646	7.98620
3347.98789	8.00858
3346.05933	8.08035
3344.13076	8.11586
3342.20220	8.13351
3340.27363	8.16951
3338.34507	8.17119
3336.41650	8.10384
3334.48794	8.05817
3332.55937	8.09509
3330.63081	8.18452
3328.70225	8.21887
3326.77368	8.17725
3324.84512	8.18036
3322.91655	8.23563
3320.98799	8.26402
3319.05942	8.23420
3317.13086	8.23831
3315.20229	8.30591
3313.27373	8.35962
3311.34517	8.37636
3309.41660	8.34267
3307.48804	8.28091
3305.55947	8.26225
3303.63091	8.26261
3301.70234	8.21641
3299.77378	8.18051
3297.84521	8.21142
3295.91665	8.26469
3293.98809	8.30421
3292.05952	8.38389
3290.13096	8.41515
3288.20239	8.28725
3286.27383	8.14866
3284.34526	8.10407
3282.41670	8.13422
3280.48813	8.15365
3278.55957	8.15540
3276.63101	8.20958
3274.70244	8.29713
3272.77388	8.31033
3270.84531	8.24573
3268.91675	8.22314
3266.98818	8.24162
3265.05962	8.26165
3263.13105	8.36631
3261.20249	8.53314
3259.27393	8.50955
3257.34536	8.35889
3255.41680	8.30448
3253.48823	8.28146
3251.55967	8.20767
3249.63110	8.17289
3247.70254	8.21741
3245.77397	8.24295
3243.84541	8.23160
3241.91685	8.25737
3239.98828	8.32110
3238.05972	8.33217
3236.13115	8.30670
3234.20259	8.33164
3232.27402	8.34273
3230.34546	8.27966
3228.41689	8.23363
3226.48833	8.28673
3224.55977	8.30446
3222.63120	8.19846
3220.70264	8.13369
3218.77407	8.14376
3216.84551	8.13630
3214.91694	8.07324
3212.98838	7.98030
3211.05981	7.93036
3209.13125	7.92337
3207.20269	7.92178
3205.27412	7.94430
3203.34556	7.98628
3201.41699	7.98850
3199.48843	7.91285
3197.55986	7.83759
3195.63130	7.81935
3193.70273	7.81418
3191.77417	7.78188
3189.84561	7.71522
3187.91704	7.65233
3185.98848	7.60208
3184.05991	7.52847
3182.13135	7.43688
3180.20278	7.37039
3178.27422	7.34888
3176.34565	7.31916
3174.41709	7.22899
3172.48853	7.14142
3170.55996	7.11320
3168.63140	7.08951
3166.70283	7.01876
3164.77427	6.93805
3162.84570	6.89473
3160.91714	6.87583
3158.98857	6.82210
3157.06001	6.71393
3155.13145	6.60459
3153.20288	6.51986
3151.27432	6.43641
3149.34575	6.36267
3147.41719	6.31700
3145.48862	6.28013
3143.56006	6.23125
3141.63149	6.16947
3139.70293	6.09547
3137.77437	6.01057
3135.84580	5.92545
3133.91724	5.84836
3131.98867	5.77249
3130.06011	5.69584
3128.13154	5.62790
3126.20298	5.56693
3124.27441	5.50191
3122.34585	5.43301
3120.41729	5.36650
3118.48872	5.29749
3116.56016	5.22326
3114.63159	5.14927
3112.70303	5.07705
3110.77446	5.00734
3108.84590	4.94030
3106.91733	4.87227
3104.98877	4.80264
3103.06021	4.73586
3101.13164	4.67228
3099.20308	4.60625
3097.27451	4.53664
3095.34595	4.46935
3093.41738	4.40617
3091.48882	4.34290
3089.56025	4.27852
3087.63169	4.21382
3085.70312	4.14869
3083.77456	4.08641
3081.84600	4.02787
3079.91743	3.96722
3077.98887	3.90407
3076.06030	3.84389
3074.13174	3.78660
3072.20317	3.72934
3070.27461	3.67191
3068.34604	3.61345
3066.41748	3.55396
3064.48892	3.49671
3062.56035	3.44175
3060.63179	3.38684
3058.70322	3.33196
3056.77466	3.27711
3054.84609	3.22279
3052.91753	3.17063
3050.98896	3.11964
3049.06040	3.06749
3047.13184	3.01562
3045.20327	2.96660
3043.27471	2.91927
3041.34614	2.87107
3039.41758	2.82217
3037.48901	2.77390
3035.56045	2.72677
3033.63188	2.68091
3031.70332	2.63555
3029.77476	2.59031
3027.84619	2.54583
3025.91763	2.50218
3023.98906	2.45909
3022.06050	2.41645
3020.13193	2.37459
3018.20337	2.33402
3016.27480	2.29415
3014.34624	2.25397
3012.41768	2.21417
3010.48911	2.17564
3008.56055	2.13808
3006.63198	2.10110
3004.70342	2.06475
3002.77485	2.02898
3000.84629	1.99351
2998.91772	1.95851
2996.98916	1.92439
2995.06060	1.89125
2993.13203	1.85930
2991.20347	1.82854
2989.27490	1.79867
2987.34634	1.76949
2985.41777	1.74048
2983.48921	1.71155
2981.56064	1.68323
2979.63208	1.65568
2977.70352	1.62884
2975.77495	1.60264
2973.84639	1.57681
2971.91782	1.55145
2969.98926	1.52650
2968.06069	1.50145
2966.13213	1.47642
2964.20356	1.45185
2962.27500	1.42768
2960.34644	1.40351
2958.41787	1.37913
2956.48931	1.35456
2954.56074	1.33017
2952.63218	1.30642
2950.70361	1.28305
2948.77505	1.25959
2946.84648	1.23630
2944.91792	1.21393
2942.98936	1.19254
2941.06079	1.17145
2939.13223	1.15040
2937.20366	1.12952
2935.27510	1.10888
2933.34653	1.08871
2931.41797	1.06923
2929.48940	1.04992
2927.56084	1.03069
2925.63228	1.01221
2923.70371	0.99410
2921.77515	0.97587
2919.84658	0.95815
2917.91802	0.94081
2915.98945	0.92343
2914.06089	0.90654
2912.13232	0.89013
2910.20376	0.87372
2908.27520	0.85761
2906.34663	0.84232
2904.41807	0.82781
2902.48950	0.81369
2900.56094	0.79985
2898.63237	0.78654
2896.70381	0.77349
2894.77524	0.76027
2892.84668	0.74742
2890.91812	0.73538
2888.98955	0.72376
2887.06099	0.71242
2885.13242	0.70162
2883.20386	0.69144
2881.27529	0.68151
2879.34673	0.67160
2877.41816	0.66183
2875.48960	0.65203
2873.56104	0.64180
2871.63247	0.63117
2869.70391	0.62019
2867.77534	0.60860
2865.84678	0.59663
2863.91821	0.58487
2861.98965	0.57348
2860.06108	0.56260
2858.13252	0.55235
2856.20396	0.54247
2854.27539	0.53292
2852.34683	0.52378
2850.41826	0.51492
2848.48970	0.50618
2846.56113	0.49770
2844.63257	0.48998
2842.70400	0.48316
2840.77544	0.47682
2838.84687	0.47079
2836.91831	0.46501
2834.98975	0.45914
2833.06118	0.45301
2831.13262	0.44684
2829.20405	0.44073
2827.27549	0.43464
2825.34692	0.42866
2823.41836	0.42277
2821.48979	0.41687
2819.56123	0.41087
2817.63267	0.40479
2815.70410	0.39878
2813.77554	0.39292
2811.84697	0.38743
2809.91841	0.38227
2807.98984	0.37697
2806.06128	0.37157
2804.13271	0.36635
2802.20415	0.36117
2800.27559	0.35586
2798.34702	0.35061
2796.41846	0.34564
2794.48989	0.34095
2792.56133	0.33640
2790.63276	0.33187
2788.70420	0.32734
2786.77563	0.32288
2784.84707	0.31864
2782.91851	0.31447
2780.98994	0.31012
2779.06138	0.30582
2777.13281	0.30183
2775.20425	0.29806
2773.27568	0.29424
2771.34712	0.29033
2769.41855	0.28651
2767.48999	0.28283
2765.56143	0.27929
2763.63286	0.27585
2761.70430	0.27246
2759.77573	0.26921
2757.84717	0.26601
2755.91860	0.26277
2753.99004	0.25958
2752.06147	0.25647
2750.13291	0.25336
2748.20435	0.25031
2746.27578	0.24738
2744.34722	0.24461
2742.41865	0.24198
2740.49009	0.23924
2738.56152	0.23638
2736.63296	0.23379
2734.70439	0.23149
2732.77583	0.22911
2730.84727	0.22657
2728.91870	0.22398
2726.99014	0.22147
2725.06157	0.21922
2723.13301	0.21724
2721.20444	0.21528
2719.27588	0.21313
2717.34731	0.21101
2715.41875	0.20900
2713.49019	0.20701
2711.56162	0.20513
2709.63306	0.20338
2707.70449	0.20160
2705.77593	0.19980
2703.84736	0.19813
2701.91880	0.19660
2699.99023	0.19518
2698.06167	0.19377
2696.13311	0.19227
2694.20454	0.19071
2692.27598	0.18925
2690.34741	0.18798
2688.41885	0.18676
2686.49028	0.18555
2684.56172	0.18443
2682.63315	0.18334
2680.70459	0.18205
2678.77603	0.18067
2676.84746	0.17942
2674.91890	0.17831
2672.99033	0.17728
2671.06177	0.17621
2669.13320	0.17512
2667.20464	0.17412
2665.27607	0.17322
2663.34751	0.17237
2661.41895	0.17152
2659.49038	0.17073
2657.56182	0.17011
2655.63325	0.16943
2653.70469	0.16848
2651.77612	0.16747
2649.84756	0.16672
2647.91899	0.16616
2645.99043	0.16556
2644.06187	0.16501
2642.13330	0.16462
2640.20474	0.16420
2638.27617	0.16364
2636.34761	0.16308
2634.41904	0.16254
2632.49048	0.16202
2630.56191	0.16152
2628.63335	0.16103
2626.70479	0.16064
2624.77622	0.16040
2622.84766	0.16017
2620.91909	0.15981
2618.99053	0.15937
2617.06196	0.15907
2615.13340	0.15891
2613.20483	0.15881
2611.27627	0.15877
2609.34771	0.15871
2607.41914	0.15851
2605.49058	0.15838
2603.56201	0.15846
2601.63345	0.15845
2599.70488	0.15822
2597.77632	0.15809
2595.84775	0.15825
2593.91919	0.15845
2591.99062	0.15846
2590.06206	0.15842
2588.13350	0.15850
2586.20493	0.15868
2584.27637	0.15897
2582.34780	0.15923
2580.41924	0.15938
2578.49067	0.15957
2576.56211	0.15982
2574.63354	0.16013
2572.70498	0.16056
2570.77642	0.16087
2568.84785	0.16098
2566.91929	0.16120
2564.99072	0.16162
2563.06216	0.16202
2561.13359	0.16232
2559.20503	0.16275
2557.27646	0.16333
2555.34790	0.16386
2553.41934	0.16435
2551.49077	0.16489
2549.56221	0.16545
2547.63364	0.16599
2545.70508	0.16649
2543.77651	0.16701
2541.84795	0.16764
2539.91938	0.16838
2537.99082	0.16914
2536.06226	0.16976
2534.13369	0.17024
2532.20513	0.17078
2530.27656	0.17149
2528.34800	0.17221
2526.41943	0.17278
2524.49087	0.17336
2522.56230	0.17415
2520.63374	0.17506
2518.70518	0.17589
2516.77661	0.17662
2514.84805	0.17734
2512.91948	0.17810
2510.99092	0.17887
2509.06235	0.17962
2507.13379	0.18036
2505.20522	0.18104
2503.27666	0.18172
2501.34810	0.18251
2499.41953	0.18348
2497.49097	0.18444
2495.56240	0.18521
2493.63384	0.18596
2491.70527	0.18685
2489.77671	0.18774
2487.84814	0.18852
2485.91958	0.18922
2483.99102	0.18998
2482.06245	0.19090
2480.13389	0.19184
2478.20532	0.19266
2476.27676	0.19347
2474.34819	0.19440
2472.41963	0.19533
2470.49106	0.19630
2468.56250	0.19727
2466.63394	0.19819
2464.70537	0.19914
2462.77681	0.20001
2460.84824	0.20076
2458.91968	0.20168
2456.99111	0.20281
2455.06255	0.20385
2453.13398	0.20475
2451.20542	0.20566
2449.27686	0.20664
2447.34829	0.20769
2445.41973	0.20874
2443.49116	0.20975
2441.56260	0.21078
2439.63403	0.21181
2437.70547	0.21276
2435.77690	0.21366
2433.84834	0.21462
2431.91978	0.21568
2429.99121	0.21675
2428.06265	0.21776
2426.13408	0.21881
2424.20552	0.21995
2422.27695	0.22112
2420.34839	0.22226
2418.41982	0.22333
2416.49126	0.22438
2414.56270	0.22556
2412.63413	0.22681
2410.70557	0.22796
2408.77700	0.22907
2406.84844	0.23026
2404.91987	0.23148
2402.99131	0.23261
2401.06274	0.23374
2399.13418	0.23494
2397.20562	0.23613
2395.27705	0.23731
2393.34849	0.23858
2391.41992	0.23994
2389.49136	0.24124
2387.56279	0.24260
2385.63423	0.24428
2383.70566	0.24640
2381.77710	0.24883
2379.84854	0.25149
2377.91997	0.25444
2375.99141	0.25771
2374.06284	0.26138
2372.13428	0.26540
2370.20571	0.26971
2368.27715	0.27436
2366.34858	0.27878
2364.42002	0.28239
2362.49146	0.28534
2360.56289	0.28730
2358.63433	0.28830
2356.70576	0.28850
2354.77720	0.28781
2352.84863	0.28685
2350.92007	0.28550
2348.99150	0.28445
2347.06294	0.28502
2345.13437	0.28814
2343.20581	0.29282
2341.27725	0.29596
2339.34868	0.29730
2337.42012	0.29826
2335.49155	0.29914
2333.56299	0.29978
2331.63442	0.30096
2329.70586	0.30285
2327.77729	0.30428
2325.84873	0.30491
2323.92017	0.30544
2321.99160	0.30614
2320.06304	0.30690
2318.13447	0.30763
2316.20591	0.30831
2314.27734	0.30921
2312.34878	0.31046
2310.42021	0.31166
2308.49165	0.31270
2306.56309	0.31376
2304.63452	0.31480
2302.70596	0.31593
2300.77739	0.31735
2298.84883	0.31892
2296.92026	0.32040
2294.99170	0.32183
2293.06313	0.32335
2291.13457	0.32491
2289.20601	0.32646
2287.27744	0.32807
2285.34888	0.32975
2283.42031	0.33160
2281.49175	0.33360
2279.56318	0.33559
2277.63462	0.33758
2275.70605	0.33970
2273.77749	0.34193
2271.84893	0.34420
2269.92036	0.34634
2267.99180	0.34834
2266.06323	0.35042
2264.13467	0.35263
2262.20610	0.35481
2260.27754	0.35686
2258.34897	0.35895
2256.42041	0.36109
2254.49185	0.36311
2252.56328	0.36512
2250.63472	0.36723
2248.70615	0.36937
2246.77759	0.37152
2244.84902	0.37372
2242.92046	0.37596
2240.99189	0.37821
2239.06333	0.38041
2237.13477	0.38267
2235.20620	0.38502
2233.27764	0.38739
2231.34907	0.38966
2229.42051	0.39182
2227.49194	0.39404
2225.56338	0.39635
2223.63481	0.39866
2221.70625	0.40092
2219.77769	0.40311
2217.84912	0.40529
2215.92056	0.40751
2213.99199	0.40965
2212.06343	0.41173
2210.13486	0.41384
2208.20630	0.41596
2206.27773	0.41798
2204.34917	0.42005
2202.42061	0.42229
2200.49204	0.42447
2198.56348	0.42649
2196.63491	0.42846
2194.70635	0.43037
2192.77778	0.43224
2190.84922	0.43416
2188.92065	0.43605
2186.99209	0.43780
2185.06353	0.43949
2183.13496	0.44127
2181.20640	0.44309
2179.27783	0.44476
2177.34927	0.44630
2175.42070	0.44783
2173.49214	0.44936
2171.56357	0.45092
2169.63501	0.45243
2167.70645	0.45384
2165.77788	0.45518
2163.84932	0.45644
2161.92075	0.45754
2159.99219	0.45852
2158.06362	0.45954
2156.13506	0.46059
2154.20649	0.46154
2152.27793	0.46242
2150.34937	0.46316
2148.42080	0.46372
2146.49224	0.46428
2144.56367	0.46490
2142.63511	0.46543
2140.70654	0.46572
2138.77798	0.46591
2136.84941	0.46608
2134.92085	0.46620
2132.99229	0.46620
2131.06372	0.46614
2129.13516	0.46610
2127.20659	0.46601
2125.27803	0.46567
2123.34946	0.46511
2121.42090	0.46457
2119.49233	0.46409
2117.56377	0.46352
2115.63521	0.46282
2113.70664	0.46202
2111.77808	0.46106
2109.84951	0.46005
2107.92095	0.45901
2105.99238	0.45788
2104.06382	0.45672
2102.13525	0.45545
2100.20669	0.45408
2098.27812	0.45265
2096.34956	0.45118
2094.42100	0.44962
2092.49243	0.44795
2090.56387	0.44620
2088.63530	0.44442
2086.70674	0.44258
2084.77817	0.44067
2082.84961	0.43876
2080.92104	0.43684
2078.99248	0.43490
2077.06392	0.43288
2075.13535	0.43074
2073.20679	0.42851
2071.27822	0.42624
2069.34966	0.42403
2067.42109	0.42179
2065.49253	0.41940
2063.56396	0.41688
2061.63540	0.41437
2059.70684	0.41190
2057.77827	0.40937
2055.84971	0.40674
2053.92114	0.40409
2051.99258	0.40151
2050.06401	0.39894
2048.13545	0.39630
2046.20688	0.39358
2044.27832	0.39085
2042.34976	0.38811
2040.42119	0.38530
2038.49263	0.38250
2036.56406	0.37979
2034.63550	0.37707
2032.70693	0.37428
2030.77837	0.37144
2028.84980	0.36858
2026.92124	0.36584
2024.99268	0.36306
2023.06411	0.36014
2021.13555	0.35730
2019.20698	0.35462
2017.27842	0.35193
2015.34985	0.34916
2013.42129	0.34638
2011.49272	0.34357
2009.56416	0.34073
2007.63560	0.33788
2005.70703	0.33503
2003.77847	0.33231
2001.84990	0.32974
1999.92134	0.32715
1997.99277	0.32450
1996.06421	0.32190
1994.13564	0.31938
1992.20708	0.31683
1990.27852	0.31422
1988.34995	0.31171
1986.42139	0.30927
1984.49282	0.30680
1982.56426	0.30429
1980.63569	0.30183
1978.70713	0.29952
1976.77856	0.29731
1974.85000	0.29513
1972.92144	0.29299
1970.99287	0.29083
1969.06431	0.28863
1967.13574	0.28648
1965.20718	0.28441
1963.27861	0.28245
1961.35005	0.28048
1959.42148	0.27848
1957.49292	0.27654
1955.56436	0.27471
1953.63579	0.27294
1951.70723	0.27118
1949.77866	0.26946
1947.85010	0.26782
1945.92153	0.26633
1943.99297	0.26489
1942.06440	0.26337
1940.13584	0.26185
1938.20728	0.26040
1936.27871	0.25905
1934.35015	0.25776
1932.42158	0.25651
1930.49302	0.25527
1928.56445	0.25408
1926.63589	0.25296
1924.70732	0.25194
1922.77876	0.25096
1920.85020	0.24988
1918.92163	0.24880
1916.99307	0.24784
1915.06450	0.24697
1913.13594	0.24617
1911.20737	0.24545
1909.27881	0.24474
1907.35024	0.24405
1905.42168	0.24342
1903.49312	0.24285
1901.56455	0.24229
1899.63599	0.24172
1897.70742	0.24120
1895.77886	0.24079
1893.85029	0.24053
1891.92173	0.24025
1889.99316	0.23995
1888.06460	0.23962
1886.13604	0.23930
1884.20747	0.23901
1882.27891	0.23875
1880.35034	0.23858
1878.42178	0.23851
1876.49321	0.23858
1874.56465	0.23866
1872.63608	0.23870
1870.70752	0.23874
1868.77896	0.23898
1866.85039	0.23925
1864.92183	0.23937
1862.99326	0.23951
1861.06470	0.23976
1859.13613	0.24012
1857.20757	0.24046
1855.27900	0.24087
1853.35044	0.24134
1851.42187	0.24190
1849.49331	0.24251
1847.56475	0.24314
1845.63618	0.24377
1843.70762	0.24453
1841.77905	0.24542
1839.85049	0.24616
1837.92192	0.24697
1835.99336	0.24781
1834.06479	0.24874
1832.13623	0.24974
1830.20767	0.25096
1828.27910	0.25229
1826.35054	0.25341
1824.42197	0.25476
1822.49341	0.25623
1820.56484	0.25761
1818.63628	0.25896
1816.70771	0.26052
1814.77915	0.26216
1812.85059	0.26388
1810.92202	0.26581
1808.99346	0.26790
1807.06489	0.26997
1805.13633	0.27193
1803.20776	0.27406
1801.27920	0.27646
1799.35063	0.27925
1797.42207	0.28185
1795.49351	0.28417
1793.56494	0.28670
1791.63638	0.29018
1789.70781	0.29395
1787.77925	0.29687
1785.85068	0.29996
1783.92212	0.30356
1781.99355	0.30755
1780.06499	0.31183
1778.13643	0.31620
1776.20786	0.32021
1774.27930	0.32430
1772.35073	0.32974
1770.42217	0.33595
1768.49360	0.34161
1766.56504	0.34709
1764.63647	0.35252
1762.70791	0.35826
1760.77935	0.36558
1758.85078	0.37276
1756.92222	0.37994
1754.99365	0.38770
1753.06509	0.39481
1751.13652	0.40296
1749.20796	0.41300
1747.27939	0.42322
1745.35083	0.43253
1743.42227	0.44225
1741.49370	0.45275
1739.56514	0.46508
1737.63657	0.47763
1735.70801	0.48866
1733.77944	0.50475
1731.85088	0.52423
1729.92231	0.54009
1727.99375	0.55611
1726.06519	0.57337
1724.13662	0.59211
1722.20806	0.61215
1720.27949	0.63066
1718.35093	0.65201
1716.42236	0.68302
1714.49380	0.71366
1712.56523	0.73958
1710.63667	0.76460
1708.70811	0.79106
1706.77954	0.82069
1704.85098	0.85573
1702.92241	0.88732
1700.99385	0.91888
1699.06528	0.96556
1697.13672	1.00892
1695.20815	1.05380
1693.27959	1.09886
1691.35103	1.13586
1689.42246	1.17769
1687.49390	1.22145
1685.56533	1.26382
1683.63677	1.32824
1681.70820	1.39645
1679.77964	1.44179
1677.85107	1.48458
1675.92251	1.53314
1673.99395	1.59316
1672.06538	1.64758
1670.13682	1.70037
1668.20825	1.76865
1666.27969	1.82628
1664.35112	1.87588
1662.42256	1.93823
1660.49399	2.01026
1658.56543	2.06770
1656.63687	2.11296
1654.70830	2.15234
1652.77974	2.21067
1650.85117	2.26688
1648.92261	2.28714
1646.99404	2.31210
1645.06548	2.33990
1643.13691	2.35760
1641.20835	2.36567
1639.27979	2.37266
1637.35122	2.37735
1635.42266	2.37720
1633.49409	2.36963
1631.56553	2.35419
1629.63696	2.33471
1627.70840	2.30373
1625.77983	2.26802
1623.85127	2.22357
1621.92271	2.17018
1619.99414	2.12290
1618.06558	2.07663
1616.13701	2.01214
1614.20845	1.94603
1612.27988	1.89388
1610.35132	1.83920
1608.42275	1.78136
1606.49419	1.72591
1604.56562	1.67472
1602.63706	1.62475
1600.70850	1.57632
1598.77993	1.53200
1596.85137	1.49020
1594.92280	1.44973
1592.99424	1.41091
1591.06567	1.37532
1589.13711	1.34207
1587.20854	1.31139
1585.27998	1.28330
1583.35142	1.25718
1581.42285	1.23340
1579.49429	1.21316
1577.56572	1.19547
1575.63716	1.17574
1573.70859	1.15896
1571.78003	1.14750
1569.85146	1.13602
1567.92290	1.12486
1565.99434	1.11747
1564.06577	1.11231
1562.13721	1.10831
1560.20864	1.10632
1558.28008	1.10889
1556.35151	1.11369
1554.42295	1.11630
1552.49438	1.11834
1550.56582	1.11875
1548.63726	1.11662
1546.70869	1.11144
1544.78013	1.10229
1542.85156	1.08881
1540.92300	1.06885
1538.99443	1.04024
1537.06587	1.01959
1535.13730	1.00478
1533.20874	0.98480
1531.28018	0.96353
1529.35161	0.94767
1527.42305	0.93237
1525.49448	0.91652
1523.56592	0.90315
1521.63735	0.89065
1519.70879	0.87828
1517.78022	0.86797
1515.85166	0.85643
1513.92310	0.84416
1511.99453	0.83281
1510.06597	0.82194
1508.13740	0.81111
1506.20884	0.79613
1504.28027	0.78370
1502.35171	0.77644
1500.42314	0.76985
1498.49458	0.76275
1496.56602	0.75489
1494.63745	0.74739
1492.70889	0.74130
1490.78032	0.73551
1488.85176	0.72918
1486.92319	0.72390
1484.99463	0.71995
1483.06606	0.71676
1481.13750	0.71419
1479.20894	0.71230
1477.28037	0.71116
1475.35181	0.71052
1473.42324	0.71020
1471.49468	0.70968
1469.56611	0.70831
1467.63755	0.70624
1465.70898	0.70414
1463.78042	0.70267
1461.85186	0.70198
1459.92329	0.70169
1457.99473	0.70167
1456.06616	0.70108
1454.13760	0.69896
1452.20903	0.69640
1450.28047	0.69374
1448.35190	0.69106
1446.42334	0.68837
1444.49478	0.68573
1442.56621	0.68301
1440.63765	0.68015
1438.70908	0.67723
1436.78052	0.67372
1434.85195	0.66993
1432.92339	0.66708
1430.99482	0.66526
1429.06626	0.66428
1427.13770	0.66388
1425.20913	0.66404
1423.28057	0.66483
1421.35200	0.66552
1419.42344	0.66587
1417.49487	0.66594
1415.56631	0.66535
1413.63774	0.66465
1411.70918	0.66451
1409.78062	0.66518
1407.85205	0.66644
1405.92349	0.66807
1403.99492	0.66963
1402.06636	0.67019
1400.13779	0.66955
1398.20923	0.66789
1396.28066	0.66530
1394.35210	0.66173
1392.42354	0.65757
1390.49497	0.65343
1388.56641	0.64905
1386.63784	0.64396
1384.70928	0.63866
1382.78071	0.63367
1380.85215	0.62889
1378.92358	0.62465
1376.99502	0.62137
1375.06646	0.61904
1373.13789	0.61747
1371.20933	0.61662
1369.28076	0.61602
1367.35220	0.61499
1365.42363	0.61347
1363.49507	0.61185
1361.56650	0.61027
1359.63794	0.60870
1357.70937	0.60721
1355.78081	0.60589
1353.85225	0.60483
1351.92368	0.60406
1349.99512	0.60350
1348.06655	0.60289
1346.13799	0.60207
1344.20942	0.60117
1342.28086	0.60033
1340.35229	0.59954
1338.42373	0.59886
1336.49517	0.59843
1334.56660	0.59814
1332.63804	0.59789
1330.70947	0.59784
1328.78091	0.59815
1326.85234	0.59885
1324.92378	0.59978
1322.99521	0.60065
1321.06665	0.60131
1319.13809	0.60174
1317.20952	0.60193
1315.28096	0.60198
1313.35239	0.60184
1311.42383	0.60142
1309.49526	0.60083
1307.56670	0.60022
1305.63813	0.59967
1303.70957	0.59921
1301.78101	0.59866
1299.85244	0.59781
1297.92388	0.59654
1295.99531	0.59509
1294.06675	0.59374
1292.13818	0.59243
1290.20962	0.59101
1288.28105	0.58962
1286.35249	0.58837
1284.42393	0.58715
1282.49536	0.58589
1280.56680	0.58453
1278.63823	0.58310
1276.70967	0.58168
1274.78110	0.58047
1272.85254	0.57952
1270.92397	0.57871
1268.99541	0.57798
1267.06685	0.57729
1265.13828	0.57661
1263.20972	0.57592
1261.28115	0.57516
1259.35259	0.57440
1257.42402	0.57369
1255.49546	0.57322
1253.56689	0.57325
1251.63833	0.57358
1249.70977	0.57389
1247.78120	0.57406
1245.85264	0.57397
1243.92407	0.57342
1241.99551	0.57247
1240.06694	0.57118
1238.13838	0.56941
1236.20981	0.56725
1234.28125	0.56496
1232.35269	0.56265
1230.42412	0.56041
1228.49556	0.55829
1226.56699	0.55625
1224.63843	0.55438
1222.70986	0.55281
1220.78130	0.55143
1218.85273	0.54997
1216.92417	0.54852
1214.99561	0.54726
1213.06704	0.54621
1211.13848	0.54544
1209.20991	0.54483
1207.28135	0.54416
1205.35278	0.54337
1203.42422	0.54247
1201.49565	0.54149
1199.56709	0.54050
1197.63853	0.53964
1195.70996	0.53897
1193.78140	0.53845
1191.85283	0.53793
1189.92427	0.53737
1187.99570	0.53680
1186.06714	0.53640
1184.13857	0.53649
1182.21001	0.53712
1180.28145	0.53811
1178.35288	0.53938
1176.42432	0.54089
1174.49575	0.54234
1172.56719	0.54323
1170.63862	0.54347
1168.71006	0.54333
1166.78149	0.54312
1164.85293	0.54300
1162.92437	0.54277
1160.99580	0.54229
1159.06724	0.54161
1157.13867	0.54079
1155.21011	0.53973
1153.28154	0.53833
1151.35298	0.53653
1149.42441	0.53427
1147.49585	0.53167
1145.56729	0.52909
1143.63872	0.52660
1141.71016	0.52406
1139.78159	0.52179
1137.85303	0.52011
1135.92446	0.51888
1133.99590	0.51795
1132.06733	0.51733
1130.13877	0.51688
1128.21021	0.51623
1126.28164	0.51531
1124.35308	0.51452
1122.42451	0.51405
1120.49595	0.51374
1118.56738	0.51359
1116.63882	0.51360
1114.71025	0.51377
1112.78169	0.51408
1110.85312	0.51446
1108.92456	0.51504
1106.99600	0.51603
1105.06743	0.51728
1103.13887	0.51851
1101.21030	0.51978
1099.28174	0.52135
1097.35317	0.52345
1095.42461	0.52624
1093.49604	0.52986
1091.56748	0.53429
1089.63892	0.53946
1087.71035	0.54543
1085.78179	0.55215
1083.85322	0.55922
1081.92466	0.56589
1079.99609	0.57126
1078.06753	0.57448
1076.13896	0.57474
1074.21040	0.57203
1072.28184	0.56710
1070.35327	0.56078
1068.42471	0.55372
1066.49614	0.54670
1064.56758	0.54038
1062.63901	0.53480
1060.71045	0.52973
1058.78188	0.52520
1056.85332	0.52123
1054.92476	0.51767
1052.99619	0.51451
1051.06763	0.51181
1049.13906	0.50956
1047.21050	0.50785
1045.28193	0.50649
1043.35337	0.50518
1041.42480	0.50408
1039.49624	0.50335
1037.56768	0.50283
1035.63911	0.50232
1033.71055	0.50179
1031.78198	0.50141
1029.85342	0.50104
1027.92485	0.50044
1025.99629	0.49965
1024.06772	0.49898
1022.13916	0.49881
1020.21060	0.49914
1018.28203	0.49956
1016.35347	0.49989
1014.42490	0.50033
1012.49634	0.50094
1010.56777	0.50153
1008.63921	0.50216
1006.71064	0.50313
1004.78208	0.50462
1002.85352	0.50674
1000.92495	0.50952
998.99639	0.51282
997.06782	0.51651
995.13926	0.52060
993.21069	0.52480
991.28213	0.52850
989.35356	0.53116
987.42500	0.53257
985.49644	0.53308
983.56787	0.53340
981.63931	0.53402
979.71074	0.53506
977.78218	0.53651
975.85361	0.53834
973.92505	0.54079
971.99648	0.54392
970.06792	0.54731
968.13936	0.55097
966.21079	0.55504
964.28223	0.55950
962.35366	0.56422
960.42510	0.56916
958.49653	0.57448
956.56797	0.58002
954.63940	0.58568
952.71084	0.59187
950.78228	0.59849
948.85371	0.60500
946.92515	0.61148
944.99658	0.61795
943.06802	0.62410
941.13945	0.63008
939.21089	0.63612
937.28232	0.64180
935.35376	0.64712
933.42520	0.65290
931.49663	0.65918
929.56807	0.66521
927.63950	0.67077
925.71094	0.67631
923.78237	0.68232
921.85381	0.68891
919.92524	0.69592
917.99668	0.70344
916.06812	0.71143
914.13955	0.71930
912.21099	0.72680
910.28242	0.73449
908.35386	0.74257
906.42529	0.75069
904.49673	0.75906
902.56816	0.76799
900.63960	0.77738
898.71104	0.78714
896.78247	0.79732
894.85391	0.80756
892.92534	0.81751
890.99678	0.82795
889.06821	0.83905
887.13965	0.84994
885.21108	0.86074
883.28252	0.87155
881.35396	0.88288
879.42539	0.89554
877.49683	0.90823
875.56826	0.91999
873.63970	0.93140
871.71113	0.94275
869.78257	0.95429
867.85400	0.96583
865.92544	0.97689
863.99687	0.98760
862.06831	0.99861
860.13975	1.01002
858.21118	1.02194
856.28262	1.03466
854.35405	1.04639
852.42549	1.05585
850.49692	1.06556
848.56836	1.07762
846.63979	1.09025
844.71123	1.10258
842.78267	1.11716
840.85410	1.13281
838.92554	1.14520
836.99697	1.15506
835.06841	1.16438
833.13984	1.17387
831.21128	1.18663
829.28271	1.20363
827.35415	1.21800
825.42559	1.22311
823.49702	1.22696
821.56846	1.24007
819.63989	1.25529
817.71133	1.26231
815.78276	1.27422
813.85420	1.29968
811.92563	1.32530
809.99707	1.34265
808.06851	1.34052
806.13994	1.32892
804.21138	1.33983
802.28281	1.36788
800.35425	1.38290
798.42568	1.37244
796.49712	1.36999
794.56855	1.40530
792.63999	1.42370
790.71143	1.40380
788.78286	1.41775
786.85430	1.45002
784.92573	1.44426
782.99717	1.44627
781.06860	1.50633
779.14004	1.57927
777.21147	1.60402
775.28291	1.59513
773.35435	1.55468
771.42578	1.50671
769.49722	1.43405
767.56865	1.35302
765.64009	1.31509
763.71152	1.30354
761.78296	1.31015
759.85439	1.39583
757.92583	1.53097
755.99727	1.44022
754.06870	1.22631
752.14014	1.08651
750.21157	1.00779
748.28301	0.97377
746.35444	1.00169
744.42588	1.05253
742.49731	1.05450
740.56875	1.00953
738.64019	0.89841
736.71162	0.77002
734.78306	0.69071
732.85449	0.65730
730.92593	0.64480
728.99736	0.55653
727.06880	0.40103
725.14023	0.30398
723.21167	0.25801
721.28311	0.15076
719.35454	0.04532
717.42598	0.08287
715.49741	0.14572
713.56885	0.17239
711.64028	0.16833
709.71172	0.18999
707.78315	0.16949
705.85459	0.05559
703.92603	0.02410
701.99746	0.10112
700.06890	0.18671
698.14033	0.21896
696.21177	0.22480
694.28320	0.24125
692.35464	0.30021
690.42607	0.41809
688.49751	0.50669
686.56895	0.47547
684.64038	0.39446
682.71182	0.34438
680.78325	0.33373
678.85469	0.31564
676.92612	0.28028
674.99756	0.29430
673.06899	0.35931
671.14043	0.39085
669.21187	0.41860
667.28330	0.39928
665.35474	0.31777
663.42617	0.32542
661.49761	0.37053
659.56904	0.36376
657.64048	0.40083
655.71191	0.45726
653.78335	0.36373
651.85479	0.26347
649.92622	0.26678
647.99766	0.31952
646.06909	0.33677
644.14053	0.32073
642.21196	0.28134
640.28340	0.20625
638.35483	0.17278
636.42627	0.24223
634.49771	0.31511
632.56914	0.33249
630.64058	0.35938
628.71201	0.37133
626.78345	0.36441
624.85488	0.34096
622.92632	0.27321
620.99775	0.23986
619.06919	0.26804
617.14062	0.28569
615.21206	0.26704
613.28350	0.24168
611.35493	0.23239
609.42637	0.25417
607.49780	0.29491
605.56924	0.31585
603.64067	0.32009
601.71211	0.33436
599.78354	0.35744
597.85498	0.36314
595.92642	0.31393
593.99785	0.22952
592.06929	0.17403
590.14072	0.16208
588.21216	0.18400
586.28359	0.21416
584.35503	0.23995
582.42646	0.30408
580.49790	0.40595
578.56934	0.39000
576.64077	0.32341
574.71221	0.37122
572.78364	0.50791
570.85508	0.46529
568.92651	0.32090
566.99795	0.24694
565.06938	0.24581
563.14082	0.27988
561.21226	0.28237
559.28369	0.24771
557.35513	0.24144
555.42656	0.26304
553.49800	0.31424
551.56943	0.35981
549.64087	0.31659
547.71230	0.27708
545.78374	0.30660
543.85518	0.31789
541.92661	0.25201
539.99805	0.18796
538.06948	0.15660
536.14092	0.17012
534.21235	0.23841
532.28379	0.28604
530.35522	0.29080
528.42666	0.34022
526.49810	0.36094
524.56953	0.28256
522.64097	0.20735
520.71240	0.16049
518.78384	0.15107
516.85527	0.20872
514.92671	0.28818
512.99814	0.28911
511.06958	0.24982
509.14102	0.20567
507.21245	0.20338
505.28389	0.24921
503.35532	0.26495
501.42676	0.25991
499.49819	0.28497
