3997.91411	0.06557
3995.98555	0.06638
3994.05698	0.06689
3992.12842	0.06699
3990.19985	0.06699
3988.27129	0.06739
3986.34272	0.06792
3984.41416	0.06807
3982.48560	0.06792
3980.55703	0.06793
3978.62847	0.06830
3976.69990	0.06900
3974.77134	0.06967
3972.84277	0.06976
3970.91421	0.06947
3968.98564	0.06951
3967.05708	0.06974
3965.12852	0.06962
3963.19995	0.06944
3961.27139	0.06976
3959.34282	0.07027
3957.41426	0.07016
3955.48569	0.06960
3953.55713	0.06948
3951.62856	0.07000
3949.70000	0.07066
3947.77144	0.07099
3945.84287	0.07080
3943.91431	0.07049
3941.98574	0.07030
3940.05718	0.06997
3938.12861	0.06970
3936.20005	0.06971
3934.27148	0.06989
3932.34292	0.07017
3930.41436	0.07027
3928.48579	0.07005
3926.55723	0.06975
3924.62866	0.06978
3922.70010	0.07010
3920.77153	0.07016
3918.84297	0.07003
3916.91440	0.07018
3914.98584	0.07043
3913.05728	0.07016
3911.12871	0.06955
3909.20015	0.06926
3907.27158	0.06953
3905.34302	0.06997
3903.41445	0.07022
3901.48589	0.07016
3899.55732	0.07000
3897.62876	0.06996
3895.70020	0.06988
3893.77163	0.06967
3891.84307	0.06964
3889.91450	0.06962
3887.98594	0.06911
3886.05737	0.06893
3884.12881	0.06967
3882.20024	0.07053
3880.27168	0.07095
3878.34312	0.07081
3876.41455	0.07059
3874.48599	0.07106
3872.55742	0.07181
3870.62886	0.07221
3868.70029	0.07241
3866.77173	0.07239
3864.84316	0.07239
3862.91460	0.07262
3860.98604	0.07294
3859.05747	0.07313
3857.12891	0.07305
3855.20034	0.07322
3853.27178	0.07428
3851.34321	0.07544
3849.41465	0.07551
3847.48608	0.07544
3845.55752	0.07563
3843.62896	0.07623
3841.70039	0.07726
3839.77183	0.07833
3837.84326	0.07932
3835.91470	0.08010
3833.98613	0.08052
3832.05757	0.08072
3830.12900	0.08109
3828.20044	0.08205
3826.27187	0.08335
3824.34331	0.08410
3822.41475	0.08436
3820.48618	0.08536
3818.55762	0.08685
3816.62905	0.08811
3814.70049	0.08934
3812.77192	0.08973
3810.84336	0.08974
3808.91479	0.09038
3806.98623	0.09184
3805.05767	0.09342
3803.12910	0.09412
3801.20054	0.09488
3799.27197	0.09657
3797.34341	0.09800
3795.41484	0.09905
3793.48628	0.10007
3791.55771	0.10113
3789.62915	0.10227
3787.70059	0.10341
3785.77202	0.10466
3783.84346	0.10613
3781.91489	0.10773
3779.98633	0.10942
3778.05776	0.11136
3776.12920	0.11312
3774.20063	0.11447
3772.27207	0.11556
3770.34351	0.11687
3768.41494	0.11900
3766.48638	0.12130
3764.55781	0.12326
3762.62925	0.12500
3760.70068	0.12694
3758.77212	0.12972
3756.84355	0.13271
3754.91499	0.13472
3752.98643	0.13637
3751.05786	0.13918
3749.12930	0.14361
3747.20073	0.14713
3745.27217	0.14995
3743.34360	0.15454
3741.41504	0.15921
3739.48647	0.16248
3737.55791	0.16616
3735.62935	0.17144
3733.70078	0.17814
3731.77222	0.18481
3729.84365	0.19058
3727.91509	0.19541
3725.98652	0.20067
3724.05796	0.20695
3722.12939	0.21333
3720.20083	0.21955
3718.27227	0.22548
3716.34370	0.23142
3714.41514	0.23795
3712.48657	0.24680
3710.55801	0.26045
3708.62944	0.27629
3706.70088	0.28965
3704.77231	0.30158
3702.84375	0.31452
3700.91519	0.33096
3698.98662	0.34952
3697.05806	0.36728
3695.12949	0.38573
3693.20093	0.40512
3691.27236	0.42575
3689.34380	0.45193
3687.41523	0.48545
3685.48667	0.51695
3683.55811	0.54428
3681.62954	0.57277
3679.70098	0.60451
3677.77241	0.63784
3675.84385	0.67675
3673.91528	0.72840
3671.98672	0.77189
3670.05815	0.81126
3668.12959	0.86513
3666.20103	0.91531
3664.27246	0.95682
3662.34390	1.00017
3660.41533	1.04700
3658.48677	1.09372
3656.55820	1.14337
3654.62964	1.19850
3652.70107	1.24538
3650.77251	1.28583
3648.84395	1.34013
3646.91538	1.40791
3644.98682	1.46060
3643.05825	1.50154
3641.12969	1.54273
3639.20112	1.58786
3637.27256	1.63342
3635.34399	1.67771
3633.41543	1.72166
3631.48687	1.76268
3629.55830	1.80486
3627.62974	1.85991
3625.70117	1.91103
3623.77261	1.94554
3621.84404	1.97828
3619.91548	2.01548
3617.98691	2.05939
3616.05835	2.10189
3614.12979	2.13877
3612.20122	2.17822
3610.27266	2.21849
3608.34409	2.25986
3606.41553	2.30467
3604.48696	2.34585
3602.55840	2.38099
3600.62983	2.41789
3598.70127	2.45918
3596.77271	2.50073
3594.84414	2.54235
3592.91558	2.58497
3590.98701	2.62484
3589.05845	2.66082
3587.12988	2.70373
3585.20132	2.75275
3583.27275	2.79372
3581.34419	2.82970
3579.41562	2.86953
3577.48706	2.91294
3575.55850	2.95515
3573.62993	2.99774
3571.70137	3.04145
3569.77280	3.08508
3567.84424	3.13007
3565.91567	3.18050
3563.98711	3.22917
3562.05854	3.27167
3560.12998	3.31404
3558.20142	3.35808
3556.27285	3.40338
3554.34429	3.44765
3552.41572	3.49285
3550.48716	3.53987
3548.55859	3.58505
3546.63003	3.63013
3544.70146	3.67982
3542.77290	3.72984
3540.84434	3.77585
3538.91577	3.82019
3536.98721	3.86708
3535.05864	3.91944
3533.13008	3.97016
3531.20151	4.01700
3529.27295	4.06534
3527.34438	4.11684
3525.41582	4.16603
3523.48726	4.21038
3521.55869	4.25658
3519.63013	4.30521
3517.70156	4.35487
3515.77300	4.40682
3513.84443	4.45863
3511.91587	4.50745
3509.98730	4.55582
3508.05874	4.60579
3506.13018	4.65397
3504.20161	4.69738
3502.27305	4.74125
3500.34448	4.79184
3498.41592	4.84273
3496.48735	4.89073
3494.55879	4.93987
3492.63022	4.98790
3490.70166	5.03464
3488.77310	5.08601
3486.84453	5.14046
3484.91597	5.19273
3482.98740	5.24119
3481.05884	5.28733
3479.13027	5.33522
3477.20171	5.38550
3475.27314	5.43475
3473.34458	5.48413
3471.41602	5.53849
3469.48745	5.59504
3467.55889	5.64759
3465.63032	5.69544
3463.70176	5.73716
3461.77319	5.77247
3459.84463	5.81502
3457.91606	5.86957
3455.98750	5.92753
3454.05894	5.98775
3452.13037	6.04854
3450.20181	6.09829
3448.27324	6.13891
3446.34468	6.19639
3444.41611	6.26661
3442.48755	6.32085
3440.55898	6.36065
3438.63042	6.40694
3436.70186	6.45260
3434.77329	6.48932
3432.84473	6.53301
3430.91616	6.58501
3428.98760	6.64580
3427.05903	6.70811
3425.13047	6.77175
3423.20190	6.83840
3421.27334	6.89526
3419.34478	6.94812
3417.41621	7.00852
3415.48765	7.06185
3413.55908	7.08731
3411.63052	7.10211
3409.70195	7.13533
3407.77339	7.19349
3405.84482	7.24348
3403.91626	7.27836
3401.98770	7.31642
3400.05913	7.34718
3398.13057	7.38096
3396.20200	7.43870
3394.27344	7.49396
3392.34487	7.51437
3390.41631	7.54038
3388.48774	7.60629
3386.55918	7.68798
3384.63062	7.72024
3382.70205	7.72463
3380.77349	7.77121
3378.84492	7.82082
3376.91636	7.83954
3374.98779	7.86876
3373.05923	7.90964
3371.13066	7.89192
3369.20210	7.86042
3367.27354	7.87757
3365.34497	7.92710
3363.41641	7.98992
3361.48784	8.04297
3359.55928	8.09630
3357.63071	8.15230
3355.70215	8.20257
3353.77358	8.20607
3351.84502	8.14448
3349.91646	8.09716
3347.98789	8.11782
3346.05933	8.14128
3344.13076	8.16266
3342.20220	8.21315
3340.27363	8.19308
3338.34507	8.13168
3336.41650	8.13055
3334.48794	8.15629
3332.55937	8.14706
3330.63081	8.14183
3328.70225	8.17671
3326.77368	8.26580
3324.84512	8.38154
3322.91655	8.41636
3320.98799	8.34692
3319.05942	8.27017
3317.13086	8.31372
3315.20229	8.41554
3313.27373	8.45359
3311.34517	8.45171
3309.41660	8.43758
3307.48804	8.43004
3305.55947	8.43090
3303.63091	8.43003
3301.70234	8.39433
3299.77378	8.34420
3297.84521	8.34327
3295.91665	8.40302
3293.98809	8.48163
3292.05952	8.53483
3290.13096	8.50411
3288.20239	8.41281
3286.27383	8.38383
3284.34526	8.39219
3282.41670	8.34735
3280.48813	8.30401
3278.55957	8.33128
3276.63101	8.37067
3274.70244	8.40153
3272.77388	8.45000
3270.84531	8.52238
3268.91675	8.60558
3266.98818	8.61082
3265.05962	8.54339
3263.13105	8.48234
3261.20249	8.46713
3259.27393	8.48273
3257.34536	8.50998
3255.41680	8.48173
3253.48823	8.37195
3251.55967	8.28709
3249.63110	8.28988
3247.70254	8.39590
3245.77397	8.51400
3243.84541	8.58593
3241.91685	8.68638
3239.98828	8.73566
3238.05972	8.64298
3236.13115	8.51928
3234.20259	8.41281
3232.27402	8.31606
3230.34546	8.27118
3228.41689	8.26672
3226.48833	8.27205
3224.55977	8.26268
3222.63120	8.23802
3220.70264	8.24855
3218.77407	8.28992
3216.84551	8.28306
3214.91694	8.21503
3212.98838	8.16839
3211.05981	8.17409
3209.13125	8.18213
3207.20269	8.16791
3205.27412	8.16298
3203.34556	8.14387
3201.41699	8.05727
3199.48843	7.94976
3197.55986	7.89429
3195.63130	7.85890
3193.70273	7.81526
3191.77417	7.82717
3189.84561	7.85271
3187.91704	7.79381
3185.98848	7.70157
3184.05991	7.64070
3182.13135	7.59858
3180.20278	7.54467
3178.27422	7.49388
3176.34565	7.46460
3174.41709	7.41403
3172.48853	7.33498
3170.55996	7.25756
3168.63140	7.17575
3166.70283	7.09178
3164.77427	7.01882
3162.84570	6.95660
3160.91714	6.89953
3158.98857	6.83272
3157.06001	6.75963
3155.13145	6.69711
3153.20288	6.63416
3151.27432	6.56770
3149.34575	6.50068
3147.41719	6.41517
3145.48862	6.31766
3143.56006	6.23962
3141.63149	6.18909
3139.70293	6.13776
3137.77437	6.06246
3135.84580	5.98154
3133.91724	5.91115
3131.98867	5.83829
3130.06011	5.76362
3128.13154	5.69039
3126.20298	5.61156
3124.27441	5.53714
3122.34585	5.47062
3120.41729	5.40052
3118.48872	5.32404
3116.56016	5.24714
3114.63159	5.17325
3112.70303	5.10075
3110.77446	5.02802
3108.84590	4.95848
3106.91733	4.89277
3104.98877	4.82694
3103.06021	4.76281
3101.13164	4.69649
3099.20308	4.62228
3097.27451	4.54807
3095.34595	4.48116
3093.41738	4.41637
3091.48882	4.34726
3089.56025	4.27787
3087.63169	4.21293
3085.70312	4.15038
3083.77456	4.08930
3081.84600	4.03147
3079.91743	3.97236
3077.98887	3.90708
3076.06030	3.84096
3074.13174	3.77895
3072.20317	3.71955
3070.27461	3.66106
3068.34604	3.60263
3066.41748	3.54330
3064.48892	3.48307
3062.56035	3.42354
3060.63179	3.36700
3058.70322	3.31312
3056.77466	3.25991
3054.84609	3.20704
3052.91753	3.15445
3050.98896	3.10171
3049.06040	3.04917
3047.13184	2.99757
3045.20327	2.94676
3043.27471	2.89619
3041.34614	2.84652
3039.41758	2.79856
3037.48901	2.75191
3035.56045	2.70572
3033.63188	2.65883
3031.70332	2.61103
3029.77476	2.56479
3027.84619	2.52148
3025.91763	2.47877
3023.98906	2.43523
3022.06050	2.39218
3020.13193	2.35043
3018.20337	2.30961
3016.27480	2.26914
3014.34624	2.22880
3012.41768	2.18880
3010.48911	2.14960
3008.56055	2.11183
3006.63198	2.07515
3004.70342	2.03877
3002.77485	2.00257
3000.84629	1.96725
2998.91772	1.93321
2996.98916	1.89970
2995.06060	1.86618
2993.13203	1.83311
2991.20347	1.80077
2989.27490	1.76905
2987.34634	1.73791
2985.41777	1.70725
2983.48921	1.67715
2981.56064	1.64765
2979.63208	1.61832
2977.70352	1.58924
2975.77495	1.56081
2973.84639	1.53300
2971.91782	1.50584
2969.98926	1.47925
2968.06069	1.45285
2966.13213	1.42681
2964.20356	1.40123
2962.27500	1.37594
2960.34644	1.35109
2958.41787	1.32667
2956.48931	1.30242
2954.56074	1.27847
2952.63218	1.25516
2950.70361	1.23245
2948.77505	1.20996
2946.84648	1.18752
2944.91792	1.16555
2942.98936	1.14446
2941.06079	1.12380
2939.13223	1.10314
2937.20366	1.08254
2935.27510	1.06204
2933.34653	1.04200
2931.41797	1.02283
2929.48940	1.00422
2927.56084	0.98555
2925.63228	0.96709
2923.70371	0.94966
2921.77515	0.93305
2919.84658	0.91642
2917.91802	0.89963
2915.98945	0.88297
2914.06089	0.86684
2912.13232	0.85157
2910.20376	0.83678
2908.27520	0.82217
2906.34663	0.80780
2904.41807	0.79369
2902.48950	0.77995
2900.56094	0.76668
2898.63237	0.75394
2896.70381	0.74144
2894.77524	0.72906
2892.84668	0.71705
2890.91812	0.70549
2888.98955	0.69412
2887.06099	0.68263
2885.13242	0.67119
2883.20386	0.66014
2881.27529	0.64952
2879.34673	0.63908
2877.41816	0.62868
2875.48960	0.61833
2873.56104	0.60790
2871.63247	0.59746
2869.70391	0.58719
2867.77534	0.57687
2865.84678	0.56644
2863.91821	0.55595
2861.98965	0.54558
2860.06108	0.53589
2858.13252	0.52675
2856.20396	0.51765
2854.27539	0.50872
2852.34683	0.50007
2850.41826	0.49158
2848.48970	0.48318
2846.56113	0.47518
2844.63257	0.46792
2842.70400	0.46111
2840.77544	0.45455
2838.84687	0.44842
2836.91831	0.44249
2834.98975	0.43658
2833.06118	0.43077
2831.13262	0.42498
2829.20405	0.41908
2827.27549	0.41304
2825.34692	0.40695
2823.41836	0.40087
2821.48979	0.39489
2819.56123	0.38901
2817.63267	0.38312
2815.70410	0.37731
2813.77554	0.37169
2811.84697	0.36618
2809.91841	0.36090
2807.98984	0.35582
2806.06128	0.35085
2804.13271	0.34597
2802.20415	0.34097
2800.27559	0.33584
2798.34702	0.33085
2796.41846	0.32607
2794.48989	0.32149
2792.56133	0.31718
2790.63276	0.31296
2788.70420	0.30866
2786.77563	0.30431
2784.84707	0.30008
2782.91851	0.29605
2780.98994	0.29205
2779.06138	0.28795
2777.13281	0.28399
2775.20425	0.28033
2773.27568	0.27678
2771.34712	0.27317
2769.41855	0.26961
2767.48999	0.26615
2765.56143	0.26282
2763.63286	0.25950
2761.70430	0.25606
2759.77573	0.25272
2757.84717	0.24960
2755.91860	0.24655
2753.99004	0.24366
2752.06147	0.24093
2750.13291	0.23809
2748.20435	0.23522
2746.27578	0.23252
2744.34722	0.22998
2742.41865	0.22752
2740.49009	0.22497
2738.56152	0.22230
2736.63296	0.21979
2734.70439	0.21753
2732.77583	0.21521
2730.84727	0.21283
2728.91870	0.21065
2726.99014	0.20859
2725.06157	0.20647
2723.13301	0.20438
2721.20444	0.20231
2719.27588	0.20020
2717.34731	0.19819
2715.41875	0.19630
2713.49019	0.19445
2711.56162	0.19268
2709.63306	0.19105
2707.70449	0.18942
2705.77593	0.18773
2703.84736	0.18615
2701.91880	0.18477
2699.99023	0.18334
2698.06167	0.18182
2696.13311	0.18037
2694.20454	0.17902
2692.27598	0.17757
2690.34741	0.17610
2688.41885	0.17482
2686.49028	0.17375
2684.56172	0.17269
2682.63315	0.17148
2680.70459	0.17023
2678.77603	0.16905
2676.84746	0.16787
2674.91890	0.16674
2672.99033	0.16571
2671.06177	0.16470
2669.13320	0.16366
2667.20464	0.16266
2665.27607	0.16179
2663.34751	0.16099
2661.41895	0.16012
2659.49038	0.15923
2657.56182	0.15849
2655.63325	0.15784
2653.70469	0.15709
2651.77612	0.15635
2649.84756	0.15579
2647.91899	0.15527
2645.99043	0.15463
2644.06187	0.15399
2642.13330	0.15356
2640.20474	0.15321
2638.27617	0.15275
2636.34761	0.15228
2634.41904	0.15188
2632.49048	0.15144
2630.56191	0.15095
2628.63335	0.15049
2626.70479	0.15010
2624.77622	0.14978
2622.84766	0.14952
2620.91909	0.14935
2618.99053	0.14924
2617.06196	0.14906
2615.13340	0.14883
2613.20483	0.14869
2611.27627	0.14869
2609.34771	0.14865
2607.41914	0.14855
2605.49058	0.14862
2603.56201	0.14878
2601.63345	0.14884
2599.70488	0.14883
2597.77632	0.14879
2595.84775	0.14880
2593.91919	0.14895
2591.99062	0.14910
2590.06206	0.14921
2588.13350	0.14943
2586.20493	0.14969
2584.27637	0.14991
2582.34780	0.15008
2580.41924	0.15032
2578.49067	0.15066
2576.56211	0.15100
2574.63354	0.15137
2572.70498	0.15180
2570.77642	0.15220
2568.84785	0.15249
2566.91929	0.15279
2564.99072	0.15321
2563.06216	0.15373
2561.13359	0.15426
2559.20503	0.15485
2557.27646	0.15548
2555.34790	0.15600
2553.41934	0.15647
2551.49077	0.15703
2549.56221	0.15760
2547.63364	0.15815
2545.70508	0.15878
2543.77651	0.15941
2541.84795	0.16001
2539.91938	0.16066
2537.99082	0.16140
2536.06226	0.16218
2534.13369	0.16282
2532.20513	0.16339
2530.27656	0.16414
2528.34800	0.16502
2526.41943	0.16585
2524.49087	0.16663
2522.56230	0.16742
2520.63374	0.16822
2518.70518	0.16901
2516.77661	0.16980
2514.84805	0.17052
2512.91948	0.17127
2510.99092	0.17213
2509.06235	0.17303
2507.13379	0.17386
2505.20522	0.17462
2503.27666	0.17538
2501.34810	0.17620
2499.41953	0.17705
2497.49097	0.17793
2495.56240	0.17885
2493.63384	0.17981
2491.70527	0.18079
2489.77671	0.18171
2487.84814	0.18250
2485.91958	0.18321
2483.99102	0.18405
2482.06245	0.18506
2480.13389	0.18609
2478.20532	0.18697
2476.27676	0.18785
2474.34819	0.18889
2472.41963	0.18992
2470.49106	0.19081
2468.56250	0.19168
2466.63394	0.19261
2464.70537	0.19359
2462.77681	0.19447
2460.84824	0.19525
2458.91968	0.19622
2456.99111	0.19740
2455.06255	0.19853
2453.13398	0.19953
2451.20542	0.20051
2449.27686	0.20151
2447.34829	0.20256
2445.41973	0.20365
2443.49116	0.20474
2441.56260	0.20579
2439.63403	0.20680
2437.70547	0.20779
2435.77690	0.20878
2433.84834	0.20976
2431.91978	0.21086
2429.99121	0.21202
2428.06265	0.21312
2426.13408	0.21421
2424.20552	0.21534
2422.27695	0.21649
2420.34839	0.21765
2418.41982	0.21883
2416.49126	0.22001
2414.56270	0.22117
2412.63413	0.22231
2410.70557	0.22346
2408.77700	0.22469
2406.84844	0.22593
2404.91987	0.22702
2402.99131	0.22808
2401.06274	0.22936
2399.13418	0.23074
2397.20562	0.23193
2395.27705	0.23306
2393.34849	0.23435
2391.41992	0.23575
2389.49136	0.23727
2387.56279	0.23919
2385.63423	0.24184
2383.70566	0.24567
2381.77710	0.25084
2379.84854	0.25706
2377.91997	0.26409
2375.99141	0.27204
2374.06284	0.28118
2372.13428	0.29143
2370.20571	0.30233
2368.27715	0.31333
2366.34858	0.32366
2364.42002	0.33287
2362.49146	0.34050
2360.56289	0.34545
2358.63433	0.34703
2356.70576	0.34395
2354.77720	0.33662
2352.84863	0.32800
2350.92007	0.31924
2348.99150	0.31336
2347.06294	0.31367
2345.13437	0.32113
2343.20581	0.33144
2341.27725	0.33714
2339.34868	0.33860
2337.42012	0.33932
2335.49155	0.33973
2333.56299	0.33903
2331.63442	0.33832
2329.70586	0.33841
2327.77729	0.33840
2325.84873	0.33741
2323.92017	0.33550
2321.99160	0.33303
2320.06304	0.33040
2318.13447	0.32787
2316.20591	0.32569
2314.27734	0.32440
2312.34878	0.32400
2310.42021	0.32369
2308.49165	0.32302
2306.56309	0.32211
2304.63452	0.32133
2302.70596	0.32133
2300.77739	0.32211
2298.84883	0.32292
2296.92026	0.32360
2294.99170	0.32428
2293.06313	0.32497
2291.13457	0.32565
2289.20601	0.32639
2287.27744	0.32722
2285.34888	0.32814
2283.42031	0.32939
2281.49175	0.33119
2279.56318	0.33344
2277.63462	0.33586
2275.70605	0.33824
2273.77749	0.34057
2271.84893	0.34280
2269.92036	0.34488
2267.99180	0.34693
2266.06323	0.34903
2264.13467	0.35112
2262.20610	0.35321
2260.27754	0.35523
2258.34897	0.35725
2256.42041	0.35929
2254.49185	0.36127
2252.56328	0.36321
2250.63472	0.36527
2248.70615	0.36732
2246.77759	0.36927
2244.84902	0.37128
2242.92046	0.37342
2240.99189	0.37561
2239.06333	0.37784
2237.13477	0.38012
2235.20620	0.38237
2233.27764	0.38464
2231.34907	0.38687
2229.42051	0.38905
2227.49194	0.39126
2225.56338	0.39351
2223.63481	0.39571
2221.70625	0.39795
2219.77769	0.40026
2217.84912	0.40256
2215.92056	0.40485
2213.99199	0.40711
2212.06343	0.40927
2210.13486	0.41135
2208.20630	0.41345
2206.27773	0.41550
2204.34917	0.41753
2202.42061	0.41966
2200.49204	0.42184
2198.56348	0.42397
2196.63491	0.42609
2194.70635	0.42815
2192.77778	0.43005
2190.84922	0.43183
2188.92065	0.43360
2186.99209	0.43537
2185.06353	0.43710
2183.13496	0.43886
2181.20640	0.44068
2179.27783	0.44242
2177.34927	0.44404
2175.42070	0.44563
2173.49214	0.44728
2171.56357	0.44892
2169.63501	0.45041
2167.70645	0.45173
2165.77788	0.45291
2163.84932	0.45401
2161.92075	0.45517
2159.99219	0.45639
2158.06362	0.45748
2156.13506	0.45844
2154.20649	0.45945
2152.27793	0.46049
2150.34937	0.46135
2148.42080	0.46192
2146.49224	0.46243
2144.56367	0.46290
2142.63511	0.46329
2140.70654	0.46368
2138.77798	0.46407
2136.84941	0.46430
2134.92085	0.46438
2132.99229	0.46438
2131.06372	0.46435
2129.13516	0.46428
2127.20659	0.46419
2125.27803	0.46393
2123.34946	0.46341
2121.42090	0.46280
2119.49233	0.46222
2117.56377	0.46165
2115.63521	0.46096
2113.70664	0.46007
2111.77808	0.45910
2109.84951	0.45818
2107.92095	0.45727
2105.99238	0.45623
2104.06382	0.45505
2102.13525	0.45372
2100.20669	0.45228
2098.27812	0.45081
2096.34956	0.44928
2094.42100	0.44774
2092.49243	0.44619
2090.56387	0.44460
2088.63530	0.44296
2086.70674	0.44123
2084.77817	0.43936
2082.84961	0.43743
2080.92104	0.43540
2078.99248	0.43330
2077.06392	0.43121
2075.13535	0.42908
2073.20679	0.42693
2071.27822	0.42473
2069.34966	0.42243
2067.42109	0.42007
2065.49253	0.41782
2063.56396	0.41553
2061.63540	0.41306
2059.70684	0.41048
2057.77827	0.40786
2055.84971	0.40523
2053.92114	0.40263
2051.99258	0.40008
2050.06401	0.39751
2048.13545	0.39488
2046.20688	0.39219
2044.27832	0.38944
2042.34976	0.38664
2040.42119	0.38382
2038.49263	0.38100
2036.56406	0.37819
2034.63550	0.37543
2032.70693	0.37262
2030.77837	0.36976
2028.84980	0.36694
2026.92124	0.36427
2024.99268	0.36153
2023.06411	0.35864
2021.13555	0.35576
2019.20698	0.35297
2017.27842	0.35020
2015.34985	0.34743
2013.42129	0.34475
2011.49272	0.34199
2009.56416	0.33914
2007.63560	0.33630
2005.70703	0.33352
2003.77847	0.33080
2001.84990	0.32808
1999.92134	0.32533
1997.99277	0.32266
1996.06421	0.32012
1994.13564	0.31766
1992.20708	0.31513
1990.27852	0.31244
1988.34995	0.30983
1986.42139	0.30742
1984.49282	0.30511
1982.56426	0.30274
1980.63569	0.30033
1978.70713	0.29796
1976.77856	0.29563
1974.85000	0.29335
1972.92144	0.29113
1970.99287	0.28891
1969.06431	0.28679
1967.13574	0.28476
1965.20718	0.28269
1963.27861	0.28064
1961.35005	0.27866
1959.42148	0.27672
1957.49292	0.27483
1955.56436	0.27295
1953.63579	0.27112
1951.70723	0.26935
1949.77866	0.26763
1947.85010	0.26599
1945.92153	0.26450
1943.99297	0.26310
1942.06440	0.26166
1940.13584	0.26013
1938.20728	0.25859
1936.27871	0.25714
1934.35015	0.25579
1932.42158	0.25457
1930.49302	0.25336
1928.56445	0.25211
1926.63589	0.25090
1924.70732	0.24988
1922.77876	0.24898
1920.85020	0.24801
1918.92163	0.24699
1916.99307	0.24604
1915.06450	0.24520
1913.13594	0.24440
1911.20737	0.24365
1909.27881	0.24298
1907.35024	0.24235
1905.42168	0.24170
1903.49312	0.24103
1901.56455	0.24034
1899.63599	0.23974
1897.70742	0.23932
1895.77886	0.23902
1893.85029	0.23871
1891.92173	0.23832
1889.99316	0.23801
1888.06460	0.23772
1886.13604	0.23737
1884.20747	0.23710
1882.27891	0.23691
1880.35034	0.23673
1878.42178	0.23655
1876.49321	0.23653
1874.56465	0.23662
1872.63608	0.23674
1870.70752	0.23688
1868.77896	0.23721
1866.85039	0.23750
1864.92183	0.23758
1862.99326	0.23773
1861.06470	0.23800
1859.13613	0.23833
1857.20757	0.23864
1855.27900	0.23902
1853.35044	0.23949
1851.42187	0.24003
1849.49331	0.24060
1847.56475	0.24129
1845.63618	0.24210
1843.70762	0.24302
1841.77905	0.24393
1839.85049	0.24456
1837.92192	0.24529
1835.99336	0.24621
1834.06479	0.24721
1832.13623	0.24820
1830.20767	0.24946
1828.27910	0.25083
1826.35054	0.25190
1824.42197	0.25316
1822.49341	0.25453
1820.56484	0.25590
1818.63628	0.25737
1816.70771	0.25900
1814.77915	0.26060
1812.85059	0.26226
1810.92202	0.26420
1808.99346	0.26633
1807.06489	0.26845
1805.13633	0.27044
1803.20776	0.27258
1801.27920	0.27501
1799.35063	0.27783
1797.42207	0.28046
1795.49351	0.28289
1793.56494	0.28565
1791.63638	0.28930
1789.70781	0.29296
1787.77925	0.29579
1785.85068	0.29896
1783.92212	0.30263
1781.99355	0.30657
1780.06499	0.31082
1778.13643	0.31528
1776.20786	0.31935
1774.27930	0.32346
1772.35073	0.32900
1770.42217	0.33531
1768.49360	0.34095
1766.56504	0.34638
1764.63647	0.35183
1762.70791	0.35777
1760.77935	0.36532
1758.85078	0.37256
1756.92222	0.37976
1754.99365	0.38762
1753.06509	0.39487
1751.13652	0.40323
1749.20796	0.41357
1747.27939	0.42397
1745.35083	0.43325
1743.42227	0.44294
1741.49370	0.45364
1739.56514	0.46618
1737.63657	0.47877
1735.70801	0.48988
1733.77944	0.50615
1731.85088	0.52562
1729.92231	0.54142
1727.99375	0.55762
1726.06519	0.57507
1724.13662	0.59382
1722.20806	0.61389
1720.27949	0.63271
1718.35093	0.65468
1716.42236	0.68639
1714.49380	0.71694
1712.56523	0.74221
1710.63667	0.76677
1708.70811	0.79300
1706.77954	0.82249
1704.85098	0.85737
1702.92241	0.88875
1700.99385	0.91981
1699.06528	0.96503
1697.13672	1.00646
1695.20815	1.04915
1693.27959	1.09162
1691.35103	1.12598
1689.42246	1.16477
1687.49390	1.20536
1685.56533	1.24449
1683.63677	1.30348
1681.70820	1.36549
1679.77964	1.40668
1677.85107	1.44562
1675.92251	1.48956
1673.99395	1.54287
1672.06538	1.59075
1670.13682	1.63788
1668.20825	1.69814
1666.27969	1.74740
1664.35112	1.78868
1662.42256	1.83884
1660.49399	1.89520
1658.56543	1.94030
1656.63687	1.97698
1654.70830	2.01059
1652.77974	2.06480
1650.85117	2.11898
1648.92261	2.14017
1646.99404	2.16717
1645.06548	2.19970
1643.13691	2.22210
1641.20835	2.23496
1639.27979	2.24568
1637.35122	2.25263
1635.42266	2.25414
1633.49409	2.24944
1631.56553	2.23846
1629.63696	2.22412
1627.70840	2.19921
1625.77983	2.16857
1623.85127	2.12967
1621.92271	2.08317
1619.99414	2.04153
1618.06558	2.00003
1616.13701	1.94022
1614.20845	1.87730
1612.27988	1.82868
1610.35132	1.77936
1608.42275	1.72647
1606.49419	1.67344
1604.56562	1.62370
1602.63706	1.57591
1600.70850	1.52950
1598.77993	1.48596
1596.85137	1.44432
1594.92280	1.40413
1592.99424	1.36560
1591.06567	1.33026
1589.13711	1.29680
1587.20854	1.26493
1585.27998	1.23510
1583.35142	1.20719
1581.42285	1.18128
1579.49429	1.15849
1577.56572	1.13767
1575.63716	1.11279
1573.70859	1.09087
1571.78003	1.07618
1569.85146	1.06050
1567.92290	1.04290
1565.99434	1.02900
1564.06577	1.01716
1562.13721	1.00718
1560.20864	0.99909
1558.28008	0.98725
1556.35151	0.97703
1554.42295	0.97055
1552.49438	0.96384
1550.56582	0.95667
1548.63726	0.94858
1546.70869	0.94022
1544.78013	0.93103
1542.85156	0.92031
1540.92300	0.90706
1538.99443	0.88917
1537.06587	0.87594
1535.13730	0.86662
1533.20874	0.85475
1531.28018	0.84205
1529.35161	0.83241
1527.42305	0.82329
1525.49448	0.81392
1523.56592	0.80582
1521.63735	0.79790
1519.70879	0.78946
1517.78022	0.78223
1515.85166	0.77480
1513.92310	0.76723
1511.99453	0.76043
1510.06597	0.75420
1508.13740	0.74838
1506.20884	0.74026
1504.28027	0.73270
1502.35171	0.72782
1500.42314	0.72339
1498.49458	0.71875
1496.56602	0.71379
1494.63745	0.70921
1492.70889	0.70557
1490.78032	0.70225
1488.85176	0.69847
1486.92319	0.69474
1484.99463	0.69157
1483.06606	0.68901
1481.13750	0.68686
1479.20894	0.68493
1477.28037	0.68336
1475.35181	0.68203
1473.42324	0.68062
1471.49468	0.67859
1469.56611	0.67611
1467.63755	0.67380
1465.70898	0.67177
1463.78042	0.66982
1461.85186	0.66812
1459.92329	0.66685
1457.99473	0.66558
1456.06616	0.66340
1454.13760	0.66078
1452.20903	0.65856
1450.28047	0.65643
1448.35190	0.65410
1446.42334	0.65164
1444.49478	0.64942
1442.56621	0.64741
1440.63765	0.64544
1438.70908	0.64360
1436.78052	0.64152
1434.85195	0.63923
1432.92339	0.63725
1430.99482	0.63564
1429.06626	0.63430
1427.13770	0.63317
1425.20913	0.63230
1423.28057	0.63169
1421.35200	0.63106
1419.42344	0.63030
1417.49487	0.62926
1415.56631	0.62778
1413.63774	0.62631
1411.70918	0.62513
1409.78062	0.62429
1407.85205	0.62361
1405.92349	0.62295
1403.99492	0.62226
1402.06636	0.62140
1400.13779	0.62022
1398.20923	0.61854
1396.28066	0.61654
1394.35210	0.61436
1392.42354	0.61201
1390.49497	0.60975
1388.56641	0.60758
1386.63784	0.60525
1384.70928	0.60289
1382.78071	0.60067
1380.85215	0.59847
1378.92358	0.59652
1376.99502	0.59505
1375.06646	0.59394
1373.13789	0.59308
1371.20933	0.59238
1369.28076	0.59168
1367.35220	0.59080
1365.42363	0.58975
1363.49507	0.58859
1361.56650	0.58736
1359.63794	0.58616
1357.70937	0.58510
1355.78081	0.58402
1353.85225	0.58284
1351.92368	0.58176
1349.99512	0.58086
1348.06655	0.57995
1346.13799	0.57898
1344.20942	0.57804
1342.28086	0.57715
1340.35229	0.57625
1338.42373	0.57522
1336.49517	0.57417
1334.56660	0.57331
1332.63804	0.57265
1330.70947	0.57212
1328.78091	0.57166
1326.85234	0.57124
1324.92378	0.57088
1322.99521	0.57060
1321.06665	0.57037
1319.13809	0.57018
1317.20952	0.56983
1315.28096	0.56927
1313.35239	0.56859
1311.42383	0.56781
1309.49526	0.56693
1307.56670	0.56599
1305.63813	0.56507
1303.70957	0.56424
1301.78101	0.56344
1299.85244	0.56254
1297.92388	0.56147
1295.99531	0.56038
1294.06675	0.55937
1292.13818	0.55842
1290.20962	0.55763
1288.28105	0.55696
1286.35249	0.55619
1284.42393	0.55529
1282.49536	0.55435
1280.56680	0.55349
1278.63823	0.55266
1276.70967	0.55181
1274.78110	0.55100
1272.85254	0.55040
1270.92397	0.55002
1268.99541	0.54971
1267.06685	0.54929
1265.13828	0.54875
1263.20972	0.54828
1261.28115	0.54787
1259.35259	0.54737
1257.42402	0.54691
1255.49546	0.54661
1253.56689	0.54644
1251.63833	0.54634
1249.70977	0.54619
1247.78120	0.54591
1245.85264	0.54556
1243.92407	0.54517
1241.99551	0.54469
1240.06694	0.54405
1238.13838	0.54320
1236.20981	0.54214
1234.28125	0.54102
1232.35269	0.53989
1230.42412	0.53869
1228.49556	0.53758
1226.56699	0.53645
1224.63843	0.53516
1222.70986	0.53394
1220.78130	0.53293
1218.85273	0.53207
1216.92417	0.53132
1214.99561	0.53044
1213.06704	0.52941
1211.13848	0.52852
1209.20991	0.52788
1207.28135	0.52739
1205.35278	0.52695
1203.42422	0.52642
1201.49565	0.52558
1199.56709	0.52458
1197.63853	0.52386
1195.70996	0.52334
1193.78140	0.52270
1191.85283	0.52206
1189.92427	0.52155
1187.99570	0.52108
1186.06714	0.52069
1184.13857	0.52047
1182.21001	0.52059
1180.28145	0.52114
1178.35288	0.52197
1176.42432	0.52293
1174.49575	0.52390
1172.56719	0.52474
1170.63862	0.52540
1168.71006	0.52603
1166.78149	0.52665
1164.85293	0.52720
1162.92437	0.52771
1160.99580	0.52812
1159.06724	0.52823
1157.13867	0.52793
1155.21011	0.52731
1153.28154	0.52632
1151.35298	0.52484
1149.42441	0.52287
1147.49585	0.52046
1145.56729	0.51769
1143.63872	0.51476
1141.71016	0.51201
1139.78159	0.50972
1137.85303	0.50795
1135.92446	0.50648
1133.99590	0.50517
1132.06733	0.50405
1130.13877	0.50318
1128.21021	0.50242
1126.28164	0.50163
1124.35308	0.50100
1122.42451	0.50063
1120.49595	0.50038
1118.56738	0.50036
1116.63882	0.50070
1114.71025	0.50130
1112.78169	0.50207
1110.85312	0.50298
1108.92456	0.50389
1106.99600	0.50463
1105.06743	0.50535
1103.13887	0.50627
1101.21030	0.50741
1099.28174	0.50882
1097.35317	0.51073
1095.42461	0.51336
1093.49604	0.51692
1091.56748	0.52168
1089.63892	0.52778
1087.71035	0.53511
1085.78179	0.54330
1083.85322	0.55164
1081.92466	0.55912
1079.99609	0.56488
1078.06753	0.56828
1076.13896	0.56859
1074.21040	0.56550
1072.28184	0.55992
1070.35327	0.55313
1068.42471	0.54599
1066.49614	0.53919
1064.56758	0.53302
1062.63901	0.52744
1060.71045	0.52262
1058.78188	0.51852
1056.85332	0.51486
1054.92476	0.51165
1052.99619	0.50906
1051.06763	0.50687
1049.13906	0.50513
1047.21050	0.50425
1045.28193	0.50403
1043.35337	0.50403
1041.42480	0.50430
1039.49624	0.50485
1037.56768	0.50523
1035.63911	0.50507
1033.71055	0.50451
1031.78198	0.50376
1029.85342	0.50278
1027.92485	0.50161
1025.99629	0.50041
1024.06772	0.49938
1022.13916	0.49875
1020.21060	0.49850
1018.28203	0.49850
1016.35347	0.49858
1014.42490	0.49871
1012.49634	0.49893
1010.56777	0.49899
1008.63921	0.49898
1006.71064	0.49944
1004.78208	0.50054
1002.85352	0.50231
1000.92495	0.50488
998.99639	0.50831
997.06782	0.51241
995.13926	0.51675
993.21069	0.52074
991.28213	0.52383
989.35356	0.52577
987.42500	0.52663
985.49644	0.52684
983.56787	0.52698
981.63931	0.52744
979.71074	0.52836
977.78218	0.52981
975.85361	0.53183
973.92505	0.53452
971.99648	0.53770
970.06792	0.54101
968.13936	0.54461
966.21079	0.54875
964.28223	0.55334
962.35366	0.55807
960.42510	0.56290
958.49653	0.56823
956.56797	0.57404
954.63940	0.58002
952.71084	0.58619
950.78228	0.59257
948.85371	0.59906
946.92515	0.60550
944.99658	0.61191
943.06802	0.61832
941.13945	0.62441
939.21089	0.63015
937.28232	0.63591
935.35376	0.64147
933.42520	0.64656
931.49663	0.65194
929.56807	0.65829
927.63950	0.66492
925.71094	0.67115
923.78237	0.67724
921.85381	0.68347
919.92524	0.68986
917.99668	0.69683
916.06812	0.70470
914.13955	0.71275
912.21099	0.72056
910.28242	0.72881
908.35386	0.73765
906.42529	0.74647
904.49673	0.75478
902.56816	0.76275
900.63960	0.77144
898.71104	0.78169
896.78247	0.79288
894.85391	0.80334
892.92534	0.81249
890.99678	0.82190
889.06821	0.83246
887.13965	0.84327
885.21108	0.85398
883.28252	0.86528
881.35396	0.87781
879.42539	0.89162
877.49683	0.90490
875.56826	0.91613
873.63970	0.92636
871.71113	0.93657
869.78257	0.94677
867.85400	0.95732
865.92544	0.96919
863.99687	0.98216
862.06831	0.99398
860.13975	1.00452
858.21118	1.01581
856.28262	1.02755
854.35405	1.03919
852.42549	1.05199
850.49692	1.06516
848.56836	1.07709
846.63979	1.08857
844.71123	1.10060
842.78267	1.11311
840.85410	1.12536
838.92554	1.13583
836.99697	1.14577
835.06841	1.15659
833.13984	1.16720
831.21128	1.17936
829.28271	1.19582
827.35415	1.21291
825.42559	1.22098
823.49702	1.22314
821.56846	1.23278
819.63989	1.25027
817.71133	1.26825
815.78276	1.28263
813.85420	1.29505
811.92563	1.31381
809.99707	1.33699
808.06851	1.35176
806.13994	1.35868
804.21138	1.36643
802.28281	1.38023
800.35425	1.39114
798.42568	1.38873
796.49712	1.38893
794.56855	1.40926
792.63999	1.45543
790.71143	1.51948
788.78286	1.56007
786.85430	1.53905
784.92573	1.51658
782.99717	1.53838
781.06860	1.55392
779.14004	1.52575
777.21147	1.48380
775.28291	1.49970
773.35435	1.62941
771.42578	1.80731
769.49722	1.83185
767.56865	1.72554
765.64009	1.53134
763.71152	1.44803
761.78296	1.56430
759.85439	1.81483
757.92583	1.75950
755.99727	1.63408
754.06870	1.58076
752.14014	1.40684
750.21157	1.18267
748.28301	1.01613
746.35444	0.94745
744.42588	0.94196
742.49731	0.89872
740.56875	0.82292
738.64019	0.80613
736.71162	0.83980
734.78306	0.83043
732.85449	0.77469
730.92593	0.74346
728.99736	0.72897
727.06880	0.65050
725.14023	0.48770
723.21167	0.30044
721.28311	0.10280
719.35454	0.03103
717.42598	0.12358
715.49741	0.18281
713.56885	0.17806
711.64028	0.14983
709.71172	0.12571
707.78315	0.17472
705.85459	0.23686
703.92603	0.25122
701.99746	0.31216
700.06890	0.38004
698.14033	0.33830
696.21177	0.26667
694.28320	0.26168
692.35464	0.33542
690.42607	0.45553
688.49751	0.58428
686.56895	0.68413
684.64038	0.56080
682.71182	0.39708
680.78325	0.30623
678.85469	0.25951
676.92612	0.29351
674.99756	0.41924
673.06899	0.49350
671.14043	0.51209
669.21187	0.52432
667.28330	0.44486
665.35474	0.36359
663.42617	0.38028
661.49761	0.44495
659.56904	0.44153
657.64048	0.42995
655.71191	0.46565
653.78335	0.43316
651.85479	0.37598
649.92622	0.40133
647.99766	0.48003
646.06909	0.53575
644.14053	0.51161
642.21196	0.41823
640.28340	0.32181
638.35483	0.26934
636.42627	0.30868
634.49771	0.37878
632.56914	0.37682
630.64058	0.35211
628.71201	0.37380
626.78345	0.44019
624.85488	0.44592
622.92632	0.33236
620.99775	0.26454
619.06919	0.26075
617.14062	0.26978
615.21206	0.26972
613.28350	0.25086
611.35493	0.25142
609.42637	0.28696
607.49780	0.30621
605.56924	0.29460
603.64067	0.30073
601.71211	0.30850
599.78354	0.28588
597.85498	0.27137
595.92642	0.31272
593.99785	0.34634
592.06929	0.27240
590.14072	0.19847
588.21216	0.24640
586.28359	0.40718
584.35503	0.49240
582.42646	0.37828
580.49790	0.28100
578.56934	0.22597
576.64077	0.18133
574.71221	0.21160
572.78364	0.33443
570.85508	0.48765
568.92651	0.65957
566.99795	0.54233
565.06938	0.36518
563.14082	0.32250
561.21226	0.32435
559.28369	0.30017
557.35513	0.27291
555.42656	0.24513
553.49800	0.23817
551.56943	0.27004
549.64087	0.30552
547.71230	0.34612
545.78374	0.38408
543.85518	0.36211
541.92661	0.30347
539.99805	0.27970
538.06948	0.29947
536.14092	0.30860
534.21235	0.28326
532.28379	0.23150
530.35522	0.18293
528.42666	0.16567
526.49810	0.17841
524.56953	0.19731
522.64097	0.22827
520.71240	0.26325
518.78384	0.23261
516.85527	0.18280
514.92671	0.19197
512.99814	0.20421
511.06958	0.17635
509.14102	0.16738
507.21245	0.19939
505.28389	0.22724
503.35532	0.24696
501.42676	0.26300
499.49819	0.25736
