3997.91411	0.05144
3995.98555	0.05229
3994.05698	0.05336
3992.12842	0.05402
3990.19985	0.05411
3988.27129	0.05390
3986.34272	0.05398
3984.41416	0.05441
3982.48560	0.05473
3980.55703	0.05493
3978.62847	0.05533
3976.69990	0.05586
3974.77134	0.05607
3972.84277	0.05621
3970.91421	0.05670
3968.98564	0.05706
3967.05708	0.05688
3965.12852	0.05659
3963.19995	0.05674
3961.27139	0.05717
3959.34282	0.05747
3957.41426	0.05761
3955.48569	0.05765
3953.55713	0.05764
3951.62856	0.05770
3949.70000	0.05779
3947.77144	0.05807
3945.84287	0.05848
3943.91431	0.05848
3941.98574	0.05814
3940.05718	0.05769
3938.12861	0.05726
3936.20005	0.05696
3934.27148	0.05685
3932.34292	0.05723
3930.41436	0.05792
3928.48579	0.05817
3926.55723	0.05806
3924.62866	0.05812
3922.70010	0.05816
3920.77153	0.05789
3918.84297	0.05774
3916.91440	0.05793
3914.98584	0.05795
3913.05728	0.05754
3911.12871	0.05714
3909.20015	0.05703
3907.27158	0.05726
3905.34302	0.05795
3903.41445	0.05898
3901.48589	0.05973
3899.55732	0.05970
3897.62876	0.05899
3895.70020	0.05826
3893.77163	0.05805
3891.84307	0.05842
3889.91450	0.05868
3887.98594	0.05825
3886.05737	0.05820
3884.12881	0.05881
3882.20024	0.05925
3880.27168	0.05978
3878.34312	0.05987
3876.41455	0.05914
3874.48599	0.05937
3872.55742	0.06085
3870.62886	0.06199
3868.70029	0.06232
3866.77173	0.06193
3864.84316	0.06197
3862.91460	0.06287
3860.98604	0.06315
3859.05747	0.06277
3857.12891	0.06278
3855.20034	0.06348
3853.27178	0.06564
3851.34321	0.06773
3849.41465	0.06646
3847.48608	0.06470
3845.55752	0.06442
3843.62896	0.06538
3841.70039	0.06677
3839.77183	0.06850
3837.84326	0.07040
3835.91470	0.07108
3833.98613	0.07074
3832.05757	0.07049
3830.12900	0.07041
3828.20044	0.07075
3826.27187	0.07164
3824.34331	0.07233
3822.41475	0.07318
3820.48618	0.07558
3818.55762	0.07745
3816.62905	0.07766
3814.70049	0.07817
3812.77192	0.07832
3810.84336	0.07799
3808.91479	0.07847
3806.98623	0.08049
3805.05767	0.08296
3803.12910	0.08438
3801.20054	0.08590
3799.27197	0.08738
3797.34341	0.08787
3795.41484	0.08835
3793.48628	0.08887
3791.55771	0.08949
3789.62915	0.09046
3787.70059	0.09166
3785.77202	0.09335
3783.84346	0.09529
3781.91489	0.09691
3779.98633	0.09886
3778.05776	0.10106
3776.12920	0.10219
3774.20063	0.10312
3772.27207	0.10503
3770.34351	0.10768
3768.41494	0.11020
3766.48638	0.11204
3764.55781	0.11385
3762.62925	0.11554
3760.70068	0.11733
3758.77212	0.12004
3756.84355	0.12293
3754.91499	0.12519
3752.98643	0.12800
3751.05786	0.13270
3749.12930	0.13760
3747.20073	0.13940
3745.27217	0.14076
3743.34360	0.14463
3741.41504	0.14851
3739.48647	0.15084
3737.55791	0.15394
3735.62935	0.15955
3733.70078	0.16632
3731.77222	0.17068
3729.84365	0.17370
3727.91509	0.17761
3725.98652	0.18329
3724.05796	0.19000
3722.12939	0.19677
3720.20083	0.20404
3718.27227	0.21159
3716.34370	0.21907
3714.41514	0.22656
3712.48657	0.23575
3710.55801	0.24918
3708.62944	0.26381
3706.70088	0.27526
3704.77231	0.28594
3702.84375	0.29904
3700.91519	0.31639
3698.98662	0.33523
3697.05806	0.35311
3695.12949	0.37217
3693.20093	0.39241
3691.27236	0.41451
3689.34380	0.44304
3687.41523	0.47756
3685.48667	0.50820
3683.55811	0.53506
3681.62954	0.56373
3679.70098	0.59563
3677.77241	0.62908
3675.84385	0.66891
3673.91528	0.72210
3671.98672	0.76636
3670.05815	0.80606
3668.12959	0.85919
3666.20103	0.90812
3664.27246	0.94985
3662.34390	0.99450
3660.41533	1.04217
3658.48677	1.08876
3656.55820	1.13817
3654.62964	1.19325
3652.70107	1.24024
3650.77251	1.28191
3648.84395	1.33795
3646.91538	1.40468
3644.98682	1.45534
3643.05825	1.49593
3641.12969	1.53749
3639.20112	1.58197
3637.27256	1.62555
3635.34399	1.66814
3633.41543	1.71175
3631.48687	1.75328
3629.55830	1.79534
3627.62974	1.84935
3625.70117	1.89987
3623.77261	1.93396
3621.84404	1.96628
3619.91548	2.00475
3617.98691	2.05186
3616.05835	2.09610
3614.12979	2.13306
3612.20122	2.17254
3610.27266	2.21175
3608.34409	2.25101
3606.41553	2.29411
3604.48696	2.33428
3602.55840	2.36899
3600.62983	2.40587
3598.70127	2.44666
3596.77271	2.48722
3594.84414	2.52869
3592.91558	2.57162
3590.98701	2.61119
3589.05845	2.64735
3587.12988	2.69062
3585.20132	2.73889
3583.27275	2.78028
3581.34419	2.81863
3579.41562	2.86053
3577.48706	2.90504
3575.55850	2.94836
3573.62993	2.99101
3571.70137	3.03235
3569.77280	3.07268
3567.84424	3.11693
3565.91567	3.17089
3563.98711	3.22221
3562.05854	3.26330
3560.12998	3.30361
3558.20142	3.34732
3556.27285	3.39358
3554.34429	3.43923
3552.41572	3.48547
3550.48716	3.53382
3548.55859	3.58140
3546.63003	3.62687
3544.70146	3.67368
3542.77290	3.72101
3540.84434	3.76562
3538.91577	3.80958
3536.98721	3.85685
3535.05864	3.90791
3533.13008	3.95565
3531.20151	4.00104
3529.27295	4.04906
3527.34438	4.09958
3525.41582	4.15052
3523.48726	4.20039
3521.55869	4.24975
3519.63013	4.29810
3517.70156	4.34646
3515.77300	4.39390
3513.84443	4.44032
3511.91587	4.48939
3509.98730	4.54224
3508.05874	4.59443
3506.13018	4.64111
3504.20161	4.68272
3502.27305	4.72582
3500.34448	4.77683
3498.41592	4.83110
3496.48735	4.88193
3494.55879	4.93145
3492.63022	4.98040
3490.70166	5.02241
3488.77310	5.06256
3486.84453	5.11092
3484.91597	5.16276
3482.98740	5.21251
3481.05884	5.26347
3479.13027	5.31663
3477.20171	5.37072
3475.27314	5.42323
3473.34458	5.47358
3471.41602	5.52313
3469.48745	5.56758
3467.55889	5.60872
3465.63032	5.65533
3463.70176	5.70807
3461.77319	5.76247
3459.84463	5.81685
3457.91606	5.86109
3455.98750	5.89752
3454.05894	5.94040
3452.13037	5.98873
3450.20181	6.04450
3448.27324	6.10689
3446.34468	6.16265
3444.41611	6.20906
3442.48755	6.26066
3440.55898	6.30916
3438.63042	6.34399
3436.70186	6.38818
3434.77329	6.45640
3432.84473	6.52973
3430.91616	6.58945
3428.98760	6.64576
3427.05903	6.69902
3425.13047	6.74866
3423.20190	6.80205
3421.27334	6.85368
3419.34478	6.89520
3417.41621	6.92919
3415.48765	6.95681
3413.55908	6.99217
3411.63052	7.06066
3409.70195	7.13567
3407.77339	7.19164
3405.84482	7.23724
3403.91626	7.28074
3401.98770	7.32173
3400.05913	7.37879
3398.13057	7.43833
3396.20200	7.43788
3394.27344	7.40446
3392.34487	7.38977
3390.41631	7.41167
3388.48774	7.47524
3386.55918	7.56026
3384.63062	7.62194
3382.70205	7.65807
3380.77349	7.69304
3378.84492	7.73310
3376.91636	7.81508
3374.98779	7.89209
3373.05923	7.87007
3371.13066	7.80790
3369.20210	7.80516
3367.27354	7.83345
3365.34497	7.87051
3363.41641	7.93342
3361.48784	7.99043
3359.55928	8.03052
3357.63071	8.06925
3355.70215	8.12173
3353.77358	8.14812
3351.84502	8.13341
3349.91646	8.09821
3347.98789	8.07618
3346.05933	8.10669
3344.13076	8.13647
3342.20220	8.11511
3340.27363	8.11400
3338.34507	8.18702
3336.41650	8.26157
3334.48794	8.28129
3332.55937	8.28397
3330.63081	8.30304
3328.70225	8.24068
3326.77368	8.10156
3324.84512	8.03691
3322.91655	8.05438
3320.98799	8.08535
3319.05942	8.08560
3317.13086	8.08941
3315.20229	8.11996
3313.27373	8.14504
3311.34517	8.15074
3309.41660	8.13761
3307.48804	8.13512
3305.55947	8.17128
3303.63091	8.22701
3301.70234	8.27075
3299.77378	8.29627
3297.84521	8.27402
3295.91665	8.24378
3293.98809	8.26701
3292.05952	8.31041
3290.13096	8.34226
3288.20239	8.37939
3286.27383	8.39535
3284.34526	8.36297
3282.41670	8.30022
3280.48813	8.19055
3278.55957	8.07947
3276.63101	8.03366
3274.70244	8.09436
3272.77388	8.22416
3270.84531	8.30367
3268.91675	8.29815
3266.98818	8.27835
3265.05962	8.30307
3263.13105	8.29606
3261.20249	8.26051
3259.27393	8.25395
3257.34536	8.20010
3255.41680	8.11099
3253.48823	8.10961
3251.55967	8.22385
3249.63110	8.31433
3247.70254	8.29814
3245.77397	8.27645
3243.84541	8.29168
3241.91685	8.29690
3239.98828	8.28028
3238.05972	8.24728
3236.13115	8.21015
3234.20259	8.19955
3232.27402	8.21975
3230.34546	8.24012
3228.41689	8.26185
3226.48833	8.32734
3224.55977	8.37437
3222.63120	8.30659
3220.70264	8.19725
3218.77407	8.16128
3216.84551	8.19478
3214.91694	8.17957
3212.98838	8.07061
3211.05981	7.97661
3209.13125	7.96986
3207.20269	8.00933
3205.27412	7.99121
3203.34556	7.89839
3201.41699	7.81653
3199.48843	7.77494
3197.55986	7.73022
3195.63130	7.65630
3193.70273	7.60720
3191.77417	7.61507
3189.84561	7.64010
3187.91704	7.62487
3185.98848	7.53950
3184.05991	7.44003
3182.13135	7.38631
3180.20278	7.36283
3178.27422	7.33158
3176.34565	7.30178
3174.41709	7.28875
3172.48853	7.26011
3170.55996	7.18576
3168.63140	7.08956
3166.70283	7.01045
3164.77427	6.93867
3162.84570	6.86509
3160.91714	6.81703
3158.98857	6.78841
3157.06001	6.73883
3155.13145	6.66653
3153.20288	6.59335
3151.27432	6.52507
3149.34575	6.45676
3147.41719	6.38428
3145.48862	6.31249
3143.56006	6.24517
3141.63149	6.18266
3139.70293	6.11588
3137.77437	6.03805
3135.84580	5.96016
3133.91724	5.88740
3131.98867	5.81002
3130.06011	5.72702
3128.13154	5.65303
3126.20298	5.59128
3124.27441	5.52641
3122.34585	5.45155
3120.41729	5.37840
3118.48872	5.30995
3116.56016	5.23471
3114.63159	5.15448
3112.70303	5.08307
3110.77446	5.01730
3108.84590	4.94453
3106.91733	4.87011
3104.98877	4.80330
3103.06021	4.73950
3101.13164	4.67369
3099.20308	4.60532
3097.27451	4.53493
3095.34595	4.46566
3093.41738	4.39723
3091.48882	4.32978
3089.56025	4.26532
3087.63169	4.20153
3085.70312	4.13762
3083.77456	4.07418
3081.84600	4.01017
3079.91743	3.94458
3077.98887	3.87876
3076.06030	3.81562
3074.13174	3.75453
3072.20317	3.69287
3070.27461	3.63168
3068.34604	3.57361
3066.41748	3.51688
3064.48892	3.45992
3062.56035	3.40432
3060.63179	3.34961
3058.70322	3.29414
3056.77466	3.23827
3054.84609	3.18310
3052.91753	3.12876
3050.98896	3.07524
3049.06040	3.02347
3047.13184	2.97305
3045.20327	2.92179
3043.27471	2.87055
3041.34614	2.82106
3039.41758	2.77288
3037.48901	2.72589
3035.56045	2.67942
3033.63188	2.63288
3031.70332	2.58723
3029.77476	2.54250
3027.84619	2.49801
3025.91763	2.45392
3023.98906	2.40981
3022.06050	2.36572
3020.13193	2.32337
3018.20337	2.28310
3016.27480	2.24380
3014.34624	2.20471
3012.41768	2.16545
3010.48911	2.12659
3008.56055	2.08895
3006.63198	2.05179
3004.70342	2.01471
3002.77485	1.97840
3000.84629	1.94280
2998.91772	1.90773
2996.98916	1.87340
2995.06060	1.83980
2993.13203	1.80680
2991.20347	1.77447
2989.27490	1.74277
2987.34634	1.71128
2985.41777	1.67990
2983.48921	1.64885
2981.56064	1.61831
2979.63208	1.58840
2977.70352	1.55919
2975.77495	1.53048
2973.84639	1.50191
2971.91782	1.47328
2969.98926	1.44465
2968.06069	1.41636
2966.13213	1.38903
2964.20356	1.36280
2962.27500	1.33721
2960.34644	1.31192
2958.41787	1.28719
2956.48931	1.26322
2954.56074	1.23975
2952.63218	1.21652
2950.70361	1.19319
2948.77505	1.17001
2946.84648	1.14772
2944.91792	1.12615
2942.98936	1.10474
2941.06079	1.08317
2939.13223	1.06121
2937.20366	1.03957
2935.27510	1.01904
2933.34653	0.99929
2931.41797	0.97983
2929.48940	0.96061
2927.56084	0.94198
2925.63228	0.92434
2923.70371	0.90727
2921.77515	0.88976
2919.84658	0.87197
2917.91802	0.85493
2915.98945	0.83914
2914.06089	0.82446
2912.13232	0.81063
2910.20376	0.79736
2908.27520	0.78438
2906.34663	0.77141
2904.41807	0.75816
2902.48950	0.74500
2900.56094	0.73244
2898.63237	0.72003
2896.70381	0.70750
2894.77524	0.69519
2892.84668	0.68330
2890.91812	0.67182
2888.98955	0.66052
2887.06099	0.64939
2885.13242	0.63851
2883.20386	0.62771
2881.27529	0.61691
2879.34673	0.60628
2877.41816	0.59573
2875.48960	0.58525
2873.56104	0.57487
2871.63247	0.56447
2869.70391	0.55404
2867.77534	0.54375
2865.84678	0.53362
2863.91821	0.52359
2861.98965	0.51372
2860.06108	0.50423
2858.13252	0.49510
2856.20396	0.48605
2854.27539	0.47705
2852.34683	0.46822
2850.41826	0.45967
2848.48970	0.45144
2846.56113	0.44397
2844.63257	0.43753
2842.70400	0.43162
2840.77544	0.42592
2838.84687	0.42053
2836.91831	0.41544
2834.98975	0.41048
2833.06118	0.40535
2831.13262	0.39976
2829.20405	0.39397
2827.27549	0.38828
2825.34692	0.38265
2823.41836	0.37693
2821.48979	0.37113
2819.56123	0.36536
2817.63267	0.35972
2815.70410	0.35420
2813.77554	0.34884
2811.84697	0.34374
2809.91841	0.33872
2807.98984	0.33361
2806.06128	0.32847
2804.13271	0.32328
2802.20415	0.31813
2800.27559	0.31339
2798.34702	0.30911
2796.41846	0.30481
2794.48989	0.30033
2792.56133	0.29589
2790.63276	0.29152
2788.70420	0.28723
2786.77563	0.28315
2784.84707	0.27907
2782.91851	0.27486
2780.98994	0.27081
2779.06138	0.26712
2777.13281	0.26359
2775.20425	0.25997
2773.27568	0.25632
2771.34712	0.25284
2769.41855	0.24954
2767.48999	0.24622
2765.56143	0.24284
2763.63286	0.23957
2761.70430	0.23650
2759.77573	0.23351
2757.84717	0.23052
2755.91860	0.22751
2753.99004	0.22458
2752.06147	0.22176
2750.13291	0.21907
2748.20435	0.21650
2746.27578	0.21387
2744.34722	0.21116
2742.41865	0.20862
2740.49009	0.20630
2738.56152	0.20402
2736.63296	0.20169
2734.70439	0.19929
2732.77583	0.19688
2730.84727	0.19470
2728.91870	0.19274
2726.99014	0.19075
2725.06157	0.18862
2723.13301	0.18649
2721.20444	0.18454
2719.27588	0.18274
2717.34731	0.18098
2715.41875	0.17923
2713.49019	0.17743
2711.56162	0.17562
2709.63306	0.17393
2707.70449	0.17237
2705.77593	0.17087
2703.84736	0.16945
2701.91880	0.16805
2699.99023	0.16665
2698.06167	0.16526
2696.13311	0.16380
2694.20454	0.16223
2692.27598	0.16080
2690.34741	0.15947
2688.41885	0.15813
2686.49028	0.15694
2684.56172	0.15594
2682.63315	0.15491
2680.70459	0.15383
2678.77603	0.15274
2676.84746	0.15169
2674.91890	0.15068
2672.99033	0.14961
2671.06177	0.14853
2669.13320	0.14764
2667.20464	0.14688
2665.27607	0.14612
2663.34751	0.14533
2661.41895	0.14447
2659.49038	0.14369
2657.56182	0.14305
2655.63325	0.14238
2653.70469	0.14165
2651.77612	0.14093
2649.84756	0.14024
2647.91899	0.13972
2645.99043	0.13937
2644.06187	0.13894
2642.13330	0.13837
2640.20474	0.13784
2638.27617	0.13744
2636.34761	0.13703
2634.41904	0.13661
2632.49048	0.13631
2630.56191	0.13608
2628.63335	0.13583
2626.70479	0.13563
2624.77622	0.13544
2622.84766	0.13515
2620.91909	0.13483
2618.99053	0.13465
2617.06196	0.13467
2615.13340	0.13482
2613.20483	0.13482
2611.27627	0.13467
2609.34771	0.13457
2607.41914	0.13445
2605.49058	0.13432
2603.56201	0.13433
2601.63345	0.13447
2599.70488	0.13463
2597.77632	0.13480
2595.84775	0.13503
2593.91919	0.13527
2591.99062	0.13543
2590.06206	0.13552
2588.13350	0.13566
2586.20493	0.13601
2584.27637	0.13643
2582.34780	0.13678
2580.41924	0.13718
2578.49067	0.13755
2576.56211	0.13794
2574.63354	0.13842
2572.70498	0.13891
2570.77642	0.13938
2568.84785	0.13980
2566.91929	0.14009
2564.99072	0.14039
2563.06216	0.14084
2561.13359	0.14138
2559.20503	0.14196
2557.27646	0.14257
2555.34790	0.14320
2553.41934	0.14383
2551.49077	0.14445
2549.56221	0.14504
2547.63364	0.14563
2545.70508	0.14626
2543.77651	0.14697
2541.84795	0.14770
2539.91938	0.14836
2537.99082	0.14905
2536.06226	0.14991
2534.13369	0.15083
2532.20513	0.15157
2530.27656	0.15219
2528.34800	0.15288
2526.41943	0.15362
2524.49087	0.15438
2522.56230	0.15524
2520.63374	0.15620
2518.70518	0.15709
2516.77661	0.15789
2514.84805	0.15872
2512.91948	0.15956
2510.99092	0.16034
2509.06235	0.16111
2507.13379	0.16202
2505.20522	0.16315
2503.27666	0.16426
2501.34810	0.16517
2499.41953	0.16588
2497.49097	0.16660
2495.56240	0.16749
2493.63384	0.16849
2491.70527	0.16946
2489.77671	0.17036
2487.84814	0.17125
2485.91958	0.17219
2483.99102	0.17313
2482.06245	0.17406
2480.13389	0.17505
2478.20532	0.17609
2476.27676	0.17713
2474.34819	0.17815
2472.41963	0.17908
2470.49106	0.17999
2468.56250	0.18110
2466.63394	0.18233
2464.70537	0.18340
2462.77681	0.18433
2460.84824	0.18532
2458.91968	0.18633
2456.99111	0.18730
2455.06255	0.18825
2453.13398	0.18920
2451.20542	0.19027
2449.27686	0.19135
2447.34829	0.19228
2445.41973	0.19324
2443.49116	0.19445
2441.56260	0.19572
2439.63403	0.19684
2437.70547	0.19789
2435.77690	0.19899
2433.84834	0.20001
2431.91978	0.20096
2429.99121	0.20204
2428.06265	0.20314
2426.13408	0.20425
2424.20552	0.20551
2422.27695	0.20682
2420.34839	0.20806
2418.41982	0.20921
2416.49126	0.21029
2414.56270	0.21146
2412.63413	0.21276
2410.70557	0.21406
2408.77700	0.21529
2406.84844	0.21649
2404.91987	0.21763
2402.99131	0.21873
2401.06274	0.21994
2399.13418	0.22128
2397.20562	0.22265
2395.27705	0.22403
2393.34849	0.22538
2391.41992	0.22677
2389.49136	0.22809
2387.56279	0.22927
2385.63423	0.23058
2383.70566	0.23214
2381.77710	0.23372
2379.84854	0.23533
2377.91997	0.23708
2375.99141	0.23883
2374.06284	0.24076
2372.13428	0.24304
2370.20571	0.24505
2368.27715	0.24647
2366.34858	0.24812
2364.42002	0.25038
2362.49146	0.25270
2360.56289	0.25499
2358.63433	0.25764
2356.70576	0.25940
2354.77720	0.25950
2352.84863	0.26007
2350.92007	0.26138
2348.99150	0.26231
2347.06294	0.26306
2345.13437	0.26447
2343.20581	0.26679
2341.27725	0.26914
2339.34868	0.27094
2337.42012	0.27208
2335.49155	0.27305
2333.56299	0.27463
2331.63442	0.27681
2329.70586	0.27888
2327.77729	0.28060
2325.84873	0.28212
2323.92017	0.28365
2321.99160	0.28526
2320.06304	0.28691
2318.13447	0.28855
2316.20591	0.28995
2314.27734	0.29134
2312.34878	0.29299
2310.42021	0.29482
2308.49165	0.29661
2306.56309	0.29836
2304.63452	0.30001
2302.70596	0.30163
2300.77739	0.30340
2298.84883	0.30522
2296.92026	0.30700
2294.99170	0.30877
2293.06313	0.31063
2291.13457	0.31258
2289.20601	0.31453
2287.27744	0.31642
2285.34888	0.31823
2283.42031	0.32006
2281.49175	0.32205
2279.56318	0.32418
2277.63462	0.32633
2275.70605	0.32845
2273.77749	0.33057
2271.84893	0.33271
2269.92036	0.33488
2267.99180	0.33701
2266.06323	0.33912
2264.13467	0.34132
2262.20610	0.34355
2260.27754	0.34573
2258.34897	0.34788
2256.42041	0.35013
2254.49185	0.35237
2252.56328	0.35454
2250.63472	0.35679
2248.70615	0.35905
2246.77759	0.36119
2244.84902	0.36336
2242.92046	0.36563
2240.99189	0.36790
2239.06333	0.37010
2237.13477	0.37229
2235.20620	0.37457
2233.27764	0.37697
2231.34907	0.37943
2229.42051	0.38183
2227.49194	0.38405
2225.56338	0.38612
2223.63481	0.38822
2221.70625	0.39045
2219.77769	0.39279
2217.84912	0.39524
2215.92056	0.39764
2213.99199	0.39981
2212.06343	0.40191
2210.13486	0.40411
2208.20630	0.40622
2206.27773	0.40823
2204.34917	0.41037
2202.42061	0.41259
2200.49204	0.41465
2198.56348	0.41665
2196.63491	0.41873
2194.70635	0.42074
2192.77778	0.42270
2190.84922	0.42464
2188.92065	0.42655
2186.99209	0.42844
2185.06353	0.43027
2183.13496	0.43203
2181.20640	0.43382
2179.27783	0.43556
2177.34927	0.43729
2175.42070	0.43904
2173.49214	0.44065
2171.56357	0.44200
2169.63501	0.44334
2167.70645	0.44480
2165.77788	0.44620
2163.84932	0.44745
2161.92075	0.44861
2159.99219	0.44961
2158.06362	0.45051
2156.13506	0.45150
2154.20649	0.45253
2152.27793	0.45348
2150.34937	0.45429
2148.42080	0.45489
2146.49224	0.45544
2144.56367	0.45603
2142.63511	0.45653
2140.70654	0.45693
2138.77798	0.45727
2136.84941	0.45751
2134.92085	0.45760
2132.99229	0.45757
2131.06372	0.45751
2129.13516	0.45734
2127.20659	0.45703
2125.27803	0.45674
2123.34946	0.45642
2121.42090	0.45603
2119.49233	0.45560
2117.56377	0.45503
2115.63521	0.45424
2113.70664	0.45344
2111.77808	0.45265
2109.84951	0.45170
2107.92095	0.45059
2105.99238	0.44953
2104.06382	0.44846
2102.13525	0.44717
2100.20669	0.44581
2098.27812	0.44445
2096.34956	0.44296
2094.42100	0.44132
2092.49243	0.43967
2090.56387	0.43810
2088.63530	0.43644
2086.70674	0.43457
2084.77817	0.43266
2082.84961	0.43079
2080.92104	0.42879
2078.99248	0.42673
2077.06392	0.42475
2075.13535	0.42277
2073.20679	0.42065
2071.27822	0.41840
2069.34966	0.41609
2067.42109	0.41374
2065.49253	0.41138
2063.56396	0.40895
2061.63540	0.40643
2059.70684	0.40396
2057.77827	0.40151
2055.84971	0.39902
2053.92114	0.39642
2051.99258	0.39377
2050.06401	0.39110
2048.13545	0.38842
2046.20688	0.38570
2044.27832	0.38310
2042.34976	0.38053
2040.42119	0.37779
2038.49263	0.37496
2036.56406	0.37219
2034.63550	0.36941
2032.70693	0.36656
2030.77837	0.36376
2028.84980	0.36102
2026.92124	0.35824
2024.99268	0.35541
2023.06411	0.35254
2021.13555	0.34967
2019.20698	0.34691
2017.27842	0.34424
2015.34985	0.34140
2013.42129	0.33846
2011.49272	0.33559
2009.56416	0.33285
2007.63560	0.33020
2005.70703	0.32754
2003.77847	0.32481
2001.84990	0.32205
1999.92134	0.31943
1997.99277	0.31689
1996.06421	0.31426
1994.13564	0.31164
1992.20708	0.30919
1990.27852	0.30664
1988.34995	0.30396
1986.42139	0.30138
1984.49282	0.29902
1982.56426	0.29678
1980.63569	0.29443
1978.70713	0.29194
1976.77856	0.28947
1974.85000	0.28721
1972.92144	0.28498
1970.99287	0.28274
1969.06431	0.28068
1967.13574	0.27881
1965.20718	0.27683
1963.27861	0.27478
1961.35005	0.27281
1959.42148	0.27086
1957.49292	0.26896
1955.56436	0.26715
1953.63579	0.26542
1951.70723	0.26373
1949.77866	0.26205
1947.85010	0.26037
1945.92153	0.25880
1943.99297	0.25741
1942.06440	0.25602
1940.13584	0.25440
1938.20728	0.25280
1936.27871	0.25140
1934.35015	0.25008
1932.42158	0.24875
1930.49302	0.24745
1928.56445	0.24631
1926.63589	0.24525
1924.70732	0.24428
1922.77876	0.24339
1920.85020	0.24244
1918.92163	0.24149
1916.99307	0.24056
1915.06450	0.23957
1913.13594	0.23865
1911.20737	0.23799
1909.27881	0.23743
1907.35024	0.23668
1905.42168	0.23585
1903.49312	0.23523
1901.56455	0.23469
1899.63599	0.23409
1897.70742	0.23364
1895.77886	0.23337
1893.85029	0.23310
1891.92173	0.23268
1889.99316	0.23241
1888.06460	0.23219
1886.13604	0.23181
1884.20747	0.23146
1882.27891	0.23130
1880.35034	0.23127
1878.42178	0.23127
1876.49321	0.23127
1874.56465	0.23121
1872.63608	0.23120
1870.70752	0.23145
1868.77896	0.23214
1866.85039	0.23260
1864.92183	0.23250
1862.99326	0.23246
1861.06470	0.23264
1859.13613	0.23299
1857.20757	0.23337
1855.27900	0.23379
1853.35044	0.23423
1851.42187	0.23479
1849.49331	0.23550
1847.56475	0.23632
1845.63618	0.23726
1843.70762	0.23832
1841.77905	0.23902
1839.85049	0.23934
1837.92192	0.24000
1835.99336	0.24091
1834.06479	0.24188
1832.13623	0.24296
1830.20767	0.24447
1828.27910	0.24600
1826.35054	0.24704
1824.42197	0.24828
1822.49341	0.24953
1820.56484	0.25071
1818.63628	0.25210
1816.70771	0.25377
1814.77915	0.25542
1812.85059	0.25721
1810.92202	0.25939
1808.99346	0.26157
1807.06489	0.26348
1805.13633	0.26536
1803.20776	0.26772
1801.27920	0.27053
1799.35063	0.27349
1797.42207	0.27599
1795.49351	0.27832
1793.56494	0.28118
1791.63638	0.28497
1789.70781	0.28848
1787.77925	0.29100
1785.85068	0.29408
1783.92212	0.29785
1781.99355	0.30193
1780.06499	0.30627
1778.13643	0.31067
1776.20786	0.31476
1774.27930	0.31916
1772.35073	0.32519
1770.42217	0.33172
1768.49360	0.33711
1766.56504	0.34224
1764.63647	0.34756
1762.70791	0.35360
1760.77935	0.36125
1758.85078	0.36839
1756.92222	0.37551
1754.99365	0.38329
1753.06509	0.39036
1751.13652	0.39872
1749.20796	0.40913
1747.27939	0.41933
1745.35083	0.42847
1743.42227	0.43818
1741.49370	0.44882
1739.56514	0.46123
1737.63657	0.47372
1735.70801	0.48490
1733.77944	0.50147
1731.85088	0.52117
1729.92231	0.53693
1727.99375	0.55286
1726.06519	0.57013
1724.13662	0.58921
1722.20806	0.60987
1720.27949	0.62909
1718.35093	0.65133
1716.42236	0.68334
1714.49380	0.71396
1712.56523	0.73911
1710.63667	0.76352
1708.70811	0.78965
1706.77954	0.81919
1704.85098	0.85382
1702.92241	0.88469
1700.99385	0.91558
1699.06528	0.96091
1697.13672	1.00214
1695.20815	1.04361
1693.27959	1.08430
1691.35103	1.11731
1689.42246	1.15465
1687.49390	1.19332
1685.56533	1.23056
1683.63677	1.28669
1681.70820	1.34493
1679.77964	1.38352
1677.85107	1.42082
1675.92251	1.46371
1673.99395	1.51555
1672.06538	1.56109
1670.13682	1.60472
1668.20825	1.66004
1666.27969	1.70494
1664.35112	1.74242
1662.42256	1.78808
1660.49399	1.83884
1658.56543	1.87895
1656.63687	1.91224
1654.70830	1.94408
1652.77974	1.99608
1650.85117	2.04862
1648.92261	2.07133
1646.99404	2.10067
1645.06548	2.13402
1643.13691	2.15563
1641.20835	2.16888
1639.27979	2.18118
1637.35122	2.19054
1635.42266	2.19514
1633.49409	2.19259
1631.56553	2.18221
1629.63696	2.16797
1627.70840	2.14435
1625.77983	2.11714
1623.85127	2.08295
1621.92271	2.04002
1619.99414	2.00043
1618.06558	1.96113
1616.13701	1.90416
1614.20845	1.84355
1612.27988	1.79602
1610.35132	1.74722
1608.42275	1.69515
1606.49419	1.64366
1604.56562	1.59582
1602.63706	1.54954
1600.70850	1.50368
1598.77993	1.46043
1596.85137	1.41941
1594.92280	1.37988
1592.99424	1.34165
1591.06567	1.30620
1589.13711	1.27291
1587.20854	1.24187
1585.27998	1.21257
1583.35142	1.18417
1581.42285	1.15757
1579.49429	1.13464
1577.56572	1.11380
1575.63716	1.08803
1573.70859	1.06440
1571.78003	1.04805
1569.85146	1.03051
1567.92290	1.01046
1565.99434	0.99396
1564.06577	0.97956
1562.13721	0.96717
1560.20864	0.95637
1558.28008	0.93867
1556.35151	0.92207
1554.42295	0.91155
1552.49438	0.90130
1550.56582	0.89113
1548.63726	0.88063
1546.70869	0.87102
1544.78013	0.86216
1542.85156	0.85304
1540.92300	0.84264
1538.99443	0.82882
1537.06587	0.81790
1535.13730	0.81037
1533.20874	0.80181
1531.28018	0.79274
1529.35161	0.78567
1527.42305	0.77909
1525.49448	0.77227
1523.56592	0.76590
1521.63735	0.75930
1519.70879	0.75217
1517.78022	0.74614
1515.85166	0.74017
1513.92310	0.73415
1511.99453	0.72905
1510.06597	0.72491
1508.13740	0.72141
1506.20884	0.71546
1504.28027	0.70875
1502.35171	0.70450
1500.42314	0.70126
1498.49458	0.69821
1496.56602	0.69460
1494.63745	0.69063
1492.70889	0.68734
1490.78032	0.68474
1488.85176	0.68191
1486.92319	0.67861
1484.99463	0.67551
1483.06606	0.67291
1481.13750	0.67052
1479.20894	0.66815
1477.28037	0.66610
1475.35181	0.66430
1473.42324	0.66243
1471.49468	0.65945
1469.56611	0.65581
1467.63755	0.65285
1465.70898	0.65059
1463.78042	0.64853
1461.85186	0.64655
1459.92329	0.64498
1457.99473	0.64359
1456.06616	0.64137
1454.13760	0.63860
1452.20903	0.63631
1450.28047	0.63427
1448.35190	0.63218
1446.42334	0.62994
1444.49478	0.62783
1442.56621	0.62603
1440.63765	0.62461
1438.70908	0.62359
1436.78052	0.62260
1434.85195	0.62117
1432.92339	0.61960
1430.99482	0.61825
1429.06626	0.61703
1427.13770	0.61593
1425.20913	0.61498
1423.28057	0.61397
1421.35200	0.61290
1419.42344	0.61201
1417.49487	0.61085
1415.56631	0.60907
1413.63774	0.60736
1411.70918	0.60570
1409.78062	0.60383
1407.85205	0.60214
1405.92349	0.60088
1403.99492	0.59963
1402.06636	0.59813
1400.13779	0.59666
1398.20923	0.59531
1396.28066	0.59388
1394.35210	0.59208
1392.42354	0.59010
1390.49497	0.58836
1388.56641	0.58684
1386.63784	0.58531
1384.70928	0.58364
1382.78071	0.58208
1380.85215	0.58075
1378.92358	0.57959
1376.99502	0.57867
1375.06646	0.57809
1373.13789	0.57751
1371.20933	0.57674
1369.28076	0.57603
1367.35220	0.57530
1365.42363	0.57434
1363.49507	0.57341
1361.56650	0.57257
1359.63794	0.57145
1357.70937	0.57021
1355.78081	0.56918
1353.85225	0.56825
1351.92368	0.56724
1349.99512	0.56619
1348.06655	0.56518
1346.13799	0.56420
1344.20942	0.56315
1342.28086	0.56206
1340.35229	0.56107
1338.42373	0.56007
1336.49517	0.55897
1334.56660	0.55793
1332.63804	0.55705
1330.70947	0.55634
1328.78091	0.55573
1326.85234	0.55513
1324.92378	0.55455
1322.99521	0.55400
1321.06665	0.55350
1319.13809	0.55296
1317.20952	0.55223
1315.28096	0.55140
1313.35239	0.55055
1311.42383	0.54953
1309.49526	0.54833
1307.56670	0.54723
1305.63813	0.54628
1303.70957	0.54528
1301.78101	0.54421
1299.85244	0.54318
1297.92388	0.54220
1295.99531	0.54116
1294.06675	0.54018
1292.13818	0.53937
1290.20962	0.53865
1288.28105	0.53793
1286.35249	0.53725
1284.42393	0.53673
1282.49536	0.53627
1280.56680	0.53576
1278.63823	0.53517
1276.70967	0.53461
1274.78110	0.53416
1272.85254	0.53373
1270.92397	0.53324
1268.99541	0.53270
1267.06685	0.53226
1265.13828	0.53194
1263.20972	0.53172
1261.28115	0.53156
1259.35259	0.53138
1257.42402	0.53105
1255.49546	0.53070
1253.56689	0.53050
1251.63833	0.53026
1249.70977	0.52993
1247.78120	0.52970
1245.85264	0.52963
1243.92407	0.52950
1241.99551	0.52906
1240.06694	0.52837
1238.13838	0.52767
1236.20981	0.52704
1234.28125	0.52637
1232.35269	0.52562
1230.42412	0.52488
1228.49556	0.52415
1226.56699	0.52341
1224.63843	0.52266
1222.70986	0.52185
1220.78130	0.52100
1218.85273	0.52015
1216.92417	0.51937
1214.99561	0.51882
1213.06704	0.51828
1211.13848	0.51753
1209.20991	0.51680
1207.28135	0.51627
1205.35278	0.51581
1203.42422	0.51525
1201.49565	0.51458
1199.56709	0.51401
1197.63853	0.51362
1195.70996	0.51326
1193.78140	0.51271
1191.85283	0.51207
1189.92427	0.51159
1187.99570	0.51128
1186.06714	0.51106
1184.13857	0.51094
1182.21001	0.51089
1180.28145	0.51094
1178.35288	0.51122
1176.42432	0.51178
1174.49575	0.51244
1172.56719	0.51299
1170.63862	0.51348
1168.71006	0.51407
1166.78149	0.51474
1164.85293	0.51536
1162.92437	0.51579
1160.99580	0.51604
1159.06724	0.51617
1157.13867	0.51613
1155.21011	0.51573
1153.28154	0.51483
1151.35298	0.51352
1149.42441	0.51185
1147.49585	0.50989
1145.56729	0.50794
1143.63872	0.50621
1141.71016	0.50466
1139.78159	0.50296
1137.85303	0.50103
1135.92446	0.49921
1133.99590	0.49760
1132.06733	0.49607
1130.13877	0.49462
1128.21021	0.49325
1126.28164	0.49213
1124.35308	0.49119
1122.42451	0.49012
1120.49595	0.48913
1118.56738	0.48848
1116.63882	0.48818
1114.71025	0.48826
1112.78169	0.48867
1110.85312	0.48919
1108.92456	0.48975
1106.99600	0.49052
1105.06743	0.49171
1103.13887	0.49317
1101.21030	0.49452
1099.28174	0.49592
1097.35317	0.49802
1095.42461	0.50092
1093.49604	0.50450
1091.56748	0.50902
1089.63892	0.51483
1087.71035	0.52183
1085.78179	0.52940
1083.85322	0.53707
1081.92466	0.54434
1079.99609	0.55013
1078.06753	0.55344
1076.13896	0.55378
1074.21040	0.55116
1072.28184	0.54620
1070.35327	0.53986
1068.42471	0.53312
1066.49614	0.52668
1064.56758	0.52068
1062.63901	0.51512
1060.71045	0.51016
1058.78188	0.50588
1056.85332	0.50217
1054.92476	0.49896
1052.99619	0.49624
1051.06763	0.49392
1049.13906	0.49224
1047.21050	0.49142
1045.28193	0.49123
1043.35337	0.49138
1041.42480	0.49158
1039.49624	0.49160
1037.56768	0.49152
1035.63911	0.49139
1033.71055	0.49097
1031.78198	0.49027
1029.85342	0.48950
1027.92485	0.48854
1025.99629	0.48753
1024.06772	0.48685
1022.13916	0.48658
1020.21060	0.48665
1018.28203	0.48701
1016.35347	0.48755
1014.42490	0.48810
1012.49634	0.48859
1010.56777	0.48910
1008.63921	0.48967
1006.71064	0.49047
1004.78208	0.49178
1002.85352	0.49364
1000.92495	0.49608
998.99639	0.49923
997.06782	0.50316
995.13926	0.50755
993.21069	0.51164
991.28213	0.51481
989.35356	0.51696
987.42500	0.51813
985.49644	0.51855
983.56787	0.51887
981.63931	0.51957
979.71074	0.52070
977.78218	0.52234
975.85361	0.52467
973.92505	0.52755
971.99648	0.53079
970.06792	0.53434
968.13936	0.53821
966.21079	0.54243
964.28223	0.54696
962.35366	0.55184
960.42510	0.55707
958.49653	0.56256
956.56797	0.56829
954.63940	0.57422
952.71084	0.58038
950.78228	0.58668
948.85371	0.59300
946.92515	0.59938
944.99658	0.60587
943.06802	0.61228
941.13945	0.61839
939.21089	0.62431
937.28232	0.63023
935.35376	0.63580
933.42520	0.64076
931.49663	0.64576
929.56807	0.65150
927.63950	0.65783
925.71094	0.66439
923.78237	0.67089
921.85381	0.67746
919.92524	0.68415
917.99668	0.69092
916.06812	0.69806
914.13955	0.70557
912.21099	0.71353
910.28242	0.72179
908.35386	0.72977
906.42529	0.73776
904.49673	0.74670
902.56816	0.75669
900.63960	0.76670
898.71104	0.77589
896.78247	0.78523
894.85391	0.79574
892.92534	0.80640
890.99678	0.81623
889.06821	0.82535
887.13965	0.83438
885.21108	0.84459
883.28252	0.85651
881.35396	0.86882
879.42539	0.88054
877.49683	0.89263
875.56826	0.90605
873.63970	0.91954
871.71113	0.93085
869.78257	0.94005
867.85400	0.94996
865.92544	0.96151
863.99687	0.97325
862.06831	0.98515
860.13975	0.99775
858.21118	1.01063
856.28262	1.02303
854.35405	1.03446
852.42549	1.04401
850.49692	1.05284
848.56836	1.06405
846.63979	1.07614
844.71123	1.08702
842.78267	1.09919
840.85410	1.11163
838.92554	1.12136
836.99697	1.13270
835.06841	1.14682
833.13984	1.15692
831.21128	1.16396
829.28271	1.17405
827.35415	1.18579
825.42559	1.19823
823.49702	1.21207
821.56846	1.22067
819.63989	1.22467
817.71133	1.23334
815.78276	1.24789
813.85420	1.26132
811.92563	1.27068
809.99707	1.28122
808.06851	1.29137
806.13994	1.29642
804.21138	1.29887
802.28281	1.30295
800.35425	1.30821
798.42568	1.31819
796.49712	1.34337
794.56855	1.38095
792.63999	1.40507
790.71143	1.41170
788.78286	1.41970
786.85430	1.39714
784.92573	1.35594
782.99717	1.35775
781.06860	1.40325
779.14004	1.41825
777.21147	1.36601
775.28291	1.32320
773.35435	1.30617
771.42578	1.29654
769.49722	1.29143
767.56865	1.26776
765.64009	1.22905
763.71152	1.22083
761.78296	1.25919
759.85439	1.28720
757.92583	1.29397
755.99727	1.34992
754.06870	1.38434
752.14014	1.25617
750.21157	1.10722
748.28301	1.03302
746.35444	1.01822
744.42588	1.03117
742.49731	1.05985
740.56875	1.08039
738.64019	1.06623
736.71162	0.99025
734.78306	0.86549
732.85449	0.79035
730.92593	0.79154
728.99736	0.75747
727.06880	0.68464
725.14023	0.69299
723.21167	0.60722
721.28311	0.30293
719.35454	0.10109
717.42598	0.09238
715.49741	0.15084
713.56885	0.14328
711.64028	0.14634
709.71172	0.13867
707.78315	-0.16483
705.85459	-0.41550
703.92603	-0.18371
701.99746	0.06978
700.06890	0.16325
698.14033	0.10812
696.21177	0.08808
694.28320	0.19188
692.35464	0.29690
690.42607	0.26289
688.49751	0.18836
686.56895	0.24057
684.64038	0.28306
682.71182	0.21074
680.78325	0.18293
678.85469	0.20865
676.92612	0.24366
674.99756	0.29608
673.06899	0.30334
671.14043	0.19987
669.21187	0.09991
667.28330	0.07022
665.35474	0.12980
663.42617	0.18688
661.49761	0.17127
659.56904	0.15648
657.64048	0.21633
655.71191	0.36383
653.78335	0.49328
651.85479	0.43484
649.92622	0.37291
647.99766	0.30544
646.06909	0.22385
644.14053	0.18525
642.21196	0.16210
640.28340	0.15584
638.35483	0.22565
636.42627	0.29475
634.49771	0.20854
632.56914	0.05453
630.64058	0.01629
628.71201	0.07888
626.78345	0.13971
624.85488	0.14625
622.92632	0.16323
620.99775	0.18494
619.06919	0.16237
617.14062	0.11887
615.21206	0.11314
613.28350	0.15450
611.35493	0.16011
609.42637	0.10500
607.49780	0.06543
605.56924	0.08337
603.64067	0.11195
601.71211	0.13521
599.78354	0.17215
597.85498	0.18472
595.92642	0.16276
593.99785	0.18103
592.06929	0.24687
590.14072	0.29154
588.21216	0.24561
586.28359	0.20444
584.35503	0.21132
582.42646	0.20900
580.49790	0.18183
578.56934	0.18072
576.64077	0.16866
574.71221	0.11933
572.78364	0.12169
570.85508	0.14769
568.92651	0.13960
566.99795	0.13605
565.06938	0.15048
563.14082	0.15597
561.21226	0.14084
559.28369	0.11344
557.35513	0.10084
555.42656	0.10360
553.49800	0.13542
551.56943	0.20219
549.64087	0.24567
547.71230	0.22857
545.78374	0.20987
543.85518	0.20890
541.92661	0.21790
539.99805	0.24221
538.06948	0.25770
536.14092	0.24544
534.21235	0.21144
532.28379	0.17245
530.35522	0.15924
528.42666	0.18242
526.49810	0.19003
524.56953	0.16306
522.64097	0.16864
520.71240	0.17553
518.78384	0.14966
516.85527	0.14024
514.92671	0.13620
512.99814	0.11991
511.06958	0.15228
509.14102	0.19592
507.21245	0.16249
505.28389	0.12740
503.35532	0.14658
501.42676	0.18482
499.49819	0.21584
