3997.91411	0.05642
3995.98555	0.05682
3994.05698	0.05705
3992.12842	0.05740
3990.19985	0.05809
3988.27129	0.05884
3986.34272	0.05927
3984.41416	0.05938
3982.48560	0.05960
3980.55703	0.06002
3978.62847	0.06029
3976.69990	0.06049
3974.77134	0.06091
3972.84277	0.06139
3970.91421	0.06151
3968.98564	0.06138
3967.05708	0.06132
3965.12852	0.06137
3963.19995	0.06153
3961.27139	0.06168
3959.34282	0.06159
3957.41426	0.06153
3955.48569	0.06181
3953.55713	0.06247
3951.62856	0.06334
3949.70000	0.06405
3947.77144	0.06412
3945.84287	0.06362
3943.91431	0.06376
3941.98574	0.06444
3940.05718	0.06391
3938.12861	0.06258
3936.20005	0.06206
3934.27148	0.06290
3932.34292	0.06461
3930.41436	0.06564
3928.48579	0.06493
3926.55723	0.06413
3924.62866	0.06478
3922.70010	0.06540
3920.77153	0.06508
3918.84297	0.06503
3916.91440	0.06497
3914.98584	0.06399
3913.05728	0.06267
3911.12871	0.06182
3909.20015	0.06164
3907.27158	0.06262
3905.34302	0.06525
3903.41445	0.06841
3901.48589	0.06987
3899.55732	0.06936
3897.62876	0.06747
3895.70020	0.06510
3893.77163	0.06415
3891.84307	0.06509
3889.91450	0.06600
3887.98594	0.06580
3886.05737	0.06641
3884.12881	0.06774
3882.20024	0.06813
3880.27168	0.06806
3878.34312	0.06705
3876.41455	0.06577
3874.48599	0.06669
3872.55742	0.06926
3870.62886	0.07160
3868.70029	0.07272
3866.77173	0.07181
3864.84316	0.07131
3862.91460	0.07186
3860.98604	0.07088
3859.05747	0.06914
3857.12891	0.06922
3855.20034	0.07220
3853.27178	0.07783
3851.34321	0.07968
3849.41465	0.07508
3847.48608	0.07125
3845.55752	0.07063
3843.62896	0.07285
3841.70039	0.07621
3839.77183	0.07943
3837.84326	0.08192
3835.91470	0.08193
3833.98613	0.08028
3832.05757	0.07888
3830.12900	0.07765
3828.20044	0.07716
3826.27187	0.07815
3824.34331	0.07992
3822.41475	0.08245
3820.48618	0.08620
3818.55762	0.08814
3816.62905	0.08790
3814.70049	0.08722
3812.77192	0.08537
3810.84336	0.08384
3808.91479	0.08455
3806.98623	0.08766
3805.05767	0.09114
3803.12910	0.09352
3801.20054	0.09598
3799.27197	0.09714
3797.34341	0.09674
3795.41484	0.09660
3793.48628	0.09608
3791.55771	0.09564
3789.62915	0.09623
3787.70059	0.09773
3785.77202	0.10005
3783.84346	0.10245
3781.91489	0.10395
3779.98633	0.10568
3778.05776	0.10796
3776.12920	0.10877
3774.20063	0.10875
3772.27207	0.11000
3770.34351	0.11330
3768.41494	0.11722
3766.48638	0.11945
3764.55781	0.12071
3762.62925	0.12215
3760.70068	0.12470
3758.77212	0.12864
3756.84355	0.13189
3754.91499	0.13392
3752.98643	0.13733
3751.05786	0.14362
3749.12930	0.14959
3747.20073	0.15144
3745.27217	0.15266
3743.34360	0.15497
3741.41504	0.15641
3739.48647	0.15793
3737.55791	0.16157
3735.62935	0.16835
3733.70078	0.17561
3731.77222	0.17833
3729.84365	0.17847
3727.91509	0.18035
3725.98652	0.18601
3724.05796	0.19397
3722.12939	0.20118
3720.20083	0.20786
3718.27227	0.21505
3716.34370	0.22268
3714.41514	0.23093
3712.48657	0.24195
3710.55801	0.25684
3708.62944	0.26986
3706.70088	0.27885
3704.77231	0.28847
3702.84375	0.30173
3700.91519	0.31951
3698.98662	0.33799
3697.05806	0.35503
3695.12949	0.37365
3693.20093	0.39430
3691.27236	0.41786
3689.34380	0.44844
3687.41523	0.48370
3685.48667	0.51275
3683.55811	0.53778
3681.62954	0.56619
3679.70098	0.59945
3677.77241	0.63501
3675.84385	0.67689
3673.91528	0.73033
3671.98672	0.77312
3670.05815	0.81211
3668.12959	0.86449
3666.20103	0.91117
3664.27246	0.95070
3662.34390	0.99436
3660.41533	1.04227
3658.48677	1.08985
3656.55820	1.14008
3654.62964	1.19540
3652.70107	1.24326
3650.77251	1.28754
3648.84395	1.34740
3646.91538	1.41469
3644.98682	1.46110
3643.05825	1.49739
3641.12969	1.53662
3639.20112	1.58094
3637.27256	1.62586
3635.34399	1.66960
3633.41543	1.71337
3631.48687	1.75472
3629.55830	1.79710
3627.62974	1.85111
3625.70117	1.90043
3623.77261	1.93387
3621.84404	1.96654
3619.91548	2.00549
3617.98691	2.05267
3616.05835	2.09739
3614.12979	2.13502
3612.20122	2.17405
3610.27266	2.21273
3608.34409	2.25221
3606.41553	2.29438
3604.48696	2.33348
3602.55840	2.36933
3600.62983	2.40880
3598.70127	2.45124
3596.77271	2.49132
3594.84414	2.53068
3592.91558	2.57161
3590.98701	2.61136
3589.05845	2.64983
3587.12988	2.69597
3585.20132	2.74540
3583.27275	2.78662
3581.34419	2.82523
3579.41562	2.86690
3577.48706	2.90921
3575.55850	2.95019
3573.62993	2.99308
3571.70137	3.03583
3569.77280	3.07704
3567.84424	3.12190
3565.91567	3.17525
3563.98711	3.22505
3562.05854	3.26596
3560.12998	3.30787
3558.20142	3.35343
3556.27285	3.39982
3554.34429	3.44442
3552.41572	3.48906
3550.48716	3.53386
3548.55859	3.57804
3546.63003	3.62430
3544.70146	3.67439
3542.77290	3.72251
3540.84434	3.76726
3538.91577	3.81357
3536.98721	3.85966
3535.05864	3.90568
3533.13008	3.95377
3531.20151	4.00439
3529.27295	4.05676
3527.34438	4.10850
3525.41582	4.15678
3523.48726	4.20555
3521.55869	4.25734
3519.63013	4.30556
3517.70156	4.35046
3515.77300	4.39661
3513.84443	4.44659
3511.91587	4.49717
3509.98730	4.54698
3508.05874	4.59773
3506.13018	4.64329
3504.20161	4.68632
3502.27305	4.73671
3500.34448	4.79191
3498.41592	4.84409
3496.48735	4.89356
3494.55879	4.94259
3492.63022	4.98945
3490.70166	5.03303
3488.77310	5.07897
3486.84453	5.13341
3484.91597	5.18849
3482.98740	5.23529
3481.05884	5.28417
3479.13027	5.33799
3477.20171	5.38733
3475.27314	5.43492
3473.34458	5.48359
3471.41602	5.52763
3469.48745	5.56510
3467.55889	5.60636
3465.63032	5.66193
3463.70176	5.72407
3461.77319	5.77890
3459.84463	5.83093
3457.91606	5.88404
3455.98750	5.93729
3454.05894	5.99069
3452.13037	6.03987
3450.20181	6.08785
3448.27324	6.13667
3446.34468	6.18949
3444.41611	6.25046
3442.48755	6.30898
3440.55898	6.34782
3438.63042	6.37716
3436.70186	6.42139
3434.77329	6.48980
3432.84473	6.56154
3430.91616	6.60949
3428.98760	6.64316
3427.05903	6.67734
3425.13047	6.72783
3423.20190	6.77738
3421.27334	6.81409
3419.34478	6.87462
3417.41621	6.96457
3415.48765	7.04095
3413.55908	7.06209
3411.63052	7.06255
3409.70195	7.10335
3407.77339	7.16522
3405.84482	7.19020
3403.91626	7.21579
3401.98770	7.28672
3400.05913	7.35332
3398.13057	7.36387
3396.20200	7.36443
3394.27344	7.41611
3392.34487	7.47111
3390.41631	7.49522
3388.48774	7.52562
3386.55918	7.61386
3384.63062	7.73686
3382.70205	7.79801
3380.77349	7.79484
3378.84492	7.81768
3376.91636	7.88045
3374.98779	7.91237
3373.05923	7.95253
3371.13066	8.00770
3369.20210	7.99623
3367.27354	7.95591
3365.34497	7.96553
3363.41641	7.99031
3361.48784	8.01208
3359.55928	8.04500
3357.63071	8.05477
3355.70215	8.09533
3353.77358	8.12990
3351.84502	8.11472
3349.91646	8.12630
3347.98789	8.15263
3346.05933	8.16057
3344.13076	8.16249
3342.20220	8.13561
3340.27363	8.08760
3338.34507	8.10705
3336.41650	8.16853
3334.48794	8.19500
3332.55937	8.19905
3330.63081	8.23579
3328.70225	8.31390
3326.77368	8.35518
3324.84512	8.32368
3322.91655	8.25867
3320.98799	8.19647
3319.05942	8.19156
3317.13086	8.28122
3315.20229	8.34034
3313.27373	8.31852
3311.34517	8.32547
3309.41660	8.38741
3307.48804	8.46387
3305.55947	8.46458
3303.63091	8.39569
3301.70234	8.35505
3299.77378	8.35395
3297.84521	8.32948
3295.91665	8.30203
3293.98809	8.30560
3292.05952	8.31676
3290.13096	8.33914
3288.20239	8.37591
3286.27383	8.40308
3284.34526	8.42028
3282.41670	8.45963
3280.48813	8.46136
3278.55957	8.41066
3276.63101	8.37844
3274.70244	8.36396
3272.77388	8.34762
3270.84531	8.35544
3268.91675	8.40768
3266.98818	8.42509
3265.05962	8.36326
3263.13105	8.29176
3261.20249	8.29873
3259.27393	8.39236
3257.34536	8.45617
3255.41680	8.44808
3253.48823	8.45370
3251.55967	8.47343
3249.63110	8.47196
3247.70254	8.49293
3245.77397	8.56793
3243.84541	8.62171
3241.91685	8.54522
3239.98828	8.39474
3238.05972	8.30323
3236.13115	8.31103
3234.20259	8.35042
3232.27402	8.36956
3230.34546	8.43831
3228.41689	8.53091
3226.48833	8.45896
3224.55977	8.25790
3222.63120	8.12677
3220.70264	8.10702
3218.77407	8.14794
3216.84551	8.22866
3214.91694	8.31748
3212.98838	8.30666
3211.05981	8.21971
3209.13125	8.16779
3207.20269	8.09851
3205.27412	7.99174
3203.34556	7.94323
3201.41699	7.93992
3199.48843	7.91052
3197.55986	7.88934
3195.63130	7.88805
3193.70273	7.86193
3191.77417	7.82360
3189.84561	7.79908
3187.91704	7.75935
3185.98848	7.68744
3184.05991	7.63330
3182.13135	7.59202
3180.20278	7.50862
3178.27422	7.41953
3176.34565	7.39137
3174.41709	7.38063
3172.48853	7.29704
3170.55996	7.15126
3168.63140	7.03332
3166.70283	6.99021
3164.77427	6.96991
3162.84570	6.91347
3160.91714	6.84398
3158.98857	6.78434
3157.06001	6.71694
3155.13145	6.65028
3153.20288	6.59440
3151.27432	6.53635
3149.34575	6.47458
3147.41719	6.41311
3145.48862	6.34927
3143.56006	6.27675
3141.63149	6.20629
3139.70293	6.14149
3137.77437	6.06282
3135.84580	5.97571
3133.91724	5.89819
3131.98867	5.82049
3130.06011	5.74039
3128.13154	5.66917
3126.20298	5.59726
3124.27441	5.51882
3122.34585	5.44168
3120.41729	5.36943
3118.48872	5.30362
3116.56016	5.23880
3114.63159	5.16521
3112.70303	5.09169
3110.77446	5.02884
3108.84590	4.96522
3106.91733	4.89287
3104.98877	4.81871
3103.06021	4.74980
3101.13164	4.68289
3099.20308	4.61170
3097.27451	4.53962
3095.34595	4.47150
3093.41738	4.40672
3091.48882	4.34334
3089.56025	4.28086
3087.63169	4.21753
3085.70312	4.15155
3083.77456	4.08500
3081.84600	4.02212
3079.91743	3.96249
3077.98887	3.90054
3076.06030	3.83640
3074.13174	3.77502
3072.20317	3.71617
3070.27461	3.65703
3068.34604	3.59706
3066.41748	3.53757
3064.48892	3.47944
3062.56035	3.42203
3060.63179	3.36669
3058.70322	3.31410
3056.77466	3.26095
3054.84609	3.20625
3052.91753	3.15219
3050.98896	3.09917
3049.06040	3.04694
3047.13184	2.99641
3045.20327	2.94657
3043.27471	2.89623
3041.34614	2.84672
3039.41758	2.79846
3037.48901	2.75103
3035.56045	2.70452
3033.63188	2.65845
3031.70332	2.61233
3029.77476	2.56689
3027.84619	2.52265
3025.91763	2.47863
3023.98906	2.43486
3022.06050	2.39235
3020.13193	2.35068
3018.20337	2.30975
3016.27480	2.26969
3014.34624	2.22967
3012.41768	2.18987
3010.48911	2.15093
3008.56055	2.11300
3006.63198	2.07627
3004.70342	2.04026
3002.77485	2.00442
3000.84629	1.96882
2998.91772	1.93390
2996.98916	1.89975
2995.06060	1.86594
2993.13203	1.83300
2991.20347	1.80155
2989.27490	1.77059
2987.34634	1.73920
2985.41777	1.70809
2983.48921	1.67801
2981.56064	1.64860
2979.63208	1.61968
2977.70352	1.59150
2975.77495	1.56354
2973.84639	1.53540
2971.91782	1.50770
2969.98926	1.48097
2968.06069	1.45522
2966.13213	1.42979
2964.20356	1.40393
2962.27500	1.37823
2960.34644	1.35315
2958.41787	1.32837
2956.48931	1.30371
2954.56074	1.27934
2952.63218	1.25569
2950.70361	1.23295
2948.77505	1.21067
2946.84648	1.18817
2944.91792	1.16569
2942.98936	1.14396
2941.06079	1.12304
2939.13223	1.10217
2937.20366	1.08094
2935.27510	1.05989
2933.34653	1.03963
2931.41797	1.01994
2929.48940	1.00058
2927.56084	0.98167
2925.63228	0.96297
2923.70371	0.94466
2921.77515	0.92720
2919.84658	0.91056
2917.91802	0.89424
2915.98945	0.87787
2914.06089	0.86216
2912.13232	0.84748
2910.20376	0.83313
2908.27520	0.81867
2906.34663	0.80445
2904.41807	0.79071
2902.48950	0.77725
2900.56094	0.76406
2898.63237	0.75111
2896.70381	0.73842
2894.77524	0.72607
2892.84668	0.71400
2890.91812	0.70221
2888.98955	0.69080
2887.06099	0.67958
2885.13242	0.66843
2883.20386	0.65769
2881.27529	0.64748
2879.34673	0.63730
2877.41816	0.62676
2875.48960	0.61605
2873.56104	0.60538
2871.63247	0.59480
2869.70391	0.58435
2867.77534	0.57401
2865.84678	0.56349
2863.91821	0.55264
2861.98965	0.54177
2860.06108	0.53141
2858.13252	0.52168
2856.20396	0.51228
2854.27539	0.50311
2852.34683	0.49425
2850.41826	0.48590
2848.48970	0.47821
2846.56113	0.47099
2844.63257	0.46419
2842.70400	0.45771
2840.77544	0.45147
2838.84687	0.44553
2836.91831	0.43982
2834.98975	0.43407
2833.06118	0.42808
2831.13262	0.42214
2829.20405	0.41654
2827.27549	0.41107
2825.34692	0.40530
2823.41836	0.39921
2821.48979	0.39319
2819.56123	0.38740
2817.63267	0.38162
2815.70410	0.37581
2813.77554	0.37026
2811.84697	0.36500
2809.91841	0.35982
2807.98984	0.35460
2806.06128	0.34929
2804.13271	0.34404
2802.20415	0.33901
2800.27559	0.33419
2798.34702	0.32954
2796.41846	0.32499
2794.48989	0.32042
2792.56133	0.31589
2790.63276	0.31148
2788.70420	0.30706
2786.77563	0.30257
2784.84707	0.29813
2782.91851	0.29396
2780.98994	0.29008
2779.06138	0.28628
2777.13281	0.28234
2775.20425	0.27832
2773.27568	0.27452
2771.34712	0.27100
2769.41855	0.26750
2767.48999	0.26398
2765.56143	0.26062
2763.63286	0.25744
2761.70430	0.25433
2759.77573	0.25124
2757.84717	0.24808
2755.91860	0.24488
2753.99004	0.24177
2752.06147	0.23884
2750.13291	0.23600
2748.20435	0.23316
2746.27578	0.23034
2744.34722	0.22760
2742.41865	0.22503
2740.49009	0.22260
2738.56152	0.22014
2736.63296	0.21766
2734.70439	0.21523
2732.77583	0.21283
2730.84727	0.21055
2728.91870	0.20845
2726.99014	0.20635
2725.06157	0.20411
2723.13301	0.20196
2721.20444	0.20004
2719.27588	0.19821
2717.34731	0.19641
2715.41875	0.19460
2713.49019	0.19269
2711.56162	0.19072
2709.63306	0.18880
2707.70449	0.18707
2705.77593	0.18554
2703.84736	0.18416
2701.91880	0.18270
2699.99023	0.18106
2698.06167	0.17943
2696.13311	0.17795
2694.20454	0.17656
2692.27598	0.17525
2690.34741	0.17406
2688.41885	0.17285
2686.49028	0.17148
2684.56172	0.17012
2682.63315	0.16887
2680.70459	0.16777
2678.77603	0.16681
2676.84746	0.16578
2674.91890	0.16453
2672.99033	0.16328
2671.06177	0.16229
2669.13320	0.16147
2667.20464	0.16061
2665.27607	0.15972
2663.34751	0.15888
2661.41895	0.15809
2659.49038	0.15730
2657.56182	0.15649
2655.63325	0.15570
2653.70469	0.15491
2651.77612	0.15419
2649.84756	0.15362
2647.91899	0.15311
2645.99043	0.15263
2644.06187	0.15210
2642.13330	0.15145
2640.20474	0.15095
2638.27617	0.15067
2636.34761	0.15035
2634.41904	0.14986
2632.49048	0.14934
2630.56191	0.14901
2628.63335	0.14883
2626.70479	0.14850
2624.77622	0.14802
2622.84766	0.14774
2620.91909	0.14766
2618.99053	0.14747
2617.06196	0.14713
2615.13340	0.14691
2613.20483	0.14690
2611.27627	0.14692
2609.34771	0.14687
2607.41914	0.14680
2605.49058	0.14669
2603.56201	0.14651
2601.63345	0.14648
2599.70488	0.14662
2597.77632	0.14673
2595.84775	0.14683
2593.91919	0.14699
2591.99062	0.14721
2590.06206	0.14748
2588.13350	0.14772
2586.20493	0.14788
2584.27637	0.14804
2582.34780	0.14822
2580.41924	0.14843
2578.49067	0.14872
2576.56211	0.14903
2574.63354	0.14936
2572.70498	0.14981
2570.77642	0.15036
2568.84785	0.15083
2566.91929	0.15117
2564.99072	0.15154
2563.06216	0.15202
2561.13359	0.15251
2559.20503	0.15290
2557.27646	0.15330
2555.34790	0.15382
2553.41934	0.15445
2551.49077	0.15513
2549.56221	0.15578
2547.63364	0.15639
2545.70508	0.15697
2543.77651	0.15761
2541.84795	0.15827
2539.91938	0.15887
2537.99082	0.15946
2536.06226	0.16018
2534.13369	0.16097
2532.20513	0.16171
2530.27656	0.16241
2528.34800	0.16312
2526.41943	0.16389
2524.49087	0.16475
2522.56230	0.16565
2520.63374	0.16647
2518.70518	0.16724
2516.77661	0.16804
2514.84805	0.16880
2512.91948	0.16951
2510.99092	0.17036
2509.06235	0.17131
2507.13379	0.17218
2505.20522	0.17300
2503.27666	0.17384
2501.34810	0.17461
2499.41953	0.17539
2497.49097	0.17635
2495.56240	0.17736
2493.63384	0.17831
2491.70527	0.17923
2489.77671	0.18006
2487.84814	0.18080
2485.91958	0.18165
2483.99102	0.18261
2482.06245	0.18361
2480.13389	0.18453
2478.20532	0.18540
2476.27676	0.18630
2474.34819	0.18722
2472.41963	0.18815
2470.49106	0.18911
2468.56250	0.19008
2466.63394	0.19101
2464.70537	0.19193
2462.77681	0.19291
2460.84824	0.19402
2458.91968	0.19518
2456.99111	0.19631
2455.06255	0.19731
2453.13398	0.19817
2451.20542	0.19901
2449.27686	0.19988
2447.34829	0.20078
2445.41973	0.20178
2443.49116	0.20296
2441.56260	0.20420
2439.63403	0.20538
2437.70547	0.20651
2435.77690	0.20755
2433.84834	0.20849
2431.91978	0.20941
2429.99121	0.21040
2428.06265	0.21148
2426.13408	0.21264
2424.20552	0.21386
2422.27695	0.21513
2420.34839	0.21632
2418.41982	0.21734
2416.49126	0.21840
2414.56270	0.21965
2412.63413	0.22090
2410.70557	0.22209
2408.77700	0.22332
2406.84844	0.22456
2404.91987	0.22584
2402.99131	0.22712
2401.06274	0.22829
2399.13418	0.22938
2397.20562	0.23054
2395.27705	0.23182
2393.34849	0.23310
2391.41992	0.23433
2389.49136	0.23550
2387.56279	0.23655
2385.63423	0.23738
2383.70566	0.23779
2381.77710	0.23760
2379.84854	0.23693
2377.91997	0.23590
2375.99141	0.23434
2374.06284	0.23233
2372.13428	0.22994
2370.20571	0.22698
2368.27715	0.22377
2366.34858	0.22139
2364.42002	0.22014
2362.49146	0.21892
2360.56289	0.21828
2358.63433	0.21981
2356.70576	0.22349
2354.77720	0.22966
2352.84863	0.23765
2350.92007	0.24459
2348.99150	0.24824
2347.06294	0.24846
2345.13437	0.24636
2343.20581	0.24431
2341.27725	0.24458
2339.34868	0.24681
2337.42012	0.24952
2335.49155	0.25191
2333.56299	0.25409
2331.63442	0.25629
2329.70586	0.25855
2327.77729	0.26109
2325.84873	0.26443
2323.92017	0.26840
2321.99160	0.27215
2320.06304	0.27572
2318.13447	0.27967
2316.20591	0.28347
2314.27734	0.28658
2312.34878	0.28920
2310.42021	0.29171
2308.49165	0.29432
2306.56309	0.29710
2304.63452	0.29988
2302.70596	0.30236
2300.77739	0.30472
2298.84883	0.30727
2296.92026	0.30990
2294.99170	0.31234
2293.06313	0.31461
2291.13457	0.31696
2289.20601	0.31947
2287.27744	0.32190
2285.34888	0.32414
2283.42031	0.32623
2281.49175	0.32821
2279.56318	0.33012
2277.63462	0.33213
2275.70605	0.33431
2273.77749	0.33645
2271.84893	0.33850
2269.92036	0.34057
2267.99180	0.34266
2266.06323	0.34480
2264.13467	0.34710
2262.20610	0.34952
2260.27754	0.35187
2258.34897	0.35411
2256.42041	0.35634
2254.49185	0.35862
2252.56328	0.36091
2250.63472	0.36318
2248.70615	0.36549
2246.77759	0.36781
2244.84902	0.37010
2242.92046	0.37235
2240.99189	0.37467
2239.06333	0.37704
2237.13477	0.37938
2235.20620	0.38163
2233.27764	0.38384
2231.34907	0.38612
2229.42051	0.38841
2227.49194	0.39062
2225.56338	0.39283
2223.63481	0.39514
2221.70625	0.39754
2219.77769	0.39991
2217.84912	0.40214
2215.92056	0.40427
2213.99199	0.40639
2212.06343	0.40858
2210.13486	0.41076
2208.20630	0.41287
2206.27773	0.41504
2204.34917	0.41726
2202.42061	0.41943
2200.49204	0.42153
2198.56348	0.42359
2196.63491	0.42560
2194.70635	0.42758
2192.77778	0.42953
2190.84922	0.43144
2188.92065	0.43325
2186.99209	0.43504
2185.06353	0.43692
2183.13496	0.43882
2181.20640	0.44063
2179.27783	0.44230
2177.34927	0.44384
2175.42070	0.44529
2173.49214	0.44673
2171.56357	0.44817
2169.63501	0.44954
2167.70645	0.45090
2165.77788	0.45228
2163.84932	0.45357
2161.92075	0.45479
2159.99219	0.45604
2158.06362	0.45715
2156.13506	0.45804
2154.20649	0.45884
2152.27793	0.45960
2150.34937	0.46036
2148.42080	0.46114
2146.49224	0.46182
2144.56367	0.46229
2142.63511	0.46268
2140.70654	0.46313
2138.77798	0.46352
2136.84941	0.46370
2134.92085	0.46374
2132.99229	0.46372
2131.06372	0.46367
2129.13516	0.46354
2127.20659	0.46331
2125.27803	0.46307
2123.34946	0.46274
2121.42090	0.46223
2119.49233	0.46166
2117.56377	0.46124
2115.63521	0.46076
2113.70664	0.45990
2111.77808	0.45881
2109.84951	0.45780
2107.92095	0.45677
2105.99238	0.45568
2104.06382	0.45464
2102.13525	0.45351
2100.20669	0.45219
2098.27812	0.45072
2096.34956	0.44915
2094.42100	0.44758
2092.49243	0.44603
2090.56387	0.44446
2088.63530	0.44268
2086.70674	0.44066
2084.77817	0.43859
2082.84961	0.43665
2080.92104	0.43473
2078.99248	0.43274
2077.06392	0.43064
2075.13535	0.42852
2073.20679	0.42639
2071.27822	0.42422
2069.34966	0.42193
2067.42109	0.41966
2065.49253	0.41749
2063.56396	0.41516
2061.63540	0.41261
2059.70684	0.41001
2057.77827	0.40743
2055.84971	0.40489
2053.92114	0.40230
2051.99258	0.39965
2050.06401	0.39698
2048.13545	0.39434
2046.20688	0.39169
2044.27832	0.38905
2042.34976	0.38638
2040.42119	0.38357
2038.49263	0.38070
2036.56406	0.37789
2034.63550	0.37512
2032.70693	0.37236
2030.77837	0.36963
2028.84980	0.36682
2026.92124	0.36398
2024.99268	0.36115
2023.06411	0.35839
2021.13555	0.35574
2019.20698	0.35318
2017.27842	0.35055
2015.34985	0.34763
2013.42129	0.34463
2011.49272	0.34178
2009.56416	0.33901
2007.63560	0.33618
2005.70703	0.33338
2003.77847	0.33071
2001.84990	0.32808
1999.92134	0.32543
1997.99277	0.32280
1996.06421	0.32028
1994.13564	0.31792
1992.20708	0.31560
1990.27852	0.31299
1988.34995	0.31024
1986.42139	0.30758
1984.49282	0.30502
1982.56426	0.30254
1980.63569	0.30017
1978.70713	0.29788
1976.77856	0.29562
1974.85000	0.29346
1972.92144	0.29131
1970.99287	0.28913
1969.06431	0.28715
1967.13574	0.28535
1965.20718	0.28321
1963.27861	0.28087
1961.35005	0.27881
1959.42148	0.27694
1957.49292	0.27506
1955.56436	0.27321
1953.63579	0.27143
1951.70723	0.26963
1949.77866	0.26787
1947.85010	0.26634
1945.92153	0.26507
1943.99297	0.26394
1942.06440	0.26257
1940.13584	0.26068
1938.20728	0.25880
1936.27871	0.25737
1934.35015	0.25611
1932.42158	0.25483
1930.49302	0.25353
1928.56445	0.25229
1926.63589	0.25121
1924.70732	0.25053
1922.77876	0.24999
1920.85020	0.24914
1918.92163	0.24827
1916.99307	0.24733
1915.06450	0.24603
1913.13594	0.24492
1911.20737	0.24431
1909.27881	0.24378
1907.35024	0.24301
1905.42168	0.24215
1903.49312	0.24143
1901.56455	0.24084
1899.63599	0.24027
1897.70742	0.23982
1895.77886	0.23961
1893.85029	0.23942
1891.92173	0.23917
1889.99316	0.23924
1888.06460	0.23910
1886.13604	0.23844
1884.20747	0.23784
1882.27891	0.23749
1880.35034	0.23732
1878.42178	0.23727
1876.49321	0.23732
1874.56465	0.23740
1872.63608	0.23769
1870.70752	0.23853
1868.77896	0.23982
1866.85039	0.24005
1864.92183	0.23911
1862.99326	0.23856
1861.06470	0.23876
1859.13613	0.23922
1857.20757	0.23952
1855.27900	0.23982
1853.35044	0.24021
1851.42187	0.24083
1849.49331	0.24175
1847.56475	0.24290
1845.63618	0.24427
1843.70762	0.24554
1841.77905	0.24582
1839.85049	0.24570
1837.92192	0.24637
1835.99336	0.24740
1834.06479	0.24831
1832.13623	0.24954
1830.20767	0.25154
1828.27910	0.25324
1826.35054	0.25413
1824.42197	0.25522
1822.49341	0.25608
1820.56484	0.25690
1818.63628	0.25822
1816.70771	0.25995
1814.77915	0.26168
1812.85059	0.26366
1810.92202	0.26605
1808.99346	0.26818
1807.06489	0.26994
1805.13633	0.27177
1803.20776	0.27413
1801.27920	0.27697
1799.35063	0.27994
1797.42207	0.28250
1795.49351	0.28512
1793.56494	0.28851
1791.63638	0.29246
1789.70781	0.29533
1787.77925	0.29726
1785.85068	0.30020
1783.92212	0.30406
1781.99355	0.30829
1780.06499	0.31267
1778.13643	0.31688
1776.20786	0.32104
1774.27930	0.32608
1772.35073	0.33273
1770.42217	0.33891
1768.49360	0.34352
1766.56504	0.34818
1764.63647	0.35341
1762.70791	0.35968
1760.77935	0.36749
1758.85078	0.37458
1756.92222	0.38162
1754.99365	0.38920
1753.06509	0.39644
1751.13652	0.40570
1749.20796	0.41712
1747.27939	0.42748
1745.35083	0.43615
1743.42227	0.44539
1741.49370	0.45585
1739.56514	0.46826
1737.63657	0.48070
1735.70801	0.49215
1733.77944	0.50939
1731.85088	0.52880
1729.92231	0.54362
1727.99375	0.55886
1726.06519	0.57564
1724.13662	0.59445
1722.20806	0.61495
1720.27949	0.63434
1718.35093	0.65758
1716.42236	0.69042
1714.49380	0.72010
1712.56523	0.74390
1710.63667	0.76753
1708.70811	0.79354
1706.77954	0.82346
1704.85098	0.85882
1702.92241	0.89037
1700.99385	0.92202
1699.06528	0.96847
1697.13672	1.01040
1695.20815	1.05208
1693.27959	1.09284
1691.35103	1.12647
1689.42246	1.16567
1687.49390	1.20708
1685.56533	1.24761
1683.63677	1.30882
1681.70820	1.37112
1679.77964	1.41102
1677.85107	1.44910
1675.92251	1.49351
1673.99395	1.54852
1672.06538	1.59783
1670.13682	1.64560
1668.20825	1.70573
1666.27969	1.75516
1664.35112	1.79810
1662.42256	1.85100
1660.49399	1.91006
1658.56543	1.95773
1656.63687	1.99727
1654.70830	2.03449
1652.77974	2.09135
1650.85117	2.14280
1648.92261	2.16355
1646.99404	2.19390
1645.06548	2.22553
1643.13691	2.24274
1641.20835	2.25287
1639.27979	2.26370
1637.35122	2.27152
1635.42266	2.27358
1633.49409	2.26781
1631.56553	2.25523
1629.63696	2.24030
1627.70840	2.21504
1625.77983	2.18447
1623.85127	2.14657
1621.92271	2.09985
1619.99414	2.05619
1618.06558	2.01285
1616.13701	1.95166
1614.20845	1.88786
1612.27988	1.83863
1610.35132	1.78860
1608.42275	1.73504
1606.49419	1.68155
1604.56562	1.63151
1602.63706	1.58327
1600.70850	1.53640
1598.77993	1.49316
1596.85137	1.45230
1594.92280	1.41243
1592.99424	1.37370
1591.06567	1.33786
1589.13711	1.30400
1587.20854	1.27238
1585.27998	1.24327
1583.35142	1.21616
1581.42285	1.19108
1579.49429	1.16932
1577.56572	1.15005
1575.63716	1.12676
1573.70859	1.10511
1571.78003	1.09051
1569.85146	1.07577
1567.92290	1.05895
1565.99434	1.04544
1564.06577	1.03471
1562.13721	1.02652
1560.20864	1.02166
1558.28008	1.01522
1556.35151	1.00639
1554.42295	0.99951
1552.49438	0.99318
1550.56582	0.98666
1548.63726	0.97910
1546.70869	0.97124
1544.78013	0.96312
1542.85156	0.95391
1540.92300	0.94145
1538.99443	0.92077
1537.06587	0.90320
1535.13730	0.89155
1533.20874	0.87790
1531.28018	0.86291
1529.35161	0.85185
1527.42305	0.84247
1525.49448	0.83292
1523.56592	0.82442
1521.63735	0.81625
1519.70879	0.80698
1517.78022	0.79863
1515.85166	0.78981
1513.92310	0.78066
1511.99453	0.77304
1510.06597	0.76707
1508.13740	0.76237
1506.20884	0.75345
1504.28027	0.74249
1502.35171	0.73587
1500.42314	0.73134
1498.49458	0.72739
1496.56602	0.72242
1494.63745	0.71649
1492.70889	0.71202
1490.78032	0.70929
1488.85176	0.70615
1486.92319	0.70152
1484.99463	0.69716
1483.06606	0.69412
1481.13750	0.69187
1479.20894	0.68996
1477.28037	0.68879
1475.35181	0.68846
1473.42324	0.68824
1471.49468	0.68616
1469.56611	0.68252
1467.63755	0.67957
1465.70898	0.67754
1463.78042	0.67557
1461.85186	0.67394
1459.92329	0.67369
1457.99473	0.67445
1456.06616	0.67306
1454.13760	0.66894
1452.20903	0.66540
1450.28047	0.66276
1448.35190	0.66051
1446.42334	0.65780
1444.49478	0.65496
1442.56621	0.65270
1440.63765	0.65092
1438.70908	0.64951
1436.78052	0.64798
1434.85195	0.64554
1432.92339	0.64307
1430.99482	0.64151
1429.06626	0.64038
1427.13770	0.63928
1425.20913	0.63868
1423.28057	0.63845
1421.35200	0.63826
1419.42344	0.63834
1417.49487	0.63756
1415.56631	0.63530
1413.63774	0.63326
1411.70918	0.63204
1409.78062	0.63134
1407.85205	0.63102
1405.92349	0.63111
1403.99492	0.63096
1402.06636	0.63011
1400.13779	0.62913
1398.20923	0.62801
1396.28066	0.62635
1394.35210	0.62369
1392.42354	0.62013
1390.49497	0.61702
1388.56641	0.61467
1386.63784	0.61205
1384.70928	0.60870
1382.78071	0.60547
1380.85215	0.60274
1378.92358	0.60055
1376.99502	0.59910
1375.06646	0.59830
1373.13789	0.59735
1371.20933	0.59618
1369.28076	0.59539
1367.35220	0.59467
1365.42363	0.59376
1363.49507	0.59299
1361.56650	0.59195
1359.63794	0.59035
1357.70937	0.58881
1355.78081	0.58760
1353.85225	0.58658
1351.92368	0.58564
1349.99512	0.58469
1348.06655	0.58364
1346.13799	0.58269
1344.20942	0.58195
1342.28086	0.58145
1340.35229	0.58115
1338.42373	0.58048
1336.49517	0.57915
1334.56660	0.57778
1332.63804	0.57683
1330.70947	0.57628
1328.78091	0.57608
1326.85234	0.57606
1324.92378	0.57595
1322.99521	0.57584
1321.06665	0.57597
1319.13809	0.57612
1317.20952	0.57599
1315.28096	0.57558
1313.35239	0.57495
1311.42383	0.57409
1309.49526	0.57314
1307.56670	0.57219
1305.63813	0.57131
1303.70957	0.57061
1301.78101	0.56992
1299.85244	0.56901
1297.92388	0.56802
1295.99531	0.56703
1294.06675	0.56593
1292.13818	0.56479
1290.20962	0.56378
1288.28105	0.56293
1286.35249	0.56215
1284.42393	0.56131
1282.49536	0.56039
1280.56680	0.55948
1278.63823	0.55856
1276.70967	0.55766
1274.78110	0.55685
1272.85254	0.55610
1270.92397	0.55538
1268.99541	0.55475
1267.06685	0.55423
1265.13828	0.55373
1263.20972	0.55321
1261.28115	0.55268
1259.35259	0.55222
1257.42402	0.55188
1255.49546	0.55161
1253.56689	0.55144
1251.63833	0.55140
1249.70977	0.55127
1247.78120	0.55097
1245.85264	0.55068
1243.92407	0.55042
1241.99551	0.55001
1240.06694	0.54927
1238.13838	0.54817
1236.20981	0.54684
1234.28125	0.54546
1232.35269	0.54415
1230.42412	0.54283
1228.49556	0.54149
1226.56699	0.54027
1224.63843	0.53919
1222.70986	0.53814
1220.78130	0.53709
1218.85273	0.53593
1216.92417	0.53472
1214.99561	0.53374
1213.06704	0.53301
1211.13848	0.53238
1209.20991	0.53187
1207.28135	0.53142
1205.35278	0.53088
1203.42422	0.53020
1201.49565	0.52939
1199.56709	0.52854
1197.63853	0.52778
1195.70996	0.52709
1193.78140	0.52652
1191.85283	0.52616
1189.92427	0.52587
1187.99570	0.52557
1186.06714	0.52534
1184.13857	0.52520
1182.21001	0.52530
1180.28145	0.52583
1178.35288	0.52662
1176.42432	0.52755
1174.49575	0.52853
1172.56719	0.52932
1170.63862	0.52982
1168.71006	0.53020
1166.78149	0.53058
1164.85293	0.53095
1162.92437	0.53130
1160.99580	0.53149
1159.06724	0.53131
1157.13867	0.53085
1155.21011	0.53019
1153.28154	0.52920
1151.35298	0.52778
1149.42441	0.52584
1147.49585	0.52335
1145.56729	0.52053
1143.63872	0.51784
1141.71016	0.51536
1139.78159	0.51303
1137.85303	0.51118
1135.92446	0.50983
1133.99590	0.50859
1132.06733	0.50744
1130.13877	0.50660
1128.21021	0.50585
1126.28164	0.50502
1124.35308	0.50426
1122.42451	0.50373
1120.49595	0.50335
1118.56738	0.50296
1116.63882	0.50281
1114.71025	0.50309
1112.78169	0.50356
1110.85312	0.50414
1108.92456	0.50504
1106.99600	0.50620
1105.06743	0.50741
1103.13887	0.50862
1101.21030	0.50995
1099.28174	0.51157
1097.35317	0.51366
1095.42461	0.51647
1093.49604	0.52034
1091.56748	0.52532
1089.63892	0.53126
1087.71035	0.53819
1085.78179	0.54617
1083.85322	0.55449
1081.92466	0.56203
1079.99609	0.56791
1078.06753	0.57126
1076.13896	0.57135
1074.21040	0.56816
1072.28184	0.56256
1070.35327	0.55565
1068.42471	0.54822
1066.49614	0.54110
1064.56758	0.53468
1062.63901	0.52885
1060.71045	0.52355
1058.78188	0.51901
1056.85332	0.51526
1054.92476	0.51193
1052.99619	0.50897
1051.06763	0.50655
1049.13906	0.50485
1047.21050	0.50385
1045.28193	0.50314
1043.35337	0.50254
1041.42480	0.50241
1039.49624	0.50257
1037.56768	0.50254
1035.63911	0.50221
1033.71055	0.50169
1031.78198	0.50091
1029.85342	0.49976
1027.92485	0.49853
1025.99629	0.49750
1024.06772	0.49684
1022.13916	0.49662
1020.21060	0.49667
1018.28203	0.49688
1016.35347	0.49714
1014.42490	0.49739
1012.49634	0.49765
1010.56777	0.49803
1008.63921	0.49865
1006.71064	0.49955
1004.78208	0.50083
1002.85352	0.50280
1000.92495	0.50548
998.99639	0.50885
997.06782	0.51291
995.13926	0.51732
993.21069	0.52149
991.28213	0.52495
989.35356	0.52739
987.42500	0.52870
985.49644	0.52911
983.56787	0.52924
981.63931	0.52967
979.71074	0.53064
977.78218	0.53216
975.85361	0.53420
973.92505	0.53677
971.99648	0.53990
970.06792	0.54339
968.13936	0.54707
966.21079	0.55113
964.28223	0.55570
962.35366	0.56067
960.42510	0.56591
958.49653	0.57136
956.56797	0.57703
954.63940	0.58316
952.71084	0.58985
950.78228	0.59654
948.85371	0.60276
946.92515	0.60891
944.99658	0.61529
943.06802	0.62171
941.13945	0.62816
939.21089	0.63452
937.28232	0.64065
935.35376	0.64645
933.42520	0.65170
931.49663	0.65664
929.56807	0.66206
927.63950	0.66815
925.71094	0.67424
923.78237	0.68028
921.85381	0.68694
919.92524	0.69396
917.99668	0.70057
916.06812	0.70700
914.13955	0.71413
912.21099	0.72213
910.28242	0.73041
908.35386	0.73888
906.42529	0.74781
904.49673	0.75680
902.56816	0.76578
900.63960	0.77515
898.71104	0.78452
896.78247	0.79370
894.85391	0.80348
892.92534	0.81337
890.99678	0.82278
889.06821	0.83347
887.13965	0.84549
885.21108	0.85663
883.28252	0.86748
881.35396	0.87968
879.42539	0.89275
877.49683	0.90553
875.56826	0.91764
873.63970	0.92958
871.71113	0.94191
869.78257	0.95403
867.85400	0.96569
865.92544	0.97703
863.99687	0.98760
862.06831	0.99750
860.13975	1.00808
858.21118	1.02057
856.28262	1.03308
854.35405	1.04389
852.42549	1.05460
850.49692	1.06658
848.56836	1.07892
846.63979	1.09115
844.71123	1.10443
842.78267	1.11755
840.85410	1.12902
838.92554	1.14012
836.99697	1.15229
835.06841	1.16488
833.13984	1.17733
831.21128	1.18884
829.28271	1.19571
827.35415	1.20141
825.42559	1.21294
823.49702	1.23088
821.56846	1.25098
819.63989	1.26443
817.71133	1.27273
815.78276	1.28624
813.85420	1.30308
811.92563	1.31328
809.99707	1.31390
808.06851	1.31800
806.13994	1.34135
804.21138	1.37801
802.28281	1.40551
800.35425	1.41540
798.42568	1.42272
796.49712	1.43423
794.56855	1.44876
792.63999	1.45857
790.71143	1.45566
788.78286	1.47134
786.85430	1.51864
784.92573	1.58567
782.99717	1.65762
781.06860	1.57881
779.14004	1.40263
777.21147	1.33578
775.28291	1.36229
773.35435	1.39177
771.42578	1.45219
769.49722	1.57506
767.56865	1.62664
765.64009	1.50065
763.71152	1.36532
761.78296	1.33612
759.85439	1.37135
757.92583	1.38149
755.99727	1.47161
754.06870	1.67218
752.14014	1.42423
750.21157	1.16887
748.28301	1.11580
746.35444	1.14963
744.42588	1.09886
742.49731	0.98092
740.56875	0.90213
738.64019	0.85887
736.71162	0.79869
734.78306	0.70406
732.85449	0.62324
730.92593	0.62094
728.99736	0.66037
727.06880	0.59395
725.14023	0.49315
723.21167	0.34636
721.28311	0.14190
719.35454	0.01111
717.42598	-0.00079
715.49741	0.03263
713.56885	0.04939
711.64028	0.08409
709.71172	0.19832
707.78315	0.33276
705.85459	0.35902
703.92603	0.29649
701.99746	0.24861
700.06890	0.23503
698.14033	0.25799
696.21177	0.30181
694.28320	0.34590
692.35464	0.40095
690.42607	0.45173
688.49751	0.42927
686.56895	0.35614
684.64038	0.28594
682.71182	0.24614
680.78325	0.25412
678.85469	0.29396
676.92612	0.33346
674.99756	0.36254
673.06899	0.43740
671.14043	0.52377
669.21187	0.47027
667.28330	0.34697
665.35474	0.25751
663.42617	0.22963
661.49761	0.27575
659.56904	0.39676
657.64048	0.44954
655.71191	0.33825
653.78335	0.24340
651.85479	0.24477
649.92622	0.30363
647.99766	0.31539
646.06909	0.36103
644.14053	0.40616
642.21196	0.30075
640.28340	0.22190
638.35483	0.24840
636.42627	0.28138
634.49771	0.26118
632.56914	0.27229
630.64058	0.31535
628.71201	0.31444
626.78345	0.30389
624.85488	0.34754
622.92632	0.37733
620.99775	0.33650
619.06919	0.32182
617.14062	0.31032
615.21206	0.25982
613.28350	0.23477
611.35493	0.23129
609.42637	0.19611
607.49780	0.17030
605.56924	0.21275
603.64067	0.23488
601.71211	0.19755
599.78354	0.18800
597.85498	0.24489
595.92642	0.29540
593.99785	0.29970
592.06929	0.30583
590.14072	0.32776
588.21216	0.32455
586.28359	0.30321
584.35503	0.27718
582.42646	0.21866
580.49790	0.19508
578.56934	0.25592
576.64077	0.34587
574.71221	0.35055
572.78364	0.25432
570.85508	0.19997
568.92651	0.24214
566.99795	0.33652
565.06938	0.38267
563.14082	0.35538
561.21226	0.29399
559.28369	0.25963
557.35513	0.26194
555.42656	0.24953
553.49800	0.22234
551.56943	0.21694
549.64087	0.24783
547.71230	0.31819
545.78374	0.39299
543.85518	0.42986
541.92661	0.40848
539.99805	0.31616
538.06948	0.29315
536.14092	0.37393
534.21235	0.44239
532.28379	0.41298
530.35522	0.35413
528.42666	0.30340
526.49810	0.25539
524.56953	0.21902
522.64097	0.22088
520.71240	0.24694
518.78384	0.24677
516.85527	0.21612
514.92671	0.20451
512.99814	0.20458
511.06958	0.21129
509.14102	0.25276
507.21245	0.27893
505.28389	0.27551
503.35532	0.27022
501.42676	0.22073
499.49819	0.16256
