3997.91411	0.07562
3995.98555	0.07635
3994.05698	0.07685
3992.12842	0.07705
3990.19985	0.07716
3988.27129	0.07723
3986.34272	0.07697
3984.41416	0.07687
3982.48560	0.07732
3980.55703	0.07784
3978.62847	0.07833
3976.69990	0.07884
3974.77134	0.07908
3972.84277	0.07911
3970.91421	0.07920
3968.98564	0.07940
3967.05708	0.07945
3965.12852	0.07917
3963.19995	0.07905
3961.27139	0.07930
3959.34282	0.07932
3957.41426	0.07899
3955.48569	0.07884
3953.55713	0.07903
3951.62856	0.07944
3949.70000	0.08002
3947.77144	0.08030
3945.84287	0.07990
3943.91431	0.07970
3941.98574	0.08024
3940.05718	0.08047
3938.12861	0.07984
3936.20005	0.07906
3934.27148	0.07908
3932.34292	0.08030
3930.41436	0.08152
3928.48579	0.08117
3926.55723	0.08009
3924.62866	0.07974
3922.70010	0.08003
3920.77153	0.08010
3918.84297	0.08009
3916.91440	0.08057
3914.98584	0.08098
3913.05728	0.08053
3911.12871	0.07989
3909.20015	0.07966
3907.27158	0.07977
3905.34302	0.08057
3903.41445	0.08232
3901.48589	0.08348
3899.55732	0.08299
3897.62876	0.08155
3895.70020	0.08018
3893.77163	0.07975
3891.84307	0.08016
3889.91450	0.08034
3887.98594	0.07994
3886.05737	0.08021
3884.12881	0.08121
3882.20024	0.08159
3880.27168	0.08154
3878.34312	0.08093
3876.41455	0.07991
3874.48599	0.08031
3872.55742	0.08206
3870.62886	0.08353
3868.70029	0.08425
3866.77173	0.08404
3864.84316	0.08420
3862.91460	0.08501
3860.98604	0.08450
3859.05747	0.08301
3857.12891	0.08281
3855.20034	0.08508
3853.27178	0.08954
3851.34321	0.09082
3849.41465	0.08746
3847.48608	0.08533
3845.55752	0.08541
3843.62896	0.08700
3841.70039	0.08948
3839.77183	0.09213
3837.84326	0.09417
3835.91470	0.09424
3833.98613	0.09292
3832.05757	0.09192
3830.12900	0.09134
3828.20044	0.09111
3826.27187	0.09166
3824.34331	0.09285
3822.41475	0.09497
3820.48618	0.09849
3818.55762	0.10032
3816.62905	0.09984
3814.70049	0.09910
3812.77192	0.09824
3810.84336	0.09810
3808.91479	0.09930
3806.98623	0.10174
3805.05767	0.10407
3803.12910	0.10556
3801.20054	0.10756
3799.27197	0.10852
3797.34341	0.10792
3795.41484	0.10814
3793.48628	0.10877
3791.55771	0.10922
3789.62915	0.10994
3787.70059	0.11121
3785.77202	0.11321
3783.84346	0.11536
3781.91489	0.11679
3779.98633	0.11804
3778.05776	0.11964
3776.12920	0.12060
3774.20063	0.12129
3772.27207	0.12290
3770.34351	0.12575
3768.41494	0.12898
3766.48638	0.13122
3764.55781	0.13262
3762.62925	0.13344
3760.70068	0.13487
3758.77212	0.13795
3756.84355	0.14105
3754.91499	0.14313
3752.98643	0.14613
3751.05786	0.15169
3749.12930	0.15757
3747.20073	0.15998
3745.27217	0.16162
3743.34360	0.16465
3741.41504	0.16727
3739.48647	0.16964
3737.55791	0.17352
3735.62935	0.17987
3733.70078	0.18746
3731.77222	0.19201
3729.84365	0.19393
3727.91509	0.19643
3725.98652	0.20106
3724.05796	0.20709
3722.12939	0.21336
3720.20083	0.21974
3718.27227	0.22584
3716.34370	0.23212
3714.41514	0.23932
3712.48657	0.24912
3710.55801	0.26346
3708.62944	0.27774
3706.70088	0.28832
3704.77231	0.29862
3702.84375	0.31110
3700.91519	0.32715
3698.98662	0.34476
3697.05806	0.36174
3695.12949	0.37958
3693.20093	0.39832
3691.27236	0.41935
3689.34380	0.44724
3687.41523	0.48039
3685.48667	0.50841
3683.55811	0.53291
3681.62954	0.56015
3679.70098	0.59117
3677.77241	0.62386
3675.84385	0.66304
3673.91528	0.71545
3671.98672	0.75808
3670.05815	0.79602
3668.12959	0.84696
3666.20103	0.89243
3664.27246	0.93065
3662.34390	0.97271
3660.41533	1.01886
3658.48677	1.06485
3656.55820	1.11410
3654.62964	1.16849
3652.70107	1.21404
3650.77251	1.25428
3648.84395	1.30947
3646.91538	1.37576
3644.98682	1.42412
3643.05825	1.46119
3641.12969	1.49954
3639.20112	1.54268
3637.27256	1.58659
3635.34399	1.62946
3633.41543	1.67251
3631.48687	1.71274
3629.55830	1.75377
3627.62974	1.80842
3625.70117	1.85894
3623.77261	1.89208
3621.84404	1.92423
3619.91548	1.96259
3617.98691	2.00812
3616.05835	2.05020
3614.12979	2.08643
3612.20122	2.12576
3610.27266	2.16460
3608.34409	2.20346
3606.41553	2.24536
3604.48696	2.28464
3602.55840	2.32012
3600.62983	2.35769
3598.70127	2.39785
3596.77271	2.43785
3594.84414	2.47945
3592.91558	2.52234
3590.98701	2.56201
3589.05845	2.59869
3587.12988	2.64244
3585.20132	2.69071
3583.27275	2.73066
3581.34419	2.76706
3579.41562	2.80689
3577.48706	2.84952
3575.55850	2.89402
3573.62993	2.94041
3571.70137	2.98338
3569.77280	3.02350
3567.84424	3.06866
3565.91567	3.12204
3563.98711	3.17069
3562.05854	3.21298
3560.12998	3.25694
3558.20142	3.30144
3556.27285	3.34457
3554.34429	3.38692
3552.41572	3.43222
3550.48716	3.47952
3548.55859	3.52485
3546.63003	3.56986
3544.70146	3.61939
3542.77290	3.67150
3540.84434	3.72061
3538.91577	3.76647
3536.98721	3.81018
3535.05864	3.85457
3533.13008	3.90284
3531.20151	3.95550
3529.27295	4.00699
3527.34438	4.05628
3525.41582	4.10581
3523.48726	4.15299
3521.55869	4.19854
3519.63013	4.24488
3517.70156	4.29128
3515.77300	4.33701
3513.84443	4.38444
3511.91587	4.43381
3509.98730	4.48623
3508.05874	4.53950
3506.13018	4.58702
3504.20161	4.63296
3502.27305	4.68113
3500.34448	4.72767
3498.41592	4.77419
3496.48735	4.82163
3494.55879	4.86763
3492.63022	4.91579
3490.70166	4.96473
3488.77310	5.01039
3486.84453	5.05862
3484.91597	5.11662
3482.98740	5.18112
3481.05884	5.24017
3479.13027	5.28621
3477.20171	5.32704
3475.27314	5.37364
3473.34458	5.42465
3471.41602	5.47201
3469.48745	5.51302
3467.55889	5.54981
3465.63032	5.58871
3463.70176	5.63785
3461.77319	5.69524
3459.84463	5.75209
3457.91606	5.80244
3455.98750	5.85682
3454.05894	5.92417
3452.13037	5.99046
3450.20181	6.04302
3448.27324	6.07919
3446.34468	6.11433
3444.41611	6.17224
3442.48755	6.24352
3440.55898	6.30413
3438.63042	6.34989
3436.70186	6.38015
3434.77329	6.41217
3432.84473	6.45988
3430.91616	6.50623
3428.98760	6.54931
3427.05903	6.60466
3425.13047	6.68347
3423.20190	6.75897
3421.27334	6.80102
3419.34478	6.83012
3417.41621	6.88811
3415.48765	6.96705
3413.55908	7.01132
3411.63052	7.02161
3409.70195	7.03499
3407.77339	7.06922
3405.84482	7.12595
3403.91626	7.19249
3401.98770	7.23532
3400.05913	7.25908
3398.13057	7.30658
3396.20200	7.37419
3394.27344	7.41152
3392.34487	7.40909
3390.41631	7.43843
3388.48774	7.50888
3386.55918	7.58261
3384.63062	7.64603
3382.70205	7.69810
3380.77349	7.73433
3378.84492	7.75845
3376.91636	7.78161
3374.98779	7.77245
3373.05923	7.78117
3371.13066	7.86795
3369.20210	7.95481
3367.27354	7.95471
3365.34497	7.94639
3363.41641	7.97124
3361.48784	7.97271
3359.55928	7.98968
3357.63071	8.07007
3355.70215	8.19571
3353.77358	8.26886
3351.84502	8.24709
3349.91646	8.19523
3347.98789	8.15412
3346.05933	8.12286
3344.13076	8.09945
3342.20220	8.09507
3340.27363	8.09801
3338.34507	8.13537
3336.41650	8.19508
3334.48794	8.20952
3332.55937	8.18144
3330.63081	8.18209
3328.70225	8.23228
3326.77368	8.25142
3324.84512	8.24870
3322.91655	8.32241
3320.98799	8.40803
3319.05942	8.40126
3317.13086	8.34699
3315.20229	8.30995
3313.27373	8.34521
3311.34517	8.35768
3309.41660	8.29753
3307.48804	8.26306
3305.55947	8.24606
3303.63091	8.27962
3301.70234	8.36176
3299.77378	8.42019
3297.84521	8.45646
3295.91665	8.47538
3293.98809	8.45910
3292.05952	8.40682
3290.13096	8.37581
3288.20239	8.44269
3286.27383	8.52495
3284.34526	8.44968
3282.41670	8.32298
3280.48813	8.31394
3278.55957	8.40640
3276.63101	8.48992
3274.70244	8.54649
3272.77388	8.61084
3270.84531	8.59113
3268.91675	8.50252
3266.98818	8.46118
3265.05962	8.43708
3263.13105	8.36706
3261.20249	8.27448
3259.27393	8.24444
3257.34536	8.36667
3255.41680	8.58224
3253.48823	8.71125
3251.55967	8.67263
3249.63110	8.56265
3247.70254	8.52964
3245.77397	8.57517
3243.84541	8.58752
3241.91685	8.47411
3239.98828	8.30474
3238.05972	8.23572
3236.13115	8.29771
3234.20259	8.40259
3232.27402	8.46907
3230.34546	8.49169
3228.41689	8.45366
3226.48833	8.38089
3224.55977	8.34883
3222.63120	8.33682
3220.70264	8.32108
3218.77407	8.30617
3216.84551	8.31064
3214.91694	8.38894
3212.98838	8.47689
3211.05981	8.41877
3209.13125	8.23361
3207.20269	8.12525
3205.27412	8.16957
3203.34556	8.23594
3201.41699	8.25833
3199.48843	8.23483
3197.55986	8.07650
3195.63130	7.88388
3193.70273	7.80766
3191.77417	7.77192
3189.84561	7.73329
3187.91704	7.74464
3185.98848	7.74005
3184.05991	7.65563
3182.13135	7.54943
3180.20278	7.50142
3178.27422	7.50485
3176.34565	7.47093
3174.41709	7.36219
3172.48853	7.26526
3170.55996	7.22705
3168.63140	7.18917
3166.70283	7.11798
3164.77427	7.02566
3162.84570	6.94365
3160.91714	6.89141
3158.98857	6.84068
3157.06001	6.76191
3155.13145	6.65751
3153.20288	6.56192
3151.27432	6.50955
3149.34575	6.46842
3147.41719	6.39222
3145.48862	6.30942
3143.56006	6.24494
3141.63149	6.18124
3139.70293	6.10491
3137.77437	6.02508
3135.84580	5.95867
3133.91724	5.89927
3131.98867	5.82539
3130.06011	5.73555
3128.13154	5.65252
3126.20298	5.58911
3124.27441	5.52942
3122.34585	5.45524
3120.41729	5.37612
3118.48872	5.30746
3116.56016	5.24242
3114.63159	5.16909
3112.70303	5.09112
3110.77446	5.02007
3108.84590	4.95745
3106.91733	4.89245
3104.98877	4.82003
3103.06021	4.74601
3101.13164	4.67384
3099.20308	4.60449
3097.27451	4.54037
3095.34595	4.48031
3093.41738	4.41773
3091.48882	4.35111
3089.56025	4.28482
3087.63169	4.22090
3085.70312	4.16025
3083.77456	4.09954
3081.84600	4.03507
3079.91743	3.97043
3077.98887	3.90886
3076.06030	3.84860
3074.13174	3.78899
3072.20317	3.73023
3070.27461	3.67105
3068.34604	3.61278
3066.41748	3.55654
3064.48892	3.50099
3062.56035	3.44524
3060.63179	3.38951
3058.70322	3.33494
3056.77466	3.28076
3054.84609	3.22546
3052.91753	3.17069
3050.98896	3.11825
3049.06040	3.06804
3047.13184	3.01911
3045.20327	2.97003
3043.27471	2.92078
3041.34614	2.87173
3039.41758	2.82229
3037.48901	2.77267
3035.56045	2.72404
3033.63188	2.67687
3031.70332	2.63067
3029.77476	2.58520
3027.84619	2.54104
3025.91763	2.49832
3023.98906	2.45595
3022.06050	2.41386
3020.13193	2.37292
3018.20337	2.33221
3016.27480	2.29089
3014.34624	2.24981
3012.41768	2.20956
3010.48911	2.16997
3008.56055	2.13139
3006.63198	2.09408
3004.70342	2.05786
3002.77485	2.02279
3000.84629	1.98847
2998.91772	1.95451
2996.98916	1.92122
2995.06060	1.88860
2993.13203	1.85684
2991.20347	1.82619
2989.27490	1.79624
2987.34634	1.76671
2985.41777	1.73802
2983.48921	1.71053
2981.56064	1.68354
2979.63208	1.65657
2977.70352	1.62992
2975.77495	1.60360
2973.84639	1.57783
2971.91782	1.55305
2969.98926	1.52936
2968.06069	1.50644
2966.13213	1.48348
2964.20356	1.46020
2962.27500	1.43718
2960.34644	1.41431
2958.41787	1.39080
2956.48931	1.36663
2954.56074	1.34263
2952.63218	1.31887
2950.70361	1.29511
2948.77505	1.27198
2946.84648	1.24983
2944.91792	1.22863
2942.98936	1.20776
2941.06079	1.18690
2939.13223	1.16687
2937.20366	1.14762
2935.27510	1.12829
2933.34653	1.10880
2931.41797	1.08926
2929.48940	1.06961
2927.56084	1.05042
2925.63228	1.03208
2923.70371	1.01383
2921.77515	0.99541
2919.84658	0.97746
2917.91802	0.95990
2915.98945	0.94213
2914.06089	0.92419
2912.13232	0.90680
2910.20376	0.89049
2908.27520	0.87480
2906.34663	0.85923
2904.41807	0.84386
2902.48950	0.82887
2900.56094	0.81429
2898.63237	0.80033
2896.70381	0.78704
2894.77524	0.77396
2892.84668	0.76088
2890.91812	0.74833
2888.98955	0.73669
2887.06099	0.72563
2885.13242	0.71481
2883.20386	0.70438
2881.27529	0.69451
2879.34673	0.68488
2877.41816	0.67518
2875.48960	0.66536
2873.56104	0.65531
2871.63247	0.64496
2869.70391	0.63404
2867.77534	0.62241
2865.84678	0.61055
2863.91821	0.59884
2861.98965	0.58710
2860.06108	0.57560
2858.13252	0.56505
2856.20396	0.55543
2854.27539	0.54609
2852.34683	0.53694
2850.41826	0.52826
2848.48970	0.51978
2846.56113	0.51115
2844.63257	0.50253
2842.70400	0.49446
2840.77544	0.48711
2838.84687	0.48013
2836.91831	0.47325
2834.98975	0.46647
2833.06118	0.46002
2831.13262	0.45393
2829.20405	0.44781
2827.27549	0.44149
2825.34692	0.43522
2823.41836	0.42913
2821.48979	0.42306
2819.56123	0.41688
2817.63267	0.41083
2815.70410	0.40514
2813.77554	0.39964
2811.84697	0.39415
2809.91841	0.38867
2807.98984	0.38319
2806.06128	0.37781
2804.13271	0.37268
2802.20415	0.36766
2800.27559	0.36261
2798.34702	0.35750
2796.41846	0.35226
2794.48989	0.34713
2792.56133	0.34234
2790.63276	0.33768
2788.70420	0.33301
2786.77563	0.32860
2784.84707	0.32441
2782.91851	0.32022
2780.98994	0.31598
2779.06138	0.31173
2777.13281	0.30761
2775.20425	0.30371
2773.27568	0.29997
2771.34712	0.29625
2769.41855	0.29252
2767.48999	0.28888
2765.56143	0.28540
2763.63286	0.28186
2761.70430	0.27827
2759.77573	0.27483
2757.84717	0.27146
2755.91860	0.26814
2753.99004	0.26501
2752.06147	0.26202
2750.13291	0.25911
2748.20435	0.25623
2746.27578	0.25326
2744.34722	0.25031
2742.41865	0.24753
2740.49009	0.24489
2738.56152	0.24224
2736.63296	0.23942
2734.70439	0.23660
2732.77583	0.23411
2730.84727	0.23191
2728.91870	0.22979
2726.99014	0.22758
2725.06157	0.22533
2723.13301	0.22316
2721.20444	0.22093
2719.27588	0.21860
2717.34731	0.21632
2715.41875	0.21419
2713.49019	0.21237
2711.56162	0.21075
2709.63306	0.20903
2707.70449	0.20722
2705.77593	0.20564
2703.84736	0.20419
2701.91880	0.20266
2699.99023	0.20108
2698.06167	0.19951
2696.13311	0.19795
2694.20454	0.19639
2692.27598	0.19502
2690.34741	0.19390
2688.41885	0.19269
2686.49028	0.19133
2684.56172	0.18992
2682.63315	0.18851
2680.70459	0.18721
2678.77603	0.18599
2676.84746	0.18486
2674.91890	0.18382
2672.99033	0.18276
2671.06177	0.18170
2669.13320	0.18073
2667.20464	0.17980
2665.27607	0.17878
2663.34751	0.17756
2661.41895	0.17634
2659.49038	0.17556
2657.56182	0.17504
2655.63325	0.17422
2653.70469	0.17323
2651.77612	0.17243
2649.84756	0.17177
2647.91899	0.17103
2645.99043	0.17028
2644.06187	0.16978
2642.13330	0.16941
2640.20474	0.16886
2638.27617	0.16818
2636.34761	0.16758
2634.41904	0.16702
2632.49048	0.16651
2630.56191	0.16615
2628.63335	0.16586
2626.70479	0.16550
2624.77622	0.16507
2622.84766	0.16464
2620.91909	0.16429
2618.99053	0.16403
2617.06196	0.16387
2615.13340	0.16373
2613.20483	0.16359
2611.27627	0.16344
2609.34771	0.16324
2607.41914	0.16296
2605.49058	0.16268
2603.56201	0.16245
2601.63345	0.16230
2599.70488	0.16221
2597.77632	0.16216
2595.84775	0.16209
2593.91919	0.16213
2591.99062	0.16243
2590.06206	0.16274
2588.13350	0.16288
2586.20493	0.16299
2584.27637	0.16319
2582.34780	0.16344
2580.41924	0.16360
2578.49067	0.16359
2576.56211	0.16362
2574.63354	0.16388
2572.70498	0.16436
2570.77642	0.16481
2568.84785	0.16505
2566.91929	0.16539
2564.99072	0.16593
2563.06216	0.16640
2561.13359	0.16668
2559.20503	0.16690
2557.27646	0.16720
2555.34790	0.16757
2553.41934	0.16803
2551.49077	0.16872
2549.56221	0.16942
2547.63364	0.16987
2545.70508	0.17023
2543.77651	0.17081
2541.84795	0.17155
2539.91938	0.17209
2537.99082	0.17244
2536.06226	0.17294
2534.13369	0.17362
2532.20513	0.17432
2530.27656	0.17508
2528.34800	0.17586
2526.41943	0.17653
2524.49087	0.17720
2522.56230	0.17792
2520.63374	0.17861
2518.70518	0.17929
2516.77661	0.17994
2514.84805	0.18049
2512.91948	0.18110
2510.99092	0.18194
2509.06235	0.18279
2507.13379	0.18357
2505.20522	0.18435
2503.27666	0.18514
2501.34810	0.18604
2499.41953	0.18699
2497.49097	0.18776
2495.56240	0.18845
2493.63384	0.18911
2491.70527	0.18987
2489.77671	0.19082
2487.84814	0.19163
2485.91958	0.19222
2483.99102	0.19302
2482.06245	0.19403
2480.13389	0.19499
2478.20532	0.19589
2476.27676	0.19675
2474.34819	0.19762
2472.41963	0.19850
2470.49106	0.19927
2468.56250	0.20000
2466.63394	0.20084
2464.70537	0.20176
2462.77681	0.20272
2460.84824	0.20372
2458.91968	0.20467
2456.99111	0.20552
2455.06255	0.20624
2453.13398	0.20698
2451.20542	0.20788
2449.27686	0.20889
2447.34829	0.20987
2445.41973	0.21090
2443.49116	0.21201
2441.56260	0.21310
2439.63403	0.21412
2437.70547	0.21505
2435.77690	0.21595
2433.84834	0.21681
2431.91978	0.21764
2429.99121	0.21852
2428.06265	0.21952
2426.13408	0.22051
2424.20552	0.22144
2422.27695	0.22255
2420.34839	0.22385
2418.41982	0.22513
2416.49126	0.22633
2414.56270	0.22742
2412.63413	0.22846
2410.70557	0.22948
2408.77700	0.23057
2406.84844	0.23187
2404.91987	0.23318
2402.99131	0.23426
2401.06274	0.23525
2399.13418	0.23630
2397.20562	0.23748
2395.27705	0.23882
2393.34849	0.24023
2391.41992	0.24148
2389.49136	0.24260
2387.56279	0.24393
2385.63423	0.24576
2383.70566	0.24830
2381.77710	0.25149
2379.84854	0.25518
2377.91997	0.25938
2375.99141	0.26412
2374.06284	0.26935
2372.13428	0.27493
2370.20571	0.28062
2368.27715	0.28637
2366.34858	0.29224
2364.42002	0.29798
2362.49146	0.30351
2360.56289	0.30840
2358.63433	0.31083
2356.70576	0.30994
2354.77720	0.30747
2352.84863	0.30354
2350.92007	0.29817
2348.99150	0.29480
2347.06294	0.29564
2345.13437	0.30100
2343.20581	0.30831
2341.27725	0.31275
2339.34868	0.31366
2337.42012	0.31322
2335.49155	0.31324
2333.56299	0.31395
2331.63442	0.31505
2329.70586	0.31605
2327.77729	0.31640
2325.84873	0.31596
2323.92017	0.31541
2321.99160	0.31525
2320.06304	0.31484
2318.13447	0.31413
2316.20591	0.31393
2314.27734	0.31435
2312.34878	0.31511
2310.42021	0.31603
2308.49165	0.31668
2306.56309	0.31703
2304.63452	0.31753
2302.70596	0.31838
2300.77739	0.31941
2298.84883	0.32062
2296.92026	0.32204
2294.99170	0.32337
2293.06313	0.32451
2291.13457	0.32575
2289.20601	0.32721
2287.27744	0.32876
2285.34888	0.33034
2283.42031	0.33193
2281.49175	0.33371
2279.56318	0.33587
2277.63462	0.33817
2275.70605	0.34035
2273.77749	0.34237
2271.84893	0.34430
2269.92036	0.34636
2267.99180	0.34862
2266.06323	0.35078
2264.13467	0.35265
2262.20610	0.35455
2260.27754	0.35655
2258.34897	0.35844
2256.42041	0.36034
2254.49185	0.36244
2252.56328	0.36469
2250.63472	0.36699
2248.70615	0.36926
2246.77759	0.37140
2244.84902	0.37346
2242.92046	0.37556
2240.99189	0.37770
2239.06333	0.37990
2237.13477	0.38212
2235.20620	0.38430
2233.27764	0.38650
2231.34907	0.38878
2229.42051	0.39105
2227.49194	0.39327
2225.56338	0.39547
2223.63481	0.39761
2221.70625	0.39981
2219.77769	0.40210
2217.84912	0.40435
2215.92056	0.40661
2213.99199	0.40891
2212.06343	0.41113
2210.13486	0.41318
2208.20630	0.41515
2206.27773	0.41712
2204.34917	0.41913
2202.42061	0.42119
2200.49204	0.42322
2198.56348	0.42518
2196.63491	0.42716
2194.70635	0.42921
2192.77778	0.43121
2190.84922	0.43308
2188.92065	0.43490
2186.99209	0.43664
2185.06353	0.43827
2183.13496	0.43991
2181.20640	0.44162
2179.27783	0.44334
2177.34927	0.44499
2175.42070	0.44649
2173.49214	0.44792
2171.56357	0.44942
2169.63501	0.45083
2167.70645	0.45195
2165.77788	0.45300
2163.84932	0.45418
2161.92075	0.45536
2159.99219	0.45640
2158.06362	0.45733
2156.13506	0.45830
2154.20649	0.45924
2152.27793	0.45998
2150.34937	0.46057
2148.42080	0.46112
2146.49224	0.46161
2144.56367	0.46201
2142.63511	0.46237
2140.70654	0.46270
2138.77798	0.46294
2136.84941	0.46305
2134.92085	0.46308
2132.99229	0.46299
2131.06372	0.46280
2129.13516	0.46268
2127.20659	0.46252
2125.27803	0.46205
2123.34946	0.46142
2121.42090	0.46086
2119.49233	0.46027
2117.56377	0.45961
2115.63521	0.45885
2113.70664	0.45797
2111.77808	0.45708
2109.84951	0.45610
2107.92095	0.45493
2105.99238	0.45368
2104.06382	0.45239
2102.13525	0.45099
2100.20669	0.44945
2098.27812	0.44791
2096.34956	0.44640
2094.42100	0.44476
2092.49243	0.44303
2090.56387	0.44145
2088.63530	0.43983
2086.70674	0.43788
2084.77817	0.43569
2082.84961	0.43368
2080.92104	0.43189
2078.99248	0.42998
2077.06392	0.42787
2075.13535	0.42572
2073.20679	0.42346
2071.27822	0.42110
2069.34966	0.41879
2067.42109	0.41648
2065.49253	0.41415
2063.56396	0.41168
2061.63540	0.40900
2059.70684	0.40626
2057.77827	0.40369
2055.84971	0.40134
2053.92114	0.39888
2051.99258	0.39617
2050.06401	0.39335
2048.13545	0.39051
2046.20688	0.38769
2044.27832	0.38508
2042.34976	0.38265
2040.42119	0.38006
2038.49263	0.37717
2036.56406	0.37432
2034.63550	0.37167
2032.70693	0.36900
2030.77837	0.36618
2028.84980	0.36339
2026.92124	0.36059
2024.99268	0.35760
2023.06411	0.35463
2021.13555	0.35182
2019.20698	0.34906
2017.27842	0.34633
2015.34985	0.34354
2013.42129	0.34070
2011.49272	0.33790
2009.56416	0.33524
2007.63560	0.33263
2005.70703	0.32998
2003.77847	0.32732
2001.84990	0.32466
1999.92134	0.32206
1997.99277	0.31954
1996.06421	0.31707
1994.13564	0.31471
1992.20708	0.31241
1990.27852	0.30989
1988.34995	0.30723
1986.42139	0.30463
1984.49282	0.30212
1982.56426	0.29972
1980.63569	0.29738
1978.70713	0.29510
1976.77856	0.29285
1974.85000	0.29070
1972.92144	0.28857
1970.99287	0.28646
1969.06431	0.28446
1967.13574	0.28253
1965.20718	0.28056
1963.27861	0.27868
1961.35005	0.27684
1959.42148	0.27487
1957.49292	0.27290
1955.56436	0.27106
1953.63579	0.26938
1951.70723	0.26781
1949.77866	0.26622
1947.85010	0.26460
1945.92153	0.26311
1943.99297	0.26186
1942.06440	0.26057
1940.13584	0.25894
1938.20728	0.25730
1936.27871	0.25588
1934.35015	0.25449
1932.42158	0.25315
1930.49302	0.25194
1928.56445	0.25083
1926.63589	0.24980
1924.70732	0.24899
1922.77876	0.24822
1920.85020	0.24726
1918.92163	0.24644
1916.99307	0.24573
1915.06450	0.24478
1913.13594	0.24384
1911.20737	0.24324
1909.27881	0.24265
1907.35024	0.24189
1905.42168	0.24116
1903.49312	0.24054
1901.56455	0.23999
1899.63599	0.23949
1897.70742	0.23910
1895.77886	0.23875
1893.85029	0.23832
1891.92173	0.23794
1889.99316	0.23797
1888.06460	0.23795
1886.13604	0.23757
1884.20747	0.23720
1882.27891	0.23697
1880.35034	0.23690
1878.42178	0.23690
1876.49321	0.23692
1874.56465	0.23696
1872.63608	0.23715
1870.70752	0.23760
1868.77896	0.23831
1866.85039	0.23857
1864.92183	0.23826
1862.99326	0.23813
1861.06470	0.23832
1859.13613	0.23866
1857.20757	0.23903
1855.27900	0.23946
1853.35044	0.23990
1851.42187	0.24046
1849.49331	0.24121
1847.56475	0.24216
1845.63618	0.24330
1843.70762	0.24443
1841.77905	0.24502
1839.85049	0.24520
1837.92192	0.24584
1835.99336	0.24677
1834.06479	0.24775
1832.13623	0.24891
1830.20767	0.25056
1828.27910	0.25212
1826.35054	0.25315
1824.42197	0.25437
1822.49341	0.25552
1820.56484	0.25656
1818.63628	0.25784
1816.70771	0.25945
1814.77915	0.26109
1812.85059	0.26296
1810.92202	0.26520
1808.99346	0.26732
1807.06489	0.26915
1805.13633	0.27098
1803.20776	0.27326
1801.27920	0.27591
1799.35063	0.27879
1797.42207	0.28132
1795.49351	0.28368
1793.56494	0.28654
1791.63638	0.29031
1789.70781	0.29362
1787.77925	0.29595
1785.85068	0.29894
1783.92212	0.30269
1781.99355	0.30677
1780.06499	0.31096
1778.13643	0.31509
1776.20786	0.31912
1774.27930	0.32375
1772.35073	0.32996
1770.42217	0.33626
1768.49360	0.34126
1766.56504	0.34611
1764.63647	0.35128
1762.70791	0.35714
1760.77935	0.36459
1758.85078	0.37171
1756.92222	0.37893
1754.99365	0.38665
1753.06509	0.39369
1751.13652	0.40236
1749.20796	0.41322
1747.27939	0.42362
1745.35083	0.43266
1743.42227	0.44226
1741.49370	0.45290
1739.56514	0.46553
1737.63657	0.47814
1735.70801	0.48929
1733.77944	0.50610
1731.85088	0.52570
1729.92231	0.54072
1727.99375	0.55603
1726.06519	0.57285
1724.13662	0.59130
1722.20806	0.61116
1720.27949	0.62965
1718.35093	0.65163
1716.42236	0.68379
1714.49380	0.71378
1712.56523	0.73799
1710.63667	0.76183
1708.70811	0.78778
1706.77954	0.81744
1704.85098	0.85298
1702.92241	0.88480
1700.99385	0.91665
1699.06528	0.96417
1697.13672	1.00758
1695.20815	1.05183
1693.27959	1.09564
1691.35103	1.13196
1689.42246	1.17407
1687.49390	1.21856
1685.56533	1.26206
1683.63677	1.32889
1681.70820	1.39743
1679.77964	1.44170
1677.85107	1.48444
1675.92251	1.53385
1673.99395	1.59439
1672.06538	1.64808
1670.13682	1.70161
1668.20825	1.77193
1666.27969	1.83004
1664.35112	1.88054
1662.42256	1.94513
1660.49399	2.01808
1658.56543	2.07466
1656.63687	2.12038
1654.70830	2.16296
1652.77974	2.22625
1650.85117	2.28177
1648.92261	2.30021
1646.99404	2.32383
1645.06548	2.34803
1643.13691	2.36237
1641.20835	2.36906
1639.27979	2.37462
1637.35122	2.37622
1635.42266	2.37070
1633.49409	2.35838
1631.56553	2.34156
1629.63696	2.32053
1627.70840	2.28678
1625.77983	2.24888
1623.85127	2.20354
1621.92271	2.14897
1619.99414	2.10072
1618.06558	2.05384
1616.13701	1.98659
1614.20845	1.91759
1612.27988	1.86486
1610.35132	1.81079
1608.42275	1.75316
1606.49419	1.69711
1604.56562	1.64578
1602.63706	1.59608
1600.70850	1.54766
1598.77993	1.50351
1596.85137	1.46222
1594.92280	1.42230
1592.99424	1.38432
1591.06567	1.35020
1589.13711	1.31889
1587.20854	1.29012
1585.27998	1.26394
1583.35142	1.24016
1581.42285	1.21931
1579.49429	1.20226
1577.56572	1.18750
1575.63716	1.16968
1573.70859	1.15406
1571.78003	1.14467
1569.85146	1.13649
1567.92290	1.12816
1565.99434	1.12272
1564.06577	1.12026
1562.13721	1.11959
1560.20864	1.12209
1558.28008	1.13260
1556.35151	1.14165
1554.42295	1.14540
1552.49438	1.14938
1550.56582	1.15196
1548.63726	1.15148
1546.70869	1.14758
1544.78013	1.14022
1542.85156	1.12884
1540.92300	1.10896
1538.99443	1.07564
1537.06587	1.05097
1535.13730	1.03435
1533.20874	1.01209
1531.28018	0.98773
1529.35161	0.96969
1527.42305	0.95315
1525.49448	0.93675
1523.56592	0.92331
1521.63735	0.91049
1519.70879	0.89736
1517.78022	0.88627
1515.85166	0.87295
1513.92310	0.85844
1511.99453	0.84582
1510.06597	0.83469
1508.13740	0.82383
1506.20884	0.80639
1504.28027	0.79065
1502.35171	0.78207
1500.42314	0.77508
1498.49458	0.76775
1496.56602	0.75890
1494.63745	0.74974
1492.70889	0.74264
1490.78032	0.73668
1488.85176	0.73009
1486.92319	0.72369
1484.99463	0.71847
1483.06606	0.71451
1481.13750	0.71155
1479.20894	0.70956
1477.28037	0.70877
1475.35181	0.70914
1473.42324	0.71051
1471.49468	0.71114
1469.56611	0.70946
1467.63755	0.70711
1465.70898	0.70552
1463.78042	0.70476
1461.85186	0.70463
1459.92329	0.70542
1457.99473	0.70731
1456.06616	0.70823
1454.13760	0.70593
1452.20903	0.70297
1450.28047	0.70032
1448.35190	0.69783
1446.42334	0.69510
1444.49478	0.69240
1442.56621	0.68980
1440.63765	0.68692
1438.70908	0.68384
1436.78052	0.68004
1434.85195	0.67553
1432.92339	0.67203
1430.99482	0.66998
1429.06626	0.66909
1427.13770	0.66890
1425.20913	0.66947
1423.28057	0.67075
1421.35200	0.67191
1419.42344	0.67280
1417.49487	0.67312
1415.56631	0.67225
1413.63774	0.67141
1411.70918	0.67153
1409.78062	0.67280
1407.85205	0.67485
1405.92349	0.67737
1403.99492	0.67970
1402.06636	0.68065
1400.13779	0.68031
1398.20923	0.67898
1396.28066	0.67630
1394.35210	0.67190
1392.42354	0.66667
1390.49497	0.66196
1388.56641	0.65725
1386.63784	0.65142
1384.70928	0.64520
1382.78071	0.63957
1380.85215	0.63444
1378.92358	0.63008
1376.99502	0.62687
1375.06646	0.62478
1373.13789	0.62331
1371.20933	0.62217
1369.28076	0.62133
1367.35220	0.62032
1365.42363	0.61900
1363.49507	0.61769
1361.56650	0.61609
1359.63794	0.61399
1357.70937	0.61205
1355.78081	0.61052
1353.85225	0.60922
1351.92368	0.60809
1349.99512	0.60718
1348.06655	0.60634
1346.13799	0.60551
1344.20942	0.60471
1342.28086	0.60401
1340.35229	0.60349
1338.42373	0.60285
1336.49517	0.60207
1334.56660	0.60159
1332.63804	0.60159
1330.70947	0.60194
1328.78091	0.60254
1326.85234	0.60336
1324.92378	0.60436
1322.99521	0.60554
1321.06665	0.60668
1319.13809	0.60750
1317.20952	0.60794
1315.28096	0.60804
1313.35239	0.60790
1311.42383	0.60761
1309.49526	0.60719
1307.56670	0.60660
1305.63813	0.60605
1303.70957	0.60569
1301.78101	0.60521
1299.85244	0.60419
1297.92388	0.60297
1295.99531	0.60198
1294.06675	0.60090
1292.13818	0.59942
1290.20962	0.59786
1288.28105	0.59653
1286.35249	0.59519
1284.42393	0.59375
1282.49536	0.59225
1280.56680	0.59057
1278.63823	0.58871
1276.70967	0.58696
1274.78110	0.58565
1272.85254	0.58479
1270.92397	0.58412
1268.99541	0.58332
1267.06685	0.58226
1265.13828	0.58109
1263.20972	0.58019
1261.28115	0.57947
1259.35259	0.57861
1257.42402	0.57775
1255.49546	0.57718
1253.56689	0.57693
1251.63833	0.57689
1249.70977	0.57694
1247.78120	0.57697
1245.85264	0.57686
1243.92407	0.57637
1241.99551	0.57525
1240.06694	0.57347
1238.13838	0.57128
1236.20981	0.56894
1234.28125	0.56651
1232.35269	0.56393
1230.42412	0.56133
1228.49556	0.55889
1226.56699	0.55664
1224.63843	0.55452
1222.70986	0.55243
1220.78130	0.55036
1218.85273	0.54851
1216.92417	0.54705
1214.99561	0.54589
1213.06704	0.54483
1211.13848	0.54390
1209.20991	0.54304
1207.28135	0.54218
1205.35278	0.54134
1203.42422	0.54047
1201.49565	0.53942
1199.56709	0.53820
1197.63853	0.53708
1195.70996	0.53622
1193.78140	0.53554
1191.85283	0.53487
1189.92427	0.53432
1187.99570	0.53397
1186.06714	0.53370
1184.13857	0.53351
1182.21001	0.53381
1180.28145	0.53495
1178.35288	0.53669
1176.42432	0.53840
1174.49575	0.53965
1172.56719	0.54035
1170.63862	0.54054
1168.71006	0.54060
1166.78149	0.54082
1164.85293	0.54086
1162.92437	0.54054
1160.99580	0.54016
1159.06724	0.53980
1157.13867	0.53926
1155.21011	0.53855
1153.28154	0.53763
1151.35298	0.53625
1149.42441	0.53436
1147.49585	0.53206
1145.56729	0.52929
1143.63872	0.52638
1141.71016	0.52394
1139.78159	0.52206
1137.85303	0.52077
1135.92446	0.52016
1133.99590	0.51994
1132.06733	0.52005
1130.13877	0.52033
1128.21021	0.52008
1126.28164	0.51940
1124.35308	0.51895
1122.42451	0.51869
1120.49595	0.51839
1118.56738	0.51836
1116.63882	0.51897
1114.71025	0.51999
1112.78169	0.52086
1110.85312	0.52175
1108.92456	0.52292
1106.99600	0.52395
1105.06743	0.52462
1103.13887	0.52523
1101.21030	0.52613
1099.28174	0.52746
1097.35317	0.52926
1095.42461	0.53167
1093.49604	0.53511
1091.56748	0.53990
1089.63892	0.54598
1087.71035	0.55322
1085.78179	0.56138
1083.85322	0.56993
1081.92466	0.57800
1079.99609	0.58403
1078.06753	0.58649
1076.13896	0.58554
1074.21040	0.58202
1072.28184	0.57630
1070.35327	0.56925
1068.42471	0.56184
1066.49614	0.55472
1064.56758	0.54815
1062.63901	0.54233
1060.71045	0.53755
1058.78188	0.53345
1056.85332	0.52951
1054.92476	0.52584
1052.99619	0.52271
1051.06763	0.52001
1049.13906	0.51786
1047.21050	0.51665
1045.28193	0.51613
1043.35337	0.51589
1041.42480	0.51585
1039.49624	0.51584
1037.56768	0.51558
1035.63911	0.51503
1033.71055	0.51419
1031.78198	0.51308
1029.85342	0.51183
1027.92485	0.51038
1025.99629	0.50863
1024.06772	0.50695
1022.13916	0.50574
1020.21060	0.50501
1018.28203	0.50468
1016.35347	0.50478
1014.42490	0.50502
1012.49634	0.50494
1010.56777	0.50458
1008.63921	0.50448
1006.71064	0.50496
1004.78208	0.50591
1002.85352	0.50739
1000.92495	0.50966
998.99639	0.51290
997.06782	0.51701
995.13926	0.52167
993.21069	0.52622
991.28213	0.52971
989.35356	0.53174
987.42500	0.53259
985.49644	0.53266
983.56787	0.53243
981.63931	0.53247
979.71074	0.53304
977.78218	0.53417
975.85361	0.53599
973.92505	0.53856
971.99648	0.54155
970.06792	0.54465
968.13936	0.54821
966.21079	0.55249
964.28223	0.55701
962.35366	0.56163
960.42510	0.56669
958.49653	0.57225
956.56797	0.57814
954.63940	0.58419
952.71084	0.59045
950.78228	0.59697
948.85371	0.60327
946.92515	0.60941
944.99658	0.61616
943.06802	0.62321
941.13945	0.62959
939.21089	0.63527
937.28232	0.64085
935.35376	0.64658
933.42520	0.65246
931.49663	0.65857
929.56807	0.66473
927.63950	0.67058
925.71094	0.67652
923.78237	0.68327
921.85381	0.69008
919.92524	0.69669
917.99668	0.70415
916.06812	0.71168
914.13955	0.71858
912.21099	0.72622
910.28242	0.73485
908.35386	0.74366
906.42529	0.75302
904.49673	0.76314
902.56816	0.77287
900.63960	0.78213
898.71104	0.79252
896.78247	0.80373
894.85391	0.81411
892.92534	0.82390
890.99678	0.83330
889.06821	0.84280
887.13965	0.85380
885.21108	0.86610
883.28252	0.87819
881.35396	0.88925
879.42539	0.90041
877.49683	0.91276
875.56826	0.92534
873.63970	0.93724
871.71113	0.94835
869.78257	0.95867
867.85400	0.96944
865.92544	0.98151
863.99687	0.99422
862.06831	1.00627
860.13975	1.01756
858.21118	1.03009
856.28262	1.04343
854.35405	1.05638
852.42549	1.06935
850.49692	1.08164
848.56836	1.09451
846.63979	1.10847
844.71123	1.11940
842.78267	1.12704
840.85410	1.13710
838.92554	1.15033
836.99697	1.16173
835.06841	1.17266
833.13984	1.18875
831.21128	1.20588
829.28271	1.21979
827.35415	1.23377
825.42559	1.24603
823.49702	1.25673
821.56846	1.27164
819.63989	1.29072
817.71133	1.30278
815.78276	1.30488
813.85420	1.30684
811.92563	1.31028
809.99707	1.31767
808.06851	1.33500
806.13994	1.36678
804.21138	1.40278
802.28281	1.43191
800.35425	1.46314
798.42568	1.47400
796.49712	1.45384
794.56855	1.46252
792.63999	1.50420
790.71143	1.51651
788.78286	1.54665
786.85430	1.67556
784.92573	1.76041
782.99717	1.57823
781.06860	1.44134
779.14004	1.46696
777.21147	1.60643
775.28291	1.75683
773.35435	1.82367
771.42578	1.76081
769.49722	1.66020
767.56865	1.58245
765.64009	1.56903
763.71152	1.52654
761.78296	1.48594
759.85439	1.43109
757.92583	1.29550
755.99727	1.21382
754.06870	1.27566
752.14014	1.42816
750.21157	1.41446
748.28301	1.29171
746.35444	1.27495
744.42588	1.24939
742.49731	1.12348
740.56875	1.03076
738.64019	1.06896
736.71162	1.24595
734.78306	1.34730
732.85449	1.09707
730.92593	0.83879
728.99736	0.80395
727.06880	1.58025
725.14023	4.35084
723.21167	1.06070
721.28311	0.61347
719.35454	0.50188
717.42598	0.51989
715.49741	0.59288
713.56885	0.47945
711.64028	0.32747
709.71172	0.31906
707.78315	0.48112
705.85459	0.73712
703.92603	0.71245
701.99746	1.00045
700.06890	4.20041
698.14033	4.18884
696.21177	0.66002
694.28320	0.62058
692.35464	0.70602
690.42607	0.66658
688.49751	0.62246
686.56895	0.69696
684.64038	0.76180
682.71182	0.77262
680.78325	0.74847
678.85469	0.55748
676.92612	0.48898
674.99756	0.50194
673.06899	0.36826
671.14043	0.19868
669.21187	0.17628
667.28330	0.18915
665.35474	0.15424
663.42617	0.12003
661.49761	0.15143
659.56904	0.19849
657.64048	0.18204
655.71191	0.19364
653.78335	0.29057
651.85479	0.28530
649.92622	0.20949
647.99766	0.20304
646.06909	0.29710
644.14053	0.41310
642.21196	0.73147
640.28340	3.84170
638.35483	3.83013
636.42627	0.90330
634.49771	0.71904
632.56914	0.45364
630.64058	0.31152
628.71201	0.28282
626.78345	0.29611
624.85488	0.36342
622.92632	0.54761
620.99775	0.92993
619.06919	0.72945
617.14062	0.51741
615.21206	0.54603
613.28350	0.62221
611.35493	0.41256
609.42637	0.24078
607.49780	0.16856
605.56924	0.21634
603.64067	0.49078
601.71211	1.05039
599.78354	0.50372
597.85498	0.28124
595.92642	0.21927
593.99785	0.19305
592.06929	0.15785
590.14072	0.16401
588.21216	0.24415
586.28359	0.34640
584.35503	0.38301
582.42646	0.39199
580.49790	0.38402
578.56934	0.36045
576.64077	0.37590
574.71221	0.39392
572.78364	0.32523
570.85508	0.23022
568.92651	0.20562
566.99795	0.26846
565.06938	0.34646
563.14082	0.36897
561.21226	0.31913
559.28369	0.28117
557.35513	0.28212
555.42656	0.28556
553.49800	0.22287
551.56943	0.14584
549.64087	0.11606
547.71230	0.10638
545.78374	0.11216
543.85518	0.13199
541.92661	0.14202
539.99805	0.15450
538.06948	0.20903
536.14092	0.30097
534.21235	0.29117
532.28379	0.15526
530.35522	0.10242
528.42666	0.18132
526.49810	0.21010
524.56953	0.14457
522.64097	0.16485
520.71240	0.27536
518.78384	0.31921
516.85527	0.29416
514.92671	0.35548
512.99814	0.48811
511.06958	0.50937
509.14102	0.49170
507.21245	0.47386
505.28389	0.36908
503.35532	0.22106
501.42676	0.11265
499.49819	0.05879
