3997.91411	0.07251
3995.98555	0.07277
3994.05698	0.07334
3992.12842	0.07402
3990.19985	0.07429
3988.27129	0.07429
3986.34272	0.07419
3984.41416	0.07403
3982.48560	0.07402
3980.55703	0.07422
3978.62847	0.07468
3976.69990	0.07528
3974.77134	0.07580
3972.84277	0.07623
3970.91421	0.07651
3968.98564	0.07651
3967.05708	0.07611
3965.12852	0.07577
3963.19995	0.07598
3961.27139	0.07639
3959.34282	0.07663
3957.41426	0.07644
3955.48569	0.07579
3953.55713	0.07533
3951.62856	0.07560
3949.70000	0.07622
3947.77144	0.07672
3945.84287	0.07684
3943.91431	0.07649
3941.98574	0.07617
3940.05718	0.07620
3938.12861	0.07620
3936.20005	0.07605
3934.27148	0.07581
3932.34292	0.07580
3930.41436	0.07632
3928.48579	0.07674
3926.55723	0.07657
3924.62866	0.07603
3922.70010	0.07545
3920.77153	0.07536
3918.84297	0.07594
3916.91440	0.07668
3914.98584	0.07679
3913.05728	0.07637
3911.12871	0.07605
3909.20015	0.07577
3907.27158	0.07524
3905.34302	0.07459
3903.41445	0.07445
3901.48589	0.07503
3899.55732	0.07569
3897.62876	0.07593
3895.70020	0.07577
3893.77163	0.07558
3891.84307	0.07550
3889.91450	0.07551
3887.98594	0.07552
3886.05737	0.07589
3884.12881	0.07681
3882.20024	0.07719
3880.27168	0.07683
3878.34312	0.07657
3876.41455	0.07628
3874.48599	0.07607
3872.55742	0.07656
3870.62886	0.07745
3868.70029	0.07827
3866.77173	0.07869
3864.84316	0.07895
3862.91460	0.07950
3860.98604	0.07982
3859.05747	0.07951
3857.12891	0.07897
3855.20034	0.07850
3853.27178	0.07912
3851.34321	0.08154
3849.41465	0.08249
3847.48608	0.08222
3845.55752	0.08210
3843.62896	0.08255
3841.70039	0.08362
3839.77183	0.08477
3837.84326	0.08582
3835.91470	0.08631
3833.98613	0.08609
3832.05757	0.08597
3830.12900	0.08624
3828.20044	0.08660
3826.27187	0.08729
3824.34331	0.08846
3822.41475	0.08981
3820.48618	0.09160
3818.55762	0.09272
3816.62905	0.09277
3814.70049	0.09360
3812.77192	0.09496
3810.84336	0.09572
3808.91479	0.09630
3806.98623	0.09744
3805.05767	0.09895
3803.12910	0.09999
3801.20054	0.10115
3799.27197	0.10259
3797.34341	0.10322
3795.41484	0.10386
3793.48628	0.10526
3791.55771	0.10691
3789.62915	0.10828
3787.70059	0.10946
3785.77202	0.11076
3783.84346	0.11215
3781.91489	0.11349
3779.98633	0.11467
3778.05776	0.11594
3776.12920	0.11747
3774.20063	0.11901
3772.27207	0.12045
3770.34351	0.12235
3768.41494	0.12493
3766.48638	0.12702
3764.55781	0.12883
3762.62925	0.13069
3760.70068	0.13241
3758.77212	0.13462
3756.84355	0.13722
3754.91499	0.13935
3752.98643	0.14134
3751.05786	0.14399
3749.12930	0.14744
3747.20073	0.14991
3745.27217	0.15177
3743.34360	0.15533
3741.41504	0.15942
3739.48647	0.16255
3737.55791	0.16578
3735.62935	0.16969
3733.70078	0.17426
3731.77222	0.17865
3729.84365	0.18239
3727.91509	0.18601
3725.98652	0.19111
3724.05796	0.19802
3722.12939	0.20535
3720.20083	0.21287
3718.27227	0.22057
3716.34370	0.22833
3714.41514	0.23599
3712.48657	0.24478
3710.55801	0.25670
3708.62944	0.27000
3706.70088	0.28205
3704.77231	0.29371
3702.84375	0.30647
3700.91519	0.32239
3698.98662	0.34056
3697.05806	0.35875
3695.12949	0.37790
3693.20093	0.39766
3691.27236	0.41838
3689.34380	0.44459
3687.41523	0.47791
3685.48667	0.50879
3683.55811	0.53568
3681.62954	0.56372
3679.70098	0.59471
3677.77241	0.62700
3675.84385	0.66482
3673.91528	0.71635
3671.98672	0.75980
3670.05815	0.79844
3668.12959	0.85112
3666.20103	0.89976
3664.27246	0.94044
3662.34390	0.98403
3660.41533	1.03122
3658.48677	1.07726
3656.55820	1.12530
3654.62964	1.17865
3652.70107	1.22388
3650.77251	1.26313
3648.84395	1.31631
3646.91538	1.38246
3644.98682	1.43358
3643.05825	1.47344
3641.12969	1.51289
3639.20112	1.55582
3637.27256	1.59959
3635.34399	1.64210
3633.41543	1.68405
3631.48687	1.72353
3629.55830	1.76345
3627.62974	1.81500
3625.70117	1.86398
3623.77261	1.89802
3621.84404	1.93072
3619.91548	1.96866
3617.98691	2.01517
3616.05835	2.05931
3614.12979	2.09527
3612.20122	2.13381
3610.27266	2.17344
3608.34409	2.21343
3606.41553	2.25642
3604.48696	2.29604
3602.55840	2.33083
3600.62983	2.36862
3598.70127	2.41016
3596.77271	2.45020
3594.84414	2.48978
3592.91558	2.53069
3590.98701	2.57002
3589.05845	2.60714
3587.12988	2.65161
3585.20132	2.70106
3583.27275	2.74168
3581.34419	2.77738
3579.41562	2.81591
3577.48706	2.85782
3575.55850	2.90077
3573.62993	2.94470
3571.70137	2.98674
3569.77280	3.02511
3567.84424	3.06560
3565.91567	3.11921
3563.98711	3.17467
3562.05854	3.21909
3560.12998	3.26050
3558.20142	3.30292
3556.27285	3.34616
3554.34429	3.38903
3552.41572	3.43478
3550.48716	3.48484
3548.55859	3.53370
3546.63003	3.57911
3544.70146	3.62493
3542.77290	3.67088
3540.84434	3.71652
3538.91577	3.76457
3536.98721	3.81332
3535.05864	3.86327
3533.13008	3.91277
3531.20151	3.95851
3529.27295	4.00308
3527.34438	4.05203
3525.41582	4.10291
3523.48726	4.15200
3521.55869	4.20276
3519.63013	4.25178
3517.70156	4.29628
3515.77300	4.34064
3513.84443	4.38822
3511.91587	4.43766
3509.98730	4.48839
3508.05874	4.54146
3506.13018	4.59256
3504.20161	4.63818
3502.27305	4.68267
3500.34448	4.73213
3498.41592	4.78397
3496.48735	4.83563
3494.55879	4.88762
3492.63022	4.93513
3490.70166	4.97834
3488.77310	5.01993
3486.84453	5.06196
3484.91597	5.10965
3482.98740	5.16195
3481.05884	5.21825
3479.13027	5.27276
3477.20171	5.31853
3475.27314	5.36313
3473.34458	5.41522
3471.41602	5.47846
3469.48745	5.54422
3467.55889	5.59107
3465.63032	5.61976
3463.70176	5.65969
3461.77319	5.71657
3459.84463	5.77207
3457.91606	5.82371
3455.98750	5.88183
3454.05894	5.93773
3452.13037	5.97857
3450.20181	6.01884
3448.27324	6.07491
3446.34468	6.14284
3444.41611	6.21232
3442.48755	6.28991
3440.55898	6.36236
3438.63042	6.40228
3436.70186	6.42014
3434.77329	6.45562
3432.84473	6.51950
3430.91616	6.57377
3428.98760	6.61286
3427.05903	6.65792
3425.13047	6.70793
3423.20190	6.74982
3421.27334	6.78637
3419.34478	6.83772
3417.41621	6.91378
3415.48765	6.99325
3413.55908	7.04827
3411.63052	7.08817
3409.70195	7.12805
3407.77339	7.17971
3405.84482	7.23591
3403.91626	7.27298
3401.98770	7.29741
3400.05913	7.34809
3398.13057	7.41170
3396.20200	7.44403
3394.27344	7.45625
3392.34487	7.48591
3390.41631	7.57794
3388.48774	7.69221
3386.55918	7.74972
3384.63062	7.74886
3382.70205	7.76518
3380.77349	7.84572
3378.84492	7.92001
3376.91636	7.94472
3374.98779	7.97021
3373.05923	7.99248
3371.13066	7.94712
3369.20210	7.89704
3367.27354	7.90786
3365.34497	7.97222
3363.41641	8.08115
3361.48784	8.18826
3359.55928	8.21348
3357.63071	8.17013
3355.70215	8.15466
3353.77358	8.12378
3351.84502	8.04196
3349.91646	7.97609
3347.98789	7.97788
3346.05933	8.03455
3344.13076	8.10872
3342.20220	8.17176
3340.27363	8.21127
3338.34507	8.30115
3336.41650	8.45460
3334.48794	8.57709
3332.55937	8.57141
3330.63081	8.51462
3328.70225	8.50461
3326.77368	8.47391
3324.84512	8.36196
3322.91655	8.25582
3320.98799	8.27995
3319.05942	8.38324
3317.13086	8.48330
3315.20229	8.55925
3313.27373	8.55835
3311.34517	8.49825
3309.41660	8.42028
3307.48804	8.33222
3305.55947	8.29498
3303.63091	8.30174
3301.70234	8.24856
3299.77378	8.20165
3297.84521	8.24835
3295.91665	8.30720
3293.98809	8.29682
3292.05952	8.33730
3290.13096	8.51073
3288.20239	8.63612
3286.27383	8.60557
3284.34526	8.55647
3282.41670	8.52278
3280.48813	8.42871
3278.55957	8.37183
3276.63101	8.43637
3274.70244	8.55769
3272.77388	8.67014
3270.84531	8.68367
3268.91675	8.58886
3266.98818	8.56626
3265.05962	8.69195
3263.13105	8.79789
3261.20249	8.85948
3259.27393	8.95248
3257.34536	8.92131
3255.41680	8.74299
3253.48823	8.59480
3251.55967	8.51292
3249.63110	8.47902
3247.70254	8.52720
3245.77397	8.52661
3243.84541	8.37529
3241.91685	8.28800
3239.98828	8.41475
3238.05972	8.62515
3236.13115	8.69551
3234.20259	8.67287
3232.27402	8.61531
3230.34546	8.52440
3228.41689	8.47434
3226.48833	8.45992
3224.55977	8.47633
3222.63120	8.47485
3220.70264	8.39654
3218.77407	8.34000
3216.84551	8.34241
3214.91694	8.31523
3212.98838	8.22539
3211.05981	8.16256
3209.13125	8.17384
3207.20269	8.15593
3205.27412	8.06845
3203.34556	8.00466
3201.41699	7.98434
3199.48843	7.97459
3197.55986	7.96871
3195.63130	7.94720
3193.70273	7.89302
3191.77417	7.80092
3189.84561	7.72087
3187.91704	7.74102
3185.98848	7.79565
3184.05991	7.72182
3182.13135	7.56928
3180.20278	7.46061
3178.27422	7.42258
3176.34565	7.40823
3174.41709	7.34303
3172.48853	7.29565
3170.55996	7.31393
3168.63140	7.28523
3166.70283	7.17531
3164.77427	7.06411
3162.84570	6.99160
3160.91714	6.94776
3158.98857	6.91340
3157.06001	6.86114
3155.13145	6.75878
3153.20288	6.62589
3151.27432	6.51805
3149.34575	6.44706
3147.41719	6.39322
3145.48862	6.35008
3143.56006	6.30957
3141.63149	6.25215
3139.70293	6.16762
3137.77437	6.06900
3135.84580	5.97327
3133.91724	5.89387
3131.98867	5.82644
3130.06011	5.75434
3128.13154	5.68280
3126.20298	5.61234
3124.27441	5.53099
3122.34585	5.44962
3120.41729	5.38115
3118.48872	5.31244
3116.56016	5.23739
3114.63159	5.16538
3112.70303	5.09722
3110.77446	5.02721
3108.84590	4.95293
3106.91733	4.87997
3104.98877	4.81345
3103.06021	4.75020
3101.13164	4.68245
3099.20308	4.60848
3097.27451	4.53394
3095.34595	4.46387
3093.41738	4.39837
3091.48882	4.33147
3089.56025	4.26044
3087.63169	4.19019
3085.70312	4.12385
3083.77456	4.05844
3081.84600	3.99292
3079.91743	3.92892
3077.98887	3.86422
3076.06030	3.79906
3074.13174	3.73875
3072.20317	3.68091
3070.27461	3.61816
3068.34604	3.55402
3066.41748	3.49572
3064.48892	3.44145
3062.56035	3.38563
3060.63179	3.32907
3058.70322	3.27454
3056.77466	3.21920
3054.84609	3.16205
3052.91753	3.10686
3050.98896	3.05474
3049.06040	3.00300
3047.13184	2.95073
3045.20327	2.89960
3043.27471	2.84993
3041.34614	2.80062
3039.41758	2.75187
3037.48901	2.70474
3035.56045	2.65793
3033.63188	2.61061
3031.70332	2.56465
3029.77476	2.52034
3027.84619	2.47634
3025.91763	2.43186
3023.98906	2.38741
3022.06050	2.34434
3020.13193	2.30301
3018.20337	2.26236
3016.27480	2.22147
3014.34624	2.18098
3012.41768	2.14178
3010.48911	2.10375
3008.56055	2.06633
3006.63198	2.02910
3004.70342	1.99227
3002.77485	1.95606
3000.84629	1.92054
2998.91772	1.88598
2996.98916	1.85228
2995.06060	1.81861
2993.13203	1.78521
2991.20347	1.75296
2989.27490	1.72154
2987.34634	1.69049
2985.41777	1.65963
2983.48921	1.62886
2981.56064	1.59831
2979.63208	1.56840
2977.70352	1.53952
2975.77495	1.51128
2973.84639	1.48319
2971.91782	1.45504
2969.98926	1.42700
2968.06069	1.39976
2966.13213	1.37344
2964.20356	1.34740
2962.27500	1.32173
2960.34644	1.29699
2958.41787	1.27309
2956.48931	1.24974
2954.56074	1.22656
2952.63218	1.20336
2950.70361	1.18085
2948.77505	1.15924
2946.84648	1.13792
2944.91792	1.11696
2942.98936	1.09650
2941.06079	1.07588
2939.13223	1.05460
2937.20366	1.03352
2935.27510	1.01352
2933.34653	0.99412
2931.41797	0.97482
2929.48940	0.95572
2927.56084	0.93691
2925.63228	0.91879
2923.70371	0.90209
2921.77515	0.88650
2919.84658	0.87101
2917.91802	0.85571
2915.98945	0.84093
2914.06089	0.82624
2912.13232	0.81163
2910.20376	0.79762
2908.27520	0.78439
2906.34663	0.77143
2904.41807	0.75858
2902.48950	0.74631
2900.56094	0.73416
2898.63237	0.72147
2896.70381	0.70905
2894.77524	0.69720
2892.84668	0.68512
2890.91812	0.67300
2888.98955	0.66163
2887.06099	0.65075
2885.13242	0.63976
2883.20386	0.62868
2881.27529	0.61787
2879.34673	0.60744
2877.41816	0.59731
2875.48960	0.58713
2873.56104	0.57673
2871.63247	0.56655
2869.70391	0.55650
2867.77534	0.54632
2865.84678	0.53641
2863.91821	0.52676
2861.98965	0.51711
2860.06108	0.50770
2858.13252	0.49866
2856.20396	0.48986
2854.27539	0.48139
2852.34683	0.47338
2850.41826	0.46565
2848.48970	0.45840
2846.56113	0.45197
2844.63257	0.44584
2842.70400	0.43956
2840.77544	0.43344
2838.84687	0.42761
2836.91831	0.42183
2834.98975	0.41599
2833.06118	0.40997
2831.13262	0.40393
2829.20405	0.39828
2827.27549	0.39287
2825.34692	0.38711
2823.41836	0.38101
2821.48979	0.37512
2819.56123	0.36970
2817.63267	0.36455
2815.70410	0.35938
2813.77554	0.35401
2811.84697	0.34853
2809.91841	0.34327
2807.98984	0.33834
2806.06128	0.33360
2804.13271	0.32884
2802.20415	0.32400
2800.27559	0.31938
2798.34702	0.31504
2796.41846	0.31068
2794.48989	0.30626
2792.56133	0.30195
2790.63276	0.29780
2788.70420	0.29369
2786.77563	0.28959
2784.84707	0.28549
2782.91851	0.28144
2780.98994	0.27764
2779.06138	0.27417
2777.13281	0.27080
2775.20425	0.26727
2773.27568	0.26368
2771.34712	0.26022
2769.41855	0.25681
2767.48999	0.25353
2765.56143	0.25057
2763.63286	0.24767
2761.70430	0.24466
2759.77573	0.24175
2757.84717	0.23883
2755.91860	0.23594
2753.99004	0.23332
2752.06147	0.23071
2750.13291	0.22793
2748.20435	0.22525
2746.27578	0.22269
2744.34722	0.22019
2742.41865	0.21773
2740.49009	0.21527
2738.56152	0.21290
2736.63296	0.21064
2734.70439	0.20839
2732.77583	0.20621
2730.84727	0.20418
2728.91870	0.20215
2726.99014	0.20007
2725.06157	0.19800
2723.13301	0.19601
2721.20444	0.19407
2719.27588	0.19210
2717.34731	0.19022
2715.41875	0.18858
2713.49019	0.18711
2711.56162	0.18557
2709.63306	0.18391
2707.70449	0.18233
2705.77593	0.18099
2703.84736	0.17965
2701.91880	0.17801
2699.99023	0.17633
2698.06167	0.17499
2696.13311	0.17381
2694.20454	0.17252
2692.27598	0.17115
2690.34741	0.16980
2688.41885	0.16853
2686.49028	0.16740
2684.56172	0.16633
2682.63315	0.16522
2680.70459	0.16412
2678.77603	0.16308
2676.84746	0.16215
2674.91890	0.16129
2672.99033	0.16039
2671.06177	0.15952
2669.13320	0.15864
2667.20464	0.15758
2665.27607	0.15649
2663.34751	0.15567
2661.41895	0.15504
2659.49038	0.15421
2657.56182	0.15324
2655.63325	0.15259
2653.70469	0.15227
2651.77612	0.15187
2649.84756	0.15127
2647.91899	0.15060
2645.99043	0.14996
2644.06187	0.14944
2642.13330	0.14907
2640.20474	0.14877
2638.27617	0.14841
2636.34761	0.14802
2634.41904	0.14761
2632.49048	0.14717
2630.56191	0.14681
2628.63335	0.14658
2626.70479	0.14642
2624.77622	0.14629
2622.84766	0.14618
2620.91909	0.14597
2618.99053	0.14577
2617.06196	0.14582
2615.13340	0.14584
2613.20483	0.14558
2611.27627	0.14538
2609.34771	0.14544
2607.41914	0.14558
2605.49058	0.14571
2603.56201	0.14582
2601.63345	0.14577
2599.70488	0.14561
2597.77632	0.14569
2595.84775	0.14598
2593.91919	0.14621
2591.99062	0.14639
2590.06206	0.14661
2588.13350	0.14684
2586.20493	0.14705
2584.27637	0.14712
2582.34780	0.14720
2580.41924	0.14753
2578.49067	0.14800
2576.56211	0.14847
2574.63354	0.14893
2572.70498	0.14930
2570.77642	0.14964
2568.84785	0.15006
2566.91929	0.15060
2564.99072	0.15114
2563.06216	0.15160
2561.13359	0.15201
2559.20503	0.15255
2557.27646	0.15322
2555.34790	0.15386
2553.41934	0.15440
2551.49077	0.15489
2549.56221	0.15558
2547.63364	0.15646
2545.70508	0.15720
2543.77651	0.15779
2541.84795	0.15849
2539.91938	0.15925
2537.99082	0.15982
2536.06226	0.16037
2534.13369	0.16116
2532.20513	0.16201
2530.27656	0.16273
2528.34800	0.16354
2526.41943	0.16450
2524.49087	0.16533
2522.56230	0.16598
2520.63374	0.16672
2518.70518	0.16758
2516.77661	0.16838
2514.84805	0.16912
2512.91948	0.16995
2510.99092	0.17085
2509.06235	0.17167
2507.13379	0.17234
2505.20522	0.17307
2503.27666	0.17401
2501.34810	0.17510
2499.41953	0.17624
2497.49097	0.17716
2495.56240	0.17790
2493.63384	0.17874
2491.70527	0.17969
2489.77671	0.18063
2487.84814	0.18158
2485.91958	0.18261
2483.99102	0.18355
2482.06245	0.18427
2480.13389	0.18498
2478.20532	0.18591
2476.27676	0.18702
2474.34819	0.18815
2472.41963	0.18914
2470.49106	0.19007
2468.56250	0.19104
2466.63394	0.19200
2464.70537	0.19286
2462.77681	0.19374
2460.84824	0.19480
2458.91968	0.19590
2456.99111	0.19697
2455.06255	0.19807
2453.13398	0.19917
2451.20542	0.20020
2449.27686	0.20117
2447.34829	0.20219
2445.41973	0.20330
2443.49116	0.20449
2441.56260	0.20567
2439.63403	0.20674
2437.70547	0.20774
2435.77690	0.20876
2433.84834	0.20971
2431.91978	0.21057
2429.99121	0.21159
2428.06265	0.21280
2426.13408	0.21400
2424.20552	0.21515
2422.27695	0.21631
2420.34839	0.21746
2418.41982	0.21866
2416.49126	0.21997
2414.56270	0.22122
2412.63413	0.22229
2410.70557	0.22325
2408.77700	0.22424
2406.84844	0.22539
2404.91987	0.22675
2402.99131	0.22806
2401.06274	0.22917
2399.13418	0.23030
2397.20562	0.23167
2395.27705	0.23312
2393.34849	0.23445
2391.41992	0.23570
2389.49136	0.23680
2387.56279	0.23769
2385.63423	0.23848
2383.70566	0.23913
2381.77710	0.23953
2379.84854	0.23971
2377.91997	0.23964
2375.99141	0.23909
2374.06284	0.23820
2372.13428	0.23734
2370.20571	0.23672
2368.27715	0.23612
2366.34858	0.23483
2364.42002	0.23285
2362.49146	0.23152
2360.56289	0.23254
2358.63433	0.23556
2356.70576	0.23861
2354.77720	0.24217
2352.84863	0.24727
2350.92007	0.25234
2348.99150	0.25556
2347.06294	0.25645
2345.13437	0.25551
2343.20581	0.25473
2341.27725	0.25613
2339.34868	0.25841
2337.42012	0.26011
2335.49155	0.26187
2333.56299	0.26417
2331.63442	0.26656
2329.70586	0.26891
2327.77729	0.27157
2325.84873	0.27434
2323.92017	0.27688
2321.99160	0.27937
2320.06304	0.28195
2318.13447	0.28467
2316.20591	0.28735
2314.27734	0.28984
2312.34878	0.29227
2310.42021	0.29483
2308.49165	0.29733
2306.56309	0.29962
2304.63452	0.30192
2302.70596	0.30431
2300.77739	0.30665
2298.84883	0.30885
2296.92026	0.31097
2294.99170	0.31307
2293.06313	0.31520
2291.13457	0.31736
2289.20601	0.31959
2287.27744	0.32202
2285.34888	0.32446
2283.42031	0.32669
2281.49175	0.32867
2279.56318	0.33056
2277.63462	0.33255
2275.70605	0.33459
2273.77749	0.33663
2271.84893	0.33872
2269.92036	0.34083
2267.99180	0.34302
2266.06323	0.34514
2264.13467	0.34709
2262.20610	0.34913
2260.27754	0.35136
2258.34897	0.35370
2256.42041	0.35605
2254.49185	0.35830
2252.56328	0.36057
2250.63472	0.36289
2248.70615	0.36501
2246.77759	0.36712
2244.84902	0.36948
2242.92046	0.37180
2240.99189	0.37387
2239.06333	0.37598
2237.13477	0.37827
2235.20620	0.38051
2233.27764	0.38276
2231.34907	0.38511
2229.42051	0.38740
2227.49194	0.38960
2225.56338	0.39182
2223.63481	0.39406
2221.70625	0.39631
2219.77769	0.39857
2217.84912	0.40084
2215.92056	0.40310
2213.99199	0.40526
2212.06343	0.40734
2210.13486	0.40942
2208.20630	0.41152
2206.27773	0.41368
2204.34917	0.41586
2202.42061	0.41801
2200.49204	0.42008
2198.56348	0.42199
2196.63491	0.42378
2194.70635	0.42564
2192.77778	0.42760
2190.84922	0.42953
2188.92065	0.43144
2186.99209	0.43332
2185.06353	0.43515
2183.13496	0.43697
2181.20640	0.43875
2179.27783	0.44042
2177.34927	0.44197
2175.42070	0.44348
2173.49214	0.44507
2171.56357	0.44656
2169.63501	0.44788
2167.70645	0.44915
2165.77788	0.45040
2163.84932	0.45166
2161.92075	0.45287
2159.99219	0.45397
2158.06362	0.45489
2156.13506	0.45573
2154.20649	0.45666
2152.27793	0.45756
2150.34937	0.45823
2148.42080	0.45878
2146.49224	0.45937
2144.56367	0.45986
2142.63511	0.46015
2140.70654	0.46042
2138.77798	0.46073
2136.84941	0.46093
2134.92085	0.46096
2132.99229	0.46085
2131.06372	0.46075
2129.13516	0.46067
2127.20659	0.46043
2125.27803	0.46001
2123.34946	0.45956
2121.42090	0.45909
2119.49233	0.45848
2117.56377	0.45782
2115.63521	0.45709
2113.70664	0.45619
2111.77808	0.45522
2109.84951	0.45426
2107.92095	0.45328
2105.99238	0.45218
2104.06382	0.45092
2102.13525	0.44963
2100.20669	0.44833
2098.27812	0.44686
2096.34956	0.44530
2094.42100	0.44383
2092.49243	0.44243
2090.56387	0.44092
2088.63530	0.43908
2086.70674	0.43701
2084.77817	0.43490
2082.84961	0.43285
2080.92104	0.43078
2078.99248	0.42871
2077.06392	0.42668
2075.13535	0.42458
2073.20679	0.42235
2071.27822	0.41999
2069.34966	0.41763
2067.42109	0.41539
2065.49253	0.41327
2063.56396	0.41093
2061.63540	0.40835
2059.70684	0.40577
2057.77827	0.40321
2055.84971	0.40053
2053.92114	0.39781
2051.99258	0.39525
2050.06401	0.39273
2048.13545	0.39018
2046.20688	0.38755
2044.27832	0.38487
2042.34976	0.38218
2040.42119	0.37942
2038.49263	0.37659
2036.56406	0.37373
2034.63550	0.37092
2032.70693	0.36819
2030.77837	0.36547
2028.84980	0.36265
2026.92124	0.35982
2024.99268	0.35702
2023.06411	0.35422
2021.13555	0.35146
2019.20698	0.34874
2017.27842	0.34597
2015.34985	0.34315
2013.42129	0.34041
2011.49272	0.33778
2009.56416	0.33515
2007.63560	0.33240
2005.70703	0.32960
2003.77847	0.32687
2001.84990	0.32423
1999.92134	0.32164
1997.99277	0.31910
1996.06421	0.31654
1994.13564	0.31402
1992.20708	0.31160
1990.27852	0.30907
1988.34995	0.30646
1986.42139	0.30397
1984.49282	0.30161
1982.56426	0.29924
1980.63569	0.29682
1978.70713	0.29442
1976.77856	0.29218
1974.85000	0.29012
1972.92144	0.28802
1970.99287	0.28588
1969.06431	0.28387
1967.13574	0.28192
1965.20718	0.27985
1963.27861	0.27775
1961.35005	0.27576
1959.42148	0.27388
1957.49292	0.27203
1955.56436	0.27018
1953.63579	0.26841
1951.70723	0.26676
1949.77866	0.26516
1947.85010	0.26354
1945.92153	0.26195
1943.99297	0.26044
1942.06440	0.25893
1940.13584	0.25743
1938.20728	0.25611
1936.27871	0.25491
1934.35015	0.25364
1932.42158	0.25227
1930.49302	0.25096
1928.56445	0.24983
1926.63589	0.24874
1924.70732	0.24771
1922.77876	0.24676
1920.85020	0.24591
1918.92163	0.24511
1916.99307	0.24428
1915.06450	0.24340
1913.13594	0.24247
1911.20737	0.24163
1909.27881	0.24088
1907.35024	0.24015
1905.42168	0.23951
1903.49312	0.23904
1901.56455	0.23867
1899.63599	0.23822
1897.70742	0.23775
1895.77886	0.23733
1893.85029	0.23697
1891.92173	0.23659
1889.99316	0.23626
1888.06460	0.23598
1886.13604	0.23570
1884.20747	0.23543
1882.27891	0.23528
1880.35034	0.23521
1878.42178	0.23513
1876.49321	0.23513
1874.56465	0.23517
1872.63608	0.23525
1870.70752	0.23542
1868.77896	0.23587
1866.85039	0.23630
1864.92183	0.23638
1862.99326	0.23642
1861.06470	0.23662
1859.13613	0.23698
1857.20757	0.23739
1855.27900	0.23786
1853.35044	0.23834
1851.42187	0.23894
1849.49331	0.23956
1847.56475	0.24012
1845.63618	0.24080
1843.70762	0.24182
1841.77905	0.24279
1839.85049	0.24331
1837.92192	0.24401
1835.99336	0.24497
1834.06479	0.24597
1832.13623	0.24688
1830.20767	0.24805
1828.27910	0.24942
1826.35054	0.25057
1824.42197	0.25192
1822.49341	0.25328
1820.56484	0.25455
1818.63628	0.25593
1816.70771	0.25759
1814.77915	0.25927
1812.85059	0.26106
1810.92202	0.26308
1808.99346	0.26514
1807.06489	0.26715
1805.13633	0.26910
1803.20776	0.27125
1801.27920	0.27371
1799.35063	0.27658
1797.42207	0.27924
1795.49351	0.28168
1793.56494	0.28444
1791.63638	0.28806
1789.70781	0.29168
1787.77925	0.29439
1785.85068	0.29739
1783.92212	0.30098
1781.99355	0.30498
1780.06499	0.30926
1778.13643	0.31367
1776.20786	0.31770
1774.27930	0.32185
1772.35073	0.32744
1770.42217	0.33372
1768.49360	0.33923
1766.56504	0.34465
1764.63647	0.35014
1762.70791	0.35591
1760.77935	0.36331
1758.85078	0.37051
1756.92222	0.37767
1754.99365	0.38538
1753.06509	0.39229
1751.13652	0.40039
1749.20796	0.41083
1747.27939	0.42144
1745.35083	0.43087
1743.42227	0.44086
1741.49370	0.45189
1739.56514	0.46475
1737.63657	0.47753
1735.70801	0.48852
1733.77944	0.50491
1731.85088	0.52495
1729.92231	0.54086
1727.99375	0.55668
1726.06519	0.57356
1724.13662	0.59199
1722.20806	0.61210
1720.27949	0.63069
1718.35093	0.65194
1716.42236	0.68334
1714.49380	0.71403
1712.56523	0.73930
1710.63667	0.76359
1708.70811	0.78933
1706.77954	0.81824
1704.85098	0.85258
1702.92241	0.88316
1700.99385	0.91301
1699.06528	0.95716
1697.13672	0.99804
1695.20815	1.04011
1693.27959	1.08059
1691.35103	1.11256
1689.42246	1.14899
1687.49390	1.18717
1685.56533	1.22351
1683.63677	1.27891
1681.70820	1.33661
1679.77964	1.37410
1677.85107	1.40998
1675.92251	1.45095
1673.99395	1.50027
1672.06538	1.54294
1670.13682	1.58458
1668.20825	1.63872
1666.27969	1.68199
1664.35112	1.71758
1662.42256	1.76109
1660.49399	1.80899
1658.56543	1.84617
1656.63687	1.87706
1654.70830	1.90688
1652.77974	1.95889
1650.85117	2.01125
1648.92261	2.03115
1646.99404	2.05714
1645.06548	2.09021
1643.13691	2.11337
1641.20835	2.12735
1639.27979	2.13850
1637.35122	2.14533
1635.42266	2.14825
1633.49409	2.14724
1631.56553	2.13946
1629.63696	2.12670
1627.70840	2.10304
1625.77983	2.07455
1623.85127	2.03936
1621.92271	1.99650
1619.99414	1.95807
1618.06558	1.91983
1616.13701	1.86421
1614.20845	1.80629
1612.27988	1.76146
1610.35132	1.71443
1608.42275	1.66305
1606.49419	1.61219
1604.56562	1.56550
1602.63706	1.52038
1600.70850	1.47543
1598.77993	1.43315
1596.85137	1.39344
1594.92280	1.35527
1592.99424	1.31809
1591.06567	1.28317
1589.13711	1.24976
1587.20854	1.21832
1585.27998	1.18900
1583.35142	1.16114
1581.42285	1.13511
1579.49429	1.11216
1577.56572	1.09066
1575.63716	1.06365
1573.70859	1.03949
1571.78003	1.02325
1569.85146	1.00520
1567.92290	0.98446
1565.99434	0.96778
1564.06577	0.95303
1562.13721	0.94062
1560.20864	0.93006
1558.28008	0.91035
1556.35151	0.89156
1554.42295	0.88039
1552.49438	0.86977
1550.56582	0.85943
1548.63726	0.84881
1546.70869	0.83936
1544.78013	0.83078
1542.85156	0.82203
1540.92300	0.81257
1538.99443	0.80053
1537.06587	0.79184
1535.13730	0.78605
1533.20874	0.77886
1531.28018	0.77096
1529.35161	0.76495
1527.42305	0.75921
1525.49448	0.75306
1523.56592	0.74745
1521.63735	0.74169
1519.70879	0.73544
1517.78022	0.73012
1515.85166	0.72465
1513.92310	0.71929
1511.99453	0.71487
1510.06597	0.71104
1508.13740	0.70757
1506.20884	0.70257
1504.28027	0.69760
1502.35171	0.69437
1500.42314	0.69166
1498.49458	0.68860
1496.56602	0.68486
1494.63745	0.68153
1492.70889	0.67902
1490.78032	0.67671
1488.85176	0.67390
1486.92319	0.67090
1484.99463	0.66825
1483.06606	0.66588
1481.13750	0.66360
1479.20894	0.66144
1477.28037	0.65941
1475.35181	0.65723
1473.42324	0.65484
1471.49468	0.65183
1469.56611	0.64877
1467.63755	0.64640
1465.70898	0.64437
1463.78042	0.64216
1461.85186	0.64001
1459.92329	0.63814
1457.99473	0.63609
1456.06616	0.63353
1454.13760	0.63114
1452.20903	0.62914
1450.28047	0.62720
1448.35190	0.62513
1446.42334	0.62287
1444.49478	0.62087
1442.56621	0.61924
1440.63765	0.61767
1438.70908	0.61605
1436.78052	0.61443
1434.85195	0.61299
1432.92339	0.61162
1430.99482	0.61016
1429.06626	0.60860
1427.13770	0.60718
1425.20913	0.60600
1423.28057	0.60486
1421.35200	0.60360
1419.42344	0.60211
1417.49487	0.60026
1415.56631	0.59842
1413.63774	0.59682
1411.70918	0.59521
1409.78062	0.59355
1407.85205	0.59201
1405.92349	0.59067
1403.99492	0.58922
1402.06636	0.58752
1400.13779	0.58584
1398.20923	0.58435
1396.28066	0.58301
1394.35210	0.58168
1392.42354	0.58045
1390.49497	0.57930
1388.56641	0.57820
1386.63784	0.57719
1384.70928	0.57615
1382.78071	0.57508
1380.85215	0.57405
1378.92358	0.57301
1376.99502	0.57192
1375.06646	0.57106
1373.13789	0.57056
1371.20933	0.57004
1369.28076	0.56936
1367.35220	0.56855
1365.42363	0.56758
1363.49507	0.56659
1361.56650	0.56569
1359.63794	0.56479
1357.70937	0.56391
1355.78081	0.56301
1353.85225	0.56201
1351.92368	0.56101
1349.99512	0.56004
1348.06655	0.55903
1346.13799	0.55800
1344.20942	0.55696
1342.28086	0.55594
1340.35229	0.55506
1338.42373	0.55415
1336.49517	0.55300
1334.56660	0.55179
1332.63804	0.55080
1330.70947	0.54996
1328.78091	0.54913
1326.85234	0.54835
1324.92378	0.54758
1322.99521	0.54679
1321.06665	0.54602
1319.13809	0.54528
1317.20952	0.54451
1315.28096	0.54367
1313.35239	0.54281
1311.42383	0.54198
1309.49526	0.54116
1307.56670	0.54034
1305.63813	0.53951
1303.70957	0.53866
1301.78101	0.53784
1299.85244	0.53695
1297.92388	0.53604
1295.99531	0.53514
1294.06675	0.53427
1292.13818	0.53351
1290.20962	0.53294
1288.28105	0.53248
1286.35249	0.53200
1284.42393	0.53157
1282.49536	0.53121
1280.56680	0.53074
1278.63823	0.53012
1276.70967	0.52957
1274.78110	0.52899
1272.85254	0.52827
1270.92397	0.52771
1268.99541	0.52731
1267.06685	0.52688
1265.13828	0.52648
1263.20972	0.52607
1261.28115	0.52565
1259.35259	0.52528
1257.42402	0.52488
1255.49546	0.52455
1253.56689	0.52426
1251.63833	0.52394
1249.70977	0.52364
1247.78120	0.52335
1245.85264	0.52298
1243.92407	0.52251
1241.99551	0.52196
1240.06694	0.52147
1238.13838	0.52094
1236.20981	0.52026
1234.28125	0.51961
1232.35269	0.51906
1230.42412	0.51854
1228.49556	0.51796
1226.56699	0.51719
1224.63843	0.51640
1222.70986	0.51569
1220.78130	0.51506
1218.85273	0.51447
1216.92417	0.51383
1214.99561	0.51305
1213.06704	0.51229
1211.13848	0.51164
1209.20991	0.51100
1207.28135	0.51043
1205.35278	0.51001
1203.42422	0.50950
1201.49565	0.50872
1199.56709	0.50800
1197.63853	0.50756
1195.70996	0.50704
1193.78140	0.50624
1191.85283	0.50542
1189.92427	0.50479
1187.99570	0.50442
1186.06714	0.50427
1184.13857	0.50412
1182.21001	0.50398
1180.28145	0.50415
1178.35288	0.50462
1176.42432	0.50520
1174.49575	0.50579
1172.56719	0.50647
1170.63862	0.50721
1168.71006	0.50807
1166.78149	0.50905
1164.85293	0.50981
1162.92437	0.51027
1160.99580	0.51075
1159.06724	0.51112
1157.13867	0.51099
1155.21011	0.51042
1153.28154	0.50953
1151.35298	0.50830
1149.42441	0.50660
1147.49585	0.50443
1145.56729	0.50198
1143.63872	0.49952
1141.71016	0.49730
1139.78159	0.49533
1137.85303	0.49350
1135.92446	0.49175
1133.99590	0.49013
1132.06733	0.48881
1130.13877	0.48788
1128.21021	0.48718
1126.28164	0.48654
1124.35308	0.48593
1122.42451	0.48545
1120.49595	0.48504
1118.56738	0.48454
1116.63882	0.48405
1114.71025	0.48395
1112.78169	0.48444
1110.85312	0.48536
1108.92456	0.48627
1106.99600	0.48700
1105.06743	0.48795
1103.13887	0.48917
1101.21030	0.49047
1099.28174	0.49196
1097.35317	0.49391
1095.42461	0.49655
1093.49604	0.50024
1091.56748	0.50516
1089.63892	0.51114
1087.71035	0.51803
1085.78179	0.52574
1083.85322	0.53391
1081.92466	0.54138
1079.99609	0.54699
1078.06753	0.55048
1076.13896	0.55157
1074.21040	0.54970
1072.28184	0.54488
1070.35327	0.53815
1068.42471	0.53099
1066.49614	0.52433
1064.56758	0.51831
1062.63901	0.51274
1060.71045	0.50759
1058.78188	0.50312
1056.85332	0.49953
1054.92476	0.49652
1052.99619	0.49377
1051.06763	0.49140
1049.13906	0.48972
1047.21050	0.48897
1045.28193	0.48906
1043.35337	0.48954
1041.42480	0.48998
1039.49624	0.49026
1037.56768	0.49029
1035.63911	0.48989
1033.71055	0.48906
1031.78198	0.48818
1029.85342	0.48746
1027.92485	0.48679
1025.99629	0.48604
1024.06772	0.48528
1022.13916	0.48475
1020.21060	0.48464
1018.28203	0.48490
1016.35347	0.48532
1014.42490	0.48573
1012.49634	0.48617
1010.56777	0.48673
1008.63921	0.48730
1006.71064	0.48805
1004.78208	0.48945
1002.85352	0.49152
1000.92495	0.49408
998.99639	0.49723
997.06782	0.50100
995.13926	0.50512
993.21069	0.50904
991.28213	0.51199
989.35356	0.51383
987.42500	0.51485
985.49644	0.51514
983.56787	0.51532
981.63931	0.51605
979.71074	0.51745
977.78218	0.51943
975.85361	0.52176
973.92505	0.52437
971.99648	0.52744
970.06792	0.53098
968.13936	0.53477
966.21079	0.53878
964.28223	0.54327
962.35366	0.54823
960.42510	0.55323
958.49653	0.55833
956.56797	0.56399
954.63940	0.57018
952.71084	0.57665
950.78228	0.58323
948.85371	0.58962
946.92515	0.59571
944.99658	0.60175
943.06802	0.60790
941.13945	0.61416
939.21089	0.62055
937.28232	0.62656
935.35376	0.63182
933.42520	0.63711
931.49663	0.64303
929.56807	0.64889
927.63950	0.65439
925.71094	0.66041
923.78237	0.66736
921.85381	0.67488
919.92524	0.68215
917.99668	0.68869
916.06812	0.69518
914.13955	0.70218
912.21099	0.70993
910.28242	0.71862
908.35386	0.72790
906.42529	0.73718
904.49673	0.74631
902.56816	0.75535
900.63960	0.76440
898.71104	0.77375
896.78247	0.78360
894.85391	0.79427
892.92534	0.80554
890.99678	0.81637
889.06821	0.82687
887.13965	0.83844
885.21108	0.85034
883.28252	0.86136
881.35396	0.87257
879.42539	0.88380
877.49683	0.89421
875.56826	0.90463
873.63970	0.91634
871.71113	0.92973
869.78257	0.94258
867.85400	0.95357
865.92544	0.96460
863.99687	0.97732
862.06831	0.99040
860.13975	1.00055
858.21118	1.00918
856.28262	1.02033
854.35405	1.03342
852.42549	1.04671
850.49692	1.05940
848.56836	1.07057
846.63979	1.08261
844.71123	1.09648
842.78267	1.10905
840.85410	1.12070
838.92554	1.13150
836.99697	1.14057
835.06841	1.15262
833.13984	1.16834
831.21128	1.18162
829.28271	1.19387
827.35415	1.21142
825.42559	1.23229
823.49702	1.24992
821.56846	1.26238
819.63989	1.27799
817.71133	1.30107
815.78276	1.32339
813.85420	1.33242
811.92563	1.32626
809.99707	1.33057
808.06851	1.35885
806.13994	1.38294
804.21138	1.38255
802.28281	1.37787
800.35425	1.39425
798.42568	1.45599
796.49712	1.55982
794.56855	1.67471
792.63999	1.78407
790.71143	1.75277
788.78286	1.61724
786.85430	1.57555
784.92573	1.64916
782.99717	1.76041
781.06860	1.80160
779.14004	1.96004
777.21147	2.04585
775.28291	1.62802
773.35435	1.41772
771.42578	1.31980
769.49722	1.22990
767.56865	1.20238
765.64009	1.26370
763.71152	1.50488
761.78296	2.16252
759.85439	2.03919
757.92583	1.63036
755.99727	1.38840
754.06870	1.19973
752.14014	1.10037
750.21157	1.07560
748.28301	1.09284
746.35444	1.08076
744.42588	0.99521
742.49731	0.90838
740.56875	0.83185
738.64019	0.77172
736.71162	0.77200
734.78306	0.72315
732.85449	0.53248
730.92593	0.37672
728.99736	0.28583
727.06880	0.20330
725.14023	0.10613
723.21167	-0.05096
721.28311	-0.57960
719.35454	4.31613
717.42598	4.30456
715.49741	-0.54910
713.56885	-0.28159
711.64028	0.00770
709.71172	0.16501
707.78315	0.20579
705.85459	0.23522
703.92603	0.32211
701.99746	0.41832
700.06890	0.40044
698.14033	0.29877
696.21177	0.24070
694.28320	0.25839
692.35464	0.29247
690.42607	0.31834
688.49751	0.32718
686.56895	0.30513
684.64038	0.25301
682.71182	0.22343
680.78325	0.24286
678.85469	0.28813
676.92612	0.32148
674.99756	0.31347
673.06899	0.30897
671.14043	0.31894
669.21187	0.29222
667.28330	0.24903
665.35474	0.24564
663.42617	0.26847
661.49761	0.27544
659.56904	0.27068
657.64048	0.27588
655.71191	0.29523
653.78335	0.28281
651.85479	0.24845
649.92622	0.26686
647.99766	0.30558
646.06909	0.30395
644.14053	0.28412
642.21196	0.26072
640.28340	0.22365
638.35483	0.16362
636.42627	0.14735
634.49771	0.21736
632.56914	0.29344
630.64058	0.29748
628.71201	0.28227
626.78345	0.23846
624.85488	0.21657
622.92632	0.29421
620.99775	0.36782
619.06919	0.34029
617.14062	0.28922
615.21206	0.25157
613.28350	0.23612
611.35493	0.25745
609.42637	0.28389
607.49780	0.25193
605.56924	0.20713
603.64067	0.21839
601.71211	0.25372
599.78354	0.26718
597.85498	0.27508
595.92642	0.29448
593.99785	0.28042
592.06929	0.24161
590.14072	0.23530
588.21216	0.25714
586.28359	0.25875
584.35503	0.23406
582.42646	0.21544
580.49790	0.23621
578.56934	0.30914
576.64077	0.33079
574.71221	0.25139
572.78364	0.19287
570.85508	0.19321
568.92651	0.19631
566.99795	0.19810
565.06938	0.24237
563.14082	0.29846
561.21226	0.31683
559.28369	0.29308
557.35513	0.24832
555.42656	0.19627
553.49800	0.16682
551.56943	0.18158
549.64087	0.20253
547.71230	0.20301
545.78374	0.21493
543.85518	0.23123
541.92661	0.23471
539.99805	0.23785
538.06948	0.20704
536.14092	0.17142
534.21235	0.16612
532.28379	0.15763
530.35522	0.14528
528.42666	0.14803
526.49810	0.18021
524.56953	0.25567
522.64097	0.30054
520.71240	0.24419
518.78384	0.19225
516.85527	0.21944
514.92671	0.30348
512.99814	0.33733
511.06958	0.29436
509.14102	0.22528
507.21245	0.18221
505.28389	0.17852
503.35532	0.20408
501.42676	0.23782
499.49819	0.22073
