3997.91411	0.06343
3995.98555	0.06310
3994.05698	0.06287
3992.12842	0.06306
3990.19985	0.06349
3988.27129	0.06382
3986.34272	0.06377
3984.41416	0.06369
3982.48560	0.06404
3980.55703	0.06448
3978.62847	0.06485
3976.69990	0.06544
3974.77134	0.06589
3972.84277	0.06604
3970.91421	0.06613
3968.98564	0.06618
3967.05708	0.06603
3965.12852	0.06587
3963.19995	0.06604
3961.27139	0.06629
3959.34282	0.06614
3957.41426	0.06566
3955.48569	0.06536
3953.55713	0.06561
3951.62856	0.06621
3949.70000	0.06672
3947.77144	0.06689
3945.84287	0.06681
3943.91431	0.06661
3941.98574	0.06659
3940.05718	0.06681
3938.12861	0.06689
3936.20005	0.06665
3934.27148	0.06617
3932.34292	0.06583
3930.41436	0.06610
3928.48579	0.06633
3926.55723	0.06579
3924.62866	0.06527
3922.70010	0.06540
3920.77153	0.06569
3918.84297	0.06592
3916.91440	0.06638
3914.98584	0.06653
3913.05728	0.06605
3911.12871	0.06561
3909.20015	0.06541
3907.27158	0.06526
3905.34302	0.06502
3903.41445	0.06478
3901.48589	0.06509
3899.55732	0.06573
3897.62876	0.06555
3895.70020	0.06507
3893.77163	0.06542
3891.84307	0.06619
3889.91450	0.06627
3887.98594	0.06594
3886.05737	0.06625
3884.12881	0.06682
3882.20024	0.06649
3880.27168	0.06591
3878.34312	0.06599
3876.41455	0.06610
3874.48599	0.06603
3872.55742	0.06630
3870.62886	0.06701
3868.70029	0.06778
3866.77173	0.06797
3864.84316	0.06794
3862.91460	0.06830
3860.98604	0.06870
3859.05747	0.06870
3857.12891	0.06830
3855.20034	0.06778
3853.27178	0.06814
3851.34321	0.07024
3849.41465	0.07158
3847.48608	0.07201
3845.55752	0.07238
3843.62896	0.07278
3841.70039	0.07319
3839.77183	0.07365
3837.84326	0.07446
3835.91470	0.07530
3833.98613	0.07563
3832.05757	0.07588
3830.12900	0.07633
3828.20044	0.07670
3826.27187	0.07706
3824.34331	0.07767
3822.41475	0.07871
3820.48618	0.08040
3818.55762	0.08151
3816.62905	0.08186
3814.70049	0.08302
3812.77192	0.08430
3810.84336	0.08495
3808.91479	0.08554
3806.98623	0.08641
3805.05767	0.08740
3803.12910	0.08840
3801.20054	0.08997
3799.27197	0.09185
3797.34341	0.09303
3795.41484	0.09388
3793.48628	0.09485
3791.55771	0.09615
3789.62915	0.09759
3787.70059	0.09892
3785.77202	0.10023
3783.84346	0.10135
3781.91489	0.10225
3779.98633	0.10340
3778.05776	0.10511
3776.12920	0.10721
3774.20063	0.10915
3772.27207	0.11073
3770.34351	0.11251
3768.41494	0.11481
3766.48638	0.11699
3764.55781	0.11905
3762.62925	0.12077
3760.70068	0.12239
3758.77212	0.12484
3756.84355	0.12758
3754.91499	0.12953
3752.98643	0.13135
3751.05786	0.13416
3749.12930	0.13803
3747.20073	0.14093
3745.27217	0.14301
3743.34360	0.14626
3741.41504	0.14977
3739.48647	0.15231
3737.55791	0.15518
3735.62935	0.15949
3733.70078	0.16504
3731.77222	0.17017
3729.84365	0.17464
3727.91509	0.17911
3725.98652	0.18469
3724.05796	0.19139
3722.12939	0.19765
3720.20083	0.20356
3718.27227	0.21033
3716.34370	0.21801
3714.41514	0.22580
3712.48657	0.23481
3710.55801	0.24741
3708.62944	0.26115
3706.70088	0.27268
3704.77231	0.28391
3702.84375	0.29689
3700.91519	0.31306
3698.98662	0.33078
3697.05806	0.34823
3695.12949	0.36693
3693.20093	0.38634
3691.27236	0.40652
3689.34380	0.43226
3687.41523	0.46525
3685.48667	0.49556
3683.55811	0.52185
3681.62954	0.54962
3679.70098	0.58030
3677.77241	0.61178
3675.84385	0.64850
3673.91528	0.69905
3671.98672	0.74215
3670.05815	0.78108
3668.12959	0.83394
3666.20103	0.88215
3664.27246	0.92235
3662.34390	0.96536
3660.41533	1.01195
3658.48677	1.05794
3656.55820	1.10601
3654.62964	1.15881
3652.70107	1.20344
3650.77251	1.24242
3648.84395	1.29607
3646.91538	1.36261
3644.98682	1.41257
3643.05825	1.45154
3641.12969	1.49205
3639.20112	1.53685
3637.27256	1.58077
3635.34399	1.62240
3633.41543	1.66406
3631.48687	1.70306
3629.55830	1.74281
3627.62974	1.79623
3625.70117	1.84688
3623.77261	1.88148
3621.84404	1.91458
3619.91548	1.95202
3617.98691	1.99638
3616.05835	2.03858
3614.12979	2.07428
3612.20122	2.11226
3610.27266	2.15062
3608.34409	2.18964
3606.41553	2.23191
3604.48696	2.27191
3602.55840	2.30758
3600.62983	2.34444
3598.70127	2.38392
3596.77271	2.42443
3594.84414	2.46705
3592.91558	2.51013
3590.98701	2.54915
3589.05845	2.58434
3587.12988	2.62571
3585.20132	2.67447
3583.27275	2.71869
3581.34419	2.75716
3579.41562	2.79550
3577.48706	2.83639
3575.55850	2.87950
3573.62993	2.92424
3571.70137	2.96610
3569.77280	3.00495
3567.84424	3.04817
3565.91567	3.10269
3563.98711	3.15388
3562.05854	3.19413
3560.12998	3.23476
3558.20142	3.27901
3556.27285	3.32504
3554.34429	3.37012
3552.41572	3.41538
3550.48716	3.46116
3548.55859	3.50547
3546.63003	3.54996
3544.70146	3.59830
3542.77290	3.64850
3540.84434	3.69662
3538.91577	3.74228
3536.98721	3.78782
3535.05864	3.83663
3533.13008	3.88440
3531.20151	3.92943
3529.27295	3.97742
3527.34438	4.02945
3525.41582	4.07776
3523.48726	4.12253
3521.55869	4.17001
3519.63013	4.21516
3517.70156	4.25668
3515.77300	4.30322
3513.84443	4.35874
3511.91587	4.41596
3509.98730	4.46948
3508.05874	4.51750
3506.13018	4.55789
3504.20161	4.59740
3502.27305	4.64559
3500.34448	4.70027
3498.41592	4.75093
3496.48735	4.79645
3494.55879	4.84493
3492.63022	4.89776
3490.70166	4.94585
3488.77310	4.98962
3486.84453	5.03753
3484.91597	5.09189
3482.98740	5.14790
3481.05884	5.19596
3479.13027	5.23696
3477.20171	5.28431
3475.27314	5.33436
3473.34458	5.37622
3471.41602	5.41641
3469.48745	5.46228
3467.55889	5.51521
3465.63032	5.57256
3463.70176	5.62843
3461.77319	5.68008
3459.84463	5.72641
3457.91606	5.76904
3455.98750	5.81552
3454.05894	5.87027
3452.13037	5.92924
3450.20181	5.98255
3448.27324	6.02590
3446.34468	6.07292
3444.41611	6.12545
3442.48755	6.16769
3440.55898	6.20509
3438.63042	6.25710
3436.70186	6.31323
3434.77329	6.36071
3432.84473	6.41298
3430.91616	6.47181
3428.98760	6.52027
3427.05903	6.55641
3425.13047	6.60929
3423.20190	6.67561
3421.27334	6.73238
3419.34478	6.78508
3417.41621	6.84076
3415.48765	6.88936
3413.55908	6.93309
3411.63052	6.99671
3409.70195	7.05044
3407.77339	7.05597
3405.84482	7.05280
3403.91626	7.08421
3401.98770	7.12747
3400.05913	7.15246
3398.13057	7.16468
3396.20200	7.20608
3394.27344	7.29622
3392.34487	7.36646
3390.41631	7.39165
3388.48774	7.42306
3386.55918	7.49139
3384.63062	7.55800
3382.70205	7.58223
3380.77349	7.59845
3378.84492	7.65228
3376.91636	7.73476
3374.98779	7.78370
3373.05923	7.77366
3371.13066	7.73143
3369.20210	7.72827
3367.27354	7.79152
3365.34497	7.86658
3363.41641	7.88132
3361.48784	7.87346
3359.55928	7.91521
3357.63071	7.94729
3355.70215	7.95966
3353.77358	7.98701
3351.84502	8.01481
3349.91646	8.04300
3347.98789	8.05454
3346.05933	8.01242
3344.13076	7.98900
3342.20220	8.07078
3340.27363	8.18555
3338.34507	8.21098
3336.41650	8.15539
3334.48794	8.14772
3332.55937	8.23119
3330.63081	8.33723
3328.70225	8.36870
3326.77368	8.29479
3324.84512	8.14133
3322.91655	7.98855
3320.98799	7.95347
3319.05942	8.04566
3317.13086	8.20232
3315.20229	8.28140
3313.27373	8.23920
3311.34517	8.19334
3309.41660	8.18574
3307.48804	8.22346
3305.55947	8.25441
3303.63091	8.20286
3301.70234	8.12099
3299.77378	8.09868
3297.84521	8.14521
3295.91665	8.22764
3293.98809	8.29442
3292.05952	8.34706
3290.13096	8.36610
3288.20239	8.29518
3286.27383	8.21079
3284.34526	8.19646
3282.41670	8.27109
3280.48813	8.39570
3278.55957	8.46823
3276.63101	8.40757
3274.70244	8.26031
3272.77388	8.12440
3270.84531	8.08004
3268.91675	8.14294
3266.98818	8.25109
3265.05962	8.33748
3263.13105	8.34751
3261.20249	8.28532
3259.27393	8.19494
3257.34536	8.11638
3255.41680	8.09942
3253.48823	8.23653
3251.55967	8.42950
3249.63110	8.40822
3247.70254	8.33635
3245.77397	8.38600
3243.84541	8.40807
3241.91685	8.33128
3239.98828	8.25010
3238.05972	8.19523
3236.13115	8.20394
3234.20259	8.29671
3232.27402	8.31897
3230.34546	8.19479
3228.41689	8.09914
3226.48833	8.12827
3224.55977	8.19993
3222.63120	8.21236
3220.70264	8.13903
3218.77407	8.04355
3216.84551	8.00449
3214.91694	8.02353
3212.98838	8.05515
3211.05981	8.02645
3209.13125	7.93013
3207.20269	7.89230
3205.27412	7.95762
3203.34556	7.98212
3201.41699	7.89314
3199.48843	7.80036
3197.55986	7.77775
3195.63130	7.75948
3193.70273	7.69054
3191.77417	7.64497
3189.84561	7.62788
3187.91704	7.57801
3185.98848	7.50026
3184.05991	7.43027
3182.13135	7.39798
3180.20278	7.40291
3178.27422	7.39162
3176.34565	7.32239
3174.41709	7.22156
3172.48853	7.12206
3170.55996	7.02831
3168.63140	6.95554
3166.70283	6.91843
3164.77427	6.87812
3162.84570	6.80163
3160.91714	6.72114
3158.98857	6.67224
3157.06001	6.64871
3155.13145	6.60828
3153.20288	6.52507
3151.27432	6.42737
3149.34575	6.34698
3147.41719	6.28762
3145.48862	6.24386
3143.56006	6.19632
3141.63149	6.12670
3139.70293	6.04885
3137.77437	5.97640
3135.84580	5.90281
3133.91724	5.82487
3131.98867	5.75067
3130.06011	5.68791
3128.13154	5.62674
3126.20298	5.55488
3124.27441	5.47428
3122.34585	5.39280
3120.41729	5.32256
3118.48872	5.26094
3116.56016	5.19097
3114.63159	5.11229
3112.70303	5.03645
3110.77446	4.96897
3108.84590	4.90561
3106.91733	4.83623
3104.98877	4.76169
3103.06021	4.69141
3101.13164	4.62596
3099.20308	4.56304
3097.27451	4.50194
3095.34595	4.43934
3093.41738	4.37370
3091.48882	4.30843
3089.56025	4.24555
3087.63169	4.18156
3085.70312	4.11440
3083.77456	4.04778
3081.84600	3.98435
3079.91743	3.92258
3077.98887	3.86199
3076.06030	3.80215
3074.13174	3.74234
3072.20317	3.68346
3070.27461	3.62507
3068.34604	3.56671
3066.41748	3.50903
3064.48892	3.45121
3062.56035	3.39321
3060.63179	3.33797
3058.70322	3.28484
3056.77466	3.23008
3054.84609	3.17389
3052.91753	3.11923
3050.98896	3.06740
3049.06040	3.01641
3047.13184	2.96503
3045.20327	2.91492
3043.27471	2.86662
3041.34614	2.81820
3039.41758	2.76874
3037.48901	2.72021
3035.56045	2.67356
3033.63188	2.62764
3031.70332	2.58223
3029.77476	2.53751
3027.84619	2.49336
3025.91763	2.44991
3023.98906	2.40671
3022.06050	2.36337
3020.13193	2.32101
3018.20337	2.28035
3016.27480	2.24030
3014.34624	2.20037
3012.41768	2.16128
3010.48911	2.12338
3008.56055	2.08628
3006.63198	2.04960
3004.70342	2.01319
3002.77485	1.97713
3000.84629	1.94153
2998.91772	1.90670
2996.98916	1.87335
2995.06060	1.84127
2993.13203	1.80956
2991.20347	1.77813
2989.27490	1.74704
2987.34634	1.71631
2985.41777	1.68629
2983.48921	1.65725
2981.56064	1.62882
2979.63208	1.60054
2977.70352	1.57270
2975.77495	1.54542
2973.84639	1.51846
2971.91782	1.49210
2969.98926	1.46679
2968.06069	1.44203
2966.13213	1.41693
2964.20356	1.39161
2962.27500	1.36671
2960.34644	1.34191
2958.41787	1.31681
2956.48931	1.29249
2954.56074	1.26942
2952.63218	1.24678
2950.70361	1.22441
2948.77505	1.20223
2946.84648	1.18025
2944.91792	1.15902
2942.98936	1.13813
2941.06079	1.11692
2939.13223	1.09557
2937.20366	1.07472
2935.27510	1.05472
2933.34653	1.03501
2931.41797	1.01471
2929.48940	0.99424
2927.56084	0.97494
2925.63228	0.95669
2923.70371	0.93902
2921.77515	0.92240
2919.84658	0.90632
2917.91802	0.88992
2915.98945	0.87362
2914.06089	0.85805
2912.13232	0.84334
2910.20376	0.82893
2908.27520	0.81428
2906.34663	0.79969
2904.41807	0.78582
2902.48950	0.77306
2900.56094	0.76065
2898.63237	0.74761
2896.70381	0.73448
2894.77524	0.72204
2892.84668	0.70995
2890.91812	0.69806
2888.98955	0.68669
2887.06099	0.67546
2885.13242	0.66433
2883.20386	0.65378
2881.27529	0.64377
2879.34673	0.63403
2877.41816	0.62430
2875.48960	0.61434
2873.56104	0.60405
2871.63247	0.59372
2869.70391	0.58335
2867.77534	0.57255
2865.84678	0.56157
2863.91821	0.55061
2861.98965	0.53960
2860.06108	0.52875
2858.13252	0.51816
2856.20396	0.50815
2854.27539	0.49891
2852.34683	0.49025
2850.41826	0.48232
2848.48970	0.47551
2846.56113	0.46930
2844.63257	0.46282
2842.70400	0.45596
2840.77544	0.44917
2838.84687	0.44268
2836.91831	0.43653
2834.98975	0.43066
2833.06118	0.42488
2831.13262	0.41911
2829.20405	0.41329
2827.27549	0.40733
2825.34692	0.40121
2823.41836	0.39515
2821.48979	0.38944
2819.56123	0.38403
2817.63267	0.37878
2815.70410	0.37359
2813.77554	0.36822
2811.84697	0.36260
2809.91841	0.35696
2807.98984	0.35151
2806.06128	0.34637
2804.13271	0.34151
2802.20415	0.33672
2800.27559	0.33192
2798.34702	0.32716
2796.41846	0.32246
2794.48989	0.31778
2792.56133	0.31326
2790.63276	0.30899
2788.70420	0.30477
2786.77563	0.30060
2784.84707	0.29663
2782.91851	0.29263
2780.98994	0.28849
2779.06138	0.28444
2777.13281	0.28067
2775.20425	0.27701
2773.27568	0.27332
2771.34712	0.26965
2769.41855	0.26605
2767.48999	0.26265
2765.56143	0.25946
2763.63286	0.25613
2761.70430	0.25274
2759.77573	0.24955
2757.84717	0.24644
2755.91860	0.24335
2753.99004	0.24038
2752.06147	0.23750
2750.13291	0.23469
2748.20435	0.23201
2746.27578	0.22949
2744.34722	0.22705
2742.41865	0.22459
2740.49009	0.22215
2738.56152	0.21963
2736.63296	0.21699
2734.70439	0.21441
2732.77583	0.21194
2730.84727	0.20967
2728.91870	0.20751
2726.99014	0.20523
2725.06157	0.20298
2723.13301	0.20094
2721.20444	0.19892
2719.27588	0.19695
2717.34731	0.19515
2715.41875	0.19339
2713.49019	0.19160
2711.56162	0.18979
2709.63306	0.18798
2707.70449	0.18633
2705.77593	0.18488
2703.84736	0.18340
2701.91880	0.18186
2699.99023	0.18046
2698.06167	0.17919
2696.13311	0.17786
2694.20454	0.17644
2692.27598	0.17495
2690.34741	0.17347
2688.41885	0.17222
2686.49028	0.17121
2684.56172	0.17016
2682.63315	0.16892
2680.70459	0.16758
2678.77603	0.16642
2676.84746	0.16554
2674.91890	0.16468
2672.99033	0.16377
2671.06177	0.16283
2669.13320	0.16178
2667.20464	0.16064
2665.27607	0.15963
2663.34751	0.15880
2661.41895	0.15804
2659.49038	0.15722
2657.56182	0.15626
2655.63325	0.15531
2653.70469	0.15460
2651.77612	0.15407
2649.84756	0.15363
2647.91899	0.15317
2645.99043	0.15265
2644.06187	0.15211
2642.13330	0.15154
2640.20474	0.15090
2638.27617	0.15021
2636.34761	0.14970
2634.41904	0.14933
2632.49048	0.14896
2630.56191	0.14863
2628.63335	0.14837
2626.70479	0.14813
2624.77622	0.14795
2622.84766	0.14794
2620.91909	0.14789
2618.99053	0.14759
2617.06196	0.14722
2615.13340	0.14695
2613.20483	0.14668
2611.27627	0.14649
2609.34771	0.14647
2607.41914	0.14650
2605.49058	0.14659
2603.56201	0.14674
2601.63345	0.14672
2599.70488	0.14658
2597.77632	0.14664
2595.84775	0.14675
2593.91919	0.14676
2591.99062	0.14675
2590.06206	0.14672
2588.13350	0.14675
2586.20493	0.14693
2584.27637	0.14715
2582.34780	0.14739
2580.41924	0.14764
2578.49067	0.14796
2576.56211	0.14842
2574.63354	0.14883
2572.70498	0.14910
2570.77642	0.14940
2568.84785	0.14977
2566.91929	0.15023
2564.99072	0.15082
2563.06216	0.15132
2561.13359	0.15169
2559.20503	0.15204
2557.27646	0.15244
2555.34790	0.15303
2553.41934	0.15379
2551.49077	0.15441
2549.56221	0.15482
2547.63364	0.15530
2545.70508	0.15595
2543.77651	0.15661
2541.84795	0.15729
2539.91938	0.15795
2537.99082	0.15849
2536.06226	0.15901
2534.13369	0.15966
2532.20513	0.16037
2530.27656	0.16111
2528.34800	0.16200
2526.41943	0.16300
2524.49087	0.16390
2522.56230	0.16458
2520.63374	0.16513
2518.70518	0.16575
2516.77661	0.16649
2514.84805	0.16730
2512.91948	0.16822
2510.99092	0.16912
2509.06235	0.16985
2507.13379	0.17049
2505.20522	0.17129
2503.27666	0.17221
2501.34810	0.17311
2499.41953	0.17400
2497.49097	0.17483
2495.56240	0.17556
2493.63384	0.17628
2491.70527	0.17715
2489.77671	0.17815
2487.84814	0.17914
2485.91958	0.18004
2483.99102	0.18090
2482.06245	0.18177
2480.13389	0.18264
2478.20532	0.18353
2476.27676	0.18446
2474.34819	0.18536
2472.41963	0.18618
2470.49106	0.18701
2468.56250	0.18792
2466.63394	0.18882
2464.70537	0.18972
2462.77681	0.19070
2460.84824	0.19173
2458.91968	0.19270
2456.99111	0.19360
2455.06255	0.19464
2453.13398	0.19581
2451.20542	0.19686
2449.27686	0.19771
2447.34829	0.19860
2445.41973	0.19967
2443.49116	0.20079
2441.56260	0.20181
2439.63403	0.20274
2437.70547	0.20367
2435.77690	0.20464
2433.84834	0.20572
2431.91978	0.20684
2429.99121	0.20791
2428.06265	0.20906
2426.13408	0.21026
2424.20552	0.21134
2422.27695	0.21243
2420.34839	0.21357
2418.41982	0.21468
2416.49126	0.21577
2414.56270	0.21686
2412.63413	0.21786
2410.70557	0.21887
2408.77700	0.22010
2406.84844	0.22152
2404.91987	0.22291
2402.99131	0.22402
2401.06274	0.22501
2399.13418	0.22612
2397.20562	0.22733
2395.27705	0.22857
2393.34849	0.22987
2391.41992	0.23124
2389.49136	0.23254
2387.56279	0.23370
2385.63423	0.23497
2383.70566	0.23660
2381.77710	0.23854
2379.84854	0.24060
2377.91997	0.24275
2375.99141	0.24500
2374.06284	0.24730
2372.13428	0.24992
2370.20571	0.25307
2368.27715	0.25625
2366.34858	0.25901
2364.42002	0.26167
2362.49146	0.26439
2360.56289	0.26689
2358.63433	0.26867
2356.70576	0.26977
2354.77720	0.27060
2352.84863	0.27073
2350.92007	0.26995
2348.99150	0.26931
2347.06294	0.26981
2345.13437	0.27207
2343.20581	0.27539
2341.27725	0.27805
2339.34868	0.27984
2337.42012	0.28144
2335.49155	0.28328
2333.56299	0.28470
2331.63442	0.28559
2329.70586	0.28665
2327.77729	0.28819
2325.84873	0.28971
2323.92017	0.29088
2321.99160	0.29185
2320.06304	0.29287
2318.13447	0.29395
2316.20591	0.29492
2314.27734	0.29605
2312.34878	0.29749
2310.42021	0.29900
2308.49165	0.30035
2306.56309	0.30152
2304.63452	0.30279
2302.70596	0.30440
2300.77739	0.30612
2298.84883	0.30770
2296.92026	0.30922
2294.99170	0.31081
2293.06313	0.31253
2291.13457	0.31438
2289.20601	0.31632
2287.27744	0.31824
2285.34888	0.32001
2283.42031	0.32180
2281.49175	0.32379
2279.56318	0.32595
2277.63462	0.32814
2275.70605	0.33024
2273.77749	0.33229
2271.84893	0.33437
2269.92036	0.33643
2267.99180	0.33843
2266.06323	0.34044
2264.13467	0.34241
2262.20610	0.34444
2260.27754	0.34663
2258.34897	0.34892
2256.42041	0.35116
2254.49185	0.35332
2252.56328	0.35550
2250.63472	0.35772
2248.70615	0.35984
2246.77759	0.36188
2244.84902	0.36399
2242.92046	0.36621
2240.99189	0.36839
2239.06333	0.37053
2237.13477	0.37278
2235.20620	0.37507
2233.27764	0.37734
2231.34907	0.37969
2229.42051	0.38202
2227.49194	0.38420
2225.56338	0.38633
2223.63481	0.38853
2221.70625	0.39071
2219.77769	0.39279
2217.84912	0.39483
2215.92056	0.39696
2213.99199	0.39926
2212.06343	0.40155
2210.13486	0.40361
2208.20630	0.40563
2206.27773	0.40781
2204.34917	0.40999
2202.42061	0.41218
2200.49204	0.41436
2198.56348	0.41630
2196.63491	0.41803
2194.70635	0.41986
2192.77778	0.42187
2190.84922	0.42393
2188.92065	0.42588
2186.99209	0.42764
2185.06353	0.42932
2183.13496	0.43102
2181.20640	0.43275
2179.27783	0.43450
2177.34927	0.43616
2175.42070	0.43759
2173.49214	0.43896
2171.56357	0.44042
2169.63501	0.44184
2167.70645	0.44312
2165.77788	0.44437
2163.84932	0.44565
2161.92075	0.44679
2159.99219	0.44776
2158.06362	0.44865
2156.13506	0.44947
2154.20649	0.45027
2152.27793	0.45108
2150.34937	0.45181
2148.42080	0.45242
2146.49224	0.45311
2144.56367	0.45380
2142.63511	0.45414
2140.70654	0.45430
2138.77798	0.45456
2136.84941	0.45471
2134.92085	0.45467
2132.99229	0.45452
2131.06372	0.45431
2129.13516	0.45413
2127.20659	0.45401
2125.27803	0.45376
2123.34946	0.45330
2121.42090	0.45282
2119.49233	0.45233
2117.56377	0.45165
2115.63521	0.45073
2113.70664	0.44977
2111.77808	0.44894
2109.84951	0.44807
2107.92095	0.44695
2105.99238	0.44566
2104.06382	0.44443
2102.13525	0.44322
2100.20669	0.44196
2098.27812	0.44064
2096.34956	0.43911
2094.42100	0.43733
2092.49243	0.43566
2090.56387	0.43418
2088.63530	0.43246
2086.70674	0.43039
2084.77817	0.42830
2082.84961	0.42637
2080.92104	0.42444
2078.99248	0.42245
2077.06392	0.42045
2075.13535	0.41836
2073.20679	0.41609
2071.27822	0.41376
2069.34966	0.41144
2067.42109	0.40905
2065.49253	0.40666
2063.56396	0.40427
2061.63540	0.40188
2059.70684	0.39944
2057.77827	0.39685
2055.84971	0.39417
2053.92114	0.39154
2051.99258	0.38897
2050.06401	0.38639
2048.13545	0.38378
2046.20688	0.38106
2044.27832	0.37830
2042.34976	0.37564
2040.42119	0.37302
2038.49263	0.37029
2036.56406	0.36748
2034.63550	0.36469
2032.70693	0.36193
2030.77837	0.35918
2028.84980	0.35631
2026.92124	0.35342
2024.99268	0.35064
2023.06411	0.34788
2021.13555	0.34506
2019.20698	0.34226
2017.27842	0.33953
2015.34985	0.33677
2013.42129	0.33397
2011.49272	0.33123
2009.56416	0.32861
2007.63560	0.32596
2005.70703	0.32326
2003.77847	0.32056
2001.84990	0.31784
1999.92134	0.31515
1997.99277	0.31259
1996.06421	0.31019
1994.13564	0.30789
1992.20708	0.30552
1990.27852	0.30294
1988.34995	0.30031
1986.42139	0.29781
1984.49282	0.29541
1982.56426	0.29309
1980.63569	0.29085
1978.70713	0.28865
1976.77856	0.28639
1974.85000	0.28418
1972.92144	0.28201
1970.99287	0.27983
1969.06431	0.27770
1967.13574	0.27568
1965.20718	0.27371
1963.27861	0.27178
1961.35005	0.26993
1959.42148	0.26819
1957.49292	0.26647
1955.56436	0.26468
1953.63579	0.26288
1951.70723	0.26111
1949.77866	0.25942
1947.85010	0.25779
1945.92153	0.25620
1943.99297	0.25466
1942.06440	0.25312
1940.13584	0.25168
1938.20728	0.25039
1936.27871	0.24918
1934.35015	0.24795
1932.42158	0.24668
1930.49302	0.24543
1928.56445	0.24430
1926.63589	0.24326
1924.70732	0.24227
1922.77876	0.24118
1920.85020	0.24010
1918.92163	0.23927
1916.99307	0.23855
1915.06450	0.23782
1913.13594	0.23703
1911.20737	0.23624
1909.27881	0.23546
1907.35024	0.23473
1905.42168	0.23406
1903.49312	0.23356
1901.56455	0.23319
1899.63599	0.23281
1897.70742	0.23243
1895.77886	0.23204
1893.85029	0.23159
1891.92173	0.23110
1889.99316	0.23080
1888.06460	0.23067
1886.13604	0.23051
1884.20747	0.23024
1882.27891	0.22993
1880.35034	0.22978
1878.42178	0.22980
1876.49321	0.22986
1874.56465	0.22984
1872.63608	0.22991
1870.70752	0.23009
1868.77896	0.23044
1866.85039	0.23082
1864.92183	0.23098
1862.99326	0.23106
1861.06470	0.23122
1859.13613	0.23158
1857.20757	0.23202
1855.27900	0.23249
1853.35044	0.23295
1851.42187	0.23346
1849.49331	0.23403
1847.56475	0.23470
1845.63618	0.23551
1843.70762	0.23649
1841.77905	0.23739
1839.85049	0.23793
1837.92192	0.23858
1835.99336	0.23941
1834.06479	0.24044
1832.13623	0.24154
1830.20767	0.24293
1828.27910	0.24439
1826.35054	0.24551
1824.42197	0.24685
1822.49341	0.24823
1820.56484	0.24948
1818.63628	0.25079
1816.70771	0.25239
1814.77915	0.25409
1812.85059	0.25587
1810.92202	0.25772
1808.99346	0.25960
1807.06489	0.26157
1805.13633	0.26358
1803.20776	0.26578
1801.27920	0.26827
1799.35063	0.27117
1797.42207	0.27387
1795.49351	0.27632
1793.56494	0.27898
1791.63638	0.28241
1789.70781	0.28593
1787.77925	0.28872
1785.85068	0.29187
1783.92212	0.29562
1781.99355	0.29976
1780.06499	0.30412
1778.13643	0.30845
1776.20786	0.31234
1774.27930	0.31635
1772.35073	0.32179
1770.42217	0.32796
1768.49360	0.33350
1766.56504	0.33894
1764.63647	0.34437
1762.70791	0.35014
1760.77935	0.35757
1758.85078	0.36470
1756.92222	0.37173
1754.99365	0.37935
1753.06509	0.38616
1751.13652	0.39409
1749.20796	0.40432
1747.27939	0.41477
1745.35083	0.42403
1743.42227	0.43382
1741.49370	0.44463
1739.56514	0.45734
1737.63657	0.47007
1735.70801	0.48100
1733.77944	0.49715
1731.85088	0.51707
1729.92231	0.53323
1727.99375	0.54935
1726.06519	0.56643
1724.13662	0.58488
1722.20806	0.60481
1720.27949	0.62317
1718.35093	0.64422
1716.42236	0.67543
1714.49380	0.70600
1712.56523	0.73118
1710.63667	0.75541
1708.70811	0.78122
1706.77954	0.81029
1704.85098	0.84499
1702.92241	0.87616
1700.99385	0.90690
1699.06528	0.95255
1697.13672	0.99497
1695.20815	1.03879
1693.27959	1.08155
1691.35103	1.11603
1689.42246	1.15542
1687.49390	1.19664
1685.56533	1.23615
1683.63677	1.29734
1681.70820	1.36186
1679.77964	1.40362
1677.85107	1.44259
1675.92251	1.48686
1673.99395	1.54223
1672.06538	1.59248
1670.13682	1.64184
1668.20825	1.70444
1666.27969	1.75464
1664.35112	1.79756
1662.42256	1.85272
1660.49399	1.91552
1658.56543	1.96352
1656.63687	2.00091
1654.70830	2.03427
1652.77974	2.08664
1650.85117	2.13934
1648.92261	2.16091
1646.99404	2.18807
1645.06548	2.21866
1643.13691	2.23827
1641.20835	2.24831
1639.27979	2.25531
1637.35122	2.25831
1635.42266	2.25761
1633.49409	2.25131
1631.56553	2.23793
1629.63696	2.22079
1627.70840	2.19370
1625.77983	2.16252
1623.85127	2.12229
1621.92271	2.07186
1619.99414	2.02793
1618.06558	1.98548
1616.13701	1.92306
1614.20845	1.85939
1612.27988	1.81138
1610.35132	1.76100
1608.42275	1.70645
1606.49419	1.65300
1604.56562	1.60375
1602.63706	1.55628
1600.70850	1.51009
1598.77993	1.46759
1596.85137	1.42759
1594.92280	1.38860
1592.99424	1.35085
1591.06567	1.31630
1589.13711	1.28406
1587.20854	1.25408
1585.27998	1.22616
1583.35142	1.19978
1581.42285	1.17564
1579.49429	1.15506
1577.56572	1.13653
1575.63716	1.11409
1573.70859	1.09478
1571.78003	1.08246
1569.85146	1.06933
1567.92290	1.05459
1565.99434	1.04379
1564.06577	1.03547
1562.13721	1.02864
1560.20864	1.02370
1558.28008	1.01880
1556.35151	1.01539
1554.42295	1.01258
1552.49438	1.00928
1550.56582	1.00514
1548.63726	0.99961
1546.70869	0.99289
1544.78013	0.98389
1542.85156	0.97206
1540.92300	0.95612
1538.99443	0.93327
1537.06587	0.91717
1535.13730	0.90606
1533.20874	0.89110
1531.28018	0.87510
1529.35161	0.86321
1527.42305	0.85166
1525.49448	0.83968
1523.56592	0.82958
1521.63735	0.81998
1519.70879	0.81037
1517.78022	0.80210
1515.85166	0.79262
1513.92310	0.78310
1511.99453	0.77493
1510.06597	0.76725
1508.13740	0.75970
1506.20884	0.74855
1504.28027	0.73872
1502.35171	0.73290
1500.42314	0.72771
1498.49458	0.72226
1496.56602	0.71636
1494.63745	0.71079
1492.70889	0.70616
1490.78032	0.70159
1488.85176	0.69643
1486.92319	0.69201
1484.99463	0.68857
1483.06606	0.68562
1481.13750	0.68307
1479.20894	0.68113
1477.28037	0.67986
1475.35181	0.67875
1473.42324	0.67757
1471.49468	0.67604
1469.56611	0.67411
1467.63755	0.67205
1465.70898	0.67023
1463.78042	0.66882
1461.85186	0.66776
1459.92329	0.66680
1457.99473	0.66551
1456.06616	0.66375
1454.13760	0.66201
1452.20903	0.66017
1450.28047	0.65796
1448.35190	0.65549
1446.42334	0.65294
1444.49478	0.65054
1442.56621	0.64824
1440.63765	0.64590
1438.70908	0.64350
1436.78052	0.64068
1434.85195	0.63768
1432.92339	0.63527
1430.99482	0.63348
1429.06626	0.63231
1427.13770	0.63167
1425.20913	0.63129
1423.28057	0.63094
1421.35200	0.63049
1419.42344	0.63000
1417.49487	0.62935
1415.56631	0.62841
1413.63774	0.62761
1411.70918	0.62724
1409.78062	0.62728
1407.85205	0.62764
1405.92349	0.62823
1403.99492	0.62861
1402.06636	0.62821
1400.13779	0.62716
1398.20923	0.62557
1396.28066	0.62327
1394.35210	0.62027
1392.42354	0.61718
1390.49497	0.61426
1388.56641	0.61109
1386.63784	0.60755
1384.70928	0.60409
1382.78071	0.60084
1380.85215	0.59768
1378.92358	0.59482
1376.99502	0.59259
1375.06646	0.59100
1373.13789	0.58974
1371.20933	0.58878
1369.28076	0.58801
1367.35220	0.58701
1365.42363	0.58568
1363.49507	0.58436
1361.56650	0.58315
1359.63794	0.58192
1357.70937	0.58067
1355.78081	0.57944
1353.85225	0.57836
1351.92368	0.57752
1349.99512	0.57685
1348.06655	0.57616
1346.13799	0.57534
1344.20942	0.57440
1342.28086	0.57347
1340.35229	0.57260
1338.42373	0.57174
1336.49517	0.57095
1334.56660	0.57029
1332.63804	0.56976
1330.70947	0.56946
1328.78091	0.56941
1326.85234	0.56958
1324.92378	0.56984
1322.99521	0.56994
1321.06665	0.56990
1319.13809	0.56997
1317.20952	0.57003
1315.28096	0.56978
1313.35239	0.56919
1311.42383	0.56851
1309.49526	0.56789
1307.56670	0.56732
1305.63813	0.56683
1303.70957	0.56627
1301.78101	0.56558
1299.85244	0.56484
1297.92388	0.56395
1295.99531	0.56289
1294.06675	0.56178
1292.13818	0.56068
1290.20962	0.55952
1288.28105	0.55837
1286.35249	0.55729
1284.42393	0.55630
1282.49536	0.55536
1280.56680	0.55440
1278.63823	0.55348
1276.70967	0.55268
1274.78110	0.55188
1272.85254	0.55100
1270.92397	0.55020
1268.99541	0.54954
1267.06685	0.54897
1265.13828	0.54841
1263.20972	0.54774
1261.28115	0.54696
1259.35259	0.54622
1257.42402	0.54561
1255.49546	0.54523
1253.56689	0.54507
1251.63833	0.54496
1249.70977	0.54481
1247.78120	0.54462
1245.85264	0.54444
1243.92407	0.54409
1241.99551	0.54324
1240.06694	0.54207
1238.13838	0.54084
1236.20981	0.53949
1234.28125	0.53805
1232.35269	0.53653
1230.42412	0.53485
1228.49556	0.53302
1226.56699	0.53129
1224.63843	0.52985
1222.70986	0.52853
1220.78130	0.52723
1218.85273	0.52604
1216.92417	0.52494
1214.99561	0.52398
1213.06704	0.52325
1211.13848	0.52265
1209.20991	0.52198
1207.28135	0.52124
1205.35278	0.52044
1203.42422	0.51961
1201.49565	0.51884
1199.56709	0.51810
1197.63853	0.51742
1195.70996	0.51684
1193.78140	0.51630
1191.85283	0.51573
1189.92427	0.51514
1187.99570	0.51476
1186.06714	0.51468
1184.13857	0.51468
1182.21001	0.51480
1180.28145	0.51524
1178.35288	0.51604
1176.42432	0.51710
1174.49575	0.51819
1172.56719	0.51914
1170.63862	0.51974
1168.71006	0.52000
1166.78149	0.52022
1164.85293	0.52041
1162.92437	0.52044
1160.99580	0.52043
1159.06724	0.52037
1157.13867	0.52002
1155.21011	0.51929
1153.28154	0.51820
1151.35298	0.51678
1149.42441	0.51498
1147.49585	0.51271
1145.56729	0.51009
1143.63872	0.50744
1141.71016	0.50507
1139.78159	0.50309
1137.85303	0.50151
1135.92446	0.50029
1133.99590	0.49927
1132.06733	0.49835
1130.13877	0.49772
1128.21021	0.49729
1126.28164	0.49661
1124.35308	0.49566
1122.42451	0.49496
1120.49595	0.49473
1118.56738	0.49461
1116.63882	0.49441
1114.71025	0.49439
1112.78169	0.49468
1110.85312	0.49512
1108.92456	0.49578
1106.99600	0.49690
1105.06743	0.49825
1103.13887	0.49950
1101.21030	0.50093
1099.28174	0.50279
1097.35317	0.50497
1095.42461	0.50764
1093.49604	0.51114
1091.56748	0.51559
1089.63892	0.52110
1087.71035	0.52787
1085.78179	0.53549
1083.85322	0.54305
1081.92466	0.54985
1079.99609	0.55542
1078.06753	0.55903
1076.13896	0.55976
1074.21040	0.55728
1072.28184	0.55214
1070.35327	0.54546
1068.42471	0.53854
1066.49614	0.53198
1064.56758	0.52562
1062.63901	0.51966
1060.71045	0.51470
1058.78188	0.51053
1056.85332	0.50649
1054.92476	0.50278
1052.99619	0.49998
1051.06763	0.49777
1049.13906	0.49581
1047.21050	0.49431
1045.28193	0.49334
1043.35337	0.49269
1041.42480	0.49222
1039.49624	0.49190
1037.56768	0.49163
1035.63911	0.49130
1033.71055	0.49086
1031.78198	0.49017
1029.85342	0.48923
1027.92485	0.48833
1025.99629	0.48760
1024.06772	0.48703
1022.13916	0.48669
1020.21060	0.48670
1018.28203	0.48690
1016.35347	0.48710
1014.42490	0.48738
1012.49634	0.48784
1010.56777	0.48847
1008.63921	0.48920
1006.71064	0.49007
1004.78208	0.49120
1002.85352	0.49281
1000.92495	0.49529
998.99639	0.49879
997.06782	0.50292
995.13926	0.50725
993.21069	0.51142
991.28213	0.51473
989.35356	0.51684
987.42500	0.51804
985.49644	0.51850
983.56787	0.51849
981.63931	0.51870
979.71074	0.51960
977.78218	0.52126
975.85361	0.52357
973.92505	0.52617
971.99648	0.52899
970.06792	0.53249
968.13936	0.53672
966.21079	0.54088
964.28223	0.54492
962.35366	0.54955
960.42510	0.55462
958.49653	0.55977
956.56797	0.56527
954.63940	0.57137
952.71084	0.57798
950.78228	0.58463
948.85371	0.59097
946.92515	0.59722
944.99658	0.60357
943.06802	0.60981
941.13945	0.61582
939.21089	0.62194
937.28232	0.62817
935.35376	0.63377
933.42520	0.63884
931.49663	0.64425
929.56807	0.64995
927.63950	0.65549
925.71094	0.66134
923.78237	0.66822
921.85381	0.67549
919.92524	0.68244
917.99668	0.68945
916.06812	0.69672
914.13955	0.70426
912.21099	0.71221
910.28242	0.72015
908.35386	0.72837
906.42529	0.73758
904.49673	0.74664
902.56816	0.75489
900.63960	0.76380
898.71104	0.77404
896.78247	0.78447
894.85391	0.79487
892.92534	0.80610
890.99678	0.81684
889.06821	0.82608
887.13965	0.83568
885.21108	0.84671
883.28252	0.85806
881.35396	0.86926
879.42539	0.88159
877.49683	0.89434
875.56826	0.90530
873.63970	0.91494
871.71113	0.92534
869.78257	0.93716
867.85400	0.95034
865.92544	0.96367
863.99687	0.97532
862.06831	0.98534
860.13975	0.99482
858.21118	1.00551
856.28262	1.01784
854.35405	1.03060
852.42549	1.04334
850.49692	1.05551
848.56836	1.06627
846.63979	1.07726
844.71123	1.09036
842.78267	1.10256
840.85410	1.11201
838.92554	1.12256
836.99697	1.13650
835.06841	1.15024
833.13984	1.15884
831.21128	1.16314
829.28271	1.17037
827.35415	1.18346
825.42559	1.19797
823.49702	1.21164
821.56846	1.22210
819.63989	1.22744
817.71133	1.22751
815.78276	1.23004
813.85420	1.25000
811.92563	1.27918
809.99707	1.29060
808.06851	1.28975
806.13994	1.29675
804.21138	1.30377
802.28281	1.31104
800.35425	1.32304
798.42568	1.32489
796.49712	1.31501
794.56855	1.31021
792.63999	1.30910
790.71143	1.29090
788.78286	1.27776
786.85430	1.28975
784.92573	1.31828
782.99717	1.34443
781.06860	1.32987
779.14004	1.30382
777.21147	1.29226
775.28291	1.25057
773.35435	1.21697
771.42578	1.27747
769.49722	1.39255
767.56865	1.42021
765.64009	1.38145
763.71152	1.31086
761.78296	1.24894
759.85439	1.23301
757.92583	1.20056
755.99727	1.17374
754.06870	1.24391
752.14014	1.28747
750.21157	1.16481
748.28301	1.06133
746.35444	1.02249
744.42588	1.01714
742.49731	0.98688
740.56875	0.87911
738.64019	0.76123
736.71162	0.69119
734.78306	0.65534
732.85449	0.59257
730.92593	0.50223
728.99736	0.49124
727.06880	0.50779
725.14023	0.31581
723.21167	0.04250
721.28311	-0.50209
719.35454	4.31613
717.42598	4.30456
715.49741	-0.36719
713.56885	-0.04609
711.64028	0.14517
709.71172	0.13433
707.78315	0.06779
705.85459	0.13141
703.92603	0.38123
701.99746	0.44996
700.06890	0.28292
698.14033	0.20869
696.21177	0.27736
694.28320	0.38945
692.35464	0.38698
690.42607	0.37308
688.49751	0.44474
686.56895	0.42094
684.64038	0.24881
682.71182	0.17849
680.78325	0.21466
678.85469	0.28428
676.92612	0.35700
674.99756	0.40298
673.06899	0.39126
671.14043	0.37631
669.21187	0.38281
667.28330	0.38101
665.35474	0.34705
663.42617	0.27599
661.49761	0.23561
659.56904	0.28529
657.64048	0.37215
655.71191	0.38553
653.78335	0.32739
651.85479	0.29042
649.92622	0.31821
647.99766	0.40721
646.06909	0.49350
644.14053	0.45752
642.21196	0.33545
640.28340	0.24635
638.35483	0.20661
636.42627	0.20519
634.49771	0.20740
632.56914	0.21887
630.64058	0.25137
628.71201	0.22254
626.78345	0.16404
624.85488	0.20998
622.92632	0.34791
620.99775	0.40022
619.06919	0.35439
617.14062	0.33836
615.21206	0.32833
613.28350	0.29354
611.35493	0.33262
609.42637	0.44147
607.49780	0.50703
605.56924	0.50388
603.64067	0.44147
601.71211	0.36087
599.78354	0.31675
597.85498	0.30943
595.92642	0.32266
593.99785	0.33225
592.06929	0.31982
590.14072	0.30180
588.21216	0.29698
586.28359	0.29631
584.35503	0.31990
582.42646	0.37860
580.49790	0.40635
578.56934	0.34540
576.64077	0.29883
574.71221	0.31792
572.78364	0.34876
570.85508	0.30096
568.92651	0.24095
566.99795	0.23243
565.06938	0.24547
563.14082	0.23377
561.21226	0.21454
559.28369	0.18972
557.35513	0.16256
555.42656	0.16800
553.49800	0.21342
551.56943	0.27026
549.64087	0.30875
547.71230	0.32504
545.78374	0.32035
543.85518	0.30933
541.92661	0.31525
539.99805	0.30718
538.06948	0.27280
536.14092	0.23630
534.21235	0.21221
532.28379	0.22122
530.35522	0.27188
528.42666	0.29884
526.49810	0.25389
524.56953	0.25207
522.64097	0.32092
520.71240	0.34089
518.78384	0.23382
516.85527	0.13600
514.92671	0.13886
512.99814	0.22135
511.06958	0.28867
509.14102	0.24021
507.21245	0.17021
505.28389	0.17435
503.35532	0.25523
501.42676	0.31976
499.49819	0.28568
