3997.91411	0.07286
3995.98555	0.07389
3994.05698	0.07464
3992.12842	0.07443
3990.19985	0.07397
3988.27129	0.07405
3986.34272	0.07442
3984.41416	0.07468
3982.48560	0.07481
3980.55703	0.07500
3978.62847	0.07527
3976.69990	0.07531
3974.77134	0.07564
3972.84277	0.07655
3970.91421	0.07698
3968.98564	0.07668
3967.05708	0.07647
3965.12852	0.07659
3963.19995	0.07682
3961.27139	0.07700
3959.34282	0.07701
3957.41426	0.07669
3955.48569	0.07656
3953.55713	0.07695
3951.62856	0.07728
3949.70000	0.07739
3947.77144	0.07776
3945.84287	0.07798
3943.91431	0.07755
3941.98574	0.07699
3940.05718	0.07654
3938.12861	0.07643
3936.20005	0.07687
3934.27148	0.07720
3932.34292	0.07736
3930.41436	0.07786
3928.48579	0.07798
3926.55723	0.07734
3924.62866	0.07665
3922.70010	0.07616
3920.77153	0.07586
3918.84297	0.07600
3916.91440	0.07655
3914.98584	0.07687
3913.05728	0.07668
3911.12871	0.07643
3909.20015	0.07623
3907.27158	0.07567
3905.34302	0.07514
3903.41445	0.07548
3901.48589	0.07620
3899.55732	0.07627
3897.62876	0.07597
3895.70020	0.07572
3893.77163	0.07570
3891.84307	0.07593
3889.91450	0.07601
3887.98594	0.07576
3886.05737	0.07606
3884.12881	0.07674
3882.20024	0.07689
3880.27168	0.07724
3878.34312	0.07746
3876.41455	0.07696
3874.48599	0.07688
3872.55742	0.07753
3870.62886	0.07812
3868.70029	0.07842
3866.77173	0.07850
3864.84316	0.07869
3862.91460	0.07908
3860.98604	0.07916
3859.05747	0.07902
3857.12891	0.07903
3855.20034	0.07948
3853.27178	0.08099
3851.34321	0.08247
3849.41465	0.08179
3847.48608	0.08108
3845.55752	0.08153
3843.62896	0.08266
3841.70039	0.08377
3839.77183	0.08477
3837.84326	0.08601
3835.91470	0.08687
3833.98613	0.08673
3832.05757	0.08648
3830.12900	0.08696
3828.20044	0.08787
3826.27187	0.08866
3824.34331	0.08923
3822.41475	0.08994
3820.48618	0.09161
3818.55762	0.09279
3816.62905	0.09260
3814.70049	0.09297
3812.77192	0.09379
3810.84336	0.09438
3808.91479	0.09519
3806.98623	0.09644
3805.05767	0.09786
3803.12910	0.09898
3801.20054	0.10050
3799.27197	0.10240
3797.34341	0.10340
3795.41484	0.10412
3793.48628	0.10490
3791.55771	0.10576
3789.62915	0.10689
3787.70059	0.10805
3785.77202	0.10928
3783.84346	0.11072
3781.91489	0.11214
3779.98633	0.11393
3778.05776	0.11617
3776.12920	0.11759
3774.20063	0.11814
3772.27207	0.11909
3770.34351	0.12138
3768.41494	0.12439
3766.48638	0.12642
3764.55781	0.12796
3762.62925	0.12980
3760.70068	0.13172
3758.77212	0.13380
3756.84355	0.13591
3754.91499	0.13751
3752.98643	0.13923
3751.05786	0.14258
3749.12930	0.14715
3747.20073	0.14968
3745.27217	0.15163
3743.34360	0.15577
3741.41504	0.15963
3739.48647	0.16180
3737.55791	0.16430
3735.62935	0.16815
3733.70078	0.17301
3731.77222	0.17756
3729.84365	0.18195
3727.91509	0.18641
3725.98652	0.19164
3724.05796	0.19785
3722.12939	0.20433
3720.20083	0.21124
3718.27227	0.21856
3716.34370	0.22605
3714.41514	0.23350
3712.48657	0.24201
3710.55801	0.25415
3708.62944	0.26824
3706.70088	0.28011
3704.77231	0.29091
3702.84375	0.30327
3700.91519	0.31945
3698.98662	0.33759
3697.05806	0.35480
3695.12949	0.37279
3693.20093	0.39182
3691.27236	0.41224
3689.34380	0.43882
3687.41523	0.47240
3685.48667	0.50252
3683.55811	0.52861
3681.62954	0.55641
3679.70098	0.58720
3677.77241	0.61887
3675.84385	0.65638
3673.91528	0.70816
3671.98672	0.75125
3670.05815	0.78876
3668.12959	0.84005
3666.20103	0.88791
3664.27246	0.92807
3662.34390	0.97076
3660.41533	1.01660
3658.48677	1.06153
3656.55820	1.10950
3654.62964	1.16309
3652.70107	1.20772
3650.77251	1.24611
3648.84395	1.29895
3646.91538	1.36452
3644.98682	1.41485
3643.05825	1.45442
3641.12969	1.49430
3639.20112	1.53787
3637.27256	1.58156
3635.34399	1.62339
3633.41543	1.66472
3631.48687	1.70390
3629.55830	1.74369
3627.62974	1.79471
3625.70117	1.84345
3623.77261	1.87754
3621.84404	1.90974
3619.91548	1.94690
3617.98691	1.99250
3616.05835	2.03609
3614.12979	2.07171
3612.20122	2.10963
3610.27266	2.14901
3608.34409	2.18834
3606.41553	2.23004
3604.48696	2.26909
3602.55840	2.30346
3600.62983	2.34030
3598.70127	2.38108
3596.77271	2.42132
3594.84414	2.46188
3592.91558	2.50368
3590.98701	2.54215
3589.05845	2.57729
3587.12988	2.62087
3585.20132	2.67071
3583.27275	2.71152
3581.34419	2.74766
3579.41562	2.78756
3577.48706	2.83054
3575.55850	2.87363
3573.62993	2.91733
3571.70137	2.95915
3569.77280	2.99760
3567.84424	3.03671
3565.91567	3.08652
3563.98711	3.14024
3562.05854	3.18503
3560.12998	3.22673
3558.20142	3.27075
3556.27285	3.31650
3554.34429	3.36130
3552.41572	3.40693
3550.48716	3.45387
3548.55859	3.49908
3546.63003	3.54173
3544.70146	3.58630
3542.77290	3.63538
3540.84434	3.68541
3538.91577	3.73270
3536.98721	3.77731
3535.05864	3.82348
3533.13008	3.87008
3531.20151	3.91698
3529.27295	3.96559
3527.34438	4.01436
3525.41582	4.06243
3523.48726	4.11145
3521.55869	4.16199
3519.63013	4.20982
3517.70156	4.25533
3515.77300	4.30145
3513.84443	4.34956
3511.91587	4.40090
3509.98730	4.45522
3508.05874	4.50829
3506.13018	4.55635
3504.20161	4.60164
3502.27305	4.64621
3500.34448	4.69023
3498.41592	4.73122
3496.48735	4.77080
3494.55879	4.81874
3492.63022	4.87654
3490.70166	4.93226
3488.77310	4.97788
3486.84453	5.01950
3484.91597	5.06845
3482.98740	5.12481
3481.05884	5.17720
3479.13027	5.21777
3477.20171	5.25605
3475.27314	5.30473
3473.34458	5.35992
3471.41602	5.40637
3469.48745	5.44711
3467.55889	5.49898
3465.63032	5.55902
3463.70176	5.61634
3461.77319	5.66797
3459.84463	5.72112
3457.91606	5.77837
3455.98750	5.82656
3454.05894	5.86404
3452.13037	5.90430
3450.20181	5.95108
3448.27324	6.00204
3446.34468	6.05542
3444.41611	6.10349
3442.48755	6.16065
3440.55898	6.22183
3438.63042	6.25108
3436.70186	6.27168
3434.77329	6.32390
3432.84473	6.39417
3430.91616	6.46722
3428.98760	6.53834
3427.05903	6.58925
3425.13047	6.63478
3423.20190	6.69023
3421.27334	6.73298
3419.34478	6.75216
3417.41621	6.78314
3415.48765	6.84192
3413.55908	6.89405
3411.63052	6.93234
3409.70195	6.98035
3407.77339	7.03239
3405.84482	7.06401
3403.91626	7.09364
3401.98770	7.13360
3400.05913	7.18481
3398.13057	7.24501
3396.20200	7.28582
3394.27344	7.32500
3392.34487	7.39236
3390.41631	7.42381
3388.48774	7.37074
3386.55918	7.36421
3384.63062	7.44774
3382.70205	7.51174
3380.77349	7.54017
3378.84492	7.57182
3376.91636	7.58347
3374.98779	7.58871
3373.05923	7.65373
3371.13066	7.74382
3369.20210	7.80204
3367.27354	7.83008
3365.34497	7.85291
3363.41641	7.88417
3361.48784	7.90235
3359.55928	7.91210
3357.63071	7.93313
3355.70215	7.95069
3353.77358	7.91711
3351.84502	7.88964
3349.91646	7.89904
3347.98789	7.91258
3346.05933	7.95258
3344.13076	7.98414
3342.20220	7.97642
3340.27363	8.00049
3338.34507	8.04755
3336.41650	8.01623
3334.48794	7.96185
3332.55937	7.95077
3330.63081	7.96135
3328.70225	7.98125
3326.77368	8.01155
3324.84512	8.06169
3322.91655	8.10606
3320.98799	8.11494
3319.05942	8.08048
3317.13086	8.03799
3315.20229	8.02707
3313.27373	8.08115
3311.34517	8.15627
3309.41660	8.18418
3307.48804	8.22862
3305.55947	8.27259
3303.63091	8.22126
3301.70234	8.13520
3299.77378	8.12867
3297.84521	8.17819
3295.91665	8.22302
3293.98809	8.28311
3292.05952	8.34672
3290.13096	8.32140
3288.20239	8.22401
3286.27383	8.18541
3284.34526	8.22226
3282.41670	8.30509
3280.48813	8.37539
3278.55957	8.35897
3276.63101	8.30175
3274.70244	8.24718
3272.77388	8.19169
3270.84531	8.16282
3268.91675	8.19514
3266.98818	8.27448
3265.05962	8.34544
3263.13105	8.38089
3261.20249	8.39468
3259.27393	8.35224
3257.34536	8.27023
3255.41680	8.23554
3253.48823	8.22651
3251.55967	8.23091
3249.63110	8.31907
3247.70254	8.41186
3245.77397	8.36528
3243.84541	8.28457
3241.91685	8.26194
3239.98828	8.22766
3238.05972	8.17195
3236.13115	8.12503
3234.20259	8.10410
3232.27402	8.12618
3230.34546	8.14387
3228.41689	8.14807
3226.48833	8.17225
3224.55977	8.18748
3222.63120	8.17575
3220.70264	8.13687
3218.77407	8.06370
3216.84551	7.98637
3214.91694	7.94319
3212.98838	7.93272
3211.05981	7.93892
3209.13125	7.94158
3207.20269	7.93645
3205.27412	7.90532
3203.34556	7.82648
3201.41699	7.79152
3199.48843	7.83486
3197.55986	7.82551
3195.63130	7.72800
3193.70273	7.63868
3191.77417	7.57644
3189.84561	7.54902
3187.91704	7.56503
3185.98848	7.55344
3184.05991	7.46547
3182.13135	7.37044
3180.20278	7.34372
3178.27422	7.32796
3176.34565	7.25739
3174.41709	7.19767
3172.48853	7.18921
3170.55996	7.17912
3168.63140	7.12715
3166.70283	7.04083
3164.77427	6.92920
3162.84570	6.82186
3160.91714	6.75631
3158.98857	6.72634
3157.06001	6.69034
3155.13145	6.62097
3153.20288	6.52833
3151.27432	6.44327
3149.34575	6.38346
3147.41719	6.33598
3145.48862	6.28255
3143.56006	6.22455
3141.63149	6.17306
3139.70293	6.11839
3137.77437	6.04195
3135.84580	5.95084
3133.91724	5.86683
3131.98867	5.79428
3130.06011	5.72157
3128.13154	5.64716
3126.20298	5.57577
3124.27441	5.50784
3122.34585	5.44186
3120.41729	5.36880
3118.48872	5.28877
3116.56016	5.21553
3114.63159	5.14079
3112.70303	5.06045
3110.77446	4.99345
3108.84590	4.93507
3106.91733	4.86707
3104.98877	4.79048
3103.06021	4.71459
3101.13164	4.64104
3099.20308	4.57200
3097.27451	4.51053
3095.34595	4.44787
3093.41738	4.37894
3091.48882	4.31297
3089.56025	4.25300
3087.63169	4.19191
3085.70312	4.12804
3083.77456	4.06300
3081.84600	3.99688
3079.91743	3.93215
3077.98887	3.87099
3076.06030	3.81156
3074.13174	3.75010
3072.20317	3.68850
3070.27461	3.62949
3068.34604	3.57019
3066.41748	3.51117
3064.48892	3.45572
3062.56035	3.40157
3060.63179	3.34584
3058.70322	3.29002
3056.77466	3.23559
3054.84609	3.18139
3052.91753	3.12734
3050.98896	3.07472
3049.06040	3.02322
3047.13184	2.97193
3045.20327	2.92159
3043.27471	2.87295
3041.34614	2.82429
3039.41758	2.77461
3037.48901	2.72573
3035.56045	2.67828
3033.63188	2.63178
3031.70332	2.58614
3029.77476	2.54072
3027.84619	2.49612
3025.91763	2.45289
3023.98906	2.40965
3022.06050	2.36624
3020.13193	2.32378
3018.20337	2.28327
3016.27480	2.24415
3014.34624	2.20441
3012.41768	2.16433
3010.48911	2.12572
3008.56055	2.08825
3006.63198	2.05072
3004.70342	2.01377
3002.77485	1.97832
3000.84629	1.94417
2998.91772	1.91070
2996.98916	1.87737
2995.06060	1.84387
2993.13203	1.81015
2991.20347	1.77734
2989.27490	1.74643
2987.34634	1.71641
2985.41777	1.68616
2983.48921	1.65635
2981.56064	1.62785
2979.63208	1.60007
2977.70352	1.57244
2975.77495	1.54514
2973.84639	1.51817
2971.91782	1.49152
2969.98926	1.46535
2968.06069	1.43975
2966.13213	1.41477
2964.20356	1.39064
2962.27500	1.36709
2960.34644	1.34327
2958.41787	1.31933
2956.48931	1.29584
2954.56074	1.27236
2952.63218	1.24816
2950.70361	1.22420
2948.77505	1.20174
2946.84648	1.17991
2944.91792	1.15778
2942.98936	1.13620
2941.06079	1.11589
2939.13223	1.09596
2937.20366	1.07570
2935.27510	1.05549
2933.34653	1.03541
2931.41797	1.01554
2929.48940	0.99625
2927.56084	0.97724
2925.63228	0.95811
2923.70371	0.93952
2921.77515	0.92175
2919.84658	0.90442
2917.91802	0.88786
2915.98945	0.87219
2914.06089	0.85675
2912.13232	0.84150
2910.20376	0.82701
2908.27520	0.81329
2906.34663	0.79974
2904.41807	0.78599
2902.48950	0.77265
2900.56094	0.75974
2898.63237	0.74631
2896.70381	0.73267
2894.77524	0.72000
2892.84668	0.70811
2890.91812	0.69631
2888.98955	0.68479
2887.06099	0.67364
2885.13242	0.66283
2883.20386	0.65244
2881.27529	0.64211
2879.34673	0.63182
2877.41816	0.62178
2875.48960	0.61186
2873.56104	0.60214
2871.63247	0.59242
2869.70391	0.58205
2867.77534	0.57121
2865.84678	0.56049
2863.91821	0.54981
2861.98965	0.53910
2860.06108	0.52843
2858.13252	0.51806
2856.20396	0.50820
2854.27539	0.49849
2852.34683	0.48889
2850.41826	0.48013
2848.48970	0.47276
2846.56113	0.46626
2844.63257	0.46003
2842.70400	0.45402
2840.77544	0.44808
2838.84687	0.44212
2836.91831	0.43626
2834.98975	0.43047
2833.06118	0.42464
2831.13262	0.41884
2829.20405	0.41323
2827.27549	0.40764
2825.34692	0.40184
2823.41836	0.39604
2821.48979	0.39025
2819.56123	0.38441
2817.63267	0.37874
2815.70410	0.37323
2813.77554	0.36782
2811.84697	0.36256
2809.91841	0.35726
2807.98984	0.35196
2806.06128	0.34694
2804.13271	0.34210
2802.20415	0.33720
2800.27559	0.33233
2798.34702	0.32780
2796.41846	0.32360
2794.48989	0.31937
2792.56133	0.31497
2790.63276	0.31055
2788.70420	0.30618
2786.77563	0.30191
2784.84707	0.29777
2782.91851	0.29367
2780.98994	0.28957
2779.06138	0.28556
2777.13281	0.28191
2775.20425	0.27858
2773.27568	0.27525
2771.34712	0.27169
2769.41855	0.26809
2767.48999	0.26480
2765.56143	0.26171
2763.63286	0.25850
2761.70430	0.25523
2759.77573	0.25205
2757.84717	0.24897
2755.91860	0.24601
2753.99004	0.24314
2752.06147	0.24013
2750.13291	0.23707
2748.20435	0.23434
2746.27578	0.23184
2744.34722	0.22934
2742.41865	0.22698
2740.49009	0.22460
2738.56152	0.22195
2736.63296	0.21935
2734.70439	0.21699
2732.77583	0.21464
2730.84727	0.21222
2728.91870	0.20997
2726.99014	0.20799
2725.06157	0.20608
2723.13301	0.20408
2721.20444	0.20213
2719.27588	0.20033
2717.34731	0.19858
2715.41875	0.19678
2713.49019	0.19486
2711.56162	0.19303
2709.63306	0.19137
2707.70449	0.18976
2705.77593	0.18825
2703.84736	0.18672
2701.91880	0.18502
2699.99023	0.18338
2698.06167	0.18197
2696.13311	0.18063
2694.20454	0.17927
2692.27598	0.17797
2690.34741	0.17685
2688.41885	0.17574
2686.49028	0.17440
2684.56172	0.17314
2682.63315	0.17231
2680.70459	0.17154
2678.77603	0.17045
2676.84746	0.16930
2674.91890	0.16828
2672.99033	0.16732
2671.06177	0.16650
2669.13320	0.16578
2667.20464	0.16490
2665.27607	0.16381
2663.34751	0.16267
2661.41895	0.16178
2659.49038	0.16123
2657.56182	0.16069
2655.63325	0.15986
2653.70469	0.15898
2651.77612	0.15831
2649.84756	0.15781
2647.91899	0.15735
2645.99043	0.15683
2644.06187	0.15628
2642.13330	0.15574
2640.20474	0.15527
2638.27617	0.15489
2636.34761	0.15449
2634.41904	0.15414
2632.49048	0.15391
2630.56191	0.15360
2628.63335	0.15322
2626.70479	0.15301
2624.77622	0.15280
2622.84766	0.15247
2620.91909	0.15224
2618.99053	0.15214
2617.06196	0.15208
2615.13340	0.15202
2613.20483	0.15181
2611.27627	0.15151
2609.34771	0.15128
2607.41914	0.15117
2605.49058	0.15132
2603.56201	0.15164
2601.63345	0.15177
2599.70488	0.15165
2597.77632	0.15164
2595.84775	0.15180
2593.91919	0.15186
2591.99062	0.15181
2590.06206	0.15181
2588.13350	0.15205
2586.20493	0.15253
2584.27637	0.15301
2582.34780	0.15325
2580.41924	0.15327
2578.49067	0.15343
2576.56211	0.15380
2574.63354	0.15421
2572.70498	0.15454
2570.77642	0.15481
2568.84785	0.15510
2566.91929	0.15548
2564.99072	0.15592
2563.06216	0.15639
2561.13359	0.15697
2559.20503	0.15760
2557.27646	0.15810
2555.34790	0.15856
2553.41934	0.15918
2551.49077	0.15991
2549.56221	0.16062
2547.63364	0.16128
2545.70508	0.16179
2543.77651	0.16218
2541.84795	0.16265
2539.91938	0.16321
2537.99082	0.16377
2536.06226	0.16442
2534.13369	0.16519
2532.20513	0.16602
2530.27656	0.16689
2528.34800	0.16774
2526.41943	0.16850
2524.49087	0.16927
2522.56230	0.17005
2520.63374	0.17072
2518.70518	0.17144
2516.77661	0.17227
2514.84805	0.17298
2512.91948	0.17364
2510.99092	0.17444
2509.06235	0.17534
2507.13379	0.17631
2505.20522	0.17728
2503.27666	0.17817
2501.34810	0.17897
2499.41953	0.17980
2497.49097	0.18072
2495.56240	0.18157
2493.63384	0.18240
2491.70527	0.18330
2489.77671	0.18415
2487.84814	0.18495
2485.91958	0.18574
2483.99102	0.18654
2482.06245	0.18731
2480.13389	0.18809
2478.20532	0.18902
2476.27676	0.19008
2474.34819	0.19114
2472.41963	0.19214
2470.49106	0.19308
2468.56250	0.19396
2466.63394	0.19492
2464.70537	0.19598
2462.77681	0.19697
2460.84824	0.19782
2458.91968	0.19865
2456.99111	0.19963
2455.06255	0.20069
2453.13398	0.20169
2451.20542	0.20262
2449.27686	0.20360
2447.34829	0.20465
2445.41973	0.20564
2443.49116	0.20661
2441.56260	0.20771
2439.63403	0.20883
2437.70547	0.20983
2435.77690	0.21082
2433.84834	0.21189
2431.91978	0.21302
2429.99121	0.21419
2428.06265	0.21529
2426.13408	0.21629
2424.20552	0.21730
2422.27695	0.21838
2420.34839	0.21948
2418.41982	0.22055
2416.49126	0.22163
2414.56270	0.22287
2412.63413	0.22415
2410.70557	0.22532
2408.77700	0.22642
2406.84844	0.22749
2404.91987	0.22863
2402.99131	0.22985
2401.06274	0.23113
2399.13418	0.23240
2397.20562	0.23354
2395.27705	0.23464
2393.34849	0.23596
2391.41992	0.23734
2389.49136	0.23855
2387.56279	0.23977
2385.63423	0.24104
2383.70566	0.24239
2381.77710	0.24392
2379.84854	0.24531
2377.91997	0.24632
2375.99141	0.24713
2374.06284	0.24795
2372.13428	0.24892
2370.20571	0.25022
2368.27715	0.25186
2366.34858	0.25397
2364.42002	0.25556
2362.49146	0.25512
2360.56289	0.25481
2358.63433	0.25678
2356.70576	0.25931
2354.77720	0.26174
2352.84863	0.26442
2350.92007	0.26649
2348.99150	0.26749
2347.06294	0.26796
2345.13437	0.26883
2343.20581	0.27062
2341.27725	0.27256
2339.34868	0.27438
2337.42012	0.27652
2335.49155	0.27859
2333.56299	0.28047
2331.63442	0.28283
2329.70586	0.28519
2327.77729	0.28678
2325.84873	0.28813
2323.92017	0.28973
2321.99160	0.29119
2320.06304	0.29259
2318.13447	0.29430
2316.20591	0.29613
2314.27734	0.29805
2312.34878	0.30001
2310.42021	0.30185
2308.49165	0.30359
2306.56309	0.30538
2304.63452	0.30725
2302.70596	0.30907
2300.77739	0.31085
2298.84883	0.31263
2296.92026	0.31443
2294.99170	0.31635
2293.06313	0.31829
2291.13457	0.32008
2289.20601	0.32182
2287.27744	0.32370
2285.34888	0.32573
2283.42031	0.32773
2281.49175	0.32966
2279.56318	0.33174
2277.63462	0.33392
2275.70605	0.33596
2273.77749	0.33791
2271.84893	0.34005
2269.92036	0.34235
2267.99180	0.34449
2266.06323	0.34647
2264.13467	0.34858
2262.20610	0.35082
2260.27754	0.35304
2258.34897	0.35524
2256.42041	0.35744
2254.49185	0.35950
2252.56328	0.36147
2250.63472	0.36354
2248.70615	0.36571
2246.77759	0.36805
2244.84902	0.37048
2242.92046	0.37270
2240.99189	0.37475
2239.06333	0.37688
2237.13477	0.37911
2235.20620	0.38133
2233.27764	0.38358
2231.34907	0.38590
2229.42051	0.38813
2227.49194	0.39026
2225.56338	0.39235
2223.63481	0.39442
2221.70625	0.39660
2219.77769	0.39892
2217.84912	0.40119
2215.92056	0.40335
2213.99199	0.40555
2212.06343	0.40785
2210.13486	0.41009
2208.20630	0.41224
2206.27773	0.41429
2204.34917	0.41634
2202.42061	0.41849
2200.49204	0.42060
2198.56348	0.42254
2196.63491	0.42448
2194.70635	0.42648
2192.77778	0.42836
2190.84922	0.43004
2188.92065	0.43173
2186.99209	0.43354
2185.06353	0.43536
2183.13496	0.43724
2181.20640	0.43911
2179.27783	0.44070
2177.34927	0.44216
2175.42070	0.44376
2173.49214	0.44536
2171.56357	0.44675
2169.63501	0.44807
2167.70645	0.44939
2165.77788	0.45064
2163.84932	0.45188
2161.92075	0.45306
2159.99219	0.45399
2158.06362	0.45480
2156.13506	0.45573
2154.20649	0.45670
2152.27793	0.45747
2150.34937	0.45792
2148.42080	0.45825
2146.49224	0.45877
2144.56367	0.45944
2142.63511	0.46006
2140.70654	0.46043
2138.77798	0.46054
2136.84941	0.46056
2134.92085	0.46057
2132.99229	0.46050
2131.06372	0.46036
2129.13516	0.46016
2127.20659	0.45988
2125.27803	0.45960
2123.34946	0.45928
2121.42090	0.45882
2119.49233	0.45820
2117.56377	0.45743
2115.63521	0.45654
2113.70664	0.45572
2111.77808	0.45500
2109.84951	0.45416
2107.92095	0.45306
2105.99238	0.45176
2104.06382	0.45045
2102.13525	0.44910
2100.20669	0.44764
2098.27812	0.44615
2096.34956	0.44464
2094.42100	0.44302
2092.49243	0.44132
2090.56387	0.43951
2088.63530	0.43755
2086.70674	0.43570
2084.77817	0.43397
2082.84961	0.43210
2080.92104	0.43003
2078.99248	0.42790
2077.06392	0.42571
2075.13535	0.42348
2073.20679	0.42129
2071.27822	0.41912
2069.34966	0.41694
2067.42109	0.41470
2065.49253	0.41233
2063.56396	0.40979
2061.63540	0.40714
2059.70684	0.40449
2057.77827	0.40187
2055.84971	0.39930
2053.92114	0.39672
2051.99258	0.39414
2050.06401	0.39160
2048.13545	0.38906
2046.20688	0.38641
2044.27832	0.38363
2042.34976	0.38079
2040.42119	0.37801
2038.49263	0.37525
2036.56406	0.37247
2034.63550	0.36977
2032.70693	0.36714
2030.77837	0.36447
2028.84980	0.36170
2026.92124	0.35885
2024.99268	0.35594
2023.06411	0.35306
2021.13555	0.35033
2019.20698	0.34767
2017.27842	0.34489
2015.34985	0.34199
2013.42129	0.33922
2011.49272	0.33658
2009.56416	0.33394
2007.63560	0.33124
2005.70703	0.32850
2003.77847	0.32575
2001.84990	0.32301
1999.92134	0.32039
1997.99277	0.31791
1996.06421	0.31549
1994.13564	0.31298
1992.20708	0.31036
1990.27852	0.30768
1988.34995	0.30511
1986.42139	0.30259
1984.49282	0.30007
1982.56426	0.29773
1980.63569	0.29554
1978.70713	0.29338
1976.77856	0.29117
1974.85000	0.28889
1972.92144	0.28672
1970.99287	0.28473
1969.06431	0.28274
1967.13574	0.28073
1965.20718	0.27869
1963.27861	0.27664
1961.35005	0.27462
1959.42148	0.27270
1957.49292	0.27095
1955.56436	0.26932
1953.63579	0.26773
1951.70723	0.26607
1949.77866	0.26435
1947.85010	0.26268
1945.92153	0.26112
1943.99297	0.25966
1942.06440	0.25821
1940.13584	0.25666
1938.20728	0.25521
1936.27871	0.25392
1934.35015	0.25267
1932.42158	0.25145
1930.49302	0.25030
1928.56445	0.24925
1926.63589	0.24822
1924.70732	0.24721
1922.77876	0.24621
1920.85020	0.24519
1918.92163	0.24427
1916.99307	0.24352
1915.06450	0.24270
1913.13594	0.24175
1911.20737	0.24096
1909.27881	0.24040
1907.35024	0.23985
1905.42168	0.23926
1903.49312	0.23877
1901.56455	0.23829
1899.63599	0.23774
1897.70742	0.23724
1895.77886	0.23687
1893.85029	0.23659
1891.92173	0.23622
1889.99316	0.23588
1888.06460	0.23554
1886.13604	0.23524
1884.20747	0.23508
1882.27891	0.23503
1880.35034	0.23502
1878.42178	0.23497
1876.49321	0.23497
1874.56465	0.23505
1872.63608	0.23519
1870.70752	0.23529
1868.77896	0.23553
1866.85039	0.23575
1864.92183	0.23585
1862.99326	0.23604
1861.06470	0.23639
1859.13613	0.23686
1857.20757	0.23726
1855.27900	0.23765
1853.35044	0.23807
1851.42187	0.23861
1849.49331	0.23918
1847.56475	0.23970
1845.63618	0.24030
1843.70762	0.24133
1841.77905	0.24245
1839.85049	0.24307
1837.92192	0.24373
1835.99336	0.24451
1834.06479	0.24541
1832.13623	0.24646
1830.20767	0.24789
1828.27910	0.24934
1826.35054	0.25037
1824.42197	0.25167
1822.49341	0.25309
1820.56484	0.25435
1818.63628	0.25563
1816.70771	0.25722
1814.77915	0.25891
1812.85059	0.26067
1810.92202	0.26268
1808.99346	0.26476
1807.06489	0.26678
1805.13633	0.26878
1803.20776	0.27096
1801.27920	0.27337
1799.35063	0.27609
1797.42207	0.27861
1795.49351	0.28099
1793.56494	0.28378
1791.63638	0.28752
1789.70781	0.29118
1787.77925	0.29387
1785.85068	0.29687
1783.92212	0.30045
1781.99355	0.30432
1780.06499	0.30844
1778.13643	0.31284
1776.20786	0.31704
1774.27930	0.32134
1772.35073	0.32695
1770.42217	0.33319
1768.49360	0.33867
1766.56504	0.34391
1764.63647	0.34918
1762.70791	0.35497
1760.77935	0.36243
1758.85078	0.36942
1756.92222	0.37637
1754.99365	0.38390
1753.06509	0.39056
1751.13652	0.39839
1749.20796	0.40857
1747.27939	0.41902
1745.35083	0.42826
1743.42227	0.43791
1741.49370	0.44855
1739.56514	0.46127
1737.63657	0.47421
1735.70801	0.48554
1733.77944	0.50230
1731.85088	0.52225
1729.92231	0.53808
1727.99375	0.55416
1726.06519	0.57128
1724.13662	0.58967
1722.20806	0.60948
1720.27949	0.62775
1718.35093	0.64903
1716.42236	0.68073
1714.49380	0.71139
1712.56523	0.73638
1710.63667	0.76044
1708.70811	0.78614
1706.77954	0.81527
1704.85098	0.84998
1702.92241	0.88094
1700.99385	0.91134
1699.06528	0.95632
1697.13672	0.99831
1695.20815	1.04192
1693.27959	1.08447
1691.35103	1.11896
1689.42246	1.15857
1687.49390	1.19979
1685.56533	1.23875
1683.63677	1.29836
1681.70820	1.36099
1679.77964	1.40176
1677.85107	1.44033
1675.92251	1.48407
1673.99395	1.53764
1672.06538	1.58601
1670.13682	1.63423
1668.20825	1.69612
1666.27969	1.74639
1664.35112	1.78918
1662.42256	1.84293
1660.49399	1.90328
1658.56543	1.95016
1656.63687	1.98770
1654.70830	2.02126
1652.77974	2.07229
1650.85117	2.12286
1648.92261	2.14332
1646.99404	2.16836
1645.06548	2.19637
1643.13691	2.21416
1641.20835	2.22347
1639.27979	2.23185
1637.35122	2.23743
1635.42266	2.23663
1633.49409	2.22907
1631.56553	2.21624
1629.63696	2.19948
1627.70840	2.17267
1625.77983	2.14136
1623.85127	2.10109
1621.92271	2.05212
1619.99414	2.00966
1618.06558	1.96777
1616.13701	1.90630
1614.20845	1.84388
1612.27988	1.79687
1610.35132	1.74748
1608.42275	1.69357
1606.49419	1.64080
1604.56562	1.59167
1602.63706	1.54292
1600.70850	1.49501
1598.77993	1.45194
1596.85137	1.41259
1594.92280	1.37439
1592.99424	1.33702
1591.06567	1.30259
1589.13711	1.27040
1587.20854	1.24063
1585.27998	1.21342
1583.35142	1.18773
1581.42285	1.16361
1579.49429	1.14291
1577.56572	1.12454
1575.63716	1.10225
1573.70859	1.08275
1571.78003	1.07029
1569.85146	1.05720
1567.92290	1.04250
1565.99434	1.03141
1564.06577	1.02288
1562.13721	1.01617
1560.20864	1.01107
1558.28008	1.00473
1556.35151	0.99984
1554.42295	0.99638
1552.49438	0.99276
1550.56582	0.98850
1548.63726	0.98277
1546.70869	0.97582
1544.78013	0.96706
1542.85156	0.95624
1540.92300	0.94197
1538.99443	0.92089
1537.06587	0.90525
1535.13730	0.89430
1533.20874	0.87996
1531.28018	0.86485
1529.35161	0.85382
1527.42305	0.84331
1525.49448	0.83234
1523.56592	0.82304
1521.63735	0.81427
1519.70879	0.80505
1517.78022	0.79690
1515.85166	0.78796
1513.92310	0.77896
1511.99453	0.77109
1510.06597	0.76380
1508.13740	0.75649
1506.20884	0.74542
1504.28027	0.73611
1502.35171	0.73077
1500.42314	0.72574
1498.49458	0.72044
1496.56602	0.71470
1494.63745	0.70897
1492.70889	0.70416
1490.78032	0.69972
1488.85176	0.69469
1486.92319	0.68985
1484.99463	0.68597
1483.06606	0.68291
1481.13750	0.68018
1479.20894	0.67760
1477.28037	0.67552
1475.35181	0.67406
1473.42324	0.67301
1471.49468	0.67122
1469.56611	0.66855
1467.63755	0.66589
1465.70898	0.66373
1463.78042	0.66214
1461.85186	0.66093
1459.92329	0.65998
1457.99473	0.65908
1456.06616	0.65770
1454.13760	0.65570
1452.20903	0.65380
1450.28047	0.65195
1448.35190	0.64986
1446.42334	0.64747
1444.49478	0.64528
1442.56621	0.64330
1440.63765	0.64120
1438.70908	0.63901
1436.78052	0.63645
1434.85195	0.63361
1432.92339	0.63122
1430.99482	0.62942
1429.06626	0.62817
1427.13770	0.62741
1425.20913	0.62699
1423.28057	0.62665
1421.35200	0.62614
1419.42344	0.62570
1417.49487	0.62516
1415.56631	0.62407
1413.63774	0.62307
1411.70918	0.62261
1409.78062	0.62265
1407.85205	0.62297
1405.92349	0.62340
1403.99492	0.62364
1402.06636	0.62332
1400.13779	0.62249
1398.20923	0.62110
1396.28066	0.61914
1394.35210	0.61646
1392.42354	0.61331
1390.49497	0.61032
1388.56641	0.60751
1386.63784	0.60442
1384.70928	0.60101
1382.78071	0.59759
1380.85215	0.59433
1378.92358	0.59158
1376.99502	0.58957
1375.06646	0.58824
1373.13789	0.58719
1371.20933	0.58612
1369.28076	0.58494
1367.35220	0.58357
1365.42363	0.58212
1363.49507	0.58085
1361.56650	0.57979
1359.63794	0.57862
1357.70937	0.57737
1355.78081	0.57627
1353.85225	0.57539
1351.92368	0.57455
1349.99512	0.57373
1348.06655	0.57296
1346.13799	0.57214
1344.20942	0.57134
1342.28086	0.57059
1340.35229	0.56983
1338.42373	0.56906
1336.49517	0.56841
1334.56660	0.56783
1332.63804	0.56738
1330.70947	0.56718
1328.78091	0.56711
1326.85234	0.56703
1324.92378	0.56704
1322.99521	0.56711
1321.06665	0.56706
1319.13809	0.56701
1317.20952	0.56698
1315.28096	0.56668
1313.35239	0.56609
1311.42383	0.56549
1309.49526	0.56493
1307.56670	0.56432
1305.63813	0.56367
1303.70957	0.56296
1301.78101	0.56230
1299.85244	0.56166
1297.92388	0.56085
1295.99531	0.55995
1294.06675	0.55907
1292.13818	0.55807
1290.20962	0.55696
1288.28105	0.55597
1286.35249	0.55510
1284.42393	0.55417
1282.49536	0.55307
1280.56680	0.55193
1278.63823	0.55092
1276.70967	0.55010
1274.78110	0.54942
1272.85254	0.54878
1270.92397	0.54812
1268.99541	0.54744
1267.06685	0.54670
1265.13828	0.54591
1263.20972	0.54518
1261.28115	0.54451
1259.35259	0.54394
1257.42402	0.54340
1255.49546	0.54295
1253.56689	0.54287
1251.63833	0.54309
1249.70977	0.54327
1247.78120	0.54320
1245.85264	0.54284
1243.92407	0.54228
1241.99551	0.54154
1240.06694	0.54054
1238.13838	0.53930
1236.20981	0.53782
1234.28125	0.53625
1232.35269	0.53480
1230.42412	0.53342
1228.49556	0.53206
1226.56699	0.53075
1224.63843	0.52958
1222.70986	0.52857
1220.78130	0.52749
1218.85273	0.52626
1216.92417	0.52523
1214.99561	0.52453
1213.06704	0.52379
1211.13848	0.52290
1209.20991	0.52209
1207.28135	0.52139
1205.35278	0.52070
1203.42422	0.51999
1201.49565	0.51917
1199.56709	0.51832
1197.63853	0.51775
1195.70996	0.51739
1193.78140	0.51696
1191.85283	0.51637
1189.92427	0.51580
1187.99570	0.51546
1186.06714	0.51531
1184.13857	0.51523
1182.21001	0.51535
1180.28145	0.51578
1178.35288	0.51644
1176.42432	0.51725
1174.49575	0.51806
1172.56719	0.51857
1170.63862	0.51870
1168.71006	0.51865
1166.78149	0.51865
1164.85293	0.51875
1162.92437	0.51870
1160.99580	0.51831
1159.06724	0.51773
1157.13867	0.51706
1155.21011	0.51626
1153.28154	0.51522
1151.35298	0.51384
1149.42441	0.51204
1147.49585	0.50981
1145.56729	0.50735
1143.63872	0.50502
1141.71016	0.50290
1139.78159	0.50079
1137.85303	0.49880
1135.92446	0.49722
1133.99590	0.49601
1132.06733	0.49500
1130.13877	0.49397
1128.21021	0.49286
1126.28164	0.49184
1124.35308	0.49090
1122.42451	0.48995
1120.49595	0.48907
1118.56738	0.48847
1116.63882	0.48821
1114.71025	0.48820
1112.78169	0.48830
1110.85312	0.48865
1108.92456	0.48931
1106.99600	0.49001
1105.06743	0.49096
1103.13887	0.49257
1101.21030	0.49469
1099.28174	0.49700
1097.35317	0.49940
1095.42461	0.50203
1093.49604	0.50513
1091.56748	0.50894
1089.63892	0.51383
1087.71035	0.51995
1085.78179	0.52673
1083.85322	0.53341
1081.92466	0.53956
1079.99609	0.54485
1078.06753	0.54857
1076.13896	0.54969
1074.21040	0.54783
1072.28184	0.54371
1070.35327	0.53826
1068.42471	0.53192
1066.49614	0.52509
1064.56758	0.51826
1062.63901	0.51182
1060.71045	0.50622
1058.78188	0.50188
1056.85332	0.49828
1054.92476	0.49457
1052.99619	0.49107
1051.06763	0.48846
1049.13906	0.48661
1047.21050	0.48503
1045.28193	0.48346
1043.35337	0.48199
1041.42480	0.48078
1039.49624	0.47986
1037.56768	0.47912
1035.63911	0.47857
1033.71055	0.47835
1031.78198	0.47834
1029.85342	0.47834
1027.92485	0.47822
1025.99629	0.47788
1024.06772	0.47772
1022.13916	0.47811
1020.21060	0.47887
1018.28203	0.47965
1016.35347	0.48039
1014.42490	0.48126
1012.49634	0.48235
1010.56777	0.48376
1008.63921	0.48534
1006.71064	0.48696
1004.78208	0.48879
1002.85352	0.49100
1000.92495	0.49366
998.99639	0.49682
997.06782	0.50047
995.13926	0.50449
993.21069	0.50844
991.28213	0.51183
989.35356	0.51438
987.42500	0.51608
985.49644	0.51725
983.56787	0.51821
981.63931	0.51901
979.71074	0.52003
977.78218	0.52169
975.85361	0.52403
973.92505	0.52689
971.99648	0.53006
970.06792	0.53355
968.13936	0.53755
966.21079	0.54193
964.28223	0.54643
962.35366	0.55126
960.42510	0.55657
958.49653	0.56232
956.56797	0.56843
954.63940	0.57453
952.71084	0.58065
950.78228	0.58703
948.85371	0.59321
946.92515	0.59913
944.99658	0.60530
943.06802	0.61158
941.13945	0.61757
939.21089	0.62353
937.28232	0.62954
935.35376	0.63536
933.42520	0.64137
931.49663	0.64750
929.56807	0.65304
927.63950	0.65840
925.71094	0.66474
923.78237	0.67196
921.85381	0.67870
919.92524	0.68472
917.99668	0.69160
916.06812	0.69971
914.13955	0.70786
912.21099	0.71557
910.28242	0.72313
908.35386	0.73060
906.42529	0.73836
904.49673	0.74722
902.56816	0.75687
900.63960	0.76685
898.71104	0.77721
896.78247	0.78728
894.85391	0.79669
892.92534	0.80609
890.99678	0.81602
889.06821	0.82621
887.13965	0.83715
885.21108	0.85053
883.28252	0.86526
881.35396	0.87752
879.42539	0.88686
877.49683	0.89669
875.56826	0.90784
873.63970	0.91897
871.71113	0.93114
869.78257	0.94401
867.85400	0.95543
865.92544	0.96669
863.99687	0.97945
862.06831	0.99261
860.13975	1.00411
858.21118	1.01372
856.28262	1.02393
854.35405	1.03626
852.42549	1.04860
850.49692	1.05965
848.56836	1.06976
846.63979	1.07902
844.71123	1.09022
842.78267	1.10383
840.85410	1.11612
838.92554	1.12628
836.99697	1.13746
835.06841	1.14953
833.13984	1.15893
831.21128	1.16831
829.28271	1.18237
827.35415	1.19865
825.42559	1.21095
823.49702	1.21832
821.56846	1.22631
819.63989	1.23992
817.71133	1.25458
815.78276	1.26350
813.85420	1.27496
811.92563	1.29229
809.99707	1.30093
808.06851	1.30518
806.13994	1.32535
804.21138	1.34747
802.28281	1.35295
800.35425	1.35322
798.42568	1.35477
796.49712	1.36919
794.56855	1.38923
792.63999	1.38265
790.71143	1.38011
788.78286	1.42499
786.85430	1.46633
784.92573	1.45063
782.99717	1.43267
781.06860	1.40188
779.14004	1.35964
777.21147	1.39121
775.28291	1.48403
773.35435	1.50808
771.42578	1.46586
769.49722	1.40560
767.56865	1.34411
765.64009	1.37000
763.71152	1.57523
761.78296	1.89204
759.85439	1.63581
757.92583	1.36586
755.99727	1.24235
754.06870	1.17567
752.14014	1.14061
750.21157	1.20503
748.28301	1.39029
746.35444	1.50520
744.42588	1.53584
742.49731	1.67419
740.56875	2.04931
738.64019	2.34392
736.71162	1.28240
734.78306	0.91968
732.85449	0.77645
730.92593	0.71372
728.99736	0.64409
727.06880	0.58689
725.14023	0.58453
723.21167	0.53958
721.28311	0.44281
719.35454	0.40297
717.42598	0.33501
715.49741	0.18125
713.56885	0.12017
711.64028	0.16415
709.71172	0.29841
707.78315	0.38711
705.85459	0.29663
703.92603	0.21135
701.99746	0.16825
700.06890	0.15390
698.14033	0.14999
696.21177	0.16331
694.28320	0.20570
692.35464	0.20559
690.42607	0.17234
688.49751	0.20373
686.56895	0.32788
684.64038	0.33821
682.71182	0.27353
680.78325	0.29027
678.85469	0.28075
676.92612	0.23375
674.99756	0.34644
673.06899	0.60275
671.14043	0.69525
669.21187	0.63917
667.28330	0.45544
665.35474	0.25120
663.42617	0.20147
661.49761	0.28960
659.56904	0.46809
657.64048	0.66952
655.71191	0.54081
653.78335	0.30147
651.85479	0.31069
649.92622	0.53370
647.99766	0.46809
646.06909	0.29416
644.14053	0.26460
642.21196	0.28960
640.28340	0.24743
638.35483	0.24534
636.42627	0.31241
634.49771	0.42423
632.56914	0.53138
630.64058	0.53208
628.71201	0.44565
626.78345	0.30757
624.85488	0.18587
622.92632	0.18407
620.99775	0.21067
619.06919	0.17568
617.14062	0.16994
615.21206	0.15297
613.28350	0.05580
611.35493	0.00220
609.42637	0.04245
607.49780	0.10929
605.56924	0.14470
603.64067	0.12354
601.71211	0.15507
599.78354	0.23626
597.85498	0.27466
595.92642	0.32993
593.99785	0.42572
592.06929	0.38554
590.14072	0.30214
588.21216	0.33249
586.28359	0.30777
584.35503	0.15249
582.42646	0.06274
580.49790	0.18923
578.56934	0.57320
576.64077	0.69060
574.71221	0.33930
572.78364	0.13208
570.85508	0.11343
568.92651	0.19120
566.99795	0.18846
565.06938	0.10739
563.14082	0.04894
561.21226	0.04206
559.28369	0.08082
557.35513	0.13321
555.42656	0.16390
553.49800	0.18601
551.56943	0.24209
549.64087	0.33288
547.71230	0.43097
545.78374	0.53621
543.85518	0.68036
541.92661	0.52165
539.99805	0.29060
538.06948	0.20498
536.14092	0.21541
534.21235	0.23722
532.28379	0.26248
530.35522	0.26062
528.42666	0.21263
526.49810	0.23124
524.56953	0.33680
522.64097	0.59874
520.71240	1.33106
518.78384	0.64762
516.85527	0.55683
514.92671	0.62118
512.99814	0.73232
511.06958	0.60587
509.14102	0.49097
507.21245	0.53901
505.28389	0.46703
503.35532	0.25534
501.42676	0.15707
499.49819	0.16183
