3997.91411	0.07442
3995.98555	0.07444
3994.05698	0.07476
3992.12842	0.07514
3990.19985	0.07537
3988.27129	0.07576
3986.34272	0.07625
3984.41416	0.07642
3982.48560	0.07615
3980.55703	0.07581
3978.62847	0.07570
3976.69990	0.07582
3974.77134	0.07623
3972.84277	0.07700
3970.91421	0.07758
3968.98564	0.07755
3967.05708	0.07724
3965.12852	0.07705
3963.19995	0.07739
3961.27139	0.07824
3959.34282	0.07872
3957.41426	0.07848
3955.48569	0.07815
3953.55713	0.07835
3951.62856	0.07875
3949.70000	0.07877
3947.77144	0.07839
3945.84287	0.07788
3943.91431	0.07767
3941.98574	0.07792
3940.05718	0.07815
3938.12861	0.07819
3936.20005	0.07808
3934.27148	0.07767
3932.34292	0.07734
3930.41436	0.07772
3928.48579	0.07823
3926.55723	0.07807
3924.62866	0.07768
3922.70010	0.07753
3920.77153	0.07740
3918.84297	0.07720
3916.91440	0.07713
3914.98584	0.07705
3913.05728	0.07648
3911.12871	0.07600
3909.20015	0.07613
3907.27158	0.07626
3905.34302	0.07625
3903.41445	0.07659
3901.48589	0.07714
3899.55732	0.07744
3897.62876	0.07721
3895.70020	0.07688
3893.77163	0.07696
3891.84307	0.07762
3889.91450	0.07799
3887.98594	0.07769
3886.05737	0.07793
3884.12881	0.07849
3882.20024	0.07830
3880.27168	0.07793
3878.34312	0.07804
3876.41455	0.07858
3874.48599	0.07918
3872.55742	0.07952
3870.62886	0.07989
3868.70029	0.08026
3866.77173	0.07999
3864.84316	0.07985
3862.91460	0.08025
3860.98604	0.08048
3859.05747	0.08046
3857.12891	0.08050
3855.20034	0.08096
3853.27178	0.08246
3851.34321	0.08357
3849.41465	0.08293
3847.48608	0.08255
3845.55752	0.08299
3843.62896	0.08391
3841.70039	0.08474
3839.77183	0.08549
3837.84326	0.08657
3835.91470	0.08742
3833.98613	0.08762
3832.05757	0.08770
3830.12900	0.08795
3828.20044	0.08833
3826.27187	0.08885
3824.34331	0.08958
3822.41475	0.09084
3820.48618	0.09273
3818.55762	0.09395
3816.62905	0.09471
3814.70049	0.09565
3812.77192	0.09576
3810.84336	0.09588
3808.91479	0.09709
3806.98623	0.09882
3805.05767	0.10007
3803.12910	0.10088
3801.20054	0.10192
3799.27197	0.10276
3797.34341	0.10312
3795.41484	0.10395
3793.48628	0.10503
3791.55771	0.10605
3789.62915	0.10748
3787.70059	0.10909
3785.77202	0.11044
3783.84346	0.11172
3781.91489	0.11288
3779.98633	0.11430
3778.05776	0.11648
3776.12920	0.11837
3774.20063	0.11949
3772.27207	0.12054
3770.34351	0.12220
3768.41494	0.12448
3766.48638	0.12655
3764.55781	0.12842
3762.62925	0.13006
3760.70068	0.13178
3758.77212	0.13428
3756.84355	0.13700
3754.91499	0.13909
3752.98643	0.14122
3751.05786	0.14452
3749.12930	0.14875
3747.20073	0.15171
3745.27217	0.15410
3743.34360	0.15777
3741.41504	0.16125
3739.48647	0.16362
3737.55791	0.16658
3735.62935	0.17121
3733.70078	0.17659
3731.77222	0.18119
3729.84365	0.18536
3727.91509	0.18922
3725.98652	0.19376
3724.05796	0.19976
3722.12939	0.20635
3720.20083	0.21339
3718.27227	0.22106
3716.34370	0.22869
3714.41514	0.23622
3712.48657	0.24553
3710.55801	0.25847
3708.62944	0.27181
3706.70088	0.28242
3704.77231	0.29261
3702.84375	0.30496
3700.91519	0.32142
3698.98662	0.33978
3697.05806	0.35724
3695.12949	0.37558
3693.20093	0.39458
3691.27236	0.41462
3689.34380	0.44090
3687.41523	0.47405
3685.48667	0.50348
3683.55811	0.52908
3681.62954	0.55675
3679.70098	0.58815
3677.77241	0.62116
3675.84385	0.65934
3673.91528	0.71007
3671.98672	0.75240
3670.05815	0.79056
3668.12959	0.84242
3666.20103	0.88950
3664.27246	0.92873
3662.34390	0.97147
3660.41533	1.01823
3658.48677	1.06401
3656.55820	1.11213
3654.62964	1.16526
3652.70107	1.20952
3650.77251	1.24813
3648.84395	1.30201
3646.91538	1.36886
3644.98682	1.41927
3643.05825	1.45817
3641.12969	1.49733
3639.20112	1.54005
3637.27256	1.58300
3635.34399	1.62511
3633.41543	1.66714
3631.48687	1.70639
3629.55830	1.74698
3627.62974	1.80063
3625.70117	1.85052
3623.77261	1.88433
3621.84404	1.91667
3619.91548	1.95393
3617.98691	1.99881
3616.05835	2.04131
3614.12979	2.07694
3612.20122	2.11528
3610.27266	2.15304
3608.34409	2.18998
3606.41553	2.23133
3604.48696	2.27170
3602.55840	2.30854
3600.62983	2.34795
3598.70127	2.38860
3596.77271	2.42674
3594.84414	2.46684
3592.91558	2.51046
3590.98701	2.55120
3589.05845	2.58720
3587.12988	2.62917
3585.20132	2.67725
3583.27275	2.71917
3581.34419	2.75613
3579.41562	2.79354
3577.48706	2.83344
3575.55850	2.87610
3573.62993	2.92056
3571.70137	2.96336
3569.77280	3.00360
3567.84424	3.04542
3565.91567	3.09772
3563.98711	3.14994
3562.05854	3.19143
3560.12998	3.23323
3558.20142	3.27908
3556.27285	3.32422
3554.34429	3.36783
3552.41572	3.41468
3550.48716	3.46293
3548.55859	3.50789
3546.63003	3.55215
3544.70146	3.59963
3542.77290	3.64792
3540.84434	3.69511
3538.91577	3.74174
3536.98721	3.78911
3535.05864	3.83895
3533.13008	3.88572
3531.20151	3.92943
3529.27295	3.97541
3527.34438	4.02644
3525.41582	4.07883
3523.48726	4.12684
3521.55869	4.17300
3519.63013	4.21851
3517.70156	4.26261
3515.77300	4.30795
3513.84443	4.35856
3511.91587	4.41274
3509.98730	4.46562
3508.05874	4.51564
3506.13018	4.56216
3504.20161	4.60467
3502.27305	4.64804
3500.34448	4.69922
3498.41592	4.75546
3496.48735	4.80975
3494.55879	4.85558
3492.63022	4.89325
3490.70166	4.93118
3488.77310	4.97673
3486.84453	5.03181
3484.91597	5.08790
3482.98740	5.13677
3481.05884	5.18403
3479.13027	5.23647
3477.20171	5.29311
3475.27314	5.34652
3473.34458	5.38986
3471.41602	5.42904
3469.48745	5.47278
3467.55889	5.51593
3465.63032	5.55938
3463.70176	5.62024
3461.77319	5.68537
3459.84463	5.72694
3457.91606	5.75710
3455.98750	5.79923
3454.05894	5.84870
3452.13037	5.89990
3450.20181	5.96315
3448.27324	6.02716
3446.34468	6.07580
3444.41611	6.11750
3442.48755	6.16016
3440.55898	6.20625
3438.63042	6.26485
3436.70186	6.32803
3434.77329	6.38205
3432.84473	6.42937
3430.91616	6.46844
3428.98760	6.50668
3427.05903	6.56097
3425.13047	6.62023
3423.20190	6.66548
3421.27334	6.72082
3419.34478	6.78439
3417.41621	6.83159
3415.48765	6.87656
3413.55908	6.92811
3411.63052	6.97854
3409.70195	7.02218
3407.77339	7.08065
3405.84482	7.14845
3403.91626	7.20158
3401.98770	7.22672
3400.05913	7.23095
3398.13057	7.26143
3396.20200	7.33264
3394.27344	7.39094
3392.34487	7.40259
3390.41631	7.43587
3388.48774	7.49383
3386.55918	7.51908
3384.63062	7.53052
3382.70205	7.55956
3380.77349	7.59911
3378.84492	7.63808
3376.91636	7.68869
3374.98779	7.74295
3373.05923	7.78497
3371.13066	7.82122
3369.20210	7.85872
3367.27354	7.86326
3365.34497	7.85878
3363.41641	7.87700
3361.48784	7.87558
3359.55928	7.87061
3357.63071	7.86575
3355.70215	7.87157
3353.77358	7.95477
3351.84502	8.04155
3349.91646	8.00745
3347.98789	7.94283
3346.05933	7.92503
3344.13076	7.97864
3342.20220	8.09689
3340.27363	8.16318
3338.34507	8.15138
3336.41650	8.13070
3334.48794	8.14385
3332.55937	8.18868
3330.63081	8.24734
3328.70225	8.25785
3326.77368	8.20723
3324.84512	8.17439
3322.91655	8.18680
3320.98799	8.19692
3319.05942	8.12763
3317.13086	8.03627
3315.20229	8.01442
3313.27373	8.05867
3311.34517	8.08683
3309.41660	8.10858
3307.48804	8.18629
3305.55947	8.21813
3303.63091	8.18672
3301.70234	8.20902
3299.77378	8.28257
3297.84521	8.27961
3295.91665	8.19642
3293.98809	8.10550
3292.05952	8.05204
3290.13096	8.11317
3288.20239	8.23084
3286.27383	8.25762
3284.34526	8.23328
3282.41670	8.26169
3280.48813	8.29526
3278.55957	8.28634
3276.63101	8.25196
3274.70244	8.24275
3272.77388	8.30169
3270.84531	8.37079
3268.91675	8.38803
3266.98818	8.32521
3265.05962	8.24806
3263.13105	8.24940
3261.20249	8.33581
3259.27393	8.43449
3257.34536	8.38710
3255.41680	8.23909
3253.48823	8.19026
3251.55967	8.25696
3249.63110	8.33966
3247.70254	8.37784
3245.77397	8.39537
3243.84541	8.41121
3241.91685	8.38456
3239.98828	8.32222
3238.05972	8.26652
3236.13115	8.20619
3234.20259	8.11867
3232.27402	8.10103
3230.34546	8.23401
3228.41689	8.35893
3226.48833	8.27803
3224.55977	8.15944
3222.63120	8.15685
3220.70264	8.17669
3218.77407	8.20794
3216.84551	8.27988
3214.91694	8.24657
3212.98838	8.06382
3211.05981	7.91973
3209.13125	7.92033
3207.20269	7.96908
3205.27412	7.98085
3203.34556	7.95765
3201.41699	7.86674
3199.48843	7.77383
3197.55986	7.76469
3195.63130	7.76238
3193.70273	7.70412
3191.77417	7.67342
3189.84561	7.70608
3187.91704	7.70228
3185.98848	7.61906
3184.05991	7.54009
3182.13135	7.46330
3180.20278	7.36274
3178.27422	7.30650
3176.34565	7.32212
3174.41709	7.34432
3172.48853	7.31403
3170.55996	7.22449
3168.63140	7.10762
3166.70283	7.01964
3164.77427	6.98891
3162.84570	6.97128
3160.91714	6.90219
3158.98857	6.78984
3157.06001	6.67963
3155.13145	6.59634
3153.20288	6.52566
3151.27432	6.45071
3149.34575	6.39026
3147.41719	6.34611
3145.48862	6.29379
3143.56006	6.22543
3141.63149	6.15231
3139.70293	6.07969
3137.77437	6.00392
3135.84580	5.92424
3133.91724	5.84787
3131.98867	5.78119
3130.06011	5.71777
3128.13154	5.64931
3126.20298	5.57947
3124.27441	5.51181
3122.34585	5.43671
3120.41729	5.35347
3118.48872	5.27047
3116.56016	5.19040
3114.63159	5.11708
3112.70303	5.04764
3110.77446	4.97632
3108.84590	4.90677
3106.91733	4.84419
3104.98877	4.78583
3103.06021	4.72401
3101.13164	4.65544
3099.20308	4.58332
3097.27451	4.51329
3095.34595	4.44858
3093.41738	4.38720
3091.48882	4.32424
3089.56025	4.25761
3087.63169	4.18956
3085.70312	4.12047
3083.77456	4.05134
3081.84600	3.98693
3079.91743	3.92560
3077.98887	3.86332
3076.06030	3.80184
3074.13174	3.74286
3072.20317	3.68497
3070.27461	3.62595
3068.34604	3.56563
3066.41748	3.50600
3064.48892	3.44904
3062.56035	3.39453
3060.63179	3.34066
3058.70322	3.28663
3056.77466	3.23140
3054.84609	3.17478
3052.91753	3.11978
3050.98896	3.06796
3049.06040	3.01740
3047.13184	2.96685
3045.20327	2.91687
3043.27471	2.86813
3041.34614	2.81985
3039.41758	2.77092
3037.48901	2.72215
3035.56045	2.67450
3033.63188	2.62770
3031.70332	2.58149
3029.77476	2.53615
3027.84619	2.49228
3025.91763	2.44946
3023.98906	2.40656
3022.06050	2.36374
3020.13193	2.32168
3018.20337	2.28070
3016.27480	2.24033
3014.34624	2.20021
3012.41768	2.16120
3010.48911	2.12328
3008.56055	2.08581
3006.63198	2.04860
3004.70342	2.01175
3002.77485	1.97561
3000.84629	1.93994
2998.91772	1.90456
2996.98916	1.87059
2995.06060	1.83881
2993.13203	1.80814
2991.20347	1.77712
2989.27490	1.74541
2987.34634	1.71373
2985.41777	1.68311
2983.48921	1.65365
2981.56064	1.62462
2979.63208	1.59588
2977.70352	1.56807
2975.77495	1.54113
2973.84639	1.51448
2971.91782	1.48778
2969.98926	1.46135
2968.06069	1.43561
2966.13213	1.41014
2964.20356	1.38513
2962.27500	1.36092
2960.34644	1.33671
2958.41787	1.31252
2956.48931	1.28913
2954.56074	1.26657
2952.63218	1.24410
2950.70361	1.22149
2948.77505	1.19937
2946.84648	1.17817
2944.91792	1.15736
2942.98936	1.13633
2941.06079	1.11552
2939.13223	1.09582
2937.20366	1.07708
2935.27510	1.05823
2933.34653	1.03920
2931.41797	1.02055
2929.48940	1.00232
2927.56084	0.98460
2925.63228	0.96705
2923.70371	0.94944
2921.77515	0.93199
2919.84658	0.91486
2917.91802	0.89838
2915.98945	0.88226
2914.06089	0.86586
2912.13232	0.84964
2910.20376	0.83406
2908.27520	0.81891
2906.34663	0.80419
2904.41807	0.79021
2902.48950	0.77702
2900.56094	0.76409
2898.63237	0.75128
2896.70381	0.73863
2894.77524	0.72592
2892.84668	0.71348
2890.91812	0.70167
2888.98955	0.69026
2887.06099	0.67895
2885.13242	0.66762
2883.20386	0.65656
2881.27529	0.64612
2879.34673	0.63602
2877.41816	0.62585
2875.48960	0.61567
2873.56104	0.60555
2871.63247	0.59530
2869.70391	0.58476
2867.77534	0.57431
2865.84678	0.56418
2863.91821	0.55412
2861.98965	0.54424
2860.06108	0.53470
2858.13252	0.52538
2856.20396	0.51622
2854.27539	0.50733
2852.34683	0.49884
2850.41826	0.49074
2848.48970	0.48281
2846.56113	0.47511
2844.63257	0.46759
2842.70400	0.46028
2840.77544	0.45349
2838.84687	0.44712
2836.91831	0.44081
2834.98975	0.43434
2833.06118	0.42773
2831.13262	0.42124
2829.20405	0.41509
2827.27549	0.40915
2825.34692	0.40319
2823.41836	0.39726
2821.48979	0.39155
2819.56123	0.38595
2817.63267	0.38017
2815.70410	0.37443
2813.77554	0.36906
2811.84697	0.36380
2809.91841	0.35847
2807.98984	0.35332
2806.06128	0.34836
2804.13271	0.34352
2802.20415	0.33865
2800.27559	0.33370
2798.34702	0.32894
2796.41846	0.32438
2794.48989	0.31989
2792.56133	0.31556
2790.63276	0.31134
2788.70420	0.30709
2786.77563	0.30282
2784.84707	0.29863
2782.91851	0.29464
2780.98994	0.29074
2779.06138	0.28679
2777.13281	0.28299
2775.20425	0.27959
2773.27568	0.27620
2771.34712	0.27255
2769.41855	0.26891
2767.48999	0.26533
2765.56143	0.26184
2763.63286	0.25857
2761.70430	0.25550
2759.77573	0.25252
2757.84717	0.24948
2755.91860	0.24644
2753.99004	0.24355
2752.06147	0.24070
2750.13291	0.23774
2748.20435	0.23479
2746.27578	0.23217
2744.34722	0.22984
2742.41865	0.22747
2740.49009	0.22496
2738.56152	0.22241
2736.63296	0.22000
2734.70439	0.21776
2732.77583	0.21559
2730.84727	0.21338
2728.91870	0.21109
2726.99014	0.20893
2725.06157	0.20694
2723.13301	0.20501
2721.20444	0.20323
2719.27588	0.20145
2717.34731	0.19945
2715.41875	0.19746
2713.49019	0.19564
2711.56162	0.19391
2709.63306	0.19221
2707.70449	0.19060
2705.77593	0.18911
2703.84736	0.18766
2701.91880	0.18612
2699.99023	0.18439
2698.06167	0.18262
2696.13311	0.18116
2694.20454	0.18001
2692.27598	0.17890
2690.34741	0.17760
2688.41885	0.17621
2686.49028	0.17498
2684.56172	0.17397
2682.63315	0.17303
2680.70459	0.17199
2678.77603	0.17084
2676.84746	0.16964
2674.91890	0.16845
2672.99033	0.16721
2671.06177	0.16608
2669.13320	0.16521
2667.20464	0.16446
2665.27607	0.16375
2663.34751	0.16298
2661.41895	0.16205
2659.49038	0.16105
2657.56182	0.16020
2655.63325	0.15960
2653.70469	0.15908
2651.77612	0.15847
2649.84756	0.15780
2647.91899	0.15714
2645.99043	0.15647
2644.06187	0.15590
2642.13330	0.15543
2640.20474	0.15494
2638.27617	0.15447
2636.34761	0.15413
2634.41904	0.15379
2632.49048	0.15345
2630.56191	0.15309
2628.63335	0.15255
2626.70479	0.15206
2624.77622	0.15183
2622.84766	0.15170
2620.91909	0.15158
2618.99053	0.15139
2617.06196	0.15108
2615.13340	0.15078
2613.20483	0.15066
2611.27627	0.15064
2609.34771	0.15053
2607.41914	0.15033
2605.49058	0.15028
2603.56201	0.15035
2601.63345	0.15042
2599.70488	0.15048
2597.77632	0.15052
2595.84775	0.15055
2593.91919	0.15066
2591.99062	0.15087
2590.06206	0.15112
2588.13350	0.15133
2586.20493	0.15152
2584.27637	0.15170
2582.34780	0.15198
2580.41924	0.15243
2578.49067	0.15286
2576.56211	0.15311
2574.63354	0.15335
2572.70498	0.15362
2570.77642	0.15398
2568.84785	0.15450
2566.91929	0.15498
2564.99072	0.15532
2563.06216	0.15565
2561.13359	0.15607
2559.20503	0.15666
2557.27646	0.15732
2555.34790	0.15790
2553.41934	0.15837
2551.49077	0.15881
2549.56221	0.15928
2547.63364	0.15988
2545.70508	0.16060
2543.77651	0.16135
2541.84795	0.16203
2539.91938	0.16257
2537.99082	0.16301
2536.06226	0.16357
2534.13369	0.16441
2532.20513	0.16526
2530.27656	0.16590
2528.34800	0.16647
2526.41943	0.16722
2524.49087	0.16815
2522.56230	0.16904
2520.63374	0.16973
2518.70518	0.17042
2516.77661	0.17123
2514.84805	0.17207
2512.91948	0.17297
2510.99092	0.17393
2509.06235	0.17470
2507.13379	0.17527
2505.20522	0.17593
2503.27666	0.17689
2501.34810	0.17794
2499.41953	0.17878
2497.49097	0.17948
2495.56240	0.18030
2493.63384	0.18124
2491.70527	0.18217
2489.77671	0.18301
2487.84814	0.18384
2485.91958	0.18475
2483.99102	0.18568
2482.06245	0.18660
2480.13389	0.18755
2478.20532	0.18841
2476.27676	0.18915
2474.34819	0.19006
2472.41963	0.19122
2470.49106	0.19225
2468.56250	0.19299
2466.63394	0.19371
2464.70537	0.19460
2462.77681	0.19568
2460.84824	0.19682
2458.91968	0.19775
2456.99111	0.19858
2455.06255	0.19950
2453.13398	0.20036
2451.20542	0.20130
2449.27686	0.20251
2447.34829	0.20369
2445.41973	0.20460
2443.49116	0.20554
2441.56260	0.20668
2439.63403	0.20786
2437.70547	0.20892
2435.77690	0.20980
2433.84834	0.21059
2431.91978	0.21154
2429.99121	0.21270
2428.06265	0.21385
2426.13408	0.21489
2424.20552	0.21597
2422.27695	0.21711
2420.34839	0.21816
2418.41982	0.21919
2416.49126	0.22040
2414.56270	0.22177
2412.63413	0.22310
2410.70557	0.22421
2408.77700	0.22522
2406.84844	0.22633
2404.91987	0.22749
2402.99131	0.22861
2401.06274	0.22979
2399.13418	0.23108
2397.20562	0.23236
2395.27705	0.23353
2393.34849	0.23461
2391.41992	0.23575
2389.49136	0.23701
2387.56279	0.23845
2385.63423	0.23997
2383.70566	0.24142
2381.77710	0.24292
2379.84854	0.24469
2377.91997	0.24673
2375.99141	0.24895
2374.06284	0.25125
2372.13428	0.25341
2370.20571	0.25568
2368.27715	0.25871
2366.34858	0.26213
2364.42002	0.26524
2362.49146	0.26767
2360.56289	0.26870
2358.63433	0.26876
2356.70576	0.26905
2354.77720	0.27001
2352.84863	0.27153
2350.92007	0.27226
2348.99150	0.27232
2347.06294	0.27285
2345.13437	0.27457
2343.20581	0.27754
2341.27725	0.28013
2339.34868	0.28168
2337.42012	0.28321
2335.49155	0.28479
2333.56299	0.28625
2331.63442	0.28764
2329.70586	0.28883
2327.77729	0.29020
2325.84873	0.29175
2323.92017	0.29315
2321.99160	0.29434
2320.06304	0.29547
2318.13447	0.29672
2316.20591	0.29801
2314.27734	0.29936
2312.34878	0.30093
2310.42021	0.30268
2308.49165	0.30434
2306.56309	0.30573
2304.63452	0.30707
2302.70596	0.30865
2300.77739	0.31039
2298.84883	0.31207
2296.92026	0.31374
2294.99170	0.31541
2293.06313	0.31716
2291.13457	0.31910
2289.20601	0.32103
2287.27744	0.32275
2285.34888	0.32443
2283.42031	0.32628
2281.49175	0.32830
2279.56318	0.33043
2277.63462	0.33260
2275.70605	0.33471
2273.77749	0.33676
2271.84893	0.33879
2269.92036	0.34085
2267.99180	0.34291
2266.06323	0.34497
2264.13467	0.34704
2262.20610	0.34911
2260.27754	0.35115
2258.34897	0.35330
2256.42041	0.35554
2254.49185	0.35766
2252.56328	0.35963
2250.63472	0.36173
2248.70615	0.36402
2246.77759	0.36634
2244.84902	0.36860
2242.92046	0.37075
2240.99189	0.37284
2239.06333	0.37499
2237.13477	0.37727
2235.20620	0.37960
2233.27764	0.38194
2231.34907	0.38425
2229.42051	0.38639
2227.49194	0.38848
2225.56338	0.39071
2223.63481	0.39305
2221.70625	0.39541
2219.77769	0.39760
2217.84912	0.39955
2215.92056	0.40155
2213.99199	0.40383
2212.06343	0.40628
2210.13486	0.40858
2208.20630	0.41047
2206.27773	0.41228
2204.34917	0.41441
2202.42061	0.41672
2200.49204	0.41891
2198.56348	0.42098
2196.63491	0.42297
2194.70635	0.42482
2192.77778	0.42665
2190.84922	0.42854
2188.92065	0.43038
2186.99209	0.43218
2185.06353	0.43402
2183.13496	0.43580
2181.20640	0.43751
2179.27783	0.43917
2177.34927	0.44072
2175.42070	0.44211
2173.49214	0.44347
2171.56357	0.44483
2169.63501	0.44615
2167.70645	0.44741
2165.77788	0.44859
2163.84932	0.44976
2161.92075	0.45103
2159.99219	0.45229
2158.06362	0.45334
2156.13506	0.45422
2154.20649	0.45509
2152.27793	0.45599
2150.34937	0.45673
2148.42080	0.45730
2146.49224	0.45783
2144.56367	0.45817
2142.63511	0.45836
2140.70654	0.45863
2138.77798	0.45899
2136.84941	0.45924
2134.92085	0.45933
2132.99229	0.45921
2131.06372	0.45891
2129.13516	0.45859
2127.20659	0.45834
2125.27803	0.45812
2123.34946	0.45783
2121.42090	0.45734
2119.49233	0.45665
2117.56377	0.45598
2115.63521	0.45524
2113.70664	0.45428
2111.77808	0.45329
2109.84951	0.45238
2107.92095	0.45143
2105.99238	0.45032
2104.06382	0.44898
2102.13525	0.44751
2100.20669	0.44617
2098.27812	0.44484
2096.34956	0.44331
2094.42100	0.44166
2092.49243	0.44003
2090.56387	0.43840
2088.63530	0.43661
2086.70674	0.43475
2084.77817	0.43297
2082.84961	0.43116
2080.92104	0.42916
2078.99248	0.42703
2077.06392	0.42481
2075.13535	0.42247
2073.20679	0.42006
2071.27822	0.41773
2069.34966	0.41556
2067.42109	0.41339
2065.49253	0.41108
2063.56396	0.40860
2061.63540	0.40609
2059.70684	0.40359
2057.77827	0.40102
2055.84971	0.39839
2053.92114	0.39577
2051.99258	0.39320
2050.06401	0.39056
2048.13545	0.38782
2046.20688	0.38505
2044.27832	0.38239
2042.34976	0.37983
2040.42119	0.37722
2038.49263	0.37449
2036.56406	0.37166
2034.63550	0.36882
2032.70693	0.36608
2030.77837	0.36336
2028.84980	0.36058
2026.92124	0.35778
2024.99268	0.35497
2023.06411	0.35207
2021.13555	0.34919
2019.20698	0.34643
2017.27842	0.34369
2015.34985	0.34082
2013.42129	0.33801
2011.49272	0.33539
2009.56416	0.33290
2007.63560	0.33026
2005.70703	0.32742
2003.77847	0.32460
2001.84990	0.32196
1999.92134	0.31944
1997.99277	0.31693
1996.06421	0.31444
1994.13564	0.31199
1992.20708	0.30944
1990.27852	0.30683
1988.34995	0.30433
1986.42139	0.30201
1984.49282	0.29975
1982.56426	0.29733
1980.63569	0.29479
1978.70713	0.29241
1976.77856	0.29022
1974.85000	0.28812
1972.92144	0.28605
1970.99287	0.28400
1969.06431	0.28194
1967.13574	0.27988
1965.20718	0.27775
1963.27861	0.27567
1961.35005	0.27379
1959.42148	0.27198
1957.49292	0.27014
1955.56436	0.26831
1953.63579	0.26660
1951.70723	0.26500
1949.77866	0.26341
1947.85010	0.26180
1945.92153	0.26022
1943.99297	0.25870
1942.06440	0.25724
1940.13584	0.25578
1938.20728	0.25437
1936.27871	0.25309
1934.35015	0.25194
1932.42158	0.25083
1930.49302	0.24960
1928.56445	0.24835
1926.63589	0.24727
1924.70732	0.24634
1922.77876	0.24536
1920.85020	0.24430
1918.92163	0.24336
1916.99307	0.24253
1915.06450	0.24164
1913.13594	0.24068
1911.20737	0.23993
1909.27881	0.23938
1907.35024	0.23882
1905.42168	0.23822
1903.49312	0.23768
1901.56455	0.23717
1899.63599	0.23669
1897.70742	0.23627
1895.77886	0.23592
1893.85029	0.23558
1891.92173	0.23517
1889.99316	0.23488
1888.06460	0.23469
1886.13604	0.23447
1884.20747	0.23427
1882.27891	0.23415
1880.35034	0.23404
1878.42178	0.23391
1876.49321	0.23388
1874.56465	0.23386
1872.63608	0.23389
1870.70752	0.23406
1868.77896	0.23447
1866.85039	0.23483
1864.92183	0.23491
1862.99326	0.23498
1861.06470	0.23523
1859.13613	0.23566
1857.20757	0.23607
1855.27900	0.23655
1853.35044	0.23705
1851.42187	0.23751
1849.49331	0.23799
1847.56475	0.23856
1845.63618	0.23932
1843.70762	0.24034
1841.77905	0.24132
1839.85049	0.24195
1837.92192	0.24263
1835.99336	0.24349
1834.06479	0.24447
1832.13623	0.24547
1830.20767	0.24685
1828.27910	0.24836
1826.35054	0.24947
1824.42197	0.25071
1822.49341	0.25205
1820.56484	0.25335
1818.63628	0.25474
1816.70771	0.25639
1814.77915	0.25801
1812.85059	0.25971
1810.92202	0.26169
1808.99346	0.26371
1807.06489	0.26572
1805.13633	0.26768
1803.20776	0.26985
1801.27920	0.27230
1799.35063	0.27510
1797.42207	0.27772
1795.49351	0.28018
1793.56494	0.28294
1791.63638	0.28647
1789.70781	0.29001
1787.77925	0.29279
1785.85068	0.29594
1783.92212	0.29963
1781.99355	0.30359
1780.06499	0.30771
1778.13643	0.31194
1776.20786	0.31598
1774.27930	0.32023
1772.35073	0.32590
1770.42217	0.33210
1768.49360	0.33743
1766.56504	0.34272
1764.63647	0.34825
1762.70791	0.35422
1760.77935	0.36165
1758.85078	0.36864
1756.92222	0.37575
1754.99365	0.38370
1753.06509	0.39081
1751.13652	0.39892
1749.20796	0.40926
1747.27939	0.41978
1745.35083	0.42919
1743.42227	0.43918
1741.49370	0.45009
1739.56514	0.46265
1737.63657	0.47510
1735.70801	0.48592
1733.77944	0.50212
1731.85088	0.52192
1729.92231	0.53790
1727.99375	0.55390
1726.06519	0.57082
1724.13662	0.58903
1722.20806	0.60874
1720.27949	0.62720
1718.35093	0.64859
1716.42236	0.67971
1714.49380	0.70981
1712.56523	0.73482
1710.63667	0.75902
1708.70811	0.78469
1706.77954	0.81350
1704.85098	0.84777
1702.92241	0.87851
1700.99385	0.90902
1699.06528	0.95436
1697.13672	0.99624
1695.20815	1.03919
1693.27959	1.08078
1691.35103	1.11386
1689.42246	1.15151
1687.49390	1.19122
1685.56533	1.22995
1683.63677	1.28946
1681.70820	1.35038
1679.77964	1.38908
1677.85107	1.42572
1675.92251	1.46787
1673.99395	1.52062
1672.06538	1.56812
1670.13682	1.61385
1668.20825	1.67233
1666.27969	1.72019
1664.35112	1.75991
1662.42256	1.80874
1660.49399	1.86435
1658.56543	1.90848
1656.63687	1.94431
1654.70830	1.97698
1652.77974	2.02824
1650.85117	2.07945
1648.92261	2.09994
1646.99404	2.12403
1645.06548	2.15146
1643.13691	2.17143
1641.20835	2.18442
1639.27979	2.19482
1637.35122	2.20031
1635.42266	2.20113
1633.49409	2.19725
1631.56553	2.18652
1629.63696	2.17118
1627.70840	2.14508
1625.77983	2.11394
1623.85127	2.07555
1621.92271	2.02929
1619.99414	1.98775
1618.06558	1.94621
1616.13701	1.88626
1614.20845	1.82542
1612.27988	1.77980
1610.35132	1.73215
1608.42275	1.67980
1606.49419	1.62780
1604.56562	1.57942
1602.63706	1.53287
1600.70850	1.48791
1598.77993	1.44641
1596.85137	1.40707
1594.92280	1.36856
1592.99424	1.33106
1591.06567	1.29660
1589.13711	1.26440
1587.20854	1.23437
1585.27998	1.20640
1583.35142	1.18002
1581.42285	1.15562
1579.49429	1.13435
1577.56572	1.11473
1575.63716	1.09065
1573.70859	1.06966
1571.78003	1.05603
1569.85146	1.04145
1567.92290	1.02488
1565.99434	1.01186
1564.06577	1.00104
1562.13721	0.99215
1560.20864	0.98487
1558.28008	0.97320
1556.35151	0.96299
1554.42295	0.95700
1552.49438	0.95085
1550.56582	0.94399
1548.63726	0.93617
1546.70869	0.92807
1544.78013	0.91908
1542.85156	0.90886
1540.92300	0.89622
1538.99443	0.87801
1537.06587	0.86468
1535.13730	0.85573
1533.20874	0.84407
1531.28018	0.83148
1529.35161	0.82206
1527.42305	0.81280
1525.49448	0.80302
1523.56592	0.79467
1521.63735	0.78662
1519.70879	0.77841
1517.78022	0.77150
1515.85166	0.76384
1513.92310	0.75608
1511.99453	0.74942
1510.06597	0.74317
1508.13740	0.73695
1506.20884	0.72814
1504.28027	0.72064
1502.35171	0.71625
1500.42314	0.71223
1498.49458	0.70788
1496.56602	0.70300
1494.63745	0.69817
1492.70889	0.69415
1490.78032	0.69057
1488.85176	0.68677
1486.92319	0.68319
1484.99463	0.68014
1483.06606	0.67750
1481.13750	0.67495
1479.20894	0.67240
1477.28037	0.67034
1475.35181	0.66894
1473.42324	0.66785
1471.49468	0.66628
1469.56611	0.66430
1467.63755	0.66225
1465.70898	0.66023
1463.78042	0.65836
1461.85186	0.65707
1459.92329	0.65636
1457.99473	0.65556
1456.06616	0.65357
1454.13760	0.65109
1452.20903	0.64897
1450.28047	0.64689
1448.35190	0.64469
1446.42334	0.64228
1444.49478	0.63999
1442.56621	0.63795
1440.63765	0.63604
1438.70908	0.63414
1436.78052	0.63182
1434.85195	0.62927
1432.92339	0.62733
1430.99482	0.62591
1429.06626	0.62460
1427.13770	0.62340
1425.20913	0.62255
1423.28057	0.62200
1421.35200	0.62147
1419.42344	0.62082
1417.49487	0.61988
1415.56631	0.61851
1413.63774	0.61720
1411.70918	0.61614
1409.78062	0.61529
1407.85205	0.61462
1405.92349	0.61411
1403.99492	0.61349
1402.06636	0.61248
1400.13779	0.61133
1398.20923	0.61002
1396.28066	0.60830
1394.35210	0.60598
1392.42354	0.60351
1390.49497	0.60135
1388.56641	0.59916
1386.63784	0.59663
1384.70928	0.59420
1382.78071	0.59205
1380.85215	0.58997
1378.92358	0.58816
1376.99502	0.58669
1375.06646	0.58536
1373.13789	0.58421
1371.20933	0.58339
1369.28076	0.58279
1367.35220	0.58210
1365.42363	0.58104
1363.49507	0.57965
1361.56650	0.57828
1359.63794	0.57707
1357.70937	0.57596
1355.78081	0.57488
1353.85225	0.57384
1351.92368	0.57283
1349.99512	0.57178
1348.06655	0.57073
1346.13799	0.56969
1344.20942	0.56876
1342.28086	0.56792
1340.35229	0.56705
1338.42373	0.56609
1336.49517	0.56511
1334.56660	0.56424
1332.63804	0.56359
1330.70947	0.56309
1328.78091	0.56258
1326.85234	0.56216
1324.92378	0.56202
1322.99521	0.56201
1321.06665	0.56186
1319.13809	0.56156
1317.20952	0.56118
1315.28096	0.56067
1313.35239	0.55996
1311.42383	0.55916
1309.49526	0.55829
1307.56670	0.55735
1305.63813	0.55646
1303.70957	0.55569
1301.78101	0.55495
1299.85244	0.55413
1297.92388	0.55328
1295.99531	0.55238
1294.06675	0.55139
1292.13818	0.55045
1290.20962	0.54964
1288.28105	0.54883
1286.35249	0.54799
1284.42393	0.54722
1282.49536	0.54637
1280.56680	0.54546
1278.63823	0.54466
1276.70967	0.54391
1274.78110	0.54325
1272.85254	0.54271
1270.92397	0.54214
1268.99541	0.54155
1267.06685	0.54104
1265.13828	0.54049
1263.20972	0.54002
1261.28115	0.53961
1259.35259	0.53902
1257.42402	0.53833
1255.49546	0.53777
1253.56689	0.53730
1251.63833	0.53694
1249.70977	0.53676
1247.78120	0.53659
1245.85264	0.53629
1243.92407	0.53585
1241.99551	0.53530
1240.06694	0.53454
1238.13838	0.53352
1236.20981	0.53236
1234.28125	0.53113
1232.35269	0.52989
1230.42412	0.52859
1228.49556	0.52728
1226.56699	0.52609
1224.63843	0.52499
1222.70986	0.52386
1220.78130	0.52270
1218.85273	0.52165
1216.92417	0.52081
1214.99561	0.52009
1213.06704	0.51939
1211.13848	0.51871
1209.20991	0.51800
1207.28135	0.51736
1205.35278	0.51682
1203.42422	0.51629
1201.49565	0.51559
1199.56709	0.51464
1197.63853	0.51356
1195.70996	0.51262
1193.78140	0.51201
1191.85283	0.51168
1189.92427	0.51132
1187.99570	0.51089
1186.06714	0.51066
1184.13857	0.51065
1182.21001	0.51075
1180.28145	0.51098
1178.35288	0.51145
1176.42432	0.51217
1174.49575	0.51298
1172.56719	0.51377
1170.63862	0.51449
1168.71006	0.51521
1166.78149	0.51593
1164.85293	0.51651
1162.92437	0.51697
1160.99580	0.51737
1159.06724	0.51763
1157.13867	0.51764
1155.21011	0.51722
1153.28154	0.51621
1151.35298	0.51475
1149.42441	0.51298
1147.49585	0.51081
1145.56729	0.50827
1143.63872	0.50568
1141.71016	0.50333
1139.78159	0.50140
1137.85303	0.49992
1135.92446	0.49878
1133.99590	0.49791
1132.06733	0.49723
1130.13877	0.49662
1128.21021	0.49605
1126.28164	0.49549
1124.35308	0.49493
1122.42451	0.49437
1120.49595	0.49388
1118.56738	0.49362
1116.63882	0.49375
1114.71025	0.49418
1112.78169	0.49473
1110.85312	0.49536
1108.92456	0.49617
1106.99600	0.49715
1105.06743	0.49804
1103.13887	0.49877
1101.21030	0.49955
1099.28174	0.50077
1097.35317	0.50268
1095.42461	0.50542
1093.49604	0.50925
1091.56748	0.51424
1089.63892	0.52035
1087.71035	0.52767
1085.78179	0.53588
1083.85322	0.54429
1081.92466	0.55201
1079.99609	0.55784
1078.06753	0.56093
1076.13896	0.56126
1074.21040	0.55892
1072.28184	0.55400
1070.35327	0.54722
1068.42471	0.53987
1066.49614	0.53292
1064.56758	0.52658
1062.63901	0.52089
1060.71045	0.51590
1058.78188	0.51150
1056.85332	0.50756
1054.92476	0.50408
1052.99619	0.50122
1051.06763	0.49918
1049.13906	0.49804
1047.21050	0.49756
1045.28193	0.49741
1043.35337	0.49742
1041.42480	0.49744
1039.49624	0.49750
1037.56768	0.49783
1035.63911	0.49813
1033.71055	0.49779
1031.78198	0.49673
1029.85342	0.49533
1027.92485	0.49375
1025.99629	0.49227
1024.06772	0.49139
1022.13916	0.49113
1020.21060	0.49103
1018.28203	0.49082
1016.35347	0.49062
1014.42490	0.49043
1012.49634	0.49013
1010.56777	0.49012
1008.63921	0.49062
1006.71064	0.49129
1004.78208	0.49214
1002.85352	0.49375
1000.92495	0.49638
998.99639	0.49968
997.06782	0.50344
995.13926	0.50760
993.21069	0.51166
991.28213	0.51493
989.35356	0.51693
987.42500	0.51778
985.49644	0.51792
983.56787	0.51782
981.63931	0.51803
979.71074	0.51898
977.78218	0.52070
975.85361	0.52304
973.92505	0.52576
971.99648	0.52860
970.06792	0.53169
968.13936	0.53511
966.21079	0.53902
964.28223	0.54362
962.35366	0.54860
960.42510	0.55363
958.49653	0.55898
956.56797	0.56478
954.63940	0.57081
952.71084	0.57701
950.78228	0.58323
948.85371	0.58948
946.92515	0.59597
944.99658	0.60234
943.06802	0.60836
941.13945	0.61443
939.21089	0.62051
937.28232	0.62634
935.35376	0.63206
933.42520	0.63775
931.49663	0.64362
929.56807	0.64981
927.63950	0.65600
925.71094	0.66232
923.78237	0.66905
921.85381	0.67557
919.92524	0.68196
917.99668	0.68915
916.06812	0.69673
914.13955	0.70427
912.21099	0.71192
910.28242	0.71929
908.35386	0.72696
906.42529	0.73560
904.49673	0.74469
902.56816	0.75414
900.63960	0.76413
898.71104	0.77400
896.78247	0.78356
894.85391	0.79364
892.92534	0.80434
890.99678	0.81524
889.06821	0.82605
887.13965	0.83622
885.21108	0.84627
883.28252	0.85764
881.35396	0.87047
879.42539	0.88262
877.49683	0.89263
875.56826	0.90217
873.63970	0.91244
871.71113	0.92351
869.78257	0.93594
867.85400	0.94852
865.92544	0.95888
863.99687	0.96836
862.06831	0.98073
860.13975	0.99502
858.21118	1.00789
856.28262	1.01927
854.35405	1.03098
852.42549	1.04381
850.49692	1.05547
848.56836	1.06458
846.63979	1.07468
844.71123	1.08765
842.78267	1.10020
840.85410	1.11059
838.92554	1.11967
836.99697	1.12946
835.06841	1.14359
833.13984	1.15958
831.21128	1.17028
829.28271	1.17968
827.35415	1.19312
825.42559	1.20181
823.49702	1.20799
821.56846	1.22672
819.63989	1.25464
817.71133	1.27590
815.78276	1.28222
813.85420	1.27665
811.92563	1.27214
809.99707	1.27998
808.06851	1.28902
806.13994	1.28369
804.21138	1.28594
802.28281	1.30643
800.35425	1.31617
798.42568	1.31542
796.49712	1.32015
794.56855	1.33229
792.63999	1.34682
790.71143	1.34413
788.78286	1.33552
786.85430	1.34769
784.92573	1.39648
782.99717	1.45315
781.06860	1.46166
779.14004	1.44945
777.21147	1.43841
775.28291	1.41387
773.35435	1.41222
771.42578	1.43135
769.49722	1.37709
767.56865	1.30172
765.64009	1.28293
763.71152	1.32731
761.78296	1.41564
759.85439	1.43873
757.92583	1.35027
755.99727	1.21792
754.06870	1.15115
752.14014	1.20377
750.21157	1.28155
748.28301	1.24682
746.35444	1.20120
744.42588	1.21849
742.49731	1.26562
740.56875	1.24787
738.64019	1.20350
736.71162	1.14823
734.78306	1.15443
732.85449	4.39713
730.92593	4.38556
728.99736	4.37398
727.06880	1.26696
725.14023	4.35084
723.21167	4.33927
721.28311	0.80213
719.35454	0.56591
717.42598	0.48237
715.49741	0.51102
713.56885	0.65398
711.64028	0.49696
709.71172	0.32260
707.78315	0.34117
705.85459	0.44171
703.92603	0.48249
701.99746	0.48016
700.06890	0.41332
698.14033	0.25421
696.21177	0.11062
694.28320	0.05723
692.35464	0.08505
690.42607	0.13664
688.49751	0.17904
686.56895	0.23239
684.64038	0.30673
682.71182	0.35043
680.78325	0.31316
678.85469	0.20392
676.92612	0.15041
674.99756	0.21165
673.06899	0.40475
671.14043	4.02684
669.21187	4.01527
667.28330	4.00370
665.35474	3.99213
663.42617	1.34561
661.49761	0.36905
659.56904	0.18356
657.64048	0.10938
655.71191	0.04433
653.78335	0.10616
651.85479	0.28651
649.92622	0.43130
647.99766	0.35137
646.06909	0.32976
644.14053	0.44267
642.21196	0.74039
640.28340	3.84170
638.35483	3.83013
636.42627	3.81856
634.49771	0.63806
632.56914	0.38079
630.64058	0.36353
628.71201	0.41169
626.78345	0.38581
624.85488	0.42325
622.92632	0.56541
620.99775	0.45853
619.06919	0.29286
617.14062	0.26780
615.21206	0.29317
613.28350	0.30236
611.35493	0.38874
609.42637	0.46564
607.49780	0.32971
605.56924	0.30958
603.64067	0.43864
601.71211	0.67063
599.78354	0.70352
597.85498	0.58016
595.92642	0.43827
593.99785	0.35212
592.06929	0.33115
590.14072	0.25978
588.21216	0.22247
586.28359	0.25081
584.35503	0.30026
582.42646	0.40020
580.49790	0.40696
578.56934	0.26720
576.64077	0.18833
574.71221	0.18486
572.78364	0.34735
570.85508	3.42513
568.92651	3.41356
566.99795	0.95214
565.06938	0.45340
563.14082	0.42373
561.21226	0.44812
559.28369	0.30044
557.35513	0.15032
555.42656	0.11920
553.49800	0.15502
551.56943	0.24068
549.64087	0.25547
547.71230	0.19124
545.78374	0.18164
543.85518	0.19380
541.92661	0.20206
539.99805	0.27091
538.06948	0.27194
536.14092	0.23720
534.21235	0.30161
532.28379	0.36609
530.35522	0.26879
528.42666	0.11943
526.49810	0.07298
524.56953	0.15760
522.64097	0.23558
520.71240	0.22255
518.78384	0.24197
516.85527	0.32466
514.92671	0.31585
512.99814	0.24973
511.06958	0.22973
509.14102	0.24317
507.21245	0.28305
505.28389	0.34954
503.35532	0.32498
501.42676	0.31611
499.49819	0.41502
