3997.91411	0.08156
3995.98555	0.08127
3994.05698	0.08138
3992.12842	0.08213
3990.19985	0.08260
3988.27129	0.08245
3986.34272	0.08232
3984.41416	0.08256
3982.48560	0.08285
3980.55703	0.08301
3978.62847	0.08319
3976.69990	0.08343
3974.77134	0.08364
3972.84277	0.08378
3970.91421	0.08388
3968.98564	0.08388
3967.05708	0.08369
3965.12852	0.08350
3963.19995	0.08380
3961.27139	0.08439
3959.34282	0.08470
3957.41426	0.08486
3955.48569	0.08506
3953.55713	0.08502
3951.62856	0.08506
3949.70000	0.08573
3947.77144	0.08642
3945.84287	0.08637
3943.91431	0.08594
3941.98574	0.08558
3940.05718	0.08515
3938.12861	0.08490
3936.20005	0.08512
3934.27148	0.08536
3932.34292	0.08522
3930.41436	0.08493
3928.48579	0.08475
3926.55723	0.08441
3924.62866	0.08406
3922.70010	0.08423
3920.77153	0.08464
3918.84297	0.08472
3916.91440	0.08486
3914.98584	0.08507
3913.05728	0.08489
3911.12871	0.08481
3909.20015	0.08493
3907.27158	0.08464
3905.34302	0.08414
3903.41445	0.08425
3901.48589	0.08506
3899.55732	0.08556
3897.62876	0.08533
3895.70020	0.08467
3893.77163	0.08410
3891.84307	0.08426
3889.91450	0.08481
3887.98594	0.08466
3886.05737	0.08467
3884.12881	0.08535
3882.20024	0.08531
3880.27168	0.08475
3878.34312	0.08456
3876.41455	0.08455
3874.48599	0.08477
3872.55742	0.08536
3870.62886	0.08619
3868.70029	0.08719
3866.77173	0.08741
3864.84316	0.08689
3862.91460	0.08668
3860.98604	0.08708
3859.05747	0.08755
3857.12891	0.08794
3855.20034	0.08881
3853.27178	0.09065
3851.34321	0.09188
3849.41465	0.09132
3847.48608	0.09077
3845.55752	0.09058
3843.62896	0.09066
3841.70039	0.09137
3839.77183	0.09278
3837.84326	0.09428
3835.91470	0.09514
3833.98613	0.09524
3832.05757	0.09481
3830.12900	0.09458
3828.20044	0.09524
3826.27187	0.09675
3824.34331	0.09819
3822.41475	0.09888
3820.48618	0.09959
3818.55762	0.10053
3816.62905	0.10138
3814.70049	0.10240
3812.77192	0.10298
3810.84336	0.10324
3808.91479	0.10398
3806.98623	0.10518
3805.05767	0.10610
3803.12910	0.10711
3801.20054	0.10915
3799.27197	0.11075
3797.34341	0.11080
3795.41484	0.11123
3793.48628	0.11267
3791.55771	0.11421
3789.62915	0.11551
3787.70059	0.11660
3785.77202	0.11764
3783.84346	0.11904
3781.91489	0.12089
3779.98633	0.12290
3778.05776	0.12483
3776.12920	0.12611
3774.20063	0.12716
3772.27207	0.12878
3770.34351	0.13088
3768.41494	0.13274
3766.48638	0.13440
3764.55781	0.13657
3762.62925	0.13858
3760.70068	0.14019
3758.77212	0.14236
3756.84355	0.14484
3754.91499	0.14675
3752.98643	0.14882
3751.05786	0.15224
3749.12930	0.15628
3747.20073	0.15843
3745.27217	0.16057
3743.34360	0.16519
3741.41504	0.16925
3739.48647	0.17168
3737.55791	0.17527
3735.62935	0.18112
3733.70078	0.18790
3731.77222	0.19311
3729.84365	0.19697
3727.91509	0.20064
3725.98652	0.20533
3724.05796	0.21129
3722.12939	0.21801
3720.20083	0.22520
3718.27227	0.23203
3716.34370	0.23854
3714.41514	0.24514
3712.48657	0.25349
3710.55801	0.26651
3708.62944	0.28170
3706.70088	0.29401
3704.77231	0.30486
3702.84375	0.31736
3700.91519	0.33390
3698.98662	0.35203
3697.05806	0.36918
3695.12949	0.38735
3693.20093	0.40628
3691.27236	0.42624
3689.34380	0.45241
3687.41523	0.48629
3685.48667	0.51719
3683.55811	0.54395
3681.62954	0.57214
3679.70098	0.60296
3677.77241	0.63479
3675.84385	0.67292
3673.91528	0.72502
3671.98672	0.76801
3670.05815	0.80573
3668.12959	0.85705
3666.20103	0.90469
3664.27246	0.94506
3662.34390	0.98835
3660.41533	1.03510
3658.48677	1.08095
3656.55820	1.12931
3654.62964	1.18293
3652.70107	1.22780
3650.77251	1.26687
3648.84395	1.32146
3646.91538	1.38887
3644.98682	1.43857
3643.05825	1.47694
3641.12969	1.51650
3639.20112	1.56023
3637.27256	1.60439
3635.34399	1.64770
3633.41543	1.69084
3631.48687	1.73039
3629.55830	1.76980
3627.62974	1.82196
3625.70117	1.87182
3623.77261	1.90594
3621.84404	1.93782
3619.91548	1.97427
3617.98691	2.02013
3616.05835	2.06485
3614.12979	2.10113
3612.20122	2.13967
3610.27266	2.17940
3608.34409	2.21816
3606.41553	2.25809
3604.48696	2.29585
3602.55840	2.33082
3600.62983	2.36869
3598.70127	2.40941
3596.77271	2.44944
3594.84414	2.49102
3592.91558	2.53389
3590.98701	2.57276
3589.05845	2.60838
3587.12988	2.65193
3585.20132	2.70060
3583.27275	2.74094
3581.34419	2.77725
3579.41562	2.81641
3577.48706	2.85858
3575.55850	2.90146
3573.62993	2.94504
3571.70137	2.98756
3569.77280	3.02846
3567.84424	3.07307
3565.91567	3.12726
3563.98711	3.17668
3562.05854	3.21662
3560.12998	3.25746
3558.20142	3.29941
3556.27285	3.34199
3554.34429	3.38562
3552.41572	3.43192
3550.48716	3.48005
3548.55859	3.52699
3546.63003	3.57466
3544.70146	3.62572
3542.77290	3.67610
3540.84434	3.72259
3538.91577	3.76604
3536.98721	3.80912
3535.05864	3.85655
3533.13008	3.90386
3531.20151	3.94882
3529.27295	3.99737
3527.34438	4.05038
3525.41582	4.10217
3523.48726	4.15097
3521.55869	4.19864
3519.63013	4.24653
3517.70156	4.29636
3515.77300	4.34506
3513.84443	4.39146
3511.91587	4.43882
3509.98730	4.49022
3508.05874	4.54347
3506.13018	4.59545
3504.20161	4.64818
3502.27305	4.69965
3500.34448	4.74585
3498.41592	4.78958
3496.48735	4.83912
3494.55879	4.89222
3492.63022	4.93871
3490.70166	4.98440
3488.77310	5.03661
3486.84453	5.08719
3484.91597	5.12927
3482.98740	5.17013
3481.05884	5.21903
3479.13027	5.26968
3477.20171	5.31613
3475.27314	5.36583
3473.34458	5.42119
3471.41602	5.47699
3469.48745	5.53053
3467.55889	5.57879
3465.63032	5.62286
3463.70176	5.66916
3461.77319	5.71342
3459.84463	5.76171
3457.91606	5.82088
3455.98750	5.87522
3454.05894	5.92426
3452.13037	5.98229
3450.20181	6.04301
3448.27324	6.10284
3446.34468	6.16808
3444.41611	6.22184
3442.48755	6.26597
3440.55898	6.31417
3438.63042	6.35762
3436.70186	6.39791
3434.77329	6.45026
3432.84473	6.50590
3430.91616	6.54335
3428.98760	6.57602
3427.05903	6.63327
3425.13047	6.72519
3423.20190	6.81738
3421.27334	6.87796
3419.34478	6.91073
3417.41621	6.93876
3415.48765	6.98064
3413.55908	7.03046
3411.63052	7.09329
3409.70195	7.15701
3407.77339	7.20851
3405.84482	7.27359
3403.91626	7.34795
3401.98770	7.37513
3400.05913	7.38128
3398.13057	7.40847
3396.20200	7.43327
3394.27344	7.47328
3392.34487	7.52112
3390.41631	7.55090
3388.48774	7.58432
3386.55918	7.64284
3384.63062	7.69012
3382.70205	7.70025
3380.77349	7.69863
3378.84492	7.71455
3376.91636	7.77281
3374.98779	7.84421
3373.05923	7.90741
3371.13066	7.96417
3369.20210	7.99425
3367.27354	7.99562
3365.34497	8.00731
3363.41641	8.00344
3361.48784	7.98389
3359.55928	8.02701
3357.63071	8.09615
3355.70215	8.14596
3353.77358	8.19385
3351.84502	8.23232
3349.91646	8.23065
3347.98789	8.20529
3346.05933	8.19395
3344.13076	8.23167
3342.20220	8.30969
3340.27363	8.32289
3338.34507	8.28770
3336.41650	8.32097
3334.48794	8.41888
3332.55937	8.49848
3330.63081	8.53756
3328.70225	8.49204
3326.77368	8.42553
3324.84512	8.41852
3322.91655	8.39489
3320.98799	8.36327
3319.05942	8.37537
3317.13086	8.45164
3315.20229	8.54490
3313.27373	8.55270
3311.34517	8.46558
3309.41660	8.41320
3307.48804	8.42394
3305.55947	8.39324
3303.63091	8.36362
3301.70234	8.37263
3299.77378	8.40210
3297.84521	8.45651
3295.91665	8.52513
3293.98809	8.55107
3292.05952	8.51611
3290.13096	8.47159
3288.20239	8.41643
3286.27383	8.41726
3284.34526	8.56898
3282.41670	8.78536
3280.48813	8.78137
3278.55957	8.56977
3276.63101	8.43266
3274.70244	8.42882
3272.77388	8.44234
3270.84531	8.41259
3268.91675	8.40591
3266.98818	8.45518
3265.05962	8.51712
3263.13105	8.58165
3261.20249	8.73953
3259.27393	8.98816
3257.34536	9.09536
3255.41680	8.98329
3253.48823	8.86630
3251.55967	8.78124
3249.63110	8.66828
3247.70254	8.58696
3245.77397	8.59754
3243.84541	8.69617
3241.91685	8.74426
3239.98828	8.68275
3238.05972	8.63441
3236.13115	8.63745
3234.20259	8.65911
3232.27402	8.68858
3230.34546	8.75383
3228.41689	8.79321
3226.48833	8.71148
3224.55977	8.58599
3222.63120	8.50211
3220.70264	8.37587
3218.77407	8.21091
3216.84551	8.18946
3214.91694	8.29971
3212.98838	8.34184
3211.05981	8.31712
3209.13125	8.32404
3207.20269	8.30807
3205.27412	8.25839
3203.34556	8.23004
3201.41699	8.20102
3199.48843	8.15006
3197.55986	8.08197
3195.63130	8.00964
3193.70273	7.94344
3191.77417	7.87199
3189.84561	7.83072
3187.91704	7.85136
3185.98848	7.87123
3184.05991	7.80277
3182.13135	7.70124
3180.20278	7.67741
3178.27422	7.66218
3176.34565	7.52896
3174.41709	7.35929
3172.48853	7.26676
3170.55996	7.23056
3168.63140	7.19220
3166.70283	7.12853
3164.77427	7.05739
3162.84570	7.00529
3160.91714	6.96589
3158.98857	6.92729
3157.06001	6.86259
3155.13145	6.76211
3153.20288	6.66443
3151.27432	6.58844
3149.34575	6.51565
3147.41719	6.43407
3145.48862	6.35951
3143.56006	6.29036
3141.63149	6.21551
3139.70293	6.14721
3137.77437	6.08653
3135.84580	6.02067
3133.91724	5.94331
3131.98867	5.86179
3130.06011	5.79237
3128.13154	5.72614
3126.20298	5.64557
3124.27441	5.55975
3122.34585	5.47922
3120.41729	5.40356
3118.48872	5.33072
3116.56016	5.25829
3114.63159	5.18441
3112.70303	5.10843
3110.77446	5.03023
3108.84590	4.95277
3106.91733	4.88146
3104.98877	4.81554
3103.06021	4.74931
3101.13164	4.67890
3099.20308	4.60527
3097.27451	4.53446
3095.34595	4.47079
3093.41738	4.40777
3091.48882	4.33916
3089.56025	4.26975
3087.63169	4.20224
3085.70312	4.13530
3083.77456	4.06903
3081.84600	4.00335
3079.91743	3.93837
3077.98887	3.87270
3076.06030	3.80604
3074.13174	3.74330
3072.20317	3.68526
3070.27461	3.62644
3068.34604	3.56584
3066.41748	3.50689
3064.48892	3.45127
3062.56035	3.39725
3060.63179	3.34264
3058.70322	3.28567
3056.77466	3.22651
3054.84609	3.16923
3052.91753	3.11550
3050.98896	3.06301
3049.06040	3.01061
3047.13184	2.95908
3045.20327	2.90817
3043.27471	2.85663
3041.34614	2.80538
3039.41758	2.75631
3037.48901	2.70921
3035.56045	2.66277
3033.63188	2.61652
3031.70332	2.57098
3029.77476	2.52666
3027.84619	2.48284
3025.91763	2.43879
3023.98906	2.39492
3022.06050	2.35200
3020.13193	2.30984
3018.20337	2.26753
3016.27480	2.22582
3014.34624	2.18639
3012.41768	2.14880
3010.48911	2.11103
3008.56055	2.07273
3006.63198	2.03487
3004.70342	1.99767
3002.77485	1.96143
3000.84629	1.92674
2998.91772	1.89274
2996.98916	1.85859
2995.06060	1.82488
2993.13203	1.79155
2991.20347	1.75817
2989.27490	1.72550
2987.34634	1.69421
2985.41777	1.66382
2983.48921	1.63377
2981.56064	1.60400
2979.63208	1.57437
2977.70352	1.54494
2975.77495	1.51605
2973.84639	1.48820
2971.91782	1.46136
2969.98926	1.43489
2968.06069	1.40895
2966.13213	1.38354
2964.20356	1.35824
2962.27500	1.33339
2960.34644	1.30925
2958.41787	1.28540
2956.48931	1.26197
2954.56074	1.23918
2952.63218	1.21639
2950.70361	1.19350
2948.77505	1.17087
2946.84648	1.14897
2944.91792	1.12804
2942.98936	1.10779
2941.06079	1.08818
2939.13223	1.06885
2937.20366	1.04963
2935.27510	1.03118
2933.34653	1.01337
2931.41797	0.99562
2929.48940	0.97839
2927.56084	0.96195
2925.63228	0.94587
2923.70371	0.92965
2921.77515	0.91260
2919.84658	0.89494
2917.91802	0.87774
2915.98945	0.86120
2914.06089	0.84504
2912.13232	0.82927
2910.20376	0.81374
2908.27520	0.79824
2906.34663	0.78325
2904.41807	0.76924
2902.48950	0.75594
2900.56094	0.74269
2898.63237	0.72933
2896.70381	0.71641
2894.77524	0.70381
2892.84668	0.69100
2890.91812	0.67846
2888.98955	0.66641
2887.06099	0.65454
2885.13242	0.64321
2883.20386	0.63248
2881.27529	0.62186
2879.34673	0.61107
2877.41816	0.60051
2875.48960	0.59062
2873.56104	0.58086
2871.63247	0.57089
2869.70391	0.56116
2867.77534	0.55180
2865.84678	0.54266
2863.91821	0.53376
2861.98965	0.52506
2860.06108	0.51677
2858.13252	0.50905
2856.20396	0.50149
2854.27539	0.49359
2852.34683	0.48559
2850.41826	0.47767
2848.48970	0.46936
2846.56113	0.46071
2844.63257	0.45236
2842.70400	0.44465
2840.77544	0.43760
2838.84687	0.43086
2836.91831	0.42412
2834.98975	0.41761
2833.06118	0.41156
2831.13262	0.40569
2829.20405	0.39974
2827.27549	0.39378
2825.34692	0.38771
2823.41836	0.38157
2821.48979	0.37565
2819.56123	0.36994
2817.63267	0.36443
2815.70410	0.35920
2813.77554	0.35414
2811.84697	0.34916
2809.91841	0.34412
2807.98984	0.33889
2806.06128	0.33372
2804.13271	0.32894
2802.20415	0.32447
2800.27559	0.31998
2798.34702	0.31543
2796.41846	0.31095
2794.48989	0.30654
2792.56133	0.30228
2790.63276	0.29821
2788.70420	0.29416
2786.77563	0.29002
2784.84707	0.28597
2782.91851	0.28221
2780.98994	0.27868
2779.06138	0.27519
2777.13281	0.27167
2775.20425	0.26809
2773.27568	0.26442
2771.34712	0.26090
2769.41855	0.25759
2767.48999	0.25439
2765.56143	0.25137
2763.63286	0.24851
2761.70430	0.24574
2759.77573	0.24282
2757.84717	0.23975
2755.91860	0.23684
2753.99004	0.23416
2752.06147	0.23163
2750.13291	0.22903
2748.20435	0.22626
2746.27578	0.22352
2744.34722	0.22095
2742.41865	0.21853
2740.49009	0.21619
2738.56152	0.21383
2736.63296	0.21158
2734.70439	0.20950
2732.77583	0.20741
2730.84727	0.20522
2728.91870	0.20297
2726.99014	0.20099
2725.06157	0.19925
2723.13301	0.19745
2721.20444	0.19555
2719.27588	0.19355
2717.34731	0.19170
2715.41875	0.19022
2713.49019	0.18890
2711.56162	0.18733
2709.63306	0.18553
2707.70449	0.18392
2705.77593	0.18255
2703.84736	0.18116
2701.91880	0.17976
2699.99023	0.17834
2698.06167	0.17675
2696.13311	0.17514
2694.20454	0.17385
2692.27598	0.17280
2690.34741	0.17166
2688.41885	0.17050
2686.49028	0.16946
2684.56172	0.16847
2682.63315	0.16749
2680.70459	0.16648
2678.77603	0.16537
2676.84746	0.16432
2674.91890	0.16335
2672.99033	0.16232
2671.06177	0.16138
2669.13320	0.16062
2667.20464	0.15988
2665.27607	0.15908
2663.34751	0.15830
2661.41895	0.15755
2659.49038	0.15678
2657.56182	0.15602
2655.63325	0.15535
2653.70469	0.15488
2651.77612	0.15447
2649.84756	0.15392
2647.91899	0.15327
2645.99043	0.15266
2644.06187	0.15218
2642.13330	0.15183
2640.20474	0.15155
2638.27617	0.15126
2636.34761	0.15097
2634.41904	0.15068
2632.49048	0.15041
2630.56191	0.15014
2628.63335	0.14979
2626.70479	0.14955
2624.77622	0.14946
2622.84766	0.14923
2620.91909	0.14889
2618.99053	0.14863
2617.06196	0.14844
2615.13340	0.14833
2613.20483	0.14846
2611.27627	0.14871
2609.34771	0.14872
2607.41914	0.14851
2605.49058	0.14835
2603.56201	0.14840
2601.63345	0.14864
2599.70488	0.14894
2597.77632	0.14916
2595.84775	0.14919
2593.91919	0.14917
2591.99062	0.14934
2590.06206	0.14969
2588.13350	0.15014
2586.20493	0.15062
2584.27637	0.15087
2582.34780	0.15095
2580.41924	0.15129
2578.49067	0.15183
2576.56211	0.15214
2574.63354	0.15237
2572.70498	0.15282
2570.77642	0.15330
2568.84785	0.15373
2566.91929	0.15423
2564.99072	0.15468
2563.06216	0.15502
2561.13359	0.15548
2559.20503	0.15610
2557.27646	0.15678
2555.34790	0.15754
2553.41934	0.15827
2551.49077	0.15894
2549.56221	0.15962
2547.63364	0.16023
2545.70508	0.16080
2543.77651	0.16136
2541.84795	0.16194
2539.91938	0.16260
2537.99082	0.16337
2536.06226	0.16424
2534.13369	0.16513
2532.20513	0.16588
2530.27656	0.16647
2528.34800	0.16701
2526.41943	0.16776
2524.49087	0.16883
2522.56230	0.16985
2520.63374	0.17058
2518.70518	0.17130
2516.77661	0.17212
2514.84805	0.17289
2512.91948	0.17358
2510.99092	0.17438
2509.06235	0.17527
2507.13379	0.17609
2505.20522	0.17696
2503.27666	0.17802
2501.34810	0.17917
2499.41953	0.18025
2497.49097	0.18117
2495.56240	0.18193
2493.63384	0.18256
2491.70527	0.18323
2489.77671	0.18412
2487.84814	0.18520
2485.91958	0.18628
2483.99102	0.18725
2482.06245	0.18808
2480.13389	0.18892
2478.20532	0.19000
2476.27676	0.19128
2474.34819	0.19242
2472.41963	0.19331
2470.49106	0.19415
2468.56250	0.19513
2466.63394	0.19620
2464.70537	0.19723
2462.77681	0.19821
2460.84824	0.19917
2458.91968	0.20024
2456.99111	0.20139
2455.06255	0.20243
2453.13398	0.20332
2451.20542	0.20420
2449.27686	0.20521
2447.34829	0.20624
2445.41973	0.20723
2443.49116	0.20823
2441.56260	0.20926
2439.63403	0.21034
2437.70547	0.21144
2435.77690	0.21246
2433.84834	0.21347
2431.91978	0.21459
2429.99121	0.21580
2428.06265	0.21691
2426.13408	0.21795
2424.20552	0.21910
2422.27695	0.22033
2420.34839	0.22150
2418.41982	0.22257
2416.49126	0.22364
2414.56270	0.22484
2412.63413	0.22612
2410.70557	0.22731
2408.77700	0.22847
2406.84844	0.22965
2404.91987	0.23079
2402.99131	0.23200
2401.06274	0.23331
2399.13418	0.23474
2397.20562	0.23619
2395.27705	0.23736
2393.34849	0.23837
2391.41992	0.23966
2389.49136	0.24126
2387.56279	0.24296
2385.63423	0.24486
2383.70566	0.24732
2381.77710	0.25057
2379.84854	0.25438
2377.91997	0.25856
2375.99141	0.26344
2374.06284	0.26909
2372.13428	0.27518
2370.20571	0.28140
2368.27715	0.28705
2366.34858	0.29255
2364.42002	0.29877
2362.49146	0.30516
2360.56289	0.31041
2358.63433	0.31233
2356.70576	0.31026
2354.77720	0.30668
2352.84863	0.30290
2350.92007	0.29852
2348.99150	0.29542
2347.06294	0.29563
2345.13437	0.30000
2343.20581	0.30655
2341.27725	0.31120
2339.34868	0.31361
2337.42012	0.31469
2335.49155	0.31501
2333.56299	0.31534
2331.63442	0.31607
2329.70586	0.31648
2327.77729	0.31644
2325.84873	0.31641
2323.92017	0.31635
2321.99160	0.31620
2320.06304	0.31579
2318.13447	0.31523
2316.20591	0.31495
2314.27734	0.31510
2312.34878	0.31562
2310.42021	0.31650
2308.49165	0.31739
2306.56309	0.31794
2304.63452	0.31835
2302.70596	0.31904
2300.77739	0.32001
2298.84883	0.32098
2296.92026	0.32205
2294.99170	0.32355
2293.06313	0.32526
2291.13457	0.32669
2289.20601	0.32790
2287.27744	0.32922
2285.34888	0.33067
2283.42031	0.33231
2281.49175	0.33437
2279.56318	0.33681
2277.63462	0.33913
2275.70605	0.34114
2273.77749	0.34309
2271.84893	0.34517
2269.92036	0.34731
2267.99180	0.34933
2266.06323	0.35125
2264.13467	0.35329
2262.20610	0.35552
2260.27754	0.35771
2258.34897	0.35977
2256.42041	0.36173
2254.49185	0.36372
2252.56328	0.36578
2250.63472	0.36786
2248.70615	0.36995
2246.77759	0.37209
2244.84902	0.37432
2242.92046	0.37663
2240.99189	0.37896
2239.06333	0.38123
2237.13477	0.38339
2235.20620	0.38551
2233.27764	0.38765
2231.34907	0.38982
2229.42051	0.39198
2227.49194	0.39417
2225.56338	0.39648
2223.63481	0.39891
2221.70625	0.40129
2219.77769	0.40348
2217.84912	0.40560
2215.92056	0.40784
2213.99199	0.41004
2212.06343	0.41211
2210.13486	0.41417
2208.20630	0.41630
2206.27773	0.41842
2204.34917	0.42054
2202.42061	0.42263
2200.49204	0.42456
2198.56348	0.42641
2196.63491	0.42842
2194.70635	0.43057
2192.77778	0.43264
2190.84922	0.43452
2188.92065	0.43631
2186.99209	0.43814
2185.06353	0.43994
2183.13496	0.44169
2181.20640	0.44336
2179.27783	0.44495
2177.34927	0.44651
2175.42070	0.44796
2173.49214	0.44933
2171.56357	0.45078
2169.63501	0.45232
2167.70645	0.45381
2165.77788	0.45515
2163.84932	0.45624
2161.92075	0.45725
2159.99219	0.45844
2158.06362	0.45960
2156.13506	0.46045
2154.20649	0.46112
2152.27793	0.46183
2150.34937	0.46258
2148.42080	0.46325
2146.49224	0.46381
2144.56367	0.46428
2142.63511	0.46478
2140.70654	0.46520
2138.77798	0.46537
2136.84941	0.46540
2134.92085	0.46552
2132.99229	0.46559
2131.06372	0.46538
2129.13516	0.46500
2127.20659	0.46460
2125.27803	0.46415
2123.34946	0.46370
2121.42090	0.46332
2119.49233	0.46280
2117.56377	0.46209
2115.63521	0.46132
2113.70664	0.46043
2111.77808	0.45943
2109.84951	0.45834
2107.92095	0.45719
2105.99238	0.45612
2104.06382	0.45517
2102.13525	0.45407
2100.20669	0.45266
2098.27812	0.45111
2096.34956	0.44956
2094.42100	0.44790
2092.49243	0.44616
2090.56387	0.44438
2088.63530	0.44252
2086.70674	0.44077
2084.77817	0.43903
2082.84961	0.43709
2080.92104	0.43507
2078.99248	0.43311
2077.06392	0.43108
2075.13535	0.42880
2073.20679	0.42639
2071.27822	0.42402
2069.34966	0.42165
2067.42109	0.41922
2065.49253	0.41682
2063.56396	0.41444
2061.63540	0.41205
2059.70684	0.40967
2057.77827	0.40721
2055.84971	0.40458
2053.92114	0.40186
2051.99258	0.39916
2050.06401	0.39644
2048.13545	0.39373
2046.20688	0.39112
2044.27832	0.38851
2042.34976	0.38576
2040.42119	0.38299
2038.49263	0.38030
2036.56406	0.37754
2034.63550	0.37464
2032.70693	0.37178
2030.77837	0.36905
2028.84980	0.36630
2026.92124	0.36359
2024.99268	0.36085
2023.06411	0.35794
2021.13555	0.35502
2019.20698	0.35231
2017.27842	0.34971
2015.34985	0.34698
2013.42129	0.34411
2011.49272	0.34127
2009.56416	0.33852
2007.63560	0.33577
2005.70703	0.33301
2003.77847	0.33033
2001.84990	0.32777
1999.92134	0.32519
1997.99277	0.32255
1996.06421	0.31992
1994.13564	0.31733
1992.20708	0.31468
1990.27852	0.31207
1988.34995	0.30972
1986.42139	0.30745
1984.49282	0.30506
1982.56426	0.30260
1980.63569	0.30014
1978.70713	0.29776
1976.77856	0.29545
1974.85000	0.29324
1972.92144	0.29112
1970.99287	0.28907
1969.06431	0.28700
1967.13574	0.28489
1965.20718	0.28283
1963.27861	0.28086
1961.35005	0.27893
1959.42148	0.27709
1957.49292	0.27532
1955.56436	0.27354
1953.63579	0.27184
1951.70723	0.27020
1949.77866	0.26848
1947.85010	0.26675
1945.92153	0.26517
1943.99297	0.26368
1942.06440	0.26221
1940.13584	0.26075
1938.20728	0.25932
1936.27871	0.25793
1934.35015	0.25666
1932.42158	0.25546
1930.49302	0.25425
1928.56445	0.25318
1926.63589	0.25220
1924.70732	0.25124
1922.77876	0.25034
1920.85020	0.24946
1918.92163	0.24854
1916.99307	0.24763
1915.06450	0.24674
1913.13594	0.24584
1911.20737	0.24506
1909.27881	0.24433
1907.35024	0.24363
1905.42168	0.24302
1903.49312	0.24250
1901.56455	0.24194
1899.63599	0.24133
1897.70742	0.24084
1895.77886	0.24045
1893.85029	0.24000
1891.92173	0.23955
1889.99316	0.23931
1888.06460	0.23909
1886.13604	0.23882
1884.20747	0.23863
1882.27891	0.23853
1880.35034	0.23848
1878.42178	0.23845
1876.49321	0.23849
1874.56465	0.23852
1872.63608	0.23860
1870.70752	0.23873
1868.77896	0.23905
1866.85039	0.23937
1864.92183	0.23950
1862.99326	0.23965
1861.06470	0.23994
1859.13613	0.24038
1857.20757	0.24077
1855.27900	0.24117
1853.35044	0.24163
1851.42187	0.24220
1849.49331	0.24282
1847.56475	0.24346
1845.63618	0.24414
1843.70762	0.24503
1841.77905	0.24591
1839.85049	0.24647
1837.92192	0.24723
1835.99336	0.24820
1834.06479	0.24922
1832.13623	0.25020
1830.20767	0.25143
1828.27910	0.25275
1826.35054	0.25387
1824.42197	0.25527
1822.49341	0.25673
1820.56484	0.25811
1818.63628	0.25952
1816.70771	0.26105
1814.77915	0.26256
1812.85059	0.26418
1810.92202	0.26617
1808.99346	0.26834
1807.06489	0.27043
1805.13633	0.27244
1803.20776	0.27460
1801.27920	0.27694
1799.35063	0.27963
1797.42207	0.28226
1795.49351	0.28477
1793.56494	0.28762
1791.63638	0.29129
1789.70781	0.29492
1787.77925	0.29772
1785.85068	0.30087
1783.92212	0.30453
1781.99355	0.30845
1780.06499	0.31257
1778.13643	0.31681
1776.20786	0.32073
1774.27930	0.32484
1772.35073	0.33056
1770.42217	0.33715
1768.49360	0.34290
1766.56504	0.34837
1764.63647	0.35384
1762.70791	0.35972
1760.77935	0.36725
1758.85078	0.37453
1756.92222	0.38181
1754.99365	0.38971
1753.06509	0.39688
1751.13652	0.40522
1749.20796	0.41575
1747.27939	0.42649
1745.35083	0.43620
1743.42227	0.44625
1741.49370	0.45709
1739.56514	0.46973
1737.63657	0.48238
1735.70801	0.49355
1733.77944	0.51031
1731.85088	0.53037
1729.92231	0.54618
1727.99375	0.56202
1726.06519	0.57905
1724.13662	0.59762
1722.20806	0.61761
1720.27949	0.63596
1718.35093	0.65706
1716.42236	0.68844
1714.49380	0.71929
1712.56523	0.74470
1710.63667	0.76902
1708.70811	0.79466
1706.77954	0.82325
1704.85098	0.85724
1702.92241	0.88803
1700.99385	0.91857
1699.06528	0.96309
1697.13672	1.00374
1695.20815	1.04530
1693.27959	1.08539
1691.35103	1.11729
1689.42246	1.15348
1687.49390	1.19142
1685.56533	1.22827
1683.63677	1.28465
1681.70820	1.34238
1679.77964	1.37960
1677.85107	1.41531
1675.92251	1.45615
1673.99395	1.50587
1672.06538	1.54954
1670.13682	1.59157
1668.20825	1.64535
1666.27969	1.68844
1664.35112	1.72379
1662.42256	1.76700
1660.49399	1.81504
1658.56543	1.85235
1656.63687	1.88255
1654.70830	1.91122
1652.77974	1.96223
1650.85117	2.01475
1648.92261	2.03670
1646.99404	2.06611
1645.06548	2.10063
1643.13691	2.12244
1641.20835	2.13583
1639.27979	2.14797
1637.35122	2.15658
1635.42266	2.15942
1633.49409	2.15417
1631.56553	2.14355
1629.63696	2.13093
1627.70840	2.10952
1625.77983	2.08421
1623.85127	2.05065
1621.92271	2.00594
1619.99414	1.96496
1618.06558	1.92647
1616.13701	1.87220
1614.20845	1.81460
1612.27988	1.76916
1610.35132	1.72177
1608.42275	1.67106
1606.49419	1.62155
1604.56562	1.57549
1602.63706	1.53018
1600.70850	1.48506
1598.77993	1.44275
1596.85137	1.40293
1594.92280	1.36459
1592.99424	1.32718
1591.06567	1.29212
1589.13711	1.25886
1587.20854	1.22765
1585.27998	1.19821
1583.35142	1.16946
1581.42285	1.14223
1579.49429	1.11872
1577.56572	1.09734
1575.63716	1.07060
1573.70859	1.04644
1571.78003	1.03001
1569.85146	1.01162
1567.92290	0.99028
1565.99434	0.97322
1564.06577	0.95853
1562.13721	0.94618
1560.20864	0.93553
1558.28008	0.91613
1556.35151	0.89795
1554.42295	0.88703
1552.49438	0.87609
1550.56582	0.86512
1548.63726	0.85418
1546.70869	0.84457
1544.78013	0.83570
1542.85156	0.82690
1540.92300	0.81778
1538.99443	0.80587
1537.06587	0.79703
1535.13730	0.79110
1533.20874	0.78394
1531.28018	0.77631
1529.35161	0.77033
1527.42305	0.76438
1525.49448	0.75816
1523.56592	0.75262
1521.63735	0.74688
1519.70879	0.74057
1517.78022	0.73523
1515.85166	0.72995
1513.92310	0.72475
1511.99453	0.72018
1510.06597	0.71595
1508.13740	0.71208
1506.20884	0.70699
1504.28027	0.70218
1502.35171	0.69902
1500.42314	0.69621
1498.49458	0.69333
1496.56602	0.69014
1494.63745	0.68696
1492.70889	0.68433
1490.78032	0.68198
1488.85176	0.67913
1486.92319	0.67606
1484.99463	0.67335
1483.06606	0.67107
1481.13750	0.66899
1479.20894	0.66690
1477.28037	0.66486
1475.35181	0.66290
1473.42324	0.66071
1471.49468	0.65785
1469.56611	0.65526
1467.63755	0.65319
1465.70898	0.65124
1463.78042	0.64911
1461.85186	0.64676
1459.92329	0.64443
1457.99473	0.64186
1456.06616	0.63857
1454.13760	0.63566
1452.20903	0.63347
1450.28047	0.63146
1448.35190	0.62933
1446.42334	0.62684
1444.49478	0.62441
1442.56621	0.62236
1440.63765	0.62055
1438.70908	0.61901
1436.78052	0.61746
1434.85195	0.61568
1432.92339	0.61398
1430.99482	0.61256
1429.06626	0.61114
1427.13770	0.60957
1425.20913	0.60798
1423.28057	0.60649
1421.35200	0.60521
1419.42344	0.60401
1417.49487	0.60244
1415.56631	0.60050
1413.63774	0.59865
1411.70918	0.59702
1409.78062	0.59555
1407.85205	0.59406
1405.92349	0.59253
1403.99492	0.59102
1402.06636	0.58955
1400.13779	0.58812
1398.20923	0.58669
1396.28066	0.58535
1394.35210	0.58397
1392.42354	0.58253
1390.49497	0.58119
1388.56641	0.57996
1386.63784	0.57870
1384.70928	0.57740
1382.78071	0.57624
1380.85215	0.57528
1378.92358	0.57448
1376.99502	0.57371
1375.06646	0.57285
1373.13789	0.57171
1371.20933	0.57057
1369.28076	0.56977
1367.35220	0.56901
1365.42363	0.56806
1363.49507	0.56701
1361.56650	0.56591
1359.63794	0.56492
1357.70937	0.56410
1355.78081	0.56321
1353.85225	0.56216
1351.92368	0.56115
1349.99512	0.56021
1348.06655	0.55924
1346.13799	0.55828
1344.20942	0.55740
1342.28086	0.55658
1340.35229	0.55578
1338.42373	0.55485
1336.49517	0.55374
1334.56660	0.55269
1332.63804	0.55187
1330.70947	0.55112
1328.78091	0.55026
1326.85234	0.54938
1324.92378	0.54856
1322.99521	0.54774
1321.06665	0.54692
1319.13809	0.54623
1317.20952	0.54558
1315.28096	0.54484
1313.35239	0.54401
1311.42383	0.54318
1309.49526	0.54237
1307.56670	0.54156
1305.63813	0.54070
1303.70957	0.53978
1301.78101	0.53891
1299.85244	0.53817
1297.92388	0.53743
1295.99531	0.53650
1294.06675	0.53566
1292.13818	0.53512
1290.20962	0.53465
1288.28105	0.53406
1286.35249	0.53341
1284.42393	0.53288
1282.49536	0.53252
1280.56680	0.53209
1278.63823	0.53152
1276.70967	0.53100
1274.78110	0.53061
1272.85254	0.53020
1270.92397	0.52962
1268.99541	0.52887
1267.06685	0.52820
1265.13828	0.52784
1263.20972	0.52763
1261.28115	0.52731
1259.35259	0.52698
1257.42402	0.52672
1255.49546	0.52639
1253.56689	0.52602
1251.63833	0.52567
1249.70977	0.52527
1247.78120	0.52485
1245.85264	0.52453
1243.92407	0.52434
1241.99551	0.52407
1240.06694	0.52358
1238.13838	0.52303
1236.20981	0.52246
1234.28125	0.52181
1232.35269	0.52119
1230.42412	0.52069
1228.49556	0.52022
1226.56699	0.51959
1224.63843	0.51883
1222.70986	0.51802
1220.78130	0.51726
1218.85273	0.51661
1216.92417	0.51596
1214.99561	0.51534
1213.06704	0.51469
1211.13848	0.51396
1209.20991	0.51321
1207.28135	0.51250
1205.35278	0.51192
1203.42422	0.51151
1201.49565	0.51109
1199.56709	0.51052
1197.63853	0.50990
1195.70996	0.50927
1193.78140	0.50871
1191.85283	0.50832
1189.92427	0.50804
1187.99570	0.50774
1186.06714	0.50747
1184.13857	0.50737
1182.21001	0.50744
1180.28145	0.50763
1178.35288	0.50783
1176.42432	0.50807
1174.49575	0.50853
1172.56719	0.50920
1170.63862	0.50982
1168.71006	0.51029
1166.78149	0.51078
1164.85293	0.51144
1162.92437	0.51201
1160.99580	0.51218
1159.06724	0.51190
1157.13867	0.51139
1155.21011	0.51071
1153.28154	0.50959
1151.35298	0.50798
1149.42441	0.50619
1147.49585	0.50443
1145.56729	0.50243
1143.63872	0.49998
1141.71016	0.49747
1139.78159	0.49524
1137.85303	0.49304
1135.92446	0.49079
1133.99590	0.48880
1132.06733	0.48731
1130.13877	0.48623
1128.21021	0.48520
1126.28164	0.48403
1124.35308	0.48280
1122.42451	0.48160
1120.49595	0.48067
1118.56738	0.48012
1116.63882	0.47980
1114.71025	0.47975
1112.78169	0.47987
1110.85312	0.47998
1108.92456	0.48042
1106.99600	0.48138
1105.06743	0.48252
1103.13887	0.48378
1101.21030	0.48543
1099.28174	0.48730
1097.35317	0.48940
1095.42461	0.49226
1093.49604	0.49594
1091.56748	0.50007
1089.63892	0.50489
1087.71035	0.51079
1085.78179	0.51748
1083.85322	0.52440
1081.92466	0.53127
1079.99609	0.53749
1078.06753	0.54178
1076.13896	0.54304
1074.21040	0.54121
1072.28184	0.53694
1070.35327	0.53092
1068.42471	0.52403
1066.49614	0.51724
1064.56758	0.51105
1062.63901	0.50544
1060.71045	0.50022
1058.78188	0.49562
1056.85332	0.49178
1054.92476	0.48851
1052.99619	0.48575
1051.06763	0.48347
1049.13906	0.48150
1047.21050	0.47992
1045.28193	0.47903
1043.35337	0.47850
1041.42480	0.47783
1039.49624	0.47717
1037.56768	0.47693
1035.63911	0.47688
1033.71055	0.47673
1031.78198	0.47660
1029.85342	0.47661
1027.92485	0.47673
1025.99629	0.47685
1024.06772	0.47700
1022.13916	0.47731
1020.21060	0.47774
1018.28203	0.47829
1016.35347	0.47909
1014.42490	0.48020
1012.49634	0.48124
1010.56777	0.48206
1008.63921	0.48311
1006.71064	0.48458
1004.78208	0.48635
1002.85352	0.48848
1000.92495	0.49100
998.99639	0.49389
997.06782	0.49729
995.13926	0.50120
993.21069	0.50531
991.28213	0.50898
989.35356	0.51162
987.42500	0.51315
985.49644	0.51396
983.56787	0.51466
981.63931	0.51570
979.71074	0.51718
977.78218	0.51922
975.85361	0.52184
973.92505	0.52480
971.99648	0.52793
970.06792	0.53149
968.13936	0.53563
966.21079	0.54014
964.28223	0.54488
962.35366	0.54982
960.42510	0.55487
958.49653	0.56019
956.56797	0.56595
954.63940	0.57212
952.71084	0.57849
950.78228	0.58482
948.85371	0.59123
946.92515	0.59779
944.99658	0.60416
943.06802	0.61027
941.13945	0.61654
939.21089	0.62277
937.28232	0.62839
935.35376	0.63369
933.42520	0.63914
931.49663	0.64490
929.56807	0.65096
927.63950	0.65748
925.71094	0.66425
923.78237	0.67071
921.85381	0.67706
919.92524	0.68411
917.99668	0.69219
916.06812	0.70042
914.13955	0.70809
912.21099	0.71576
910.28242	0.72411
908.35386	0.73261
906.42529	0.74116
904.49673	0.75015
902.56816	0.75902
900.63960	0.76758
898.71104	0.77682
896.78247	0.78743
894.85391	0.79859
892.92534	0.80917
890.99678	0.81871
889.06821	0.82835
887.13965	0.83989
885.21108	0.85186
883.28252	0.86243
881.35396	0.87324
879.42539	0.88541
877.49683	0.89724
875.56826	0.90862
873.63970	0.92114
871.71113	0.93388
869.78257	0.94518
867.85400	0.95613
865.92544	0.96826
863.99687	0.98189
862.06831	0.99541
860.13975	1.00574
858.21118	1.01458
856.28262	1.02619
854.35405	1.03971
852.42549	1.05265
850.49692	1.06545
848.56836	1.07853
846.63979	1.09063
844.71123	1.10069
842.78267	1.10985
840.85410	1.12097
838.92554	1.13312
836.99697	1.14411
835.06841	1.15576
833.13984	1.17064
831.21128	1.18830
829.28271	1.20213
827.35415	1.20918
825.42559	1.21609
823.49702	1.22524
821.56846	1.23722
819.63989	1.25542
817.71133	1.27431
815.78276	1.29220
813.85420	1.31756
811.92563	1.34632
809.99707	1.36548
808.06851	1.37180
806.13994	1.37350
804.21138	1.38117
802.28281	1.39300
800.35425	1.40788
798.42568	1.45441
796.49712	1.51632
794.56855	1.51513
792.63999	1.49204
790.71143	1.51162
788.78286	1.57544
786.85430	1.71877
784.92573	1.98540
782.99717	2.43376
781.06860	4.68641
779.14004	4.67484
777.21147	2.00301
775.28291	1.69040
773.35435	1.70621
771.42578	1.82789
769.49722	1.78381
767.56865	1.72453
765.64009	1.75180
763.71152	1.67344
761.78296	1.43566
759.85439	1.30189
757.92583	1.33341
755.99727	1.42628
754.06870	1.53139
752.14014	1.83869
750.21157	1.54111
748.28301	1.16390
746.35444	1.06694
744.42588	1.14254
742.49731	1.24327
740.56875	1.29591
738.64019	1.44469
736.71162	1.34589
734.78306	0.92751
732.85449	0.73154
730.92593	0.68392
728.99736	0.64796
727.06880	0.60521
725.14023	0.59825
723.21167	0.58411
721.28311	0.52082
719.35454	0.45185
717.42598	0.41946
715.49741	0.38918
713.56885	0.32678
711.64028	0.26344
709.71172	0.23897
707.78315	0.23599
705.85459	0.23498
703.92603	0.25698
701.99746	0.24657
700.06890	0.18617
698.14033	0.17439
696.21177	0.18592
694.28320	0.19519
692.35464	0.18720
690.42607	0.15995
688.49751	0.18553
686.56895	0.32495
684.64038	0.44762
682.71182	0.34497
680.78325	0.20822
678.85469	0.14228
676.92612	0.13176
674.99756	0.18935
673.06899	0.26827
671.14043	0.22234
669.21187	0.12299
667.28330	0.16277
665.35474	0.29428
663.42617	0.30286
661.49761	0.17963
659.56904	0.12084
657.64048	0.20100
655.71191	0.32512
653.78335	0.38878
651.85479	0.37247
649.92622	0.37715
647.99766	0.36473
646.06909	0.33316
644.14053	0.40527
642.21196	0.48632
640.28340	0.31943
638.35483	0.16387
636.42627	0.09526
634.49771	0.08499
632.56914	0.11372
630.64058	0.14375
628.71201	0.15821
626.78345	0.14675
624.85488	0.13278
622.92632	0.14955
620.99775	0.16857
619.06919	0.13863
617.14062	0.10192
615.21206	0.13231
613.28350	0.15733
611.35493	0.11033
609.42637	0.11274
607.49780	0.22419
605.56924	0.30272
603.64067	0.24426
601.71211	0.18018
599.78354	0.19739
597.85498	0.30529
595.92642	0.29365
593.99785	0.10807
592.06929	0.05213
590.14072	0.10324
588.21216	0.12099
586.28359	0.12260
584.35503	0.15117
582.42646	0.18616
580.49790	0.20187
578.56934	0.16219
576.64077	0.09981
574.71221	0.08278
572.78364	0.08166
570.85508	0.06534
568.92651	0.03927
566.99795	0.02654
565.06938	0.06284
563.14082	0.11774
561.21226	0.16754
559.28369	0.19838
557.35513	0.20025
555.42656	0.19636
553.49800	0.16590
551.56943	0.10949
549.64087	0.08450
547.71230	0.13051
545.78374	0.19299
543.85518	0.19000
541.92661	0.14198
539.99805	0.11919
538.06948	0.13284
536.14092	0.11810
534.21235	0.10701
532.28379	0.18052
530.35522	0.28243
528.42666	0.24127
526.49810	0.11518
524.56953	0.06458
522.64097	0.06549
520.71240	0.08365
518.78384	0.12002
516.85527	0.10094
514.92671	0.03785
512.99814	0.05629
511.06958	0.13859
509.14102	0.17101
507.21245	0.16390
505.28389	0.18075
503.35532	0.18826
501.42676	0.17547
499.49819	0.16639
