3997.91411	0.05857
3995.98555	0.05872
3994.05698	0.05908
3992.12842	0.05962
3990.19985	0.06018
3988.27129	0.06027
3986.34272	0.05984
3984.41416	0.05959
3982.48560	0.05991
3980.55703	0.06010
3978.62847	0.06001
3976.69990	0.06030
3974.77134	0.06091
3972.84277	0.06130
3970.91421	0.06144
3968.98564	0.06161
3967.05708	0.06167
3965.12852	0.06164
3963.19995	0.06189
3961.27139	0.06226
3959.34282	0.06234
3957.41426	0.06213
3955.48569	0.06172
3953.55713	0.06158
3951.62856	0.06203
3949.70000	0.06269
3947.77144	0.06333
3945.84287	0.06349
3943.91431	0.06298
3941.98574	0.06275
3940.05718	0.06312
3938.12861	0.06325
3936.20005	0.06301
3934.27148	0.06285
3932.34292	0.06266
3930.41436	0.06243
3928.48579	0.06246
3926.55723	0.06238
3924.62866	0.06222
3922.70010	0.06221
3920.77153	0.06198
3918.84297	0.06173
3916.91440	0.06229
3914.98584	0.06288
3913.05728	0.06252
3911.12871	0.06200
3909.20015	0.06168
3907.27158	0.06133
3905.34302	0.06101
3903.41445	0.06094
3901.48589	0.06126
3899.55732	0.06198
3897.62876	0.06229
3895.70020	0.06200
3893.77163	0.06184
3891.84307	0.06193
3889.91450	0.06208
3887.98594	0.06196
3886.05737	0.06173
3884.12881	0.06192
3882.20024	0.06213
3880.27168	0.06203
3878.34312	0.06216
3876.41455	0.06225
3874.48599	0.06225
3872.55742	0.06271
3870.62886	0.06350
3868.70029	0.06429
3866.77173	0.06491
3864.84316	0.06520
3862.91460	0.06530
3860.98604	0.06530
3859.05747	0.06519
3857.12891	0.06494
3855.20034	0.06471
3853.27178	0.06525
3851.34321	0.06760
3849.41465	0.06907
3847.48608	0.06913
3845.55752	0.06902
3843.62896	0.06915
3841.70039	0.06946
3839.77183	0.07003
3837.84326	0.07115
3835.91470	0.07190
3833.98613	0.07166
3832.05757	0.07168
3830.12900	0.07245
3828.20044	0.07321
3826.27187	0.07374
3824.34331	0.07435
3822.41475	0.07516
3820.48618	0.07651
3818.55762	0.07773
3816.62905	0.07848
3814.70049	0.07969
3812.77192	0.08083
3810.84336	0.08156
3808.91479	0.08244
3806.98623	0.08356
3805.05767	0.08441
3803.12910	0.08496
3801.20054	0.08616
3799.27197	0.08785
3797.34341	0.08863
3795.41484	0.08952
3793.48628	0.09123
3791.55771	0.09286
3789.62915	0.09422
3787.70059	0.09561
3785.77202	0.09689
3783.84346	0.09792
3781.91489	0.09887
3779.98633	0.09985
3778.05776	0.10121
3776.12920	0.10311
3774.20063	0.10490
3772.27207	0.10612
3770.34351	0.10743
3768.41494	0.10978
3766.48638	0.11241
3764.55781	0.11455
3762.62925	0.11631
3760.70068	0.11815
3758.77212	0.12056
3756.84355	0.12311
3754.91499	0.12519
3752.98643	0.12705
3751.05786	0.12955
3749.12930	0.13313
3747.20073	0.13580
3745.27217	0.13752
3743.34360	0.14074
3741.41504	0.14495
3739.48647	0.14807
3737.55791	0.15093
3735.62935	0.15488
3733.70078	0.16007
3731.77222	0.16528
3729.84365	0.16993
3727.91509	0.17397
3725.98652	0.17887
3724.05796	0.18556
3722.12939	0.19289
3720.20083	0.20008
3718.27227	0.20713
3716.34370	0.21421
3714.41514	0.22146
3712.48657	0.23043
3710.55801	0.24323
3708.62944	0.25728
3706.70088	0.26926
3704.77231	0.28045
3702.84375	0.29290
3700.91519	0.30889
3698.98662	0.32697
3697.05806	0.34461
3695.12949	0.36325
3693.20093	0.38272
3691.27236	0.40301
3689.34380	0.42866
3687.41523	0.46200
3685.48667	0.49309
3683.55811	0.51969
3681.62954	0.54741
3679.70098	0.57810
3677.77241	0.60982
3675.84385	0.64718
3673.91528	0.69859
3671.98672	0.74172
3670.05815	0.77956
3668.12959	0.83192
3666.20103	0.88149
3664.27246	0.92290
3662.34390	0.96626
3660.41533	1.01276
3658.48677	1.05868
3656.55820	1.10727
3654.62964	1.16085
3652.70107	1.20537
3650.77251	1.24268
3648.84395	1.29324
3646.91538	1.35930
3644.98682	1.41201
3643.05825	1.45313
3641.12969	1.49423
3639.20112	1.53815
3637.27256	1.58099
3635.34399	1.62205
3633.41543	1.66304
3631.48687	1.70173
3629.55830	1.74120
3627.62974	1.79323
3625.70117	1.84318
3623.77261	1.87740
3621.84404	1.90911
3619.91548	1.94539
3617.98691	1.99140
3616.05835	2.03731
3614.12979	2.07414
3612.20122	2.11049
3610.27266	2.14739
3608.34409	2.18602
3606.41553	2.22941
3604.48696	2.27117
3602.55840	2.30725
3600.62983	2.34407
3598.70127	2.38294
3596.77271	2.42131
3594.84414	2.46236
3592.91558	2.50607
3590.98701	2.54721
3589.05845	2.58443
3587.12988	2.62646
3585.20132	2.67312
3583.27275	2.71441
3581.34419	2.75305
3579.41562	2.79481
3577.48706	2.83895
3575.55850	2.88133
3573.62993	2.92191
3571.70137	2.96194
3569.77280	3.00229
3567.84424	3.04452
3565.91567	3.09407
3563.98711	3.14309
3562.05854	3.18433
3560.12998	3.22720
3558.20142	3.27497
3556.27285	3.32253
3554.34429	3.36694
3552.41572	3.41244
3550.48716	3.45840
3548.55859	3.50142
3546.63003	3.54610
3544.70146	3.59673
3542.77290	3.64568
3540.84434	3.68923
3538.91577	3.73353
3536.98721	3.77905
3535.05864	3.82561
3533.13008	3.87276
3531.20151	3.91870
3529.27295	3.96416
3527.34438	4.01283
3525.41582	4.06470
3523.48726	4.11574
3521.55869	4.16546
3519.63013	4.21554
3517.70156	4.26591
3515.77300	4.31377
3513.84443	4.35920
3511.91587	4.40566
3509.98730	4.45618
3508.05874	4.50676
3506.13018	4.55128
3504.20161	4.59222
3502.27305	4.63785
3500.34448	4.69041
3498.41592	4.74047
3496.48735	4.78590
3494.55879	4.83169
3492.63022	4.87653
3490.70166	4.92050
3488.77310	4.96767
3486.84453	5.02032
3484.91597	5.07639
3482.98740	5.12487
3481.05884	5.16806
3479.13027	5.22186
3477.20171	5.27831
3475.27314	5.32257
3473.34458	5.36198
3471.41602	5.40801
3469.48745	5.46150
3467.55889	5.51488
3465.63032	5.56298
3463.70176	5.61152
3461.77319	5.66209
3459.84463	5.71320
3457.91606	5.75830
3455.98750	5.79360
3454.05894	5.83077
3452.13037	5.87666
3450.20181	5.92422
3448.27324	5.96866
3446.34468	6.01598
3444.41611	6.06318
3442.48755	6.11441
3440.55898	6.17801
3438.63042	6.24117
3436.70186	6.28262
3434.77329	6.30754
3432.84473	6.34806
3430.91616	6.40973
3428.98760	6.47229
3427.05903	6.52939
3425.13047	6.59457
3423.20190	6.64769
3421.27334	6.66196
3419.34478	6.68060
3417.41621	6.74662
3415.48765	6.81719
3413.55908	6.86129
3411.63052	6.91447
3409.70195	6.96316
3407.77339	6.99109
3405.84482	7.01618
3403.91626	7.03900
3401.98770	7.07240
3400.05913	7.13359
3398.13057	7.19994
3396.20200	7.25630
3394.27344	7.30036
3392.34487	7.30908
3390.41631	7.30973
3388.48774	7.32781
3386.55918	7.35786
3384.63062	7.37870
3382.70205	7.39708
3380.77349	7.44506
3378.84492	7.50223
3376.91636	7.54189
3374.98779	7.56975
3373.05923	7.59201
3371.13066	7.57943
3369.20210	7.54056
3367.27354	7.53065
3365.34497	7.59140
3363.41641	7.65885
3361.48784	7.68898
3359.55928	7.75564
3357.63071	7.82352
3355.70215	7.85627
3353.77358	7.85812
3351.84502	7.81398
3349.91646	7.78800
3347.98789	7.86804
3346.05933	8.00957
3344.13076	8.05040
3342.20220	7.98207
3340.27363	7.93611
3338.34507	7.95028
3336.41650	7.93940
3334.48794	7.91596
3332.55937	7.95476
3330.63081	8.00103
3328.70225	7.97611
3326.77368	7.92322
3324.84512	7.87132
3322.91655	7.81038
3320.98799	7.82438
3319.05942	7.93941
3317.13086	8.04321
3315.20229	8.03543
3313.27373	7.99879
3311.34517	8.01889
3309.41660	8.04312
3307.48804	8.02310
3305.55947	7.98439
3303.63091	7.97207
3301.70234	7.96785
3299.77378	7.98698
3297.84521	8.05650
3295.91665	8.08512
3293.98809	8.03095
3292.05952	7.98788
3290.13096	7.99451
3288.20239	8.07594
3286.27383	8.22485
3284.34526	8.24684
3282.41670	8.08992
3280.48813	7.97146
3278.55957	7.97537
3276.63101	7.98860
3274.70244	7.95308
3272.77388	7.92150
3270.84531	7.93735
3268.91675	8.02961
3266.98818	8.13314
3265.05962	8.17388
3263.13105	8.21191
3261.20249	8.28188
3259.27393	8.22376
3257.34536	8.02772
3255.41680	7.92563
3253.48823	7.95377
3251.55967	7.98498
3249.63110	7.99104
3247.70254	8.02105
3245.77397	8.03939
3243.84541	7.98803
3241.91685	7.91202
3239.98828	7.90503
3238.05972	7.95072
3236.13115	7.97051
3234.20259	7.98434
3232.27402	8.01252
3230.34546	8.01775
3228.41689	7.98553
3226.48833	7.92766
3224.55977	7.88198
3222.63120	7.88162
3220.70264	7.91034
3218.77407	7.93377
3216.84551	7.92305
3214.91694	7.86268
3212.98838	7.79320
3211.05981	7.77159
3209.13125	7.77750
3207.20269	7.78538
3205.27412	7.81011
3203.34556	7.80200
3201.41699	7.70804
3199.48843	7.59813
3197.55986	7.58796
3195.63130	7.64036
3193.70273	7.61411
3191.77417	7.54574
3189.84561	7.50751
3187.91704	7.45684
3185.98848	7.38209
3184.05991	7.32108
3182.13135	7.30184
3180.20278	7.32366
3178.27422	7.33699
3176.34565	7.30320
3174.41709	7.23484
3172.48853	7.13661
3170.55996	7.02794
3168.63140	6.94342
3166.70283	6.87075
3164.77427	6.79321
3162.84570	6.72849
3160.91714	6.68971
3158.98857	6.66159
3157.06001	6.61842
3155.13145	6.55906
3153.20288	6.49640
3151.27432	6.43713
3149.34575	6.37412
3147.41719	6.29952
3145.48862	6.22375
3143.56006	6.15729
3141.63149	6.09476
3139.70293	6.02562
3137.77437	5.95399
3135.84580	5.88620
3133.91724	5.81991
3131.98867	5.75512
3130.06011	5.69540
3128.13154	5.63254
3126.20298	5.55534
3124.27441	5.47212
3122.34585	5.39326
3120.41729	5.32042
3118.48872	5.24709
3116.56016	5.16992
3114.63159	5.09915
3112.70303	5.03664
3110.77446	4.97362
3108.84590	4.90547
3106.91733	4.83249
3104.98877	4.75982
3103.06021	4.69037
3101.13164	4.62081
3099.20308	4.55269
3097.27451	4.48847
3095.34595	4.42356
3093.41738	4.35529
3091.48882	4.28763
3089.56025	4.22230
3087.63169	4.15582
3085.70312	4.08858
3083.77456	4.02622
3081.84600	3.96948
3079.91743	3.90954
3077.98887	3.84269
3076.06030	3.77607
3074.13174	3.71420
3072.20317	3.65644
3070.27461	3.60018
3068.34604	3.54321
3066.41748	3.48591
3064.48892	3.42891
3062.56035	3.37265
3060.63179	3.31797
3058.70322	3.26387
3056.77466	3.20913
3054.84609	3.15390
3052.91753	3.09897
3050.98896	3.04598
3049.06040	2.99465
3047.13184	2.94369
3045.20327	2.89344
3043.27471	2.84404
3041.34614	2.79467
3039.41758	2.74547
3037.48901	2.69730
3035.56045	2.64979
3033.63188	2.60334
3031.70332	2.55899
3029.77476	2.51581
3027.84619	2.47290
3025.91763	2.43009
3023.98906	2.38667
3022.06050	2.34326
3020.13193	2.30174
3018.20337	2.26121
3016.27480	2.21992
3014.34624	2.17955
3012.41768	2.14161
3010.48911	2.10498
3008.56055	2.06799
3006.63198	2.03006
3004.70342	1.99225
3002.77485	1.95575
3000.84629	1.92079
2998.91772	1.88677
2996.98916	1.85294
2995.06060	1.81968
2993.13203	1.78775
2991.20347	1.75686
2989.27490	1.72616
2987.34634	1.69546
2985.41777	1.66509
2983.48921	1.63519
2981.56064	1.60577
2979.63208	1.57661
2977.70352	1.54802
2975.77495	1.52078
2973.84639	1.49430
2971.91782	1.46768
2969.98926	1.44148
2968.06069	1.41574
2966.13213	1.38968
2964.20356	1.36375
2962.27500	1.33870
2960.34644	1.31418
2958.41787	1.28988
2956.48931	1.26615
2954.56074	1.24311
2952.63218	1.22051
2950.70361	1.19829
2948.77505	1.17637
2946.84648	1.15483
2944.91792	1.13392
2942.98936	1.11324
2941.06079	1.09258
2939.13223	1.07199
2937.20366	1.05103
2935.27510	1.02982
2933.34653	1.00950
2931.41797	0.99056
2929.48940	0.97214
2927.56084	0.95357
2925.63228	0.93527
2923.70371	0.91789
2921.77515	0.90116
2919.84658	0.88445
2917.91802	0.86805
2915.98945	0.85253
2914.06089	0.83753
2912.13232	0.82282
2910.20376	0.80889
2908.27520	0.79551
2906.34663	0.78186
2904.41807	0.76804
2902.48950	0.75469
2900.56094	0.74178
2898.63237	0.72910
2896.70381	0.71695
2894.77524	0.70503
2892.84668	0.69286
2890.91812	0.68087
2888.98955	0.66946
2887.06099	0.65830
2885.13242	0.64727
2883.20386	0.63652
2881.27529	0.62593
2879.34673	0.61567
2877.41816	0.60592
2875.48960	0.59613
2873.56104	0.58584
2871.63247	0.57545
2869.70391	0.56510
2867.77534	0.55464
2865.84678	0.54437
2863.91821	0.53420
2861.98965	0.52378
2860.06108	0.51350
2858.13252	0.50370
2856.20396	0.49446
2854.27539	0.48598
2852.34683	0.47795
2850.41826	0.46990
2848.48970	0.46212
2846.56113	0.45509
2844.63257	0.44865
2842.70400	0.44245
2840.77544	0.43608
2838.84687	0.42972
2836.91831	0.42393
2834.98975	0.41834
2833.06118	0.41239
2831.13262	0.40632
2829.20405	0.40060
2827.27549	0.39517
2825.34692	0.38937
2823.41836	0.38308
2821.48979	0.37698
2819.56123	0.37134
2817.63267	0.36597
2815.70410	0.36061
2813.77554	0.35508
2811.84697	0.34952
2809.91841	0.34426
2807.98984	0.33922
2806.06128	0.33427
2804.13271	0.32956
2802.20415	0.32493
2800.27559	0.32020
2798.34702	0.31560
2796.41846	0.31120
2794.48989	0.30679
2792.56133	0.30235
2790.63276	0.29806
2788.70420	0.29375
2786.77563	0.28946
2784.84707	0.28551
2782.91851	0.28171
2780.98994	0.27781
2779.06138	0.27389
2777.13281	0.27008
2775.20425	0.26642
2773.27568	0.26280
2771.34712	0.25929
2769.41855	0.25593
2767.48999	0.25265
2765.56143	0.24957
2763.63286	0.24662
2761.70430	0.24357
2759.77573	0.24050
2757.84717	0.23733
2755.91860	0.23403
2753.99004	0.23101
2752.06147	0.22840
2750.13291	0.22583
2748.20435	0.22313
2746.27578	0.22044
2744.34722	0.21787
2742.41865	0.21543
2740.49009	0.21308
2738.56152	0.21077
2736.63296	0.20844
2734.70439	0.20601
2732.77583	0.20355
2730.84727	0.20132
2728.91870	0.19930
2726.99014	0.19719
2725.06157	0.19510
2723.13301	0.19324
2721.20444	0.19135
2719.27588	0.18929
2717.34731	0.18736
2715.41875	0.18571
2713.49019	0.18420
2711.56162	0.18254
2709.63306	0.18074
2707.70449	0.17901
2705.77593	0.17734
2703.84736	0.17583
2701.91880	0.17448
2699.99023	0.17308
2698.06167	0.17165
2696.13311	0.17035
2694.20454	0.16905
2692.27598	0.16767
2690.34741	0.16636
2688.41885	0.16518
2686.49028	0.16410
2684.56172	0.16298
2682.63315	0.16167
2680.70459	0.16024
2678.77603	0.15903
2676.84746	0.15819
2674.91890	0.15758
2672.99033	0.15681
2671.06177	0.15574
2669.13320	0.15465
2667.20464	0.15364
2665.27607	0.15272
2663.34751	0.15205
2661.41895	0.15140
2659.49038	0.15039
2657.56182	0.14928
2655.63325	0.14854
2653.70469	0.14803
2651.77612	0.14744
2649.84756	0.14692
2647.91899	0.14645
2645.99043	0.14588
2644.06187	0.14534
2642.13330	0.14482
2640.20474	0.14424
2638.27617	0.14364
2636.34761	0.14316
2634.41904	0.14278
2632.49048	0.14241
2630.56191	0.14216
2628.63335	0.14207
2626.70479	0.14194
2624.77622	0.14178
2622.84766	0.14159
2620.91909	0.14132
2618.99053	0.14109
2617.06196	0.14101
2615.13340	0.14089
2613.20483	0.14061
2611.27627	0.14042
2609.34771	0.14041
2607.41914	0.14046
2605.49058	0.14058
2603.56201	0.14075
2601.63345	0.14073
2599.70488	0.14055
2597.77632	0.14061
2595.84775	0.14091
2593.91919	0.14112
2591.99062	0.14122
2590.06206	0.14132
2588.13350	0.14143
2586.20493	0.14157
2584.27637	0.14177
2582.34780	0.14205
2580.41924	0.14245
2578.49067	0.14288
2576.56211	0.14319
2574.63354	0.14335
2572.70498	0.14350
2570.77642	0.14386
2568.84785	0.14441
2566.91929	0.14503
2564.99072	0.14551
2563.06216	0.14580
2561.13359	0.14619
2559.20503	0.14684
2557.27646	0.14753
2555.34790	0.14813
2553.41934	0.14866
2551.49077	0.14917
2549.56221	0.14972
2547.63364	0.15034
2545.70508	0.15101
2543.77651	0.15179
2541.84795	0.15262
2539.91938	0.15323
2537.99082	0.15366
2536.06226	0.15433
2534.13369	0.15519
2532.20513	0.15585
2530.27656	0.15637
2528.34800	0.15718
2526.41943	0.15825
2524.49087	0.15923
2522.56230	0.15988
2520.63374	0.16029
2518.70518	0.16085
2516.77661	0.16169
2514.84805	0.16256
2512.91948	0.16334
2510.99092	0.16414
2509.06235	0.16501
2507.13379	0.16590
2505.20522	0.16679
2503.27666	0.16767
2501.34810	0.16855
2499.41953	0.16941
2497.49097	0.17016
2495.56240	0.17087
2493.63384	0.17169
2491.70527	0.17266
2489.77671	0.17373
2487.84814	0.17486
2485.91958	0.17600
2483.99102	0.17690
2482.06245	0.17754
2480.13389	0.17822
2478.20532	0.17903
2476.27676	0.17995
2474.34819	0.18102
2472.41963	0.18206
2470.49106	0.18288
2468.56250	0.18371
2466.63394	0.18472
2464.70537	0.18575
2462.77681	0.18669
2460.84824	0.18770
2458.91968	0.18875
2456.99111	0.18975
2455.06255	0.19082
2453.13398	0.19196
2451.20542	0.19294
2449.27686	0.19367
2447.34829	0.19454
2445.41973	0.19565
2443.49116	0.19683
2441.56260	0.19796
2439.63403	0.19893
2437.70547	0.19985
2435.77690	0.20090
2433.84834	0.20203
2431.91978	0.20308
2429.99121	0.20411
2428.06265	0.20519
2426.13408	0.20631
2424.20552	0.20744
2422.27695	0.20855
2420.34839	0.20964
2418.41982	0.21079
2416.49126	0.21200
2414.56270	0.21324
2412.63413	0.21442
2410.70557	0.21553
2408.77700	0.21665
2406.84844	0.21782
2404.91987	0.21910
2402.99131	0.22027
2401.06274	0.22133
2399.13418	0.22250
2397.20562	0.22381
2395.27705	0.22509
2393.34849	0.22633
2391.41992	0.22756
2389.49136	0.22872
2387.56279	0.22997
2385.63423	0.23126
2383.70566	0.23237
2381.77710	0.23341
2379.84854	0.23455
2377.91997	0.23572
2375.99141	0.23661
2374.06284	0.23713
2372.13428	0.23774
2370.20571	0.23905
2368.27715	0.24087
2366.34858	0.24219
2364.42002	0.24239
2362.49146	0.24231
2360.56289	0.24335
2358.63433	0.24603
2356.70576	0.24959
2354.77720	0.25283
2352.84863	0.25544
2350.92007	0.25706
2348.99150	0.25774
2347.06294	0.25807
2345.13437	0.25867
2343.20581	0.25983
2341.27725	0.26114
2339.34868	0.26233
2337.42012	0.26380
2335.49155	0.26610
2333.56299	0.26861
2331.63442	0.27034
2329.70586	0.27169
2327.77729	0.27362
2325.84873	0.27571
2323.92017	0.27758
2321.99160	0.27958
2320.06304	0.28181
2318.13447	0.28407
2316.20591	0.28597
2314.27734	0.28753
2312.34878	0.28923
2310.42021	0.29123
2308.49165	0.29310
2306.56309	0.29466
2304.63452	0.29638
2302.70596	0.29852
2300.77739	0.30071
2298.84883	0.30261
2296.92026	0.30433
2294.99170	0.30615
2293.06313	0.30819
2291.13457	0.31023
2289.20601	0.31224
2287.27744	0.31438
2285.34888	0.31642
2283.42031	0.31831
2281.49175	0.32034
2279.56318	0.32256
2277.63462	0.32473
2275.70605	0.32669
2273.77749	0.32857
2271.84893	0.33056
2269.92036	0.33265
2267.99180	0.33475
2266.06323	0.33678
2264.13467	0.33876
2262.20610	0.34086
2260.27754	0.34312
2258.34897	0.34551
2256.42041	0.34788
2254.49185	0.35016
2252.56328	0.35234
2250.63472	0.35447
2248.70615	0.35656
2246.77759	0.35867
2244.84902	0.36084
2242.92046	0.36296
2240.99189	0.36510
2239.06333	0.36740
2237.13477	0.36978
2235.20620	0.37196
2233.27764	0.37411
2231.34907	0.37646
2229.42051	0.37884
2227.49194	0.38112
2225.56338	0.38337
2223.63481	0.38561
2221.70625	0.38776
2219.77769	0.38985
2217.84912	0.39204
2215.92056	0.39429
2213.99199	0.39646
2212.06343	0.39851
2210.13486	0.40047
2208.20630	0.40252
2206.27773	0.40471
2204.34917	0.40688
2202.42061	0.40906
2200.49204	0.41123
2198.56348	0.41330
2196.63491	0.41529
2194.70635	0.41723
2192.77778	0.41910
2190.84922	0.42092
2188.92065	0.42269
2186.99209	0.42443
2185.06353	0.42616
2183.13496	0.42791
2181.20640	0.42970
2179.27783	0.43148
2177.34927	0.43316
2175.42070	0.43470
2173.49214	0.43626
2171.56357	0.43780
2169.63501	0.43916
2167.70645	0.44034
2165.77788	0.44145
2163.84932	0.44262
2161.92075	0.44381
2159.99219	0.44497
2158.06362	0.44601
2156.13506	0.44684
2154.20649	0.44760
2152.27793	0.44849
2150.34937	0.44940
2148.42080	0.45013
2146.49224	0.45069
2144.56367	0.45119
2142.63511	0.45153
2140.70654	0.45169
2138.77798	0.45186
2136.84941	0.45207
2134.92085	0.45221
2132.99229	0.45223
2131.06372	0.45212
2129.13516	0.45192
2127.20659	0.45164
2125.27803	0.45125
2123.34946	0.45081
2121.42090	0.45042
2119.49233	0.44997
2117.56377	0.44927
2115.63521	0.44832
2113.70664	0.44735
2111.77808	0.44642
2109.84951	0.44549
2107.92095	0.44458
2105.99238	0.44358
2104.06382	0.44244
2102.13525	0.44117
2100.20669	0.43983
2098.27812	0.43841
2096.34956	0.43688
2094.42100	0.43533
2092.49243	0.43378
2090.56387	0.43213
2088.63530	0.43032
2086.70674	0.42842
2084.77817	0.42650
2082.84961	0.42460
2080.92104	0.42260
2078.99248	0.42048
2077.06392	0.41834
2075.13535	0.41620
2073.20679	0.41392
2071.27822	0.41149
2069.34966	0.40912
2067.42109	0.40691
2065.49253	0.40473
2063.56396	0.40234
2061.63540	0.39982
2059.70684	0.39733
2057.77827	0.39485
2055.84971	0.39225
2053.92114	0.38955
2051.99258	0.38699
2050.06401	0.38458
2048.13545	0.38212
2046.20688	0.37948
2044.27832	0.37676
2042.34976	0.37405
2040.42119	0.37133
2038.49263	0.36856
2036.56406	0.36569
2034.63550	0.36287
2032.70693	0.36016
2030.77837	0.35746
2028.84980	0.35464
2026.92124	0.35182
2024.99268	0.34903
2023.06411	0.34620
2021.13555	0.34341
2019.20698	0.34072
2017.27842	0.33798
2015.34985	0.33512
2013.42129	0.33234
2011.49272	0.32977
2009.56416	0.32727
2007.63560	0.32461
2005.70703	0.32184
2003.77847	0.31910
2001.84990	0.31641
1999.92134	0.31368
1997.99277	0.31098
1996.06421	0.30844
1994.13564	0.30600
1992.20708	0.30356
1990.27852	0.30105
1988.34995	0.29856
1986.42139	0.29609
1984.49282	0.29367
1982.56426	0.29133
1980.63569	0.28902
1978.70713	0.28674
1976.77856	0.28449
1974.85000	0.28229
1972.92144	0.28017
1970.99287	0.27811
1969.06431	0.27604
1967.13574	0.27397
1965.20718	0.27198
1963.27861	0.27007
1961.35005	0.26820
1959.42148	0.26636
1957.49292	0.26450
1955.56436	0.26265
1953.63579	0.26091
1951.70723	0.25926
1949.77866	0.25764
1947.85010	0.25596
1945.92153	0.25432
1943.99297	0.25282
1942.06440	0.25144
1940.13584	0.25008
1938.20728	0.24872
1936.27871	0.24741
1934.35015	0.24613
1932.42158	0.24486
1930.49302	0.24360
1928.56445	0.24248
1926.63589	0.24146
1924.70732	0.24046
1922.77876	0.23946
1920.85020	0.23856
1918.92163	0.23775
1916.99307	0.23686
1915.06450	0.23593
1913.13594	0.23508
1911.20737	0.23438
1909.27881	0.23375
1907.35024	0.23307
1905.42168	0.23240
1903.49312	0.23187
1901.56455	0.23145
1899.63599	0.23103
1897.70742	0.23057
1895.77886	0.23008
1893.85029	0.22966
1891.92173	0.22932
1889.99316	0.22913
1888.06460	0.22891
1886.13604	0.22862
1884.20747	0.22834
1882.27891	0.22813
1880.35034	0.22805
1878.42178	0.22800
1876.49321	0.22799
1874.56465	0.22802
1872.63608	0.22810
1870.70752	0.22819
1868.77896	0.22855
1866.85039	0.22892
1864.92183	0.22906
1862.99326	0.22930
1861.06470	0.22966
1859.13613	0.23004
1857.20757	0.23044
1855.27900	0.23097
1853.35044	0.23145
1851.42187	0.23192
1849.49331	0.23248
1847.56475	0.23312
1845.63618	0.23384
1843.70762	0.23472
1841.77905	0.23557
1839.85049	0.23615
1837.92192	0.23692
1835.99336	0.23784
1834.06479	0.23882
1832.13623	0.23979
1830.20767	0.24106
1828.27910	0.24244
1826.35054	0.24352
1824.42197	0.24484
1822.49341	0.24628
1820.56484	0.24766
1818.63628	0.24907
1816.70771	0.25063
1814.77915	0.25220
1812.85059	0.25398
1810.92202	0.25606
1808.99346	0.25810
1807.06489	0.26003
1805.13633	0.26195
1803.20776	0.26411
1801.27920	0.26657
1799.35063	0.26938
1797.42207	0.27196
1795.49351	0.27445
1793.56494	0.27733
1791.63638	0.28087
1789.70781	0.28425
1787.77925	0.28690
1785.85068	0.29001
1783.92212	0.29373
1781.99355	0.29780
1780.06499	0.30206
1778.13643	0.30636
1776.20786	0.31034
1774.27930	0.31451
1772.35073	0.32010
1770.42217	0.32639
1768.49360	0.33202
1766.56504	0.33754
1764.63647	0.34298
1762.70791	0.34867
1760.77935	0.35602
1758.85078	0.36324
1756.92222	0.37044
1754.99365	0.37810
1753.06509	0.38488
1751.13652	0.39280
1749.20796	0.40299
1747.27939	0.41346
1745.35083	0.42286
1743.42227	0.43279
1741.49370	0.44362
1739.56514	0.45625
1737.63657	0.46887
1735.70801	0.47972
1733.77944	0.49592
1731.85088	0.51589
1729.92231	0.53186
1727.99375	0.54778
1726.06519	0.56483
1724.13662	0.58342
1722.20806	0.60348
1720.27949	0.62185
1718.35093	0.64281
1716.42236	0.67395
1714.49380	0.70450
1712.56523	0.72971
1710.63667	0.75400
1708.70811	0.77990
1706.77954	0.80905
1704.85098	0.84354
1702.92241	0.87411
1700.99385	0.90411
1699.06528	0.94886
1697.13672	0.99025
1695.20815	1.03292
1693.27959	1.07476
1691.35103	1.10828
1689.42246	1.14623
1687.49390	1.18569
1685.56533	1.22311
1683.63677	1.28124
1681.70820	1.34296
1679.77964	1.38256
1677.85107	1.41953
1675.92251	1.46195
1673.99395	1.51424
1672.06538	1.56067
1670.13682	1.60668
1668.20825	1.66596
1666.27969	1.71298
1664.35112	1.75192
1662.42256	1.80056
1660.49399	1.85570
1658.56543	1.89917
1656.63687	1.93392
1654.70830	1.96488
1652.77974	2.01666
1650.85117	2.07019
1648.92261	2.09043
1646.99404	2.11552
1645.06548	2.14614
1643.13691	2.16618
1641.20835	2.17681
1639.27979	2.18525
1637.35122	2.18900
1635.42266	2.18746
1633.49409	2.18417
1631.56553	2.17549
1629.63696	2.16106
1627.70840	2.13533
1625.77983	2.10476
1623.85127	2.06660
1621.92271	2.01974
1619.99414	1.97755
1618.06558	1.93581
1616.13701	1.87653
1614.20845	1.81639
1612.27988	1.77010
1610.35132	1.72157
1608.42275	1.66917
1606.49419	1.61762
1604.56562	1.56968
1602.63706	1.52267
1600.70850	1.47632
1598.77993	1.43353
1596.85137	1.39326
1594.92280	1.35432
1592.99424	1.31704
1591.06567	1.28278
1589.13711	1.25049
1587.20854	1.22044
1585.27998	1.19241
1583.35142	1.16565
1581.42285	1.14099
1579.49429	1.11974
1577.56572	1.09993
1575.63716	1.07532
1573.70859	1.05414
1571.78003	1.04052
1569.85146	1.02576
1567.92290	1.00926
1565.99434	0.99665
1564.06577	0.98595
1562.13721	0.97687
1560.20864	0.96962
1558.28008	0.95894
1556.35151	0.94934
1554.42295	0.94320
1552.49438	0.93716
1550.56582	0.93056
1548.63726	0.92279
1546.70869	0.91477
1544.78013	0.90595
1542.85156	0.89582
1540.92300	0.88336
1538.99443	0.86572
1537.06587	0.85299
1535.13730	0.84420
1533.20874	0.83255
1531.28018	0.82009
1529.35161	0.81095
1527.42305	0.80219
1525.49448	0.79307
1523.56592	0.78525
1521.63735	0.77750
1519.70879	0.76952
1517.78022	0.76266
1515.85166	0.75502
1513.92310	0.74736
1511.99453	0.74080
1510.06597	0.73468
1508.13740	0.72839
1506.20884	0.71945
1504.28027	0.71254
1502.35171	0.70849
1500.42314	0.70448
1498.49458	0.69996
1496.56602	0.69485
1494.63745	0.69008
1492.70889	0.68622
1490.78032	0.68253
1488.85176	0.67827
1486.92319	0.67420
1484.99463	0.67090
1483.06606	0.66819
1481.13750	0.66570
1479.20894	0.66341
1477.28037	0.66139
1475.35181	0.65931
1473.42324	0.65712
1471.49468	0.65484
1469.56611	0.65269
1467.63755	0.65052
1465.70898	0.64829
1463.78042	0.64631
1461.85186	0.64479
1459.92329	0.64364
1457.99473	0.64243
1456.06616	0.64057
1454.13760	0.63859
1452.20903	0.63686
1450.28047	0.63525
1448.35190	0.63379
1446.42334	0.63212
1444.49478	0.63029
1442.56621	0.62854
1440.63765	0.62669
1438.70908	0.62463
1436.78052	0.62221
1434.85195	0.61991
1432.92339	0.61824
1430.99482	0.61677
1429.06626	0.61533
1427.13770	0.61417
1425.20913	0.61328
1423.28057	0.61237
1421.35200	0.61144
1419.42344	0.61054
1417.49487	0.60951
1415.56631	0.60828
1413.63774	0.60715
1411.70918	0.60626
1409.78062	0.60570
1407.85205	0.60533
1405.92349	0.60495
1403.99492	0.60436
1402.06636	0.60348
1400.13779	0.60244
1398.20923	0.60117
1396.28066	0.59949
1394.35210	0.59719
1392.42354	0.59482
1390.49497	0.59287
1388.56641	0.59096
1386.63784	0.58864
1384.70928	0.58614
1382.78071	0.58384
1380.85215	0.58168
1378.92358	0.57973
1376.99502	0.57810
1375.06646	0.57675
1373.13789	0.57575
1371.20933	0.57512
1369.28076	0.57446
1367.35220	0.57354
1365.42363	0.57247
1363.49507	0.57138
1361.56650	0.57023
1359.63794	0.56899
1357.70937	0.56779
1355.78081	0.56672
1353.85225	0.56577
1351.92368	0.56483
1349.99512	0.56391
1348.06655	0.56301
1346.13799	0.56207
1344.20942	0.56108
1342.28086	0.56009
1340.35229	0.55922
1338.42373	0.55837
1336.49517	0.55752
1334.56660	0.55679
1332.63804	0.55615
1330.70947	0.55564
1328.78091	0.55523
1326.85234	0.55481
1324.92378	0.55451
1322.99521	0.55437
1321.06665	0.55413
1319.13809	0.55368
1317.20952	0.55306
1315.28096	0.55241
1313.35239	0.55179
1311.42383	0.55122
1309.49526	0.55065
1307.56670	0.55009
1305.63813	0.54953
1303.70957	0.54882
1301.78101	0.54791
1299.85244	0.54691
1297.92388	0.54597
1295.99531	0.54518
1294.06675	0.54435
1292.13818	0.54343
1290.20962	0.54257
1288.28105	0.54185
1286.35249	0.54115
1284.42393	0.54040
1282.49536	0.53960
1280.56680	0.53881
1278.63823	0.53808
1276.70967	0.53749
1274.78110	0.53690
1272.85254	0.53617
1270.92397	0.53549
1268.99541	0.53494
1267.06685	0.53434
1265.13828	0.53365
1263.20972	0.53303
1261.28115	0.53256
1259.35259	0.53224
1257.42402	0.53184
1255.49546	0.53136
1253.56689	0.53110
1251.63833	0.53097
1249.70977	0.53073
1247.78120	0.53039
1245.85264	0.53001
1243.92407	0.52959
1241.99551	0.52910
1240.06694	0.52847
1238.13838	0.52754
1236.20981	0.52638
1234.28125	0.52530
1232.35269	0.52427
1230.42412	0.52318
1228.49556	0.52211
1226.56699	0.52107
1224.63843	0.51998
1222.70986	0.51878
1220.78130	0.51765
1218.85273	0.51676
1216.92417	0.51596
1214.99561	0.51517
1213.06704	0.51451
1211.13848	0.51390
1209.20991	0.51314
1207.28135	0.51230
1205.35278	0.51160
1203.42422	0.51096
1201.49565	0.51029
1199.56709	0.50966
1197.63853	0.50900
1195.70996	0.50829
1193.78140	0.50768
1191.85283	0.50715
1189.92427	0.50665
1187.99570	0.50621
1186.06714	0.50592
1184.13857	0.50575
1182.21001	0.50585
1180.28145	0.50626
1178.35288	0.50681
1176.42432	0.50748
1174.49575	0.50818
1172.56719	0.50866
1170.63862	0.50908
1168.71006	0.50966
1166.78149	0.51023
1164.85293	0.51062
1162.92437	0.51082
1160.99580	0.51088
1159.06724	0.51077
1157.13867	0.51053
1155.21011	0.51013
1153.28154	0.50938
1151.35298	0.50809
1149.42441	0.50625
1147.49585	0.50403
1145.56729	0.50164
1143.63872	0.49936
1141.71016	0.49727
1139.78159	0.49517
1137.85303	0.49326
1135.92446	0.49182
1133.99590	0.49050
1132.06733	0.48912
1130.13877	0.48794
1128.21021	0.48704
1126.28164	0.48619
1124.35308	0.48534
1122.42451	0.48473
1120.49595	0.48454
1118.56738	0.48464
1116.63882	0.48476
1114.71025	0.48496
1112.78169	0.48558
1110.85312	0.48656
1108.92456	0.48758
1106.99600	0.48856
1105.06743	0.48961
1103.13887	0.49073
1101.21030	0.49184
1099.28174	0.49321
1097.35317	0.49527
1095.42461	0.49803
1093.49604	0.50157
1091.56748	0.50612
1089.63892	0.51181
1087.71035	0.51880
1085.78179	0.52669
1083.85322	0.53466
1081.92466	0.54173
1079.99609	0.54696
1078.06753	0.55010
1076.13896	0.55097
1074.21040	0.54899
1072.28184	0.54426
1070.35327	0.53773
1068.42471	0.53072
1066.49614	0.52409
1064.56758	0.51788
1062.63901	0.51213
1060.71045	0.50727
1058.78188	0.50315
1056.85332	0.49931
1054.92476	0.49588
1052.99619	0.49304
1051.06763	0.49064
1049.13906	0.48873
1047.21050	0.48745
1045.28193	0.48674
1043.35337	0.48664
1041.42480	0.48698
1039.49624	0.48716
1037.56768	0.48702
1035.63911	0.48682
1033.71055	0.48652
1031.78198	0.48599
1029.85342	0.48528
1027.92485	0.48447
1025.99629	0.48360
1024.06772	0.48276
1022.13916	0.48221
1020.21060	0.48214
1018.28203	0.48233
1016.35347	0.48259
1014.42490	0.48296
1012.49634	0.48348
1010.56777	0.48408
1008.63921	0.48466
1006.71064	0.48541
1004.78208	0.48669
1002.85352	0.48863
1000.92495	0.49119
998.99639	0.49437
997.06782	0.49820
995.13926	0.50238
993.21069	0.50636
991.28213	0.50956
989.35356	0.51171
987.42500	0.51284
985.49644	0.51325
983.56787	0.51344
981.63931	0.51378
979.71074	0.51462
977.78218	0.51620
975.85361	0.51843
973.92505	0.52106
971.99648	0.52426
970.06792	0.52817
968.13936	0.53212
966.21079	0.53573
964.28223	0.53979
962.35366	0.54469
960.42510	0.54992
958.49653	0.55534
956.56797	0.56120
954.63940	0.56743
952.71084	0.57372
950.78228	0.57970
948.85371	0.58561
946.92515	0.59188
944.99658	0.59820
943.06802	0.60409
941.13945	0.60978
939.21089	0.61572
937.28232	0.62169
935.35376	0.62712
933.42520	0.63233
931.49663	0.63802
929.56807	0.64424
927.63950	0.65046
925.71094	0.65640
923.78237	0.66229
921.85381	0.66843
919.92524	0.67437
917.99668	0.67979
916.06812	0.68643
914.13955	0.69538
912.21099	0.70471
910.28242	0.71295
908.35386	0.72106
906.42529	0.72980
904.49673	0.73815
902.56816	0.74622
900.63960	0.75496
898.71104	0.76382
896.78247	0.77250
894.85391	0.78205
892.92534	0.79285
890.99678	0.80334
889.06821	0.81379
887.13965	0.82591
885.21108	0.83826
883.28252	0.84923
881.35396	0.85956
879.42539	0.87000
877.49683	0.88050
875.56826	0.89165
873.63970	0.90436
871.71113	0.91788
869.78257	0.93042
867.85400	0.94152
865.92544	0.95149
863.99687	0.96023
862.06831	0.96970
860.13975	0.98256
858.21118	0.99748
856.28262	1.01057
854.35405	1.02104
852.42549	1.03026
850.49692	1.03955
848.56836	1.05031
846.63979	1.06244
844.71123	1.07488
842.78267	1.08643
840.85410	1.09759
838.92554	1.11018
836.99697	1.12390
835.06841	1.13560
833.13984	1.14283
831.21128	1.14887
829.28271	1.15869
827.35415	1.17085
825.42559	1.17649
823.49702	1.17239
821.56846	1.17089
819.63989	1.18269
817.71133	1.19981
815.78276	1.21047
813.85420	1.21525
811.92563	1.21951
809.99707	1.22675
808.06851	1.24072
806.13994	1.26183
804.21138	1.27392
802.28281	1.27224
800.35425	1.26806
798.42568	1.25819
796.49712	1.25115
794.56855	1.24901
792.63999	1.23801
790.71143	1.23870
788.78286	1.26112
786.85430	1.27253
784.92573	1.27841
782.99717	1.29249
781.06860	1.27076
779.14004	1.22228
777.21147	1.21261
775.28291	1.22451
773.35435	1.19293
771.42578	1.15198
769.49722	1.13931
767.56865	1.13259
765.64009	1.13909
763.71152	1.17180
761.78296	1.17188
759.85439	1.10953
757.92583	1.01671
755.99727	0.91927
754.06870	0.86904
752.14014	0.87215
750.21157	0.87957
748.28301	0.86941
746.35444	0.83944
744.42588	0.79109
742.49731	0.76208
740.56875	0.74288
738.64019	0.67738
736.71162	0.59076
734.78306	0.51842
732.85449	0.46426
730.92593	0.40948
728.99736	0.30909
727.06880	0.18412
725.14023	0.03156
723.21167	-0.18746
721.28311	-0.70926
719.35454	4.31613
717.42598	4.30456
715.49741	-0.64840
713.56885	-0.43198
711.64028	-0.15516
709.71172	0.02787
707.78315	0.04912
705.85459	0.02008
703.92603	0.05636
701.99746	0.11996
700.06890	0.13772
698.14033	0.12197
696.21177	0.13313
694.28320	0.16039
692.35464	0.14801
690.42607	0.13097
688.49751	0.14240
686.56895	0.11901
684.64038	0.05037
682.71182	0.04706
680.78325	0.09009
678.85469	0.10559
676.92612	0.11948
674.99756	0.15845
673.06899	0.20290
671.14043	0.24830
669.21187	0.32022
667.28330	0.39702
665.35474	0.36093
663.42617	0.24531
661.49761	0.18785
659.56904	0.22801
657.64048	0.29734
655.71191	0.31434
653.78335	0.28153
651.85479	0.21711
649.92622	0.15041
647.99766	0.13923
646.06909	0.17607
644.14053	0.24058
642.21196	0.27791
640.28340	0.20562
638.35483	0.09784
636.42627	0.06126
634.49771	0.09331
632.56914	0.13216
630.64058	0.16287
628.71201	0.18249
626.78345	0.16984
624.85488	0.15727
622.92632	0.16938
620.99775	0.17866
619.06919	0.18203
617.14062	0.20190
615.21206	0.22767
613.28350	0.21601
611.35493	0.17630
609.42637	0.14430
607.49780	0.13694
605.56924	0.15562
603.64067	0.17235
601.71211	0.17468
599.78354	0.17371
597.85498	0.18526
595.92642	0.22043
593.99785	0.24598
592.06929	0.23943
590.14072	0.23612
588.21216	0.22322
586.28359	0.18405
584.35503	0.17762
582.42646	0.22158
580.49790	0.26028
578.56934	0.21791
576.64077	0.15310
574.71221	0.12109
572.78364	0.12459
570.85508	0.15267
568.92651	0.17329
566.99795	0.18523
565.06938	0.21026
563.14082	0.22657
561.21226	0.20078
559.28369	0.16113
557.35513	0.14872
555.42656	0.16214
553.49800	0.19505
551.56943	0.24019
549.64087	0.25594
547.71230	0.21627
545.78374	0.15318
543.85518	0.11956
541.92661	0.13815
539.99805	0.17039
538.06948	0.16186
536.14092	0.11655
534.21235	0.10141
532.28379	0.13507
530.35522	0.16541
528.42666	0.16151
526.49810	0.15095
524.56953	0.15960
522.64097	0.17596
520.71240	0.18088
518.78384	0.19320
516.85527	0.19014
514.92671	0.16446
512.99814	0.16510
511.06958	0.16993
509.14102	0.15479
507.21245	0.13545
505.28389	0.11493
503.35532	0.10181
501.42676	0.11328
499.49819	0.12525
