3997.91411	0.06846
3995.98555	0.06913
3994.05698	0.06999
3992.12842	0.07002
3990.19985	0.06978
3988.27129	0.06990
3986.34272	0.07011
3984.41416	0.07052
3982.48560	0.07106
3980.55703	0.07135
3978.62847	0.07130
3976.69990	0.07117
3974.77134	0.07115
3972.84277	0.07121
3970.91421	0.07121
3968.98564	0.07130
3967.05708	0.07192
3965.12852	0.07250
3963.19995	0.07228
3961.27139	0.07203
3959.34282	0.07270
3957.41426	0.07355
3955.48569	0.07367
3953.55713	0.07323
3951.62856	0.07280
3949.70000	0.07292
3947.77144	0.07358
3945.84287	0.07406
3943.91431	0.07411
3941.98574	0.07392
3940.05718	0.07332
3938.12861	0.07267
3936.20005	0.07254
3934.27148	0.07295
3932.34292	0.07375
3930.41436	0.07431
3928.48579	0.07415
3926.55723	0.07379
3924.62866	0.07356
3922.70010	0.07315
3920.77153	0.07304
3918.84297	0.07371
3916.91440	0.07397
3914.98584	0.07287
3913.05728	0.07175
3911.12871	0.07164
3909.20015	0.07195
3907.27158	0.07228
3905.34302	0.07289
3903.41445	0.07350
3901.48589	0.07341
3899.55732	0.07309
3897.62876	0.07298
3895.70020	0.07270
3893.77163	0.07242
3891.84307	0.07247
3889.91450	0.07257
3887.98594	0.07271
3886.05737	0.07337
3884.12881	0.07372
3882.20024	0.07324
3880.27168	0.07326
3878.34312	0.07349
3876.41455	0.07312
3874.48599	0.07318
3872.55742	0.07385
3870.62886	0.07451
3868.70029	0.07503
3866.77173	0.07515
3864.84316	0.07534
3862.91460	0.07572
3860.98604	0.07551
3859.05747	0.07506
3857.12891	0.07527
3855.20034	0.07654
3853.27178	0.07866
3851.34321	0.07964
3849.41465	0.07908
3847.48608	0.07899
3845.55752	0.07924
3843.62896	0.07913
3841.70039	0.07913
3839.77183	0.08056
3837.84326	0.08305
3835.91470	0.08437
3833.98613	0.08426
3832.05757	0.08427
3830.12900	0.08473
3828.20044	0.08505
3826.27187	0.08540
3824.34331	0.08608
3822.41475	0.08713
3820.48618	0.08887
3818.55762	0.09037
3816.62905	0.09135
3814.70049	0.09223
3812.77192	0.09244
3810.84336	0.09236
3808.91479	0.09261
3806.98623	0.09343
3805.05767	0.09454
3803.12910	0.09559
3801.20054	0.09718
3799.27197	0.09872
3797.34341	0.09943
3795.41484	0.10009
3793.48628	0.10076
3791.55771	0.10181
3789.62915	0.10348
3787.70059	0.10536
3785.77202	0.10733
3783.84346	0.10884
3781.91489	0.10960
3779.98633	0.11079
3778.05776	0.11267
3776.12920	0.11412
3774.20063	0.11539
3772.27207	0.11719
3770.34351	0.11970
3768.41494	0.12206
3766.48638	0.12361
3764.55781	0.12556
3762.62925	0.12756
3760.70068	0.12908
3758.77212	0.13122
3756.84355	0.13380
3754.91499	0.13578
3752.98643	0.13805
3751.05786	0.14162
3749.12930	0.14546
3747.20073	0.14809
3745.27217	0.15093
3743.34360	0.15495
3741.41504	0.15794
3739.48647	0.16006
3737.55791	0.16337
3735.62935	0.16888
3733.70078	0.17534
3731.77222	0.17985
3729.84365	0.18300
3727.91509	0.18630
3725.98652	0.19089
3724.05796	0.19712
3722.12939	0.20395
3720.20083	0.21084
3718.27227	0.21801
3716.34370	0.22541
3714.41514	0.23274
3712.48657	0.24181
3710.55801	0.25519
3708.62944	0.26928
3706.70088	0.28023
3704.77231	0.29077
3702.84375	0.30348
3700.91519	0.31979
3698.98662	0.33737
3697.05806	0.35399
3695.12949	0.37186
3693.20093	0.39120
3691.27236	0.41216
3689.34380	0.43913
3687.41523	0.47290
3685.48667	0.50279
3683.55811	0.52815
3681.62954	0.55528
3679.70098	0.58609
3677.77241	0.61845
3675.84385	0.65654
3673.91528	0.70864
3671.98672	0.75239
3670.05815	0.79081
3668.12959	0.84181
3666.20103	0.88807
3664.27246	0.92747
3662.34390	0.97045
3660.41533	1.01701
3658.48677	1.06273
3656.55820	1.11136
3654.62964	1.16543
3652.70107	1.21051
3650.77251	1.24969
3648.84395	1.30461
3646.91538	1.37219
3644.98682	1.42128
3643.05825	1.45914
3641.12969	1.49878
3639.20112	1.54281
3637.27256	1.58651
3635.34399	1.62840
3633.41543	1.67080
3631.48687	1.71106
3629.55830	1.75111
3627.62974	1.80332
3625.70117	1.85347
3623.77261	1.88785
3621.84404	1.92031
3619.91548	1.95747
3617.98691	2.00223
3616.05835	2.04521
3614.12979	2.08178
3612.20122	2.12137
3610.27266	2.16195
3608.34409	2.20192
3606.41553	2.24333
3604.48696	2.28296
3602.55840	2.31926
3600.62983	2.35673
3598.70127	2.39648
3596.77271	2.43603
3594.84414	2.47695
3592.91558	2.51911
3590.98701	2.55745
3589.05845	2.59171
3587.12988	2.63288
3585.20132	2.68230
3583.27275	2.72718
3581.34419	2.76692
3579.41562	2.80759
3577.48706	2.85104
3575.55850	2.89462
3573.62993	2.93631
3571.70137	2.97529
3569.77280	3.01485
3567.84424	3.05910
3565.91567	3.11010
3563.98711	3.15894
3562.05854	3.20250
3560.12998	3.24697
3558.20142	3.29268
3556.27285	3.33737
3554.34429	3.38038
3552.41572	3.42508
3550.48716	3.47046
3548.55859	3.51494
3546.63003	3.56203
3544.70146	3.61202
3542.77290	3.65984
3540.84434	3.70550
3538.91577	3.75127
3536.98721	3.79738
3535.05864	3.84432
3533.13008	3.89033
3531.20151	3.93911
3529.27295	3.99083
3527.34438	4.04015
3525.41582	4.08697
3523.48726	4.13301
3521.55869	4.17939
3519.63013	4.22673
3517.70156	4.27482
3515.77300	4.32207
3513.84443	4.36821
3511.91587	4.41276
3509.98730	4.45957
3508.05874	4.51537
3506.13018	4.57186
3504.20161	4.61750
3502.27305	4.65993
3500.34448	4.70819
3498.41592	4.75763
3496.48735	4.80716
3494.55879	4.86000
3492.63022	4.91476
3490.70166	4.96722
3488.77310	5.01422
3486.84453	5.05726
3484.91597	5.10469
3482.98740	5.15907
3481.05884	5.20991
3479.13027	5.25095
3477.20171	5.29513
3475.27314	5.34926
3473.34458	5.40359
3471.41602	5.45008
3469.48745	5.48877
3467.55889	5.53262
3465.63032	5.58921
3463.70176	5.64554
3461.77319	5.68980
3459.84463	5.73083
3457.91606	5.78213
3455.98750	5.84522
3454.05894	5.90837
3452.13037	5.96161
3450.20181	6.00931
3448.27324	6.05630
3446.34468	6.10167
3444.41611	6.13645
3442.48755	6.17128
3440.55898	6.22071
3438.63042	6.28647
3436.70186	6.36087
3434.77329	6.41230
3432.84473	6.43746
3430.91616	6.47092
3428.98760	6.52004
3427.05903	6.57652
3425.13047	6.65265
3423.20190	6.72041
3421.27334	6.74566
3419.34478	6.76255
3417.41621	6.81356
3415.48765	6.90375
3413.55908	6.99544
3411.63052	7.02841
3409.70195	7.00507
3407.77339	7.00936
3405.84482	7.07412
3403.91626	7.16070
3401.98770	7.21434
3400.05913	7.24602
3398.13057	7.30397
3396.20200	7.34787
3394.27344	7.35012
3392.34487	7.35778
3390.41631	7.40170
3388.48774	7.45040
3386.55918	7.47433
3384.63062	7.49213
3382.70205	7.53103
3380.77349	7.58335
3378.84492	7.64035
3376.91636	7.69093
3374.98779	7.69516
3373.05923	7.67447
3371.13066	7.65025
3369.20210	7.63967
3367.27354	7.67584
3365.34497	7.76985
3363.41641	7.85693
3361.48784	7.87532
3359.55928	7.91617
3357.63071	8.01913
3355.70215	8.07982
3353.77358	8.05487
3351.84502	8.03485
3349.91646	8.00998
3347.98789	8.00427
3346.05933	8.11064
3344.13076	8.18968
3342.20220	8.10134
3340.27363	7.99620
3338.34507	8.00748
3336.41650	8.08915
3334.48794	8.12979
3332.55937	8.06571
3330.63081	7.98523
3328.70225	8.02175
3326.77368	8.18235
3324.84512	8.31611
3322.91655	8.29578
3320.98799	8.24444
3319.05942	8.24837
3317.13086	8.24761
3315.20229	8.20591
3313.27373	8.18830
3311.34517	8.18747
3309.41660	8.11945
3307.48804	8.09158
3305.55947	8.21624
3303.63091	8.35219
3301.70234	8.31835
3299.77378	8.22929
3297.84521	8.20990
3295.91665	8.24668
3293.98809	8.27774
3292.05952	8.25987
3290.13096	8.21454
3288.20239	8.18303
3286.27383	8.23638
3284.34526	8.34611
3282.41670	8.34079
3280.48813	8.20436
3278.55957	8.10528
3276.63101	8.11972
3274.70244	8.19991
3272.77388	8.25746
3270.84531	8.26886
3268.91675	8.25423
3266.98818	8.20398
3265.05962	8.17086
3263.13105	8.15582
3261.20249	8.09165
3259.27393	8.08573
3257.34536	8.22565
3255.41680	8.36634
3253.48823	8.40655
3251.55967	8.42068
3249.63110	8.37090
3247.70254	8.23483
3245.77397	8.17509
3243.84541	8.15772
3241.91685	8.06082
3239.98828	8.04173
3238.05972	8.13203
3236.13115	8.19203
3234.20259	8.23571
3232.27402	8.26935
3230.34546	8.21840
3228.41689	8.12537
3226.48833	8.04805
3224.55977	7.97810
3222.63120	7.96226
3220.70264	8.00215
3218.77407	7.99812
3216.84551	7.92907
3214.91694	7.88599
3212.98838	7.93179
3211.05981	8.02556
3209.13125	8.06215
3207.20269	8.01449
3205.27412	7.96653
3203.34556	7.97421
3201.41699	7.99531
3199.48843	7.98867
3197.55986	7.97531
3195.63130	7.93512
3193.70273	7.82581
3191.77417	7.66093
3189.84561	7.52256
3187.91704	7.49063
3185.98848	7.52388
3184.05991	7.52602
3182.13135	7.50262
3180.20278	7.46993
3178.27422	7.39641
3176.34565	7.31647
3174.41709	7.25763
3172.48853	7.20662
3170.55996	7.16064
3168.63140	7.08446
3166.70283	6.96425
3164.77427	6.86503
3162.84570	6.82502
3160.91714	6.80300
3158.98857	6.75791
3157.06001	6.68972
3155.13145	6.61671
3153.20288	6.54894
3151.27432	6.47828
3149.34575	6.40474
3147.41719	6.33695
3145.48862	6.26538
3143.56006	6.18137
3141.63149	6.10320
3139.70293	6.04298
3137.77437	5.98815
3135.84580	5.92372
3133.91724	5.84495
3131.98867	5.75395
3130.06011	5.67026
3128.13154	5.60670
3126.20298	5.54572
3124.27441	5.47742
3122.34585	5.40989
3120.41729	5.34517
3118.48872	5.27849
3116.56016	5.20980
3114.63159	5.13814
3112.70303	5.06224
3110.77446	4.98743
3108.84590	4.91771
3106.91733	4.85101
3104.98877	4.78231
3103.06021	4.71189
3101.13164	4.64147
3099.20308	4.57251
3097.27451	4.50548
3095.34595	4.43672
3093.41738	4.36804
3091.48882	4.30468
3089.56025	4.24326
3087.63169	4.17753
3085.70312	4.11069
3083.77456	4.04761
3081.84600	3.98760
3079.91743	3.92886
3077.98887	3.86939
3076.06030	3.80785
3074.13174	3.74551
3072.20317	3.68512
3070.27461	3.62719
3068.34604	3.57140
3066.41748	3.51822
3064.48892	3.46567
3062.56035	3.40874
3060.63179	3.34818
3058.70322	3.29123
3056.77466	3.23880
3054.84609	3.18628
3052.91753	3.13239
3050.98896	3.07865
3049.06040	3.02660
3047.13184	2.97653
3045.20327	2.92684
3043.27471	2.87696
3041.34614	2.82812
3039.41758	2.78055
3037.48901	2.73367
3035.56045	2.68708
3033.63188	2.64079
3031.70332	2.59461
3029.77476	2.54863
3027.84619	2.50391
3025.91763	2.46047
3023.98906	2.41766
3022.06050	2.37546
3020.13193	2.33418
3018.20337	2.29382
3016.27480	2.25359
3014.34624	2.21359
3012.41768	2.17448
3010.48911	2.13622
3008.56055	2.09891
3006.63198	2.06209
3004.70342	2.02505
3002.77485	1.98835
3000.84629	1.95321
2998.91772	1.91963
2996.98916	1.88681
2995.06060	1.85451
2993.13203	1.82270
2991.20347	1.79108
2989.27490	1.75994
2987.34634	1.73013
2985.41777	1.70159
2983.48921	1.67341
2981.56064	1.64528
2979.63208	1.61781
2977.70352	1.59126
2975.77495	1.56519
2973.84639	1.53933
2971.91782	1.51371
2969.98926	1.48847
2968.06069	1.46384
2966.13213	1.43938
2964.20356	1.41505
2962.27500	1.39165
2960.34644	1.36904
2958.41787	1.34585
2956.48931	1.32149
2954.56074	1.29681
2952.63218	1.27305
2950.70361	1.25076
2948.77505	1.22925
2946.84648	1.20765
2944.91792	1.18649
2942.98936	1.16625
2941.06079	1.14645
2939.13223	1.12670
2937.20366	1.10658
2935.27510	1.08647
2933.34653	1.06759
2931.41797	1.04932
2929.48940	1.03043
2927.56084	1.01153
2925.63228	0.99369
2923.70371	0.97676
2921.77515	0.95950
2919.84658	0.94130
2917.91802	0.92302
2915.98945	0.90591
2914.06089	0.89001
2912.13232	0.87427
2910.20376	0.85851
2908.27520	0.84331
2906.34663	0.82890
2904.41807	0.81493
2902.48950	0.80076
2900.56094	0.78644
2898.63237	0.77252
2896.70381	0.75917
2894.77524	0.74627
2892.84668	0.73376
2890.91812	0.72166
2888.98955	0.71012
2887.06099	0.69905
2885.13242	0.68832
2883.20386	0.67805
2881.27529	0.66797
2879.34673	0.65771
2877.41816	0.64767
2875.48960	0.63796
2873.56104	0.62799
2871.63247	0.61759
2869.70391	0.60692
2867.77534	0.59600
2865.84678	0.58492
2863.91821	0.57373
2861.98965	0.56266
2860.06108	0.55235
2858.13252	0.54279
2856.20396	0.53352
2854.27539	0.52442
2852.34683	0.51521
2850.41826	0.50595
2848.48970	0.49730
2846.56113	0.48938
2844.63257	0.48191
2842.70400	0.47469
2840.77544	0.46763
2838.84687	0.46085
2836.91831	0.45422
2834.98975	0.44759
2833.06118	0.44126
2831.13262	0.43521
2829.20405	0.42918
2827.27549	0.42318
2825.34692	0.41721
2823.41836	0.41106
2821.48979	0.40482
2819.56123	0.39880
2817.63267	0.39307
2815.70410	0.38750
2813.77554	0.38206
2811.84697	0.37657
2809.91841	0.37088
2807.98984	0.36536
2806.06128	0.36031
2804.13271	0.35555
2802.20415	0.35076
2800.27559	0.34589
2798.34702	0.34088
2796.41846	0.33579
2794.48989	0.33103
2792.56133	0.32662
2790.63276	0.32222
2788.70420	0.31772
2786.77563	0.31331
2784.84707	0.30906
2782.91851	0.30488
2780.98994	0.30071
2779.06138	0.29672
2777.13281	0.29299
2775.20425	0.28936
2773.27568	0.28568
2771.34712	0.28182
2769.41855	0.27795
2767.48999	0.27431
2765.56143	0.27081
2763.63286	0.26750
2761.70430	0.26446
2759.77573	0.26137
2757.84717	0.25810
2755.91860	0.25485
2753.99004	0.25182
2752.06147	0.24886
2750.13291	0.24584
2748.20435	0.24296
2746.27578	0.24045
2744.34722	0.23817
2742.41865	0.23559
2740.49009	0.23272
2738.56152	0.23005
2736.63296	0.22760
2734.70439	0.22509
2732.77583	0.22258
2730.84727	0.22030
2728.91870	0.21804
2726.99014	0.21578
2725.06157	0.21375
2723.13301	0.21173
2721.20444	0.20956
2719.27588	0.20746
2717.34731	0.20553
2715.41875	0.20364
2713.49019	0.20181
2711.56162	0.20006
2709.63306	0.19834
2707.70449	0.19660
2705.77593	0.19500
2703.84736	0.19350
2701.91880	0.19192
2699.99023	0.19039
2698.06167	0.18898
2696.13311	0.18756
2694.20454	0.18600
2692.27598	0.18448
2690.34741	0.18320
2688.41885	0.18198
2686.49028	0.18075
2684.56172	0.17946
2682.63315	0.17800
2680.70459	0.17661
2678.77603	0.17550
2676.84746	0.17451
2674.91890	0.17357
2672.99033	0.17254
2671.06177	0.17133
2669.13320	0.17026
2667.20464	0.16947
2665.27607	0.16868
2663.34751	0.16766
2661.41895	0.16655
2659.49038	0.16561
2657.56182	0.16492
2655.63325	0.16419
2653.70469	0.16343
2651.77612	0.16284
2649.84756	0.16230
2647.91899	0.16167
2645.99043	0.16107
2644.06187	0.16049
2642.13330	0.15988
2640.20474	0.15926
2638.27617	0.15864
2636.34761	0.15805
2634.41904	0.15743
2632.49048	0.15686
2630.56191	0.15650
2628.63335	0.15619
2626.70479	0.15577
2624.77622	0.15547
2622.84766	0.15528
2620.91909	0.15503
2618.99053	0.15470
2617.06196	0.15428
2615.13340	0.15400
2613.20483	0.15402
2611.27627	0.15405
2609.34771	0.15375
2607.41914	0.15345
2605.49058	0.15345
2603.56201	0.15351
2601.63345	0.15357
2599.70488	0.15369
2597.77632	0.15375
2595.84775	0.15382
2593.91919	0.15396
2591.99062	0.15407
2590.06206	0.15429
2588.13350	0.15462
2586.20493	0.15481
2584.27637	0.15490
2582.34780	0.15496
2580.41924	0.15499
2578.49067	0.15517
2576.56211	0.15553
2574.63354	0.15593
2572.70498	0.15623
2570.77642	0.15654
2568.84785	0.15695
2566.91929	0.15737
2564.99072	0.15778
2563.06216	0.15815
2561.13359	0.15839
2559.20503	0.15858
2557.27646	0.15898
2555.34790	0.15965
2553.41934	0.16035
2551.49077	0.16092
2549.56221	0.16144
2547.63364	0.16197
2545.70508	0.16256
2543.77651	0.16324
2541.84795	0.16392
2539.91938	0.16453
2537.99082	0.16505
2536.06226	0.16555
2534.13369	0.16614
2532.20513	0.16677
2530.27656	0.16743
2528.34800	0.16817
2526.41943	0.16884
2524.49087	0.16946
2522.56230	0.17020
2520.63374	0.17100
2518.70518	0.17179
2516.77661	0.17252
2514.84805	0.17316
2512.91948	0.17387
2510.99092	0.17481
2509.06235	0.17582
2507.13379	0.17664
2505.20522	0.17731
2503.27666	0.17792
2501.34810	0.17854
2499.41953	0.17944
2497.49097	0.18048
2495.56240	0.18133
2493.63384	0.18207
2491.70527	0.18289
2489.77671	0.18385
2487.84814	0.18486
2485.91958	0.18569
2483.99102	0.18642
2482.06245	0.18721
2480.13389	0.18805
2478.20532	0.18894
2476.27676	0.18992
2474.34819	0.19091
2472.41963	0.19175
2470.49106	0.19249
2468.56250	0.19333
2466.63394	0.19425
2464.70537	0.19518
2462.77681	0.19623
2460.84824	0.19738
2458.91968	0.19834
2456.99111	0.19911
2455.06255	0.19993
2453.13398	0.20083
2451.20542	0.20182
2449.27686	0.20278
2447.34829	0.20367
2445.41973	0.20462
2443.49116	0.20559
2441.56260	0.20660
2439.63403	0.20777
2437.70547	0.20889
2435.77690	0.20981
2433.84834	0.21066
2431.91978	0.21161
2429.99121	0.21265
2428.06265	0.21368
2426.13408	0.21475
2424.20552	0.21591
2422.27695	0.21708
2420.34839	0.21819
2418.41982	0.21921
2416.49126	0.22017
2414.56270	0.22120
2412.63413	0.22242
2410.70557	0.22373
2408.77700	0.22490
2406.84844	0.22593
2404.91987	0.22704
2402.99131	0.22826
2401.06274	0.22946
2399.13418	0.23063
2397.20562	0.23177
2395.27705	0.23295
2393.34849	0.23436
2391.41992	0.23583
2389.49136	0.23711
2387.56279	0.23836
2385.63423	0.23976
2383.70566	0.24129
2381.77710	0.24305
2379.84854	0.24518
2377.91997	0.24765
2375.99141	0.25024
2374.06284	0.25305
2372.13428	0.25661
2370.20571	0.26064
2368.27715	0.26394
2366.34858	0.26665
2364.42002	0.26929
2362.49146	0.27184
2360.56289	0.27476
2358.63433	0.27668
2356.70576	0.27653
2354.77720	0.27628
2352.84863	0.27653
2350.92007	0.27615
2348.99150	0.27562
2347.06294	0.27630
2345.13437	0.27925
2343.20581	0.28367
2341.27725	0.28660
2339.34868	0.28799
2337.42012	0.28921
2335.49155	0.29004
2333.56299	0.29083
2331.63442	0.29247
2329.70586	0.29415
2327.77729	0.29517
2325.84873	0.29588
2323.92017	0.29674
2321.99160	0.29750
2320.06304	0.29811
2318.13447	0.29903
2316.20591	0.30007
2314.27734	0.30119
2312.34878	0.30250
2310.42021	0.30385
2308.49165	0.30508
2306.56309	0.30618
2304.63452	0.30737
2302.70596	0.30894
2300.77739	0.31076
2298.84883	0.31245
2296.92026	0.31406
2294.99170	0.31579
2293.06313	0.31747
2291.13457	0.31902
2289.20601	0.32066
2287.27744	0.32241
2285.34888	0.32427
2283.42031	0.32622
2281.49175	0.32801
2279.56318	0.32982
2277.63462	0.33191
2275.70605	0.33404
2273.77749	0.33604
2271.84893	0.33810
2269.92036	0.34016
2267.99180	0.34217
2266.06323	0.34435
2264.13467	0.34666
2262.20610	0.34886
2260.27754	0.35093
2258.34897	0.35298
2256.42041	0.35501
2254.49185	0.35707
2252.56328	0.35913
2250.63472	0.36117
2248.70615	0.36323
2246.77759	0.36531
2244.84902	0.36746
2242.92046	0.36975
2240.99189	0.37213
2239.06333	0.37446
2237.13477	0.37670
2235.20620	0.37885
2233.27764	0.38103
2231.34907	0.38334
2229.42051	0.38564
2227.49194	0.38785
2225.56338	0.39004
2223.63481	0.39229
2221.70625	0.39455
2219.77769	0.39669
2217.84912	0.39875
2215.92056	0.40091
2213.99199	0.40316
2212.06343	0.40543
2210.13486	0.40762
2208.20630	0.40971
2206.27773	0.41183
2204.34917	0.41398
2202.42061	0.41610
2200.49204	0.41809
2198.56348	0.41989
2196.63491	0.42170
2194.70635	0.42364
2192.77778	0.42557
2190.84922	0.42736
2188.92065	0.42917
2186.99209	0.43105
2185.06353	0.43293
2183.13496	0.43468
2181.20640	0.43628
2179.27783	0.43790
2177.34927	0.43964
2175.42070	0.44136
2173.49214	0.44291
2171.56357	0.44433
2169.63501	0.44557
2167.70645	0.44669
2165.77788	0.44799
2163.84932	0.44939
2161.92075	0.45053
2159.99219	0.45148
2158.06362	0.45247
2156.13506	0.45337
2154.20649	0.45413
2152.27793	0.45488
2150.34937	0.45553
2148.42080	0.45609
2146.49224	0.45665
2144.56367	0.45711
2142.63511	0.45743
2140.70654	0.45782
2138.77798	0.45824
2136.84941	0.45842
2134.92085	0.45850
2132.99229	0.45853
2131.06372	0.45842
2129.13516	0.45816
2127.20659	0.45782
2125.27803	0.45746
2123.34946	0.45701
2121.42090	0.45641
2119.49233	0.45576
2117.56377	0.45514
2115.63521	0.45439
2113.70664	0.45350
2111.77808	0.45259
2109.84951	0.45167
2107.92095	0.45069
2105.99238	0.44964
2104.06382	0.44847
2102.13525	0.44706
2100.20669	0.44554
2098.27812	0.44406
2096.34956	0.44262
2094.42100	0.44108
2092.49243	0.43944
2090.56387	0.43781
2088.63530	0.43607
2086.70674	0.43412
2084.77817	0.43213
2082.84961	0.43019
2080.92104	0.42823
2078.99248	0.42620
2077.06392	0.42407
2075.13535	0.42189
2073.20679	0.41969
2071.27822	0.41746
2069.34966	0.41524
2067.42109	0.41295
2065.49253	0.41050
2063.56396	0.40794
2061.63540	0.40542
2059.70684	0.40299
2057.77827	0.40052
2055.84971	0.39785
2053.92114	0.39513
2051.99258	0.39263
2050.06401	0.39020
2048.13545	0.38764
2046.20688	0.38491
2044.27832	0.38217
2042.34976	0.37954
2040.42119	0.37689
2038.49263	0.37413
2036.56406	0.37135
2034.63550	0.36852
2032.70693	0.36565
2030.77837	0.36289
2028.84980	0.36020
2026.92124	0.35747
2024.99268	0.35465
2023.06411	0.35185
2021.13555	0.34911
2019.20698	0.34643
2017.27842	0.34380
2015.34985	0.34103
2013.42129	0.33812
2011.49272	0.33523
2009.56416	0.33249
2007.63560	0.32992
2005.70703	0.32741
2003.77847	0.32477
2001.84990	0.32205
1999.92134	0.31942
1997.99277	0.31680
1996.06421	0.31420
1994.13564	0.31175
1992.20708	0.30938
1990.27852	0.30682
1988.34995	0.30423
1986.42139	0.30173
1984.49282	0.29926
1982.56426	0.29685
1980.63569	0.29459
1978.70713	0.29248
1976.77856	0.29038
1974.85000	0.28818
1972.92144	0.28590
1970.99287	0.28377
1969.06431	0.28185
1967.13574	0.27990
1965.20718	0.27777
1963.27861	0.27573
1961.35005	0.27388
1959.42148	0.27204
1957.49292	0.27020
1955.56436	0.26842
1953.63579	0.26671
1951.70723	0.26509
1949.77866	0.26352
1947.85010	0.26195
1945.92153	0.26047
1943.99297	0.25904
1942.06440	0.25750
1940.13584	0.25593
1938.20728	0.25451
1936.27871	0.25320
1934.35015	0.25196
1932.42158	0.25080
1930.49302	0.24968
1928.56445	0.24858
1926.63589	0.24743
1924.70732	0.24634
1922.77876	0.24537
1920.85020	0.24442
1918.92163	0.24360
1916.99307	0.24282
1915.06450	0.24194
1913.13594	0.24107
1911.20737	0.24033
1909.27881	0.23968
1907.35024	0.23903
1905.42168	0.23835
1903.49312	0.23769
1901.56455	0.23711
1899.63599	0.23666
1897.70742	0.23627
1895.77886	0.23588
1893.85029	0.23550
1891.92173	0.23511
1889.99316	0.23488
1888.06460	0.23474
1886.13604	0.23456
1884.20747	0.23442
1882.27891	0.23430
1880.35034	0.23415
1878.42178	0.23398
1876.49321	0.23393
1874.56465	0.23395
1872.63608	0.23411
1870.70752	0.23439
1868.77896	0.23489
1866.85039	0.23526
1864.92183	0.23526
1862.99326	0.23520
1861.06470	0.23531
1859.13613	0.23567
1857.20757	0.23609
1855.27900	0.23661
1853.35044	0.23720
1851.42187	0.23778
1849.49331	0.23824
1847.56475	0.23875
1845.63618	0.23952
1843.70762	0.24057
1841.77905	0.24153
1839.85049	0.24218
1837.92192	0.24298
1835.99336	0.24381
1834.06479	0.24459
1832.13623	0.24552
1830.20767	0.24697
1828.27910	0.24850
1826.35054	0.24953
1824.42197	0.25062
1822.49341	0.25181
1820.56484	0.25315
1818.63628	0.25467
1816.70771	0.25634
1814.77915	0.25798
1812.85059	0.25978
1810.92202	0.26186
1808.99346	0.26394
1807.06489	0.26592
1805.13633	0.26790
1803.20776	0.27014
1801.27920	0.27260
1799.35063	0.27529
1797.42207	0.27774
1795.49351	0.28004
1793.56494	0.28275
1791.63638	0.28634
1789.70781	0.28987
1787.77925	0.29256
1785.85068	0.29572
1783.92212	0.29945
1781.99355	0.30334
1780.06499	0.30742
1778.13643	0.31174
1776.20786	0.31589
1774.27930	0.32019
1772.35073	0.32580
1770.42217	0.33204
1768.49360	0.33754
1766.56504	0.34288
1764.63647	0.34836
1762.70791	0.35432
1760.77935	0.36176
1758.85078	0.36879
1756.92222	0.37587
1754.99365	0.38361
1753.06509	0.39052
1751.13652	0.39850
1749.20796	0.40871
1747.27939	0.41930
1745.35083	0.42885
1743.42227	0.43873
1741.49370	0.44934
1739.56514	0.46171
1737.63657	0.47416
1735.70801	0.48520
1733.77944	0.50172
1731.85088	0.52144
1729.92231	0.53703
1727.99375	0.55271
1726.06519	0.56951
1724.13662	0.58785
1722.20806	0.60771
1720.27949	0.62602
1718.35093	0.64716
1716.42236	0.67843
1714.49380	0.70895
1712.56523	0.73401
1710.63667	0.75801
1708.70811	0.78353
1706.77954	0.81245
1704.85098	0.84718
1702.92241	0.87837
1700.99385	0.90926
1699.06528	0.95568
1697.13672	0.99879
1695.20815	1.04243
1693.27959	1.08465
1691.35103	1.11899
1689.42246	1.15874
1687.49390	1.20074
1685.56533	1.24132
1683.63677	1.30404
1681.70820	1.36945
1679.77964	1.41144
1677.85107	1.45127
1675.92251	1.49701
1673.99395	1.55372
1672.06538	1.60450
1670.13682	1.65417
1668.20825	1.71838
1666.27969	1.77104
1664.35112	1.81573
1662.42256	1.87177
1660.49399	1.93616
1658.56543	1.98794
1656.63687	2.03016
1654.70830	2.06816
1652.77974	2.12448
1650.85117	2.17564
1648.92261	2.19368
1646.99404	2.21835
1645.06548	2.24585
1643.13691	2.26291
1641.20835	2.27253
1639.27979	2.28051
1637.35122	2.28261
1635.42266	2.27683
1633.49409	2.26827
1631.56553	2.25764
1629.63696	2.24286
1627.70840	2.21514
1625.77983	2.18159
1623.85127	2.13897
1621.92271	2.08724
1619.99414	2.04299
1618.06558	1.99988
1616.13701	1.93597
1614.20845	1.87046
1612.27988	1.82186
1610.35132	1.77205
1608.42275	1.71736
1606.49419	1.66279
1604.56562	1.61226
1602.63706	1.56357
1600.70850	1.51640
1598.77993	1.47323
1596.85137	1.43305
1594.92280	1.39431
1592.99424	1.35663
1591.06567	1.32186
1589.13711	1.28978
1587.20854	1.26047
1585.27998	1.23339
1583.35142	1.20806
1581.42285	1.18524
1579.49429	1.16594
1577.56572	1.14851
1575.63716	1.12736
1573.70859	1.10914
1571.78003	1.09783
1569.85146	1.08644
1567.92290	1.07357
1565.99434	1.06395
1564.06577	1.05735
1562.13721	1.05280
1560.20864	1.05015
1558.28008	1.04888
1556.35151	1.04857
1554.42295	1.04789
1552.49438	1.04715
1550.56582	1.04530
1548.63726	1.04116
1546.70869	1.03483
1544.78013	1.02589
1542.85156	1.01416
1540.92300	0.99735
1538.99443	0.97153
1537.06587	0.95280
1535.13730	0.93988
1533.20874	0.92258
1531.28018	0.90411
1529.35161	0.89070
1527.42305	0.87815
1525.49448	0.86525
1523.56592	0.85449
1521.63735	0.84413
1519.70879	0.83315
1517.78022	0.82382
1515.85166	0.81339
1513.92310	0.80255
1511.99453	0.79331
1510.06597	0.78501
1508.13740	0.77669
1506.20884	0.76354
1504.28027	0.75203
1502.35171	0.74579
1500.42314	0.74056
1498.49458	0.73476
1496.56602	0.72773
1494.63745	0.72088
1492.70889	0.71555
1490.78032	0.71073
1488.85176	0.70539
1486.92319	0.70063
1484.99463	0.69683
1483.06606	0.69358
1481.13750	0.69086
1479.20894	0.68889
1477.28037	0.68787
1475.35181	0.68754
1473.42324	0.68742
1471.49468	0.68670
1469.56611	0.68518
1467.63755	0.68327
1465.70898	0.68133
1463.78042	0.67972
1461.85186	0.67895
1459.92329	0.67895
1457.99473	0.67923
1456.06616	0.67847
1454.13760	0.67629
1452.20903	0.67406
1450.28047	0.67187
1448.35190	0.66971
1446.42334	0.66740
1444.49478	0.66502
1442.56621	0.66266
1440.63765	0.66019
1438.70908	0.65768
1436.78052	0.65473
1434.85195	0.65133
1432.92339	0.64854
1430.99482	0.64664
1429.06626	0.64549
1427.13770	0.64493
1425.20913	0.64484
1423.28057	0.64506
1421.35200	0.64524
1419.42344	0.64534
1417.49487	0.64517
1415.56631	0.64420
1413.63774	0.64307
1411.70918	0.64252
1409.78062	0.64276
1407.85205	0.64342
1405.92349	0.64431
1403.99492	0.64499
1402.06636	0.64472
1400.13779	0.64376
1398.20923	0.64244
1396.28066	0.64059
1394.35210	0.63760
1392.42354	0.63387
1390.49497	0.63032
1388.56641	0.62696
1386.63784	0.62337
1384.70928	0.61940
1382.78071	0.61527
1380.85215	0.61134
1378.92358	0.60823
1376.99502	0.60603
1375.06646	0.60441
1373.13789	0.60312
1371.20933	0.60220
1369.28076	0.60149
1367.35220	0.60050
1365.42363	0.59911
1363.49507	0.59774
1361.56650	0.59653
1359.63794	0.59525
1357.70937	0.59385
1355.78081	0.59246
1353.85225	0.59122
1351.92368	0.59023
1349.99512	0.58942
1348.06655	0.58850
1346.13799	0.58749
1344.20942	0.58663
1342.28086	0.58583
1340.35229	0.58503
1338.42373	0.58423
1336.49517	0.58339
1334.56660	0.58267
1332.63804	0.58226
1330.70947	0.58218
1328.78091	0.58240
1326.85234	0.58276
1324.92378	0.58304
1322.99521	0.58333
1321.06665	0.58373
1319.13809	0.58409
1317.20952	0.58413
1315.28096	0.58394
1313.35239	0.58360
1311.42383	0.58298
1309.49526	0.58213
1307.56670	0.58127
1305.63813	0.58064
1303.70957	0.58019
1301.78101	0.57962
1299.85244	0.57870
1297.92388	0.57745
1295.99531	0.57620
1294.06675	0.57517
1292.13818	0.57412
1290.20962	0.57302
1288.28105	0.57205
1286.35249	0.57101
1284.42393	0.56991
1282.49536	0.56879
1280.56680	0.56756
1278.63823	0.56634
1276.70967	0.56522
1274.78110	0.56413
1272.85254	0.56313
1270.92397	0.56235
1268.99541	0.56175
1267.06685	0.56115
1265.13828	0.56033
1263.20972	0.55946
1261.28115	0.55868
1259.35259	0.55791
1257.42402	0.55732
1255.49546	0.55706
1253.56689	0.55699
1251.63833	0.55695
1249.70977	0.55689
1247.78120	0.55657
1245.85264	0.55601
1243.92407	0.55541
1241.99551	0.55466
1240.06694	0.55354
1238.13838	0.55201
1236.20981	0.55024
1234.28125	0.54835
1232.35269	0.54639
1230.42412	0.54446
1228.49556	0.54269
1226.56699	0.54105
1224.63843	0.53944
1222.70986	0.53797
1220.78130	0.53667
1218.85273	0.53527
1216.92417	0.53371
1214.99561	0.53233
1213.06704	0.53131
1211.13848	0.53058
1209.20991	0.53002
1207.28135	0.52944
1205.35278	0.52879
1203.42422	0.52815
1201.49565	0.52735
1199.56709	0.52628
1197.63853	0.52518
1195.70996	0.52429
1193.78140	0.52365
1191.85283	0.52314
1189.92427	0.52264
1187.99570	0.52231
1186.06714	0.52223
1184.13857	0.52214
1182.21001	0.52210
1180.28145	0.52252
1178.35288	0.52355
1176.42432	0.52489
1174.49575	0.52603
1172.56719	0.52681
1170.63862	0.52741
1168.71006	0.52789
1166.78149	0.52828
1164.85293	0.52878
1162.92437	0.52931
1160.99580	0.52957
1159.06724	0.52959
1157.13867	0.52945
1155.21011	0.52900
1153.28154	0.52803
1151.35298	0.52652
1149.42441	0.52443
1147.49585	0.52183
1145.56729	0.51904
1143.63872	0.51633
1141.71016	0.51389
1139.78159	0.51199
1137.85303	0.51080
1135.92446	0.51020
1133.99590	0.50986
1132.06733	0.50953
1130.13877	0.50926
1128.21021	0.50913
1126.28164	0.50884
1124.35308	0.50842
1122.42451	0.50819
1120.49595	0.50824
1118.56738	0.50864
1116.63882	0.50928
1114.71025	0.50998
1112.78169	0.51082
1110.85312	0.51168
1108.92456	0.51239
1106.99600	0.51310
1105.06743	0.51410
1103.13887	0.51530
1101.21030	0.51651
1099.28174	0.51783
1097.35317	0.51960
1095.42461	0.52209
1093.49604	0.52548
1091.56748	0.53022
1089.63892	0.53660
1087.71035	0.54420
1085.78179	0.55267
1083.85322	0.56161
1081.92466	0.56971
1079.99609	0.57571
1078.06753	0.57892
1076.13896	0.57854
1074.21040	0.57469
1072.28184	0.56868
1070.35327	0.56158
1068.42471	0.55411
1066.49614	0.54710
1064.56758	0.54106
1062.63901	0.53588
1060.71045	0.53110
1058.78188	0.52663
1056.85332	0.52270
1054.92476	0.51927
1052.99619	0.51626
1051.06763	0.51385
1049.13906	0.51237
1047.21050	0.51191
1045.28193	0.51213
1043.35337	0.51262
1041.42480	0.51305
1039.49624	0.51325
1037.56768	0.51330
1035.63911	0.51325
1033.71055	0.51273
1031.78198	0.51157
1029.85342	0.50996
1027.92485	0.50799
1025.99629	0.50577
1024.06772	0.50379
1022.13916	0.50259
1020.21060	0.50221
1018.28203	0.50206
1016.35347	0.50173
1014.42490	0.50123
1012.49634	0.50072
1010.56777	0.50042
1008.63921	0.50032
1006.71064	0.50039
1004.78208	0.50087
1002.85352	0.50219
1000.92495	0.50468
998.99639	0.50806
997.06782	0.51209
995.13926	0.51661
993.21069	0.52098
991.28213	0.52435
989.35356	0.52625
987.42500	0.52680
985.49644	0.52660
983.56787	0.52624
981.63931	0.52615
979.71074	0.52674
977.78218	0.52815
975.85361	0.53013
973.92505	0.53263
971.99648	0.53562
970.06792	0.53884
968.13936	0.54232
966.21079	0.54624
964.28223	0.55075
962.35366	0.55578
960.42510	0.56085
958.49653	0.56582
956.56797	0.57116
954.63940	0.57709
952.71084	0.58355
950.78228	0.59034
948.85371	0.59703
946.92515	0.60323
944.99658	0.60898
943.06802	0.61467
941.13945	0.62058
939.21089	0.62687
937.28232	0.63343
935.35376	0.63989
933.42520	0.64605
931.49663	0.65181
929.56807	0.65740
927.63950	0.66321
925.71094	0.66932
923.78237	0.67558
921.85381	0.68178
919.92524	0.68871
917.99668	0.69676
916.06812	0.70457
914.13955	0.71160
912.21099	0.71879
910.28242	0.72664
908.35386	0.73530
906.42529	0.74454
904.49673	0.75391
902.56816	0.76327
900.63960	0.77269
898.71104	0.78323
896.78247	0.79469
894.85391	0.80467
892.92534	0.81341
890.99678	0.82292
889.06821	0.83321
887.13965	0.84406
885.21108	0.85540
883.28252	0.86613
881.35396	0.87651
879.42539	0.88801
877.49683	0.90022
875.56826	0.91203
873.63970	0.92296
871.71113	0.93383
869.78257	0.94556
867.85400	0.95726
865.92544	0.96827
863.99687	0.97977
862.06831	0.99255
860.13975	1.00528
858.21118	1.01759
856.28262	1.02992
854.35405	1.04140
852.42549	1.05292
850.49692	1.06570
848.56836	1.07777
846.63979	1.08883
844.71123	1.10063
842.78267	1.11292
840.85410	1.12469
838.92554	1.13460
836.99697	1.14395
835.06841	1.15539
833.13984	1.16614
831.21128	1.17322
829.28271	1.18224
827.35415	1.19676
825.42559	1.21375
823.49702	1.23443
821.56846	1.25193
819.63989	1.25498
817.71133	1.24901
815.78276	1.24738
813.85420	1.25875
811.92563	1.27774
809.99707	1.29279
808.06851	1.30920
806.13994	1.32709
804.21138	1.32896
802.28281	1.32527
800.35425	1.32552
798.42568	1.32441
796.49712	1.33155
794.56855	1.34211
792.63999	1.34936
790.71143	1.37216
788.78286	1.41280
786.85430	1.42791
784.92573	1.41208
782.99717	1.40924
781.06860	1.43081
779.14004	1.45093
777.21147	1.44040
775.28291	1.43048
773.35435	1.48214
771.42578	1.55929
769.49722	1.48996
767.56865	1.37312
765.64009	1.30787
763.71152	1.25235
761.78296	1.21457
759.85439	1.25136
757.92583	1.37370
755.99727	1.45356
754.06870	1.34446
752.14014	1.21030
750.21157	1.21365
748.28301	1.35715
746.35444	1.39119
744.42588	1.26242
742.49731	1.26123
740.56875	1.34400
738.64019	1.20681
736.71162	0.98799
734.78306	0.83175
732.85449	0.76325
730.92593	0.78690
728.99736	0.78655
727.06880	0.69122
725.14023	0.65598
723.21167	0.73932
721.28311	0.73871
719.35454	0.60432
717.42598	0.51948
715.49741	0.46650
713.56885	0.46530
711.64028	0.56705
709.71172	0.73330
707.78315	0.74438
705.85459	0.53521
703.92603	0.40643
701.99746	0.46668
700.06890	0.64646
698.14033	0.52086
696.21177	0.27778
694.28320	0.30559
692.35464	0.54144
690.42607	0.53211
688.49751	0.29038
686.56895	0.23099
684.64038	0.29900
682.71182	0.37857
680.78325	0.38630
678.85469	0.36570
676.92612	0.32789
674.99756	0.23762
673.06899	0.17911
671.14043	0.21671
669.21187	0.29963
667.28330	0.34870
665.35474	0.35302
663.42617	0.33415
661.49761	0.37342
659.56904	0.46145
657.64048	0.52366
655.71191	0.66104
653.78335	0.71529
651.85479	0.65579
649.92622	0.78271
647.99766	0.63958
646.06909	0.35016
644.14053	0.30375
642.21196	0.42461
640.28340	0.43808
638.35483	0.27695
636.42627	0.19715
634.49771	0.26518
632.56914	0.39928
630.64058	0.35196
628.71201	0.29544
626.78345	0.26619
624.85488	0.19823
622.92632	0.15540
620.99775	0.19183
619.06919	0.25206
617.14062	0.22618
615.21206	0.11434
613.28350	0.06165
611.35493	0.10416
609.42637	0.21065
607.49780	0.34317
605.56924	0.41936
603.64067	0.48781
601.71211	0.58628
599.78354	0.65656
597.85498	0.57764
595.92642	0.43487
593.99785	0.38903
592.06929	0.58419
590.14072	1.11755
588.21216	0.43080
586.28359	0.17053
584.35503	0.13036
582.42646	0.16471
580.49790	0.18936
578.56934	0.18840
576.64077	0.20612
574.71221	0.28755
572.78364	0.34855
570.85508	0.30559
568.92651	0.26588
566.99795	0.28253
565.06938	0.28132
563.14082	0.19945
561.21226	0.17139
559.28369	0.24165
557.35513	0.25414
555.42656	0.19535
553.49800	0.21881
551.56943	0.32186
549.64087	0.54232
547.71230	0.76039
545.78374	0.47629
543.85518	0.34240
541.92661	0.38223
539.99805	0.38506
538.06948	0.25304
536.14092	0.20481
534.21235	0.23229
532.28379	0.19691
530.35522	0.13434
528.42666	0.14358
526.49810	0.24986
524.56953	0.26512
522.64097	0.18756
520.71240	0.15717
518.78384	0.18065
516.85527	0.24451
514.92671	0.25019
512.99814	0.22108
511.06958	0.27045
509.14102	0.33104
507.21245	0.26382
505.28389	0.22183
503.35532	0.24127
501.42676	0.22656
499.49819	0.19385
