3997.91411	0.07524
3995.98555	0.07585
3994.05698	0.07633
3992.12842	0.07663
3990.19985	0.07694
3988.27129	0.07709
3986.34272	0.07712
3984.41416	0.07728
3982.48560	0.07759
3980.55703	0.07802
3978.62847	0.07837
3976.69990	0.07866
3974.77134	0.07892
3972.84277	0.07908
3970.91421	0.07912
3968.98564	0.07917
3967.05708	0.07928
3965.12852	0.07953
3963.19995	0.07999
3961.27139	0.08042
3959.34282	0.08053
3957.41426	0.08034
3955.48569	0.08007
3953.55713	0.07996
3951.62856	0.08015
3949.70000	0.08063
3947.77144	0.08109
3945.84287	0.08120
3943.91431	0.08134
3941.98574	0.08163
3940.05718	0.08135
3938.12861	0.08051
3936.20005	0.07990
3934.27148	0.08001
3932.34292	0.08054
3930.41436	0.08088
3928.48579	0.08074
3926.55723	0.08014
3924.62866	0.07971
3922.70010	0.07991
3920.77153	0.08032
3918.84297	0.08057
3916.91440	0.08064
3914.98584	0.08048
3913.05728	0.08012
3911.12871	0.07971
3909.20015	0.07926
3907.27158	0.07905
3905.34302	0.07985
3903.41445	0.08170
3901.48589	0.08307
3899.55732	0.08303
3897.62876	0.08172
3895.70020	0.08015
3893.77163	0.07996
3891.84307	0.08109
3889.91450	0.08138
3887.98594	0.08041
3886.05737	0.08031
3884.12881	0.08135
3882.20024	0.08215
3880.27168	0.08227
3878.34312	0.08131
3876.41455	0.07991
3874.48599	0.07988
3872.55742	0.08126
3870.62886	0.08279
3868.70029	0.08359
3866.77173	0.08339
3864.84316	0.08371
3862.91460	0.08447
3860.98604	0.08400
3859.05747	0.08354
3857.12891	0.08428
3855.20034	0.08603
3853.27178	0.08837
3851.34321	0.08808
3849.41465	0.08557
3847.48608	0.08453
3845.55752	0.08510
3843.62896	0.08662
3841.70039	0.08836
3839.77183	0.08974
3837.84326	0.09064
3835.91470	0.09077
3833.98613	0.09057
3832.05757	0.09075
3830.12900	0.09121
3828.20044	0.09160
3826.27187	0.09235
3824.34331	0.09349
3822.41475	0.09470
3820.48618	0.09682
3818.55762	0.09893
3816.62905	0.09970
3814.70049	0.09956
3812.77192	0.09871
3810.84336	0.09814
3808.91479	0.09846
3806.98623	0.09972
3805.05767	0.10138
3803.12910	0.10349
3801.20054	0.10665
3799.27197	0.10840
3797.34341	0.10809
3795.41484	0.10817
3793.48628	0.10852
3791.55771	0.10898
3789.62915	0.10984
3787.70059	0.11093
3785.77202	0.11243
3783.84346	0.11418
3781.91489	0.11560
3779.98633	0.11716
3778.05776	0.11903
3776.12920	0.12007
3774.20063	0.12090
3772.27207	0.12271
3770.34351	0.12539
3768.41494	0.12800
3766.48638	0.12977
3764.55781	0.13130
3762.62925	0.13310
3760.70068	0.13571
3758.77212	0.13921
3756.84355	0.14175
3754.91499	0.14298
3752.98643	0.14524
3751.05786	0.15026
3749.12930	0.15614
3747.20073	0.15833
3745.27217	0.15954
3743.34360	0.16287
3741.41504	0.16597
3739.48647	0.16801
3737.55791	0.17097
3735.62935	0.17581
3733.70078	0.18164
3731.77222	0.18609
3729.84365	0.18932
3727.91509	0.19277
3725.98652	0.19785
3724.05796	0.20437
3722.12939	0.21101
3720.20083	0.21746
3718.27227	0.22377
3716.34370	0.23047
3714.41514	0.23798
3712.48657	0.24768
3710.55801	0.26090
3708.62944	0.27431
3706.70088	0.28521
3704.77231	0.29558
3702.84375	0.30805
3700.91519	0.32482
3698.98662	0.34298
3697.05806	0.35977
3695.12949	0.37755
3693.20093	0.39652
3691.27236	0.41716
3689.34380	0.44413
3687.41523	0.47778
3685.48667	0.50784
3683.55811	0.53383
3681.62954	0.56139
3679.70098	0.59222
3677.77241	0.62445
3675.84385	0.66218
3673.91528	0.71303
3671.98672	0.75570
3670.05815	0.79415
3668.12959	0.84591
3666.20103	0.89308
3664.27246	0.93293
3662.34390	0.97555
3660.41533	1.02134
3658.48677	1.06692
3656.55820	1.11623
3654.62964	1.17083
3652.70107	1.21606
3650.77251	1.25568
3648.84395	1.31085
3646.91538	1.37754
3644.98682	1.42594
3643.05825	1.46383
3641.12969	1.50337
3639.20112	1.54695
3637.27256	1.59068
3635.34399	1.63276
3633.41543	1.67470
3631.48687	1.71487
3629.55830	1.75629
3627.62974	1.80989
3625.70117	1.85944
3623.77261	1.89297
3621.84404	1.92539
3619.91548	1.96320
3617.98691	2.00919
3616.05835	2.05365
3614.12979	2.09098
3612.20122	2.12892
3610.27266	2.16631
3608.34409	2.20557
3606.41553	2.24887
3604.48696	2.28860
3602.55840	2.32365
3600.62983	2.36207
3598.70127	2.40407
3596.77271	2.44408
3594.84414	2.48408
3592.91558	2.52614
3590.98701	2.56556
3589.05845	2.60149
3587.12988	2.64436
3585.20132	2.69246
3583.27275	2.73441
3581.34419	2.77306
3579.41562	2.81312
3577.48706	2.85530
3575.55850	2.89854
3573.62993	2.94284
3571.70137	2.98543
3569.77280	3.02562
3567.84424	3.06969
3565.91567	3.12377
3563.98711	3.17415
3562.05854	3.21479
3560.12998	3.25540
3558.20142	3.29837
3556.27285	3.34373
3554.34429	3.39024
3552.41572	3.43667
3550.48716	3.48157
3548.55859	3.52549
3546.63003	3.57118
3544.70146	3.62103
3542.77290	3.67042
3540.84434	3.71583
3538.91577	3.75992
3536.98721	3.80427
3535.05864	3.85367
3533.13008	3.90628
3531.20151	3.95719
3529.27295	4.00714
3527.34438	4.05651
3525.41582	4.10326
3523.48726	4.14688
3521.55869	4.19159
3519.63013	4.24069
3517.70156	4.29091
3515.77300	4.33701
3513.84443	4.38104
3511.91587	4.42850
3509.98730	4.48416
3508.05874	4.54349
3506.13018	4.59427
3504.20161	4.63735
3502.27305	4.68024
3500.34448	4.72668
3498.41592	4.77859
3496.48735	4.83180
3494.55879	4.87824
3492.63022	4.91990
3490.70166	4.96349
3488.77310	5.01063
3486.84453	5.06101
3484.91597	5.11088
3482.98740	5.15979
3481.05884	5.21321
3479.13027	5.26689
3477.20171	5.31157
3475.27314	5.34971
3473.34458	5.39373
3471.41602	5.44666
3469.48745	5.50242
3467.55889	5.55984
3465.63032	5.61197
3463.70176	5.65378
3461.77319	5.69161
3459.84463	5.73900
3457.91606	5.80041
3455.98750	5.86072
3454.05894	5.90905
3452.13037	5.95396
3450.20181	6.00510
3448.27324	6.05814
3446.34468	6.09950
3444.41611	6.13381
3442.48755	6.18862
3440.55898	6.24844
3438.63042	6.28763
3436.70186	6.32197
3434.77329	6.36456
3432.84473	6.40862
3430.91616	6.44718
3428.98760	6.49280
3427.05903	6.55618
3425.13047	6.62469
3423.20190	6.67334
3421.27334	6.72129
3419.34478	6.78904
3417.41621	6.84390
3415.48765	6.87684
3413.55908	6.91832
3411.63052	6.97085
3409.70195	7.00804
3407.77339	7.04161
3405.84482	7.07701
3403.91626	7.10255
3401.98770	7.12055
3400.05913	7.16520
3398.13057	7.24833
3396.20200	7.29801
3394.27344	7.30455
3392.34487	7.35346
3390.41631	7.45758
3388.48774	7.52276
3386.55918	7.54913
3384.63062	7.57992
3382.70205	7.58537
3380.77349	7.60929
3378.84492	7.70627
3376.91636	7.81042
3374.98779	7.84403
3373.05923	7.82145
3371.13066	7.77584
3369.20210	7.75818
3367.27354	7.76058
3365.34497	7.78345
3363.41641	7.83817
3361.48784	7.87559
3359.55928	7.91917
3357.63071	8.01186
3355.70215	8.11444
3353.77358	8.09765
3351.84502	8.00062
3349.91646	7.95746
3347.98789	7.94730
3346.05933	7.98079
3344.13076	8.07838
3342.20220	8.10167
3340.27363	8.02092
3338.34507	7.98152
3336.41650	8.00653
3334.48794	8.05195
3332.55937	8.07689
3330.63081	8.09611
3328.70225	8.15512
3326.77368	8.24371
3324.84512	8.30579
3322.91655	8.31800
3320.98799	8.30049
3319.05942	8.23210
3317.13086	8.16297
3315.20229	8.13801
3313.27373	8.13684
3311.34517	8.12469
3309.41660	8.11828
3307.48804	8.15414
3305.55947	8.20125
3303.63091	8.21519
3301.70234	8.18981
3299.77378	8.20289
3297.84521	8.24748
3295.91665	8.28740
3293.98809	8.32327
3292.05952	8.29806
3290.13096	8.30311
3288.20239	8.44460
3286.27383	8.59238
3284.34526	8.55466
3282.41670	8.36837
3280.48813	8.20179
3278.55957	8.14224
3276.63101	8.19237
3274.70244	8.35921
3272.77388	8.55887
3270.84531	8.67935
3268.91675	8.74804
3266.98818	8.77232
3265.05962	8.69467
3263.13105	8.51527
3261.20249	8.36634
3259.27393	8.26132
3257.34536	8.22378
3255.41680	8.33446
3253.48823	8.43967
3251.55967	8.37125
3249.63110	8.28158
3247.70254	8.27693
3245.77397	8.28796
3243.84541	8.31363
3241.91685	8.36530
3239.98828	8.39091
3238.05972	8.37538
3236.13115	8.34389
3234.20259	8.34790
3232.27402	8.39805
3230.34546	8.44071
3228.41689	8.38174
3226.48833	8.25380
3224.55977	8.15769
3222.63120	8.08774
3220.70264	8.04871
3218.77407	8.07594
3216.84551	8.11487
3214.91694	8.08844
3212.98838	8.02467
3211.05981	7.95594
3209.13125	7.88301
3207.20269	7.84040
3205.27412	7.82833
3203.34556	7.80402
3201.41699	7.80315
3199.48843	7.85601
3197.55986	7.86717
3195.63130	7.78935
3193.70273	7.70554
3191.77417	7.66935
3189.84561	7.65176
3187.91704	7.60864
3185.98848	7.57453
3184.05991	7.56695
3182.13135	7.53015
3180.20278	7.47622
3178.27422	7.42090
3176.34565	7.31168
3174.41709	7.18643
3172.48853	7.12365
3170.55996	7.09783
3168.63140	7.04527
3166.70283	6.96015
3164.77427	6.88583
3162.84570	6.84577
3160.91714	6.80874
3158.98857	6.74324
3157.06001	6.65056
3155.13145	6.55547
3153.20288	6.47614
3151.27432	6.40026
3149.34575	6.32491
3147.41719	6.26824
3145.48862	6.22725
3143.56006	6.18149
3141.63149	6.12110
3139.70293	6.05397
3137.77437	5.99127
3135.84580	5.92331
3133.91724	5.84561
3131.98867	5.77270
3130.06011	5.71102
3128.13154	5.65245
3126.20298	5.58064
3124.27441	5.48885
3122.34585	5.39901
3120.41729	5.33139
3118.48872	5.26862
3116.56016	5.19598
3114.63159	5.12315
3112.70303	5.05411
3110.77446	4.98678
3108.84590	4.91706
3106.91733	4.84482
3104.98877	4.77844
3103.06021	4.71701
3101.13164	4.65004
3099.20308	4.57837
3097.27451	4.50915
3095.34595	4.44258
3093.41738	4.37706
3091.48882	4.31224
3089.56025	4.24735
3087.63169	4.18253
3085.70312	4.11885
3083.77456	4.05669
3081.84600	3.99640
3079.91743	3.93756
3077.98887	3.87945
3076.06030	3.82140
3074.13174	3.76133
3072.20317	3.69905
3070.27461	3.63841
3068.34604	3.58372
3066.41748	3.53258
3064.48892	3.47850
3062.56035	3.42187
3060.63179	3.36648
3058.70322	3.31160
3056.77466	3.25695
3054.84609	3.20403
3052.91753	3.15136
3050.98896	3.09772
3049.06040	3.04528
3047.13184	2.99555
3045.20327	2.94636
3043.27471	2.89633
3041.34614	2.84745
3039.41758	2.80020
3037.48901	2.75285
3035.56045	2.70542
3033.63188	2.65916
3031.70332	2.61385
3029.77476	2.56907
3027.84619	2.52544
3025.91763	2.48275
3023.98906	2.43989
3022.06050	2.39647
3020.13193	2.35332
3018.20337	2.31160
3016.27480	2.27140
3014.34624	2.23188
3012.41768	2.19294
3010.48911	2.15458
3008.56055	2.11614
3006.63198	2.07868
3004.70342	2.04345
3002.77485	2.00897
3000.84629	1.97436
2998.91772	1.94037
2996.98916	1.90733
2995.06060	1.87501
2993.13203	1.84335
2991.20347	1.81275
2989.27490	1.78335
2987.34634	1.75462
2985.41777	1.72610
2983.48921	1.69799
2981.56064	1.67053
2979.63208	1.64390
2977.70352	1.61828
2975.77495	1.59306
2973.84639	1.56780
2971.91782	1.54318
2969.98926	1.51950
2968.06069	1.49603
2966.13213	1.47250
2964.20356	1.44947
2962.27500	1.42640
2960.34644	1.40204
2958.41787	1.37743
2956.48931	1.35384
2954.56074	1.33035
2952.63218	1.30646
2950.70361	1.28285
2948.77505	1.25994
2946.84648	1.23778
2944.91792	1.21635
2942.98936	1.19543
2941.06079	1.17516
2939.13223	1.15582
2937.20366	1.13667
2935.27510	1.11687
2933.34653	1.09677
2931.41797	1.07698
2929.48940	1.05742
2927.56084	1.03795
2925.63228	1.01876
2923.70371	1.00027
2921.77515	0.98283
2919.84658	0.96598
2917.91802	0.94855
2915.98945	0.93039
2914.06089	0.91257
2912.13232	0.89589
2910.20376	0.88031
2908.27520	0.86482
2906.34663	0.84867
2904.41807	0.83279
2902.48950	0.81793
2900.56094	0.80377
2898.63237	0.79021
2896.70381	0.77745
2894.77524	0.76490
2892.84668	0.75184
2890.91812	0.73899
2888.98955	0.72705
2887.06099	0.71569
2885.13242	0.70499
2883.20386	0.69528
2881.27529	0.68611
2879.34673	0.67678
2877.41816	0.66708
2875.48960	0.65717
2873.56104	0.64708
2871.63247	0.63668
2869.70391	0.62580
2867.77534	0.61437
2865.84678	0.60246
2863.91821	0.59033
2861.98965	0.57863
2860.06108	0.56789
2858.13252	0.55788
2856.20396	0.54807
2854.27539	0.53839
2852.34683	0.52904
2850.41826	0.52000
2848.48970	0.51114
2846.56113	0.50258
2844.63257	0.49464
2842.70400	0.48753
2840.77544	0.48088
2838.84687	0.47425
2836.91831	0.46759
2834.98975	0.46100
2833.06118	0.45461
2831.13262	0.44859
2829.20405	0.44284
2827.27549	0.43695
2825.34692	0.43069
2823.41836	0.42438
2821.48979	0.41837
2819.56123	0.41256
2817.63267	0.40669
2815.70410	0.40084
2813.77554	0.39525
2811.84697	0.38992
2809.91841	0.38456
2807.98984	0.37896
2806.06128	0.37335
2804.13271	0.36816
2802.20415	0.36326
2800.27559	0.35826
2798.34702	0.35316
2796.41846	0.34816
2794.48989	0.34340
2792.56133	0.33877
2790.63276	0.33419
2788.70420	0.32978
2786.77563	0.32558
2784.84707	0.32146
2782.91851	0.31728
2780.98994	0.31305
2779.06138	0.30887
2777.13281	0.30479
2775.20425	0.30081
2773.27568	0.29689
2771.34712	0.29306
2769.41855	0.28918
2767.48999	0.28526
2765.56143	0.28162
2763.63286	0.27834
2761.70430	0.27511
2759.77573	0.27174
2757.84717	0.26841
2755.91860	0.26526
2753.99004	0.26217
2752.06147	0.25910
2750.13291	0.25608
2748.20435	0.25306
2746.27578	0.25008
2744.34722	0.24726
2742.41865	0.24460
2740.49009	0.24195
2738.56152	0.23920
2736.63296	0.23651
2734.70439	0.23399
2732.77583	0.23169
2730.84727	0.22962
2728.91870	0.22750
2726.99014	0.22518
2725.06157	0.22284
2723.13301	0.22054
2721.20444	0.21814
2719.27588	0.21576
2717.34731	0.21367
2715.41875	0.21177
2713.49019	0.20977
2711.56162	0.20769
2709.63306	0.20594
2707.70449	0.20463
2705.77593	0.20338
2703.84736	0.20191
2701.91880	0.20027
2699.99023	0.19858
2698.06167	0.19704
2696.13311	0.19553
2694.20454	0.19390
2692.27598	0.19229
2690.34741	0.19087
2688.41885	0.18965
2686.49028	0.18844
2684.56172	0.18717
2682.63315	0.18593
2680.70459	0.18471
2678.77603	0.18353
2676.84746	0.18244
2674.91890	0.18138
2672.99033	0.18042
2671.06177	0.17957
2669.13320	0.17868
2667.20464	0.17763
2665.27607	0.17648
2663.34751	0.17542
2661.41895	0.17457
2659.49038	0.17388
2657.56182	0.17313
2655.63325	0.17232
2653.70469	0.17158
2651.77612	0.17083
2649.84756	0.17012
2647.91899	0.16946
2645.99043	0.16873
2644.06187	0.16799
2642.13330	0.16745
2640.20474	0.16697
2638.27617	0.16643
2636.34761	0.16594
2634.41904	0.16558
2632.49048	0.16521
2630.56191	0.16475
2628.63335	0.16424
2626.70479	0.16372
2624.77622	0.16323
2622.84766	0.16279
2620.91909	0.16241
2618.99053	0.16205
2617.06196	0.16171
2615.13340	0.16154
2613.20483	0.16152
2611.27627	0.16140
2609.34771	0.16118
2607.41914	0.16096
2605.49058	0.16075
2603.56201	0.16062
2601.63345	0.16056
2599.70488	0.16060
2597.77632	0.16076
2595.84775	0.16087
2593.91919	0.16084
2591.99062	0.16077
2590.06206	0.16073
2588.13350	0.16083
2586.20493	0.16100
2584.27637	0.16108
2582.34780	0.16110
2580.41924	0.16127
2578.49067	0.16166
2576.56211	0.16206
2574.63354	0.16234
2572.70498	0.16256
2570.77642	0.16274
2568.84785	0.16292
2566.91929	0.16329
2564.99072	0.16388
2563.06216	0.16441
2561.13359	0.16469
2559.20503	0.16490
2557.27646	0.16523
2555.34790	0.16570
2553.41934	0.16615
2551.49077	0.16655
2549.56221	0.16706
2547.63364	0.16767
2545.70508	0.16822
2543.77651	0.16869
2541.84795	0.16923
2539.91938	0.16993
2537.99082	0.17062
2536.06226	0.17121
2534.13369	0.17181
2532.20513	0.17247
2530.27656	0.17308
2528.34800	0.17351
2526.41943	0.17393
2524.49087	0.17459
2522.56230	0.17550
2520.63374	0.17641
2518.70518	0.17720
2516.77661	0.17790
2514.84805	0.17861
2512.91948	0.17940
2510.99092	0.18024
2509.06235	0.18098
2507.13379	0.18158
2505.20522	0.18226
2503.27666	0.18313
2501.34810	0.18396
2499.41953	0.18470
2497.49097	0.18542
2495.56240	0.18619
2493.63384	0.18705
2491.70527	0.18794
2489.77671	0.18879
2487.84814	0.18951
2485.91958	0.19030
2483.99102	0.19133
2482.06245	0.19239
2480.13389	0.19326
2478.20532	0.19394
2476.27676	0.19462
2474.34819	0.19546
2472.41963	0.19631
2470.49106	0.19710
2468.56250	0.19791
2466.63394	0.19884
2464.70537	0.19982
2462.77681	0.20066
2460.84824	0.20155
2458.91968	0.20253
2456.99111	0.20342
2455.06255	0.20426
2453.13398	0.20512
2451.20542	0.20600
2449.27686	0.20701
2447.34829	0.20803
2445.41973	0.20893
2443.49116	0.20992
2441.56260	0.21092
2439.63403	0.21167
2437.70547	0.21244
2435.77690	0.21348
2433.84834	0.21457
2431.91978	0.21561
2429.99121	0.21675
2428.06265	0.21790
2426.13408	0.21898
2424.20552	0.22004
2422.27695	0.22114
2420.34839	0.22221
2418.41982	0.22319
2416.49126	0.22421
2414.56270	0.22541
2412.63413	0.22664
2410.70557	0.22771
2408.77700	0.22874
2406.84844	0.22988
2404.91987	0.23110
2402.99131	0.23224
2401.06274	0.23333
2399.13418	0.23453
2397.20562	0.23576
2395.27705	0.23695
2393.34849	0.23825
2391.41992	0.23961
2389.49136	0.24082
2387.56279	0.24199
2385.63423	0.24337
2383.70566	0.24515
2381.77710	0.24724
2379.84854	0.24943
2377.91997	0.25171
2375.99141	0.25438
2374.06284	0.25749
2372.13428	0.26064
2370.20571	0.26386
2368.27715	0.26705
2366.34858	0.27026
2364.42002	0.27383
2362.49146	0.27705
2360.56289	0.27882
2358.63433	0.27929
2356.70576	0.27985
2354.77720	0.28041
2352.84863	0.28031
2350.92007	0.27943
2348.99150	0.27859
2347.06294	0.27918
2345.13437	0.28192
2343.20581	0.28558
2341.27725	0.28816
2339.34868	0.29018
2337.42012	0.29215
2335.49155	0.29356
2333.56299	0.29430
2331.63442	0.29511
2329.70586	0.29650
2327.77729	0.29799
2325.84873	0.29895
2323.92017	0.29973
2321.99160	0.30061
2320.06304	0.30135
2318.13447	0.30218
2316.20591	0.30329
2314.27734	0.30450
2312.34878	0.30574
2310.42021	0.30702
2308.49165	0.30821
2306.56309	0.30934
2304.63452	0.31057
2302.70596	0.31200
2300.77739	0.31360
2298.84883	0.31532
2296.92026	0.31710
2294.99170	0.31882
2293.06313	0.32051
2291.13457	0.32222
2289.20601	0.32395
2287.27744	0.32564
2285.34888	0.32731
2283.42031	0.32908
2281.49175	0.33104
2279.56318	0.33314
2277.63462	0.33521
2275.70605	0.33726
2273.77749	0.33932
2271.84893	0.34122
2269.92036	0.34307
2267.99180	0.34511
2266.06323	0.34727
2264.13467	0.34942
2262.20610	0.35159
2260.27754	0.35377
2258.34897	0.35598
2256.42041	0.35813
2254.49185	0.36007
2252.56328	0.36197
2250.63472	0.36415
2248.70615	0.36645
2246.77759	0.36859
2244.84902	0.37074
2242.92046	0.37293
2240.99189	0.37499
2239.06333	0.37713
2237.13477	0.37937
2235.20620	0.38156
2233.27764	0.38369
2231.34907	0.38584
2229.42051	0.38809
2227.49194	0.39038
2225.56338	0.39257
2223.63481	0.39475
2221.70625	0.39706
2219.77769	0.39937
2217.84912	0.40155
2215.92056	0.40363
2213.99199	0.40564
2212.06343	0.40762
2210.13486	0.40968
2208.20630	0.41192
2206.27773	0.41427
2204.34917	0.41653
2202.42061	0.41846
2200.49204	0.42015
2198.56348	0.42203
2196.63491	0.42420
2194.70635	0.42639
2192.77778	0.42844
2190.84922	0.43032
2188.92065	0.43199
2186.99209	0.43364
2185.06353	0.43545
2183.13496	0.43723
2181.20640	0.43880
2179.27783	0.44034
2177.34927	0.44185
2175.42070	0.44329
2173.49214	0.44477
2171.56357	0.44632
2169.63501	0.44779
2167.70645	0.44910
2165.77788	0.45031
2163.84932	0.45139
2161.92075	0.45239
2159.99219	0.45344
2158.06362	0.45445
2156.13506	0.45540
2154.20649	0.45629
2152.27793	0.45708
2150.34937	0.45766
2148.42080	0.45809
2146.49224	0.45856
2144.56367	0.45909
2142.63511	0.45962
2140.70654	0.46013
2138.77798	0.46038
2136.84941	0.46031
2134.92085	0.46024
2132.99229	0.46030
2131.06372	0.46036
2129.13516	0.46030
2127.20659	0.46001
2125.27803	0.45947
2123.34946	0.45883
2121.42090	0.45825
2119.49233	0.45767
2117.56377	0.45708
2115.63521	0.45647
2113.70664	0.45559
2111.77808	0.45447
2109.84951	0.45338
2107.92095	0.45241
2105.99238	0.45131
2104.06382	0.44997
2102.13525	0.44855
2100.20669	0.44714
2098.27812	0.44569
2096.34956	0.44420
2094.42100	0.44266
2092.49243	0.44105
2090.56387	0.43942
2088.63530	0.43777
2086.70674	0.43600
2084.77817	0.43404
2082.84961	0.43197
2080.92104	0.42979
2078.99248	0.42755
2077.06392	0.42540
2075.13535	0.42340
2073.20679	0.42129
2071.27822	0.41900
2069.34966	0.41669
2067.42109	0.41435
2065.49253	0.41198
2063.56396	0.40959
2061.63540	0.40712
2059.70684	0.40458
2057.77827	0.40203
2055.84971	0.39945
2053.92114	0.39681
2051.99258	0.39418
2050.06401	0.39155
2048.13545	0.38899
2046.20688	0.38645
2044.27832	0.38374
2042.34976	0.38085
2040.42119	0.37800
2038.49263	0.37526
2036.56406	0.37258
2034.63550	0.36993
2032.70693	0.36717
2030.77837	0.36422
2028.84980	0.36133
2026.92124	0.35873
2024.99268	0.35620
2023.06411	0.35339
2021.13555	0.35037
2019.20698	0.34746
2017.27842	0.34479
2015.34985	0.34223
2013.42129	0.33956
2011.49272	0.33670
2009.56416	0.33383
2007.63560	0.33111
2005.70703	0.32851
2003.77847	0.32600
2001.84990	0.32349
1999.92134	0.32085
1997.99277	0.31809
1996.06421	0.31539
1994.13564	0.31293
1992.20708	0.31062
1990.27852	0.30822
1988.34995	0.30570
1986.42139	0.30314
1984.49282	0.30063
1982.56426	0.29830
1980.63569	0.29605
1978.70713	0.29371
1976.77856	0.29133
1974.85000	0.28917
1972.92144	0.28714
1970.99287	0.28509
1969.06431	0.28312
1967.13574	0.28125
1965.20718	0.27922
1963.27861	0.27713
1961.35005	0.27521
1959.42148	0.27337
1957.49292	0.27158
1955.56436	0.26985
1953.63579	0.26804
1951.70723	0.26627
1949.77866	0.26471
1947.85010	0.26322
1945.92153	0.26173
1943.99297	0.26037
1942.06440	0.25905
1940.13584	0.25746
1938.20728	0.25577
1936.27871	0.25434
1934.35015	0.25320
1932.42158	0.25215
1930.49302	0.25100
1928.56445	0.24984
1926.63589	0.24871
1924.70732	0.24771
1922.77876	0.24688
1920.85020	0.24604
1918.92163	0.24514
1916.99307	0.24419
1915.06450	0.24319
1913.13594	0.24224
1911.20737	0.24152
1909.27881	0.24096
1907.35024	0.24041
1905.42168	0.23982
1903.49312	0.23926
1901.56455	0.23870
1899.63599	0.23804
1897.70742	0.23746
1895.77886	0.23710
1893.85029	0.23677
1891.92173	0.23646
1889.99316	0.23646
1888.06460	0.23639
1886.13604	0.23601
1884.20747	0.23567
1882.27891	0.23549
1880.35034	0.23535
1878.42178	0.23514
1876.49321	0.23504
1874.56465	0.23514
1872.63608	0.23544
1870.70752	0.23595
1868.77896	0.23670
1866.85039	0.23696
1864.92183	0.23661
1862.99326	0.23644
1861.06470	0.23665
1859.13613	0.23697
1857.20757	0.23724
1855.27900	0.23763
1853.35044	0.23809
1851.42187	0.23860
1849.49331	0.23920
1847.56475	0.23999
1845.63618	0.24113
1843.70762	0.24246
1841.77905	0.24318
1839.85049	0.24336
1837.92192	0.24400
1835.99336	0.24499
1834.06479	0.24599
1832.13623	0.24711
1830.20767	0.24865
1828.27910	0.25012
1826.35054	0.25110
1824.42197	0.25231
1822.49341	0.25347
1820.56484	0.25450
1818.63628	0.25575
1816.70771	0.25739
1814.77915	0.25908
1812.85059	0.26095
1810.92202	0.26309
1808.99346	0.26511
1807.06489	0.26696
1805.13633	0.26890
1803.20776	0.27124
1801.27920	0.27388
1799.35063	0.27665
1797.42207	0.27901
1795.49351	0.28134
1793.56494	0.28432
1791.63638	0.28804
1789.70781	0.29131
1787.77925	0.29372
1785.85068	0.29671
1783.92212	0.30033
1781.99355	0.30434
1780.06499	0.30864
1778.13643	0.31299
1776.20786	0.31707
1774.27930	0.32157
1772.35073	0.32761
1770.42217	0.33390
1768.49360	0.33904
1766.56504	0.34397
1764.63647	0.34905
1762.70791	0.35483
1760.77935	0.36232
1758.85078	0.36938
1756.92222	0.37643
1754.99365	0.38411
1753.06509	0.39126
1751.13652	0.39982
1749.20796	0.41034
1747.27939	0.42056
1745.35083	0.42960
1743.42227	0.43924
1741.49370	0.44988
1739.56514	0.46240
1737.63657	0.47493
1735.70801	0.48603
1733.77944	0.50268
1731.85088	0.52223
1729.92231	0.53753
1727.99375	0.55303
1726.06519	0.56966
1724.13662	0.58773
1722.20806	0.60723
1720.27949	0.62552
1718.35093	0.64755
1716.42236	0.67991
1714.49380	0.70993
1712.56523	0.73412
1710.63667	0.75809
1708.70811	0.78435
1706.77954	0.81421
1704.85098	0.84962
1702.92241	0.88112
1700.99385	0.91269
1699.06528	0.96031
1697.13672	1.00438
1695.20815	1.04968
1693.27959	1.09405
1691.35103	1.13026
1689.42246	1.17235
1687.49390	1.21695
1685.56533	1.25995
1683.63677	1.32638
1681.70820	1.39659
1679.77964	1.44227
1677.85107	1.48523
1675.92251	1.53451
1673.99395	1.59573
1672.06538	1.65063
1670.13682	1.70493
1668.20825	1.77579
1666.27969	1.83426
1664.35112	1.88480
1662.42256	1.94921
1660.49399	2.02263
1658.56543	2.08047
1656.63687	2.12688
1654.70830	2.16775
1652.77974	2.22738
1650.85117	2.28329
1648.92261	2.30236
1646.99404	2.32305
1645.06548	2.34500
1643.13691	2.36135
1641.20835	2.37025
1639.27979	2.37854
1637.35122	2.38511
1635.42266	2.38383
1633.49409	2.37025
1631.56553	2.35178
1629.63696	2.33132
1627.70840	2.29904
1625.77983	2.26218
1623.85127	2.21664
1621.92271	2.16036
1619.99414	2.11083
1618.06558	2.06424
1616.13701	1.99818
1614.20845	1.93034
1612.27988	1.87840
1610.35132	1.82424
1608.42275	1.76628
1606.49419	1.71062
1604.56562	1.66011
1602.63706	1.61147
1600.70850	1.56394
1598.77993	1.51998
1596.85137	1.47862
1594.92280	1.43877
1592.99424	1.40086
1591.06567	1.36662
1589.13711	1.33462
1587.20854	1.30458
1585.27998	1.27704
1583.35142	1.25215
1581.42285	1.22999
1579.49429	1.21125
1577.56572	1.19487
1575.63716	1.17596
1573.70859	1.16015
1571.78003	1.15067
1569.85146	1.14210
1567.92290	1.13311
1565.99434	1.12660
1564.06577	1.12290
1562.13721	1.12174
1560.20864	1.12430
1558.28008	1.13319
1556.35151	1.14019
1554.42295	1.14409
1552.49438	1.14851
1550.56582	1.15063
1548.63726	1.14932
1546.70869	1.14485
1544.78013	1.13664
1542.85156	1.12457
1540.92300	1.10549
1538.99443	1.07276
1537.06587	1.04771
1535.13730	1.03096
1533.20874	1.00876
1531.28018	0.98470
1529.35161	0.96722
1527.42305	0.95108
1525.49448	0.93439
1523.56592	0.92006
1521.63735	0.90663
1519.70879	0.89373
1517.78022	0.88304
1515.85166	0.87001
1513.92310	0.85577
1511.99453	0.84328
1510.06597	0.83199
1508.13740	0.82098
1506.20884	0.80401
1504.28027	0.78888
1502.35171	0.78024
1500.42314	0.77304
1498.49458	0.76603
1496.56602	0.75789
1494.63745	0.74910
1492.70889	0.74223
1490.78032	0.73657
1488.85176	0.73032
1486.92319	0.72430
1484.99463	0.71959
1483.06606	0.71621
1481.13750	0.71374
1479.20894	0.71203
1477.28037	0.71145
1475.35181	0.71212
1473.42324	0.71364
1471.49468	0.71409
1469.56611	0.71244
1467.63755	0.71028
1465.70898	0.70855
1463.78042	0.70731
1461.85186	0.70666
1459.92329	0.70690
1457.99473	0.70804
1456.06616	0.70811
1454.13760	0.70551
1452.20903	0.70241
1450.28047	0.69946
1448.35190	0.69665
1446.42334	0.69348
1444.49478	0.69002
1442.56621	0.68666
1440.63765	0.68347
1438.70908	0.68048
1436.78052	0.67659
1434.85195	0.67167
1432.92339	0.66789
1430.99482	0.66569
1429.06626	0.66477
1427.13770	0.66479
1425.20913	0.66548
1423.28057	0.66653
1421.35200	0.66732
1419.42344	0.66808
1417.49487	0.66846
1415.56631	0.66771
1413.63774	0.66704
1411.70918	0.66729
1409.78062	0.66853
1407.85205	0.67048
1405.92349	0.67278
1403.99492	0.67483
1402.06636	0.67569
1400.13779	0.67529
1398.20923	0.67375
1396.28066	0.67116
1394.35210	0.66723
1392.42354	0.66225
1390.49497	0.65743
1388.56641	0.65270
1386.63784	0.64709
1384.70928	0.64084
1382.78071	0.63495
1380.85215	0.62951
1378.92358	0.62479
1376.99502	0.62125
1375.06646	0.61889
1373.13789	0.61725
1371.20933	0.61614
1369.28076	0.61535
1367.35220	0.61432
1365.42363	0.61293
1363.49507	0.61149
1361.56650	0.60983
1359.63794	0.60786
1357.70937	0.60606
1355.78081	0.60463
1353.85225	0.60357
1351.92368	0.60289
1349.99512	0.60231
1348.06655	0.60160
1346.13799	0.60076
1344.20942	0.59994
1342.28086	0.59926
1340.35229	0.59879
1338.42373	0.59822
1336.49517	0.59754
1334.56660	0.59709
1332.63804	0.59702
1330.70947	0.59730
1328.78091	0.59791
1326.85234	0.59885
1324.92378	0.59988
1322.99521	0.60082
1321.06665	0.60171
1319.13809	0.60254
1317.20952	0.60311
1315.28096	0.60331
1313.35239	0.60324
1311.42383	0.60297
1309.49526	0.60267
1307.56670	0.60235
1305.63813	0.60198
1303.70957	0.60155
1301.78101	0.60098
1299.85244	0.60017
1297.92388	0.59920
1295.99531	0.59805
1294.06675	0.59677
1292.13818	0.59533
1290.20962	0.59374
1288.28105	0.59222
1286.35249	0.59078
1284.42393	0.58933
1282.49536	0.58785
1280.56680	0.58639
1278.63823	0.58494
1276.70967	0.58345
1274.78110	0.58204
1272.85254	0.58103
1270.92397	0.58028
1268.99541	0.57950
1267.06685	0.57861
1265.13828	0.57761
1263.20972	0.57653
1261.28115	0.57539
1259.35259	0.57434
1257.42402	0.57353
1255.49546	0.57318
1253.56689	0.57333
1251.63833	0.57368
1249.70977	0.57389
1247.78120	0.57380
1245.85264	0.57349
1243.92407	0.57285
1241.99551	0.57165
1240.06694	0.56998
1238.13838	0.56800
1236.20981	0.56561
1234.28125	0.56289
1232.35269	0.56021
1230.42412	0.55780
1228.49556	0.55558
1226.56699	0.55338
1224.63843	0.55124
1222.70986	0.54919
1220.78130	0.54736
1218.85273	0.54587
1216.92417	0.54456
1214.99561	0.54333
1213.06704	0.54221
1211.13848	0.54122
1209.20991	0.54043
1207.28135	0.53984
1205.35278	0.53912
1203.42422	0.53808
1201.49565	0.53690
1199.56709	0.53583
1197.63853	0.53495
1195.70996	0.53425
1193.78140	0.53371
1191.85283	0.53322
1189.92427	0.53291
1187.99570	0.53279
1186.06714	0.53268
1184.13857	0.53274
1182.21001	0.53318
1180.28145	0.53399
1178.35288	0.53535
1176.42432	0.53708
1174.49575	0.53860
1172.56719	0.53962
1170.63862	0.54001
1168.71006	0.53989
1166.78149	0.53969
1164.85293	0.53951
1162.92437	0.53920
1160.99580	0.53878
1159.06724	0.53826
1157.13867	0.53764
1155.21011	0.53695
1153.28154	0.53593
1151.35298	0.53424
1149.42441	0.53199
1147.49585	0.52955
1145.56729	0.52704
1143.63872	0.52426
1141.71016	0.52149
1139.78159	0.51946
1137.85303	0.51825
1135.92446	0.51739
1133.99590	0.51679
1132.06733	0.51656
1130.13877	0.51649
1128.21021	0.51611
1126.28164	0.51514
1124.35308	0.51394
1122.42451	0.51313
1120.49595	0.51303
1118.56738	0.51342
1116.63882	0.51394
1114.71025	0.51429
1112.78169	0.51449
1110.85312	0.51484
1108.92456	0.51560
1106.99600	0.51669
1105.06743	0.51773
1103.13887	0.51845
1101.21030	0.51932
1099.28174	0.52103
1097.35317	0.52345
1095.42461	0.52625
1093.49604	0.52971
1091.56748	0.53425
1089.63892	0.53993
1087.71035	0.54655
1085.78179	0.55384
1083.85322	0.56133
1081.92466	0.56826
1079.99609	0.57341
1078.06753	0.57599
1076.13896	0.57580
1074.21040	0.57287
1072.28184	0.56785
1070.35327	0.56159
1068.42471	0.55459
1066.49614	0.54729
1064.56758	0.54048
1062.63901	0.53480
1060.71045	0.52989
1058.78188	0.52531
1056.85332	0.52110
1054.92476	0.51742
1052.99619	0.51446
1051.06763	0.51211
1049.13906	0.51002
1047.21050	0.50824
1045.28193	0.50703
1043.35337	0.50614
1041.42480	0.50537
1039.49624	0.50460
1037.56768	0.50378
1035.63911	0.50301
1033.71055	0.50232
1031.78198	0.50156
1029.85342	0.50055
1027.92485	0.49947
1025.99629	0.49865
1024.06772	0.49787
1022.13916	0.49708
1020.21060	0.49686
1018.28203	0.49720
1016.35347	0.49755
1014.42490	0.49763
1012.49634	0.49761
1010.56777	0.49781
1008.63921	0.49835
1006.71064	0.49933
1004.78208	0.50088
1002.85352	0.50291
1000.92495	0.50555
998.99639	0.50896
997.06782	0.51302
995.13926	0.51737
993.21069	0.52150
991.28213	0.52493
989.35356	0.52724
987.42500	0.52832
985.49644	0.52850
983.56787	0.52854
981.63931	0.52898
979.71074	0.52974
977.78218	0.53101
975.85361	0.53306
973.92505	0.53579
971.99648	0.53900
970.06792	0.54248
968.13936	0.54603
966.21079	0.54978
964.28223	0.55402
962.35366	0.55879
960.42510	0.56402
958.49653	0.56969
956.56797	0.57539
954.63940	0.58099
952.71084	0.58712
950.78228	0.59378
948.85371	0.60031
946.92515	0.60657
944.99658	0.61271
943.06802	0.61892
941.13945	0.62527
939.21089	0.63174
937.28232	0.63828
935.35376	0.64437
933.42520	0.64982
931.49663	0.65519
929.56807	0.66100
927.63950	0.66703
925.71094	0.67290
923.78237	0.67887
921.85381	0.68547
919.92524	0.69288
917.99668	0.70053
916.06812	0.70762
914.13955	0.71465
912.21099	0.72261
910.28242	0.73163
908.35386	0.74119
906.42529	0.75056
904.49673	0.75968
902.56816	0.76882
900.63960	0.77797
898.71104	0.78727
896.78247	0.79584
894.85391	0.80346
892.92534	0.81298
890.99678	0.82576
889.06821	0.83864
887.13965	0.84939
885.21108	0.86019
883.28252	0.87196
881.35396	0.88282
879.42539	0.89271
877.49683	0.90338
875.56826	0.91566
873.63970	0.92798
871.71113	0.93880
869.78257	0.94952
867.85400	0.96107
865.92544	0.97258
863.99687	0.98357
862.06831	0.99474
860.13975	1.00758
858.21118	1.02245
856.28262	1.03654
854.35405	1.04714
852.42549	1.05699
850.49692	1.06969
848.56836	1.08330
846.63979	1.09456
844.71123	1.10378
842.78267	1.11349
840.85410	1.12677
838.92554	1.14383
836.99697	1.15942
835.06841	1.16785
833.13984	1.17224
831.21128	1.18122
829.28271	1.19666
827.35415	1.21332
825.42559	1.22598
823.49702	1.23211
821.56846	1.23537
819.63989	1.24472
817.71133	1.26097
815.78276	1.27378
813.85420	1.27768
811.92563	1.28469
809.99707	1.30580
808.06851	1.33203
806.13994	1.35313
804.21138	1.36849
802.28281	1.37519
800.35425	1.37178
798.42568	1.37848
796.49712	1.41063
794.56855	1.44532
792.63999	1.45598
790.71143	1.44162
788.78286	1.42830
786.85430	1.45560
784.92573	1.52708
782.99717	1.58341
781.06860	1.60503
779.14004	1.61397
777.21147	1.57833
775.28291	1.52030
773.35435	1.51807
771.42578	1.63842
769.49722	1.79154
767.56865	1.75083
765.64009	1.69284
763.71152	1.65013
761.78296	1.60681
759.85439	1.64966
757.92583	1.66186
755.99727	1.55164
754.06870	1.46525
752.14014	1.37103
750.21157	1.31973
748.28301	1.34123
746.35444	1.35788
744.42588	1.37763
742.49731	1.47798
740.56875	1.40884
738.64019	1.16004
736.71162	1.03400
734.78306	1.01952
732.85449	1.15590
730.92593	1.30649
728.99736	0.89854
727.06880	0.69101
725.14023	0.71954
723.21167	0.86499
721.28311	1.35475
719.35454	4.31613
717.42598	4.30456
715.49741	4.29298
713.56885	1.12688
711.64028	0.55474
709.71172	0.40840
707.78315	0.39775
705.85459	0.39546
703.92603	0.35754
701.99746	0.29843
700.06890	0.22936
698.14033	0.12752
696.21177	0.09259
694.28320	0.23015
692.35464	0.77881
690.42607	4.14256
688.49751	4.13099
686.56895	1.18078
684.64038	0.43743
682.71182	0.29954
680.78325	0.25678
678.85469	0.33601
676.92612	0.61230
674.99756	4.04999
673.06899	4.03841
671.14043	0.60744
669.21187	0.66431
667.28330	4.00370
665.35474	3.99213
663.42617	0.32676
661.49761	0.17483
659.56904	0.13083
657.64048	0.11240
655.71191	0.18134
653.78335	0.33025
651.85479	0.58866
649.92622	3.89956
647.99766	3.88799
646.06909	3.87641
644.14053	0.73728
642.21196	0.52757
640.28340	0.50813
638.35483	0.45723
636.42627	0.38450
634.49771	0.41554
632.56914	1.19714
630.64058	3.78384
628.71201	0.66340
626.78345	0.30846
624.85488	0.23775
622.92632	0.27770
620.99775	0.38774
619.06919	0.53860
617.14062	0.51522
615.21206	0.36635
613.28350	0.28102
611.35493	0.26889
609.42637	0.29804
607.49780	0.25128
605.56924	0.16864
603.64067	0.15257
601.71211	0.21292
599.78354	0.24847
597.85498	0.18520
595.92642	0.16745
593.99785	0.25246
592.06929	0.33488
590.14072	0.35963
588.21216	0.32841
586.28359	0.23286
584.35503	0.19590
582.42646	0.35097
580.49790	0.70419
578.56934	0.60483
576.64077	0.44041
574.71221	0.57889
572.78364	1.14727
570.85508	0.87290
568.92651	0.40833
566.99795	0.19938
565.06938	0.14702
563.14082	0.19271
561.21226	0.22862
559.28369	0.21136
557.35513	0.21523
555.42656	0.24069
553.49800	0.23067
551.56943	0.23311
549.64087	0.27644
547.71230	0.30143
545.78374	0.28050
543.85518	0.30447
541.92661	0.42370
539.99805	0.65177
538.06948	1.00399
536.14092	0.62403
534.21235	0.42492
532.28379	0.35871
530.35522	0.28784
528.42666	0.28157
526.49810	0.40686
524.56953	0.55202
522.64097	0.36806
520.71240	0.28457
518.78384	0.33256
516.85527	0.37087
514.92671	0.33507
512.99814	0.21979
511.06958	0.09907
509.14102	0.06574
507.21245	0.11378
505.28389	0.21929
503.35532	0.30143
501.42676	0.31584
499.49819	0.31844
