3997.91411	0.06643
3995.98555	0.06753
3994.05698	0.06845
3992.12842	0.06850
3990.19985	0.06815
3988.27129	0.06783
3986.34272	0.06761
3984.41416	0.06795
3982.48560	0.06873
3980.55703	0.06941
3978.62847	0.06979
3976.69990	0.06969
3974.77134	0.06955
3972.84277	0.06997
3970.91421	0.07055
3968.98564	0.07060
3967.05708	0.07022
3965.12852	0.07005
3963.19995	0.07031
3961.27139	0.07044
3959.34282	0.07001
3957.41426	0.06947
3955.48569	0.06952
3953.55713	0.07021
3951.62856	0.07093
3949.70000	0.07107
3947.77144	0.07080
3945.84287	0.07072
3943.91431	0.07076
3941.98574	0.07079
3940.05718	0.07084
3938.12861	0.07097
3936.20005	0.07116
3934.27148	0.07106
3932.34292	0.07061
3930.41436	0.07049
3928.48579	0.07080
3926.55723	0.07093
3924.62866	0.07064
3922.70010	0.07013
3920.77153	0.06975
3918.84297	0.06971
3916.91440	0.07013
3914.98584	0.07039
3913.05728	0.06990
3911.12871	0.06949
3909.20015	0.06954
3907.27158	0.06944
3905.34302	0.06923
3903.41445	0.06930
3901.48589	0.06927
3899.55732	0.06908
3897.62876	0.06914
3895.70020	0.06916
3893.77163	0.06912
3891.84307	0.06951
3889.91450	0.07026
3887.98594	0.07044
3886.05737	0.07009
3884.12881	0.06976
3882.20024	0.06986
3880.27168	0.07055
3878.34312	0.07109
3876.41455	0.07094
3874.48599	0.07078
3872.55742	0.07082
3870.62886	0.07062
3868.70029	0.07063
3866.77173	0.07128
3864.84316	0.07196
3862.91460	0.07253
3860.98604	0.07298
3859.05747	0.07305
3857.12891	0.07280
3855.20034	0.07259
3853.27178	0.07307
3851.34321	0.07436
3849.41465	0.07495
3847.48608	0.07526
3845.55752	0.07583
3843.62896	0.07652
3841.70039	0.07714
3839.77183	0.07754
3837.84326	0.07798
3835.91470	0.07884
3833.98613	0.07972
3832.05757	0.08029
3830.12900	0.08083
3828.20044	0.08139
3826.27187	0.08193
3824.34331	0.08250
3822.41475	0.08312
3820.48618	0.08442
3818.55762	0.08546
3816.62905	0.08539
3814.70049	0.08591
3812.77192	0.08734
3810.84336	0.08872
3808.91479	0.08981
3806.98623	0.09081
3805.05767	0.09219
3803.12910	0.09347
3801.20054	0.09470
3799.27197	0.09612
3797.34341	0.09697
3795.41484	0.09764
3793.48628	0.09851
3791.55771	0.09964
3789.62915	0.10103
3787.70059	0.10226
3785.77202	0.10353
3783.84346	0.10508
3781.91489	0.10640
3779.98633	0.10777
3778.05776	0.10945
3776.12920	0.11071
3774.20063	0.11178
3772.27207	0.11323
3770.34351	0.11535
3768.41494	0.11793
3766.48638	0.11990
3764.55781	0.12153
3762.62925	0.12321
3760.70068	0.12483
3758.77212	0.12687
3756.84355	0.12920
3754.91499	0.13093
3752.98643	0.13252
3751.05786	0.13508
3749.12930	0.13852
3747.20073	0.14121
3745.27217	0.14388
3743.34360	0.14845
3741.41504	0.15280
3739.48647	0.15538
3737.55791	0.15793
3735.62935	0.16172
3733.70078	0.16728
3731.77222	0.17296
3729.84365	0.17751
3727.91509	0.18175
3725.98652	0.18703
3724.05796	0.19329
3722.12939	0.19975
3720.20083	0.20663
3718.27227	0.21388
3716.34370	0.22144
3714.41514	0.22889
3712.48657	0.23698
3710.55801	0.24871
3708.62944	0.26322
3706.70088	0.27595
3704.77231	0.28733
3702.84375	0.29974
3700.91519	0.31562
3698.98662	0.33342
3697.05806	0.35058
3695.12949	0.36883
3693.20093	0.38800
3691.27236	0.40818
3689.34380	0.43428
3687.41523	0.46777
3685.48667	0.49830
3683.55811	0.52458
3681.62954	0.55242
3679.70098	0.58348
3677.77241	0.61542
3675.84385	0.65227
3673.91528	0.70258
3671.98672	0.74533
3670.05815	0.78344
3668.12959	0.83564
3666.20103	0.88456
3664.27246	0.92537
3662.34390	0.96790
3660.41533	1.01324
3658.48677	1.05783
3656.55820	1.10517
3654.62964	1.15803
3652.70107	1.20277
3650.77251	1.24137
3648.84395	1.29380
3646.91538	1.35903
3644.98682	1.40974
3643.05825	1.44987
3641.12969	1.48972
3639.20112	1.53284
3637.27256	1.57651
3635.34399	1.61862
3633.41543	1.65992
3631.48687	1.69867
3629.55830	1.73797
3627.62974	1.78902
3625.70117	1.83780
3623.77261	1.87150
3621.84404	1.90387
3619.91548	1.94123
3617.98691	1.98518
3616.05835	2.02742
3614.12979	2.06364
3612.20122	2.10099
3610.27266	2.13851
3608.34409	2.17778
3606.41553	2.22080
3604.48696	2.26036
3602.55840	2.29459
3600.62983	2.33125
3598.70127	2.37121
3596.77271	2.41009
3594.84414	2.45004
3592.91558	2.49168
3590.98701	2.53066
3589.05845	2.56690
3587.12988	2.60922
3585.20132	2.65611
3583.27275	2.69678
3581.34419	2.73435
3579.41562	2.77532
3577.48706	2.81893
3575.55850	2.86139
3573.62993	2.90361
3571.70137	2.94561
3569.77280	2.98584
3567.84424	3.02602
3565.91567	3.07427
3563.98711	3.12452
3562.05854	3.16722
3560.12998	3.20875
3558.20142	3.25309
3556.27285	3.29921
3554.34429	3.34419
3552.41572	3.38876
3550.48716	3.43278
3548.55859	3.47591
3546.63003	3.52137
3544.70146	3.57160
3542.77290	3.62270
3540.84434	3.67059
3538.91577	3.71619
3536.98721	3.75988
3535.05864	3.80477
3533.13008	3.85194
3531.20151	3.89883
3529.27295	3.94650
3527.34438	3.99647
3525.41582	4.04365
3523.48726	4.08814
3521.55869	4.13638
3519.63013	4.18644
3517.70156	4.23601
3515.77300	4.28545
3513.84443	4.33258
3511.91587	4.37903
3509.98730	4.42875
3508.05874	4.47591
3506.13018	4.51589
3504.20161	4.55638
3502.27305	4.60535
3500.34448	4.66114
3498.41592	4.71451
3496.48735	4.76148
3494.55879	4.80489
3492.63022	4.84926
3490.70166	4.89898
3488.77310	4.95168
3486.84453	5.00029
3484.91597	5.04767
3482.98740	5.09546
3481.05884	5.14139
3479.13027	5.18793
3477.20171	5.23366
3475.27314	5.27858
3473.34458	5.32625
3471.41602	5.37645
3469.48745	5.42774
3467.55889	5.47754
3465.63032	5.52195
3463.70176	5.56381
3461.77319	5.60693
3459.84463	5.65262
3457.91606	5.70460
3455.98750	5.76524
3454.05894	5.82602
3452.13037	5.88001
3450.20181	5.93079
3448.27324	5.97432
3446.34468	6.00766
3444.41611	6.04460
3442.48755	6.10479
3440.55898	6.18439
3438.63042	6.26103
3436.70186	6.31336
3434.77329	6.34476
3432.84473	6.37412
3430.91616	6.39792
3428.98760	6.42764
3427.05903	6.48994
3425.13047	6.57049
3423.20190	6.62707
3421.27334	6.65769
3419.34478	6.67859
3417.41621	6.70347
3415.48765	6.74532
3413.55908	6.79752
3411.63052	6.86224
3409.70195	6.93762
3407.77339	7.01038
3405.84482	7.05647
3403.91626	7.08247
3401.98770	7.12291
3400.05913	7.16462
3398.13057	7.17912
3396.20200	7.19877
3394.27344	7.24074
3392.34487	7.25676
3390.41631	7.27302
3388.48774	7.34747
3386.55918	7.45268
3384.63062	7.52050
3382.70205	7.53720
3380.77349	7.51613
3378.84492	7.49889
3376.91636	7.53986
3374.98779	7.59719
3373.05923	7.62762
3371.13066	7.64469
3369.20210	7.66193
3367.27354	7.67141
3365.34497	7.69024
3363.41641	7.73172
3361.48784	7.77597
3359.55928	7.82857
3357.63071	7.86776
3355.70215	7.86099
3353.77358	7.84932
3351.84502	7.87627
3349.91646	7.89553
3347.98789	7.91254
3346.05933	7.91055
3344.13076	7.86133
3342.20220	7.88918
3340.27363	8.00460
3338.34507	8.02728
3336.41650	7.91783
3334.48794	7.87254
3332.55937	7.94682
3330.63081	8.03125
3328.70225	8.05207
3326.77368	8.03778
3324.84512	8.03954
3322.91655	8.05861
3320.98799	8.10639
3319.05942	8.11949
3317.13086	8.08732
3315.20229	8.10224
3313.27373	8.13664
3311.34517	8.13006
3309.41660	8.10989
3307.48804	8.08959
3305.55947	8.07668
3303.63091	8.07455
3301.70234	8.03561
3299.77378	7.99098
3297.84521	7.97901
3295.91665	7.98050
3293.98809	7.97602
3292.05952	7.96069
3290.13096	7.97069
3288.20239	8.03424
3286.27383	8.11778
3284.34526	8.16338
3282.41670	8.19011
3280.48813	8.20414
3278.55957	8.19333
3276.63101	8.24148
3274.70244	8.34644
3272.77388	8.32716
3270.84531	8.17579
3268.91675	8.07687
3266.98818	8.06920
3265.05962	8.06690
3263.13105	8.04563
3261.20249	8.06769
3259.27393	8.12075
3257.34536	8.14486
3255.41680	8.14453
3253.48823	8.15156
3251.55967	8.14423
3249.63110	8.10163
3247.70254	8.07002
3245.77397	8.08815
3243.84541	8.14557
3241.91685	8.15817
3239.98828	8.13366
3238.05972	8.17143
3236.13115	8.19383
3234.20259	8.09035
3232.27402	7.96592
3230.34546	7.91593
3228.41689	7.93489
3226.48833	7.99732
3224.55977	8.04461
3222.63120	8.05053
3220.70264	8.04275
3218.77407	8.05708
3216.84551	8.07689
3214.91694	8.08187
3212.98838	8.09278
3211.05981	8.03527
3209.13125	7.91423
3207.20269	7.85693
3205.27412	7.86228
3203.34556	7.83428
3201.41699	7.77270
3199.48843	7.71507
3197.55986	7.63139
3195.63130	7.55267
3193.70273	7.53304
3191.77417	7.52563
3189.84561	7.48458
3187.91704	7.45558
3185.98848	7.46382
3184.05991	7.45897
3182.13135	7.40164
3180.20278	7.30307
3178.27422	7.20218
3176.34565	7.14094
3174.41709	7.12257
3172.48853	7.09888
3170.55996	7.04439
3168.63140	6.98447
3166.70283	6.91833
3164.77427	6.83595
3162.84570	6.75836
3160.91714	6.71085
3158.98857	6.68876
3157.06001	6.65017
3155.13145	6.58246
3153.20288	6.51498
3151.27432	6.45904
3149.34575	6.39470
3147.41719	6.31186
3145.48862	6.23073
3143.56006	6.15054
3141.63149	6.06439
3139.70293	5.99925
3137.77437	5.95550
3135.84580	5.90001
3133.91724	5.82473
3131.98867	5.74578
3130.06011	5.68010
3128.13154	5.61915
3126.20298	5.54649
3124.27441	5.46976
3122.34585	5.39738
3120.41729	5.32716
3118.48872	5.25656
3116.56016	5.18627
3114.63159	5.11548
3112.70303	5.04815
3110.77446	4.98561
3108.84590	4.91764
3106.91733	4.84398
3104.98877	4.77094
3103.06021	4.69748
3101.13164	4.62260
3099.20308	4.55201
3097.27451	4.48813
3095.34595	4.42322
3093.41738	4.35296
3091.48882	4.28374
3089.56025	4.22117
3087.63169	4.16010
3085.70312	4.09460
3083.77456	4.02714
3081.84600	3.96051
3079.91743	3.89476
3077.98887	3.83192
3076.06030	3.77271
3074.13174	3.71553
3072.20317	3.65906
3070.27461	3.60120
3068.34604	3.54185
3066.41748	3.48279
3064.48892	3.42348
3062.56035	3.36376
3060.63179	3.30586
3058.70322	3.24970
3056.77466	3.19422
3054.84609	3.14034
3052.91753	3.08831
3050.98896	3.03672
3049.06040	2.98416
3047.13184	2.93124
3045.20327	2.87964
3043.27471	2.83007
3041.34614	2.78189
3039.41758	2.73418
3037.48901	2.68674
3035.56045	2.63991
3033.63188	2.59401
3031.70332	2.54819
3029.77476	2.50230
3027.84619	2.45757
3025.91763	2.41403
3023.98906	2.37129
3022.06050	2.32955
3020.13193	2.28889
3018.20337	2.24897
3016.27480	2.20908
3014.34624	2.16935
3012.41768	2.13009
3010.48911	2.09099
3008.56055	2.05255
3006.63198	2.01546
3004.70342	1.97917
3002.77485	1.94289
3000.84629	1.90719
2998.91772	1.87299
2996.98916	1.83992
2995.06060	1.80716
2993.13203	1.77420
2991.20347	1.74065
2989.27490	1.70717
2987.34634	1.67500
2985.41777	1.64475
2983.48921	1.61568
2981.56064	1.58579
2979.63208	1.55510
2977.70352	1.52572
2975.77495	1.49765
2973.84639	1.46969
2971.91782	1.44189
2969.98926	1.41443
2968.06069	1.38740
2966.13213	1.36112
2964.20356	1.33539
2962.27500	1.30999
2960.34644	1.28533
2958.41787	1.26200
2956.48931	1.23970
2954.56074	1.21749
2952.63218	1.19497
2950.70361	1.17246
2948.77505	1.14998
2946.84648	1.12748
2944.91792	1.10569
2942.98936	1.08493
2941.06079	1.06499
2939.13223	1.04546
2937.20366	1.02541
2935.27510	1.00502
2933.34653	0.98568
2931.41797	0.96773
2929.48940	0.95069
2927.56084	0.93410
2925.63228	0.91699
2923.70371	0.89948
2921.77515	0.88279
2919.84658	0.86704
2917.91802	0.85146
2915.98945	0.83555
2914.06089	0.81962
2912.13232	0.80438
2910.20376	0.78984
2908.27520	0.77558
2906.34663	0.76177
2904.41807	0.74845
2902.48950	0.73526
2900.56094	0.72182
2898.63237	0.70817
2896.70381	0.69513
2894.77524	0.68310
2892.84668	0.67153
2890.91812	0.65992
2888.98955	0.64825
2887.06099	0.63676
2885.13242	0.62563
2883.20386	0.61475
2881.27529	0.60384
2879.34673	0.59304
2877.41816	0.58287
2875.48960	0.57330
2873.56104	0.56376
2871.63247	0.55415
2869.70391	0.54440
2867.77534	0.53433
2865.84678	0.52447
2863.91821	0.51519
2861.98965	0.50616
2860.06108	0.49720
2858.13252	0.48855
2856.20396	0.48028
2854.27539	0.47209
2852.34683	0.46398
2850.41826	0.45636
2848.48970	0.44910
2846.56113	0.44175
2844.63257	0.43463
2842.70400	0.42799
2840.77544	0.42158
2838.84687	0.41535
2836.91831	0.40930
2834.98975	0.40338
2833.06118	0.39765
2831.13262	0.39193
2829.20405	0.38609
2827.27549	0.38030
2825.34692	0.37475
2823.41836	0.36934
2821.48979	0.36386
2819.56123	0.35825
2817.63267	0.35264
2815.70410	0.34720
2813.77554	0.34201
2811.84697	0.33694
2809.91841	0.33192
2807.98984	0.32694
2806.06128	0.32194
2804.13271	0.31705
2802.20415	0.31243
2800.27559	0.30797
2798.34702	0.30355
2796.41846	0.29933
2794.48989	0.29537
2792.56133	0.29149
2790.63276	0.28742
2788.70420	0.28322
2786.77563	0.27915
2784.84707	0.27514
2782.91851	0.27114
2780.98994	0.26731
2779.06138	0.26378
2777.13281	0.26045
2775.20425	0.25716
2773.27568	0.25378
2771.34712	0.25030
2769.41855	0.24682
2767.48999	0.24358
2765.56143	0.24066
2763.63286	0.23788
2761.70430	0.23498
2759.77573	0.23199
2757.84717	0.22907
2755.91860	0.22634
2753.99004	0.22382
2752.06147	0.22119
2750.13291	0.21834
2748.20435	0.21573
2746.27578	0.21326
2744.34722	0.21060
2742.41865	0.20801
2740.49009	0.20572
2738.56152	0.20353
2736.63296	0.20140
2734.70439	0.19935
2732.77583	0.19723
2730.84727	0.19509
2728.91870	0.19307
2726.99014	0.19116
2725.06157	0.18934
2723.13301	0.18749
2721.20444	0.18566
2719.27588	0.18382
2717.34731	0.18194
2715.41875	0.18021
2713.49019	0.17870
2711.56162	0.17726
2709.63306	0.17568
2707.70449	0.17398
2705.77593	0.17234
2703.84736	0.17076
2701.91880	0.16924
2699.99023	0.16777
2698.06167	0.16631
2696.13311	0.16496
2694.20454	0.16387
2692.27598	0.16288
2690.34741	0.16187
2688.41885	0.16078
2686.49028	0.15947
2684.56172	0.15818
2682.63315	0.15720
2680.70459	0.15633
2678.77603	0.15532
2676.84746	0.15428
2674.91890	0.15338
2672.99033	0.15250
2671.06177	0.15162
2669.13320	0.15092
2667.20464	0.15030
2665.27607	0.14943
2663.34751	0.14836
2661.41895	0.14754
2659.49038	0.14708
2657.56182	0.14662
2655.63325	0.14589
2653.70469	0.14515
2651.77612	0.14461
2649.84756	0.14423
2647.91899	0.14386
2645.99043	0.14338
2644.06187	0.14285
2642.13330	0.14244
2640.20474	0.14210
2638.27617	0.14162
2636.34761	0.14113
2634.41904	0.14088
2632.49048	0.14079
2630.56191	0.14067
2628.63335	0.14050
2626.70479	0.14018
2624.77622	0.13978
2622.84766	0.13956
2620.91909	0.13951
2618.99053	0.13949
2617.06196	0.13951
2615.13340	0.13952
2613.20483	0.13947
2611.27627	0.13944
2609.34771	0.13943
2607.41914	0.13943
2605.49058	0.13950
2603.56201	0.13963
2601.63345	0.13970
2599.70488	0.13976
2597.77632	0.13998
2595.84775	0.14027
2593.91919	0.14045
2591.99062	0.14059
2590.06206	0.14069
2588.13350	0.14087
2586.20493	0.14139
2584.27637	0.14208
2582.34780	0.14244
2580.41924	0.14250
2578.49067	0.14255
2576.56211	0.14274
2574.63354	0.14322
2572.70498	0.14389
2570.77642	0.14441
2568.84785	0.14474
2566.91929	0.14511
2564.99072	0.14563
2563.06216	0.14623
2561.13359	0.14682
2559.20503	0.14736
2557.27646	0.14782
2555.34790	0.14833
2553.41934	0.14901
2551.49077	0.14975
2549.56221	0.15045
2547.63364	0.15124
2545.70508	0.15197
2543.77651	0.15247
2541.84795	0.15302
2539.91938	0.15371
2537.99082	0.15441
2536.06226	0.15512
2534.13369	0.15588
2532.20513	0.15670
2530.27656	0.15752
2528.34800	0.15833
2526.41943	0.15919
2524.49087	0.16004
2522.56230	0.16080
2520.63374	0.16152
2518.70518	0.16234
2516.77661	0.16329
2514.84805	0.16421
2512.91948	0.16500
2510.99092	0.16589
2509.06235	0.16690
2507.13379	0.16787
2505.20522	0.16876
2503.27666	0.16958
2501.34810	0.17034
2499.41953	0.17117
2497.49097	0.17213
2495.56240	0.17303
2493.63384	0.17392
2491.70527	0.17482
2489.77671	0.17568
2487.84814	0.17665
2485.91958	0.17772
2483.99102	0.17867
2482.06245	0.17950
2480.13389	0.18024
2478.20532	0.18100
2476.27676	0.18202
2474.34819	0.18325
2472.41963	0.18437
2470.49106	0.18534
2468.56250	0.18637
2466.63394	0.18750
2464.70537	0.18860
2462.77681	0.18952
2460.84824	0.19029
2458.91968	0.19112
2456.99111	0.19213
2455.06255	0.19324
2453.13398	0.19436
2451.20542	0.19544
2449.27686	0.19649
2447.34829	0.19767
2445.41973	0.19880
2443.49116	0.19982
2441.56260	0.20094
2439.63403	0.20201
2437.70547	0.20291
2435.77690	0.20392
2433.84834	0.20510
2431.91978	0.20629
2429.99121	0.20744
2428.06265	0.20851
2426.13408	0.20957
2424.20552	0.21067
2422.27695	0.21171
2420.34839	0.21281
2418.41982	0.21398
2416.49126	0.21500
2414.56270	0.21599
2412.63413	0.21713
2410.70557	0.21840
2408.77700	0.21971
2406.84844	0.22101
2404.91987	0.22238
2402.99131	0.22376
2401.06274	0.22495
2399.13418	0.22601
2397.20562	0.22709
2395.27705	0.22836
2393.34849	0.22985
2391.41992	0.23128
2389.49136	0.23248
2387.56279	0.23370
2385.63423	0.23520
2383.70566	0.23699
2381.77710	0.23903
2379.84854	0.24108
2377.91997	0.24303
2375.99141	0.24505
2374.06284	0.24743
2372.13428	0.25012
2370.20571	0.25283
2368.27715	0.25545
2366.34858	0.25812
2364.42002	0.26027
2362.49146	0.26137
2360.56289	0.26277
2358.63433	0.26555
2356.70576	0.26753
2354.77720	0.26764
2352.84863	0.26805
2350.92007	0.26901
2348.99150	0.26968
2347.06294	0.27051
2345.13437	0.27233
2343.20581	0.27499
2341.27725	0.27736
2339.34868	0.27931
2337.42012	0.28124
2335.49155	0.28269
2333.56299	0.28364
2331.63442	0.28514
2329.70586	0.28707
2327.77729	0.28867
2325.84873	0.29001
2323.92017	0.29135
2321.99160	0.29236
2320.06304	0.29301
2318.13447	0.29404
2316.20591	0.29549
2314.27734	0.29679
2312.34878	0.29807
2310.42021	0.29953
2308.49165	0.30091
2306.56309	0.30233
2304.63452	0.30389
2302.70596	0.30544
2300.77739	0.30703
2298.84883	0.30866
2296.92026	0.31027
2294.99170	0.31200
2293.06313	0.31383
2291.13457	0.31558
2289.20601	0.31724
2287.27744	0.31896
2285.34888	0.32081
2283.42031	0.32275
2281.49175	0.32478
2279.56318	0.32690
2277.63462	0.32902
2275.70605	0.33108
2273.77749	0.33309
2271.84893	0.33517
2269.92036	0.33733
2267.99180	0.33938
2266.06323	0.34140
2264.13467	0.34361
2262.20610	0.34591
2260.27754	0.34806
2258.34897	0.35017
2256.42041	0.35243
2254.49185	0.35459
2252.56328	0.35659
2250.63472	0.35871
2248.70615	0.36088
2246.77759	0.36308
2244.84902	0.36542
2242.92046	0.36767
2240.99189	0.36981
2239.06333	0.37201
2237.13477	0.37423
2235.20620	0.37647
2233.27764	0.37876
2231.34907	0.38102
2229.42051	0.38323
2227.49194	0.38542
2225.56338	0.38759
2223.63481	0.38971
2221.70625	0.39180
2219.77769	0.39394
2217.84912	0.39614
2215.92056	0.39842
2213.99199	0.40068
2212.06343	0.40287
2210.13486	0.40507
2208.20630	0.40721
2206.27773	0.40921
2204.34917	0.41120
2202.42061	0.41331
2200.49204	0.41548
2198.56348	0.41766
2196.63491	0.41974
2194.70635	0.42163
2192.77778	0.42336
2190.84922	0.42511
2188.92065	0.42697
2186.99209	0.42886
2185.06353	0.43072
2183.13496	0.43258
2181.20640	0.43437
2179.27783	0.43593
2177.34927	0.43743
2175.42070	0.43893
2173.49214	0.44040
2171.56357	0.44186
2169.63501	0.44331
2167.70645	0.44474
2165.77788	0.44615
2163.84932	0.44745
2161.92075	0.44853
2159.99219	0.44947
2158.06362	0.45047
2156.13506	0.45155
2154.20649	0.45243
2152.27793	0.45305
2150.34937	0.45356
2148.42080	0.45406
2146.49224	0.45458
2144.56367	0.45513
2142.63511	0.45563
2140.70654	0.45596
2138.77798	0.45615
2136.84941	0.45629
2134.92085	0.45638
2132.99229	0.45635
2131.06372	0.45623
2129.13516	0.45602
2127.20659	0.45572
2125.27803	0.45541
2123.34946	0.45498
2121.42090	0.45435
2119.49233	0.45362
2117.56377	0.45295
2115.63521	0.45227
2113.70664	0.45147
2111.77808	0.45059
2109.84951	0.44969
2107.92095	0.44870
2105.99238	0.44748
2104.06382	0.44611
2102.13525	0.44474
2100.20669	0.44338
2098.27812	0.44199
2096.34956	0.44049
2094.42100	0.43888
2092.49243	0.43715
2090.56387	0.43538
2088.63530	0.43358
2086.70674	0.43181
2084.77817	0.43005
2082.84961	0.42817
2080.92104	0.42611
2078.99248	0.42390
2077.06392	0.42165
2075.13535	0.41948
2073.20679	0.41735
2071.27822	0.41504
2069.34966	0.41260
2067.42109	0.41025
2065.49253	0.40796
2063.56396	0.40550
2061.63540	0.40294
2059.70684	0.40044
2057.77827	0.39794
2055.84971	0.39544
2053.92114	0.39297
2051.99258	0.39041
2050.06401	0.38780
2048.13545	0.38520
2046.20688	0.38248
2044.27832	0.37965
2042.34976	0.37685
2040.42119	0.37413
2038.49263	0.37137
2036.56406	0.36854
2034.63550	0.36578
2032.70693	0.36310
2030.77837	0.36043
2028.84980	0.35764
2026.92124	0.35470
2024.99268	0.35174
2023.06411	0.34891
2021.13555	0.34620
2019.20698	0.34356
2017.27842	0.34088
2015.34985	0.33812
2013.42129	0.33538
2011.49272	0.33267
2009.56416	0.32996
2007.63560	0.32724
2005.70703	0.32459
2003.77847	0.32195
2001.84990	0.31926
1999.92134	0.31661
1997.99277	0.31399
1996.06421	0.31139
1994.13564	0.30883
1992.20708	0.30626
1990.27852	0.30369
1988.34995	0.30128
1986.42139	0.29890
1984.49282	0.29642
1982.56426	0.29398
1980.63569	0.29164
1978.70713	0.28941
1976.77856	0.28721
1974.85000	0.28497
1972.92144	0.28274
1970.99287	0.28061
1969.06431	0.27857
1967.13574	0.27655
1965.20718	0.27460
1963.27861	0.27271
1961.35005	0.27075
1959.42148	0.26877
1957.49292	0.26693
1955.56436	0.26526
1953.63579	0.26366
1951.70723	0.26204
1949.77866	0.26039
1947.85010	0.25874
1945.92153	0.25719
1943.99297	0.25574
1942.06440	0.25432
1940.13584	0.25288
1938.20728	0.25145
1936.27871	0.25007
1934.35015	0.24877
1932.42158	0.24758
1930.49302	0.24643
1928.56445	0.24533
1926.63589	0.24427
1924.70732	0.24330
1922.77876	0.24238
1920.85020	0.24139
1918.92163	0.24037
1916.99307	0.23949
1915.06450	0.23871
1913.13594	0.23794
1911.20737	0.23721
1909.27881	0.23650
1907.35024	0.23583
1905.42168	0.23527
1903.49312	0.23477
1901.56455	0.23428
1899.63599	0.23379
1897.70742	0.23333
1895.77886	0.23286
1893.85029	0.23244
1891.92173	0.23205
1889.99316	0.23178
1888.06460	0.23152
1886.13604	0.23129
1884.20747	0.23113
1882.27891	0.23104
1880.35034	0.23096
1878.42178	0.23082
1876.49321	0.23078
1874.56465	0.23090
1872.63608	0.23111
1870.70752	0.23126
1868.77896	0.23143
1866.85039	0.23166
1864.92183	0.23187
1862.99326	0.23208
1861.06470	0.23236
1859.13613	0.23282
1857.20757	0.23330
1855.27900	0.23376
1853.35044	0.23417
1851.42187	0.23466
1849.49331	0.23525
1847.56475	0.23580
1845.63618	0.23637
1843.70762	0.23731
1841.77905	0.23842
1839.85049	0.23912
1837.92192	0.23986
1835.99336	0.24069
1834.06479	0.24155
1832.13623	0.24250
1830.20767	0.24384
1828.27910	0.24535
1826.35054	0.24648
1824.42197	0.24773
1822.49341	0.24908
1820.56484	0.25042
1818.63628	0.25183
1816.70771	0.25348
1814.77915	0.25514
1812.85059	0.25683
1810.92202	0.25879
1808.99346	0.26087
1807.06489	0.26289
1805.13633	0.26485
1803.20776	0.26700
1801.27920	0.26935
1799.35063	0.27214
1797.42207	0.27487
1795.49351	0.27732
1793.56494	0.27993
1791.63638	0.28352
1789.70781	0.28734
1787.77925	0.29021
1785.85068	0.29330
1783.92212	0.29692
1781.99355	0.30086
1780.06499	0.30508
1778.13643	0.30948
1776.20786	0.31348
1774.27930	0.31747
1772.35073	0.32289
1770.42217	0.32921
1768.49360	0.33490
1766.56504	0.34045
1764.63647	0.34601
1762.70791	0.35187
1760.77935	0.35919
1758.85078	0.36618
1756.92222	0.37322
1754.99365	0.38098
1753.06509	0.38793
1751.13652	0.39588
1749.20796	0.40609
1747.27939	0.41669
1745.35083	0.42624
1743.42227	0.43629
1741.49370	0.44727
1739.56514	0.45998
1737.63657	0.47274
1735.70801	0.48402
1733.77944	0.50072
1731.85088	0.52086
1729.92231	0.53700
1727.99375	0.55305
1726.06519	0.57002
1724.13662	0.58844
1722.20806	0.60835
1720.27949	0.62667
1718.35093	0.64778
1716.42236	0.67918
1714.49380	0.70992
1712.56523	0.73519
1710.63667	0.75930
1708.70811	0.78457
1706.77954	0.81287
1704.85098	0.84677
1702.92241	0.87727
1700.99385	0.90720
1699.06528	0.95097
1697.13672	0.99088
1695.20815	1.03201
1693.27959	1.07241
1691.35103	1.10463
1689.42246	1.14065
1687.49390	1.17773
1685.56533	1.21280
1683.63677	1.26642
1681.70820	1.32306
1679.77964	1.36061
1677.85107	1.39608
1675.92251	1.43566
1673.99395	1.48341
1672.06538	1.52544
1670.13682	1.56625
1668.20825	1.61933
1666.27969	1.66281
1664.35112	1.69852
1662.42256	1.74060
1660.49399	1.78621
1658.56543	1.82208
1656.63687	1.85246
1654.70830	1.88187
1652.77974	1.93030
1650.85117	1.97863
1648.92261	1.99917
1646.99404	2.02637
1645.06548	2.05965
1643.13691	2.08233
1641.20835	2.09568
1639.27979	2.10647
1637.35122	2.11312
1635.42266	2.11472
1633.49409	2.11249
1631.56553	2.10423
1629.63696	2.09141
1627.70840	2.06944
1625.77983	2.04252
1623.85127	2.00755
1621.92271	1.96512
1619.99414	1.92706
1618.06558	1.88917
1616.13701	1.83494
1614.20845	1.77788
1612.27988	1.73288
1610.35132	1.68654
1608.42275	1.63686
1606.49419	1.58716
1604.56562	1.54031
1602.63706	1.49454
1600.70850	1.44950
1598.77993	1.40791
1596.85137	1.36877
1594.92280	1.33043
1592.99424	1.29324
1591.06567	1.25910
1589.13711	1.22651
1587.20854	1.19529
1585.27998	1.16595
1583.35142	1.13825
1581.42285	1.11268
1579.49429	1.09031
1577.56572	1.06923
1575.63716	1.04296
1573.70859	1.01985
1571.78003	1.00423
1569.85146	0.98642
1567.92290	0.96613
1565.99434	0.95031
1564.06577	0.93635
1562.13721	0.92393
1560.20864	0.91232
1558.28008	0.89258
1556.35151	0.87620
1554.42295	0.86674
1552.49438	0.85699
1550.56582	0.84697
1548.63726	0.83669
1546.70869	0.82751
1544.78013	0.81889
1542.85156	0.80994
1540.92300	0.80019
1538.99443	0.78916
1537.06587	0.78187
1535.13730	0.77647
1533.20874	0.76949
1531.28018	0.76209
1529.35161	0.75628
1527.42305	0.75053
1525.49448	0.74457
1523.56592	0.73924
1521.63735	0.73375
1519.70879	0.72774
1517.78022	0.72238
1515.85166	0.71699
1513.92310	0.71192
1511.99453	0.70753
1510.06597	0.70347
1508.13740	0.69973
1506.20884	0.69468
1504.28027	0.69023
1502.35171	0.68724
1500.42314	0.68417
1498.49458	0.68075
1496.56602	0.67712
1494.63745	0.67380
1492.70889	0.67098
1490.78032	0.66820
1488.85176	0.66482
1486.92319	0.66135
1484.99463	0.65829
1483.06606	0.65564
1481.13750	0.65320
1479.20894	0.65074
1477.28037	0.64815
1475.35181	0.64529
1473.42324	0.64223
1471.49468	0.63886
1469.56611	0.63594
1467.63755	0.63350
1465.70898	0.63098
1463.78042	0.62849
1461.85186	0.62663
1459.92329	0.62513
1457.99473	0.62309
1456.06616	0.62020
1454.13760	0.61787
1452.20903	0.61617
1450.28047	0.61458
1448.35190	0.61287
1446.42334	0.61106
1444.49478	0.60951
1442.56621	0.60812
1440.63765	0.60667
1438.70908	0.60514
1436.78052	0.60328
1434.85195	0.60146
1432.92339	0.60000
1430.99482	0.59869
1429.06626	0.59730
1427.13770	0.59582
1425.20913	0.59435
1423.28057	0.59287
1421.35200	0.59131
1419.42344	0.58965
1417.49487	0.58803
1415.56631	0.58668
1413.63774	0.58547
1411.70918	0.58423
1409.78062	0.58290
1407.85205	0.58160
1405.92349	0.58033
1403.99492	0.57884
1402.06636	0.57725
1400.13779	0.57590
1398.20923	0.57478
1396.28066	0.57373
1394.35210	0.57254
1392.42354	0.57123
1390.49497	0.57003
1388.56641	0.56890
1386.63784	0.56766
1384.70928	0.56630
1382.78071	0.56498
1380.85215	0.56379
1378.92358	0.56278
1376.99502	0.56183
1375.06646	0.56078
1373.13789	0.55973
1371.20933	0.55884
1369.28076	0.55793
1367.35220	0.55683
1365.42363	0.55572
1363.49507	0.55481
1361.56650	0.55401
1359.63794	0.55311
1357.70937	0.55204
1355.78081	0.55095
1353.85225	0.55009
1351.92368	0.54940
1349.99512	0.54866
1348.06655	0.54782
1346.13799	0.54685
1344.20942	0.54588
1342.28086	0.54499
1340.35229	0.54415
1338.42373	0.54334
1336.49517	0.54256
1334.56660	0.54170
1332.63804	0.54090
1330.70947	0.54019
1328.78091	0.53938
1326.85234	0.53842
1324.92378	0.53743
1322.99521	0.53656
1321.06665	0.53581
1319.13809	0.53511
1317.20952	0.53429
1315.28096	0.53334
1313.35239	0.53244
1311.42383	0.53168
1309.49526	0.53106
1307.56670	0.53055
1305.63813	0.53003
1303.70957	0.52921
1301.78101	0.52836
1299.85244	0.52772
1297.92388	0.52716
1295.99531	0.52664
1294.06675	0.52609
1292.13818	0.52539
1290.20962	0.52475
1288.28105	0.52438
1286.35249	0.52402
1284.42393	0.52341
1282.49536	0.52277
1280.56680	0.52218
1278.63823	0.52152
1276.70967	0.52091
1274.78110	0.52056
1272.85254	0.52037
1270.92397	0.52002
1268.99541	0.51938
1267.06685	0.51872
1265.13828	0.51833
1263.20972	0.51800
1261.28115	0.51760
1259.35259	0.51729
1257.42402	0.51695
1255.49546	0.51649
1253.56689	0.51612
1251.63833	0.51599
1249.70977	0.51593
1247.78120	0.51573
1245.85264	0.51540
1243.92407	0.51502
1241.99551	0.51455
1240.06694	0.51400
1238.13838	0.51346
1236.20981	0.51293
1234.28125	0.51245
1232.35269	0.51206
1230.42412	0.51160
1228.49556	0.51106
1226.56699	0.51047
1224.63843	0.50977
1222.70986	0.50906
1220.78130	0.50846
1218.85273	0.50793
1216.92417	0.50734
1214.99561	0.50675
1213.06704	0.50616
1211.13848	0.50547
1209.20991	0.50473
1207.28135	0.50403
1205.35278	0.50340
1203.42422	0.50290
1201.49565	0.50236
1199.56709	0.50168
1197.63853	0.50109
1195.70996	0.50065
1193.78140	0.50027
1191.85283	0.49994
1189.92427	0.49958
1187.99570	0.49929
1186.06714	0.49920
1184.13857	0.49921
1182.21001	0.49914
1180.28145	0.49892
1178.35288	0.49880
1176.42432	0.49904
1174.49575	0.49957
1172.56719	0.50010
1170.63862	0.50046
1168.71006	0.50069
1166.78149	0.50084
1164.85293	0.50099
1162.92437	0.50119
1160.99580	0.50127
1159.06724	0.50092
1157.13867	0.50016
1155.21011	0.49911
1153.28154	0.49783
1151.35298	0.49646
1149.42441	0.49498
1147.49585	0.49326
1145.56729	0.49137
1143.63872	0.48939
1141.71016	0.48723
1139.78159	0.48495
1137.85303	0.48282
1135.92446	0.48084
1133.99590	0.47878
1132.06733	0.47663
1130.13877	0.47468
1128.21021	0.47309
1126.28164	0.47186
1124.35308	0.47100
1122.42451	0.47036
1120.49595	0.46971
1118.56738	0.46898
1116.63882	0.46827
1114.71025	0.46791
1112.78169	0.46809
1110.85312	0.46860
1108.92456	0.46919
1106.99600	0.46995
1105.06743	0.47094
1103.13887	0.47228
1101.21030	0.47419
1099.28174	0.47660
1097.35317	0.47924
1095.42461	0.48217
1093.49604	0.48552
1091.56748	0.48941
1089.63892	0.49395
1087.71035	0.49917
1085.78179	0.50526
1083.85322	0.51201
1081.92466	0.51862
1079.99609	0.52440
1078.06753	0.52860
1076.13896	0.53026
1074.21040	0.52906
1072.28184	0.52540
1070.35327	0.51974
1068.42471	0.51293
1066.49614	0.50620
1064.56758	0.50005
1062.63901	0.49420
1060.71045	0.48883
1058.78188	0.48437
1056.85332	0.48051
1054.92476	0.47693
1052.99619	0.47394
1051.06763	0.47169
1049.13906	0.46982
1047.21050	0.46817
1045.28193	0.46682
1043.35337	0.46565
1041.42480	0.46455
1039.49624	0.46375
1037.56768	0.46331
1035.63911	0.46290
1033.71055	0.46241
1031.78198	0.46222
1029.85342	0.46244
1027.92485	0.46289
1025.99629	0.46346
1024.06772	0.46409
1022.13916	0.46481
1020.21060	0.46566
1018.28203	0.46665
1016.35347	0.46773
1014.42490	0.46887
1012.49634	0.47023
1010.56777	0.47182
1008.63921	0.47348
1006.71064	0.47514
1004.78208	0.47709
1002.85352	0.47954
1000.92495	0.48224
998.99639	0.48518
997.06782	0.48873
995.13926	0.49267
993.21069	0.49644
991.28213	0.49967
989.35356	0.50207
987.42500	0.50358
985.49644	0.50460
983.56787	0.50558
981.63931	0.50686
979.71074	0.50862
977.78218	0.51086
975.85361	0.51356
973.92505	0.51655
971.99648	0.51978
970.06792	0.52348
968.13936	0.52760
966.21079	0.53178
964.28223	0.53595
962.35366	0.54061
960.42510	0.54616
958.49653	0.55225
956.56797	0.55835
954.63940	0.56431
952.71084	0.57039
950.78228	0.57659
948.85371	0.58256
946.92515	0.58851
944.99658	0.59493
943.06802	0.60136
941.13945	0.60736
939.21089	0.61331
937.28232	0.61916
935.35376	0.62470
933.42520	0.63045
931.49663	0.63680
929.56807	0.64283
927.63950	0.64783
925.71094	0.65273
923.78237	0.65854
921.85381	0.66523
919.92524	0.67246
917.99668	0.68027
916.06812	0.68809
914.13955	0.69522
912.21099	0.70272
910.28242	0.71140
908.35386	0.71980
906.42529	0.72794
904.49673	0.73682
902.56816	0.74519
900.63960	0.75312
898.71104	0.76243
896.78247	0.77302
894.85391	0.78355
892.92534	0.79421
890.99678	0.80495
889.06821	0.81423
887.13965	0.82323
885.21108	0.83448
883.28252	0.84716
881.35396	0.86009
879.42539	0.87290
877.49683	0.88433
875.56826	0.89510
873.63970	0.90618
871.71113	0.91674
869.78257	0.92653
867.85400	0.93666
865.92544	0.94883
863.99687	0.96237
862.06831	0.97454
860.13975	0.98449
858.21118	0.99439
856.28262	1.00465
854.35405	1.01385
852.42549	1.02382
850.49692	1.03648
848.56836	1.05035
846.63979	1.06170
844.71123	1.06962
842.78267	1.07873
840.85410	1.09201
838.92554	1.10652
836.99697	1.11921
835.06841	1.13134
833.13984	1.14398
831.21128	1.15457
829.28271	1.16152
827.35415	1.16693
825.42559	1.17314
823.49702	1.18177
821.56846	1.19024
819.63989	1.19561
817.71133	1.20090
815.78276	1.21305
813.85420	1.23317
811.92563	1.24341
809.99707	1.23685
808.06851	1.23433
806.13994	1.24364
804.21138	1.25590
802.28281	1.26420
800.35425	1.26280
798.42568	1.26113
796.49712	1.26613
794.56855	1.25368
792.63999	1.21928
790.71143	1.19278
788.78286	1.19212
786.85430	1.21046
784.92573	1.21576
782.99717	1.20090
781.06860	1.20244
779.14004	1.21796
777.21147	1.23613
775.28291	1.27037
773.35435	1.26117
771.42578	1.21478
769.49722	1.22534
767.56865	1.26061
765.64009	1.25793
763.71152	1.25243
761.78296	1.21093
759.85439	1.14210
757.92583	1.13161
755.99727	1.15775
754.06870	1.14047
752.14014	1.11712
750.21157	1.12971
748.28301	1.10599
746.35444	1.02381
744.42588	0.91289
742.49731	0.79646
740.56875	0.72198
738.64019	0.69566
736.71162	0.69162
734.78306	0.67942
732.85449	0.65326
730.92593	0.64867
728.99736	0.62080
727.06880	0.49940
725.14023	0.36701
723.21167	0.26277
721.28311	0.16275
719.35454	0.07015
717.42598	0.01814
715.49741	0.03962
713.56885	0.12386
711.64028	0.14721
709.71172	0.06633
707.78315	0.02850
705.85459	0.03812
703.92603	0.04790
701.99746	0.06396
700.06890	0.08276
698.14033	0.07799
696.21177	0.03116
694.28320	-0.03156
692.35464	-0.05058
690.42607	-0.03515
688.49751	-0.02659
686.56895	-0.03745
684.64038	-0.04000
682.71182	-0.00052
680.78325	0.02763
678.85469	-0.03362
676.92612	-0.12241
674.99756	-0.11947
673.06899	-0.05734
671.14043	0.02187
669.21187	0.10187
667.28330	0.10824
665.35474	0.02777
663.42617	-0.02852
661.49761	-0.01195
659.56904	0.04136
657.64048	0.07538
655.71191	0.07883
653.78335	0.10123
651.85479	0.15264
649.92622	0.10071
647.99766	0.01909
646.06909	0.01913
644.14053	0.08758
642.21196	0.13329
640.28340	0.10633
638.35483	0.08289
636.42627	0.06837
634.49771	0.01298
632.56914	-0.05353
630.64058	-0.03169
628.71201	0.01534
626.78345	-0.03541
624.85488	-0.11391
622.92632	-0.09184
620.99775	-0.01246
619.06919	0.05519
617.14062	0.07310
615.21206	0.02247
613.28350	-0.02583
611.35493	-0.00752
609.42637	0.01881
607.49780	-0.01303
605.56924	-0.02473
603.64067	-0.01491
601.71211	0.00192
599.78354	0.06229
597.85498	0.11034
595.92642	0.09479
593.99785	0.02087
592.06929	-0.03508
590.14072	-0.04625
588.21216	-0.03859
586.28359	-0.03722
584.35503	-0.05985
582.42646	-0.04621
580.49790	0.04865
578.56934	0.03519
576.64077	-0.02701
574.71221	-0.05400
572.78364	-0.06658
570.85508	-0.04544
568.92651	-0.00968
566.99795	0.00798
565.06938	-0.01301
563.14082	-0.02987
561.21226	0.03648
559.28369	0.12356
557.35513	0.11825
555.42656	0.09028
553.49800	0.07613
551.56943	0.05185
549.64087	0.03308
547.71230	0.03346
545.78374	0.04243
543.85518	0.08443
541.92661	0.12805
539.99805	0.07552
538.06948	0.02835
536.14092	0.08774
534.21235	0.13512
532.28379	0.09437
530.35522	0.07272
528.42666	0.13739
526.49810	0.17142
524.56953	0.12540
522.64097	0.06614
520.71240	0.03788
518.78384	0.06163
516.85527	0.10461
514.92671	0.12872
512.99814	0.13143
511.06958	0.13527
509.14102	0.15115
507.21245	0.16984
505.28389	0.16763
503.35532	0.14279
501.42676	0.09018
499.49819	0.01934
