3997.91411	0.07936
3995.98555	0.07910
3994.05698	0.07907
3992.12842	0.07962
3990.19985	0.08010
3988.27129	0.08009
3986.34272	0.07997
3984.41416	0.08016
3982.48560	0.08058
3980.55703	0.08099
3978.62847	0.08122
3976.69990	0.08132
3974.77134	0.08132
3972.84277	0.08126
3970.91421	0.08156
3968.98564	0.08209
3967.05708	0.08221
3965.12852	0.08207
3963.19995	0.08232
3961.27139	0.08270
3959.34282	0.08260
3957.41426	0.08244
3955.48569	0.08272
3953.55713	0.08309
3951.62856	0.08327
3949.70000	0.08355
3947.77144	0.08399
3945.84287	0.08408
3943.91431	0.08361
3941.98574	0.08315
3940.05718	0.08300
3938.12861	0.08284
3936.20005	0.08264
3934.27148	0.08257
3932.34292	0.08283
3930.41436	0.08300
3928.48579	0.08264
3926.55723	0.08196
3924.62866	0.08144
3922.70010	0.08146
3920.77153	0.08181
3918.84297	0.08195
3916.91440	0.08194
3914.98584	0.08195
3913.05728	0.08189
3911.12871	0.08165
3909.20015	0.08114
3907.27158	0.08060
3905.34302	0.08060
3903.41445	0.08154
3901.48589	0.08261
3899.55732	0.08272
3897.62876	0.08245
3895.70020	0.08224
3893.77163	0.08202
3891.84307	0.08199
3889.91450	0.08197
3887.98594	0.08169
3886.05737	0.08197
3884.12881	0.08268
3882.20024	0.08255
3880.27168	0.08230
3878.34312	0.08251
3876.41455	0.08240
3874.48599	0.08229
3872.55742	0.08261
3870.62886	0.08312
3868.70029	0.08380
3866.77173	0.08420
3864.84316	0.08415
3862.91460	0.08424
3860.98604	0.08450
3859.05747	0.08447
3857.12891	0.08424
3855.20034	0.08444
3853.27178	0.08610
3851.34321	0.08822
3849.41465	0.08820
3847.48608	0.08777
3845.55752	0.08784
3843.62896	0.08821
3841.70039	0.08877
3839.77183	0.08957
3837.84326	0.09064
3835.91470	0.09161
3833.98613	0.09188
3832.05757	0.09163
3830.12900	0.09162
3828.20044	0.09212
3826.27187	0.09312
3824.34331	0.09425
3822.41475	0.09531
3820.48618	0.09700
3818.55762	0.09844
3816.62905	0.09891
3814.70049	0.09940
3812.77192	0.09974
3810.84336	0.10004
3808.91479	0.10087
3806.98623	0.10208
3805.05767	0.10298
3803.12910	0.10379
3801.20054	0.10524
3799.27197	0.10659
3797.34341	0.10737
3795.41484	0.10848
3793.48628	0.10970
3791.55771	0.11072
3789.62915	0.11195
3787.70059	0.11332
3785.77202	0.11453
3783.84346	0.11578
3781.91489	0.11728
3779.98633	0.11889
3778.05776	0.12079
3776.12920	0.12253
3774.20063	0.12386
3772.27207	0.12534
3770.34351	0.12733
3768.41494	0.12941
3766.48638	0.13076
3764.55781	0.13211
3762.62925	0.13387
3760.70068	0.13578
3758.77212	0.13831
3756.84355	0.14107
3754.91499	0.14327
3752.98643	0.14570
3751.05786	0.14939
3749.12930	0.15351
3747.20073	0.15569
3745.27217	0.15741
3743.34360	0.16084
3741.41504	0.16415
3739.48647	0.16623
3737.55791	0.16867
3735.62935	0.17270
3733.70078	0.17864
3731.77222	0.18458
3729.84365	0.18926
3727.91509	0.19303
3725.98652	0.19745
3724.05796	0.20339
3722.12939	0.21027
3720.20083	0.21773
3718.27227	0.22535
3716.34370	0.23299
3714.41514	0.24037
3712.48657	0.24858
3710.55801	0.26046
3708.62944	0.27449
3706.70088	0.28660
3704.77231	0.29778
3702.84375	0.31038
3700.91519	0.32664
3698.98662	0.34473
3697.05806	0.36211
3695.12949	0.38037
3693.20093	0.39919
3691.27236	0.41910
3689.34380	0.44548
3687.41523	0.47970
3685.48667	0.51085
3683.55811	0.53757
3681.62954	0.56551
3679.70098	0.59647
3677.77241	0.62903
3675.84385	0.66722
3673.91528	0.71808
3671.98672	0.76094
3670.05815	0.79974
3668.12959	0.85153
3666.20103	0.89843
3664.27246	0.93810
3662.34390	0.98141
3660.41533	1.02871
3658.48677	1.07488
3656.55820	1.12282
3654.62964	1.17608
3652.70107	1.22168
3650.77251	1.26186
3648.84395	1.31597
3646.91538	1.38114
3644.98682	1.43039
3643.05825	1.46960
3641.12969	1.50965
3639.20112	1.55326
3637.27256	1.59718
3635.34399	1.63958
3633.41543	1.68098
3631.48687	1.71918
3629.55830	1.75772
3627.62974	1.80939
3625.70117	1.85998
3623.77261	1.89520
3621.84404	1.92826
3619.91548	1.96522
3617.98691	2.00886
3616.05835	2.05186
3614.12979	2.08927
3612.20122	2.12821
3610.27266	2.16760
3608.34409	2.20728
3606.41553	2.24907
3604.48696	2.28911
3602.55840	2.32591
3600.62983	2.36365
3598.70127	2.40172
3596.77271	2.43900
3594.84414	2.47944
3592.91558	2.52234
3590.98701	2.56293
3589.05845	2.60079
3587.12988	2.64338
3585.20132	2.69003
3583.27275	2.73162
3581.34419	2.77027
3579.41562	2.81155
3577.48706	2.85448
3575.55850	2.89567
3573.62993	2.93694
3571.70137	2.97819
3569.77280	3.01759
3567.84424	3.05862
3565.91567	3.10998
3563.98711	3.16308
3562.05854	3.20791
3560.12998	3.25006
3558.20142	3.29286
3556.27285	3.33659
3554.34429	3.38033
3552.41572	3.42635
3550.48716	3.47339
3548.55859	3.51893
3546.63003	3.56543
3544.70146	3.61696
3542.77290	3.66984
3540.84434	3.71693
3538.91577	3.76136
3536.98721	3.80812
3535.05864	3.85595
3533.13008	3.90159
3531.20151	3.94868
3529.27295	3.99872
3527.34438	4.04786
3525.41582	4.09521
3523.48726	4.14433
3521.55869	4.19336
3519.63013	4.23881
3517.70156	4.28761
3515.77300	4.33866
3513.84443	4.38444
3511.91587	4.42868
3509.98730	4.47706
3508.05874	4.52722
3506.13018	4.57405
3504.20161	4.61863
3502.27305	4.66894
3500.34448	4.72475
3498.41592	4.77775
3496.48735	4.82755
3494.55879	4.87740
3492.63022	4.92909
3490.70166	4.97951
3488.77310	5.02498
3486.84453	5.06835
3484.91597	5.11385
3482.98740	5.16082
3481.05884	5.20975
3479.13027	5.25958
3477.20171	5.30584
3475.27314	5.35225
3473.34458	5.40218
3471.41602	5.45071
3469.48745	5.49865
3467.55889	5.55092
3465.63032	5.60554
3463.70176	5.66066
3461.77319	5.70922
3459.84463	5.75135
3457.91606	5.80711
3455.98750	5.88052
3454.05894	5.95293
3452.13037	6.01713
3450.20181	6.06598
3448.27324	6.09379
3446.34468	6.12345
3444.41611	6.16810
3442.48755	6.22451
3440.55898	6.28425
3438.63042	6.33573
3436.70186	6.38362
3434.77329	6.42961
3432.84473	6.47283
3430.91616	6.53066
3428.98760	6.60188
3427.05903	6.66032
3425.13047	6.70597
3423.20190	6.74287
3421.27334	6.79423
3419.34478	6.87301
3417.41621	6.93458
3415.48765	6.96493
3413.55908	6.99925
3411.63052	7.06578
3409.70195	7.13563
3407.77339	7.16196
3405.84482	7.18058
3403.91626	7.24424
3401.98770	7.30734
3400.05913	7.33174
3398.13057	7.33936
3396.20200	7.34801
3394.27344	7.38226
3392.34487	7.43562
3390.41631	7.48559
3388.48774	7.53456
3386.55918	7.59737
3384.63062	7.63897
3382.70205	7.67233
3380.77349	7.75499
3378.84492	7.83113
3376.91636	7.83796
3374.98779	7.81748
3373.05923	7.82990
3371.13066	7.87934
3369.20210	7.96870
3367.27354	8.02995
3365.34497	8.00594
3363.41641	8.00184
3361.48784	8.08701
3359.55928	8.19815
3357.63071	8.26195
3355.70215	8.29384
3353.77358	8.27766
3351.84502	8.19492
3349.91646	8.11290
3347.98789	8.11061
3346.05933	8.14910
3344.13076	8.19749
3342.20220	8.26240
3340.27363	8.24526
3338.34507	8.20619
3336.41650	8.26662
3334.48794	8.35741
3332.55937	8.34753
3330.63081	8.28898
3328.70225	8.28806
3326.77368	8.33535
3324.84512	8.35294
3322.91655	8.28833
3320.98799	8.24433
3319.05942	8.34587
3317.13086	8.52307
3315.20229	8.54120
3313.27373	8.44244
3311.34517	8.37771
3309.41660	8.35456
3307.48804	8.37911
3305.55947	8.39614
3303.63091	8.41967
3301.70234	8.53333
3299.77378	8.63692
3297.84521	8.54943
3295.91665	8.41670
3293.98809	8.41388
3292.05952	8.46587
3290.13096	8.45760
3288.20239	8.45328
3286.27383	8.52236
3284.34526	8.62304
3282.41670	8.76976
3280.48813	8.82024
3278.55957	8.64873
3276.63101	8.51359
3274.70244	8.54438
3272.77388	8.62694
3270.84531	8.64146
3268.91675	8.58121
3266.98818	8.52155
3265.05962	8.54304
3263.13105	8.57143
3261.20249	8.52083
3259.27393	8.47219
3257.34536	8.44349
3255.41680	8.41881
3253.48823	8.46476
3251.55967	8.53159
3249.63110	8.49705
3247.70254	8.43303
3245.77397	8.45782
3243.84541	8.54996
3241.91685	8.60970
3239.98828	8.58498
3238.05972	8.50333
3236.13115	8.43318
3234.20259	8.41185
3232.27402	8.45460
3230.34546	8.51074
3228.41689	8.51066
3226.48833	8.48063
3224.55977	8.45281
3222.63120	8.45869
3220.70264	8.44936
3218.77407	8.39975
3216.84551	8.34660
3214.91694	8.23062
3212.98838	8.12405
3211.05981	8.14568
3209.13125	8.22492
3207.20269	8.23735
3205.27412	8.15816
3203.34556	8.06437
3201.41699	8.04141
3199.48843	8.06674
3197.55986	8.07529
3195.63130	8.04554
3193.70273	7.96072
3191.77417	7.83066
3189.84561	7.75043
3187.91704	7.75891
3185.98848	7.75544
3184.05991	7.68623
3182.13135	7.60781
3180.20278	7.56287
3178.27422	7.51365
3176.34565	7.40970
3174.41709	7.30314
3172.48853	7.26643
3170.55996	7.27141
3168.63140	7.22856
3166.70283	7.12851
3164.77427	7.02025
3162.84570	6.92633
3160.91714	6.85223
3158.98857	6.79885
3157.06001	6.76831
3155.13145	6.74598
3153.20288	6.69044
3151.27432	6.59503
3149.34575	6.51093
3147.41719	6.45468
3145.48862	6.39114
3143.56006	6.30732
3141.63149	6.21533
3139.70293	6.13056
3137.77437	6.06469
3135.84580	6.00371
3133.91724	5.92518
3131.98867	5.83643
3130.06011	5.76217
3128.13154	5.69679
3126.20298	5.62363
3124.27441	5.55412
3122.34585	5.48863
3120.41729	5.41293
3118.48872	5.33656
3116.56016	5.26646
3114.63159	5.19099
3112.70303	5.11224
3110.77446	5.03826
3108.84590	4.96737
3106.91733	4.89984
3104.98877	4.83437
3103.06021	4.76558
3101.13164	4.68949
3099.20308	4.61068
3097.27451	4.53908
3095.34595	4.47420
3093.41738	4.40788
3091.48882	4.33931
3089.56025	4.27250
3087.63169	4.20926
3085.70312	4.14804
3083.77456	4.08312
3081.84600	4.01481
3079.91743	3.94899
3077.98887	3.88522
3076.06030	3.82051
3074.13174	3.75724
3072.20317	3.69886
3070.27461	3.64271
3068.34604	3.58461
3066.41748	3.52630
3064.48892	3.46964
3062.56035	3.41149
3060.63179	3.35112
3058.70322	3.29192
3056.77466	3.23554
3054.84609	3.18109
3052.91753	3.12796
3050.98896	3.07626
3049.06040	3.02457
3047.13184	2.97215
3045.20327	2.92080
3043.27471	2.87105
3041.34614	2.82117
3039.41758	2.77190
3037.48901	2.72506
3035.56045	2.67913
3033.63188	2.63312
3031.70332	2.58715
3029.77476	2.54047
3027.84619	2.49442
3025.91763	2.45012
3023.98906	2.40663
3022.06050	2.36427
3020.13193	2.32336
3018.20337	2.28242
3016.27480	2.24119
3014.34624	2.20133
3012.41768	2.16342
3010.48911	2.12603
3008.56055	2.08809
3006.63198	2.05008
3004.70342	2.01242
3002.77485	1.97514
3000.84629	1.93927
2998.91772	1.90524
2996.98916	1.87188
2995.06060	1.83865
2993.13203	1.80563
2991.20347	1.77295
2989.27490	1.74104
2987.34634	1.70996
2985.41777	1.67933
2983.48921	1.64878
2981.56064	1.61884
2979.63208	1.59037
2977.70352	1.56251
2975.77495	1.53448
2973.84639	1.50672
2971.91782	1.47949
2969.98926	1.45300
2968.06069	1.42707
2966.13213	1.40093
2964.20356	1.37462
2962.27500	1.34916
2960.34644	1.32509
2958.41787	1.30183
2956.48931	1.27862
2954.56074	1.25516
2952.63218	1.23155
2950.70361	1.20844
2948.77505	1.18598
2946.84648	1.16384
2944.91792	1.14264
2942.98936	1.12255
2941.06079	1.10242
2939.13223	1.08219
2937.20366	1.06297
2935.27510	1.04443
2933.34653	1.02546
2931.41797	1.00625
2929.48940	0.98748
2927.56084	0.96926
2925.63228	0.95121
2923.70371	0.93343
2921.77515	0.91644
2919.84658	0.90005
2917.91802	0.88398
2915.98945	0.86834
2914.06089	0.85316
2912.13232	0.83825
2910.20376	0.82315
2908.27520	0.80785
2906.34663	0.79294
2904.41807	0.77856
2902.48950	0.76456
2900.56094	0.75107
2898.63237	0.73783
2896.70381	0.72484
2894.77524	0.71263
2892.84668	0.70099
2890.91812	0.68935
2888.98955	0.67760
2887.06099	0.66594
2885.13242	0.65458
2883.20386	0.64355
2881.27529	0.63276
2879.34673	0.62232
2877.41816	0.61243
2875.48960	0.60272
2873.56104	0.59272
2871.63247	0.58246
2869.70391	0.57216
2867.77534	0.56190
2865.84678	0.55171
2863.91821	0.54204
2861.98965	0.53297
2860.06108	0.52375
2858.13252	0.51429
2856.20396	0.50511
2854.27539	0.49638
2852.34683	0.48829
2850.41826	0.48078
2848.48970	0.47329
2846.56113	0.46546
2844.63257	0.45771
2842.70400	0.45062
2840.77544	0.44414
2838.84687	0.43794
2836.91831	0.43182
2834.98975	0.42570
2833.06118	0.41978
2831.13262	0.41403
2829.20405	0.40805
2827.27549	0.40179
2825.34692	0.39553
2823.41836	0.38963
2821.48979	0.38410
2819.56123	0.37859
2817.63267	0.37304
2815.70410	0.36754
2813.77554	0.36217
2811.84697	0.35707
2809.91841	0.35201
2807.98984	0.34677
2806.06128	0.34161
2804.13271	0.33685
2802.20415	0.33227
2800.27559	0.32751
2798.34702	0.32279
2796.41846	0.31840
2794.48989	0.31408
2792.56133	0.30972
2790.63276	0.30545
2788.70420	0.30129
2786.77563	0.29723
2784.84707	0.29316
2782.91851	0.28908
2780.98994	0.28518
2779.06138	0.28145
2777.13281	0.27783
2775.20425	0.27425
2773.27568	0.27069
2771.34712	0.26725
2769.41855	0.26385
2767.48999	0.26044
2765.56143	0.25714
2763.63286	0.25399
2761.70430	0.25092
2759.77573	0.24779
2757.84717	0.24477
2755.91860	0.24205
2753.99004	0.23941
2752.06147	0.23672
2750.13291	0.23393
2748.20435	0.23110
2746.27578	0.22834
2744.34722	0.22579
2742.41865	0.22345
2740.49009	0.22111
2738.56152	0.21870
2736.63296	0.21639
2734.70439	0.21405
2732.77583	0.21162
2730.84727	0.20932
2728.91870	0.20716
2726.99014	0.20514
2725.06157	0.20331
2723.13301	0.20160
2721.20444	0.19976
2719.27588	0.19774
2717.34731	0.19583
2715.41875	0.19407
2713.49019	0.19240
2711.56162	0.19082
2709.63306	0.18932
2707.70449	0.18774
2705.77593	0.18599
2703.84736	0.18430
2701.91880	0.18278
2699.99023	0.18141
2698.06167	0.18012
2696.13311	0.17884
2694.20454	0.17756
2692.27598	0.17613
2690.34741	0.17458
2688.41885	0.17330
2686.49028	0.17232
2684.56172	0.17137
2682.63315	0.17036
2680.70459	0.16928
2678.77603	0.16816
2676.84746	0.16707
2674.91890	0.16599
2672.99033	0.16493
2671.06177	0.16396
2669.13320	0.16308
2667.20464	0.16239
2665.27607	0.16186
2663.34751	0.16122
2661.41895	0.16040
2659.49038	0.15954
2657.56182	0.15870
2655.63325	0.15795
2653.70469	0.15728
2651.77612	0.15652
2649.84756	0.15574
2647.91899	0.15519
2645.99043	0.15483
2644.06187	0.15437
2642.13330	0.15381
2640.20474	0.15341
2638.27617	0.15307
2636.34761	0.15266
2634.41904	0.15234
2632.49048	0.15212
2630.56191	0.15182
2628.63335	0.15146
2626.70479	0.15122
2624.77622	0.15123
2622.84766	0.15121
2620.91909	0.15090
2618.99053	0.15054
2617.06196	0.15039
2615.13340	0.15028
2613.20483	0.15011
2611.27627	0.15006
2609.34771	0.15001
2607.41914	0.14992
2605.49058	0.14998
2603.56201	0.15015
2601.63345	0.15038
2599.70488	0.15053
2597.77632	0.15043
2595.84775	0.15021
2593.91919	0.15023
2591.99062	0.15054
2590.06206	0.15084
2588.13350	0.15104
2586.20493	0.15145
2584.27637	0.15183
2582.34780	0.15192
2580.41924	0.15215
2578.49067	0.15253
2576.56211	0.15279
2574.63354	0.15306
2572.70498	0.15358
2570.77642	0.15424
2568.84785	0.15478
2566.91929	0.15520
2564.99072	0.15560
2563.06216	0.15603
2561.13359	0.15650
2559.20503	0.15691
2557.27646	0.15734
2555.34790	0.15796
2553.41934	0.15858
2551.49077	0.15915
2549.56221	0.15978
2547.63364	0.16038
2545.70508	0.16100
2543.77651	0.16166
2541.84795	0.16229
2539.91938	0.16295
2537.99082	0.16371
2536.06226	0.16463
2534.13369	0.16556
2532.20513	0.16622
2530.27656	0.16670
2528.34800	0.16730
2526.41943	0.16808
2524.49087	0.16896
2522.56230	0.16977
2520.63374	0.17046
2518.70518	0.17121
2516.77661	0.17201
2514.84805	0.17273
2512.91948	0.17346
2510.99092	0.17430
2509.06235	0.17513
2507.13379	0.17594
2505.20522	0.17685
2503.27666	0.17788
2501.34810	0.17888
2499.41953	0.17979
2497.49097	0.18069
2495.56240	0.18155
2493.63384	0.18232
2491.70527	0.18312
2489.77671	0.18404
2487.84814	0.18498
2485.91958	0.18590
2483.99102	0.18680
2482.06245	0.18772
2480.13389	0.18873
2478.20532	0.18978
2476.27676	0.19084
2474.34819	0.19179
2472.41963	0.19255
2470.49106	0.19326
2468.56250	0.19418
2466.63394	0.19532
2464.70537	0.19647
2462.77681	0.19742
2460.84824	0.19825
2458.91968	0.19923
2456.99111	0.20038
2455.06255	0.20145
2453.13398	0.20238
2451.20542	0.20327
2449.27686	0.20422
2447.34829	0.20518
2445.41973	0.20616
2443.49116	0.20722
2441.56260	0.20834
2439.63403	0.20946
2437.70547	0.21042
2435.77690	0.21127
2433.84834	0.21228
2431.91978	0.21348
2429.99121	0.21469
2428.06265	0.21579
2426.13408	0.21686
2424.20552	0.21806
2422.27695	0.21929
2420.34839	0.22041
2418.41982	0.22149
2416.49126	0.22259
2414.56270	0.22366
2412.63413	0.22476
2410.70557	0.22584
2408.77700	0.22685
2406.84844	0.22794
2404.91987	0.22925
2402.99131	0.23068
2401.06274	0.23208
2399.13418	0.23337
2397.20562	0.23460
2395.27705	0.23571
2393.34849	0.23678
2391.41992	0.23796
2389.49136	0.23930
2387.56279	0.24077
2385.63423	0.24223
2383.70566	0.24357
2381.77710	0.24487
2379.84854	0.24628
2377.91997	0.24770
2375.99141	0.24908
2374.06284	0.25070
2372.13428	0.25286
2370.20571	0.25526
2368.27715	0.25709
2366.34858	0.25844
2364.42002	0.26014
2362.49146	0.26237
2360.56289	0.26423
2358.63433	0.26529
2356.70576	0.26629
2354.77720	0.26764
2352.84863	0.26928
2350.92007	0.27055
2348.99150	0.27133
2347.06294	0.27212
2345.13437	0.27359
2343.20581	0.27604
2341.27725	0.27857
2339.34868	0.28029
2337.42012	0.28179
2335.49155	0.28333
2333.56299	0.28425
2331.63442	0.28527
2329.70586	0.28687
2327.77729	0.28859
2325.84873	0.29037
2323.92017	0.29230
2321.99160	0.29428
2320.06304	0.29599
2318.13447	0.29729
2316.20591	0.29856
2314.27734	0.30013
2312.34878	0.30180
2310.42021	0.30350
2308.49165	0.30543
2306.56309	0.30742
2304.63452	0.30920
2302.70596	0.31081
2300.77739	0.31240
2298.84883	0.31413
2296.92026	0.31612
2294.99170	0.31828
2293.06313	0.32036
2291.13457	0.32215
2289.20601	0.32380
2287.27744	0.32557
2285.34888	0.32747
2283.42031	0.32938
2281.49175	0.33128
2279.56318	0.33332
2277.63462	0.33552
2275.70605	0.33769
2273.77749	0.33970
2271.84893	0.34169
2269.92036	0.34380
2267.99180	0.34600
2266.06323	0.34817
2264.13467	0.35029
2262.20610	0.35242
2260.27754	0.35450
2258.34897	0.35653
2256.42041	0.35868
2254.49185	0.36100
2252.56328	0.36324
2250.63472	0.36540
2248.70615	0.36765
2246.77759	0.36993
2244.84902	0.37214
2242.92046	0.37435
2240.99189	0.37660
2239.06333	0.37876
2237.13477	0.38076
2235.20620	0.38275
2233.27764	0.38490
2231.34907	0.38723
2229.42051	0.38961
2227.49194	0.39194
2225.56338	0.39430
2223.63481	0.39664
2221.70625	0.39886
2219.77769	0.40108
2217.84912	0.40333
2215.92056	0.40551
2213.99199	0.40762
2212.06343	0.40971
2210.13486	0.41187
2208.20630	0.41410
2206.27773	0.41633
2204.34917	0.41853
2202.42061	0.42063
2200.49204	0.42259
2198.56348	0.42445
2196.63491	0.42627
2194.70635	0.42816
2192.77778	0.43019
2190.84922	0.43218
2188.92065	0.43400
2186.99209	0.43582
2185.06353	0.43766
2183.13496	0.43935
2181.20640	0.44092
2179.27783	0.44260
2177.34927	0.44432
2175.42070	0.44589
2173.49214	0.44739
2171.56357	0.44888
2169.63501	0.45029
2167.70645	0.45159
2165.77788	0.45278
2163.84932	0.45392
2161.92075	0.45515
2159.99219	0.45641
2158.06362	0.45748
2156.13506	0.45834
2154.20649	0.45911
2152.27793	0.45985
2150.34937	0.46053
2148.42080	0.46111
2146.49224	0.46166
2144.56367	0.46216
2142.63511	0.46255
2140.70654	0.46286
2138.77798	0.46312
2136.84941	0.46325
2134.92085	0.46324
2132.99229	0.46312
2131.06372	0.46295
2129.13516	0.46271
2127.20659	0.46242
2125.27803	0.46212
2123.34946	0.46178
2121.42090	0.46134
2119.49233	0.46076
2117.56377	0.46004
2115.63521	0.45920
2113.70664	0.45830
2111.77808	0.45732
2109.84951	0.45626
2107.92095	0.45522
2105.99238	0.45419
2104.06382	0.45312
2102.13525	0.45188
2100.20669	0.45042
2098.27812	0.44882
2096.34956	0.44722
2094.42100	0.44561
2092.49243	0.44400
2090.56387	0.44237
2088.63530	0.44057
2086.70674	0.43864
2084.77817	0.43667
2082.84961	0.43470
2080.92104	0.43274
2078.99248	0.43076
2077.06392	0.42867
2075.13535	0.42647
2073.20679	0.42418
2071.27822	0.42188
2069.34966	0.41953
2067.42109	0.41704
2065.49253	0.41458
2063.56396	0.41224
2061.63540	0.40986
2059.70684	0.40741
2057.77827	0.40494
2055.84971	0.40232
2053.92114	0.39956
2051.99258	0.39689
2050.06401	0.39428
2048.13545	0.39162
2046.20688	0.38895
2044.27832	0.38627
2042.34976	0.38351
2040.42119	0.38069
2038.49263	0.37789
2036.56406	0.37506
2034.63550	0.37224
2032.70693	0.36949
2030.77837	0.36674
2028.84980	0.36397
2026.92124	0.36127
2024.99268	0.35862
2023.06411	0.35593
2021.13555	0.35320
2019.20698	0.35042
2017.27842	0.34752
2015.34985	0.34449
2013.42129	0.34154
2011.49272	0.33880
2009.56416	0.33618
2007.63560	0.33356
2005.70703	0.33096
2003.77847	0.32838
2001.84990	0.32568
1999.92134	0.32286
1997.99277	0.32006
1996.06421	0.31745
1994.13564	0.31500
1992.20708	0.31254
1990.27852	0.31002
1988.34995	0.30757
1986.42139	0.30519
1984.49282	0.30284
1982.56426	0.30048
1980.63569	0.29808
1978.70713	0.29577
1976.77856	0.29361
1974.85000	0.29149
1972.92144	0.28928
1970.99287	0.28704
1969.06431	0.28491
1967.13574	0.28294
1965.20718	0.28102
1963.27861	0.27908
1961.35005	0.27706
1959.42148	0.27508
1957.49292	0.27321
1955.56436	0.27142
1953.63579	0.26975
1951.70723	0.26815
1949.77866	0.26652
1947.85010	0.26484
1945.92153	0.26327
1943.99297	0.26185
1942.06440	0.26033
1940.13584	0.25874
1938.20728	0.25730
1936.27871	0.25601
1934.35015	0.25479
1932.42158	0.25359
1930.49302	0.25235
1928.56445	0.25123
1926.63589	0.25023
1924.70732	0.24926
1922.77876	0.24831
1920.85020	0.24743
1918.92163	0.24655
1916.99307	0.24560
1915.06450	0.24468
1913.13594	0.24376
1911.20737	0.24291
1909.27881	0.24223
1907.35024	0.24169
1905.42168	0.24110
1903.49312	0.24053
1901.56455	0.23997
1899.63599	0.23941
1897.70742	0.23898
1895.77886	0.23863
1893.85029	0.23821
1891.92173	0.23770
1889.99316	0.23735
1888.06460	0.23718
1886.13604	0.23708
1884.20747	0.23694
1882.27891	0.23675
1880.35034	0.23663
1878.42178	0.23661
1876.49321	0.23671
1874.56465	0.23681
1872.63608	0.23685
1870.70752	0.23691
1868.77896	0.23723
1866.85039	0.23757
1864.92183	0.23773
1862.99326	0.23792
1861.06470	0.23816
1859.13613	0.23849
1857.20757	0.23881
1855.27900	0.23919
1853.35044	0.23965
1851.42187	0.24025
1849.49331	0.24086
1847.56475	0.24141
1845.63618	0.24203
1843.70762	0.24300
1841.77905	0.24404
1839.85049	0.24466
1837.92192	0.24535
1835.99336	0.24624
1834.06479	0.24722
1832.13623	0.24821
1830.20767	0.24950
1828.27910	0.25095
1826.35054	0.25215
1824.42197	0.25345
1822.49341	0.25476
1820.56484	0.25611
1818.63628	0.25754
1816.70771	0.25911
1814.77915	0.26062
1812.85059	0.26221
1810.92202	0.26416
1808.99346	0.26636
1807.06489	0.26853
1805.13633	0.27058
1803.20776	0.27279
1801.27920	0.27519
1799.35063	0.27788
1797.42207	0.28037
1795.49351	0.28270
1793.56494	0.28541
1791.63638	0.28908
1789.70781	0.29278
1787.77925	0.29554
1785.85068	0.29867
1783.92212	0.30241
1781.99355	0.30642
1780.06499	0.31051
1778.13643	0.31468
1776.20786	0.31868
1774.27930	0.32293
1772.35073	0.32852
1770.42217	0.33479
1768.49360	0.34043
1766.56504	0.34593
1764.63647	0.35147
1762.70791	0.35731
1760.77935	0.36472
1758.85078	0.37195
1756.92222	0.37921
1754.99365	0.38709
1753.06509	0.39420
1751.13652	0.40241
1749.20796	0.41277
1747.27939	0.42341
1745.35083	0.43302
1743.42227	0.44297
1741.49370	0.45376
1739.56514	0.46639
1737.63657	0.47900
1735.70801	0.49002
1733.77944	0.50662
1731.85088	0.52657
1729.92231	0.54229
1727.99375	0.55807
1726.06519	0.57502
1724.13662	0.59356
1722.20806	0.61366
1720.27949	0.63226
1718.35093	0.65364
1716.42236	0.68491
1714.49380	0.71524
1712.56523	0.74034
1710.63667	0.76464
1708.70811	0.79042
1706.77954	0.81922
1704.85098	0.85342
1702.92241	0.88425
1700.99385	0.91472
1699.06528	0.95945
1697.13672	1.00075
1695.20815	1.04361
1693.27959	1.08521
1691.35103	1.11830
1689.42246	1.15584
1687.49390	1.19491
1685.56533	1.23209
1683.63677	1.28952
1681.70820	1.34975
1679.77964	1.38846
1677.85107	1.42519
1675.92251	1.46742
1673.99395	1.51899
1672.06538	1.56464
1670.13682	1.60989
1668.20825	1.66785
1666.27969	1.71356
1664.35112	1.75145
1662.42256	1.79903
1660.49399	1.85252
1658.56543	1.89352
1656.63687	1.92606
1654.70830	1.95730
1652.77974	2.01201
1650.85117	2.06492
1648.92261	2.08444
1646.99404	2.11125
1645.06548	2.14262
1643.13691	2.16223
1641.20835	2.17387
1639.27979	2.18385
1637.35122	2.18959
1635.42266	2.19051
1633.49409	2.18582
1631.56553	2.17446
1629.63696	2.15980
1627.70840	2.13567
1625.77983	2.10649
1623.85127	2.06916
1621.92271	2.02299
1619.99414	1.98162
1618.06558	1.94128
1616.13701	1.88341
1614.20845	1.82350
1612.27988	1.77763
1610.35132	1.73039
1608.42275	1.67938
1606.49419	1.62845
1604.56562	1.58052
1602.63706	1.53400
1600.70850	1.48872
1598.77993	1.44669
1596.85137	1.40683
1594.92280	1.36800
1592.99424	1.33030
1591.06567	1.29574
1589.13711	1.26336
1587.20854	1.23271
1585.27998	1.20399
1583.35142	1.17696
1581.42285	1.15175
1579.49429	1.12950
1577.56572	1.10893
1575.63716	1.08390
1573.70859	1.06188
1571.78003	1.04705
1569.85146	1.03070
1567.92290	1.01230
1565.99434	0.99814
1564.06577	0.98625
1562.13721	0.97625
1560.20864	0.96781
1558.28008	0.95313
1556.35151	0.93946
1554.42295	0.93139
1552.49438	0.92358
1550.56582	0.91536
1548.63726	0.90633
1546.70869	0.89765
1544.78013	0.88888
1542.85156	0.87945
1540.92300	0.86856
1538.99443	0.85264
1537.06587	0.84040
1535.13730	0.83225
1533.20874	0.82222
1531.28018	0.81155
1529.35161	0.80355
1527.42305	0.79575
1525.49448	0.78742
1523.56592	0.78002
1521.63735	0.77272
1519.70879	0.76518
1517.78022	0.75890
1515.85166	0.75221
1513.92310	0.74543
1511.99453	0.73977
1510.06597	0.73491
1508.13740	0.73029
1506.20884	0.72260
1504.28027	0.71535
1502.35171	0.71126
1500.42314	0.70773
1498.49458	0.70388
1496.56602	0.69950
1494.63745	0.69514
1492.70889	0.69154
1490.78032	0.68833
1488.85176	0.68474
1486.92319	0.68132
1484.99463	0.67848
1483.06606	0.67592
1481.13750	0.67337
1479.20894	0.67091
1477.28037	0.66873
1475.35181	0.66682
1473.42324	0.66491
1471.49468	0.66248
1469.56611	0.66023
1467.63755	0.65816
1465.70898	0.65579
1463.78042	0.65347
1461.85186	0.65175
1459.92329	0.65046
1457.99473	0.64912
1456.06616	0.64692
1454.13760	0.64434
1452.20903	0.64229
1450.28047	0.64033
1448.35190	0.63805
1446.42334	0.63567
1444.49478	0.63370
1442.56621	0.63185
1440.63765	0.62991
1438.70908	0.62807
1436.78052	0.62602
1434.85195	0.62373
1432.92339	0.62187
1430.99482	0.62041
1429.06626	0.61902
1427.13770	0.61768
1425.20913	0.61656
1423.28057	0.61568
1421.35200	0.61490
1419.42344	0.61397
1417.49487	0.61269
1415.56631	0.61127
1413.63774	0.61005
1411.70918	0.60899
1409.78062	0.60802
1407.85205	0.60704
1405.92349	0.60613
1403.99492	0.60518
1402.06636	0.60400
1400.13779	0.60271
1398.20923	0.60120
1396.28066	0.59949
1394.35210	0.59767
1392.42354	0.59581
1390.49497	0.59401
1388.56641	0.59216
1386.63784	0.59008
1384.70928	0.58804
1382.78071	0.58613
1380.85215	0.58421
1378.92358	0.58248
1376.99502	0.58120
1375.06646	0.58028
1373.13789	0.57932
1371.20933	0.57824
1369.28076	0.57720
1367.35220	0.57617
1365.42363	0.57507
1363.49507	0.57391
1361.56650	0.57291
1359.63794	0.57206
1357.70937	0.57112
1355.78081	0.57011
1353.85225	0.56916
1351.92368	0.56826
1349.99512	0.56734
1348.06655	0.56634
1346.13799	0.56529
1344.20942	0.56424
1342.28086	0.56318
1340.35229	0.56218
1338.42373	0.56134
1336.49517	0.56048
1334.56660	0.55963
1332.63804	0.55903
1330.70947	0.55864
1328.78091	0.55815
1326.85234	0.55752
1324.92378	0.55695
1322.99521	0.55653
1321.06665	0.55614
1319.13809	0.55561
1317.20952	0.55501
1315.28096	0.55445
1313.35239	0.55377
1311.42383	0.55290
1309.49526	0.55200
1307.56670	0.55118
1305.63813	0.55046
1303.70957	0.54979
1301.78101	0.54906
1299.85244	0.54826
1297.92388	0.54736
1295.99531	0.54640
1294.06675	0.54565
1292.13818	0.54501
1290.20962	0.54423
1288.28105	0.54340
1286.35249	0.54259
1284.42393	0.54187
1282.49536	0.54132
1280.56680	0.54074
1278.63823	0.54003
1276.70967	0.53944
1274.78110	0.53898
1272.85254	0.53837
1270.92397	0.53757
1268.99541	0.53683
1267.06685	0.53631
1265.13828	0.53595
1263.20972	0.53560
1261.28115	0.53512
1259.35259	0.53459
1257.42402	0.53421
1255.49546	0.53403
1253.56689	0.53383
1251.63833	0.53341
1249.70977	0.53297
1247.78120	0.53263
1245.85264	0.53226
1243.92407	0.53181
1241.99551	0.53130
1240.06694	0.53066
1238.13838	0.52985
1236.20981	0.52892
1234.28125	0.52798
1232.35269	0.52712
1230.42412	0.52625
1228.49556	0.52532
1226.56699	0.52437
1224.63843	0.52353
1222.70986	0.52271
1220.78130	0.52171
1218.85273	0.52068
1216.92417	0.51984
1214.99561	0.51914
1213.06704	0.51846
1211.13848	0.51778
1209.20991	0.51717
1207.28135	0.51655
1205.35278	0.51592
1203.42422	0.51533
1201.49565	0.51468
1199.56709	0.51394
1197.63853	0.51327
1195.70996	0.51262
1193.78140	0.51199
1191.85283	0.51152
1189.92427	0.51116
1187.99570	0.51078
1186.06714	0.51041
1184.13857	0.51029
1182.21001	0.51044
1180.28145	0.51067
1178.35288	0.51106
1176.42432	0.51172
1174.49575	0.51235
1172.56719	0.51282
1170.63862	0.51320
1168.71006	0.51357
1166.78149	0.51391
1164.85293	0.51421
1162.92437	0.51453
1160.99580	0.51475
1159.06724	0.51465
1157.13867	0.51413
1155.21011	0.51349
1153.28154	0.51281
1151.35298	0.51164
1149.42441	0.50979
1147.49585	0.50750
1145.56729	0.50500
1143.63872	0.50255
1141.71016	0.50029
1139.78159	0.49821
1137.85303	0.49632
1135.92446	0.49469
1133.99590	0.49334
1132.06733	0.49214
1130.13877	0.49102
1128.21021	0.48994
1126.28164	0.48891
1124.35308	0.48776
1122.42451	0.48666
1120.49595	0.48614
1118.56738	0.48602
1116.63882	0.48584
1114.71025	0.48577
1112.78169	0.48609
1110.85312	0.48660
1108.92456	0.48719
1106.99600	0.48793
1105.06743	0.48862
1103.13887	0.48947
1101.21030	0.49105
1099.28174	0.49309
1097.35317	0.49525
1095.42461	0.49791
1093.49604	0.50145
1091.56748	0.50609
1089.63892	0.51178
1087.71035	0.51810
1085.78179	0.52495
1083.85322	0.53229
1081.92466	0.53937
1079.99609	0.54500
1078.06753	0.54841
1076.13896	0.54927
1074.21040	0.54744
1072.28184	0.54309
1070.35327	0.53689
1068.42471	0.52994
1066.49614	0.52313
1064.56758	0.51676
1062.63901	0.51110
1060.71045	0.50607
1058.78188	0.50152
1056.85332	0.49759
1054.92476	0.49437
1052.99619	0.49156
1051.06763	0.48911
1049.13906	0.48725
1047.21050	0.48610
1045.28193	0.48561
1043.35337	0.48530
1041.42480	0.48489
1039.49624	0.48461
1037.56768	0.48440
1035.63911	0.48414
1033.71055	0.48369
1031.78198	0.48310
1029.85342	0.48266
1027.92485	0.48239
1025.99629	0.48206
1024.06772	0.48174
1022.13916	0.48168
1020.21060	0.48194
1018.28203	0.48232
1016.35347	0.48272
1014.42490	0.48322
1012.49634	0.48383
1010.56777	0.48457
1008.63921	0.48560
1006.71064	0.48710
1004.78208	0.48897
1002.85352	0.49109
1000.92495	0.49346
998.99639	0.49630
997.06782	0.49980
995.13926	0.50369
993.21069	0.50752
991.28213	0.51094
989.35356	0.51339
987.42500	0.51465
985.49644	0.51533
983.56787	0.51600
981.63931	0.51677
979.71074	0.51792
977.78218	0.51976
975.85361	0.52230
973.92505	0.52537
971.99648	0.52880
970.06792	0.53235
968.13936	0.53599
966.21079	0.54004
964.28223	0.54466
962.35366	0.54982
960.42510	0.55540
958.49653	0.56109
956.56797	0.56675
954.63940	0.57263
952.71084	0.57886
950.78228	0.58550
948.85371	0.59238
946.92515	0.59867
944.99658	0.60429
943.06802	0.61038
941.13945	0.61719
939.21089	0.62379
937.28232	0.62971
935.35376	0.63497
933.42520	0.63999
931.49663	0.64586
929.56807	0.65278
927.63950	0.65962
925.71094	0.66593
923.78237	0.67221
921.85381	0.67878
919.92524	0.68584
917.99668	0.69343
916.06812	0.70112
914.13955	0.70856
912.21099	0.71615
910.28242	0.72411
908.35386	0.73240
906.42529	0.74135
904.49673	0.75087
902.56816	0.75993
900.63960	0.76865
898.71104	0.77825
896.78247	0.78850
894.85391	0.79851
892.92534	0.80811
890.99678	0.81830
889.06821	0.83037
887.13965	0.84361
885.21108	0.85624
883.28252	0.86751
881.35396	0.87849
879.42539	0.89059
877.49683	0.90268
875.56826	0.91314
873.63970	0.92363
871.71113	0.93565
869.78257	0.94769
867.85400	0.95949
865.92544	0.97130
863.99687	0.98168
862.06831	0.99169
860.13975	1.00376
858.21118	1.01724
856.28262	1.02974
854.35405	1.04007
852.42549	1.05064
850.49692	1.06371
848.56836	1.07681
846.63979	1.08947
844.71123	1.10217
842.78267	1.11263
840.85410	1.12280
838.92554	1.13459
836.99697	1.14616
835.06841	1.15798
833.13984	1.17325
831.21128	1.19108
829.28271	1.20678
827.35415	1.21650
825.42559	1.21915
823.49702	1.22592
821.56846	1.24057
819.63989	1.25026
817.71133	1.25439
815.78276	1.25895
813.85420	1.27170
811.92563	1.30177
809.99707	1.33163
808.06851	1.33885
806.13994	1.34473
804.21138	1.36236
802.28281	1.36794
800.35425	1.36829
798.42568	1.40106
796.49712	1.46044
794.56855	1.49082
792.63999	1.48083
790.71143	1.48048
788.78286	1.48522
786.85430	1.48912
784.92573	1.56075
782.99717	1.65084
781.06860	1.57651
779.14004	1.49338
777.21147	1.58514
775.28291	1.89949
773.35435	1.96541
771.42578	1.61262
769.49722	1.45670
767.56865	1.47190
765.64009	1.67018
763.71152	2.08144
761.78296	1.80879
759.85439	1.44741
757.92583	1.29810
755.99727	1.23199
754.06870	1.18609
752.14014	1.17874
750.21157	1.20119
748.28301	1.20126
746.35444	1.18508
744.42588	1.15170
742.49731	1.09692
740.56875	1.01619
738.64019	0.92433
736.71162	0.89326
734.78306	0.91971
732.85449	0.86196
730.92593	0.75163
728.99736	0.71718
727.06880	0.69540
725.14023	0.61228
723.21167	0.59829
721.28311	0.75242
719.35454	1.00020
717.42598	0.75525
715.49741	0.47565
713.56885	0.38370
711.64028	0.43522
709.71172	0.68501
707.78315	1.66468
705.85459	1.11730
703.92603	0.57479
701.99746	0.33251
700.06890	0.25972
698.14033	0.24376
696.21177	0.24305
694.28320	0.29385
692.35464	0.32040
690.42607	0.21811
688.49751	0.10524
686.56895	0.13280
684.64038	0.31993
682.71182	0.45410
680.78325	0.41286
678.85469	0.40758
676.92612	0.37526
674.99756	0.31541
673.06899	0.26392
671.14043	0.16143
669.21187	0.11411
667.28330	0.24525
665.35474	0.44467
663.42617	0.42734
661.49761	0.25613
659.56904	0.13229
657.64048	0.11433
655.71191	0.11952
653.78335	0.10831
651.85479	0.11959
649.92622	0.21734
647.99766	0.32437
646.06909	0.34407
644.14053	0.34205
642.21196	0.29171
640.28340	0.21963
638.35483	0.24970
636.42627	0.32315
634.49771	0.29953
632.56914	0.21671
630.64058	0.14417
628.71201	0.06813
626.78345	0.03334
624.85488	0.08238
622.92632	0.13860
620.99775	0.18281
619.06919	0.28272
617.14062	0.36702
615.21206	0.30328
613.28350	0.21515
611.35493	0.13341
609.42637	0.07962
607.49780	0.09045
605.56924	0.15473
603.64067	0.24948
601.71211	0.32338
599.78354	0.38424
597.85498	0.39796
595.92642	0.24963
593.99785	0.07291
592.06929	0.01241
590.14072	0.06658
588.21216	0.18384
586.28359	0.28844
584.35503	0.27706
582.42646	0.23079
580.49790	0.23024
578.56934	0.27475
576.64077	0.33273
574.71221	0.37875
572.78364	0.44354
570.85508	0.44954
568.92651	0.26840
566.99795	0.08455
565.06938	0.04199
563.14082	0.08132
561.21226	0.12505
559.28369	0.18121
557.35513	0.26401
555.42656	0.32779
553.49800	0.27526
551.56943	0.16400
549.64087	0.11213
547.71230	0.16767
545.78374	0.21221
543.85518	0.21619
541.92661	0.24144
539.99805	0.21773
538.06948	0.17734
536.14092	0.17257
534.21235	0.18167
532.28379	0.16752
530.35522	0.12112
528.42666	0.08803
526.49810	0.09093
524.56953	0.11939
522.64097	0.13855
520.71240	0.15724
518.78384	0.20076
516.85527	0.27362
514.92671	0.29892
512.99814	0.25743
511.06958	0.21704
509.14102	0.18261
507.21245	0.16993
505.28389	0.18520
503.35532	0.20014
501.42676	0.19858
499.49819	0.18505
