3997.91411	0.06661
3995.98555	0.06671
3994.05698	0.06666
3992.12842	0.06687
3990.19985	0.06716
3988.27129	0.06728
3986.34272	0.06730
3984.41416	0.06762
3982.48560	0.06811
3980.55703	0.06806
3978.62847	0.06799
3976.69990	0.06867
3974.77134	0.06942
3972.84277	0.06963
3970.91421	0.06971
3968.98564	0.06987
3967.05708	0.06981
3965.12852	0.06981
3963.19995	0.07020
3961.27139	0.07046
3959.34282	0.07037
3957.41426	0.07016
3955.48569	0.06996
3953.55713	0.06998
3951.62856	0.07036
3949.70000	0.07086
3947.77144	0.07112
3945.84287	0.07100
3943.91431	0.07059
3941.98574	0.07033
3940.05718	0.07053
3938.12861	0.07081
3936.20005	0.07068
3934.27148	0.07039
3932.34292	0.07049
3930.41436	0.07061
3928.48579	0.07013
3926.55723	0.06957
3924.62866	0.06960
3922.70010	0.06991
3920.77153	0.06999
3918.84297	0.07013
3916.91440	0.07064
3914.98584	0.07086
3913.05728	0.07052
3911.12871	0.07025
3909.20015	0.06982
3907.27158	0.06903
3905.34302	0.06857
3903.41445	0.06889
3901.48589	0.06992
3899.55732	0.07104
3897.62876	0.07120
3895.70020	0.07065
3893.77163	0.07044
3891.84307	0.07074
3889.91450	0.07097
3887.98594	0.07075
3886.05737	0.07087
3884.12881	0.07133
3882.20024	0.07102
3880.27168	0.07078
3878.34312	0.07143
3876.41455	0.07153
3874.48599	0.07118
3872.55742	0.07158
3870.62886	0.07252
3868.70029	0.07346
3866.77173	0.07375
3864.84316	0.07369
3862.91460	0.07428
3860.98604	0.07475
3859.05747	0.07422
3857.12891	0.07336
3855.20034	0.07277
3853.27178	0.07374
3851.34321	0.07670
3849.41465	0.07776
3847.48608	0.07745
3845.55752	0.07722
3843.62896	0.07733
3841.70039	0.07782
3839.77183	0.07865
3837.84326	0.08004
3835.91470	0.08152
3833.98613	0.08197
3832.05757	0.08178
3830.12900	0.08181
3828.20044	0.08210
3826.27187	0.08268
3824.34331	0.08352
3822.41475	0.08438
3820.48618	0.08609
3818.55762	0.08792
3816.62905	0.08862
3814.70049	0.08939
3812.77192	0.09010
3810.84336	0.09033
3808.91479	0.09050
3806.98623	0.09123
3805.05767	0.09267
3803.12910	0.09406
3801.20054	0.09564
3799.27197	0.09716
3797.34341	0.09797
3795.41484	0.09908
3793.48628	0.10056
3791.55771	0.10184
3789.62915	0.10293
3787.70059	0.10418
3785.77202	0.10582
3783.84346	0.10725
3781.91489	0.10804
3779.98633	0.10891
3778.05776	0.11047
3776.12920	0.11229
3774.20063	0.11397
3772.27207	0.11563
3770.34351	0.11776
3768.41494	0.12036
3766.48638	0.12260
3764.55781	0.12460
3762.62925	0.12617
3760.70068	0.12758
3758.77212	0.12997
3756.84355	0.13286
3754.91499	0.13520
3752.98643	0.13754
3751.05786	0.14055
3749.12930	0.14395
3747.20073	0.14592
3745.27217	0.14718
3743.34360	0.15094
3741.41504	0.15587
3739.48647	0.15888
3737.55791	0.16154
3735.62935	0.16545
3733.70078	0.17067
3731.77222	0.17561
3729.84365	0.17949
3727.91509	0.18297
3725.98652	0.18785
3724.05796	0.19470
3722.12939	0.20238
3720.20083	0.21037
3718.27227	0.21819
3716.34370	0.22542
3714.41514	0.23227
3712.48657	0.24067
3710.55801	0.25334
3708.62944	0.26783
3706.70088	0.28002
3704.77231	0.29103
3702.84375	0.30348
3700.91519	0.32016
3698.98662	0.33866
3697.05806	0.35585
3695.12949	0.37414
3693.20093	0.39382
3691.27236	0.41515
3689.34380	0.44252
3687.41523	0.47675
3685.48667	0.50785
3683.55811	0.53472
3681.62954	0.56280
3679.70098	0.59367
3677.77241	0.62586
3675.84385	0.66435
3673.91528	0.71647
3671.98672	0.75908
3670.05815	0.79689
3668.12959	0.84968
3666.20103	0.89901
3664.27246	0.93994
3662.34390	0.98283
3660.41533	1.02925
3658.48677	1.07550
3656.55820	1.12400
3654.62964	1.17691
3652.70107	1.22118
3650.77251	1.25938
3648.84395	1.31201
3646.91538	1.37895
3644.98682	1.43042
3643.05825	1.47011
3641.12969	1.50972
3639.20112	1.55258
3637.27256	1.59527
3635.34399	1.63633
3633.41543	1.67778
3631.48687	1.71728
3629.55830	1.75686
3627.62974	1.80846
3625.70117	1.85796
3623.77261	1.89218
3621.84404	1.92424
3619.91548	1.96030
3617.98691	2.00466
3616.05835	2.04838
3614.12979	2.08529
3612.20122	2.12413
3610.27266	2.16318
3608.34409	2.20222
3606.41553	2.24343
3604.48696	2.28173
3602.55840	2.31670
3600.62983	2.35474
3598.70127	2.39487
3596.77271	2.43343
3594.84414	2.47438
3592.91558	2.51832
3590.98701	2.55922
3589.05845	2.59518
3587.12988	2.63566
3585.20132	2.68219
3583.27275	2.72456
3581.34419	2.76391
3579.41562	2.80522
3577.48706	2.84785
3575.55850	2.88899
3573.62993	2.92956
3571.70137	2.96932
3569.77280	3.00785
3567.84424	3.04974
3565.91567	3.10291
3563.98711	3.15527
3562.05854	3.19801
3560.12998	3.24001
3558.20142	3.28331
3556.27285	3.32827
3554.34429	3.37462
3552.41572	3.42110
3550.48716	3.46618
3548.55859	3.50999
3546.63003	3.55555
3544.70146	3.60670
3542.77290	3.65947
3540.84434	3.70848
3538.91577	3.75359
3536.98721	3.79515
3535.05864	3.83765
3533.13008	3.88200
3531.20151	3.92841
3529.27295	3.97859
3527.34438	4.02918
3525.41582	4.07751
3523.48726	4.12757
3521.55869	4.18172
3519.63013	4.23543
3517.70156	4.28447
3515.77300	4.32813
3513.84443	4.37022
3511.91587	4.41548
3509.98730	4.46738
3508.05874	4.52149
3506.13018	4.56876
3504.20161	4.61278
3502.27305	4.66092
3500.34448	4.70799
3498.41592	4.75092
3496.48735	4.79668
3494.55879	4.84797
3492.63022	4.90277
3490.70166	4.95322
3488.77310	4.99686
3486.84453	5.04298
3484.91597	5.09462
3482.98740	5.14566
3481.05884	5.19285
3479.13027	5.24036
3477.20171	5.28884
3475.27314	5.33442
3473.34458	5.38552
3471.41602	5.44373
3469.48745	5.49032
3467.55889	5.52554
3465.63032	5.57222
3463.70176	5.62940
3461.77319	5.67927
3459.84463	5.73293
3457.91606	5.80072
3455.98750	5.86562
3454.05894	5.91652
3452.13037	5.96305
3450.20181	6.00580
3448.27324	6.03771
3446.34468	6.07379
3444.41611	6.12489
3442.48755	6.19120
3440.55898	6.25602
3438.63042	6.30195
3436.70186	6.33436
3434.77329	6.36703
3432.84473	6.42158
3430.91616	6.48161
3428.98760	6.52026
3427.05903	6.56124
3425.13047	6.61958
3423.20190	6.67969
3421.27334	6.74636
3419.34478	6.81223
3417.41621	6.86189
3415.48765	6.89726
3413.55908	6.92339
3411.63052	6.96590
3409.70195	7.03043
3407.77339	7.09949
3405.84482	7.13936
3403.91626	7.15600
3401.98770	7.21325
3400.05913	7.31041
3398.13057	7.35662
3396.20200	7.34376
3394.27344	7.34803
3392.34487	7.37195
3390.41631	7.41266
3388.48774	7.46715
3386.55918	7.51949
3384.63062	7.57404
3382.70205	7.66273
3380.77349	7.77114
3378.84492	7.79717
3376.91636	7.74788
3374.98779	7.72540
3373.05923	7.74531
3371.13066	7.77952
3369.20210	7.84443
3367.27354	7.87322
3365.34497	7.84674
3363.41641	7.85160
3361.48784	7.86487
3359.55928	7.84975
3357.63071	7.83970
3355.70215	7.87105
3353.77358	7.89892
3351.84502	7.88459
3349.91646	7.87179
3347.98789	7.93318
3346.05933	8.04093
3344.13076	8.09470
3342.20220	8.12745
3340.27363	8.16248
3338.34507	8.17339
3336.41650	8.18106
3334.48794	8.18167
3332.55937	8.17508
3330.63081	8.20718
3328.70225	8.23858
3326.77368	8.23233
3324.84512	8.21248
3322.91655	8.21004
3320.98799	8.24417
3319.05942	8.21653
3317.13086	8.16493
3315.20229	8.21009
3313.27373	8.27075
3311.34517	8.21411
3309.41660	8.11811
3307.48804	8.09738
3305.55947	8.13781
3303.63091	8.13695
3301.70234	8.04176
3299.77378	8.00739
3297.84521	8.07827
3295.91665	8.15425
3293.98809	8.20072
3292.05952	8.17778
3290.13096	8.09919
3288.20239	8.07628
3286.27383	8.14570
3284.34526	8.20833
3282.41670	8.22059
3280.48813	8.23465
3278.55957	8.27244
3276.63101	8.28949
3274.70244	8.26468
3272.77388	8.24705
3270.84531	8.22703
3268.91675	8.18975
3266.98818	8.16634
3265.05962	8.16017
3263.13105	8.14596
3261.20249	8.18206
3259.27393	8.33138
3257.34536	8.42660
3255.41680	8.33150
3253.48823	8.30955
3251.55967	8.45472
3249.63110	8.52681
3247.70254	8.46990
3245.77397	8.36212
3243.84541	8.24610
3241.91685	8.21169
3239.98828	8.24001
3238.05972	8.26139
3236.13115	8.26545
3234.20259	8.26370
3232.27402	8.29732
3230.34546	8.33232
3228.41689	8.27983
3226.48833	8.20772
3224.55977	8.15988
3222.63120	8.10121
3220.70264	8.03416
3218.77407	7.95186
3216.84551	7.90596
3214.91694	7.93427
3212.98838	7.96723
3211.05981	7.96365
3209.13125	7.94675
3207.20269	7.94118
3205.27412	7.92658
3203.34556	7.88538
3201.41699	7.86610
3199.48843	7.86252
3197.55986	7.84215
3195.63130	7.80928
3193.70273	7.75117
3191.77417	7.68709
3189.84561	7.63615
3187.91704	7.57734
3185.98848	7.53990
3184.05991	7.54240
3182.13135	7.50279
3180.20278	7.40886
3178.27422	7.31712
3176.34565	7.21291
3174.41709	7.13193
3172.48853	7.13197
3170.55996	7.15163
3168.63140	7.10436
3166.70283	7.01082
3164.77427	6.93671
3162.84570	6.88692
3160.91714	6.82829
3158.98857	6.76048
3157.06001	6.69720
3155.13145	6.63957
3153.20288	6.56942
3151.27432	6.46936
3149.34575	6.36906
3147.41719	6.31038
3145.48862	6.27743
3143.56006	6.23116
3141.63149	6.15942
3139.70293	6.06072
3137.77437	5.95961
3135.84580	5.88469
3133.91724	5.82355
3131.98867	5.75131
3130.06011	5.67381
3128.13154	5.60084
3126.20298	5.52460
3124.27441	5.44895
3122.34585	5.38291
3120.41729	5.31810
3118.48872	5.24392
3116.56016	5.16627
3114.63159	5.09043
3112.70303	5.01632
3110.77446	4.94466
3108.84590	4.87250
3106.91733	4.80085
3104.98877	4.73011
3103.06021	4.65595
3101.13164	4.57931
3099.20308	4.50676
3097.27451	4.43832
3095.34595	4.36799
3093.41738	4.29827
3091.48882	4.23419
3089.56025	4.17132
3087.63169	4.10518
3085.70312	4.03829
3083.77456	3.97267
3081.84600	3.90721
3079.91743	3.84064
3077.98887	3.77409
3076.06030	3.71105
3074.13174	3.65125
3072.20317	3.59044
3070.27461	3.52877
3068.34604	3.46853
3066.41748	3.40852
3064.48892	3.34937
3062.56035	3.29302
3060.63179	3.23835
3058.70322	3.18291
3056.77466	3.12560
3054.84609	3.06813
3052.91753	3.01317
3050.98896	2.96105
3049.06040	2.91013
3047.13184	2.85903
3045.20327	2.80753
3043.27471	2.75697
3041.34614	2.70808
3039.41758	2.65955
3037.48901	2.61092
3035.56045	2.56335
3033.63188	2.51723
3031.70332	2.47160
3029.77476	2.42618
3027.84619	2.38192
3025.91763	2.33912
3023.98906	2.29716
3022.06050	2.25595
3020.13193	2.21524
3018.20337	2.17422
3016.27480	2.13325
3014.34624	2.09331
3012.41768	2.05447
3010.48911	2.01652
3008.56055	1.97936
3006.63198	1.94247
3004.70342	1.90557
3002.77485	1.86928
3000.84629	1.83394
2998.91772	1.79904
2996.98916	1.76482
2995.06060	1.73164
2993.13203	1.69887
2991.20347	1.66634
2989.27490	1.63459
2987.34634	1.60367
2985.41777	1.57311
2983.48921	1.54304
2981.56064	1.51373
2979.63208	1.48429
2977.70352	1.45462
2975.77495	1.42610
2973.84639	1.39868
2971.91782	1.37118
2969.98926	1.34411
2968.06069	1.31807
2966.13213	1.29203
2964.20356	1.26569
2962.27500	1.24012
2960.34644	1.21561
2958.41787	1.19143
2956.48931	1.16793
2954.56074	1.14574
2952.63218	1.12386
2950.70361	1.10182
2948.77505	1.08050
2946.84648	1.05971
2944.91792	1.03869
2942.98936	1.01756
2941.06079	0.99659
2939.13223	0.97614
2937.20366	0.95644
2935.27510	0.93707
2933.34653	0.91800
2931.41797	0.89962
2929.48940	0.88180
2927.56084	0.86415
2925.63228	0.84672
2923.70371	0.82997
2921.77515	0.81382
2919.84658	0.79802
2917.91802	0.78301
2915.98945	0.76873
2914.06089	0.75464
2912.13232	0.74119
2910.20376	0.72870
2908.27520	0.71620
2906.34663	0.70287
2904.41807	0.68938
2902.48950	0.67681
2900.56094	0.66489
2898.63237	0.65281
2896.70381	0.64079
2894.77524	0.62931
2892.84668	0.61796
2890.91812	0.60658
2888.98955	0.59568
2887.06099	0.58508
2885.13242	0.57451
2883.20386	0.56421
2881.27529	0.55405
2879.34673	0.54374
2877.41816	0.53357
2875.48960	0.52372
2873.56104	0.51395
2871.63247	0.50442
2869.70391	0.49526
2867.77534	0.48617
2865.84678	0.47694
2863.91821	0.46771
2861.98965	0.45886
2860.06108	0.45049
2858.13252	0.44203
2856.20396	0.43360
2854.27539	0.42593
2852.34683	0.41875
2850.41826	0.41160
2848.48970	0.40482
2846.56113	0.39860
2844.63257	0.39259
2842.70400	0.38678
2840.77544	0.38141
2838.84687	0.37616
2836.91831	0.37058
2834.98975	0.36489
2833.06118	0.35953
2831.13262	0.35441
2829.20405	0.34938
2827.27549	0.34415
2825.34692	0.33843
2823.41836	0.33269
2821.48979	0.32744
2819.56123	0.32250
2817.63267	0.31764
2815.70410	0.31293
2813.77554	0.30816
2811.84697	0.30321
2809.91841	0.29831
2807.98984	0.29351
2806.06128	0.28897
2804.13271	0.28482
2802.20415	0.28075
2800.27559	0.27675
2798.34702	0.27292
2796.41846	0.26893
2794.48989	0.26479
2792.56133	0.26088
2790.63276	0.25728
2788.70420	0.25377
2786.77563	0.25014
2784.84707	0.24657
2782.91851	0.24329
2780.98994	0.24004
2779.06138	0.23664
2777.13281	0.23331
2775.20425	0.23013
2773.27568	0.22701
2771.34712	0.22384
2769.41855	0.22081
2767.48999	0.21814
2765.56143	0.21559
2763.63286	0.21279
2761.70430	0.20987
2759.77573	0.20723
2757.84717	0.20473
2755.91860	0.20218
2753.99004	0.19974
2752.06147	0.19751
2750.13291	0.19530
2748.20435	0.19302
2746.27578	0.19073
2744.34722	0.18852
2742.41865	0.18649
2740.49009	0.18456
2738.56152	0.18262
2736.63296	0.18065
2734.70439	0.17852
2732.77583	0.17631
2730.84727	0.17440
2728.91870	0.17278
2726.99014	0.17107
2725.06157	0.16927
2723.13301	0.16758
2721.20444	0.16599
2719.27588	0.16440
2717.34731	0.16291
2715.41875	0.16162
2713.49019	0.16035
2711.56162	0.15890
2709.63306	0.15727
2707.70449	0.15562
2705.77593	0.15418
2703.84736	0.15302
2701.91880	0.15190
2699.99023	0.15079
2698.06167	0.14978
2696.13311	0.14878
2694.20454	0.14778
2692.27598	0.14685
2690.34741	0.14587
2688.41885	0.14483
2686.49028	0.14380
2684.56172	0.14285
2682.63315	0.14205
2680.70459	0.14130
2678.77603	0.14056
2676.84746	0.13981
2674.91890	0.13904
2672.99033	0.13829
2671.06177	0.13756
2669.13320	0.13686
2667.20464	0.13615
2665.27607	0.13544
2663.34751	0.13483
2661.41895	0.13433
2659.49038	0.13376
2657.56182	0.13314
2655.63325	0.13263
2653.70469	0.13218
2651.77612	0.13174
2649.84756	0.13141
2647.91899	0.13111
2645.99043	0.13077
2644.06187	0.13048
2642.13330	0.13021
2640.20474	0.12977
2638.27617	0.12929
2636.34761	0.12902
2634.41904	0.12885
2632.49048	0.12867
2630.56191	0.12865
2628.63335	0.12871
2626.70479	0.12870
2624.77622	0.12865
2622.84766	0.12863
2620.91909	0.12856
2618.99053	0.12847
2617.06196	0.12850
2615.13340	0.12849
2613.20483	0.12833
2611.27627	0.12828
2609.34771	0.12854
2607.41914	0.12890
2605.49058	0.12916
2603.56201	0.12924
2601.63345	0.12916
2599.70488	0.12917
2597.77632	0.12960
2595.84775	0.13020
2593.91919	0.13051
2591.99062	0.13060
2590.06206	0.13072
2588.13350	0.13089
2586.20493	0.13113
2584.27637	0.13137
2582.34780	0.13153
2580.41924	0.13178
2578.49067	0.13225
2576.56211	0.13285
2574.63354	0.13342
2572.70498	0.13397
2570.77642	0.13453
2568.84785	0.13501
2566.91929	0.13548
2564.99072	0.13604
2563.06216	0.13660
2561.13359	0.13710
2559.20503	0.13764
2557.27646	0.13822
2555.34790	0.13885
2553.41934	0.13956
2551.49077	0.14024
2549.56221	0.14089
2547.63364	0.14159
2545.70508	0.14228
2543.77651	0.14297
2541.84795	0.14371
2539.91938	0.14443
2537.99082	0.14512
2536.06226	0.14593
2534.13369	0.14681
2532.20513	0.14753
2530.27656	0.14820
2528.34800	0.14906
2526.41943	0.15004
2524.49087	0.15095
2522.56230	0.15174
2520.63374	0.15244
2518.70518	0.15305
2516.77661	0.15366
2514.84805	0.15447
2512.91948	0.15540
2510.99092	0.15626
2509.06235	0.15713
2507.13379	0.15803
2505.20522	0.15882
2503.27666	0.15966
2501.34810	0.16076
2499.41953	0.16193
2497.49097	0.16282
2495.56240	0.16348
2493.63384	0.16420
2491.70527	0.16518
2489.77671	0.16633
2487.84814	0.16740
2485.91958	0.16841
2483.99102	0.16943
2482.06245	0.17041
2480.13389	0.17131
2478.20532	0.17220
2476.27676	0.17316
2474.34819	0.17421
2472.41963	0.17520
2470.49106	0.17610
2468.56250	0.17703
2466.63394	0.17798
2464.70537	0.17887
2462.77681	0.17983
2460.84824	0.18095
2458.91968	0.18207
2456.99111	0.18318
2455.06255	0.18440
2453.13398	0.18556
2451.20542	0.18653
2449.27686	0.18744
2447.34829	0.18843
2445.41973	0.18949
2443.49116	0.19066
2441.56260	0.19192
2439.63403	0.19306
2437.70547	0.19410
2435.77690	0.19521
2433.84834	0.19640
2431.91978	0.19747
2429.99121	0.19847
2428.06265	0.19959
2426.13408	0.20077
2424.20552	0.20197
2422.27695	0.20322
2420.34839	0.20448
2418.41982	0.20574
2416.49126	0.20700
2414.56270	0.20815
2412.63413	0.20919
2410.70557	0.21034
2408.77700	0.21162
2406.84844	0.21291
2404.91987	0.21429
2402.99131	0.21555
2401.06274	0.21662
2399.13418	0.21773
2397.20562	0.21902
2395.27705	0.22039
2393.34849	0.22181
2391.41992	0.22325
2389.49136	0.22456
2387.56279	0.22566
2385.63423	0.22669
2383.70566	0.22768
2381.77710	0.22850
2379.84854	0.22915
2377.91997	0.22964
2375.99141	0.22974
2374.06284	0.22946
2372.13428	0.22893
2370.20571	0.22826
2368.27715	0.22799
2366.34858	0.22834
2364.42002	0.22820
2362.49146	0.22710
2360.56289	0.22702
2358.63433	0.22962
2356.70576	0.23384
2354.77720	0.23867
2352.84863	0.24367
2350.92007	0.24738
2348.99150	0.24937
2347.06294	0.25007
2345.13437	0.24989
2343.20581	0.24971
2341.27725	0.25074
2339.34868	0.25282
2337.42012	0.25538
2335.49155	0.25800
2333.56299	0.26005
2331.63442	0.26172
2329.70586	0.26364
2327.77729	0.26599
2325.84873	0.26840
2323.92017	0.27064
2321.99160	0.27287
2320.06304	0.27540
2318.13447	0.27819
2316.20591	0.28075
2314.27734	0.28306
2312.34878	0.28528
2310.42021	0.28742
2308.49165	0.28955
2306.56309	0.29180
2304.63452	0.29412
2302.70596	0.29638
2300.77739	0.29847
2298.84883	0.30044
2296.92026	0.30251
2294.99170	0.30472
2293.06313	0.30694
2291.13457	0.30914
2289.20601	0.31136
2287.27744	0.31355
2285.34888	0.31566
2283.42031	0.31776
2281.49175	0.31988
2279.56318	0.32204
2277.63462	0.32423
2275.70605	0.32632
2273.77749	0.32835
2271.84893	0.33045
2269.92036	0.33259
2267.99180	0.33471
2266.06323	0.33683
2264.13467	0.33901
2262.20610	0.34130
2260.27754	0.34356
2258.34897	0.34582
2256.42041	0.34822
2254.49185	0.35059
2252.56328	0.35285
2250.63472	0.35507
2248.70615	0.35718
2246.77759	0.35930
2244.84902	0.36162
2242.92046	0.36399
2240.99189	0.36629
2239.06333	0.36854
2237.13477	0.37079
2235.20620	0.37297
2233.27764	0.37518
2231.34907	0.37754
2229.42051	0.37980
2227.49194	0.38195
2225.56338	0.38421
2223.63481	0.38655
2221.70625	0.38882
2219.77769	0.39099
2217.84912	0.39317
2215.92056	0.39549
2213.99199	0.39789
2212.06343	0.40017
2210.13486	0.40229
2208.20630	0.40440
2206.27773	0.40656
2204.34917	0.40874
2202.42061	0.41093
2200.49204	0.41294
2198.56348	0.41477
2196.63491	0.41666
2194.70635	0.41868
2192.77778	0.42074
2190.84922	0.42276
2188.92065	0.42475
2186.99209	0.42672
2185.06353	0.42857
2183.13496	0.43027
2181.20640	0.43203
2179.27783	0.43385
2177.34927	0.43548
2175.42070	0.43699
2173.49214	0.43861
2171.56357	0.44018
2169.63501	0.44154
2167.70645	0.44279
2165.77788	0.44406
2163.84932	0.44538
2161.92075	0.44661
2159.99219	0.44765
2158.06362	0.44865
2156.13506	0.44968
2154.20649	0.45059
2152.27793	0.45137
2150.34937	0.45209
2148.42080	0.45270
2146.49224	0.45329
2144.56367	0.45390
2142.63511	0.45438
2140.70654	0.45465
2138.77798	0.45485
2136.84941	0.45514
2134.92085	0.45539
2132.99229	0.45534
2131.06372	0.45517
2129.13516	0.45512
2127.20659	0.45501
2125.27803	0.45466
2123.34946	0.45415
2121.42090	0.45364
2119.49233	0.45308
2117.56377	0.45247
2115.63521	0.45172
2113.70664	0.45084
2111.77808	0.44992
2109.84951	0.44894
2107.92095	0.44785
2105.99238	0.44666
2104.06382	0.44552
2102.13525	0.44441
2100.20669	0.44316
2098.27812	0.44178
2096.34956	0.44038
2094.42100	0.43888
2092.49243	0.43730
2090.56387	0.43565
2088.63530	0.43384
2086.70674	0.43180
2084.77817	0.42959
2082.84961	0.42744
2080.92104	0.42549
2078.99248	0.42361
2077.06392	0.42165
2075.13535	0.41955
2073.20679	0.41729
2071.27822	0.41492
2069.34966	0.41261
2067.42109	0.41035
2065.49253	0.40807
2063.56396	0.40573
2061.63540	0.40336
2059.70684	0.40091
2057.77827	0.39838
2055.84971	0.39570
2053.92114	0.39299
2051.99258	0.39049
2050.06401	0.38800
2048.13545	0.38532
2046.20688	0.38255
2044.27832	0.37988
2042.34976	0.37737
2040.42119	0.37483
2038.49263	0.37210
2036.56406	0.36928
2034.63550	0.36644
2032.70693	0.36360
2030.77837	0.36081
2028.84980	0.35805
2026.92124	0.35533
2024.99268	0.35259
2023.06411	0.34977
2021.13555	0.34693
2019.20698	0.34418
2017.27842	0.34156
2015.34985	0.33889
2013.42129	0.33613
2011.49272	0.33340
2009.56416	0.33074
2007.63560	0.32805
2005.70703	0.32524
2003.77847	0.32240
2001.84990	0.31975
1999.92134	0.31722
1997.99277	0.31463
1996.06421	0.31207
1994.13564	0.30963
1992.20708	0.30720
1990.27852	0.30464
1988.34995	0.30215
1986.42139	0.29973
1984.49282	0.29726
1982.56426	0.29476
1980.63569	0.29233
1978.70713	0.29005
1976.77856	0.28788
1974.85000	0.28573
1972.92144	0.28359
1970.99287	0.28153
1969.06431	0.27950
1967.13574	0.27742
1965.20718	0.27531
1963.27861	0.27327
1961.35005	0.27134
1959.42148	0.26946
1957.49292	0.26770
1955.56436	0.26596
1953.63579	0.26417
1951.70723	0.26241
1949.77866	0.26072
1947.85010	0.25903
1945.92153	0.25744
1943.99297	0.25600
1942.06440	0.25462
1940.13584	0.25319
1938.20728	0.25178
1936.27871	0.25045
1934.35015	0.24915
1932.42158	0.24793
1930.49302	0.24674
1928.56445	0.24557
1926.63589	0.24449
1924.70732	0.24353
1922.77876	0.24260
1920.85020	0.24168
1918.92163	0.24087
1916.99307	0.24007
1915.06450	0.23922
1913.13594	0.23831
1911.20737	0.23747
1909.27881	0.23670
1907.35024	0.23597
1905.42168	0.23532
1903.49312	0.23479
1901.56455	0.23429
1899.63599	0.23378
1897.70742	0.23338
1895.77886	0.23302
1893.85029	0.23264
1891.92173	0.23226
1889.99316	0.23202
1888.06460	0.23178
1886.13604	0.23149
1884.20747	0.23124
1882.27891	0.23105
1880.35034	0.23099
1878.42178	0.23103
1876.49321	0.23111
1874.56465	0.23108
1872.63608	0.23102
1870.70752	0.23115
1868.77896	0.23174
1866.85039	0.23223
1864.92183	0.23218
1862.99326	0.23219
1861.06470	0.23250
1859.13613	0.23294
1857.20757	0.23332
1855.27900	0.23370
1853.35044	0.23414
1851.42187	0.23471
1849.49331	0.23529
1847.56475	0.23588
1845.63618	0.23670
1843.70762	0.23778
1841.77905	0.23853
1839.85049	0.23890
1837.92192	0.23962
1835.99336	0.24051
1834.06479	0.24138
1832.13623	0.24239
1830.20767	0.24396
1828.27910	0.24563
1826.35054	0.24673
1824.42197	0.24801
1822.49341	0.24932
1820.56484	0.25052
1818.63628	0.25188
1816.70771	0.25350
1814.77915	0.25513
1812.85059	0.25688
1810.92202	0.25889
1808.99346	0.26097
1807.06489	0.26302
1805.13633	0.26499
1803.20776	0.26720
1801.27920	0.26962
1799.35063	0.27230
1797.42207	0.27488
1795.49351	0.27747
1793.56494	0.28050
1791.63638	0.28434
1789.70781	0.28786
1787.77925	0.29041
1785.85068	0.29347
1783.92212	0.29720
1781.99355	0.30123
1780.06499	0.30552
1778.13643	0.30987
1776.20786	0.31380
1774.27930	0.31791
1772.35073	0.32359
1770.42217	0.32999
1768.49360	0.33551
1766.56504	0.34081
1764.63647	0.34613
1762.70791	0.35196
1760.77935	0.35950
1758.85078	0.36670
1756.92222	0.37387
1754.99365	0.38161
1753.06509	0.38853
1751.13652	0.39673
1749.20796	0.40735
1747.27939	0.41812
1745.35083	0.42758
1743.42227	0.43738
1741.49370	0.44813
1739.56514	0.46091
1737.63657	0.47368
1735.70801	0.48446
1733.77944	0.50054
1731.85088	0.52059
1729.92231	0.53676
1727.99375	0.55284
1726.06519	0.57003
1724.13662	0.58859
1722.20806	0.60838
1720.27949	0.62654
1718.35093	0.64762
1716.42236	0.67908
1714.49380	0.70966
1712.56523	0.73469
1710.63667	0.75881
1708.70811	0.78442
1706.77954	0.81305
1704.85098	0.84702
1702.92241	0.87735
1700.99385	0.90709
1699.06528	0.95119
1697.13672	0.99168
1695.20815	1.03287
1693.27959	1.07275
1691.35103	1.10462
1689.42246	1.14077
1687.49390	1.17809
1685.56533	1.21337
1683.63677	1.26770
1681.70820	1.32426
1679.77964	1.36093
1677.85107	1.39612
1675.92251	1.43625
1673.99395	1.48519
1672.06538	1.52823
1670.13682	1.56968
1668.20825	1.62281
1666.27969	1.66551
1664.35112	1.70031
1662.42256	1.74182
1660.49399	1.78805
1658.56543	1.82513
1656.63687	1.85623
1654.70830	1.88589
1652.77974	1.93596
1650.85117	1.98640
1648.92261	2.00729
1646.99404	2.03441
1645.06548	2.06622
1643.13691	2.08779
1641.20835	2.10216
1639.27979	2.11469
1637.35122	2.12207
1635.42266	2.12363
1633.49409	2.12126
1631.56553	2.11360
1629.63696	2.10147
1627.70840	2.07893
1625.77983	2.05227
1623.85127	2.01919
1621.92271	1.97726
1619.99414	1.93837
1618.06558	1.89947
1616.13701	1.84371
1614.20845	1.78621
1612.27988	1.74193
1610.35132	1.69580
1608.42275	1.64528
1606.49419	1.59458
1604.56562	1.54769
1602.63706	1.50231
1600.70850	1.45687
1598.77993	1.41391
1596.85137	1.37345
1594.92280	1.33479
1592.99424	1.29746
1591.06567	1.26251
1589.13711	1.22934
1587.20854	1.19832
1585.27998	1.16924
1583.35142	1.14124
1581.42285	1.11511
1579.49429	1.09258
1577.56572	1.07187
1575.63716	1.04571
1573.70859	1.02204
1571.78003	1.00605
1569.85146	0.98833
1567.92290	0.96799
1565.99434	0.95172
1564.06577	0.93754
1562.13721	0.92532
1560.20864	0.91430
1558.28008	0.89524
1556.35151	0.87833
1554.42295	0.86774
1552.49438	0.85724
1550.56582	0.84725
1548.63726	0.83734
1546.70869	0.82860
1544.78013	0.82028
1542.85156	0.81115
1540.92300	0.80116
1538.99443	0.79004
1537.06587	0.78237
1535.13730	0.77669
1533.20874	0.76968
1531.28018	0.76243
1529.35161	0.75684
1527.42305	0.75110
1525.49448	0.74476
1523.56592	0.73913
1521.63735	0.73354
1519.70879	0.72727
1517.78022	0.72198
1515.85166	0.71703
1513.92310	0.71224
1511.99453	0.70810
1510.06597	0.70439
1508.13740	0.70080
1506.20884	0.69523
1504.28027	0.69014
1502.35171	0.68703
1500.42314	0.68418
1498.49458	0.68104
1496.56602	0.67747
1494.63745	0.67415
1492.70889	0.67149
1490.78032	0.66888
1488.85176	0.66571
1486.92319	0.66239
1484.99463	0.65920
1483.06606	0.65625
1481.13750	0.65348
1479.20894	0.65076
1477.28037	0.64820
1475.35181	0.64562
1473.42324	0.64278
1471.49468	0.63937
1469.56611	0.63621
1467.63755	0.63363
1465.70898	0.63116
1463.78042	0.62862
1461.85186	0.62647
1459.92329	0.62479
1457.99473	0.62293
1456.06616	0.62049
1454.13760	0.61828
1452.20903	0.61651
1450.28047	0.61490
1448.35190	0.61326
1446.42334	0.61148
1444.49478	0.60991
1442.56621	0.60845
1440.63765	0.60684
1438.70908	0.60538
1436.78052	0.60414
1434.85195	0.60275
1432.92339	0.60122
1430.99482	0.59980
1429.06626	0.59826
1427.13770	0.59661
1425.20913	0.59521
1423.28057	0.59396
1421.35200	0.59253
1419.42344	0.59102
1417.49487	0.58943
1415.56631	0.58772
1413.63774	0.58618
1411.70918	0.58475
1409.78062	0.58332
1407.85205	0.58201
1405.92349	0.58091
1403.99492	0.57979
1402.06636	0.57847
1400.13779	0.57714
1398.20923	0.57599
1396.28066	0.57482
1394.35210	0.57335
1392.42354	0.57190
1390.49497	0.57068
1388.56641	0.56953
1386.63784	0.56831
1384.70928	0.56701
1382.78071	0.56578
1380.85215	0.56460
1378.92358	0.56352
1376.99502	0.56262
1375.06646	0.56186
1373.13789	0.56101
1371.20933	0.55998
1369.28076	0.55892
1367.35220	0.55780
1365.42363	0.55671
1363.49507	0.55583
1361.56650	0.55511
1359.63794	0.55430
1357.70937	0.55344
1355.78081	0.55258
1353.85225	0.55163
1351.92368	0.55065
1349.99512	0.54970
1348.06655	0.54871
1346.13799	0.54777
1344.20942	0.54699
1342.28086	0.54619
1340.35229	0.54538
1338.42373	0.54458
1336.49517	0.54369
1334.56660	0.54269
1332.63804	0.54162
1330.70947	0.54060
1328.78091	0.53973
1326.85234	0.53893
1324.92378	0.53814
1322.99521	0.53725
1321.06665	0.53623
1319.13809	0.53529
1317.20952	0.53453
1315.28096	0.53373
1313.35239	0.53286
1311.42383	0.53206
1309.49526	0.53128
1307.56670	0.53040
1305.63813	0.52943
1303.70957	0.52849
1301.78101	0.52771
1299.85244	0.52702
1297.92388	0.52621
1295.99531	0.52516
1294.06675	0.52404
1292.13818	0.52308
1290.20962	0.52231
1288.28105	0.52164
1286.35249	0.52095
1284.42393	0.52022
1282.49536	0.51949
1280.56680	0.51879
1278.63823	0.51805
1276.70967	0.51730
1274.78110	0.51662
1272.85254	0.51599
1270.92397	0.51523
1268.99541	0.51431
1267.06685	0.51339
1265.13828	0.51259
1263.20972	0.51182
1261.28115	0.51098
1259.35259	0.51027
1257.42402	0.50964
1255.49546	0.50886
1253.56689	0.50806
1251.63833	0.50747
1249.70977	0.50708
1247.78120	0.50663
1245.85264	0.50602
1243.92407	0.50537
1241.99551	0.50470
1240.06694	0.50390
1238.13838	0.50294
1236.20981	0.50200
1234.28125	0.50129
1232.35269	0.50070
1230.42412	0.49994
1228.49556	0.49904
1226.56699	0.49821
1224.63843	0.49742
1222.70986	0.49651
1220.78130	0.49548
1218.85273	0.49445
1216.92417	0.49354
1214.99561	0.49273
1213.06704	0.49200
1211.13848	0.49122
1209.20991	0.49027
1207.28135	0.48927
1205.35278	0.48829
1203.42422	0.48732
1201.49565	0.48640
1199.56709	0.48550
1197.63853	0.48460
1195.70996	0.48383
1193.78140	0.48301
1191.85283	0.48191
1189.92427	0.48062
1187.99570	0.47942
1186.06714	0.47846
1184.13857	0.47747
1182.21001	0.47638
1180.28145	0.47546
1178.35288	0.47467
1176.42432	0.47380
1174.49575	0.47290
1172.56719	0.47210
1170.63862	0.47136
1168.71006	0.47052
1166.78149	0.46950
1164.85293	0.46847
1162.92437	0.46758
1160.99580	0.46679
1159.06724	0.46607
1157.13867	0.46550
1155.21011	0.46487
1153.28154	0.46405
1151.35298	0.46326
1149.42441	0.46247
1147.49585	0.46161
1145.56729	0.46081
1143.63872	0.46005
1141.71016	0.45931
1139.78159	0.45855
1137.85303	0.45767
1135.92446	0.45677
1133.99590	0.45594
1132.06733	0.45503
1130.13877	0.45421
1128.21021	0.45370
1126.28164	0.45326
1124.35308	0.45262
1122.42451	0.45178
1120.49595	0.45103
1118.56738	0.45054
1116.63882	0.45002
1114.71025	0.44945
1112.78169	0.44906
1110.85312	0.44862
1108.92456	0.44801
1106.99600	0.44756
1105.06743	0.44716
1103.13887	0.44659
1101.21030	0.44621
1099.28174	0.44612
1097.35317	0.44591
1095.42461	0.44548
1093.49604	0.44521
1091.56748	0.44511
1089.63892	0.44494
1087.71035	0.44482
1085.78179	0.44477
1083.85322	0.44452
1081.92466	0.44404
1079.99609	0.44360
1078.06753	0.44334
1076.13896	0.44339
1074.21040	0.44367
1072.28184	0.44387
1070.35327	0.44385
1068.42471	0.44377
1066.49614	0.44388
1064.56758	0.44421
1062.63901	0.44464
1060.71045	0.44505
1058.78188	0.44518
1056.85332	0.44504
1054.92476	0.44506
1052.99619	0.44528
1051.06763	0.44539
1049.13906	0.44556
1047.21050	0.44605
1045.28193	0.44661
1043.35337	0.44712
1041.42480	0.44770
1039.49624	0.44832
1037.56768	0.44911
1035.63911	0.45013
1033.71055	0.45103
1031.78198	0.45173
1029.85342	0.45256
1027.92485	0.45350
1025.99629	0.45441
1024.06772	0.45528
1022.13916	0.45605
1020.21060	0.45701
1018.28203	0.45845
1016.35347	0.46015
1014.42490	0.46174
1012.49634	0.46315
1010.56777	0.46457
1008.63921	0.46603
1006.71064	0.46757
1004.78208	0.46923
1002.85352	0.47089
1000.92495	0.47265
998.99639	0.47472
997.06782	0.47687
995.13926	0.47893
993.21069	0.48108
991.28213	0.48346
989.35356	0.48592
987.42500	0.48833
985.49644	0.49073
983.56787	0.49326
981.63931	0.49610
979.71074	0.49923
977.78218	0.50232
975.85361	0.50535
973.92505	0.50856
971.99648	0.51205
970.06792	0.51575
968.13936	0.51962
966.21079	0.52355
964.28223	0.52750
962.35366	0.53159
960.42510	0.53576
958.49653	0.54000
956.56797	0.54425
954.63940	0.54851
952.71084	0.55302
950.78228	0.55787
948.85371	0.56286
946.92515	0.56824
944.99658	0.57423
943.06802	0.58007
941.13945	0.58523
939.21089	0.59062
937.28232	0.59677
935.35376	0.60312
933.42520	0.60952
931.49663	0.61620
929.56807	0.62353
927.63950	0.63145
925.71094	0.63912
923.78237	0.64628
921.85381	0.65354
919.92524	0.66120
917.99668	0.66909
916.06812	0.67705
914.13955	0.68485
912.21099	0.69299
910.28242	0.70219
908.35386	0.71209
906.42529	0.72187
904.49673	0.73101
902.56816	0.73965
900.63960	0.74820
898.71104	0.75743
896.78247	0.76750
894.85391	0.77726
892.92534	0.78606
890.99678	0.79488
889.06821	0.80549
887.13965	0.81713
885.21108	0.82874
883.28252	0.84112
881.35396	0.85360
879.42539	0.86556
877.49683	0.87736
875.56826	0.88864
873.63970	0.89889
871.71113	0.90877
869.78257	0.91934
867.85400	0.93094
865.92544	0.94253
863.99687	0.95353
862.06831	0.96573
860.13975	0.97817
858.21118	0.98869
856.28262	0.99934
854.35405	1.01161
852.42549	1.02426
850.49692	1.03689
848.56836	1.04951
846.63979	1.06213
844.71123	1.07434
842.78267	1.08516
840.85410	1.09613
838.92554	1.10693
836.99697	1.11561
835.06841	1.12399
833.13984	1.13255
831.21128	1.14162
829.28271	1.15305
827.35415	1.16395
825.42559	1.17080
823.49702	1.17668
821.56846	1.18768
819.63989	1.20469
817.71133	1.21574
815.78276	1.21446
813.85420	1.21422
811.92563	1.22273
809.99707	1.24037
808.06851	1.26058
806.13994	1.26545
804.21138	1.26500
802.28281	1.28335
800.35425	1.30168
798.42568	1.27964
796.49712	1.24307
794.56855	1.24880
792.63999	1.28348
790.71143	1.30567
788.78286	1.32649
786.85430	1.33766
784.92573	1.32751
782.99717	1.31165
781.06860	1.29290
779.14004	1.27714
777.21147	1.30827
775.28291	1.34756
773.35435	1.26763
771.42578	1.19048
769.49722	1.22344
767.56865	1.30839
765.64009	1.24431
763.71152	1.11349
761.78296	1.06162
759.85439	1.06237
757.92583	1.03407
755.99727	0.98727
754.06870	0.92241
752.14014	0.85170
750.21157	0.82520
748.28301	0.83947
746.35444	0.85145
744.42588	0.83318
742.49731	0.77739
740.56875	0.71792
738.64019	0.65876
736.71162	0.56580
734.78306	0.44449
732.85449	0.33486
730.92593	0.24414
728.99736	0.14887
727.06880	0.06107
725.14023	-0.03981
723.21167	-0.21492
721.28311	-0.70981
719.35454	4.31613
717.42598	4.30456
715.49741	-0.73487
713.56885	-0.51460
711.64028	-0.24168
709.71172	-0.10234
707.78315	-0.10869
705.85459	-0.11301
703.92603	-0.04048
701.99746	0.05145
700.06890	0.08298
698.14033	0.06672
696.21177	0.07108
694.28320	0.10356
692.35464	0.11668
690.42607	0.09385
688.49751	0.06301
686.56895	0.04738
684.64038	0.03157
682.71182	0.03179
680.78325	0.06836
678.85469	0.12161
676.92612	0.16442
674.99756	0.17135
673.06899	0.17828
671.14043	0.21985
669.21187	0.24135
667.28330	0.17804
665.35474	0.10620
663.42617	0.08356
661.49761	0.12810
659.56904	0.18753
657.64048	0.18770
655.71191	0.17459
653.78335	0.18670
651.85479	0.18047
649.92622	0.14027
647.99766	0.12562
646.06909	0.15711
644.14053	0.19238
642.21196	0.18111
640.28340	0.14010
638.35483	0.10652
636.42627	0.11439
634.49771	0.14307
632.56914	0.11662
630.64058	0.06410
628.71201	0.02635
626.78345	-0.00109
624.85488	0.01876
622.92632	0.07088
620.99775	0.10373
619.06919	0.12406
617.14062	0.13553
615.21206	0.13544
613.28350	0.14423
611.35493	0.16847
609.42637	0.18203
607.49780	0.16678
605.56924	0.13438
603.64067	0.11453
601.71211	0.10226
599.78354	0.08536
597.85498	0.07668
595.92642	0.08119
593.99785	0.08332
592.06929	0.07981
590.14072	0.07579
588.21216	0.08501
586.28359	0.12457
584.35503	0.16588
582.42646	0.15500
580.49790	0.11246
578.56934	0.09835
576.64077	0.10198
574.71221	0.08292
572.78364	0.08181
570.85508	0.12025
568.92651	0.13587
566.99795	0.10174
565.06938	0.08977
563.14082	0.12641
561.21226	0.16693
559.28369	0.16011
557.35513	0.12162
555.42656	0.11393
553.49800	0.13838
551.56943	0.15574
549.64087	0.15489
547.71230	0.13971
545.78374	0.11147
543.85518	0.09711
541.92661	0.10811
539.99805	0.11111
538.06948	0.09136
536.14092	0.07965
534.21235	0.10166
532.28379	0.11969
530.35522	0.09819
528.42666	0.07458
526.49810	0.07900
524.56953	0.09736
522.64097	0.11095
520.71240	0.11163
518.78384	0.09925
516.85527	0.08647
514.92671	0.09568
512.99814	0.12126
511.06958	0.11716
509.14102	0.08802
507.21245	0.08278
505.28389	0.09097
503.35532	0.09457
501.42676	0.11372
499.49819	0.13499
