3997.91411	0.07197
3995.98555	0.07216
3994.05698	0.07273
3992.12842	0.07342
3990.19985	0.07346
3988.27129	0.07330
3986.34272	0.07358
3984.41416	0.07399
3982.48560	0.07441
3980.55703	0.07483
3978.62847	0.07505
3976.69990	0.07526
3974.77134	0.07561
3972.84277	0.07581
3970.91421	0.07575
3968.98564	0.07565
3967.05708	0.07571
3965.12852	0.07582
3963.19995	0.07582
3961.27139	0.07584
3959.34282	0.07602
3957.41426	0.07631
3955.48569	0.07674
3953.55713	0.07703
3951.62856	0.07698
3949.70000	0.07685
3947.77144	0.07687
3945.84287	0.07676
3943.91431	0.07645
3941.98574	0.07639
3940.05718	0.07640
3938.12861	0.07630
3936.20005	0.07633
3934.27148	0.07644
3932.34292	0.07662
3930.41436	0.07669
3928.48579	0.07632
3926.55723	0.07584
3924.62866	0.07580
3922.70010	0.07620
3920.77153	0.07652
3918.84297	0.07656
3916.91440	0.07657
3914.98584	0.07634
3913.05728	0.07592
3911.12871	0.07587
3909.20015	0.07598
3907.27158	0.07610
3905.34302	0.07645
3903.41445	0.07677
3901.48589	0.07672
3899.55732	0.07642
3897.62876	0.07565
3895.70020	0.07471
3893.77163	0.07449
3891.84307	0.07510
3889.91450	0.07588
3887.98594	0.07598
3886.05737	0.07585
3884.12881	0.07592
3882.20024	0.07610
3880.27168	0.07645
3878.34312	0.07630
3876.41455	0.07577
3874.48599	0.07603
3872.55742	0.07716
3870.62886	0.07833
3868.70029	0.07883
3866.77173	0.07861
3864.84316	0.07865
3862.91460	0.07883
3860.98604	0.07833
3859.05747	0.07778
3857.12891	0.07789
3855.20034	0.07886
3853.27178	0.08092
3851.34321	0.08198
3849.41465	0.08083
3847.48608	0.08004
3845.55752	0.08031
3843.62896	0.08153
3841.70039	0.08320
3839.77183	0.08460
3837.84326	0.08565
3835.91470	0.08619
3833.98613	0.08617
3832.05757	0.08621
3830.12900	0.08640
3828.20044	0.08656
3826.27187	0.08699
3824.34331	0.08779
3822.41475	0.08932
3820.48618	0.09182
3818.55762	0.09273
3816.62905	0.09188
3814.70049	0.09160
3812.77192	0.09200
3810.84336	0.09263
3808.91479	0.09345
3806.98623	0.09469
3805.05767	0.09640
3803.12910	0.09808
3801.20054	0.10008
3799.27197	0.10167
3797.34341	0.10204
3795.41484	0.10246
3793.48628	0.10312
3791.55771	0.10375
3789.62915	0.10457
3787.70059	0.10591
3785.77202	0.10803
3783.84346	0.11021
3781.91489	0.11181
3779.98633	0.11338
3778.05776	0.11488
3776.12920	0.11590
3774.20063	0.11695
3772.27207	0.11816
3770.34351	0.11992
3768.41494	0.12262
3766.48638	0.12508
3764.55781	0.12682
3762.62925	0.12821
3760.70068	0.12996
3758.77212	0.13248
3756.84355	0.13494
3754.91499	0.13700
3752.98643	0.13953
3751.05786	0.14324
3749.12930	0.14759
3747.20073	0.15029
3745.27217	0.15241
3743.34360	0.15603
3741.41504	0.15929
3739.48647	0.16128
3737.55791	0.16401
3735.62935	0.16887
3733.70078	0.17473
3731.77222	0.17886
3729.84365	0.18204
3727.91509	0.18588
3725.98652	0.19117
3724.05796	0.19728
3722.12939	0.20330
3720.20083	0.20988
3718.27227	0.21725
3716.34370	0.22488
3714.41514	0.23234
3712.48657	0.24105
3710.55801	0.25340
3708.62944	0.26716
3706.70088	0.27870
3704.77231	0.28944
3702.84375	0.30160
3700.91519	0.31729
3698.98662	0.33501
3697.05806	0.35223
3695.12949	0.37036
3693.20093	0.38961
3691.27236	0.41065
3689.34380	0.43748
3687.41523	0.47009
3685.48667	0.49946
3683.55811	0.52551
3681.62954	0.55329
3679.70098	0.58406
3677.77241	0.61628
3675.84385	0.65496
3673.91528	0.70736
3671.98672	0.75012
3670.05815	0.78743
3668.12959	0.83818
3666.20103	0.88509
3664.27246	0.92478
3662.34390	0.96748
3660.41533	1.01366
3658.48677	1.05876
3656.55820	1.10603
3654.62964	1.15925
3652.70107	1.20501
3650.77251	1.24449
3648.84395	1.29785
3646.91538	1.36446
3644.98682	1.41470
3643.05825	1.45334
3641.12969	1.49303
3639.20112	1.53673
3637.27256	1.58037
3635.34399	1.62278
3633.41543	1.66529
3631.48687	1.70554
3629.55830	1.74710
3627.62974	1.80058
3625.70117	1.84937
3623.77261	1.88258
3621.84404	1.91468
3619.91548	1.95182
3617.98691	1.99696
3616.05835	2.04071
3614.12979	2.07759
3612.20122	2.11607
3610.27266	2.15558
3608.34409	2.19611
3606.41553	2.23820
3604.48696	2.27674
3602.55840	2.31193
3600.62983	2.34985
3598.70127	2.38978
3596.77271	2.42805
3594.84414	2.46723
3592.91558	2.50859
3590.98701	2.54904
3589.05845	2.58798
3587.12988	2.63254
3585.20132	2.67966
3583.27275	2.72035
3581.34419	2.75855
3579.41562	2.79860
3577.48706	2.84091
3575.55850	2.88491
3573.62993	2.92987
3571.70137	2.97206
3569.77280	3.01110
3567.84424	3.05241
3565.91567	3.10256
3563.98711	3.15269
3562.05854	3.19639
3560.12998	3.24005
3558.20142	3.28551
3556.27285	3.33058
3554.34429	3.37381
3552.41572	3.41991
3550.48716	3.46907
3548.55859	3.51633
3546.63003	3.56238
3544.70146	3.61012
3542.77290	3.65827
3540.84434	3.70705
3538.91577	3.75527
3536.98721	3.80059
3535.05864	3.84755
3533.13008	3.89479
3531.20151	3.94108
3529.27295	3.99114
3527.34438	4.04449
3525.41582	4.09400
3523.48726	4.13807
3521.55869	4.18304
3519.63013	4.23096
3517.70156	4.28046
3515.77300	4.33016
3513.84443	4.37780
3511.91587	4.42134
3509.98730	4.46714
3508.05874	4.52205
3506.13018	4.57917
3504.20161	4.62932
3502.27305	4.67523
3500.34448	4.72402
3498.41592	4.77401
3496.48735	4.82455
3494.55879	4.87583
3492.63022	4.92325
3490.70166	4.96906
3488.77310	5.01757
3486.84453	5.06411
3484.91597	5.10719
3482.98740	5.15208
3481.05884	5.20043
3479.13027	5.25347
3477.20171	5.30890
3475.27314	5.35856
3473.34458	5.40638
3471.41602	5.46003
3469.48745	5.51043
3467.55889	5.54996
3465.63032	5.59193
3463.70176	5.64559
3461.77319	5.69605
3459.84463	5.74009
3457.91606	5.79036
3455.98750	5.85268
3454.05894	5.91721
3452.13037	5.96830
3450.20181	6.01286
3448.27324	6.06070
3446.34468	6.11272
3444.41611	6.17058
3442.48755	6.22711
3440.55898	6.27192
3438.63042	6.31457
3436.70186	6.36109
3434.77329	6.40914
3432.84473	6.46395
3430.91616	6.51604
3428.98760	6.55520
3427.05903	6.59256
3425.13047	6.64267
3423.20190	6.69332
3421.27334	6.74104
3419.34478	6.79804
3417.41621	6.86208
3415.48765	6.91236
3413.55908	6.93716
3411.63052	6.96025
3409.70195	6.99395
3407.77339	7.04721
3405.84482	7.11370
3403.91626	7.16745
3401.98770	7.21633
3400.05913	7.28198
3398.13057	7.32424
3396.20200	7.34048
3394.27344	7.40007
3392.34487	7.46962
3390.41631	7.49976
3388.48774	7.52140
3386.55918	7.56961
3384.63062	7.61090
3382.70205	7.61068
3380.77349	7.61219
3378.84492	7.64673
3376.91636	7.71327
3374.98779	7.79922
3373.05923	7.88104
3371.13066	7.92103
3369.20210	7.91047
3367.27354	7.85360
3365.34497	7.83111
3363.41641	7.90293
3361.48784	7.98324
3359.55928	8.00457
3357.63071	8.00191
3355.70215	8.01843
3353.77358	8.00568
3351.84502	7.97300
3349.91646	8.00743
3347.98789	8.10015
3346.05933	8.17522
3344.13076	8.21596
3342.20220	8.21923
3340.27363	8.15538
3338.34507	8.05728
3336.41650	7.98280
3334.48794	8.00758
3332.55937	8.10295
3330.63081	8.18865
3328.70225	8.25846
3326.77368	8.29640
3324.84512	8.31286
3322.91655	8.29223
3320.98799	8.20757
3319.05942	8.13480
3317.13086	8.19271
3315.20229	8.38129
3313.27373	8.50289
3311.34517	8.41050
3309.41660	8.26153
3307.48804	8.19299
3305.55947	8.24304
3303.63091	8.35297
3301.70234	8.35484
3299.77378	8.29903
3297.84521	8.27454
3295.91665	8.24461
3293.98809	8.22421
3292.05952	8.22969
3290.13096	8.23427
3288.20239	8.25643
3286.27383	8.34686
3284.34526	8.45953
3282.41670	8.53170
3280.48813	8.55266
3278.55957	8.49849
3276.63101	8.38916
3274.70244	8.33320
3272.77388	8.34791
3270.84531	8.34727
3268.91675	8.36458
3266.98818	8.45410
3265.05962	8.54941
3263.13105	8.58417
3261.20249	8.58786
3259.27393	8.54676
3257.34536	8.42778
3255.41680	8.32673
3253.48823	8.31841
3251.55967	8.39234
3249.63110	8.53804
3247.70254	8.65856
3245.77397	8.62319
3243.84541	8.51082
3241.91685	8.43924
3239.98828	8.39841
3238.05972	8.33438
3236.13115	8.31060
3234.20259	8.35913
3232.27402	8.39044
3230.34546	8.37534
3228.41689	8.31000
3226.48833	8.22965
3224.55977	8.19697
3222.63120	8.20488
3220.70264	8.24902
3218.77407	8.31532
3216.84551	8.29742
3214.91694	8.23010
3212.98838	8.22487
3211.05981	8.19420
3209.13125	8.12988
3207.20269	8.08588
3205.27412	7.98614
3203.34556	7.90112
3201.41699	7.93645
3199.48843	7.97862
3197.55986	7.93606
3195.63130	7.87377
3193.70273	7.79241
3191.77417	7.71254
3189.84561	7.69093
3187.91704	7.68480
3185.98848	7.63245
3184.05991	7.55711
3182.13135	7.51709
3180.20278	7.50759
3178.27422	7.48727
3176.34565	7.46779
3174.41709	7.42291
3172.48853	7.29618
3170.55996	7.15213
3168.63140	7.07415
3166.70283	7.04136
3164.77427	6.99750
3162.84570	6.92904
3160.91714	6.85189
3158.98857	6.78698
3157.06001	6.72745
3155.13145	6.65342
3153.20288	6.57152
3151.27432	6.49898
3149.34575	6.44026
3147.41719	6.38390
3145.48862	6.32505
3143.56006	6.26253
3141.63149	6.18687
3139.70293	6.10000
3137.77437	6.01519
3135.84580	5.94531
3133.91724	5.88482
3131.98867	5.81481
3130.06011	5.73629
3128.13154	5.65795
3126.20298	5.57829
3124.27441	5.49796
3122.34585	5.42624
3120.41729	5.36468
3118.48872	5.29917
3116.56016	5.22444
3114.63159	5.15273
3112.70303	5.08777
3110.77446	5.01500
3108.84590	4.93841
3106.91733	4.87036
3104.98877	4.80288
3103.06021	4.73347
3101.13164	4.66320
3099.20308	4.59273
3097.27451	4.52897
3095.34595	4.46830
3093.41738	4.40243
3091.48882	4.33408
3089.56025	4.26889
3087.63169	4.20749
3085.70312	4.14763
3083.77456	4.08655
3081.84600	4.02418
3079.91743	3.96169
3077.98887	3.90013
3076.06030	3.83914
3074.13174	3.77948
3072.20317	3.72293
3070.27461	3.66675
3068.34604	3.60895
3066.41748	3.55058
3064.48892	3.49349
3062.56035	3.43903
3060.63179	3.38470
3058.70322	3.32827
3056.77466	3.27233
3054.84609	3.21815
3052.91753	3.16429
3050.98896	3.11225
3049.06040	3.06213
3047.13184	3.01130
3045.20327	2.95947
3043.27471	2.90811
3041.34614	2.85858
3039.41758	2.81164
3037.48901	2.76646
3035.56045	2.72139
3033.63188	2.67542
3031.70332	2.62857
3029.77476	2.58212
3027.84619	2.53710
3025.91763	2.49312
3023.98906	2.44962
3022.06050	2.40640
3020.13193	2.36348
3018.20337	2.32141
3016.27480	2.28075
3014.34624	2.24126
3012.41768	2.20243
3010.48911	2.16377
3008.56055	2.12570
3006.63198	2.08883
3004.70342	2.05287
3002.77485	2.01729
3000.84629	1.98215
2998.91772	1.94806
2996.98916	1.91531
2995.06060	1.88343
2993.13203	1.85194
2991.20347	1.82125
2989.27490	1.79124
2987.34634	1.76144
2985.41777	1.73279
2983.48921	1.70513
2981.56064	1.67757
2979.63208	1.65069
2977.70352	1.62493
2975.77495	1.59963
2973.84639	1.57446
2971.91782	1.54967
2969.98926	1.52533
2968.06069	1.50140
2966.13213	1.47776
2964.20356	1.45426
2962.27500	1.43062
2960.34644	1.40688
2958.41787	1.38348
2956.48931	1.35995
2954.56074	1.33590
2952.63218	1.31165
2950.70361	1.28778
2948.77505	1.26469
2946.84648	1.24226
2944.91792	1.22073
2942.98936	1.20010
2941.06079	1.17997
2939.13223	1.16031
2937.20366	1.14085
2935.27510	1.12104
2933.34653	1.10099
2931.41797	1.08063
2929.48940	1.05970
2927.56084	1.03917
2925.63228	1.02015
2923.70371	1.00230
2921.77515	0.98509
2919.84658	0.96835
2917.91802	0.95107
2915.98945	0.93268
2914.06089	0.91440
2912.13232	0.89762
2910.20376	0.88215
2908.27520	0.86691
2906.34663	0.85158
2904.41807	0.83660
2902.48950	0.82191
2900.56094	0.80700
2898.63237	0.79227
2896.70381	0.77865
2894.77524	0.76601
2892.84668	0.75370
2890.91812	0.74177
2888.98955	0.73026
2887.06099	0.71894
2885.13242	0.70819
2883.20386	0.69818
2881.27529	0.68832
2879.34673	0.67867
2877.41816	0.66943
2875.48960	0.65991
2873.56104	0.64958
2871.63247	0.63869
2869.70391	0.62749
2867.77534	0.61595
2865.84678	0.60400
2863.91821	0.59188
2861.98965	0.58007
2860.06108	0.56887
2858.13252	0.55815
2856.20396	0.54780
2854.27539	0.53805
2852.34683	0.52901
2850.41826	0.52055
2848.48970	0.51221
2846.56113	0.50373
2844.63257	0.49560
2842.70400	0.48818
2840.77544	0.48142
2838.84687	0.47501
2836.91831	0.46872
2834.98975	0.46244
2833.06118	0.45616
2831.13262	0.45002
2829.20405	0.44391
2827.27549	0.43757
2825.34692	0.43107
2823.41836	0.42487
2821.48979	0.41913
2819.56123	0.41351
2817.63267	0.40765
2815.70410	0.40166
2813.77554	0.39593
2811.84697	0.39051
2809.91841	0.38500
2807.98984	0.37933
2806.06128	0.37386
2804.13271	0.36873
2802.20415	0.36358
2800.27559	0.35846
2798.34702	0.35361
2796.41846	0.34880
2794.48989	0.34405
2792.56133	0.33949
2790.63276	0.33484
2788.70420	0.33011
2786.77563	0.32556
2784.84707	0.32112
2782.91851	0.31676
2780.98994	0.31255
2779.06138	0.30849
2777.13281	0.30451
2775.20425	0.30057
2773.27568	0.29666
2771.34712	0.29285
2769.41855	0.28911
2767.48999	0.28541
2765.56143	0.28183
2763.63286	0.27838
2761.70430	0.27494
2759.77573	0.27159
2757.84717	0.26849
2755.91860	0.26548
2753.99004	0.26221
2752.06147	0.25880
2750.13291	0.25572
2748.20435	0.25289
2746.27578	0.24992
2744.34722	0.24686
2742.41865	0.24403
2740.49009	0.24149
2738.56152	0.23900
2736.63296	0.23642
2734.70439	0.23394
2732.77583	0.23149
2730.84727	0.22884
2728.91870	0.22620
2726.99014	0.22392
2725.06157	0.22190
2723.13301	0.21989
2721.20444	0.21780
2719.27588	0.21567
2717.34731	0.21367
2715.41875	0.21176
2713.49019	0.20977
2711.56162	0.20784
2709.63306	0.20612
2707.70449	0.20451
2705.77593	0.20291
2703.84736	0.20122
2701.91880	0.19940
2699.99023	0.19771
2698.06167	0.19618
2696.13311	0.19466
2694.20454	0.19324
2692.27598	0.19203
2690.34741	0.19101
2688.41885	0.18990
2686.49028	0.18841
2684.56172	0.18671
2682.63315	0.18516
2680.70459	0.18387
2678.77603	0.18285
2676.84746	0.18193
2674.91890	0.18088
2672.99033	0.17976
2671.06177	0.17875
2669.13320	0.17781
2667.20464	0.17680
2665.27607	0.17573
2663.34751	0.17471
2661.41895	0.17382
2659.49038	0.17297
2657.56182	0.17217
2655.63325	0.17145
2653.70469	0.17076
2651.77612	0.17010
2649.84756	0.16943
2647.91899	0.16871
2645.99043	0.16796
2644.06187	0.16729
2642.13330	0.16676
2640.20474	0.16622
2638.27617	0.16556
2636.34761	0.16489
2634.41904	0.16427
2632.49048	0.16372
2630.56191	0.16339
2628.63335	0.16320
2626.70479	0.16292
2624.77622	0.16244
2622.84766	0.16195
2620.91909	0.16156
2618.99053	0.16124
2617.06196	0.16092
2615.13340	0.16061
2613.20483	0.16031
2611.27627	0.16013
2609.34771	0.16018
2607.41914	0.16027
2605.49058	0.16010
2603.56201	0.15982
2601.63345	0.15969
2599.70488	0.15970
2597.77632	0.15983
2595.84775	0.15998
2593.91919	0.16002
2591.99062	0.15996
2590.06206	0.15986
2588.13350	0.15968
2586.20493	0.15952
2584.27637	0.15963
2582.34780	0.16007
2580.41924	0.16062
2578.49067	0.16094
2576.56211	0.16098
2574.63354	0.16102
2572.70498	0.16130
2570.77642	0.16173
2568.84785	0.16218
2566.91929	0.16257
2564.99072	0.16291
2563.06216	0.16332
2561.13359	0.16373
2559.20503	0.16409
2557.27646	0.16444
2555.34790	0.16478
2553.41934	0.16510
2551.49077	0.16555
2549.56221	0.16613
2547.63364	0.16669
2545.70508	0.16724
2543.77651	0.16774
2541.84795	0.16815
2539.91938	0.16862
2537.99082	0.16936
2536.06226	0.17017
2534.13369	0.17080
2532.20513	0.17140
2530.27656	0.17209
2528.34800	0.17276
2526.41943	0.17345
2524.49087	0.17423
2522.56230	0.17497
2520.63374	0.17553
2518.70518	0.17604
2516.77661	0.17670
2514.84805	0.17743
2512.91948	0.17816
2510.99092	0.17900
2509.06235	0.17977
2507.13379	0.18040
2505.20522	0.18116
2503.27666	0.18202
2501.34810	0.18276
2499.41953	0.18345
2497.49097	0.18421
2495.56240	0.18509
2493.63384	0.18599
2491.70527	0.18684
2489.77671	0.18762
2487.84814	0.18842
2485.91958	0.18922
2483.99102	0.19004
2482.06245	0.19091
2480.13389	0.19170
2478.20532	0.19255
2476.27676	0.19360
2474.34819	0.19462
2472.41963	0.19552
2470.49106	0.19633
2468.56250	0.19702
2466.63394	0.19774
2464.70537	0.19864
2462.77681	0.19963
2460.84824	0.20059
2458.91968	0.20147
2456.99111	0.20236
2455.06255	0.20327
2453.13398	0.20419
2451.20542	0.20504
2449.27686	0.20589
2447.34829	0.20683
2445.41973	0.20774
2443.49116	0.20861
2441.56260	0.20955
2439.63403	0.21056
2437.70547	0.21161
2435.77690	0.21261
2433.84834	0.21353
2431.91978	0.21450
2429.99121	0.21566
2428.06265	0.21687
2426.13408	0.21798
2424.20552	0.21907
2422.27695	0.22011
2420.34839	0.22101
2418.41982	0.22201
2416.49126	0.22321
2414.56270	0.22449
2412.63413	0.22578
2410.70557	0.22697
2408.77700	0.22802
2406.84844	0.22899
2404.91987	0.22999
2402.99131	0.23118
2401.06274	0.23249
2399.13418	0.23370
2397.20562	0.23481
2395.27705	0.23593
2393.34849	0.23709
2391.41992	0.23827
2389.49136	0.23942
2387.56279	0.24063
2385.63423	0.24192
2383.70566	0.24322
2381.77710	0.24447
2379.84854	0.24582
2377.91997	0.24727
2375.99141	0.24866
2374.06284	0.25001
2372.13428	0.25132
2370.20571	0.25257
2368.27715	0.25392
2366.34858	0.25547
2364.42002	0.25677
2362.49146	0.25782
2360.56289	0.25942
2358.63433	0.26151
2356.70576	0.26339
2354.77720	0.26490
2352.84863	0.26630
2350.92007	0.26775
2348.99150	0.26897
2347.06294	0.26976
2345.13437	0.27060
2343.20581	0.27250
2341.27725	0.27537
2339.34868	0.27765
2337.42012	0.27878
2335.49155	0.27975
2333.56299	0.28118
2331.63442	0.28294
2329.70586	0.28470
2327.77729	0.28639
2325.84873	0.28801
2323.92017	0.28969
2321.99160	0.29156
2320.06304	0.29331
2318.13447	0.29489
2316.20591	0.29657
2314.27734	0.29837
2312.34878	0.29997
2310.42021	0.30127
2308.49165	0.30274
2306.56309	0.30479
2304.63452	0.30707
2302.70596	0.30904
2300.77739	0.31076
2298.84883	0.31250
2296.92026	0.31434
2294.99170	0.31621
2293.06313	0.31808
2291.13457	0.31987
2289.20601	0.32172
2287.27744	0.32376
2285.34888	0.32581
2283.42031	0.32770
2281.49175	0.32952
2279.56318	0.33143
2277.63462	0.33336
2275.70605	0.33538
2273.77749	0.33750
2271.84893	0.33965
2269.92036	0.34180
2267.99180	0.34394
2266.06323	0.34612
2264.13467	0.34837
2262.20610	0.35049
2260.27754	0.35245
2258.34897	0.35449
2256.42041	0.35660
2254.49185	0.35864
2252.56328	0.36075
2250.63472	0.36301
2248.70615	0.36530
2246.77759	0.36755
2244.84902	0.36975
2242.92046	0.37189
2240.99189	0.37407
2239.06333	0.37628
2237.13477	0.37846
2235.20620	0.38064
2233.27764	0.38293
2231.34907	0.38525
2229.42051	0.38749
2227.49194	0.38967
2225.56338	0.39195
2223.63481	0.39421
2221.70625	0.39623
2219.77769	0.39829
2217.84912	0.40049
2215.92056	0.40267
2213.99199	0.40482
2212.06343	0.40699
2210.13486	0.40909
2208.20630	0.41129
2206.27773	0.41366
2204.34917	0.41585
2202.42061	0.41770
2200.49204	0.41944
2198.56348	0.42132
2196.63491	0.42340
2194.70635	0.42546
2192.77778	0.42730
2190.84922	0.42910
2188.92065	0.43106
2186.99209	0.43307
2185.06353	0.43479
2183.13496	0.43625
2181.20640	0.43779
2179.27783	0.43949
2177.34927	0.44117
2175.42070	0.44280
2173.49214	0.44433
2171.56357	0.44565
2169.63501	0.44694
2167.70645	0.44827
2165.77788	0.44942
2163.84932	0.45039
2161.92075	0.45141
2159.99219	0.45252
2158.06362	0.45359
2156.13506	0.45456
2154.20649	0.45551
2152.27793	0.45636
2150.34937	0.45700
2148.42080	0.45754
2146.49224	0.45799
2144.56367	0.45822
2142.63511	0.45846
2140.70654	0.45884
2138.77798	0.45917
2136.84941	0.45928
2134.92085	0.45925
2132.99229	0.45923
2131.06372	0.45918
2129.13516	0.45898
2127.20659	0.45862
2125.27803	0.45816
2123.34946	0.45772
2121.42090	0.45732
2119.49233	0.45671
2117.56377	0.45595
2115.63521	0.45520
2113.70664	0.45426
2111.77808	0.45311
2109.84951	0.45203
2107.92095	0.45101
2105.99238	0.44980
2104.06382	0.44849
2102.13525	0.44713
2100.20669	0.44569
2098.27812	0.44422
2096.34956	0.44274
2094.42100	0.44118
2092.49243	0.43951
2090.56387	0.43778
2088.63530	0.43599
2086.70674	0.43413
2084.77817	0.43222
2082.84961	0.43030
2080.92104	0.42831
2078.99248	0.42619
2077.06392	0.42399
2075.13535	0.42183
2073.20679	0.41968
2071.27822	0.41751
2069.34966	0.41522
2067.42109	0.41279
2065.49253	0.41032
2063.56396	0.40779
2061.63540	0.40533
2059.70684	0.40287
2057.77827	0.40031
2055.84971	0.39777
2053.92114	0.39527
2051.99258	0.39271
2050.06401	0.39001
2048.13545	0.38726
2046.20688	0.38456
2044.27832	0.38188
2042.34976	0.37908
2040.42119	0.37617
2038.49263	0.37335
2036.56406	0.37064
2034.63550	0.36792
2032.70693	0.36519
2030.77837	0.36253
2028.84980	0.35979
2026.92124	0.35699
2024.99268	0.35422
2023.06411	0.35141
2021.13555	0.34856
2019.20698	0.34572
2017.27842	0.34286
2015.34985	0.34006
2013.42129	0.33745
2011.49272	0.33488
2009.56416	0.33218
2007.63560	0.32938
2005.70703	0.32663
2003.77847	0.32393
2001.84990	0.32119
1999.92134	0.31846
1997.99277	0.31585
1996.06421	0.31334
1994.13564	0.31089
1992.20708	0.30845
1990.27852	0.30592
1988.34995	0.30342
1986.42139	0.30096
1984.49282	0.29862
1982.56426	0.29637
1980.63569	0.29412
1978.70713	0.29191
1976.77856	0.28968
1974.85000	0.28731
1972.92144	0.28496
1970.99287	0.28287
1969.06431	0.28101
1967.13574	0.27912
1965.20718	0.27710
1963.27861	0.27515
1961.35005	0.27329
1959.42148	0.27144
1957.49292	0.26963
1955.56436	0.26785
1953.63579	0.26612
1951.70723	0.26435
1949.77866	0.26263
1947.85010	0.26108
1945.92153	0.25966
1943.99297	0.25833
1942.06440	0.25698
1940.13584	0.25549
1938.20728	0.25398
1936.27871	0.25258
1934.35015	0.25130
1932.42158	0.25007
1930.49302	0.24881
1928.56445	0.24760
1926.63589	0.24652
1924.70732	0.24564
1922.77876	0.24478
1920.85020	0.24385
1918.92163	0.24293
1916.99307	0.24206
1915.06450	0.24121
1913.13594	0.24038
1911.20737	0.23967
1909.27881	0.23910
1907.35024	0.23858
1905.42168	0.23804
1903.49312	0.23747
1901.56455	0.23680
1899.63599	0.23624
1897.70742	0.23594
1895.77886	0.23565
1893.85029	0.23522
1891.92173	0.23473
1889.99316	0.23445
1888.06460	0.23421
1886.13604	0.23391
1884.20747	0.23376
1882.27891	0.23368
1880.35034	0.23358
1878.42178	0.23348
1876.49321	0.23346
1874.56465	0.23344
1872.63608	0.23346
1870.70752	0.23360
1868.77896	0.23401
1866.85039	0.23436
1864.92183	0.23444
1862.99326	0.23457
1861.06470	0.23479
1859.13613	0.23510
1857.20757	0.23548
1855.27900	0.23600
1853.35044	0.23657
1851.42187	0.23716
1849.49331	0.23772
1847.56475	0.23834
1845.63618	0.23922
1843.70762	0.24029
1841.77905	0.24100
1839.85049	0.24134
1837.92192	0.24198
1835.99336	0.24292
1834.06479	0.24405
1832.13623	0.24522
1830.20767	0.24657
1828.27910	0.24796
1826.35054	0.24911
1824.42197	0.25045
1822.49341	0.25170
1820.56484	0.25287
1818.63628	0.25426
1816.70771	0.25596
1814.77915	0.25760
1812.85059	0.25931
1810.92202	0.26132
1808.99346	0.26334
1807.06489	0.26527
1805.13633	0.26726
1803.20776	0.26958
1801.27920	0.27212
1799.35063	0.27485
1797.42207	0.27726
1795.49351	0.27957
1793.56494	0.28233
1791.63638	0.28596
1789.70781	0.28944
1787.77925	0.29204
1785.85068	0.29511
1783.92212	0.29880
1781.99355	0.30276
1780.06499	0.30690
1778.13643	0.31111
1776.20786	0.31508
1774.27930	0.31943
1772.35073	0.32536
1770.42217	0.33171
1768.49360	0.33693
1766.56504	0.34196
1764.63647	0.34727
1762.70791	0.35319
1760.77935	0.36061
1758.85078	0.36758
1756.92222	0.37460
1754.99365	0.38227
1753.06509	0.38931
1751.13652	0.39764
1749.20796	0.40809
1747.27939	0.41851
1745.35083	0.42780
1743.42227	0.43759
1741.49370	0.44834
1739.56514	0.46089
1737.63657	0.47326
1735.70801	0.48397
1733.77944	0.50001
1731.85088	0.51947
1729.92231	0.53518
1727.99375	0.55089
1726.06519	0.56761
1724.13662	0.58597
1722.20806	0.60601
1720.27949	0.62456
1718.35093	0.64605
1716.42236	0.67761
1714.49380	0.70789
1712.56523	0.73276
1710.63667	0.75705
1708.70811	0.78314
1706.77954	0.81254
1704.85098	0.84784
1702.92241	0.87990
1700.99385	0.91184
1699.06528	0.95915
1697.13672	1.00310
1695.20815	1.04871
1693.27959	1.09360
1691.35103	1.13049
1689.42246	1.17316
1687.49390	1.21795
1685.56533	1.26113
1683.63677	1.32837
1681.70820	1.39877
1679.77964	1.44385
1677.85107	1.48636
1675.92251	1.53528
1673.99395	1.59660
1672.06538	1.65260
1670.13682	1.70814
1668.20825	1.77994
1666.27969	1.83910
1664.35112	1.88993
1662.42256	1.95449
1660.49399	2.02836
1658.56543	2.08677
1656.63687	2.13306
1654.70830	2.17293
1652.77974	2.23235
1650.85117	2.29085
1648.92261	2.31265
1646.99404	2.33560
1645.06548	2.35559
1643.13691	2.36800
1641.20835	2.37551
1639.27979	2.38188
1637.35122	2.38275
1635.42266	2.37814
1633.49409	2.36860
1631.56553	2.35242
1629.63696	2.33206
1627.70840	2.29973
1625.77983	2.26273
1623.85127	2.21767
1621.92271	2.16230
1619.99414	2.11203
1618.06558	2.06311
1616.13701	1.99549
1614.20845	1.92847
1612.27988	1.87814
1610.35132	1.82595
1608.42275	1.76924
1606.49419	1.71348
1604.56562	1.66281
1602.63706	1.61413
1600.70850	1.56653
1598.77993	1.52282
1596.85137	1.48145
1594.92280	1.44117
1592.99424	1.40291
1591.06567	1.36844
1589.13711	1.33648
1587.20854	1.30666
1585.27998	1.27912
1583.35142	1.25418
1581.42285	1.23217
1579.49429	1.21367
1577.56572	1.19752
1575.63716	1.17890
1573.70859	1.16313
1571.78003	1.15321
1569.85146	1.14374
1567.92290	1.13432
1565.99434	1.12853
1564.06577	1.12591
1562.13721	1.12492
1560.20864	1.12576
1558.28008	1.13280
1556.35151	1.14164
1554.42295	1.14664
1552.49438	1.15149
1550.56582	1.15475
1548.63726	1.15429
1546.70869	1.14928
1544.78013	1.14000
1542.85156	1.12687
1540.92300	1.10644
1538.99443	1.07390
1537.06587	1.05007
1535.13730	1.03344
1533.20874	1.01076
1531.28018	0.98675
1529.35161	0.96955
1527.42305	0.95325
1525.49448	0.93638
1523.56592	0.92221
1521.63735	0.90879
1519.70879	0.89579
1517.78022	0.88507
1515.85166	0.87174
1513.92310	0.85712
1511.99453	0.84440
1510.06597	0.83313
1508.13740	0.82219
1506.20884	0.80513
1504.28027	0.79029
1502.35171	0.78216
1500.42314	0.77512
1498.49458	0.76759
1496.56602	0.75885
1494.63745	0.75030
1492.70889	0.74381
1490.78032	0.73806
1488.85176	0.73142
1486.92319	0.72546
1484.99463	0.72102
1483.06606	0.71769
1481.13750	0.71530
1479.20894	0.71383
1477.28037	0.71329
1475.35181	0.71348
1473.42324	0.71425
1471.49468	0.71477
1469.56611	0.71404
1467.63755	0.71251
1465.70898	0.71099
1463.78042	0.70974
1461.85186	0.70911
1459.92329	0.70929
1457.99473	0.71001
1456.06616	0.70984
1454.13760	0.70759
1452.20903	0.70475
1450.28047	0.70163
1448.35190	0.69829
1446.42334	0.69492
1444.49478	0.69188
1442.56621	0.68893
1440.63765	0.68573
1438.70908	0.68236
1436.78052	0.67807
1434.85195	0.67321
1432.92339	0.66970
1430.99482	0.66747
1429.06626	0.66620
1427.13770	0.66594
1425.20913	0.66659
1423.28057	0.66776
1421.35200	0.66864
1419.42344	0.66916
1417.49487	0.66933
1415.56631	0.66877
1413.63774	0.66838
1411.70918	0.66881
1409.78062	0.67010
1407.85205	0.67200
1405.92349	0.67437
1403.99492	0.67659
1402.06636	0.67753
1400.13779	0.67714
1398.20923	0.67548
1396.28066	0.67258
1394.35210	0.66836
1392.42354	0.66330
1390.49497	0.65850
1388.56641	0.65379
1386.63784	0.64821
1384.70928	0.64198
1382.78071	0.63606
1380.85215	0.63064
1378.92358	0.62594
1376.99502	0.62247
1375.06646	0.62032
1373.13789	0.61883
1371.20933	0.61759
1369.28076	0.61657
1367.35220	0.61538
1365.42363	0.61382
1363.49507	0.61218
1361.56650	0.61060
1359.63794	0.60889
1357.70937	0.60718
1355.78081	0.60567
1353.85225	0.60449
1351.92368	0.60370
1349.99512	0.60311
1348.06655	0.60239
1346.13799	0.60145
1344.20942	0.60048
1342.28086	0.59968
1340.35229	0.59917
1338.42373	0.59878
1336.49517	0.59827
1334.56660	0.59791
1332.63804	0.59795
1330.70947	0.59834
1328.78091	0.59890
1326.85234	0.59967
1324.92378	0.60071
1322.99521	0.60187
1321.06665	0.60293
1319.13809	0.60388
1317.20952	0.60454
1315.28096	0.60468
1313.35239	0.60445
1311.42383	0.60404
1309.49526	0.60346
1307.56670	0.60287
1305.63813	0.60249
1303.70957	0.60219
1301.78101	0.60170
1299.85244	0.60092
1297.92388	0.59982
1295.99531	0.59848
1294.06675	0.59717
1292.13818	0.59600
1290.20962	0.59477
1288.28105	0.59334
1286.35249	0.59183
1284.42393	0.59023
1282.49536	0.58857
1280.56680	0.58702
1278.63823	0.58557
1276.70967	0.58416
1274.78110	0.58277
1272.85254	0.58149
1270.92397	0.58048
1268.99541	0.57965
1267.06685	0.57879
1265.13828	0.57785
1263.20972	0.57688
1261.28115	0.57592
1259.35259	0.57495
1257.42402	0.57404
1255.49546	0.57343
1253.56689	0.57332
1251.63833	0.57356
1249.70977	0.57377
1247.78120	0.57374
1245.85264	0.57345
1243.92407	0.57286
1241.99551	0.57188
1240.06694	0.57033
1238.13838	0.56831
1236.20981	0.56611
1234.28125	0.56371
1232.35269	0.56104
1230.42412	0.55831
1228.49556	0.55579
1226.56699	0.55346
1224.63843	0.55120
1222.70986	0.54915
1220.78130	0.54736
1218.85273	0.54570
1216.92417	0.54422
1214.99561	0.54294
1213.06704	0.54186
1211.13848	0.54109
1209.20991	0.54049
1207.28135	0.53972
1205.35278	0.53877
1203.42422	0.53787
1201.49565	0.53693
1199.56709	0.53581
1197.63853	0.53474
1195.70996	0.53388
1193.78140	0.53325
1191.85283	0.53282
1189.92427	0.53250
1187.99570	0.53228
1186.06714	0.53219
1184.13857	0.53231
1182.21001	0.53281
1180.28145	0.53383
1178.35288	0.53538
1176.42432	0.53725
1174.49575	0.53896
1172.56719	0.54005
1170.63862	0.54040
1168.71006	0.54027
1166.78149	0.54006
1164.85293	0.53995
1162.92437	0.53993
1160.99580	0.53980
1159.06724	0.53947
1157.13867	0.53896
1155.21011	0.53816
1153.28154	0.53698
1151.35298	0.53524
1149.42441	0.53279
1147.49585	0.52991
1145.56729	0.52707
1143.63872	0.52448
1141.71016	0.52212
1139.78159	0.52009
1137.85303	0.51859
1135.92446	0.51756
1133.99590	0.51710
1132.06733	0.51722
1130.13877	0.51740
1128.21021	0.51719
1126.28164	0.51667
1124.35308	0.51612
1122.42451	0.51556
1120.49595	0.51510
1118.56738	0.51503
1116.63882	0.51527
1114.71025	0.51558
1112.78169	0.51583
1110.85312	0.51596
1108.92456	0.51647
1106.99600	0.51770
1105.06743	0.51908
1103.13887	0.52009
1101.21030	0.52103
1099.28174	0.52247
1097.35317	0.52455
1095.42461	0.52725
1093.49604	0.53076
1091.56748	0.53521
1089.63892	0.54080
1087.71035	0.54758
1085.78179	0.55520
1083.85322	0.56294
1081.92466	0.56988
1079.99609	0.57510
1078.06753	0.57785
1076.13896	0.57777
1074.21040	0.57501
1072.28184	0.57012
1070.35327	0.56394
1068.42471	0.55713
1066.49614	0.54994
1064.56758	0.54289
1062.63901	0.53685
1060.71045	0.53190
1058.78188	0.52741
1056.85332	0.52322
1054.92476	0.51948
1052.99619	0.51611
1051.06763	0.51332
1049.13906	0.51148
1047.21050	0.51027
1045.28193	0.50922
1043.35337	0.50845
1041.42480	0.50784
1039.49624	0.50698
1037.56768	0.50604
1035.63911	0.50532
1033.71055	0.50466
1031.78198	0.50383
1029.85342	0.50282
1027.92485	0.50175
1025.99629	0.50061
1024.06772	0.49952
1022.13916	0.49878
1020.21060	0.49861
1018.28203	0.49876
1016.35347	0.49896
1014.42490	0.49910
1012.49634	0.49919
1010.56777	0.49945
1008.63921	0.49985
1006.71064	0.50040
1004.78208	0.50160
1002.85352	0.50366
1000.92495	0.50627
998.99639	0.50938
997.06782	0.51312
995.13926	0.51728
993.21069	0.52148
991.28213	0.52507
989.35356	0.52753
987.42500	0.52879
985.49644	0.52906
983.56787	0.52892
981.63931	0.52900
979.71074	0.52965
977.78218	0.53104
975.85361	0.53305
973.92505	0.53548
971.99648	0.53843
970.06792	0.54204
968.13936	0.54599
966.21079	0.54991
964.28223	0.55391
962.35366	0.55812
960.42510	0.56277
958.49653	0.56829
956.56797	0.57430
954.63940	0.58043
952.71084	0.58680
950.78228	0.59341
948.85371	0.59990
946.92515	0.60620
944.99658	0.61277
943.06802	0.61938
941.13945	0.62516
939.21089	0.63071
937.28232	0.63693
935.35376	0.64294
933.42520	0.64831
931.49663	0.65380
929.56807	0.65955
927.63950	0.66563
925.71094	0.67204
923.78237	0.67853
921.85381	0.68537
919.92524	0.69246
917.99668	0.69933
916.06812	0.70634
914.13955	0.71397
912.21099	0.72183
910.28242	0.72948
908.35386	0.73764
906.42529	0.74693
904.49673	0.75655
902.56816	0.76615
900.63960	0.77606
898.71104	0.78589
896.78247	0.79549
894.85391	0.80508
892.92534	0.81542
890.99678	0.82700
889.06821	0.83859
887.13965	0.84881
885.21108	0.85800
883.28252	0.86849
881.35396	0.88173
879.42539	0.89513
877.49683	0.90564
875.56826	0.91473
873.63970	0.92533
871.71113	0.93772
869.78257	0.95085
867.85400	0.96400
865.92544	0.97623
863.99687	0.98714
862.06831	0.99855
860.13975	1.01260
858.21118	1.02828
856.28262	1.04189
854.35405	1.05254
852.42549	1.06244
850.49692	1.07253
848.56836	1.08359
846.63979	1.09666
844.71123	1.11105
842.78267	1.12481
840.85410	1.13675
838.92554	1.14578
836.99697	1.15252
835.06841	1.16131
833.13984	1.17414
831.21128	1.18918
829.28271	1.20554
827.35415	1.22166
825.42559	1.23096
823.49702	1.23064
821.56846	1.23316
819.63989	1.24740
817.71133	1.26249
815.78276	1.26902
813.85420	1.27474
811.92563	1.29443
809.99707	1.32508
808.06851	1.34075
806.13994	1.34930
804.21138	1.36978
802.28281	1.38395
800.35425	1.39171
798.42568	1.41564
796.49712	1.46623
794.56855	1.50496
792.63999	1.47102
790.71143	1.45065
788.78286	1.51435
786.85430	1.58493
784.92573	1.60001
782.99717	1.60203
781.06860	1.63659
779.14004	1.84682
777.21147	4.66327
775.28291	4.65170
773.35435	2.02476
771.42578	1.61461
769.49722	1.44443
767.56865	1.38165
765.64009	1.39085
763.71152	1.48618
761.78296	1.64375
759.85439	1.59895
757.92583	1.47389
755.99727	1.50359
754.06870	1.59554
752.14014	1.57901
750.21157	1.53455
748.28301	1.67735
746.35444	1.95298
744.42588	1.49009
742.49731	1.32209
740.56875	1.28759
738.64019	1.04632
736.71162	0.85397
734.78306	0.77547
732.85449	0.67372
730.92593	0.58293
728.99736	0.58778
727.06880	0.58860
725.14023	0.41759
723.21167	0.24648
721.28311	0.14269
719.35454	0.09741
717.42598	0.12600
715.49741	0.22373
713.56885	0.35336
711.64028	0.20475
709.71172	4.25827
707.78315	-0.30629
705.85459	-0.02419
703.92603	0.08357
701.99746	0.13356
700.06890	0.19839
698.14033	0.23973
696.21177	0.30545
694.28320	0.38861
692.35464	0.37471
690.42607	0.24160
688.49751	0.10251
686.56895	0.08227
684.64038	0.13968
682.71182	0.18007
680.78325	0.20564
678.85469	0.22776
676.92612	0.22002
674.99756	0.21135
673.06899	0.21965
671.14043	0.24884
669.21187	0.33861
667.28330	0.40040
665.35474	0.40061
663.42617	0.30642
661.49761	0.19653
659.56904	0.19074
657.64048	0.30520
655.71191	0.42276
653.78335	0.32912
651.85479	0.17077
649.92622	0.16892
647.99766	0.38115
646.06909	0.50772
644.14053	0.39566
642.21196	0.28154
640.28340	0.25985
638.35483	0.25101
636.42627	0.22030
634.49771	0.27200
632.56914	0.44595
630.64058	0.73420
628.71201	0.60529
626.78345	0.33596
624.85488	0.19666
622.92632	0.12770
620.99775	0.10776
619.06919	0.13735
617.14062	0.16835
615.21206	0.14341
613.28350	0.11005
611.35493	0.12417
609.42637	0.18018
607.49780	0.29549
605.56924	0.35135
603.64067	0.28351
601.71211	0.26842
599.78354	0.23280
597.85498	0.14570
595.92642	0.06593
593.99785	0.03588
592.06929	0.06771
590.14072	0.14070
588.21216	0.20857
586.28359	0.20253
584.35503	0.21273
582.42646	0.31514
580.49790	0.39387
578.56934	0.41018
576.64077	0.45146
574.71221	0.37178
572.78364	0.25295
570.85508	0.17001
568.92651	0.11399
566.99795	0.09545
565.06938	0.10333
563.14082	0.07368
561.21226	0.02628
559.28369	0.05440
557.35513	0.18522
555.42656	0.35451
553.49800	0.44720
551.56943	0.34009
549.64087	0.21332
547.71230	0.21170
545.78374	0.30626
543.85518	0.35354
541.92661	0.22300
539.99805	0.07414
538.06948	0.03678
536.14092	0.11239
534.21235	0.19196
532.28379	0.18719
530.35522	0.17002
528.42666	0.22179
526.49810	0.26498
524.56953	0.25854
522.64097	0.29416
520.71240	0.32032
518.78384	0.26012
516.85527	0.19503
514.92671	0.14871
512.99814	0.12914
511.06958	0.12890
509.14102	0.15617
507.21245	0.23752
505.28389	0.31350
503.35532	0.23975
501.42676	0.18563
499.49819	0.22980
