3997.91411	0.05441
3995.98555	0.05522
3994.05698	0.05559
3992.12842	0.05546
3990.19985	0.05534
3988.27129	0.05574
3986.34272	0.05668
3984.41416	0.05748
3982.48560	0.05758
3980.55703	0.05719
3978.62847	0.05696
3976.69990	0.05713
3974.77134	0.05753
3972.84277	0.05818
3970.91421	0.05870
3968.98564	0.05845
3967.05708	0.05774
3965.12852	0.05754
3963.19995	0.05809
3961.27139	0.05864
3959.34282	0.05880
3957.41426	0.05899
3955.48569	0.05938
3953.55713	0.05956
3951.62856	0.05926
3949.70000	0.05890
3947.77144	0.05890
3945.84287	0.05910
3943.91431	0.05955
3941.98574	0.06010
3940.05718	0.05995
3938.12861	0.05934
3936.20005	0.05919
3934.27148	0.05974
3932.34292	0.06059
3930.41436	0.06085
3928.48579	0.06010
3926.55723	0.05939
3924.62866	0.05945
3922.70010	0.05956
3920.77153	0.05930
3918.84297	0.05927
3916.91440	0.05945
3914.98584	0.05918
3913.05728	0.05896
3911.12871	0.05927
3909.20015	0.05929
3907.27158	0.05884
3905.34302	0.05883
3903.41445	0.05932
3901.48589	0.05970
3899.55732	0.06003
3897.62876	0.05999
3895.70020	0.05932
3893.77163	0.05896
3891.84307	0.05954
3889.91450	0.06004
3887.98594	0.05956
3886.05737	0.05900
3884.12881	0.05905
3882.20024	0.05972
3880.27168	0.06077
3878.34312	0.06138
3876.41455	0.06108
3874.48599	0.06084
3872.55742	0.06097
3870.62886	0.06100
3868.70029	0.06114
3866.77173	0.06137
3864.84316	0.06193
3862.91460	0.06267
3860.98604	0.06253
3859.05747	0.06207
3857.12891	0.06204
3855.20034	0.06236
3853.27178	0.06361
3851.34321	0.06580
3849.41465	0.06623
3847.48608	0.06567
3845.55752	0.06555
3843.62896	0.06624
3841.70039	0.06743
3839.77183	0.06834
3837.84326	0.06908
3835.91470	0.06984
3833.98613	0.07014
3832.05757	0.07024
3830.12900	0.07043
3828.20044	0.07060
3826.27187	0.07100
3824.34331	0.07152
3822.41475	0.07203
3820.48618	0.07363
3818.55762	0.07569
3816.62905	0.07669
3814.70049	0.07742
3812.77192	0.07774
3810.84336	0.07775
3808.91479	0.07832
3806.98623	0.07992
3805.05767	0.08193
3803.12910	0.08339
3801.20054	0.08496
3799.27197	0.08614
3797.34341	0.08643
3795.41484	0.08741
3793.48628	0.08853
3791.55771	0.08880
3789.62915	0.08920
3787.70059	0.09044
3785.77202	0.09217
3783.84346	0.09394
3781.91489	0.09564
3779.98633	0.09748
3778.05776	0.09920
3776.12920	0.10000
3774.20063	0.10079
3772.27207	0.10244
3770.34351	0.10489
3768.41494	0.10752
3766.48638	0.10952
3764.55781	0.11131
3762.62925	0.11276
3760.70068	0.11407
3758.77212	0.11642
3756.84355	0.11946
3754.91499	0.12171
3752.98643	0.12343
3751.05786	0.12644
3749.12930	0.13123
3747.20073	0.13460
3745.27217	0.13666
3743.34360	0.13977
3741.41504	0.14320
3739.48647	0.14609
3737.55791	0.14973
3735.62935	0.15523
3733.70078	0.16193
3731.77222	0.16717
3729.84365	0.17106
3727.91509	0.17474
3725.98652	0.17942
3724.05796	0.18561
3722.12939	0.19211
3720.20083	0.19858
3718.27227	0.20526
3716.34370	0.21179
3714.41514	0.21814
3712.48657	0.22631
3710.55801	0.23905
3708.62944	0.25371
3706.70088	0.26594
3704.77231	0.27705
3702.84375	0.28953
3700.91519	0.30554
3698.98662	0.32338
3697.05806	0.34046
3695.12949	0.35829
3693.20093	0.37745
3691.27236	0.39867
3689.34380	0.42557
3687.41523	0.45822
3685.48667	0.48735
3683.55811	0.51273
3681.62954	0.54009
3679.70098	0.57103
3677.77241	0.60310
3675.84385	0.64025
3673.91528	0.69114
3671.98672	0.73425
3670.05815	0.77256
3668.12959	0.82443
3666.20103	0.87185
3664.27246	0.91158
3662.34390	0.95462
3660.41533	1.00115
3658.48677	1.04626
3656.55820	1.09364
3654.62964	1.14677
3652.70107	1.19150
3650.77251	1.23006
3648.84395	1.28381
3646.91538	1.35114
3644.98682	1.40166
3643.05825	1.44091
3641.12969	1.48121
3639.20112	1.52544
3637.27256	1.56922
3635.34399	1.61116
3633.41543	1.65327
3631.48687	1.69238
3629.55830	1.73121
3627.62974	1.78372
3625.70117	1.83477
3623.77261	1.86960
3621.84404	1.90230
3619.91548	1.93944
3617.98691	1.98472
3616.05835	2.02807
3614.12979	2.06331
3612.20122	2.10083
3610.27266	2.14044
3608.34409	2.18193
3606.41553	2.22615
3604.48696	2.26542
3602.55840	2.29967
3600.62983	2.33726
3598.70127	2.37826
3596.77271	2.41834
3594.84414	2.45906
3592.91558	2.50092
3590.98701	2.53941
3589.05845	2.57478
3587.12988	2.61814
3585.20132	2.66664
3583.27275	2.70726
3581.34419	2.74459
3579.41562	2.78476
3577.48706	2.82719
3575.55850	2.86986
3573.62993	2.91329
3571.70137	2.95538
3569.77280	2.99495
3567.84424	3.03675
3565.91567	3.08943
3563.98711	3.14197
3562.05854	3.18438
3560.12998	3.22608
3558.20142	3.27137
3556.27285	3.31745
3554.34429	3.36119
3552.41572	3.40608
3550.48716	3.45321
3548.55859	3.49961
3546.63003	3.54555
3544.70146	3.59397
3542.77290	3.64502
3540.84434	3.69505
3538.91577	3.74068
3536.98721	3.78293
3535.05864	3.82883
3533.13008	3.87835
3531.20151	3.92590
3529.27295	3.97148
3527.34438	4.02114
3525.41582	4.07234
3523.48726	4.11827
3521.55869	4.16306
3519.63013	4.20943
3517.70156	4.25598
3515.77300	4.30151
3513.84443	4.34757
3511.91587	4.39665
3509.98730	4.45076
3508.05874	4.50561
3506.13018	4.54904
3504.20161	4.58619
3502.27305	4.63372
3500.34448	4.68553
3498.41592	4.73041
3496.48735	4.77517
3494.55879	4.82289
3492.63022	4.87491
3490.70166	4.93202
3488.77310	4.98432
3486.84453	5.02741
3484.91597	5.06963
3482.98740	5.11636
3481.05884	5.16865
3479.13027	5.22092
3477.20171	5.26613
3475.27314	5.30979
3473.34458	5.35466
3471.41602	5.39711
3469.48745	5.44078
3467.55889	5.48855
3465.63032	5.53696
3463.70176	5.58330
3461.77319	5.62858
3459.84463	5.68105
3457.91606	5.73615
3455.98750	5.78281
3454.05894	5.82831
3452.13037	5.87711
3450.20181	5.92149
3448.27324	5.95997
3446.34468	6.00616
3444.41611	6.06953
3442.48755	6.13672
3440.55898	6.18857
3438.63042	6.22058
3436.70186	6.23681
3434.77329	6.26021
3432.84473	6.30114
3430.91616	6.33718
3428.98760	6.37693
3427.05903	6.44032
3425.13047	6.50890
3423.20190	6.55790
3421.27334	6.60633
3419.34478	6.67236
3417.41621	6.73036
3415.48765	6.75272
3413.55908	6.77294
3411.63052	6.84074
3409.70195	6.92393
3407.77339	6.98627
3405.84482	7.02682
3403.91626	7.04302
3401.98770	7.05991
3400.05913	7.10502
3398.13057	7.14797
3396.20200	7.16808
3394.27344	7.19421
3392.34487	7.23778
3390.41631	7.29432
3388.48774	7.32635
3386.55918	7.34919
3384.63062	7.39387
3382.70205	7.41796
3380.77349	7.39434
3378.84492	7.37816
3376.91636	7.43474
3374.98779	7.53424
3373.05923	7.60672
3371.13066	7.63014
3369.20210	7.64619
3367.27354	7.64826
3365.34497	7.61951
3363.41641	7.61646
3361.48784	7.68706
3359.55928	7.78317
3357.63071	7.78605
3355.70215	7.73472
3353.77358	7.72149
3351.84502	7.75062
3349.91646	7.79648
3347.98789	7.83803
3346.05933	7.85187
3344.13076	7.84362
3342.20220	7.83684
3340.27363	7.82228
3338.34507	7.80729
3336.41650	7.79046
3334.48794	7.80458
3332.55937	7.86145
3330.63081	7.89587
3328.70225	7.86742
3326.77368	7.82458
3324.84512	7.83107
3322.91655	7.89454
3320.98799	7.97651
3319.05942	7.99336
3317.13086	7.98036
3315.20229	8.00459
3313.27373	8.01381
3311.34517	7.98207
3309.41660	7.96604
3307.48804	7.95857
3305.55947	7.91449
3303.63091	7.87424
3301.70234	7.86629
3299.77378	7.88490
3297.84521	7.85736
3295.91665	7.77257
3293.98809	7.74824
3292.05952	7.80368
3290.13096	7.83951
3288.20239	7.79722
3286.27383	7.77128
3284.34526	7.82218
3282.41670	7.85956
3280.48813	7.82945
3278.55957	7.82947
3276.63101	7.93409
3274.70244	8.06685
3272.77388	8.13488
3270.84531	8.17875
3268.91675	8.18089
3266.98818	8.09678
3265.05962	8.02912
3263.13105	8.03047
3261.20249	8.04189
3259.27393	8.02142
3257.34536	7.99548
3255.41680	7.96306
3253.48823	7.89159
3251.55967	7.82791
3249.63110	7.84504
3247.70254	7.91874
3245.77397	7.96619
3243.84541	7.97436
3241.91685	7.97326
3239.98828	7.97324
3238.05972	7.95476
3236.13115	7.90262
3234.20259	7.87396
3232.27402	7.90425
3230.34546	7.91319
3228.41689	7.88938
3226.48833	7.87748
3224.55977	7.84491
3222.63120	7.85936
3220.70264	7.93602
3218.77407	7.91174
3216.84551	7.78603
3214.91694	7.70473
3212.98838	7.69404
3211.05981	7.71205
3209.13125	7.72796
3207.20269	7.71329
3205.27412	7.67606
3203.34556	7.66827
3201.41699	7.69991
3199.48843	7.70061
3197.55986	7.64831
3195.63130	7.58605
3193.70273	7.51155
3191.77417	7.41353
3189.84561	7.31763
3187.91704	7.27311
3185.98848	7.27945
3184.05991	7.27643
3182.13135	7.25843
3180.20278	7.25175
3178.27422	7.21850
3176.34565	7.13589
3174.41709	7.06245
3172.48853	7.02020
3170.55996	6.97147
3168.63140	6.93096
3166.70283	6.89965
3164.77427	6.84603
3162.84570	6.78030
3160.91714	6.68880
3158.98857	6.59071
3157.06001	6.53758
3155.13145	6.49893
3153.20288	6.42342
3151.27432	6.33052
3149.34575	6.25332
3147.41719	6.19126
3145.48862	6.13936
3143.56006	6.09533
3141.63149	6.04604
3139.70293	5.97532
3137.77437	5.89186
3135.84580	5.81476
3133.91724	5.75102
3131.98867	5.70050
3130.06011	5.64918
3128.13154	5.57975
3126.20298	5.49744
3124.27441	5.41606
3122.34585	5.33702
3120.41729	5.26828
3118.48872	5.21285
3116.56016	5.15566
3114.63159	5.09207
3112.70303	5.02699
3110.77446	4.95931
3108.84590	4.88718
3106.91733	4.81291
3104.98877	4.73959
3103.06021	4.67009
3101.13164	4.60373
3099.20308	4.53751
3097.27451	4.47204
3095.34595	4.40849
3093.41738	4.34659
3091.48882	4.28693
3089.56025	4.22772
3087.63169	4.16347
3085.70312	4.09767
3083.77456	4.03798
3081.84600	3.97890
3079.91743	3.91559
3077.98887	3.85436
3076.06030	3.79625
3074.13174	3.73699
3072.20317	3.67725
3070.27461	3.62013
3068.34604	3.56546
3066.41748	3.50990
3064.48892	3.45326
3062.56035	3.39709
3060.63179	3.34195
3058.70322	3.28819
3056.77466	3.23477
3054.84609	3.18205
3052.91753	3.13030
3050.98896	3.07864
3049.06040	3.02793
3047.13184	2.97836
3045.20327	2.92939
3043.27471	2.88104
3041.34614	2.83221
3039.41758	2.78310
3037.48901	2.73548
3035.56045	2.68983
3033.63188	2.64567
3031.70332	2.60092
3029.77476	2.55502
3027.84619	2.51058
3025.91763	2.46817
3023.98906	2.42600
3022.06050	2.38311
3020.13193	2.34035
3018.20337	2.29895
3016.27480	2.25880
3014.34624	2.21913
3012.41768	2.17968
3010.48911	2.14067
3008.56055	2.10291
3006.63198	2.06682
3004.70342	2.03142
3002.77485	1.99632
3000.84629	1.96181
2998.91772	1.92750
2996.98916	1.89376
2995.06060	1.86146
2993.13203	1.83065
2991.20347	1.80067
2989.27490	1.77128
2987.34634	1.74272
2985.41777	1.71468
2983.48921	1.68650
2981.56064	1.65839
2979.63208	1.63140
2977.70352	1.60569
2975.77495	1.58068
2973.84639	1.55624
2971.91782	1.53233
2969.98926	1.50883
2968.06069	1.48544
2966.13213	1.46218
2964.20356	1.43900
2962.27500	1.41582
2960.34644	1.39289
2958.41787	1.36992
2956.48931	1.34620
2954.56074	1.32221
2952.63218	1.29872
2950.70361	1.27552
2948.77505	1.25256
2946.84648	1.23024
2944.91792	1.20890
2942.98936	1.18864
2941.06079	1.16880
2939.13223	1.14891
2937.20366	1.12912
2935.27510	1.10952
2933.34653	1.09005
2931.41797	1.07080
2929.48940	1.05183
2927.56084	1.03293
2925.63228	1.01405
2923.70371	0.99557
2921.77515	0.97737
2919.84658	0.95899
2917.91802	0.94070
2915.98945	0.92311
2914.06089	0.90634
2912.13232	0.89010
2910.20376	0.87406
2908.27520	0.85828
2906.34663	0.84289
2904.41807	0.82770
2902.48950	0.81301
2900.56094	0.79905
2898.63237	0.78521
2896.70381	0.77130
2894.77524	0.75771
2892.84668	0.74482
2890.91812	0.73294
2888.98955	0.72197
2887.06099	0.71122
2885.13242	0.70057
2883.20386	0.69044
2881.27529	0.68083
2879.34673	0.67136
2877.41816	0.66157
2875.48960	0.65144
2873.56104	0.64135
2871.63247	0.63122
2869.70391	0.62042
2867.77534	0.60859
2865.84678	0.59630
2863.91821	0.58444
2861.98965	0.57302
2860.06108	0.56191
2858.13252	0.55160
2856.20396	0.54197
2854.27539	0.53235
2852.34683	0.52267
2850.41826	0.51331
2848.48970	0.50422
2846.56113	0.49539
2844.63257	0.48713
2842.70400	0.47954
2840.77544	0.47255
2838.84687	0.46603
2836.91831	0.45971
2834.98975	0.45345
2833.06118	0.44715
2831.13262	0.44088
2829.20405	0.43475
2827.27549	0.42849
2825.34692	0.42214
2823.41836	0.41604
2821.48979	0.41011
2819.56123	0.40440
2817.63267	0.39891
2815.70410	0.39311
2813.77554	0.38709
2811.84697	0.38136
2809.91841	0.37572
2807.98984	0.36999
2806.06128	0.36435
2804.13271	0.35902
2802.20415	0.35421
2800.27559	0.34964
2798.34702	0.34479
2796.41846	0.33972
2794.48989	0.33481
2792.56133	0.33001
2790.63276	0.32527
2788.70420	0.32081
2786.77563	0.31651
2784.84707	0.31209
2782.91851	0.30760
2780.98994	0.30331
2779.06138	0.29922
2777.13281	0.29519
2775.20425	0.29136
2773.27568	0.28769
2771.34712	0.28385
2769.41855	0.27986
2767.48999	0.27592
2765.56143	0.27212
2763.63286	0.26865
2761.70430	0.26538
2759.77573	0.26207
2757.84717	0.25881
2755.91860	0.25561
2753.99004	0.25245
2752.06147	0.24944
2750.13291	0.24650
2748.20435	0.24356
2746.27578	0.24071
2744.34722	0.23788
2742.41865	0.23494
2740.49009	0.23198
2738.56152	0.22930
2736.63296	0.22687
2734.70439	0.22435
2732.77583	0.22183
2730.84727	0.21949
2728.91870	0.21724
2726.99014	0.21496
2725.06157	0.21275
2723.13301	0.21061
2721.20444	0.20836
2719.27588	0.20604
2717.34731	0.20387
2715.41875	0.20194
2713.49019	0.20009
2711.56162	0.19807
2709.63306	0.19617
2707.70449	0.19471
2705.77593	0.19337
2703.84736	0.19169
2701.91880	0.18976
2699.99023	0.18804
2698.06167	0.18660
2696.13311	0.18524
2694.20454	0.18388
2692.27598	0.18250
2690.34741	0.18115
2688.41885	0.17992
2686.49028	0.17873
2684.56172	0.17742
2682.63315	0.17602
2680.70459	0.17466
2678.77603	0.17349
2676.84746	0.17243
2674.91890	0.17118
2672.99033	0.16976
2671.06177	0.16846
2669.13320	0.16746
2667.20464	0.16668
2665.27607	0.16585
2663.34751	0.16483
2661.41895	0.16379
2659.49038	0.16311
2657.56182	0.16267
2655.63325	0.16197
2653.70469	0.16099
2651.77612	0.16009
2649.84756	0.15935
2647.91899	0.15853
2645.99043	0.15769
2644.06187	0.15702
2642.13330	0.15638
2640.20474	0.15573
2638.27617	0.15532
2636.34761	0.15508
2634.41904	0.15462
2632.49048	0.15399
2630.56191	0.15342
2628.63335	0.15291
2626.70479	0.15248
2624.77622	0.15217
2622.84766	0.15182
2620.91909	0.15136
2618.99053	0.15096
2617.06196	0.15068
2615.13340	0.15050
2613.20483	0.15038
2611.27627	0.15026
2609.34771	0.15011
2607.41914	0.14998
2605.49058	0.14991
2603.56201	0.14977
2601.63345	0.14954
2599.70488	0.14939
2597.77632	0.14937
2595.84775	0.14956
2593.91919	0.14980
2591.99062	0.14986
2590.06206	0.14991
2588.13350	0.15001
2586.20493	0.15003
2584.27637	0.15009
2582.34780	0.15028
2580.41924	0.15049
2578.49067	0.15065
2576.56211	0.15092
2574.63354	0.15137
2572.70498	0.15183
2570.77642	0.15218
2568.84785	0.15239
2566.91929	0.15256
2564.99072	0.15286
2563.06216	0.15321
2561.13359	0.15352
2559.20503	0.15382
2557.27646	0.15428
2555.34790	0.15484
2553.41934	0.15533
2551.49077	0.15578
2549.56221	0.15629
2547.63364	0.15671
2545.70508	0.15703
2543.77651	0.15750
2541.84795	0.15812
2539.91938	0.15875
2537.99082	0.15936
2536.06226	0.15988
2534.13369	0.16028
2532.20513	0.16086
2530.27656	0.16168
2528.34800	0.16247
2526.41943	0.16307
2524.49087	0.16364
2522.56230	0.16445
2520.63374	0.16541
2518.70518	0.16624
2516.77661	0.16696
2514.84805	0.16762
2512.91948	0.16835
2510.99092	0.16919
2509.06235	0.16993
2507.13379	0.17056
2505.20522	0.17127
2503.27666	0.17207
2501.34810	0.17283
2499.41953	0.17353
2497.49097	0.17433
2495.56240	0.17529
2493.63384	0.17616
2491.70527	0.17683
2489.77671	0.17756
2487.84814	0.17844
2485.91958	0.17928
2483.99102	0.18013
2482.06245	0.18103
2480.13389	0.18177
2478.20532	0.18250
2476.27676	0.18338
2474.34819	0.18411
2472.41963	0.18476
2470.49106	0.18564
2468.56250	0.18656
2466.63394	0.18741
2464.70537	0.18826
2462.77681	0.18908
2460.84824	0.18990
2458.91968	0.19082
2456.99111	0.19179
2455.06255	0.19284
2453.13398	0.19390
2451.20542	0.19476
2449.27686	0.19558
2447.34829	0.19655
2445.41973	0.19750
2443.49116	0.19836
2441.56260	0.19930
2439.63403	0.20032
2437.70547	0.20135
2435.77690	0.20243
2433.84834	0.20352
2431.91978	0.20456
2429.99121	0.20554
2428.06265	0.20648
2426.13408	0.20741
2424.20552	0.20838
2422.27695	0.20931
2420.34839	0.21029
2418.41982	0.21145
2416.49126	0.21269
2414.56270	0.21386
2412.63413	0.21486
2410.70557	0.21575
2408.77700	0.21684
2406.84844	0.21817
2404.91987	0.21946
2402.99131	0.22065
2401.06274	0.22185
2399.13418	0.22307
2397.20562	0.22423
2395.27705	0.22541
2393.34849	0.22672
2391.41992	0.22803
2389.49136	0.22925
2387.56279	0.23064
2385.63423	0.23238
2383.70566	0.23452
2381.77710	0.23718
2379.84854	0.24041
2377.91997	0.24401
2375.99141	0.24794
2374.06284	0.25215
2372.13428	0.25648
2370.20571	0.26132
2368.27715	0.26655
2366.34858	0.27139
2364.42002	0.27530
2362.49146	0.27793
2360.56289	0.27959
2358.63433	0.28064
2356.70576	0.28123
2354.77720	0.28107
2352.84863	0.27961
2350.92007	0.27734
2348.99150	0.27618
2347.06294	0.27713
2345.13437	0.28024
2343.20581	0.28422
2341.27725	0.28722
2339.34868	0.28937
2337.42012	0.29103
2335.49155	0.29234
2333.56299	0.29329
2331.63442	0.29390
2329.70586	0.29471
2327.77729	0.29592
2325.84873	0.29682
2323.92017	0.29723
2321.99160	0.29757
2320.06304	0.29774
2318.13447	0.29777
2316.20591	0.29809
2314.27734	0.29884
2312.34878	0.29977
2310.42021	0.30072
2308.49165	0.30160
2306.56309	0.30222
2304.63452	0.30270
2302.70596	0.30358
2300.77739	0.30493
2298.84883	0.30626
2296.92026	0.30747
2294.99170	0.30879
2293.06313	0.31032
2291.13457	0.31200
2289.20601	0.31359
2287.27744	0.31498
2285.34888	0.31636
2283.42031	0.31802
2281.49175	0.32001
2279.56318	0.32212
2277.63462	0.32422
2275.70605	0.32640
2273.77749	0.32847
2271.84893	0.33034
2269.92036	0.33224
2267.99180	0.33433
2266.06323	0.33650
2264.13467	0.33859
2262.20610	0.34058
2260.27754	0.34261
2258.34897	0.34472
2256.42041	0.34688
2254.49185	0.34904
2252.56328	0.35107
2250.63472	0.35307
2248.70615	0.35523
2246.77759	0.35749
2244.84902	0.35979
2242.92046	0.36206
2240.99189	0.36415
2239.06333	0.36612
2237.13477	0.36819
2235.20620	0.37039
2233.27764	0.37258
2231.34907	0.37471
2229.42051	0.37684
2227.49194	0.37904
2225.56338	0.38127
2223.63481	0.38349
2221.70625	0.38569
2219.77769	0.38787
2217.84912	0.38999
2215.92056	0.39206
2213.99199	0.39428
2212.06343	0.39667
2210.13486	0.39889
2208.20630	0.40083
2206.27773	0.40274
2204.34917	0.40482
2202.42061	0.40695
2200.49204	0.40896
2198.56348	0.41100
2196.63491	0.41310
2194.70635	0.41507
2192.77778	0.41687
2190.84922	0.41868
2188.92065	0.42053
2186.99209	0.42235
2185.06353	0.42406
2183.13496	0.42571
2181.20640	0.42745
2179.27783	0.42921
2177.34927	0.43083
2175.42070	0.43239
2173.49214	0.43400
2171.56357	0.43546
2169.63501	0.43674
2167.70645	0.43800
2165.77788	0.43917
2163.84932	0.44017
2161.92075	0.44114
2159.99219	0.44216
2158.06362	0.44320
2156.13506	0.44422
2154.20649	0.44523
2152.27793	0.44615
2150.34937	0.44680
2148.42080	0.44722
2146.49224	0.44762
2144.56367	0.44808
2142.63511	0.44851
2140.70654	0.44876
2138.77798	0.44898
2136.84941	0.44933
2134.92085	0.44959
2132.99229	0.44954
2131.06372	0.44925
2129.13516	0.44894
2127.20659	0.44863
2125.27803	0.44821
2123.34946	0.44774
2121.42090	0.44752
2119.49233	0.44729
2117.56377	0.44663
2115.63521	0.44566
2113.70664	0.44468
2111.77808	0.44371
2109.84951	0.44267
2107.92095	0.44158
2105.99238	0.44046
2104.06382	0.43931
2102.13525	0.43808
2100.20669	0.43676
2098.27812	0.43533
2096.34956	0.43377
2094.42100	0.43209
2092.49243	0.43047
2090.56387	0.42890
2088.63530	0.42706
2086.70674	0.42507
2084.77817	0.42313
2082.84961	0.42115
2080.92104	0.41916
2078.99248	0.41716
2077.06392	0.41502
2075.13535	0.41283
2073.20679	0.41069
2071.27822	0.40852
2069.34966	0.40626
2067.42109	0.40394
2065.49253	0.40161
2063.56396	0.39921
2061.63540	0.39673
2059.70684	0.39416
2057.77827	0.39149
2055.84971	0.38889
2053.92114	0.38647
2051.99258	0.38405
2050.06401	0.38133
2048.13545	0.37849
2046.20688	0.37570
2044.27832	0.37292
2042.34976	0.37017
2040.42119	0.36743
2038.49263	0.36470
2036.56406	0.36204
2034.63550	0.35943
2032.70693	0.35674
2030.77837	0.35393
2028.84980	0.35115
2026.92124	0.34854
2024.99268	0.34591
2023.06411	0.34312
2021.13555	0.34032
2019.20698	0.33760
2017.27842	0.33491
2015.34985	0.33216
2013.42129	0.32936
2011.49272	0.32655
2009.56416	0.32378
2007.63560	0.32098
2005.70703	0.31817
2003.77847	0.31544
2001.84990	0.31279
1999.92134	0.31025
1997.99277	0.30783
1996.06421	0.30550
1994.13564	0.30319
1992.20708	0.30074
1990.27852	0.29816
1988.34995	0.29557
1986.42139	0.29299
1984.49282	0.29054
1982.56426	0.28828
1980.63569	0.28611
1978.70713	0.28397
1976.77856	0.28177
1974.85000	0.27951
1972.92144	0.27728
1970.99287	0.27521
1969.06431	0.27332
1967.13574	0.27145
1965.20718	0.26944
1963.27861	0.26746
1961.35005	0.26565
1959.42148	0.26386
1957.49292	0.26194
1955.56436	0.26004
1953.63579	0.25832
1951.70723	0.25666
1949.77866	0.25509
1947.85010	0.25370
1945.92153	0.25231
1943.99297	0.25083
1942.06440	0.24935
1940.13584	0.24790
1938.20728	0.24651
1936.27871	0.24518
1934.35015	0.24384
1932.42158	0.24249
1930.49302	0.24116
1928.56445	0.24001
1926.63589	0.23900
1924.70732	0.23821
1922.77876	0.23744
1920.85020	0.23641
1918.92163	0.23545
1916.99307	0.23470
1915.06450	0.23381
1913.13594	0.23288
1911.20737	0.23224
1909.27881	0.23172
1907.35024	0.23110
1905.42168	0.23036
1903.49312	0.22961
1901.56455	0.22900
1899.63599	0.22861
1897.70742	0.22830
1895.77886	0.22795
1893.85029	0.22764
1891.92173	0.22731
1889.99316	0.22715
1888.06460	0.22702
1886.13604	0.22677
1884.20747	0.22655
1882.27891	0.22635
1880.35034	0.22608
1878.42178	0.22587
1876.49321	0.22586
1874.56465	0.22594
1872.63608	0.22615
1870.70752	0.22658
1868.77896	0.22730
1866.85039	0.22758
1864.92183	0.22728
1862.99326	0.22710
1861.06470	0.22728
1859.13613	0.22772
1857.20757	0.22812
1855.27900	0.22853
1853.35044	0.22899
1851.42187	0.22954
1849.49331	0.23018
1847.56475	0.23092
1845.63618	0.23176
1843.70762	0.23267
1841.77905	0.23337
1839.85049	0.23388
1837.92192	0.23473
1835.99336	0.23570
1834.06479	0.23665
1832.13623	0.23770
1830.20767	0.23928
1828.27910	0.24089
1826.35054	0.24190
1824.42197	0.24302
1822.49341	0.24422
1820.56484	0.24541
1818.63628	0.24674
1816.70771	0.24828
1814.77915	0.24987
1812.85059	0.25169
1810.92202	0.25381
1808.99346	0.25586
1807.06489	0.25777
1805.13633	0.25967
1803.20776	0.26189
1801.27920	0.26451
1799.35063	0.26747
1797.42207	0.27002
1795.49351	0.27227
1793.56494	0.27497
1791.63638	0.27880
1789.70781	0.28242
1787.77925	0.28489
1785.85068	0.28782
1783.92212	0.29148
1781.99355	0.29542
1780.06499	0.29949
1778.13643	0.30364
1776.20786	0.30759
1774.27930	0.31200
1772.35073	0.31809
1770.42217	0.32448
1768.49360	0.32955
1766.56504	0.33448
1764.63647	0.33973
1762.70791	0.34558
1760.77935	0.35303
1758.85078	0.36006
1756.92222	0.36703
1754.99365	0.37462
1753.06509	0.38155
1751.13652	0.38988
1749.20796	0.40061
1747.27939	0.41131
1745.35083	0.42060
1743.42227	0.43032
1741.49370	0.44088
1739.56514	0.45315
1737.63657	0.46542
1735.70801	0.47622
1733.77944	0.49264
1731.85088	0.51232
1729.92231	0.52769
1727.99375	0.54317
1726.06519	0.55984
1724.13662	0.57792
1722.20806	0.59745
1720.27949	0.61563
1718.35093	0.63697
1716.42236	0.66851
1714.49380	0.69875
1712.56523	0.72342
1710.63667	0.74744
1708.70811	0.77333
1706.77954	0.80265
1704.85098	0.83774
1702.92241	0.86908
1700.99385	0.89995
1699.06528	0.94661
1697.13672	0.99070
1695.20815	1.03613
1693.27959	1.08009
1691.35103	1.11579
1689.42246	1.15734
1687.49390	1.20139
1685.56533	1.24440
1683.63677	1.31193
1681.70820	1.38168
1679.77964	1.42552
1677.85107	1.46715
1675.92251	1.51508
1673.99395	1.57474
1672.06538	1.62879
1670.13682	1.68272
1668.20825	1.75326
1666.27969	1.81167
1664.35112	1.86253
1662.42256	1.92795
1660.49399	2.00184
1658.56543	2.05814
1656.63687	2.10173
1654.70830	2.13817
1652.77974	2.19236
1650.85117	2.25083
1648.92261	2.27440
1646.99404	2.29730
1645.06548	2.32000
1643.13691	2.33596
1641.20835	2.34359
1639.27979	2.34865
1637.35122	2.34901
1635.42266	2.34244
1633.49409	2.33331
1631.56553	2.31993
1629.63696	2.29927
1627.70840	2.26456
1625.77983	2.22610
1623.85127	2.18022
1621.92271	2.12544
1619.99414	2.07788
1618.06558	2.03119
1616.13701	1.96390
1614.20845	1.89718
1612.27988	1.84704
1610.35132	1.79389
1608.42275	1.73624
1606.49419	1.68039
1604.56562	1.62953
1602.63706	1.58030
1600.70850	1.53214
1598.77993	1.48816
1596.85137	1.44726
1594.92280	1.40796
1592.99424	1.37065
1591.06567	1.33693
1589.13711	1.30575
1587.20854	1.27721
1585.27998	1.25151
1583.35142	1.22802
1581.42285	1.20667
1579.49429	1.18865
1577.56572	1.17326
1575.63716	1.15592
1573.70859	1.14136
1571.78003	1.13217
1569.85146	1.12341
1567.92290	1.11484
1565.99434	1.10980
1564.06577	1.10762
1562.13721	1.10672
1560.20864	1.10769
1558.28008	1.11546
1556.35151	1.12499
1554.42295	1.13044
1552.49438	1.13538
1550.56582	1.13792
1548.63726	1.13709
1546.70869	1.13288
1544.78013	1.12429
1542.85156	1.11119
1540.92300	1.09132
1538.99443	1.06004
1537.06587	1.03662
1535.13730	1.01995
1533.20874	0.99724
1531.28018	0.97303
1529.35161	0.95565
1527.42305	0.93953
1525.49448	0.92263
1523.56592	0.90792
1521.63735	0.89435
1519.70879	0.88145
1517.78022	0.87079
1515.85166	0.85820
1513.92310	0.84433
1511.99453	0.83162
1510.06597	0.81992
1508.13740	0.80826
1506.20884	0.79090
1504.28027	0.77688
1502.35171	0.76931
1500.42314	0.76246
1498.49458	0.75480
1496.56602	0.74565
1494.63745	0.73676
1492.70889	0.73005
1490.78032	0.72412
1488.85176	0.71724
1486.92319	0.71074
1484.99463	0.70592
1483.06606	0.70256
1481.13750	0.70002
1479.20894	0.69822
1477.28037	0.69731
1475.35181	0.69700
1473.42324	0.69728
1471.49468	0.69768
1469.56611	0.69687
1467.63755	0.69522
1465.70898	0.69381
1463.78042	0.69306
1461.85186	0.69288
1459.92329	0.69328
1457.99473	0.69421
1456.06616	0.69449
1454.13760	0.69306
1452.20903	0.69108
1450.28047	0.68884
1448.35190	0.68648
1446.42334	0.68381
1444.49478	0.68094
1442.56621	0.67810
1440.63765	0.67519
1438.70908	0.67212
1436.78052	0.66830
1434.85195	0.66403
1432.92339	0.66086
1430.99482	0.65895
1429.06626	0.65798
1427.13770	0.65780
1425.20913	0.65843
1423.28057	0.65963
1421.35200	0.66065
1419.42344	0.66156
1417.49487	0.66211
1415.56631	0.66156
1413.63774	0.66097
1411.70918	0.66120
1409.78062	0.66246
1407.85205	0.66434
1405.92349	0.66649
1403.99492	0.66854
1402.06636	0.66966
1400.13779	0.66946
1398.20923	0.66787
1396.28066	0.66504
1394.35210	0.66103
1392.42354	0.65625
1390.49497	0.65152
1388.56641	0.64654
1386.63784	0.64071
1384.70928	0.63474
1382.78071	0.62921
1380.85215	0.62395
1378.92358	0.61951
1376.99502	0.61641
1375.06646	0.61445
1373.13789	0.61315
1371.20933	0.61217
1369.28076	0.61137
1367.35220	0.61037
1365.42363	0.60889
1363.49507	0.60702
1361.56650	0.60522
1359.63794	0.60367
1357.70937	0.60211
1355.78081	0.60061
1353.85225	0.59941
1351.92368	0.59845
1349.99512	0.59762
1348.06655	0.59677
1346.13799	0.59585
1344.20942	0.59497
1342.28086	0.59420
1340.35229	0.59356
1338.42373	0.59293
1336.49517	0.59237
1334.56660	0.59205
1332.63804	0.59196
1330.70947	0.59215
1328.78091	0.59277
1326.85234	0.59370
1324.92378	0.59475
1322.99521	0.59590
1321.06665	0.59703
1319.13809	0.59799
1317.20952	0.59855
1315.28096	0.59861
1313.35239	0.59839
1311.42383	0.59792
1309.49526	0.59733
1307.56670	0.59685
1305.63813	0.59652
1303.70957	0.59615
1301.78101	0.59553
1299.85244	0.59468
1297.92388	0.59353
1295.99531	0.59212
1294.06675	0.59078
1292.13818	0.58963
1290.20962	0.58841
1288.28105	0.58687
1286.35249	0.58515
1284.42393	0.58357
1282.49536	0.58216
1280.56680	0.58069
1278.63823	0.57905
1276.70967	0.57739
1274.78110	0.57591
1272.85254	0.57483
1270.92397	0.57408
1268.99541	0.57334
1267.06685	0.57252
1265.13828	0.57156
1263.20972	0.57047
1261.28115	0.56942
1259.35259	0.56853
1257.42402	0.56782
1255.49546	0.56731
1253.56689	0.56697
1251.63833	0.56694
1249.70977	0.56722
1247.78120	0.56740
1245.85264	0.56713
1243.92407	0.56640
1241.99551	0.56538
1240.06694	0.56402
1238.13838	0.56214
1236.20981	0.55964
1234.28125	0.55682
1232.35269	0.55425
1230.42412	0.55184
1228.49556	0.54924
1226.56699	0.54665
1224.63843	0.54444
1222.70986	0.54256
1220.78130	0.54075
1218.85273	0.53904
1216.92417	0.53754
1214.99561	0.53615
1213.06704	0.53491
1211.13848	0.53402
1209.20991	0.53344
1207.28135	0.53284
1205.35278	0.53197
1203.42422	0.53090
1201.49565	0.52988
1199.56709	0.52891
1197.63853	0.52791
1195.70996	0.52687
1193.78140	0.52590
1191.85283	0.52521
1189.92427	0.52487
1187.99570	0.52468
1186.06714	0.52453
1184.13857	0.52449
1182.21001	0.52473
1180.28145	0.52554
1178.35288	0.52691
1176.42432	0.52852
1174.49575	0.53003
1172.56719	0.53119
1170.63862	0.53171
1168.71006	0.53171
1166.78149	0.53170
1164.85293	0.53181
1162.92437	0.53202
1160.99580	0.53220
1159.06724	0.53205
1157.13867	0.53157
1155.21011	0.53086
1153.28154	0.52977
1151.35298	0.52810
1149.42441	0.52580
1147.49585	0.52307
1145.56729	0.52022
1143.63872	0.51754
1141.71016	0.51532
1139.78159	0.51371
1137.85303	0.51267
1135.92446	0.51220
1133.99590	0.51219
1132.06733	0.51236
1130.13877	0.51241
1128.21021	0.51232
1126.28164	0.51219
1124.35308	0.51198
1122.42451	0.51166
1120.49595	0.51160
1118.56738	0.51202
1116.63882	0.51255
1114.71025	0.51307
1112.78169	0.51380
1110.85312	0.51460
1108.92456	0.51522
1106.99600	0.51585
1105.06743	0.51653
1103.13887	0.51718
1101.21030	0.51815
1099.28174	0.51965
1097.35317	0.52152
1095.42461	0.52404
1093.49604	0.52778
1091.56748	0.53274
1089.63892	0.53895
1087.71035	0.54665
1085.78179	0.55534
1083.85322	0.56395
1081.92466	0.57140
1079.99609	0.57692
1078.06753	0.57988
1076.13896	0.57959
1074.21040	0.57607
1072.28184	0.57024
1070.35327	0.56316
1068.42471	0.55568
1066.49614	0.54840
1064.56758	0.54181
1062.63901	0.53602
1060.71045	0.53102
1058.78188	0.52679
1056.85332	0.52296
1054.92476	0.51936
1052.99619	0.51618
1051.06763	0.51359
1049.13906	0.51192
1047.21050	0.51121
1045.28193	0.51097
1043.35337	0.51078
1041.42480	0.51059
1039.49624	0.51045
1037.56768	0.51026
1035.63911	0.51000
1033.71055	0.50953
1031.78198	0.50852
1029.85342	0.50683
1027.92485	0.50482
1025.99629	0.50291
1024.06772	0.50135
1022.13916	0.50024
1020.21060	0.49953
1018.28203	0.49912
1016.35347	0.49865
1014.42490	0.49806
1012.49634	0.49772
1010.56777	0.49743
1008.63921	0.49708
1006.71064	0.49716
1004.78208	0.49793
1002.85352	0.49958
1000.92495	0.50224
998.99639	0.50576
997.06782	0.50995
995.13926	0.51449
993.21069	0.51875
991.28213	0.52208
989.35356	0.52394
987.42500	0.52436
985.49644	0.52409
983.56787	0.52377
981.63931	0.52368
979.71074	0.52414
977.78218	0.52536
975.85361	0.52741
973.92505	0.53017
971.99648	0.53310
970.06792	0.53598
968.13936	0.53931
966.21079	0.54328
964.28223	0.54770
962.35366	0.55236
960.42510	0.55708
958.49653	0.56214
956.56797	0.56779
954.63940	0.57381
952.71084	0.58001
950.78228	0.58631
948.85371	0.59268
946.92515	0.59911
944.99658	0.60511
943.06802	0.61070
941.13945	0.61676
939.21089	0.62314
937.28232	0.62884
935.35376	0.63421
933.42520	0.64006
931.49663	0.64599
929.56807	0.65171
927.63950	0.65746
925.71094	0.66323
923.78237	0.66949
921.85381	0.67622
919.92524	0.68280
917.99668	0.68978
916.06812	0.69731
914.13955	0.70472
912.21099	0.71224
910.28242	0.71996
908.35386	0.72729
906.42529	0.73453
904.49673	0.74271
902.56816	0.75219
900.63960	0.76242
898.71104	0.77264
896.78247	0.78270
894.85391	0.79320
892.92534	0.80441
890.99678	0.81451
889.06821	0.82265
887.13965	0.83216
885.21108	0.84459
883.28252	0.85736
881.35396	0.86910
879.42539	0.88066
877.49683	0.89220
875.56826	0.90300
873.63970	0.91249
871.71113	0.92147
869.78257	0.93149
867.85400	0.94277
865.92544	0.95524
863.99687	0.96785
862.06831	0.97787
860.13975	0.98648
858.21118	0.99768
856.28262	1.01113
854.35405	1.02463
852.42549	1.03805
850.49692	1.04965
848.56836	1.05813
846.63979	1.06817
844.71123	1.08293
842.78267	1.09770
840.85410	1.10826
838.92554	1.11502
836.99697	1.12079
835.06841	1.12957
833.13984	1.14112
831.21128	1.15175
829.28271	1.16060
827.35415	1.16882
825.42559	1.17607
823.49702	1.18066
821.56846	1.18651
819.63989	1.19711
817.71133	1.20708
815.78276	1.21662
813.85420	1.22718
811.92563	1.22904
809.99707	1.21620
808.06851	1.20471
806.13994	1.20904
804.21138	1.22207
802.28281	1.23857
800.35425	1.25026
798.42568	1.25195
796.49712	1.25305
794.56855	1.24257
792.63999	1.20720
790.71143	1.17522
788.78286	1.18070
786.85430	1.21509
784.92573	1.24128
782.99717	1.23763
781.06860	1.21593
779.14004	1.19334
777.21147	1.19412
775.28291	1.22413
773.35435	1.21656
771.42578	1.14277
769.49722	1.09335
767.56865	1.11478
765.64009	1.14583
763.71152	1.11741
761.78296	1.04338
759.85439	0.96658
757.92583	0.93930
755.99727	0.94732
754.06870	0.93181
752.14014	0.89593
750.21157	0.86066
748.28301	0.82155
746.35444	0.78691
744.42588	0.76043
742.49731	0.74802
740.56875	0.72889
738.64019	0.64322
736.71162	0.52220
734.78306	0.43014
732.85449	0.36190
730.92593	0.25931
728.99736	0.09207
727.06880	-0.09579
725.14023	-0.31209
723.21167	-0.74331
721.28311	4.32770
719.35454	-0.90743
717.42598	-0.37658
715.49741	-0.17480
713.56885	-0.07473
711.64028	0.00429
709.71172	0.12035
707.78315	0.20498
705.85459	0.20972
703.92603	0.17781
701.99746	0.15400
700.06890	0.13282
698.14033	0.12940
696.21177	0.13875
694.28320	0.17389
692.35464	0.22222
690.42607	0.22578
688.49751	0.23016
686.56895	0.28242
684.64038	0.32657
682.71182	0.27257
680.78325	0.20599
678.85469	0.22505
676.92612	0.29957
674.99756	0.31852
673.06899	0.26358
671.14043	0.20418
669.21187	0.17682
667.28330	0.18875
665.35474	0.21411
663.42617	0.23022
661.49761	0.21855
659.56904	0.20059
657.64048	0.20483
655.71191	0.18987
653.78335	0.14363
651.85479	0.11514
649.92622	0.12791
647.99766	0.17342
646.06909	0.21504
644.14053	0.23159
642.21196	0.23579
640.28340	0.22061
638.35483	0.17797
636.42627	0.14043
634.49771	0.14182
632.56914	0.17405
630.64058	0.21638
628.71201	0.26487
626.78345	0.29765
624.85488	0.28258
622.92632	0.23459
620.99775	0.20151
619.06919	0.22807
617.14062	0.27549
615.21206	0.28741
613.28350	0.27193
611.35493	0.24974
609.42637	0.22008
607.49780	0.18826
605.56924	0.19659
603.64067	0.23383
601.71211	0.24311
599.78354	0.23131
597.85498	0.22829
595.92642	0.20832
593.99785	0.17597
592.06929	0.16967
590.14072	0.17456
588.21216	0.17162
586.28359	0.18712
584.35503	0.25176
582.42646	0.29459
580.49790	0.20966
578.56934	0.12257
576.64077	0.12833
574.71221	0.17020
572.78364	0.17146
570.85508	0.17442
568.92651	0.18505
566.99795	0.18348
565.06938	0.19050
563.14082	0.20111
561.21226	0.19723
559.28369	0.18546
557.35513	0.15563
555.42656	0.12332
553.49800	0.13005
551.56943	0.15371
549.64087	0.14533
547.71230	0.12452
545.78374	0.11410
543.85518	0.12543
541.92661	0.15748
539.99805	0.19182
538.06948	0.20184
536.14092	0.20012
534.21235	0.20664
532.28379	0.21107
530.35522	0.18874
528.42666	0.17372
526.49810	0.20385
524.56953	0.23850
522.64097	0.22938
520.71240	0.20416
518.78384	0.19160
516.85527	0.21671
514.92671	0.23565
512.99814	0.21225
511.06958	0.20390
509.14102	0.20931
507.21245	0.17766
505.28389	0.12903
503.35532	0.09181
501.42676	0.08416
499.49819	0.11426
