3997.91411	0.07251
3995.98555	0.07258
3994.05698	0.07278
3992.12842	0.07333
3990.19985	0.07394
3988.27129	0.07426
3986.34272	0.07443
3984.41416	0.07463
3982.48560	0.07484
3980.55703	0.07509
3978.62847	0.07532
3976.69990	0.07539
3974.77134	0.07533
3972.84277	0.07527
3970.91421	0.07534
3968.98564	0.07547
3967.05708	0.07560
3965.12852	0.07584
3963.19995	0.07619
3961.27139	0.07635
3959.34282	0.07627
3957.41426	0.07645
3955.48569	0.07697
3953.55713	0.07711
3951.62856	0.07690
3949.70000	0.07708
3947.77144	0.07744
3945.84287	0.07739
3943.91431	0.07706
3941.98574	0.07682
3940.05718	0.07669
3938.12861	0.07655
3936.20005	0.07641
3934.27148	0.07634
3932.34292	0.07648
3930.41436	0.07668
3928.48579	0.07648
3926.55723	0.07575
3924.62866	0.07498
3922.70010	0.07490
3920.77153	0.07526
3918.84297	0.07526
3916.91440	0.07512
3914.98584	0.07533
3913.05728	0.07573
3911.12871	0.07602
3909.20015	0.07600
3907.27158	0.07533
3905.34302	0.07448
3903.41445	0.07454
3901.48589	0.07517
3899.55732	0.07514
3897.62876	0.07495
3895.70020	0.07517
3893.77163	0.07530
3891.84307	0.07518
3889.91450	0.07510
3887.98594	0.07500
3886.05737	0.07524
3884.12881	0.07582
3882.20024	0.07588
3880.27168	0.07571
3878.34312	0.07583
3876.41455	0.07578
3874.48599	0.07548
3872.55742	0.07545
3870.62886	0.07589
3868.70029	0.07663
3866.77173	0.07684
3864.84316	0.07658
3862.91460	0.07677
3860.98604	0.07718
3859.05747	0.07738
3857.12891	0.07750
3855.20034	0.07764
3853.27178	0.07835
3851.34321	0.07998
3849.41465	0.08096
3847.48608	0.08124
3845.55752	0.08136
3843.62896	0.08150
3841.70039	0.08166
3839.77183	0.08187
3837.84326	0.08239
3835.91470	0.08343
3833.98613	0.08411
3832.05757	0.08425
3830.12900	0.08482
3828.20044	0.08588
3826.27187	0.08703
3824.34331	0.08768
3822.41475	0.08745
3820.48618	0.08756
3818.55762	0.08908
3816.62905	0.09098
3814.70049	0.09257
3812.77192	0.09324
3810.84336	0.09358
3808.91479	0.09436
3806.98623	0.09522
3805.05767	0.09573
3803.12910	0.09656
3801.20054	0.09838
3799.27197	0.10023
3797.34341	0.10094
3795.41484	0.10171
3793.48628	0.10310
3791.55771	0.10449
3789.62915	0.10572
3787.70059	0.10684
3785.77202	0.10793
3783.84346	0.10936
3781.91489	0.11130
3779.98633	0.11333
3778.05776	0.11513
3776.12920	0.11649
3774.20063	0.11790
3772.27207	0.11954
3770.34351	0.12130
3768.41494	0.12308
3766.48638	0.12443
3764.55781	0.12604
3762.62925	0.12797
3760.70068	0.12954
3758.77212	0.13145
3756.84355	0.13400
3754.91499	0.13617
3752.98643	0.13818
3751.05786	0.14086
3749.12930	0.14413
3747.20073	0.14648
3745.27217	0.14858
3743.34360	0.15293
3741.41504	0.15773
3739.48647	0.16081
3737.55791	0.16384
3735.62935	0.16819
3733.70078	0.17415
3731.77222	0.18017
3729.84365	0.18524
3727.91509	0.18956
3725.98652	0.19454
3724.05796	0.20076
3722.12939	0.20725
3720.20083	0.21381
3718.27227	0.22049
3716.34370	0.22726
3714.41514	0.23395
3712.48657	0.24207
3710.55801	0.25473
3708.62944	0.26970
3706.70088	0.28203
3704.77231	0.29292
3702.84375	0.30502
3700.91519	0.32089
3698.98662	0.33913
3697.05806	0.35661
3695.12949	0.37445
3693.20093	0.39293
3691.27236	0.41230
3689.34380	0.43699
3687.41523	0.46969
3685.48667	0.50098
3683.55811	0.52797
3681.62954	0.55542
3679.70098	0.58518
3677.77241	0.61599
3675.84385	0.65258
3673.91528	0.70312
3671.98672	0.74586
3670.05815	0.78414
3668.12959	0.83668
3666.20103	0.88538
3664.27246	0.92608
3662.34390	0.96911
3660.41533	1.01522
3658.48677	1.06066
3656.55820	1.10873
3654.62964	1.16161
3652.70107	1.20577
3650.77251	1.24427
3648.84395	1.29716
3646.91538	1.36298
3644.98682	1.41444
3643.05825	1.45519
3641.12969	1.49562
3639.20112	1.53934
3637.27256	1.58317
3635.34399	1.62504
3633.41543	1.66637
3631.48687	1.70557
3629.55830	1.74577
3627.62974	1.79867
3625.70117	1.84959
3623.77261	1.88482
3621.84404	1.91761
3619.91548	1.95495
3617.98691	1.99988
3616.05835	2.04172
3614.12979	2.07589
3612.20122	2.11310
3610.27266	2.15239
3608.34409	2.19315
3606.41553	2.23708
3604.48696	2.27813
3602.55840	2.31446
3600.62983	2.35185
3598.70127	2.39217
3596.77271	2.43302
3594.84414	2.47356
3592.91558	2.51359
3590.98701	2.55169
3589.05845	2.58783
3587.12988	2.62978
3585.20132	2.67699
3583.27275	2.72002
3581.34419	2.75933
3579.41562	2.79937
3577.48706	2.84278
3575.55850	2.88752
3573.62993	2.93134
3571.70137	2.97262
3569.77280	3.01220
3567.84424	3.05539
3565.91567	3.10867
3563.98711	3.15992
3562.05854	3.20096
3560.12998	3.24145
3558.20142	3.28461
3556.27285	3.32921
3554.34429	3.37465
3552.41572	3.42235
3550.48716	3.47078
3548.55859	3.51614
3546.63003	3.56011
3544.70146	3.60754
3542.77290	3.65593
3540.84434	3.70231
3538.91577	3.74855
3536.98721	3.79469
3535.05864	3.84317
3533.13008	3.89446
3531.20151	3.94474
3529.27295	3.99267
3527.34438	4.04056
3525.41582	4.08768
3523.48726	4.13382
3521.55869	4.18037
3519.63013	4.22632
3517.70156	4.27404
3515.77300	4.32563
3513.84443	4.37817
3511.91587	4.42748
3509.98730	4.47557
3508.05874	4.52335
3506.13018	4.56879
3504.20161	4.61671
3502.27305	4.66907
3500.34448	4.72001
3498.41592	4.76886
3496.48735	4.81731
3494.55879	4.86327
3492.63022	4.90593
3490.70166	4.94920
3488.77310	4.99972
3486.84453	5.05375
3484.91597	5.10160
3482.98740	5.14310
3481.05884	5.19053
3479.13027	5.24807
3477.20171	5.30253
3475.27314	5.35077
3473.34458	5.39750
3471.41602	5.44736
3469.48745	5.50033
3467.55889	5.54371
3465.63032	5.58314
3463.70176	5.63459
3461.77319	5.68127
3459.84463	5.72042
3457.91606	5.77352
3455.98750	5.83052
3454.05894	5.87417
3452.13037	5.90999
3450.20181	5.94974
3448.27324	6.00266
3446.34468	6.06622
3444.41611	6.12458
3442.48755	6.17839
3440.55898	6.23553
3438.63042	6.28907
3436.70186	6.32450
3434.77329	6.35211
3432.84473	6.38904
3430.91616	6.43431
3428.98760	6.49552
3427.05903	6.56326
3425.13047	6.62712
3423.20190	6.68032
3421.27334	6.71530
3419.34478	6.75738
3417.41621	6.80951
3415.48765	6.83184
3413.55908	6.84297
3411.63052	6.89526
3409.70195	6.98021
3407.77339	7.06428
3405.84482	7.10391
3403.91626	7.10905
3401.98770	7.13621
3400.05913	7.20878
3398.13057	7.30231
3396.20200	7.35497
3394.27344	7.36408
3392.34487	7.36948
3390.41631	7.39426
3388.48774	7.42701
3386.55918	7.45872
3384.63062	7.50605
3382.70205	7.57648
3380.77349	7.62011
3378.84492	7.61553
3376.91636	7.63058
3374.98779	7.62688
3373.05923	7.57309
3371.13066	7.57198
3369.20210	7.66654
3367.27354	7.77752
3365.34497	7.83891
3363.41641	7.85677
3361.48784	7.85952
3359.55928	7.88225
3357.63071	7.90742
3355.70215	7.91269
3353.77358	7.92917
3351.84502	7.96510
3349.91646	7.97976
3347.98789	7.99737
3346.05933	8.01450
3344.13076	7.97127
3342.20220	7.91558
3340.27363	7.94020
3338.34507	8.02549
3336.41650	8.05070
3334.48794	8.03608
3332.55937	8.03996
3330.63081	8.05593
3328.70225	8.08998
3326.77368	8.11832
3324.84512	8.12057
3322.91655	8.11992
3320.98799	8.14827
3319.05942	8.15448
3317.13086	8.12264
3315.20229	8.09392
3313.27373	8.11233
3311.34517	8.19762
3309.41660	8.22740
3307.48804	8.16506
3305.55947	8.13587
3303.63091	8.13849
3301.70234	8.14540
3299.77378	8.17514
3297.84521	8.16039
3295.91665	8.10044
3293.98809	8.09285
3292.05952	8.15413
3290.13096	8.16649
3288.20239	8.12088
3286.27383	8.16418
3284.34526	8.26161
3282.41670	8.34398
3280.48813	8.44090
3278.55957	8.44961
3276.63101	8.32951
3274.70244	8.21969
3272.77388	8.15897
3270.84531	8.14187
3268.91675	8.18837
3266.98818	8.24778
3265.05962	8.23015
3263.13105	8.15072
3261.20249	8.13816
3259.27393	8.21420
3257.34536	8.26434
3255.41680	8.22307
3253.48823	8.17514
3251.55967	8.21932
3249.63110	8.33028
3247.70254	8.38656
3245.77397	8.34641
3243.84541	8.32645
3241.91685	8.32522
3239.98828	8.26834
3238.05972	8.21468
3236.13115	8.19732
3234.20259	8.23889
3232.27402	8.32145
3230.34546	8.28692
3228.41689	8.16594
3226.48833	8.09577
3224.55977	8.03607
3222.63120	7.99405
3220.70264	8.02794
3218.77407	8.08478
3216.84551	8.09688
3214.91694	8.06549
3212.98838	8.00556
3211.05981	7.94974
3209.13125	7.91560
3207.20269	7.89147
3205.27412	7.89291
3203.34556	7.89573
3201.41699	7.87919
3199.48843	7.87796
3197.55986	7.84357
3195.63130	7.75680
3193.70273	7.69084
3191.77417	7.64125
3189.84561	7.60679
3187.91704	7.59475
3185.98848	7.55290
3184.05991	7.49162
3182.13135	7.43398
3180.20278	7.36052
3178.27422	7.28772
3176.34565	7.22138
3174.41709	7.15585
3172.48853	7.11509
3170.55996	7.09035
3168.63140	7.04788
3166.70283	6.98727
3164.77427	6.92316
3162.84570	6.86154
3160.91714	6.81682
3158.98857	6.78804
3157.06001	6.72462
3155.13145	6.60874
3153.20288	6.49235
3151.27432	6.41129
3149.34575	6.35745
3147.41719	6.31448
3145.48862	6.25796
3143.56006	6.17460
3141.63149	6.09273
3139.70293	6.02451
3137.77437	5.96121
3135.84580	5.89937
3133.91724	5.83024
3131.98867	5.75753
3130.06011	5.69466
3128.13154	5.63631
3126.20298	5.57226
3124.27441	5.50335
3122.34585	5.42753
3120.41729	5.34815
3118.48872	5.27182
3116.56016	5.19787
3114.63159	5.12720
3112.70303	5.06263
3110.77446	5.00311
3108.84590	4.93957
3106.91733	4.86601
3104.98877	4.79015
3103.06021	4.71930
3101.13164	4.64950
3099.20308	4.58031
3097.27451	4.51524
3095.34595	4.45033
3093.41738	4.38345
3091.48882	4.31669
3089.56025	4.25082
3087.63169	4.18784
3085.70312	4.12784
3083.77456	4.06713
3081.84600	4.00615
3079.91743	3.94756
3077.98887	3.88907
3076.06030	3.82908
3074.13174	3.77030
3072.20317	3.71209
3070.27461	3.65333
3068.34604	3.59712
3066.41748	3.54271
3064.48892	3.48725
3062.56035	3.43187
3060.63179	3.37798
3058.70322	3.32376
3056.77466	3.26735
3054.84609	3.21181
3052.91753	3.16043
3050.98896	3.11060
3049.06040	3.05867
3047.13184	3.00518
3045.20327	2.95301
3043.27471	2.90333
3041.34614	2.85461
3039.41758	2.80652
3037.48901	2.76029
3035.56045	2.71460
3033.63188	2.66786
3031.70332	2.62116
3029.77476	2.57579
3027.84619	2.53218
3025.91763	2.48990
3023.98906	2.44707
3022.06050	2.40334
3020.13193	2.36044
3018.20337	2.31875
3016.27480	2.27760
3014.34624	2.23707
3012.41768	2.19771
3010.48911	2.15946
3008.56055	2.12230
3006.63198	2.08624
3004.70342	2.05023
3002.77485	2.01398
3000.84629	1.97864
2998.91772	1.94462
2996.98916	1.91135
2995.06060	1.87902
2993.13203	1.84820
2991.20347	1.81830
2989.27490	1.78831
2987.34634	1.75828
2985.41777	1.72894
2983.48921	1.70094
2981.56064	1.67408
2979.63208	1.64759
2977.70352	1.62164
2975.77495	1.59624
2973.84639	1.57077
2971.91782	1.54577
2969.98926	1.52209
2968.06069	1.49950
2966.13213	1.47689
2964.20356	1.45354
2962.27500	1.42995
2960.34644	1.40631
2958.41787	1.38221
2956.48931	1.35803
2954.56074	1.33430
2952.63218	1.31035
2950.70361	1.28610
2948.77505	1.26267
2946.84648	1.24044
2944.91792	1.21937
2942.98936	1.19931
2941.06079	1.17941
2939.13223	1.15940
2937.20366	1.13976
2935.27510	1.12043
2933.34653	1.10086
2931.41797	1.08101
2929.48940	1.06161
2927.56084	1.04279
2925.63228	1.02407
2923.70371	1.00545
2921.77515	0.98694
2919.84658	0.96844
2917.91802	0.95015
2915.98945	0.93240
2914.06089	0.91539
2912.13232	0.89886
2910.20376	0.88230
2908.27520	0.86590
2906.34663	0.85030
2904.41807	0.83537
2902.48950	0.82056
2900.56094	0.80581
2898.63237	0.79154
2896.70381	0.77801
2894.77524	0.76507
2892.84668	0.75227
2890.91812	0.73964
2888.98955	0.72770
2887.06099	0.71664
2885.13242	0.70637
2883.20386	0.69652
2881.27529	0.68665
2879.34673	0.67670
2877.41816	0.66689
2875.48960	0.65739
2873.56104	0.64785
2871.63247	0.63770
2869.70391	0.62679
2867.77534	0.61501
2865.84678	0.60276
2863.91821	0.59072
2861.98965	0.57918
2860.06108	0.56839
2858.13252	0.55810
2856.20396	0.54788
2854.27539	0.53803
2852.34683	0.52879
2850.41826	0.52016
2848.48970	0.51174
2846.56113	0.50311
2844.63257	0.49466
2842.70400	0.48701
2840.77544	0.47989
2838.84687	0.47302
2836.91831	0.46651
2834.98975	0.46025
2833.06118	0.45414
2831.13262	0.44813
2829.20405	0.44202
2827.27549	0.43578
2825.34692	0.42954
2823.41836	0.42339
2821.48979	0.41725
2819.56123	0.41109
2817.63267	0.40512
2815.70410	0.39941
2813.77554	0.39384
2811.84697	0.38837
2809.91841	0.38281
2807.98984	0.37723
2806.06128	0.37186
2804.13271	0.36668
2802.20415	0.36158
2800.27559	0.35651
2798.34702	0.35154
2796.41846	0.34683
2794.48989	0.34223
2792.56133	0.33765
2790.63276	0.33308
2788.70420	0.32845
2786.77563	0.32375
2784.84707	0.31911
2782.91851	0.31474
2780.98994	0.31076
2779.06138	0.30694
2777.13281	0.30302
2775.20425	0.29898
2773.27568	0.29485
2771.34712	0.29091
2769.41855	0.28714
2767.48999	0.28339
2765.56143	0.27987
2763.63286	0.27664
2761.70430	0.27337
2759.77573	0.26989
2757.84717	0.26640
2755.91860	0.26327
2753.99004	0.26036
2752.06147	0.25740
2750.13291	0.25441
2748.20435	0.25132
2746.27578	0.24819
2744.34722	0.24522
2742.41865	0.24249
2740.49009	0.23987
2738.56152	0.23714
2736.63296	0.23443
2734.70439	0.23200
2732.77583	0.22977
2730.84727	0.22751
2728.91870	0.22507
2726.99014	0.22266
2725.06157	0.22041
2723.13301	0.21823
2721.20444	0.21598
2719.27588	0.21373
2717.34731	0.21168
2715.41875	0.20985
2713.49019	0.20814
2711.56162	0.20637
2709.63306	0.20454
2707.70449	0.20277
2705.77593	0.20098
2703.84736	0.19921
2701.91880	0.19759
2699.99023	0.19605
2698.06167	0.19459
2696.13311	0.19328
2694.20454	0.19208
2692.27598	0.19083
2690.34741	0.18942
2688.41885	0.18802
2686.49028	0.18672
2684.56172	0.18539
2682.63315	0.18406
2680.70459	0.18271
2678.77603	0.18153
2676.84746	0.18067
2674.91890	0.17981
2672.99033	0.17872
2671.06177	0.17750
2669.13320	0.17627
2667.20464	0.17523
2665.27607	0.17441
2663.34751	0.17366
2661.41895	0.17284
2659.49038	0.17201
2657.56182	0.17120
2655.63325	0.17031
2653.70469	0.16934
2651.77612	0.16849
2649.84756	0.16780
2647.91899	0.16716
2645.99043	0.16649
2644.06187	0.16578
2642.13330	0.16516
2640.20474	0.16468
2638.27617	0.16423
2636.34761	0.16374
2634.41904	0.16329
2632.49048	0.16296
2630.56191	0.16262
2628.63335	0.16215
2626.70479	0.16166
2624.77622	0.16128
2622.84766	0.16089
2620.91909	0.16045
2618.99053	0.16018
2617.06196	0.15997
2615.13340	0.15967
2613.20483	0.15945
2611.27627	0.15938
2609.34771	0.15932
2607.41914	0.15909
2605.49058	0.15874
2603.56201	0.15854
2601.63345	0.15858
2599.70488	0.15867
2597.77632	0.15863
2595.84775	0.15853
2593.91919	0.15852
2591.99062	0.15873
2590.06206	0.15908
2588.13350	0.15939
2586.20493	0.15956
2584.27637	0.15950
2582.34780	0.15932
2580.41924	0.15946
2578.49067	0.15988
2576.56211	0.16018
2574.63354	0.16034
2572.70498	0.16066
2570.77642	0.16113
2568.84785	0.16152
2566.91929	0.16184
2564.99072	0.16210
2563.06216	0.16235
2561.13359	0.16275
2559.20503	0.16323
2557.27646	0.16375
2555.34790	0.16434
2553.41934	0.16480
2551.49077	0.16511
2549.56221	0.16549
2547.63364	0.16591
2545.70508	0.16634
2543.77651	0.16687
2541.84795	0.16751
2539.91938	0.16813
2537.99082	0.16870
2536.06226	0.16930
2534.13369	0.17002
2532.20513	0.17069
2530.27656	0.17130
2528.34800	0.17207
2526.41943	0.17293
2524.49087	0.17374
2522.56230	0.17440
2520.63374	0.17497
2518.70518	0.17560
2516.77661	0.17624
2514.84805	0.17683
2512.91948	0.17752
2510.99092	0.17839
2509.06235	0.17929
2507.13379	0.17999
2505.20522	0.18053
2503.27666	0.18123
2501.34810	0.18220
2499.41953	0.18311
2497.49097	0.18387
2495.56240	0.18468
2493.63384	0.18541
2491.70527	0.18598
2489.77671	0.18674
2487.84814	0.18778
2485.91958	0.18875
2483.99102	0.18950
2482.06245	0.19018
2480.13389	0.19098
2478.20532	0.19196
2476.27676	0.19300
2474.34819	0.19388
2472.41963	0.19457
2470.49106	0.19524
2468.56250	0.19614
2466.63394	0.19724
2464.70537	0.19823
2462.77681	0.19905
2460.84824	0.19986
2458.91968	0.20070
2456.99111	0.20164
2455.06255	0.20257
2453.13398	0.20333
2451.20542	0.20417
2449.27686	0.20522
2447.34829	0.20628
2445.41973	0.20728
2443.49116	0.20830
2441.56260	0.20927
2439.63403	0.21017
2437.70547	0.21100
2435.77690	0.21188
2433.84834	0.21292
2431.91978	0.21400
2429.99121	0.21496
2428.06265	0.21594
2426.13408	0.21704
2424.20552	0.21821
2422.27695	0.21940
2420.34839	0.22053
2418.41982	0.22158
2416.49126	0.22263
2414.56270	0.22368
2412.63413	0.22470
2410.70557	0.22569
2408.77700	0.22675
2406.84844	0.22787
2404.91987	0.22905
2402.99131	0.23042
2401.06274	0.23186
2399.13418	0.23307
2397.20562	0.23416
2395.27705	0.23527
2393.34849	0.23640
2391.41992	0.23768
2389.49136	0.23911
2387.56279	0.24067
2385.63423	0.24258
2383.70566	0.24515
2381.77710	0.24849
2379.84854	0.25231
2377.91997	0.25642
2375.99141	0.26110
2374.06284	0.26664
2372.13428	0.27286
2370.20571	0.27918
2368.27715	0.28527
2366.34858	0.29176
2364.42002	0.29853
2362.49146	0.30382
2360.56289	0.30641
2358.63433	0.30709
2356.70576	0.30630
2354.77720	0.30386
2352.84863	0.30042
2350.92007	0.29627
2348.99150	0.29312
2347.06294	0.29307
2345.13437	0.29725
2343.20581	0.30401
2341.27725	0.30884
2339.34868	0.31073
2337.42012	0.31139
2335.49155	0.31186
2333.56299	0.31234
2331.63442	0.31294
2329.70586	0.31331
2327.77729	0.31330
2325.84873	0.31315
2323.92017	0.31334
2321.99160	0.31371
2320.06304	0.31335
2318.13447	0.31252
2316.20591	0.31208
2314.27734	0.31212
2312.34878	0.31251
2310.42021	0.31325
2308.49165	0.31406
2306.56309	0.31452
2304.63452	0.31470
2302.70596	0.31511
2300.77739	0.31603
2298.84883	0.31731
2296.92026	0.31873
2294.99170	0.32019
2293.06313	0.32158
2291.13457	0.32279
2289.20601	0.32397
2287.27744	0.32534
2285.34888	0.32691
2283.42031	0.32859
2281.49175	0.33050
2279.56318	0.33269
2277.63462	0.33488
2275.70605	0.33684
2273.77749	0.33878
2271.84893	0.34088
2269.92036	0.34305
2267.99180	0.34512
2266.06323	0.34709
2264.13467	0.34914
2262.20610	0.35124
2260.27754	0.35317
2258.34897	0.35502
2256.42041	0.35704
2254.49185	0.35917
2252.56328	0.36125
2250.63472	0.36338
2248.70615	0.36563
2246.77759	0.36791
2244.84902	0.37015
2242.92046	0.37228
2240.99189	0.37430
2239.06333	0.37637
2237.13477	0.37849
2235.20620	0.38059
2233.27764	0.38277
2231.34907	0.38508
2229.42051	0.38733
2227.49194	0.38946
2225.56338	0.39162
2223.63481	0.39387
2221.70625	0.39618
2219.77769	0.39849
2217.84912	0.40057
2215.92056	0.40250
2213.99199	0.40471
2212.06343	0.40711
2210.13486	0.40932
2208.20630	0.41142
2206.27773	0.41354
2204.34917	0.41557
2202.42061	0.41753
2200.49204	0.41947
2198.56348	0.42135
2196.63491	0.42328
2194.70635	0.42530
2192.77778	0.42724
2190.84922	0.42909
2188.92065	0.43096
2186.99209	0.43282
2185.06353	0.43460
2183.13496	0.43620
2181.20640	0.43766
2179.27783	0.43924
2177.34927	0.44099
2175.42070	0.44258
2173.49214	0.44398
2171.56357	0.44543
2169.63501	0.44695
2167.70645	0.44833
2165.77788	0.44951
2163.84932	0.45052
2161.92075	0.45149
2159.99219	0.45258
2158.06362	0.45379
2156.13506	0.45490
2154.20649	0.45579
2152.27793	0.45650
2150.34937	0.45701
2148.42080	0.45743
2146.49224	0.45787
2144.56367	0.45830
2142.63511	0.45874
2140.70654	0.45919
2138.77798	0.45944
2136.84941	0.45943
2134.92085	0.45942
2132.99229	0.45944
2131.06372	0.45936
2129.13516	0.45921
2127.20659	0.45896
2125.27803	0.45857
2123.34946	0.45802
2121.42090	0.45736
2119.49233	0.45673
2117.56377	0.45619
2115.63521	0.45548
2113.70664	0.45452
2111.77808	0.45357
2109.84951	0.45256
2107.92095	0.45134
2105.99238	0.45020
2104.06382	0.44921
2102.13525	0.44798
2100.20669	0.44641
2098.27812	0.44467
2096.34956	0.44285
2094.42100	0.44116
2092.49243	0.43975
2090.56387	0.43825
2088.63530	0.43642
2086.70674	0.43460
2084.77817	0.43281
2082.84961	0.43081
2080.92104	0.42868
2078.99248	0.42661
2077.06392	0.42454
2075.13535	0.42233
2073.20679	0.41998
2071.27822	0.41761
2069.34966	0.41526
2067.42109	0.41285
2065.49253	0.41046
2063.56396	0.40814
2061.63540	0.40583
2059.70684	0.40342
2057.77827	0.40090
2055.84971	0.39825
2053.92114	0.39548
2051.99258	0.39277
2050.06401	0.39012
2048.13545	0.38740
2046.20688	0.38463
2044.27832	0.38196
2042.34976	0.37927
2040.42119	0.37649
2038.49263	0.37375
2036.56406	0.37102
2034.63550	0.36821
2032.70693	0.36538
2030.77837	0.36267
2028.84980	0.35994
2026.92124	0.35715
2024.99268	0.35441
2023.06411	0.35163
2021.13555	0.34877
2019.20698	0.34592
2017.27842	0.34316
2015.34985	0.34041
2013.42129	0.33764
2011.49272	0.33487
2009.56416	0.33212
2007.63560	0.32942
2005.70703	0.32683
2003.77847	0.32427
2001.84990	0.32165
1999.92134	0.31901
1997.99277	0.31636
1996.06421	0.31367
1994.13564	0.31101
1992.20708	0.30847
1990.27852	0.30605
1988.34995	0.30372
1986.42139	0.30138
1984.49282	0.29904
1982.56426	0.29672
1980.63569	0.29442
1978.70713	0.29209
1976.77856	0.28979
1974.85000	0.28768
1972.92144	0.28563
1970.99287	0.28342
1969.06431	0.28119
1967.13574	0.27909
1965.20718	0.27719
1963.27861	0.27543
1961.35005	0.27363
1959.42148	0.27177
1957.49292	0.26993
1955.56436	0.26812
1953.63579	0.26641
1951.70723	0.26476
1949.77866	0.26310
1947.85010	0.26145
1945.92153	0.25987
1943.99297	0.25834
1942.06440	0.25680
1940.13584	0.25533
1938.20728	0.25404
1936.27871	0.25284
1934.35015	0.25162
1932.42158	0.25037
1930.49302	0.24913
1928.56445	0.24799
1926.63589	0.24692
1924.70732	0.24591
1922.77876	0.24498
1920.85020	0.24406
1918.92163	0.24312
1916.99307	0.24227
1915.06450	0.24153
1913.13594	0.24062
1911.20737	0.23971
1909.27881	0.23904
1907.35024	0.23851
1905.42168	0.23793
1903.49312	0.23742
1901.56455	0.23697
1899.63599	0.23647
1897.70742	0.23597
1895.77886	0.23551
1893.85029	0.23514
1891.92173	0.23483
1889.99316	0.23457
1888.06460	0.23434
1886.13604	0.23418
1884.20747	0.23404
1882.27891	0.23387
1880.35034	0.23374
1878.42178	0.23368
1876.49321	0.23371
1874.56465	0.23377
1872.63608	0.23382
1870.70752	0.23376
1868.77896	0.23384
1866.85039	0.23416
1864.92183	0.23451
1862.99326	0.23485
1861.06470	0.23520
1859.13613	0.23555
1857.20757	0.23585
1855.27900	0.23625
1853.35044	0.23671
1851.42187	0.23729
1849.49331	0.23786
1847.56475	0.23835
1845.63618	0.23887
1843.70762	0.23974
1841.77905	0.24083
1839.85049	0.24161
1837.92192	0.24242
1835.99336	0.24333
1834.06479	0.24429
1832.13623	0.24516
1830.20767	0.24621
1828.27910	0.24750
1826.35054	0.24871
1824.42197	0.25013
1822.49341	0.25165
1820.56484	0.25310
1818.63628	0.25444
1816.70771	0.25590
1814.77915	0.25745
1812.85059	0.25918
1810.92202	0.26116
1808.99346	0.26325
1807.06489	0.26535
1805.13633	0.26744
1803.20776	0.26964
1801.27920	0.27187
1799.35063	0.27441
1797.42207	0.27690
1795.49351	0.27924
1793.56494	0.28186
1791.63638	0.28541
1789.70781	0.28924
1787.77925	0.29225
1785.85068	0.29536
1783.92212	0.29881
1781.99355	0.30253
1780.06499	0.30660
1778.13643	0.31094
1776.20786	0.31497
1774.27930	0.31897
1772.35073	0.32421
1770.42217	0.33037
1768.49360	0.33616
1766.56504	0.34183
1764.63647	0.34745
1762.70791	0.35325
1760.77935	0.36048
1758.85078	0.36743
1756.92222	0.37443
1754.99365	0.38214
1753.06509	0.38912
1751.13652	0.39704
1749.20796	0.40710
1747.27939	0.41769
1745.35083	0.42731
1743.42227	0.43713
1741.49370	0.44764
1739.56514	0.46001
1737.63657	0.47251
1735.70801	0.48338
1733.77944	0.49952
1731.85088	0.51926
1729.92231	0.53524
1727.99375	0.55127
1726.06519	0.56823
1724.13662	0.58646
1722.20806	0.60624
1720.27949	0.62449
1718.35093	0.64539
1716.42236	0.67643
1714.49380	0.70700
1712.56523	0.73239
1710.63667	0.75699
1708.70811	0.78319
1706.77954	0.81255
1704.85098	0.84744
1702.92241	0.87870
1700.99385	0.90972
1699.06528	0.95633
1697.13672	1.00001
1695.20815	1.04569
1693.27959	1.09098
1691.35103	1.12776
1689.42246	1.16977
1687.49390	1.21428
1685.56533	1.25769
1683.63677	1.32495
1681.70820	1.39557
1679.77964	1.44151
1677.85107	1.48493
1675.92251	1.53458
1673.99395	1.59604
1672.06538	1.65057
1670.13682	1.70344
1668.20825	1.77309
1666.27969	1.83217
1664.35112	1.88417
1662.42256	1.95007
1660.49399	2.02417
1658.56543	2.08217
1656.63687	2.12902
1654.70830	2.17013
1652.77974	2.22755
1650.85117	2.28153
1648.92261	2.30189
1646.99404	2.32529
1645.06548	2.35094
1643.13691	2.36868
1641.20835	2.37508
1639.27979	2.37728
1637.35122	2.37617
1635.42266	2.37245
1633.49409	2.36550
1631.56553	2.35129
1629.63696	2.33056
1627.70840	2.29739
1625.77983	2.26096
1623.85127	2.21586
1621.92271	2.16081
1619.99414	2.11209
1618.06558	2.06394
1616.13701	1.99656
1614.20845	1.92933
1612.27988	1.87796
1610.35132	1.82484
1608.42275	1.76751
1606.49419	1.71110
1604.56562	1.65999
1602.63706	1.61140
1600.70850	1.56426
1598.77993	1.52118
1596.85137	1.48093
1594.92280	1.44177
1592.99424	1.40376
1591.06567	1.36888
1589.13711	1.33651
1587.20854	1.30684
1585.27998	1.27960
1583.35142	1.25438
1581.42285	1.23184
1579.49429	1.21297
1577.56572	1.19642
1575.63716	1.17749
1573.70859	1.16216
1571.78003	1.15267
1569.85146	1.14329
1567.92290	1.13411
1565.99434	1.12853
1564.06577	1.12555
1562.13721	1.12383
1560.20864	1.12383
1558.28008	1.13064
1556.35151	1.14021
1554.42295	1.14547
1552.49438	1.15015
1550.56582	1.15298
1548.63726	1.15256
1546.70869	1.14820
1544.78013	1.13892
1542.85156	1.12480
1540.92300	1.10366
1538.99443	1.07159
1537.06587	1.04870
1535.13730	1.03268
1533.20874	1.01020
1531.28018	0.98604
1529.35161	0.96848
1527.42305	0.95163
1525.49448	0.93416
1523.56592	0.91964
1521.63735	0.90633
1519.70879	0.89353
1517.78022	0.88274
1515.85166	0.86991
1513.92310	0.85621
1511.99453	0.84372
1510.06597	0.83171
1508.13740	0.81936
1506.20884	0.80172
1504.28027	0.78830
1502.35171	0.78117
1500.42314	0.77434
1498.49458	0.76658
1496.56602	0.75774
1494.63745	0.74935
1492.70889	0.74278
1490.78032	0.73677
1488.85176	0.73029
1486.92319	0.72486
1484.99463	0.72082
1483.06606	0.71776
1481.13750	0.71547
1479.20894	0.71395
1477.28037	0.71331
1475.35181	0.71361
1473.42324	0.71464
1471.49468	0.71519
1469.56611	0.71416
1467.63755	0.71223
1465.70898	0.71037
1463.78042	0.70920
1461.85186	0.70866
1459.92329	0.70833
1457.99473	0.70814
1456.06616	0.70788
1454.13760	0.70639
1452.20903	0.70403
1450.28047	0.70120
1448.35190	0.69799
1446.42334	0.69463
1444.49478	0.69173
1442.56621	0.68890
1440.63765	0.68560
1438.70908	0.68196
1436.78052	0.67741
1434.85195	0.67265
1432.92339	0.66930
1430.99482	0.66717
1429.06626	0.66622
1427.13770	0.66623
1425.20913	0.66680
1423.28057	0.66784
1421.35200	0.66879
1419.42344	0.66929
1417.49487	0.66933
1415.56631	0.66895
1413.63774	0.66876
1411.70918	0.66913
1409.78062	0.67027
1407.85205	0.67217
1405.92349	0.67452
1403.99492	0.67659
1402.06636	0.67742
1400.13779	0.67683
1398.20923	0.67484
1396.28066	0.67183
1394.35210	0.66796
1392.42354	0.66339
1390.49497	0.65865
1388.56641	0.65359
1386.63784	0.64793
1384.70928	0.64217
1382.78071	0.63655
1380.85215	0.63100
1378.92358	0.62616
1376.99502	0.62255
1375.06646	0.62008
1373.13789	0.61844
1371.20933	0.61738
1369.28076	0.61651
1367.35220	0.61544
1365.42363	0.61404
1363.49507	0.61246
1361.56650	0.61081
1359.63794	0.60917
1357.70937	0.60756
1355.78081	0.60593
1353.85225	0.60458
1351.92368	0.60376
1349.99512	0.60324
1348.06655	0.60270
1346.13799	0.60197
1344.20942	0.60112
1342.28086	0.60031
1340.35229	0.59960
1338.42373	0.59894
1336.49517	0.59836
1334.56660	0.59799
1332.63804	0.59794
1330.70947	0.59827
1328.78091	0.59896
1326.85234	0.59991
1324.92378	0.60097
1322.99521	0.60214
1321.06665	0.60319
1319.13809	0.60392
1317.20952	0.60443
1315.28096	0.60475
1313.35239	0.60474
1311.42383	0.60437
1309.49526	0.60381
1307.56670	0.60329
1305.63813	0.60290
1303.70957	0.60255
1301.78101	0.60206
1299.85244	0.60117
1297.92388	0.59991
1295.99531	0.59865
1294.06675	0.59746
1292.13818	0.59612
1290.20962	0.59462
1288.28105	0.59304
1286.35249	0.59152
1284.42393	0.59008
1282.49536	0.58858
1280.56680	0.58709
1278.63823	0.58554
1276.70967	0.58392
1274.78110	0.58245
1272.85254	0.58135
1270.92397	0.58055
1268.99541	0.57976
1267.06685	0.57882
1265.13828	0.57780
1263.20972	0.57671
1261.28115	0.57573
1259.35259	0.57500
1257.42402	0.57433
1255.49546	0.57378
1253.56689	0.57366
1251.63833	0.57382
1249.70977	0.57392
1247.78120	0.57393
1245.85264	0.57377
1243.92407	0.57318
1241.99551	0.57207
1240.06694	0.57053
1238.13838	0.56871
1236.20981	0.56648
1234.28125	0.56383
1232.35269	0.56103
1230.42412	0.55830
1228.49556	0.55576
1226.56699	0.55348
1224.63843	0.55144
1222.70986	0.54947
1220.78130	0.54751
1218.85273	0.54578
1216.92417	0.54440
1214.99561	0.54324
1213.06704	0.54226
1211.13848	0.54145
1209.20991	0.54064
1207.28135	0.53979
1205.35278	0.53891
1203.42422	0.53788
1201.49565	0.53675
1199.56709	0.53566
1197.63853	0.53474
1195.70996	0.53396
1193.78140	0.53324
1191.85283	0.53273
1189.92427	0.53256
1187.99570	0.53241
1186.06714	0.53228
1184.13857	0.53240
1182.21001	0.53290
1180.28145	0.53390
1178.35288	0.53546
1176.42432	0.53724
1174.49575	0.53875
1172.56719	0.53968
1170.63862	0.54002
1168.71006	0.53995
1166.78149	0.53965
1164.85293	0.53935
1162.92437	0.53916
1160.99580	0.53903
1159.06724	0.53886
1157.13867	0.53834
1155.21011	0.53739
1153.28154	0.53611
1151.35298	0.53429
1149.42441	0.53186
1147.49585	0.52913
1145.56729	0.52636
1143.63872	0.52365
1141.71016	0.52133
1139.78159	0.51964
1137.85303	0.51830
1135.92446	0.51709
1133.99590	0.51636
1132.06733	0.51616
1130.13877	0.51612
1128.21021	0.51596
1126.28164	0.51553
1124.35308	0.51491
1122.42451	0.51428
1120.49595	0.51373
1118.56738	0.51345
1116.63882	0.51352
1114.71025	0.51366
1112.78169	0.51391
1110.85312	0.51451
1108.92456	0.51535
1106.99600	0.51628
1105.06743	0.51723
1103.13887	0.51814
1101.21030	0.51926
1099.28174	0.52088
1097.35317	0.52291
1095.42461	0.52541
1093.49604	0.52876
1091.56748	0.53333
1089.63892	0.53908
1087.71035	0.54579
1085.78179	0.55323
1083.85322	0.56094
1081.92466	0.56795
1079.99609	0.57329
1078.06753	0.57610
1076.13896	0.57571
1074.21040	0.57244
1072.28184	0.56741
1070.35327	0.56127
1068.42471	0.55409
1066.49614	0.54660
1064.56758	0.53982
1062.63901	0.53408
1060.71045	0.52924
1058.78188	0.52514
1056.85332	0.52136
1054.92476	0.51759
1052.99619	0.51417
1051.06763	0.51157
1049.13906	0.50971
1047.21050	0.50820
1045.28193	0.50705
1043.35337	0.50625
1041.42480	0.50556
1039.49624	0.50488
1037.56768	0.50435
1035.63911	0.50404
1033.71055	0.50356
1031.78198	0.50265
1029.85342	0.50158
1027.92485	0.50050
1025.99629	0.49913
1024.06772	0.49773
1022.13916	0.49704
1020.21060	0.49707
1018.28203	0.49748
1016.35347	0.49787
1014.42490	0.49785
1012.49634	0.49771
1010.56777	0.49783
1008.63921	0.49812
1006.71064	0.49867
1004.78208	0.49989
1002.85352	0.50185
1000.92495	0.50443
998.99639	0.50771
997.06782	0.51175
995.13926	0.51622
993.21069	0.52059
991.28213	0.52418
989.35356	0.52637
987.42500	0.52730
985.49644	0.52763
983.56787	0.52780
981.63931	0.52817
979.71074	0.52912
977.78218	0.53066
975.85361	0.53245
973.92505	0.53447
971.99648	0.53722
970.06792	0.54094
968.13936	0.54514
966.21079	0.54928
964.28223	0.55333
962.35366	0.55773
960.42510	0.56286
958.49653	0.56841
956.56797	0.57425
954.63940	0.58063
952.71084	0.58703
950.78228	0.59315
948.85371	0.59947
946.92515	0.60611
944.99658	0.61256
943.06802	0.61895
941.13945	0.62541
939.21089	0.63115
937.28232	0.63659
935.35376	0.64268
933.42520	0.64865
931.49663	0.65431
929.56807	0.66041
927.63950	0.66677
925.71094	0.67323
923.78237	0.67953
921.85381	0.68543
919.92524	0.69191
917.99668	0.69919
916.06812	0.70621
914.13955	0.71290
912.21099	0.72027
910.28242	0.72889
908.35386	0.73855
906.42529	0.74824
904.49673	0.75745
902.56816	0.76632
900.63960	0.77487
898.71104	0.78394
896.78247	0.79342
894.85391	0.80285
892.92534	0.81357
890.99678	0.82595
889.06821	0.83789
887.13965	0.84800
885.21108	0.85840
883.28252	0.87080
881.35396	0.88318
879.42539	0.89356
877.49683	0.90395
875.56826	0.91674
873.63970	0.92998
871.71113	0.94144
869.78257	0.95198
867.85400	0.96191
865.92544	0.97121
863.99687	0.98218
862.06831	0.99593
860.13975	1.01003
858.21118	1.02201
856.28262	1.03245
854.35405	1.04419
852.42549	1.05676
850.49692	1.06672
848.56836	1.07460
846.63979	1.08413
844.71123	1.09612
842.78267	1.10936
840.85410	1.12355
838.92554	1.13669
836.99697	1.14637
835.06841	1.15434
833.13984	1.16410
831.21128	1.17500
829.28271	1.18738
827.35415	1.20451
825.42559	1.22104
823.49702	1.23193
821.56846	1.23995
819.63989	1.24693
817.71133	1.25491
815.78276	1.26877
813.85420	1.28837
811.92563	1.29949
809.99707	1.29682
808.06851	1.29643
806.13994	1.30552
804.21138	1.31657
802.28281	1.32621
800.35425	1.34078
798.42568	1.35632
796.49712	1.34535
794.56855	1.30831
792.63999	1.28343
790.71143	1.29586
788.78286	1.34275
786.85430	1.39198
784.92573	1.38823
782.99717	1.32171
781.06860	1.29343
779.14004	1.34817
777.21147	1.44496
775.28291	1.54845
773.35435	1.55147
771.42578	1.43693
769.49722	1.35063
767.56865	1.29138
765.64009	1.29266
763.71152	1.43904
761.78296	1.64723
759.85439	1.62306
757.92583	1.50103
755.99727	1.36876
754.06870	1.25439
752.14014	1.17442
750.21157	1.15088
748.28301	1.14505
746.35444	1.08885
744.42588	1.02145
742.49731	0.99877
740.56875	1.06152
738.64019	1.19575
736.71162	1.12908
734.78306	0.94223
732.85449	0.88395
730.92593	0.86486
728.99736	0.76978
727.06880	0.67758
725.14023	0.65718
723.21167	0.75337
721.28311	0.98543
719.35454	0.96218
717.42598	0.69512
715.49741	0.49427
713.56885	0.37607
711.64028	0.37760
709.71172	0.51323
707.78315	0.63897
705.85459	0.57808
703.92603	0.50003
701.99746	0.38575
700.06890	0.25003
698.14033	0.20387
696.21177	0.18734
694.28320	0.21075
692.35464	0.29478
690.42607	0.28601
688.49751	0.19402
686.56895	0.23094
684.64038	0.40642
682.71182	0.51580
680.78325	0.39472
678.85469	0.27977
676.92612	0.30792
674.99756	0.34588
673.06899	0.21735
671.14043	0.13519
669.21187	0.14999
667.28330	0.26930
665.35474	0.40027
663.42617	0.38326
661.49761	0.25924
659.56904	0.17235
657.64048	0.21526
655.71191	0.38693
653.78335	0.53353
651.85479	0.34398
649.92622	0.17831
647.99766	0.13092
646.06909	0.09954
644.14053	0.09715
642.21196	0.15692
640.28340	0.22541
638.35483	0.29394
636.42627	0.39417
634.49771	0.49768
632.56914	0.52056
630.64058	0.38504
628.71201	0.26869
626.78345	0.27621
624.85488	0.32580
622.92632	0.27859
620.99775	0.22210
619.06919	0.20831
617.14062	0.22413
615.21206	0.31531
613.28350	0.55161
611.35493	0.57810
609.42637	0.30957
607.49780	0.24999
605.56924	0.25973
603.64067	0.26999
601.71211	0.29899
599.78354	0.32491
597.85498	0.34843
595.92642	0.34403
593.99785	0.26191
592.06929	0.18911
590.14072	0.20123
588.21216	0.30703
586.28359	0.42103
584.35503	0.39486
582.42646	0.34735
580.49790	0.33013
578.56934	0.31328
576.64077	0.30451
574.71221	0.33338
572.78364	0.33405
570.85508	0.23760
568.92651	0.13950
566.99795	0.13725
565.06938	0.21666
563.14082	0.24405
561.21226	0.27294
559.28369	0.30821
557.35513	0.29623
555.42656	0.28521
553.49800	0.24858
551.56943	0.16531
549.64087	0.11179
547.71230	0.16000
545.78374	0.27907
543.85518	0.31516
541.92661	0.27346
539.99805	0.23786
538.06948	0.20312
536.14092	0.18384
534.21235	0.17269
532.28379	0.12063
530.35522	0.08193
528.42666	0.06491
526.49810	0.03926
524.56953	0.03711
522.64097	0.10613
520.71240	0.24705
518.78384	0.43838
516.85527	0.60911
514.92671	0.68224
512.99814	0.53547
511.06958	0.43557
509.14102	0.34746
507.21245	0.23416
505.28389	0.20976
503.35532	0.27341
501.42676	0.35043
499.49819	0.41833
