3997.91411	0.07176
3995.98555	0.07211
3994.05698	0.07261
3992.12842	0.07296
3990.19985	0.07304
3988.27129	0.07321
3986.34272	0.07334
3984.41416	0.07331
3982.48560	0.07355
3980.55703	0.07397
3978.62847	0.07423
3976.69990	0.07435
3974.77134	0.07453
3972.84277	0.07482
3970.91421	0.07516
3968.98564	0.07546
3967.05708	0.07554
3965.12852	0.07556
3963.19995	0.07577
3961.27139	0.07598
3959.34282	0.07607
3957.41426	0.07605
3955.48569	0.07591
3953.55713	0.07581
3951.62856	0.07607
3949.70000	0.07671
3947.77144	0.07740
3945.84287	0.07746
3943.91431	0.07686
3941.98574	0.07644
3940.05718	0.07638
3938.12861	0.07615
3936.20005	0.07571
3934.27148	0.07543
3932.34292	0.07553
3930.41436	0.07578
3928.48579	0.07581
3926.55723	0.07567
3924.62866	0.07585
3922.70010	0.07634
3920.77153	0.07636
3918.84297	0.07615
3916.91440	0.07656
3914.98584	0.07692
3913.05728	0.07628
3911.12871	0.07532
3909.20015	0.07466
3907.27158	0.07433
3905.34302	0.07458
3903.41445	0.07540
3901.48589	0.07621
3899.55732	0.07690
3897.62876	0.07667
3895.70020	0.07560
3893.77163	0.07506
3891.84307	0.07507
3889.91450	0.07493
3887.98594	0.07466
3886.05737	0.07489
3884.12881	0.07560
3882.20024	0.07602
3880.27168	0.07604
3878.34312	0.07608
3876.41455	0.07598
3874.48599	0.07579
3872.55742	0.07594
3870.62886	0.07661
3868.70029	0.07760
3866.77173	0.07792
3864.84316	0.07781
3862.91460	0.07828
3860.98604	0.07875
3859.05747	0.07839
3857.12891	0.07778
3855.20034	0.07793
3853.27178	0.07991
3851.34321	0.08259
3849.41465	0.08256
3847.48608	0.08154
3845.55752	0.08126
3843.62896	0.08197
3841.70039	0.08283
3839.77183	0.08347
3837.84326	0.08486
3835.91470	0.08613
3833.98613	0.08613
3832.05757	0.08588
3830.12900	0.08582
3828.20044	0.08585
3826.27187	0.08613
3824.34331	0.08696
3822.41475	0.08868
3820.48618	0.09129
3818.55762	0.09247
3816.62905	0.09219
3814.70049	0.09274
3812.77192	0.09356
3810.84336	0.09403
3808.91479	0.09478
3806.98623	0.09601
3805.05767	0.09708
3803.12910	0.09795
3801.20054	0.09953
3799.27197	0.10118
3797.34341	0.10201
3795.41484	0.10279
3793.48628	0.10377
3791.55771	0.10507
3789.62915	0.10651
3787.70059	0.10771
3785.77202	0.10893
3783.84346	0.11024
3781.91489	0.11134
3779.98633	0.11246
3778.05776	0.11395
3776.12920	0.11575
3774.20063	0.11749
3772.27207	0.11885
3770.34351	0.12062
3768.41494	0.12351
3766.48638	0.12617
3764.55781	0.12789
3762.62925	0.12918
3760.70068	0.13076
3758.77212	0.13312
3756.84355	0.13576
3754.91499	0.13813
3752.98643	0.14069
3751.05786	0.14377
3749.12930	0.14692
3747.20073	0.14914
3745.27217	0.15117
3743.34360	0.15461
3741.41504	0.15831
3739.48647	0.16093
3737.55791	0.16395
3735.62935	0.16885
3733.70078	0.17531
3731.77222	0.18040
3729.84365	0.18347
3727.91509	0.18636
3725.98652	0.19126
3724.05796	0.19817
3722.12939	0.20487
3720.20083	0.21109
3718.27227	0.21779
3716.34370	0.22508
3714.41514	0.23258
3712.48657	0.24168
3710.55801	0.25464
3708.62944	0.26849
3706.70088	0.28000
3704.77231	0.29125
3702.84375	0.30414
3700.91519	0.32008
3698.98662	0.33751
3697.05806	0.35459
3695.12949	0.37266
3693.20093	0.39166
3691.27236	0.41227
3689.34380	0.43894
3687.41523	0.47266
3685.48667	0.50331
3683.55811	0.52942
3681.62954	0.55678
3679.70098	0.58768
3677.77241	0.62010
3675.84385	0.65778
3673.91528	0.70841
3671.98672	0.75051
3670.05815	0.78839
3668.12959	0.84080
3666.20103	0.88903
3664.27246	0.92907
3662.34390	0.97173
3660.41533	1.01811
3658.48677	1.06441
3656.55820	1.11339
3654.62964	1.16701
3652.70107	1.21145
3650.77251	1.24953
3648.84395	1.30277
3646.91538	1.37015
3644.98682	1.42070
3643.05825	1.45969
3641.12969	1.49956
3639.20112	1.54346
3637.27256	1.58777
3635.34399	1.63076
3633.41543	1.67308
3631.48687	1.71221
3629.55830	1.75187
3627.62974	1.80414
3625.70117	1.85351
3623.77261	1.88724
3621.84404	1.91950
3619.91548	1.95695
3617.98691	2.00297
3616.05835	2.04744
3614.12979	2.08493
3612.20122	2.12479
3610.27266	2.16467
3608.34409	2.20333
3606.41553	2.24332
3604.48696	2.28146
3602.55840	2.31749
3600.62983	2.35696
3598.70127	2.39957
3596.77271	2.44116
3594.84414	2.48280
3592.91558	2.52427
3590.98701	2.56170
3589.05845	2.59620
3587.12988	2.63898
3585.20132	2.68869
3583.27275	2.73093
3581.34419	2.76827
3579.41562	2.80823
3577.48706	2.85149
3575.55850	2.89539
3573.62993	2.93932
3571.70137	2.98155
3569.77280	3.02179
3567.84424	3.06539
3565.91567	3.12009
3563.98711	3.17086
3562.05854	3.20995
3560.12998	3.25121
3558.20142	3.29802
3556.27285	3.34490
3554.34429	3.38817
3552.41572	3.43372
3550.48716	3.48323
3548.55859	3.53030
3546.63003	3.57579
3544.70146	3.62425
3542.77290	3.67182
3540.84434	3.71668
3538.91577	3.76293
3536.98721	3.81138
3535.05864	3.86184
3533.13008	3.90975
3531.20151	3.95377
3529.27295	3.99833
3527.34438	4.04770
3525.41582	4.09917
3523.48726	4.14789
3521.55869	4.19704
3519.63013	4.24765
3517.70156	4.29691
3515.77300	4.34314
3513.84443	4.38964
3511.91587	4.43736
3509.98730	4.48529
3508.05874	4.53735
3506.13018	4.59045
3504.20161	4.63867
3502.27305	4.68539
3500.34448	4.73462
3498.41592	4.78372
3496.48735	4.83195
3494.55879	4.88047
3492.63022	4.92410
3490.70166	4.96503
3488.77310	5.01681
3486.84453	5.08054
3484.91597	5.14106
3482.98740	5.18494
3481.05884	5.21566
3479.13027	5.25256
3477.20171	5.30613
3475.27314	5.36515
3473.34458	5.42361
3471.41602	5.48096
3469.48745	5.52684
3467.55889	5.56646
3465.63032	5.61328
3463.70176	5.66534
3461.77319	5.71559
3459.84463	5.76809
3457.91606	5.82169
3455.98750	5.86450
3454.05894	5.89605
3452.13037	5.93319
3450.20181	5.98802
3448.27324	6.04183
3446.34468	6.08687
3444.41611	6.14547
3442.48755	6.21973
3440.55898	6.28267
3438.63042	6.32587
3436.70186	6.37094
3434.77329	6.42455
3432.84473	6.47264
3430.91616	6.52102
3428.98760	6.58362
3427.05903	6.64362
3425.13047	6.69713
3423.20190	6.74912
3421.27334	6.78963
3419.34478	6.81942
3417.41621	6.85794
3415.48765	6.91140
3413.55908	6.96160
3411.63052	7.00765
3409.70195	7.06092
3407.77339	7.13445
3405.84482	7.21688
3403.91626	7.28159
3401.98770	7.32609
3400.05913	7.35454
3398.13057	7.35762
3396.20200	7.36428
3394.27344	7.40306
3392.34487	7.43229
3390.41631	7.45381
3388.48774	7.51540
3386.55918	7.61516
3384.63062	7.68482
3382.70205	7.72834
3380.77349	7.77492
3378.84492	7.77523
3376.91636	7.78784
3374.98779	7.83584
3373.05923	7.83264
3371.13066	7.83257
3369.20210	7.91241
3367.27354	7.98461
3365.34497	8.01202
3363.41641	8.01901
3361.48784	8.00565
3359.55928	7.99407
3357.63071	7.96927
3355.70215	7.96897
3353.77358	8.02406
3351.84502	8.08852
3349.91646	8.10401
3347.98789	8.11328
3346.05933	8.18108
3344.13076	8.24564
3342.20220	8.23635
3340.27363	8.20394
3338.34507	8.23450
3336.41650	8.30146
3334.48794	8.32479
3332.55937	8.28709
3330.63081	8.26487
3328.70225	8.26951
3326.77368	8.23713
3324.84512	8.21500
3322.91655	8.28066
3320.98799	8.38367
3319.05942	8.39510
3317.13086	8.32388
3315.20229	8.26384
3313.27373	8.27942
3311.34517	8.33062
3309.41660	8.33858
3307.48804	8.36246
3305.55947	8.48027
3303.63091	8.58016
3301.70234	8.49638
3299.77378	8.37845
3297.84521	8.35073
3295.91665	8.37609
3293.98809	8.46225
3292.05952	8.58183
3290.13096	8.62420
3288.20239	8.62383
3286.27383	8.65517
3284.34526	8.59032
3282.41670	8.45091
3280.48813	8.41263
3278.55957	8.43730
3276.63101	8.44604
3274.70244	8.48015
3272.77388	8.51339
3270.84531	8.56748
3268.91675	8.61212
3266.98818	8.52195
3265.05962	8.44065
3263.13105	8.49567
3261.20249	8.60362
3259.27393	8.61336
3257.34536	8.54454
3255.41680	8.50520
3253.48823	8.52315
3251.55967	8.57485
3249.63110	8.62486
3247.70254	8.65373
3245.77397	8.58685
3243.84541	8.47404
3241.91685	8.39148
3239.98828	8.33585
3238.05972	8.39232
3236.13115	8.60507
3234.20259	8.79619
3232.27402	8.76797
3230.34546	8.62706
3228.41689	8.46586
3226.48833	8.34080
3224.55977	8.34984
3222.63120	8.40421
3220.70264	8.31212
3218.77407	8.12972
3216.84551	8.02824
3214.91694	8.02417
3212.98838	8.02707
3211.05981	8.02405
3209.13125	8.06445
3207.20269	8.10451
3205.27412	8.10220
3203.34556	8.11195
3201.41699	8.12012
3199.48843	8.03216
3197.55986	7.88688
3195.63130	7.81277
3193.70273	7.79346
3191.77417	7.73348
3189.84561	7.66520
3187.91704	7.62947
3185.98848	7.60636
3184.05991	7.60675
3182.13135	7.60397
3180.20278	7.53450
3178.27422	7.41604
3176.34565	7.31674
3174.41709	7.26114
3172.48853	7.21994
3170.55996	7.15607
3168.63140	7.07681
3166.70283	7.01890
3164.77427	6.99736
3162.84570	6.97097
3160.91714	6.89427
3158.98857	6.79852
3157.06001	6.71611
3155.13145	6.63396
3153.20288	6.54733
3151.27432	6.47557
3149.34575	6.41589
3147.41719	6.35859
3145.48862	6.31032
3143.56006	6.24669
3141.63149	6.15548
3139.70293	6.06753
3137.77437	5.99326
3135.84580	5.91841
3133.91724	5.83537
3131.98867	5.74898
3130.06011	5.67951
3128.13154	5.63184
3126.20298	5.57885
3124.27441	5.50614
3122.34585	5.42612
3120.41729	5.34933
3118.48872	5.27245
3116.56016	5.19866
3114.63159	5.13334
3112.70303	5.06378
3110.77446	4.98461
3108.84590	4.90980
3106.91733	4.84541
3104.98877	4.78354
3103.06021	4.71905
3101.13164	4.65136
3099.20308	4.58395
3097.27451	4.51835
3095.34595	4.44995
3093.41738	4.38072
3091.48882	4.31649
3089.56025	4.25485
3087.63169	4.19000
3085.70312	4.12385
3083.77456	4.06308
3081.84600	4.00554
3079.91743	3.94326
3077.98887	3.87860
3076.06030	3.81809
3074.13174	3.76048
3072.20317	3.70277
3070.27461	3.64400
3068.34604	3.58562
3066.41748	3.52999
3064.48892	3.47588
3062.56035	3.41999
3060.63179	3.36361
3058.70322	3.30987
3056.77466	3.25622
3054.84609	3.20013
3052.91753	3.14454
3050.98896	3.09158
3049.06040	3.04035
3047.13184	2.99065
3045.20327	2.94239
3043.27471	2.89432
3041.34614	2.84617
3039.41758	2.79854
3037.48901	2.75058
3035.56045	2.70244
3033.63188	2.65606
3031.70332	2.61124
3029.77476	2.56720
3027.84619	2.52366
3025.91763	2.47940
3023.98906	2.43500
3022.06050	2.39207
3020.13193	2.35070
3018.20337	2.31079
3016.27480	2.27189
3014.34624	2.23298
3012.41768	2.19363
3010.48911	2.15446
3008.56055	2.11641
3006.63198	2.07958
3004.70342	2.04346
3002.77485	2.00794
3000.84629	1.97330
2998.91772	1.93966
2996.98916	1.90670
2995.06060	1.87421
2993.13203	1.84274
2991.20347	1.81252
2989.27490	1.78307
2987.34634	1.75406
2985.41777	1.72529
2983.48921	1.69717
2981.56064	1.67041
2979.63208	1.64416
2977.70352	1.61769
2975.77495	1.59190
2973.84639	1.56682
2971.91782	1.54201
2969.98926	1.51794
2968.06069	1.49451
2966.13213	1.47132
2964.20356	1.44782
2962.27500	1.42343
2960.34644	1.39900
2958.41787	1.37535
2956.48931	1.35209
2954.56074	1.32870
2952.63218	1.30491
2950.70361	1.28081
2948.77505	1.25719
2946.84648	1.23488
2944.91792	1.21404
2942.98936	1.19390
2941.06079	1.17372
2939.13223	1.15331
2937.20366	1.13250
2935.27510	1.11153
2933.34653	1.09115
2931.41797	1.07110
2929.48940	1.05080
2927.56084	1.03058
2925.63228	1.01099
2923.70371	0.99237
2921.77515	0.97465
2919.84658	0.95761
2917.91802	0.94119
2915.98945	0.92496
2914.06089	0.90860
2912.13232	0.89231
2910.20376	0.87661
2908.27520	0.86162
2906.34663	0.84682
2904.41807	0.83234
2902.48950	0.81828
2900.56094	0.80434
2898.63237	0.79094
2896.70381	0.77836
2894.77524	0.76599
2892.84668	0.75334
2890.91812	0.74080
2888.98955	0.72896
2887.06099	0.71780
2885.13242	0.70729
2883.20386	0.69744
2881.27529	0.68796
2879.34673	0.67853
2877.41816	0.66907
2875.48960	0.65940
2873.56104	0.64940
2871.63247	0.63875
2869.70391	0.62701
2867.77534	0.61487
2865.84678	0.60305
2863.91821	0.59114
2861.98965	0.57916
2860.06108	0.56749
2858.13252	0.55599
2856.20396	0.54490
2854.27539	0.53483
2852.34683	0.52577
2850.41826	0.51726
2848.48970	0.50925
2846.56113	0.50170
2844.63257	0.49453
2842.70400	0.48784
2840.77544	0.48155
2838.84687	0.47536
2836.91831	0.46916
2834.98975	0.46291
2833.06118	0.45654
2831.13262	0.45011
2829.20405	0.44391
2827.27549	0.43800
2825.34692	0.43190
2823.41836	0.42560
2821.48979	0.41961
2819.56123	0.41392
2817.63267	0.40827
2815.70410	0.40265
2813.77554	0.39695
2811.84697	0.39114
2809.91841	0.38543
2807.98984	0.37995
2806.06128	0.37462
2804.13271	0.36936
2802.20415	0.36402
2800.27559	0.35892
2798.34702	0.35427
2796.41846	0.34967
2794.48989	0.34484
2792.56133	0.34003
2790.63276	0.33542
2788.70420	0.33089
2786.77563	0.32635
2784.84707	0.32201
2782.91851	0.31792
2780.98994	0.31384
2779.06138	0.30963
2777.13281	0.30549
2775.20425	0.30143
2773.27568	0.29743
2771.34712	0.29354
2769.41855	0.28968
2767.48999	0.28596
2765.56143	0.28250
2763.63286	0.27909
2761.70430	0.27570
2759.77573	0.27240
2757.84717	0.26897
2755.91860	0.26564
2753.99004	0.26269
2752.06147	0.25984
2750.13291	0.25693
2748.20435	0.25407
2746.27578	0.25124
2744.34722	0.24835
2742.41865	0.24532
2740.49009	0.24225
2738.56152	0.23947
2736.63296	0.23707
2734.70439	0.23468
2732.77583	0.23209
2730.84727	0.22960
2728.91870	0.22726
2726.99014	0.22489
2725.06157	0.22259
2723.13301	0.22046
2721.20444	0.21837
2719.27588	0.21624
2717.34731	0.21419
2715.41875	0.21229
2713.49019	0.21047
2711.56162	0.20852
2709.63306	0.20644
2707.70449	0.20451
2705.77593	0.20303
2703.84736	0.20182
2701.91880	0.20043
2699.99023	0.19876
2698.06167	0.19711
2696.13311	0.19560
2694.20454	0.19417
2692.27598	0.19277
2690.34741	0.19134
2688.41885	0.19000
2686.49028	0.18887
2684.56172	0.18773
2682.63315	0.18638
2680.70459	0.18508
2678.77603	0.18395
2676.84746	0.18282
2674.91890	0.18165
2672.99033	0.18060
2671.06177	0.17962
2669.13320	0.17848
2667.20464	0.17729
2665.27607	0.17623
2663.34751	0.17530
2661.41895	0.17444
2659.49038	0.17341
2657.56182	0.17229
2655.63325	0.17140
2653.70469	0.17069
2651.77612	0.17007
2649.84756	0.16957
2647.91899	0.16896
2645.99043	0.16819
2644.06187	0.16759
2642.13330	0.16712
2640.20474	0.16643
2638.27617	0.16558
2636.34761	0.16491
2634.41904	0.16444
2632.49048	0.16403
2630.56191	0.16368
2628.63335	0.16339
2626.70479	0.16304
2624.77622	0.16268
2622.84766	0.16246
2620.91909	0.16216
2618.99053	0.16170
2617.06196	0.16134
2615.13340	0.16109
2613.20483	0.16074
2611.27627	0.16044
2609.34771	0.16033
2607.41914	0.16030
2605.49058	0.16023
2603.56201	0.16014
2601.63345	0.16009
2599.70488	0.16006
2597.77632	0.16007
2595.84775	0.16012
2593.91919	0.16015
2591.99062	0.16021
2590.06206	0.16033
2588.13350	0.16036
2586.20493	0.16027
2584.27637	0.16017
2582.34780	0.16016
2580.41924	0.16034
2578.49067	0.16062
2576.56211	0.16089
2574.63354	0.16118
2572.70498	0.16149
2570.77642	0.16177
2568.84785	0.16201
2566.91929	0.16237
2564.99072	0.16283
2563.06216	0.16320
2561.13359	0.16354
2559.20503	0.16398
2557.27646	0.16439
2555.34790	0.16466
2553.41934	0.16501
2551.49077	0.16553
2549.56221	0.16607
2547.63364	0.16661
2545.70508	0.16723
2543.77651	0.16798
2541.84795	0.16872
2539.91938	0.16923
2537.99082	0.16966
2536.06226	0.17031
2534.13369	0.17104
2532.20513	0.17157
2530.27656	0.17210
2528.34800	0.17289
2526.41943	0.17377
2524.49087	0.17449
2522.56230	0.17505
2520.63374	0.17544
2518.70518	0.17581
2516.77661	0.17644
2514.84805	0.17730
2512.91948	0.17815
2510.99092	0.17886
2509.06235	0.17963
2507.13379	0.18053
2505.20522	0.18138
2503.27666	0.18209
2501.34810	0.18279
2499.41953	0.18344
2497.49097	0.18404
2495.56240	0.18476
2493.63384	0.18560
2491.70527	0.18653
2489.77671	0.18748
2487.84814	0.18839
2485.91958	0.18932
2483.99102	0.19017
2482.06245	0.19086
2480.13389	0.19160
2478.20532	0.19247
2476.27676	0.19338
2474.34819	0.19423
2472.41963	0.19497
2470.49106	0.19573
2468.56250	0.19662
2466.63394	0.19753
2464.70537	0.19836
2462.77681	0.19915
2460.84824	0.20004
2458.91968	0.20099
2456.99111	0.20186
2455.06255	0.20278
2453.13398	0.20379
2451.20542	0.20467
2449.27686	0.20548
2447.34829	0.20652
2445.41973	0.20766
2443.49116	0.20870
2441.56260	0.20965
2439.63403	0.21053
2437.70547	0.21137
2435.77690	0.21223
2433.84834	0.21316
2431.91978	0.21421
2429.99121	0.21536
2428.06265	0.21647
2426.13408	0.21746
2424.20552	0.21845
2422.27695	0.21953
2420.34839	0.22061
2418.41982	0.22168
2416.49126	0.22281
2414.56270	0.22391
2412.63413	0.22495
2410.70557	0.22606
2408.77700	0.22719
2406.84844	0.22830
2404.91987	0.22955
2402.99131	0.23082
2401.06274	0.23193
2399.13418	0.23301
2397.20562	0.23414
2395.27705	0.23525
2393.34849	0.23641
2391.41992	0.23767
2389.49136	0.23884
2387.56279	0.23996
2385.63423	0.24115
2383.70566	0.24233
2381.77710	0.24342
2379.84854	0.24442
2377.91997	0.24524
2375.99141	0.24572
2374.06284	0.24616
2372.13428	0.24692
2370.20571	0.24787
2368.27715	0.24845
2366.34858	0.24837
2364.42002	0.24886
2362.49146	0.25094
2360.56289	0.25332
2358.63433	0.25566
2356.70576	0.25754
2354.77720	0.25876
2352.84863	0.26126
2350.92007	0.26405
2348.99150	0.26559
2347.06294	0.26632
2345.13437	0.26684
2343.20581	0.26776
2341.27725	0.26978
2339.34868	0.27185
2337.42012	0.27350
2335.49155	0.27587
2333.56299	0.27826
2331.63442	0.27949
2329.70586	0.28038
2327.77729	0.28215
2325.84873	0.28436
2323.92017	0.28655
2321.99160	0.28869
2320.06304	0.29064
2318.13447	0.29251
2316.20591	0.29431
2314.27734	0.29610
2312.34878	0.29789
2310.42021	0.29971
2308.49165	0.30151
2306.56309	0.30331
2304.63452	0.30527
2302.70596	0.30730
2300.77739	0.30929
2298.84883	0.31113
2296.92026	0.31273
2294.99170	0.31439
2293.06313	0.31635
2291.13457	0.31844
2289.20601	0.32056
2287.27744	0.32260
2285.34888	0.32452
2283.42031	0.32646
2281.49175	0.32850
2279.56318	0.33061
2277.63462	0.33272
2275.70605	0.33477
2273.77749	0.33682
2271.84893	0.33882
2269.92036	0.34073
2267.99180	0.34266
2266.06323	0.34468
2264.13467	0.34674
2262.20610	0.34883
2260.27754	0.35100
2258.34897	0.35332
2256.42041	0.35562
2254.49185	0.35774
2252.56328	0.35989
2250.63472	0.36207
2248.70615	0.36408
2246.77759	0.36613
2244.84902	0.36844
2242.92046	0.37072
2240.99189	0.37285
2239.06333	0.37495
2237.13477	0.37714
2235.20620	0.37939
2233.27764	0.38171
2231.34907	0.38407
2229.42051	0.38631
2227.49194	0.38842
2225.56338	0.39053
2223.63481	0.39272
2221.70625	0.39492
2219.77769	0.39708
2217.84912	0.39922
2215.92056	0.40142
2213.99199	0.40367
2212.06343	0.40585
2210.13486	0.40794
2208.20630	0.41001
2206.27773	0.41210
2204.34917	0.41421
2202.42061	0.41634
2200.49204	0.41853
2198.56348	0.42057
2196.63491	0.42238
2194.70635	0.42423
2192.77778	0.42608
2190.84922	0.42775
2188.92065	0.42946
2186.99209	0.43141
2185.06353	0.43332
2183.13496	0.43502
2181.20640	0.43668
2179.27783	0.43837
2177.34927	0.44007
2175.42070	0.44169
2173.49214	0.44325
2171.56357	0.44468
2169.63501	0.44576
2167.70645	0.44665
2165.77788	0.44780
2163.84932	0.44919
2161.92075	0.45046
2159.99219	0.45146
2158.06362	0.45234
2156.13506	0.45328
2154.20649	0.45422
2152.27793	0.45502
2150.34937	0.45572
2148.42080	0.45633
2146.49224	0.45686
2144.56367	0.45736
2142.63511	0.45777
2140.70654	0.45803
2138.77798	0.45821
2136.84941	0.45832
2134.92085	0.45829
2132.99229	0.45812
2131.06372	0.45794
2129.13516	0.45784
2127.20659	0.45772
2125.27803	0.45744
2123.34946	0.45696
2121.42090	0.45649
2119.49233	0.45601
2117.56377	0.45531
2115.63521	0.45436
2113.70664	0.45335
2111.77808	0.45236
2109.84951	0.45133
2107.92095	0.45028
2105.99238	0.44933
2104.06382	0.44838
2102.13525	0.44713
2100.20669	0.44560
2098.27812	0.44401
2096.34956	0.44249
2094.42100	0.44092
2092.49243	0.43930
2090.56387	0.43764
2088.63530	0.43580
2086.70674	0.43379
2084.77817	0.43181
2082.84961	0.42995
2080.92104	0.42797
2078.99248	0.42583
2077.06392	0.42372
2075.13535	0.42162
2073.20679	0.41937
2071.27822	0.41710
2069.34966	0.41497
2067.42109	0.41285
2065.49253	0.41058
2063.56396	0.40811
2061.63540	0.40554
2059.70684	0.40298
2057.77827	0.40039
2055.84971	0.39770
2053.92114	0.39508
2051.99258	0.39260
2050.06401	0.39004
2048.13545	0.38731
2046.20688	0.38452
2044.27832	0.38179
2042.34976	0.37911
2040.42119	0.37644
2038.49263	0.37374
2036.56406	0.37099
2034.63550	0.36822
2032.70693	0.36539
2030.77837	0.36250
2028.84980	0.35962
2026.92124	0.35686
2024.99268	0.35420
2023.06411	0.35155
2021.13555	0.34885
2019.20698	0.34605
2017.27842	0.34322
2015.34985	0.34041
2013.42129	0.33769
2011.49272	0.33511
2009.56416	0.33260
2007.63560	0.32999
2005.70703	0.32728
2003.77847	0.32452
2001.84990	0.32175
1999.92134	0.31907
1997.99277	0.31648
1996.06421	0.31394
1994.13564	0.31150
1992.20708	0.30907
1990.27852	0.30653
1988.34995	0.30403
1986.42139	0.30165
1984.49282	0.29929
1982.56426	0.29699
1980.63569	0.29473
1978.70713	0.29247
1976.77856	0.29021
1974.85000	0.28804
1972.92144	0.28585
1970.99287	0.28367
1969.06431	0.28168
1967.13574	0.27975
1965.20718	0.27771
1963.27861	0.27572
1961.35005	0.27393
1959.42148	0.27219
1957.49292	0.27031
1955.56436	0.26835
1953.63579	0.26656
1951.70723	0.26490
1949.77866	0.26328
1947.85010	0.26171
1945.92153	0.26022
1943.99297	0.25880
1942.06440	0.25734
1940.13584	0.25575
1938.20728	0.25424
1936.27871	0.25296
1934.35015	0.25181
1932.42158	0.25060
1930.49302	0.24929
1928.56445	0.24807
1926.63589	0.24702
1924.70732	0.24614
1922.77876	0.24527
1920.85020	0.24434
1918.92163	0.24346
1916.99307	0.24262
1915.06450	0.24175
1913.13594	0.24089
1911.20737	0.24010
1909.27881	0.23931
1907.35024	0.23853
1905.42168	0.23789
1903.49312	0.23741
1901.56455	0.23700
1899.63599	0.23662
1897.70742	0.23625
1895.77886	0.23578
1893.85029	0.23532
1891.92173	0.23496
1889.99316	0.23478
1888.06460	0.23460
1886.13604	0.23432
1884.20747	0.23407
1882.27891	0.23389
1880.35034	0.23382
1878.42178	0.23382
1876.49321	0.23381
1874.56465	0.23372
1872.63608	0.23374
1870.70752	0.23398
1868.77896	0.23451
1866.85039	0.23485
1864.92183	0.23481
1862.99326	0.23488
1861.06470	0.23517
1859.13613	0.23552
1857.20757	0.23581
1855.27900	0.23622
1853.35044	0.23664
1851.42187	0.23713
1849.49331	0.23778
1847.56475	0.23858
1845.63618	0.23946
1843.70762	0.24038
1841.77905	0.24108
1839.85049	0.24151
1837.92192	0.24223
1835.99336	0.24315
1834.06479	0.24415
1832.13623	0.24517
1830.20767	0.24653
1828.27910	0.24802
1826.35054	0.24914
1824.42197	0.25044
1822.49341	0.25179
1820.56484	0.25307
1818.63628	0.25441
1816.70771	0.25599
1814.77915	0.25765
1812.85059	0.25944
1810.92202	0.26141
1808.99346	0.26337
1807.06489	0.26529
1805.13633	0.26717
1803.20776	0.26933
1801.27920	0.27186
1799.35063	0.27465
1797.42207	0.27715
1795.49351	0.27950
1793.56494	0.28223
1791.63638	0.28580
1789.70781	0.28933
1787.77925	0.29198
1785.85068	0.29496
1783.92212	0.29852
1781.99355	0.30248
1780.06499	0.30667
1778.13643	0.31091
1776.20786	0.31482
1774.27930	0.31902
1772.35073	0.32485
1770.42217	0.33133
1768.49360	0.33670
1766.56504	0.34174
1764.63647	0.34691
1762.70791	0.35261
1760.77935	0.35996
1758.85078	0.36700
1756.92222	0.37396
1754.99365	0.38148
1753.06509	0.38827
1751.13652	0.39627
1749.20796	0.40647
1747.27939	0.41692
1745.35083	0.42639
1743.42227	0.43630
1741.49370	0.44689
1739.56514	0.45925
1737.63657	0.47178
1735.70801	0.48278
1733.77944	0.49902
1731.85088	0.51837
1729.92231	0.53373
1727.99375	0.54935
1726.06519	0.56623
1724.13662	0.58463
1722.20806	0.60447
1720.27949	0.62283
1718.35093	0.64418
1716.42236	0.67568
1714.49380	0.70596
1712.56523	0.73074
1710.63667	0.75476
1708.70811	0.78060
1706.77954	0.81006
1704.85098	0.84544
1702.92241	0.87708
1700.99385	0.90842
1699.06528	0.95504
1697.13672	0.99816
1695.20815	1.04347
1693.27959	1.08821
1691.35103	1.12445
1689.42246	1.16612
1687.49390	1.21008
1685.56533	1.25290
1683.63677	1.31976
1681.70820	1.38914
1679.77964	1.43317
1677.85107	1.47509
1675.92251	1.52379
1673.99395	1.58436
1672.06538	1.63882
1670.13682	1.69276
1668.20825	1.76268
1666.27969	1.82073
1664.35112	1.87200
1662.42256	1.93799
1660.49399	2.01295
1658.56543	2.07113
1656.63687	2.11665
1654.70830	2.15646
1652.77974	2.21678
1650.85117	2.27373
1648.92261	2.29353
1646.99404	2.31677
1645.06548	2.33882
1643.13691	2.35123
1641.20835	2.35695
1639.27979	2.36333
1637.35122	2.36710
1635.42266	2.36145
1633.49409	2.34712
1631.56553	2.33048
1629.63696	2.31100
1627.70840	2.27849
1625.77983	2.24082
1623.85127	2.19584
1621.92271	2.14128
1619.99414	2.09245
1618.06558	2.04523
1616.13701	1.97881
1614.20845	1.91164
1612.27988	1.85969
1610.35132	1.80479
1608.42275	1.74581
1606.49419	1.68880
1604.56562	1.63700
1602.63706	1.58802
1600.70850	1.54084
1598.77993	1.49691
1596.85137	1.45559
1594.92280	1.41596
1592.99424	1.37783
1591.06567	1.34321
1589.13711	1.31175
1587.20854	1.28329
1585.27998	1.25734
1583.35142	1.23333
1581.42285	1.21181
1579.49429	1.19397
1577.56572	1.17844
1575.63716	1.16023
1573.70859	1.14515
1571.78003	1.13612
1569.85146	1.12767
1567.92290	1.11933
1565.99434	1.11403
1564.06577	1.11131
1562.13721	1.11035
1560.20864	1.11237
1558.28008	1.12213
1556.35151	1.13150
1554.42295	1.13568
1552.49438	1.13947
1550.56582	1.14165
1548.63726	1.14128
1546.70869	1.13773
1544.78013	1.12973
1542.85156	1.11672
1540.92300	1.09626
1538.99443	1.06443
1537.06587	1.04106
1535.13730	1.02483
1533.20874	1.00271
1531.28018	0.97859
1529.35161	0.96071
1527.42305	0.94398
1525.49448	0.92733
1523.56592	0.91380
1521.63735	0.90087
1519.70879	0.88757
1517.78022	0.87628
1515.85166	0.86300
1513.92310	0.84875
1511.99453	0.83625
1510.06597	0.82510
1508.13740	0.81448
1506.20884	0.79827
1504.28027	0.78374
1502.35171	0.77539
1500.42314	0.76816
1498.49458	0.76035
1496.56602	0.75118
1494.63745	0.74225
1492.70889	0.73547
1490.78032	0.72945
1488.85176	0.72251
1486.92319	0.71617
1484.99463	0.71138
1483.06606	0.70770
1481.13750	0.70475
1479.20894	0.70277
1477.28037	0.70198
1475.35181	0.70196
1473.42324	0.70236
1471.49468	0.70227
1469.56611	0.70111
1467.63755	0.69952
1465.70898	0.69822
1463.78042	0.69740
1461.85186	0.69693
1459.92329	0.69701
1457.99473	0.69807
1456.06616	0.69894
1454.13760	0.69745
1452.20903	0.69527
1450.28047	0.69313
1448.35190	0.69076
1446.42334	0.68783
1444.49478	0.68487
1442.56621	0.68219
1440.63765	0.67957
1438.70908	0.67694
1436.78052	0.67351
1434.85195	0.66913
1432.92339	0.66552
1430.99482	0.66316
1429.06626	0.66203
1427.13770	0.66210
1425.20913	0.66293
1423.28057	0.66416
1421.35200	0.66525
1419.42344	0.66595
1417.49487	0.66605
1415.56631	0.66547
1413.63774	0.66506
1411.70918	0.66548
1409.78062	0.66685
1407.85205	0.66877
1405.92349	0.67099
1403.99492	0.67302
1402.06636	0.67394
1400.13779	0.67367
1398.20923	0.67210
1396.28066	0.66924
1394.35210	0.66522
1392.42354	0.66045
1390.49497	0.65576
1388.56641	0.65104
1386.63784	0.64554
1384.70928	0.63959
1382.78071	0.63403
1380.85215	0.62886
1378.92358	0.62434
1376.99502	0.62090
1375.06646	0.61854
1373.13789	0.61697
1371.20933	0.61606
1369.28076	0.61542
1367.35220	0.61437
1365.42363	0.61274
1363.49507	0.61098
1361.56650	0.60934
1359.63794	0.60767
1357.70937	0.60605
1355.78081	0.60467
1353.85225	0.60363
1351.92368	0.60282
1349.99512	0.60202
1348.06655	0.60121
1346.13799	0.60037
1344.20942	0.59941
1342.28086	0.59855
1340.35229	0.59803
1338.42373	0.59757
1336.49517	0.59701
1334.56660	0.59658
1332.63804	0.59646
1330.70947	0.59676
1328.78091	0.59738
1326.85234	0.59826
1324.92378	0.59937
1322.99521	0.60051
1321.06665	0.60144
1319.13809	0.60218
1317.20952	0.60271
1315.28096	0.60295
1313.35239	0.60283
1311.42383	0.60238
1309.49526	0.60171
1307.56670	0.60107
1305.63813	0.60066
1303.70957	0.60033
1301.78101	0.59983
1299.85244	0.59903
1297.92388	0.59802
1295.99531	0.59688
1294.06675	0.59558
1292.13818	0.59417
1290.20962	0.59267
1288.28105	0.59108
1286.35249	0.58960
1284.42393	0.58832
1282.49536	0.58689
1280.56680	0.58514
1278.63823	0.58339
1276.70967	0.58194
1274.78110	0.58082
1272.85254	0.57994
1270.92397	0.57909
1268.99541	0.57811
1267.06685	0.57721
1265.13828	0.57639
1263.20972	0.57533
1261.28115	0.57407
1259.35259	0.57284
1257.42402	0.57183
1255.49546	0.57141
1253.56689	0.57160
1251.63833	0.57192
1249.70977	0.57203
1247.78120	0.57190
1245.85264	0.57157
1243.92407	0.57093
1241.99551	0.56989
1240.06694	0.56831
1238.13838	0.56617
1236.20981	0.56366
1234.28125	0.56113
1232.35269	0.55885
1230.42412	0.55657
1228.49556	0.55397
1226.56699	0.55125
1224.63843	0.54886
1222.70986	0.54686
1220.78130	0.54515
1218.85273	0.54358
1216.92417	0.54213
1214.99561	0.54079
1213.06704	0.53969
1211.13848	0.53885
1209.20991	0.53811
1207.28135	0.53739
1205.35278	0.53658
1203.42422	0.53544
1201.49565	0.53413
1199.56709	0.53300
1197.63853	0.53216
1195.70996	0.53151
1193.78140	0.53088
1191.85283	0.53017
1189.92427	0.52959
1187.99570	0.52924
1186.06714	0.52901
1184.13857	0.52890
1182.21001	0.52924
1180.28145	0.53024
1178.35288	0.53170
1176.42432	0.53331
1174.49575	0.53485
1172.56719	0.53597
1170.63862	0.53650
1168.71006	0.53653
1166.78149	0.53629
1164.85293	0.53617
1162.92437	0.53633
1160.99580	0.53646
1159.06724	0.53629
1157.13867	0.53586
1155.21011	0.53514
1153.28154	0.53398
1151.35298	0.53233
1149.42441	0.53009
1147.49585	0.52732
1145.56729	0.52443
1143.63872	0.52178
1141.71016	0.51963
1139.78159	0.51806
1137.85303	0.51700
1135.92446	0.51641
1133.99590	0.51619
1132.06733	0.51623
1130.13877	0.51635
1128.21021	0.51633
1126.28164	0.51602
1124.35308	0.51559
1122.42451	0.51538
1120.49595	0.51553
1118.56738	0.51585
1116.63882	0.51627
1114.71025	0.51682
1112.78169	0.51751
1110.85312	0.51853
1108.92456	0.51971
1106.99600	0.52072
1105.06743	0.52155
1103.13887	0.52233
1101.21030	0.52316
1099.28174	0.52435
1097.35317	0.52619
1095.42461	0.52890
1093.49604	0.53264
1091.56748	0.53753
1089.63892	0.54371
1087.71035	0.55113
1085.78179	0.55926
1083.85322	0.56753
1081.92466	0.57506
1079.99609	0.58061
1078.06753	0.58327
1076.13896	0.58283
1074.21040	0.57962
1072.28184	0.57418
1070.35327	0.56726
1068.42471	0.55986
1066.49614	0.55289
1064.56758	0.54660
1062.63901	0.54096
1060.71045	0.53610
1058.78188	0.53192
1056.85332	0.52806
1054.92476	0.52422
1052.99619	0.52075
1051.06763	0.51815
1049.13906	0.51633
1047.21050	0.51515
1045.28193	0.51468
1043.35337	0.51444
1041.42480	0.51414
1039.49624	0.51393
1037.56768	0.51374
1035.63911	0.51338
1033.71055	0.51272
1031.78198	0.51154
1029.85342	0.51000
1027.92485	0.50852
1025.99629	0.50705
1024.06772	0.50549
1022.13916	0.50428
1020.21060	0.50371
1018.28203	0.50354
1016.35347	0.50350
1014.42490	0.50342
1012.49634	0.50308
1010.56777	0.50245
1008.63921	0.50206
1006.71064	0.50232
1004.78208	0.50318
1002.85352	0.50476
1000.92495	0.50739
998.99639	0.51104
997.06782	0.51532
995.13926	0.51980
993.21069	0.52406
991.28213	0.52755
989.35356	0.52973
987.42500	0.53033
985.49644	0.52998
983.56787	0.52957
981.63931	0.52939
979.71074	0.52977
977.78218	0.53113
975.85361	0.53310
973.92505	0.53520
971.99648	0.53778
970.06792	0.54110
968.13936	0.54483
966.21079	0.54884
964.28223	0.55327
962.35366	0.55797
960.42510	0.56279
958.49653	0.56802
956.56797	0.57376
954.63940	0.57976
952.71084	0.58602
950.78228	0.59260
948.85371	0.59923
946.92515	0.60569
944.99658	0.61199
943.06802	0.61805
941.13945	0.62391
939.21089	0.63009
937.28232	0.63664
935.35376	0.64268
933.42520	0.64814
931.49663	0.65370
929.56807	0.65936
927.63950	0.66479
925.71094	0.67028
923.78237	0.67653
921.85381	0.68363
919.92524	0.69093
917.99668	0.69817
916.06812	0.70556
914.13955	0.71304
912.21099	0.72119
910.28242	0.73046
908.35386	0.74001
906.42529	0.74873
904.49673	0.75684
902.56816	0.76572
900.63960	0.77524
898.71104	0.78407
896.78247	0.79267
894.85391	0.80260
892.92534	0.81407
890.99678	0.82546
889.06821	0.83593
887.13965	0.84638
885.21108	0.85739
883.28252	0.86925
881.35396	0.88221
879.42539	0.89509
877.49683	0.90744
875.56826	0.91965
873.63970	0.93035
871.71113	0.93993
869.78257	0.95069
867.85400	0.96203
865.92544	0.97350
863.99687	0.98672
862.06831	1.00031
860.13975	1.01155
858.21118	1.02210
856.28262	1.03306
854.35405	1.04364
852.42549	1.05555
850.49692	1.06939
848.56836	1.08347
846.63979	1.09697
844.71123	1.10973
842.78267	1.12124
840.85410	1.13135
838.92554	1.14196
836.99697	1.15607
835.06841	1.17370
833.13984	1.19031
831.21128	1.20001
829.28271	1.20350
827.35415	1.21232
825.42559	1.23183
823.49702	1.25031
821.56846	1.25954
819.63989	1.26891
817.71133	1.28549
815.78276	1.30283
813.85420	1.31609
811.92563	1.33104
809.99707	1.35156
808.06851	1.36816
806.13994	1.37772
804.21138	1.39653
802.28281	1.42558
800.35425	1.45480
798.42568	1.48442
796.49712	1.48284
794.56855	1.43440
792.63999	1.40029
790.71143	1.43628
788.78286	1.54624
786.85430	1.68341
784.92573	1.80191
782.99717	1.89659
781.06860	1.99291
779.14004	1.96740
777.21147	1.83192
775.28291	1.87353
773.35435	2.07774
771.42578	1.89847
769.49722	1.64831
767.56865	1.77694
765.64009	4.59384
763.71152	4.58227
761.78296	2.56472
759.85439	1.46447
757.92583	1.22355
755.99727	1.07337
754.06870	1.03644
752.14014	1.09081
750.21157	1.13672
748.28301	1.13291
746.35444	1.11979
744.42588	1.09083
742.49731	1.02237
740.56875	0.91492
738.64019	0.84889
736.71162	0.78908
734.78306	0.66680
732.85449	0.61083
730.92593	0.66440
728.99736	0.59602
727.06880	0.38606
725.14023	0.22037
723.21167	0.07085
721.28311	-0.33124
719.35454	4.31613
717.42598	4.30456
715.49741	-0.20722
713.56885	0.25241
711.64028	0.52453
709.71172	0.39653
707.78315	0.22798
705.85459	0.16488
703.92603	0.31681
701.99746	0.58778
700.06890	0.64788
698.14033	0.57119
696.21177	0.53157
694.28320	0.59212
692.35464	0.77095
690.42607	0.79811
688.49751	0.57039
686.56895	0.41560
684.64038	0.33559
682.71182	0.28738
680.78325	0.26365
678.85469	0.30475
676.92612	0.41965
674.99756	0.48613
673.06899	0.39592
671.14043	0.33495
669.21187	0.37614
667.28330	0.45541
665.35474	0.42532
663.42617	0.34416
661.49761	0.34541
659.56904	0.41662
657.64048	0.47110
655.71191	0.51313
653.78335	0.55530
651.85479	0.51210
649.92622	0.46652
647.99766	0.61077
646.06909	0.79450
644.14053	0.60150
642.21196	0.45127
640.28340	0.31671
638.35483	0.20015
636.42627	0.19577
634.49771	0.28316
632.56914	0.36348
630.64058	0.39032
628.71201	0.39230
626.78345	0.42412
624.85488	0.51724
622.92632	0.56101
620.99775	0.45561
619.06919	0.34369
617.14062	0.30694
615.21206	0.30547
613.28350	0.28912
611.35493	0.30391
609.42637	0.41992
607.49780	0.62769
605.56924	0.54802
603.64067	0.40566
601.71211	0.37563
599.78354	0.37117
597.85498	0.37879
595.92642	0.41811
593.99785	0.46330
592.06929	0.50874
590.14072	0.53626
588.21216	0.46498
586.28359	0.38027
584.35503	0.34407
582.42646	0.30584
580.49790	0.23744
578.56934	0.18900
576.64077	0.18262
574.71221	0.20354
572.78364	0.26594
570.85508	0.32438
568.92651	0.33872
566.99795	0.36863
565.06938	0.41519
563.14082	0.39399
561.21226	0.30802
559.28369	0.24188
557.35513	0.20781
555.42656	0.19655
553.49800	0.23736
551.56943	0.32374
549.64087	0.37420
547.71230	0.33629
545.78374	0.25307
543.85518	0.22819
541.92661	0.26786
539.99805	0.24698
538.06948	0.18404
536.14092	0.17181
534.21235	0.23283
532.28379	0.24691
530.35522	0.16283
528.42666	0.13969
526.49810	0.23570
524.56953	0.38217
522.64097	0.44254
520.71240	0.42978
518.78384	0.33865
516.85527	0.27921
514.92671	0.30066
512.99814	0.31955
511.06958	0.29708
509.14102	0.27586
507.21245	0.26184
505.28389	0.24021
503.35532	0.22758
501.42676	0.25058
499.49819	0.30185
