3997.91411	0.07671
3995.98555	0.07733
3994.05698	0.07776
3992.12842	0.07793
3990.19985	0.07813
3988.27129	0.07837
3986.34272	0.07838
3984.41416	0.07840
3982.48560	0.07877
3980.55703	0.07904
3978.62847	0.07923
3976.69990	0.07971
3974.77134	0.08019
3972.84277	0.08047
3970.91421	0.08072
3968.98564	0.08108
3967.05708	0.08137
3965.12852	0.08135
3963.19995	0.08114
3961.27139	0.08091
3959.34282	0.08080
3957.41426	0.08074
3955.48569	0.08073
3953.55713	0.08091
3951.62856	0.08126
3949.70000	0.08165
3947.77144	0.08171
3945.84287	0.08133
3943.91431	0.08124
3941.98574	0.08165
3940.05718	0.08187
3938.12861	0.08156
3936.20005	0.08107
3934.27148	0.08108
3932.34292	0.08190
3930.41436	0.08273
3928.48579	0.08269
3926.55723	0.08209
3924.62866	0.08176
3922.70010	0.08186
3920.77153	0.08204
3918.84297	0.08233
3916.91440	0.08296
3914.98584	0.08311
3913.05728	0.08238
3911.12871	0.08156
3909.20015	0.08098
3907.27158	0.08071
3905.34302	0.08115
3903.41445	0.08264
3901.48589	0.08391
3899.55732	0.08343
3897.62876	0.08215
3895.70020	0.08149
3893.77163	0.08176
3891.84307	0.08242
3889.91450	0.08229
3887.98594	0.08138
3886.05737	0.08108
3884.12881	0.08142
3882.20024	0.08177
3880.27168	0.08243
3878.34312	0.08257
3876.41455	0.08167
3874.48599	0.08140
3872.55742	0.08236
3870.62886	0.08385
3868.70029	0.08484
3866.77173	0.08439
3864.84316	0.08429
3862.91460	0.08515
3860.98604	0.08489
3859.05747	0.08390
3857.12891	0.08409
3855.20034	0.08620
3853.27178	0.09017
3851.34321	0.09150
3849.41465	0.08857
3847.48608	0.08657
3845.55752	0.08651
3843.62896	0.08770
3841.70039	0.08946
3839.77183	0.09163
3837.84326	0.09395
3835.91470	0.09479
3833.98613	0.09392
3832.05757	0.09285
3830.12900	0.09236
3828.20044	0.09252
3826.27187	0.09318
3824.34331	0.09422
3822.41475	0.09604
3820.48618	0.09868
3818.55762	0.09991
3816.62905	0.10005
3814.70049	0.10029
3812.77192	0.09988
3810.84336	0.09966
3808.91479	0.10039
3806.98623	0.10194
3805.05767	0.10352
3803.12910	0.10506
3801.20054	0.10778
3799.27197	0.10984
3797.34341	0.10957
3795.41484	0.10932
3793.48628	0.10972
3791.55771	0.11031
3789.62915	0.11104
3787.70059	0.11227
3785.77202	0.11433
3783.84346	0.11651
3781.91489	0.11815
3779.98633	0.11976
3778.05776	0.12134
3776.12920	0.12224
3774.20063	0.12306
3772.27207	0.12457
3770.34351	0.12712
3768.41494	0.13020
3766.48638	0.13240
3764.55781	0.13362
3762.62925	0.13446
3760.70068	0.13611
3758.77212	0.13924
3756.84355	0.14254
3754.91499	0.14504
3752.98643	0.14785
3751.05786	0.15212
3749.12930	0.15660
3747.20073	0.15870
3745.27217	0.16034
3743.34360	0.16338
3741.41504	0.16615
3739.48647	0.16854
3737.55791	0.17218
3735.62935	0.17790
3733.70078	0.18449
3731.77222	0.18863
3729.84365	0.19068
3727.91509	0.19320
3725.98652	0.19806
3724.05796	0.20484
3722.12939	0.21188
3720.20083	0.21893
3718.27227	0.22605
3716.34370	0.23328
3714.41514	0.24065
3712.48657	0.24969
3710.55801	0.26286
3708.62944	0.27709
3706.70088	0.28834
3704.77231	0.29890
3702.84375	0.31155
3700.91519	0.32780
3698.98662	0.34537
3697.05806	0.36244
3695.12949	0.38079
3693.20093	0.40004
3691.27236	0.42129
3689.34380	0.44959
3687.41523	0.48377
3685.48667	0.51276
3683.55811	0.53799
3681.62954	0.56592
3679.70098	0.59736
3677.77241	0.62989
3675.84385	0.66863
3673.91528	0.72132
3671.98672	0.76423
3670.05815	0.80191
3668.12959	0.85336
3666.20103	0.90029
3664.27246	0.93976
3662.34390	0.98246
3660.41533	1.02857
3658.48677	1.07426
3656.55820	1.12332
3654.62964	1.17762
3652.70107	1.22311
3650.77251	1.26321
3648.84395	1.31838
3646.91538	1.38450
3644.98682	1.43257
3643.05825	1.46996
3641.12969	1.50891
3639.20112	1.55231
3637.27256	1.59653
3635.34399	1.63980
3633.41543	1.68246
3631.48687	1.72169
3629.55830	1.76176
3627.62974	1.81537
3625.70117	1.86522
3623.77261	1.89833
3621.84404	1.93014
3619.91548	1.96754
3617.98691	2.01288
3616.05835	2.05580
3614.12979	2.09213
3612.20122	2.13103
3610.27266	2.17034
3608.34409	2.21021
3606.41553	2.25269
3604.48696	2.29162
3602.55840	2.32656
3600.62983	2.36536
3598.70127	2.40702
3596.77271	2.44595
3594.84414	2.48558
3592.91558	2.52726
3590.98701	2.56564
3589.05845	2.60083
3587.12988	2.64330
3585.20132	2.69078
3583.27275	2.73163
3581.34419	2.76987
3579.41562	2.81110
3577.48706	2.85364
3575.55850	2.89525
3573.62993	2.93855
3571.70137	2.98221
3569.77280	3.02399
3567.84424	3.06823
3565.91567	3.12302
3563.98711	3.17601
3562.05854	3.21748
3560.12998	3.25773
3558.20142	3.29972
3556.27285	3.34112
3554.34429	3.38256
3552.41572	3.42896
3550.48716	3.47927
3548.55859	3.52721
3546.63003	3.57230
3544.70146	3.62016
3542.77290	3.67161
3540.84434	3.72059
3538.91577	3.76551
3536.98721	3.81007
3535.05864	3.85839
3533.13008	3.90753
3531.20151	3.95423
3529.27295	3.99908
3527.34438	4.04515
3525.41582	4.09399
3523.48726	4.14452
3521.55869	4.19686
3519.63013	4.24875
3517.70156	4.29715
3515.77300	4.34221
3513.84443	4.38973
3511.91587	4.44111
3509.98730	4.49343
3508.05874	4.54545
3506.13018	4.59144
3504.20161	4.63135
3502.27305	4.67391
3500.34448	4.72127
3498.41592	4.77304
3496.48735	4.82807
3494.55879	4.87787
3492.63022	4.92366
3490.70166	4.97422
3488.77310	5.02484
3486.84453	5.06828
3484.91597	5.11512
3482.98740	5.17348
3481.05884	5.23207
3479.13027	5.28256
3477.20171	5.33158
3475.27314	5.38352
3473.34458	5.43505
3471.41602	5.48449
3469.48745	5.53347
3467.55889	5.58224
3465.63032	5.62789
3463.70176	5.67180
3461.77319	5.71627
3459.84463	5.76507
3457.91606	5.82653
3455.98750	5.89212
3454.05894	5.94162
3452.13037	5.98843
3450.20181	6.04955
3448.27324	6.10486
3446.34468	6.14376
3444.41611	6.18223
3442.48755	6.23513
3440.55898	6.28877
3438.63042	6.33491
3436.70186	6.39384
3434.77329	6.46235
3432.84473	6.51605
3430.91616	6.56351
3428.98760	6.62024
3427.05903	6.67061
3425.13047	6.72141
3423.20190	6.78941
3421.27334	6.87220
3419.34478	6.93259
3417.41621	6.94965
3415.48765	6.97899
3413.55908	7.05523
3411.63052	7.13549
3409.70195	7.15254
3407.77339	7.15024
3405.84482	7.20917
3403.91626	7.30966
3401.98770	7.36276
3400.05913	7.35228
3398.13057	7.35713
3396.20200	7.42083
3394.27344	7.52363
3392.34487	7.59128
3390.41631	7.60817
3388.48774	7.63753
3386.55918	7.68716
3384.63062	7.71804
3382.70205	7.75773
3380.77349	7.81930
3378.84492	7.81998
3376.91636	7.76634
3374.98779	7.75593
3373.05923	7.79655
3371.13066	7.82354
3369.20210	7.85084
3367.27354	7.91052
3365.34497	7.99759
3363.41641	8.06540
3361.48784	8.06300
3359.55928	8.05920
3357.63071	8.12190
3355.70215	8.20729
3353.77358	8.22973
3351.84502	8.20796
3349.91646	8.18266
3347.98789	8.19973
3346.05933	8.28216
3344.13076	8.31768
3342.20220	8.25447
3340.27363	8.21466
3338.34507	8.25862
3336.41650	8.30570
3334.48794	8.33257
3332.55937	8.37084
3330.63081	8.40077
3328.70225	8.37598
3326.77368	8.32944
3324.84512	8.32864
3322.91655	8.33706
3320.98799	8.30165
3319.05942	8.25142
3317.13086	8.26340
3315.20229	8.30710
3313.27373	8.32559
3311.34517	8.35691
3309.41660	8.42677
3307.48804	8.48709
3305.55947	8.48654
3303.63091	8.46110
3301.70234	8.43347
3299.77378	8.38945
3297.84521	8.35075
3295.91665	8.40768
3293.98809	8.55949
3292.05952	8.67191
3290.13096	8.70311
3288.20239	8.68712
3286.27383	8.62111
3284.34526	8.52898
3282.41670	8.45789
3280.48813	8.43094
3278.55957	8.45352
3276.63101	8.47937
3274.70244	8.49782
3272.77388	8.51162
3270.84531	8.44210
3268.91675	8.31717
3266.98818	8.24059
3265.05962	8.23951
3263.13105	8.33232
3261.20249	8.50382
3259.27393	8.64893
3257.34536	8.75973
3255.41680	8.88589
3253.48823	8.95062
3251.55967	8.79592
3249.63110	8.52011
3247.70254	8.36264
3245.77397	8.38161
3243.84541	8.56415
3241.91685	8.72018
3239.98828	8.64354
3238.05972	8.52674
3236.13115	8.47832
3234.20259	8.48001
3232.27402	8.56527
3230.34546	8.62771
3228.41689	8.56906
3226.48833	8.51907
3224.55977	8.53914
3222.63120	8.53686
3220.70264	8.47224
3218.77407	8.44117
3216.84551	8.43403
3214.91694	8.37447
3212.98838	8.34460
3211.05981	8.34703
3209.13125	8.27290
3207.20269	8.19003
3205.27412	8.21119
3203.34556	8.24358
3201.41699	8.15130
3199.48843	8.03245
3197.55986	7.99386
3195.63130	8.00427
3193.70273	8.01610
3191.77417	7.98126
3189.84561	7.89903
3187.91704	7.81640
3185.98848	7.75044
3184.05991	7.69261
3182.13135	7.63600
3180.20278	7.61738
3178.27422	7.59819
3176.34565	7.51545
3174.41709	7.44944
3172.48853	7.42619
3170.55996	7.36495
3168.63140	7.24331
3166.70283	7.10879
3164.77427	7.02018
3162.84570	7.00213
3160.91714	7.01198
3158.98857	6.98559
3157.06001	6.90580
3155.13145	6.79750
3153.20288	6.68935
3151.27432	6.59586
3149.34575	6.52055
3147.41719	6.46389
3145.48862	6.40817
3143.56006	6.33627
3141.63149	6.25398
3139.70293	6.16649
3137.77437	6.08591
3135.84580	6.01697
3133.91724	5.94473
3131.98867	5.86174
3130.06011	5.77772
3128.13154	5.70575
3126.20298	5.64724
3124.27441	5.59087
3122.34585	5.51730
3120.41729	5.42913
3118.48872	5.34976
3116.56016	5.28112
3114.63159	5.20660
3112.70303	5.12479
3110.77446	5.04903
3108.84590	4.98355
3106.91733	4.91789
3104.98877	4.84240
3103.06021	4.76583
3101.13164	4.69605
3099.20308	4.62662
3097.27451	4.55722
3095.34595	4.48990
3093.41738	4.42061
3091.48882	4.35223
3089.56025	4.28841
3087.63169	4.22416
3085.70312	4.15848
3083.77456	4.09275
3081.84600	4.02507
3079.91743	3.95666
3077.98887	3.89056
3076.06030	3.82716
3074.13174	3.76568
3072.20317	3.70715
3070.27461	3.65061
3068.34604	3.59141
3066.41748	3.52929
3064.48892	3.46933
3062.56035	3.41255
3060.63179	3.35568
3058.70322	3.29826
3056.77466	3.24237
3054.84609	3.18852
3052.91753	3.13499
3050.98896	3.08077
3049.06040	3.02690
3047.13184	2.97428
3045.20327	2.92284
3043.27471	2.87285
3041.34614	2.82397
3039.41758	2.77553
3037.48901	2.72642
3035.56045	2.67646
3033.63188	2.62835
3031.70332	2.58271
3029.77476	2.53752
3027.84619	2.49290
3025.91763	2.44964
3023.98906	2.40694
3022.06050	2.36432
3020.13193	2.32228
3018.20337	2.28089
3016.27480	2.24020
3014.34624	2.20033
3012.41768	2.16092
3010.48911	2.12168
3008.56055	2.08321
3006.63198	2.04596
3004.70342	2.00924
3002.77485	1.97256
3000.84629	1.93636
2998.91772	1.90117
2996.98916	1.86699
2995.06060	1.83326
2993.13203	1.79998
2991.20347	1.76790
2989.27490	1.73642
2987.34634	1.70444
2985.41777	1.67284
2983.48921	1.64238
2981.56064	1.61256
2979.63208	1.58339
2977.70352	1.55484
2975.77495	1.52666
2973.84639	1.49852
2971.91782	1.47025
2969.98926	1.44254
2968.06069	1.41596
2966.13213	1.39006
2964.20356	1.36425
2962.27500	1.33876
2960.34644	1.31417
2958.41787	1.29051
2956.48931	1.26730
2954.56074	1.24416
2952.63218	1.22125
2950.70361	1.19903
2948.77505	1.17776
2946.84648	1.15701
2944.91792	1.13622
2942.98936	1.11559
2941.06079	1.09555
2939.13223	1.07547
2937.20366	1.05493
2935.27510	1.03455
2933.34653	1.01483
2931.41797	0.99580
2929.48940	0.97759
2927.56084	0.96032
2925.63228	0.94343
2923.70371	0.92645
2921.77515	0.90971
2919.84658	0.89359
2917.91802	0.87777
2915.98945	0.86170
2914.06089	0.84586
2912.13232	0.83103
2910.20376	0.81660
2908.27520	0.80187
2906.34663	0.78737
2904.41807	0.77359
2902.48950	0.76036
2900.56094	0.74732
2898.63237	0.73444
2896.70381	0.72202
2894.77524	0.70989
2892.84668	0.69779
2890.91812	0.68587
2888.98955	0.67426
2887.06099	0.66283
2885.13242	0.65143
2883.20386	0.64022
2881.27529	0.62951
2879.34673	0.61920
2877.41816	0.60874
2875.48960	0.59805
2873.56104	0.58754
2871.63247	0.57750
2869.70391	0.56782
2867.77534	0.55825
2865.84678	0.54871
2863.91821	0.53920
2861.98965	0.52976
2860.06108	0.52066
2858.13252	0.51212
2856.20396	0.50382
2854.27539	0.49540
2852.34683	0.48708
2850.41826	0.47910
2848.48970	0.47113
2846.56113	0.46310
2844.63257	0.45542
2842.70400	0.44843
2840.77544	0.44198
2838.84687	0.43561
2836.91831	0.42942
2834.98975	0.42356
2833.06118	0.41782
2831.13262	0.41196
2829.20405	0.40589
2827.27549	0.39985
2825.34692	0.39393
2823.41836	0.38800
2821.48979	0.38217
2819.56123	0.37652
2817.63267	0.37093
2815.70410	0.36540
2813.77554	0.35986
2811.84697	0.35437
2809.91841	0.34918
2807.98984	0.34418
2806.06128	0.33922
2804.13271	0.33442
2802.20415	0.32973
2800.27559	0.32504
2798.34702	0.32043
2796.41846	0.31592
2794.48989	0.31164
2792.56133	0.30744
2790.63276	0.30308
2788.70420	0.29882
2786.77563	0.29485
2784.84707	0.29101
2782.91851	0.28711
2780.98994	0.28300
2779.06138	0.27887
2777.13281	0.27512
2775.20425	0.27178
2773.27568	0.26865
2771.34712	0.26542
2769.41855	0.26188
2767.48999	0.25833
2765.56143	0.25507
2763.63286	0.25205
2761.70430	0.24925
2759.77573	0.24655
2757.84717	0.24373
2755.91860	0.24079
2753.99004	0.23773
2752.06147	0.23462
2750.13291	0.23179
2748.20435	0.22936
2746.27578	0.22701
2744.34722	0.22456
2742.41865	0.22217
2740.49009	0.21987
2738.56152	0.21750
2736.63296	0.21500
2734.70439	0.21255
2732.77583	0.21031
2730.84727	0.20829
2728.91870	0.20641
2726.99014	0.20454
2725.06157	0.20260
2723.13301	0.20066
2721.20444	0.19861
2719.27588	0.19645
2717.34731	0.19459
2715.41875	0.19324
2713.49019	0.19198
2711.56162	0.19041
2709.63306	0.18856
2707.70449	0.18673
2705.77593	0.18512
2703.84736	0.18361
2701.91880	0.18211
2699.99023	0.18067
2698.06167	0.17932
2696.13311	0.17800
2694.20454	0.17660
2692.27598	0.17524
2690.34741	0.17410
2688.41885	0.17297
2686.49028	0.17170
2684.56172	0.17038
2682.63315	0.16912
2680.70459	0.16799
2678.77603	0.16703
2676.84746	0.16618
2674.91890	0.16524
2672.99033	0.16418
2671.06177	0.16319
2669.13320	0.16228
2667.20464	0.16137
2665.27607	0.16050
2663.34751	0.15957
2661.41895	0.15858
2659.49038	0.15783
2657.56182	0.15738
2655.63325	0.15683
2653.70469	0.15605
2651.77612	0.15530
2649.84756	0.15481
2647.91899	0.15441
2645.99043	0.15389
2644.06187	0.15333
2642.13330	0.15285
2640.20474	0.15235
2638.27617	0.15189
2636.34761	0.15143
2634.41904	0.15097
2632.49048	0.15064
2630.56191	0.15043
2628.63335	0.15018
2626.70479	0.14989
2624.77622	0.14959
2622.84766	0.14933
2620.91909	0.14922
2618.99053	0.14920
2617.06196	0.14908
2615.13340	0.14896
2613.20483	0.14892
2611.27627	0.14888
2609.34771	0.14889
2607.41914	0.14891
2605.49058	0.14878
2603.56201	0.14862
2601.63345	0.14867
2599.70488	0.14873
2597.77632	0.14875
2595.84775	0.14897
2593.91919	0.14936
2591.99062	0.14969
2590.06206	0.14990
2588.13350	0.15016
2586.20493	0.15049
2584.27637	0.15071
2582.34780	0.15091
2580.41924	0.15117
2578.49067	0.15143
2576.56211	0.15173
2574.63354	0.15215
2572.70498	0.15270
2570.77642	0.15329
2568.84785	0.15380
2566.91929	0.15423
2564.99072	0.15468
2563.06216	0.15518
2561.13359	0.15561
2559.20503	0.15598
2557.27646	0.15648
2555.34790	0.15706
2553.41934	0.15762
2551.49077	0.15822
2549.56221	0.15881
2547.63364	0.15938
2545.70508	0.16001
2543.77651	0.16075
2541.84795	0.16153
2539.91938	0.16227
2537.99082	0.16302
2536.06226	0.16383
2534.13369	0.16456
2532.20513	0.16529
2530.27656	0.16613
2528.34800	0.16692
2526.41943	0.16754
2524.49087	0.16825
2522.56230	0.16920
2520.63374	0.17003
2518.70518	0.17066
2516.77661	0.17138
2514.84805	0.17225
2512.91948	0.17318
2510.99092	0.17408
2509.06235	0.17492
2507.13379	0.17596
2505.20522	0.17717
2503.27666	0.17823
2501.34810	0.17903
2499.41953	0.17968
2497.49097	0.18035
2495.56240	0.18118
2493.63384	0.18214
2491.70527	0.18321
2489.77671	0.18421
2487.84814	0.18496
2485.91958	0.18572
2483.99102	0.18666
2482.06245	0.18763
2480.13389	0.18850
2478.20532	0.18932
2476.27676	0.19038
2474.34819	0.19170
2472.41963	0.19286
2470.49106	0.19366
2468.56250	0.19437
2466.63394	0.19528
2464.70537	0.19634
2462.77681	0.19733
2460.84824	0.19829
2458.91968	0.19938
2456.99111	0.20050
2455.06255	0.20144
2453.13398	0.20228
2451.20542	0.20321
2449.27686	0.20431
2447.34829	0.20541
2445.41973	0.20637
2443.49116	0.20730
2441.56260	0.20835
2439.63403	0.20950
2437.70547	0.21064
2435.77690	0.21176
2433.84834	0.21288
2431.91978	0.21387
2429.99121	0.21475
2428.06265	0.21571
2426.13408	0.21672
2424.20552	0.21777
2422.27695	0.21898
2420.34839	0.22027
2418.41982	0.22161
2416.49126	0.22295
2414.56270	0.22413
2412.63413	0.22519
2410.70557	0.22630
2408.77700	0.22750
2406.84844	0.22878
2404.91987	0.22998
2402.99131	0.23108
2401.06274	0.23225
2399.13418	0.23347
2397.20562	0.23468
2395.27705	0.23602
2393.34849	0.23738
2391.41992	0.23860
2389.49136	0.23979
2387.56279	0.24101
2385.63423	0.24225
2383.70566	0.24363
2381.77710	0.24501
2379.84854	0.24626
2377.91997	0.24759
2375.99141	0.24911
2374.06284	0.25042
2372.13428	0.25156
2370.20571	0.25331
2368.27715	0.25577
2366.34858	0.25820
2364.42002	0.25985
2362.49146	0.26118
2360.56289	0.26319
2358.63433	0.26515
2356.70576	0.26676
2354.77720	0.26835
2352.84863	0.26927
2350.92007	0.26981
2348.99150	0.27076
2347.06294	0.27218
2345.13437	0.27384
2343.20581	0.27552
2341.27725	0.27762
2339.34868	0.27984
2337.42012	0.28096
2335.49155	0.28163
2333.56299	0.28316
2331.63442	0.28538
2329.70586	0.28735
2327.77729	0.28894
2325.84873	0.29042
2323.92017	0.29184
2321.99160	0.29339
2320.06304	0.29511
2318.13447	0.29679
2316.20591	0.29850
2314.27734	0.30035
2312.34878	0.30220
2310.42021	0.30393
2308.49165	0.30548
2306.56309	0.30695
2304.63452	0.30866
2302.70596	0.31065
2300.77739	0.31267
2298.84883	0.31462
2296.92026	0.31664
2294.99170	0.31863
2293.06313	0.32047
2291.13457	0.32231
2289.20601	0.32436
2287.27744	0.32644
2285.34888	0.32832
2283.42031	0.33007
2281.49175	0.33200
2279.56318	0.33425
2277.63462	0.33649
2275.70605	0.33855
2273.77749	0.34058
2271.84893	0.34262
2269.92036	0.34476
2267.99180	0.34707
2266.06323	0.34920
2264.13467	0.35106
2262.20610	0.35309
2260.27754	0.35527
2258.34897	0.35745
2256.42041	0.35971
2254.49185	0.36196
2252.56328	0.36414
2250.63472	0.36634
2248.70615	0.36853
2246.77759	0.37076
2244.84902	0.37310
2242.92046	0.37540
2240.99189	0.37757
2239.06333	0.37973
2237.13477	0.38205
2235.20620	0.38441
2233.27764	0.38666
2231.34907	0.38886
2229.42051	0.39111
2227.49194	0.39340
2225.56338	0.39563
2223.63481	0.39779
2221.70625	0.39999
2219.77769	0.40219
2217.84912	0.40428
2215.92056	0.40641
2213.99199	0.40868
2212.06343	0.41096
2210.13486	0.41317
2208.20630	0.41533
2206.27773	0.41743
2204.34917	0.41943
2202.42061	0.42141
2200.49204	0.42338
2198.56348	0.42533
2196.63491	0.42740
2194.70635	0.42957
2192.77778	0.43162
2190.84922	0.43350
2188.92065	0.43527
2186.99209	0.43705
2185.06353	0.43887
2183.13496	0.44073
2181.20640	0.44253
2179.27783	0.44419
2177.34927	0.44575
2175.42070	0.44721
2173.49214	0.44862
2171.56357	0.45007
2169.63501	0.45140
2167.70645	0.45252
2165.77788	0.45370
2163.84932	0.45503
2161.92075	0.45630
2159.99219	0.45737
2158.06362	0.45825
2156.13506	0.45914
2154.20649	0.46019
2152.27793	0.46115
2150.34937	0.46184
2148.42080	0.46234
2146.49224	0.46272
2144.56367	0.46311
2142.63511	0.46357
2140.70654	0.46400
2138.77798	0.46422
2136.84941	0.46420
2134.92085	0.46421
2132.99229	0.46434
2131.06372	0.46436
2129.13516	0.46418
2127.20659	0.46389
2125.27803	0.46344
2123.34946	0.46287
2121.42090	0.46227
2119.49233	0.46162
2117.56377	0.46099
2115.63521	0.46032
2113.70664	0.45947
2111.77808	0.45850
2109.84951	0.45746
2107.92095	0.45629
2105.99238	0.45502
2104.06382	0.45374
2102.13525	0.45242
2100.20669	0.45101
2098.27812	0.44953
2096.34956	0.44801
2094.42100	0.44638
2092.49243	0.44469
2090.56387	0.44304
2088.63530	0.44133
2086.70674	0.43945
2084.77817	0.43750
2082.84961	0.43565
2080.92104	0.43366
2078.99248	0.43141
2077.06392	0.42920
2075.13535	0.42706
2073.20679	0.42477
2071.27822	0.42245
2069.34966	0.42020
2067.42109	0.41794
2065.49253	0.41564
2063.56396	0.41321
2061.63540	0.41065
2059.70684	0.40799
2057.77827	0.40543
2055.84971	0.40305
2053.92114	0.40061
2051.99258	0.39792
2050.06401	0.39514
2048.13545	0.39238
2046.20688	0.38963
2044.27832	0.38696
2042.34976	0.38432
2040.42119	0.38156
2038.49263	0.37875
2036.56406	0.37596
2034.63550	0.37317
2032.70693	0.37042
2030.77837	0.36772
2028.84980	0.36495
2026.92124	0.36211
2024.99268	0.35919
2023.06411	0.35622
2021.13555	0.35335
2019.20698	0.35063
2017.27842	0.34789
2015.34985	0.34507
2013.42129	0.34224
2011.49272	0.33945
2009.56416	0.33677
2007.63560	0.33413
2005.70703	0.33150
2003.77847	0.32897
2001.84990	0.32640
1999.92134	0.32375
1997.99277	0.32117
1996.06421	0.31860
1994.13564	0.31600
1992.20708	0.31347
1990.27852	0.31094
1988.34995	0.30841
1986.42139	0.30588
1984.49282	0.30332
1982.56426	0.30084
1980.63569	0.29854
1978.70713	0.29631
1976.77856	0.29406
1974.85000	0.29181
1972.92144	0.28958
1970.99287	0.28750
1969.06431	0.28562
1967.13574	0.28368
1965.20718	0.28152
1963.27861	0.27940
1961.35005	0.27743
1959.42148	0.27550
1957.49292	0.27360
1955.56436	0.27186
1953.63579	0.27025
1951.70723	0.26861
1949.77866	0.26694
1947.85010	0.26538
1945.92153	0.26400
1943.99297	0.26268
1942.06440	0.26123
1940.13584	0.25962
1938.20728	0.25810
1936.27871	0.25674
1934.35015	0.25544
1932.42158	0.25416
1930.49302	0.25289
1928.56445	0.25166
1926.63589	0.25062
1924.70732	0.24984
1922.77876	0.24908
1920.85020	0.24817
1918.92163	0.24736
1916.99307	0.24654
1915.06450	0.24547
1913.13594	0.24446
1911.20737	0.24385
1909.27881	0.24329
1907.35024	0.24249
1905.42168	0.24166
1903.49312	0.24103
1901.56455	0.24055
1899.63599	0.24010
1897.70742	0.23973
1895.77886	0.23945
1893.85029	0.23910
1891.92173	0.23869
1889.99316	0.23850
1888.06460	0.23832
1886.13604	0.23801
1884.20747	0.23772
1882.27891	0.23752
1880.35034	0.23744
1878.42178	0.23747
1876.49321	0.23754
1874.56465	0.23755
1872.63608	0.23763
1870.70752	0.23793
1868.77896	0.23851
1866.85039	0.23886
1864.92183	0.23879
1862.99326	0.23882
1861.06470	0.23900
1859.13613	0.23925
1857.20757	0.23965
1855.27900	0.24021
1853.35044	0.24069
1851.42187	0.24120
1849.49331	0.24180
1847.56475	0.24254
1845.63618	0.24352
1843.70762	0.24464
1841.77905	0.24537
1839.85049	0.24570
1837.92192	0.24638
1835.99336	0.24732
1834.06479	0.24828
1832.13623	0.24934
1830.20767	0.25081
1828.27910	0.25227
1826.35054	0.25332
1824.42197	0.25461
1822.49341	0.25586
1820.56484	0.25703
1818.63628	0.25844
1816.70771	0.26013
1814.77915	0.26175
1812.85059	0.26353
1810.92202	0.26570
1808.99346	0.26785
1807.06489	0.26972
1805.13633	0.27150
1803.20776	0.27360
1801.27920	0.27617
1799.35063	0.27922
1797.42207	0.28197
1795.49351	0.28445
1793.56494	0.28734
1791.63638	0.29109
1789.70781	0.29456
1787.77925	0.29711
1785.85068	0.30019
1783.92212	0.30387
1781.99355	0.30787
1780.06499	0.31218
1778.13643	0.31662
1776.20786	0.32074
1774.27930	0.32512
1772.35073	0.33109
1770.42217	0.33745
1768.49360	0.34260
1766.56504	0.34761
1764.63647	0.35299
1762.70791	0.35906
1760.77935	0.36665
1758.85078	0.37372
1756.92222	0.38090
1754.99365	0.38872
1753.06509	0.39576
1751.13652	0.40427
1749.20796	0.41515
1747.27939	0.42596
1745.35083	0.43549
1743.42227	0.44539
1741.49370	0.45615
1739.56514	0.46875
1737.63657	0.48140
1735.70801	0.49261
1733.77944	0.50953
1731.85088	0.52969
1729.92231	0.54534
1727.99375	0.56097
1726.06519	0.57791
1724.13662	0.59660
1722.20806	0.61665
1720.27949	0.63499
1718.35093	0.65666
1716.42236	0.68881
1714.49380	0.71933
1712.56523	0.74404
1710.63667	0.76797
1708.70811	0.79369
1706.77954	0.82294
1704.85098	0.85762
1702.92241	0.88845
1700.99385	0.91912
1699.06528	0.96442
1697.13672	1.00565
1695.20815	1.04709
1693.27959	1.08661
1691.35103	1.11851
1689.42246	1.15554
1687.49390	1.19425
1685.56533	1.23148
1683.63677	1.28861
1681.70820	1.34718
1679.77964	1.38475
1677.85107	1.42062
1675.92251	1.46175
1673.99395	1.51219
1672.06538	1.55687
1670.13682	1.60039
1668.20825	1.65532
1666.27969	1.69851
1664.35112	1.73431
1662.42256	1.77839
1660.49399	1.82714
1658.56543	1.86470
1656.63687	1.89545
1654.70830	1.92653
1652.77974	1.98046
1650.85117	2.02991
1648.92261	2.04830
1646.99404	2.07632
1645.06548	2.11119
1643.13691	2.13353
1641.20835	2.14623
1639.27979	2.15682
1637.35122	2.16483
1635.42266	2.16992
1633.49409	2.16809
1631.56553	2.15757
1629.63696	2.14303
1627.70840	2.12011
1625.77983	2.09298
1623.85127	2.05730
1621.92271	2.01298
1619.99414	1.97304
1618.06558	1.93359
1616.13701	1.87641
1614.20845	1.81693
1612.27988	1.77186
1610.35132	1.72559
1608.42275	1.67532
1606.49419	1.62510
1604.56562	1.57837
1602.63706	1.53325
1600.70850	1.48850
1598.77993	1.44637
1596.85137	1.40657
1594.92280	1.36792
1592.99424	1.33032
1591.06567	1.29550
1589.13711	1.26224
1587.20854	1.23035
1585.27998	1.20027
1583.35142	1.17175
1581.42285	1.14512
1579.49429	1.12187
1577.56572	1.10067
1575.63716	1.07417
1573.70859	1.05012
1571.78003	1.03406
1569.85146	1.01665
1567.92290	0.99633
1565.99434	0.97958
1564.06577	0.96500
1562.13721	0.95288
1560.20864	0.94278
1558.28008	0.92475
1556.35151	0.90729
1554.42295	0.89640
1552.49438	0.88569
1550.56582	0.87516
1548.63726	0.86464
1546.70869	0.85555
1544.78013	0.84751
1542.85156	0.83919
1540.92300	0.82948
1538.99443	0.81639
1537.06587	0.80679
1535.13730	0.80052
1533.20874	0.79273
1531.28018	0.78404
1529.35161	0.77755
1527.42305	0.77164
1525.49448	0.76526
1523.56592	0.75927
1521.63735	0.75331
1519.70879	0.74683
1517.78022	0.74115
1515.85166	0.73540
1513.92310	0.72965
1511.99453	0.72487
1510.06597	0.72112
1508.13740	0.71830
1506.20884	0.71316
1504.28027	0.70690
1502.35171	0.70299
1500.42314	0.69998
1498.49458	0.69688
1496.56602	0.69311
1494.63745	0.68948
1492.70889	0.68686
1490.78032	0.68486
1488.85176	0.68243
1486.92319	0.67953
1484.99463	0.67690
1483.06606	0.67464
1481.13750	0.67250
1479.20894	0.67056
1477.28037	0.66897
1475.35181	0.66745
1473.42324	0.66577
1471.49468	0.66305
1469.56611	0.65997
1467.63755	0.65767
1465.70898	0.65580
1463.78042	0.65372
1461.85186	0.65170
1459.92329	0.65024
1457.99473	0.64887
1456.06616	0.64606
1454.13760	0.64246
1452.20903	0.63966
1450.28047	0.63737
1448.35190	0.63507
1446.42334	0.63250
1444.49478	0.63020
1442.56621	0.62834
1440.63765	0.62670
1438.70908	0.62520
1436.78052	0.62340
1434.85195	0.62119
1432.92339	0.61933
1430.99482	0.61795
1429.06626	0.61652
1427.13770	0.61488
1425.20913	0.61342
1423.28057	0.61203
1421.35200	0.61065
1419.42344	0.60950
1417.49487	0.60807
1415.56631	0.60606
1413.63774	0.60417
1411.70918	0.60241
1409.78062	0.60063
1407.85205	0.59909
1405.92349	0.59780
1403.99492	0.59641
1402.06636	0.59489
1400.13779	0.59359
1398.20923	0.59243
1396.28066	0.59101
1394.35210	0.58932
1392.42354	0.58774
1390.49497	0.58648
1388.56641	0.58543
1386.63784	0.58426
1384.70928	0.58284
1382.78071	0.58153
1380.85215	0.58040
1378.92358	0.57932
1376.99502	0.57848
1375.06646	0.57806
1373.13789	0.57747
1371.20933	0.57643
1369.28076	0.57548
1367.35220	0.57472
1365.42363	0.57392
1363.49507	0.57301
1361.56650	0.57190
1359.63794	0.57075
1357.70937	0.56979
1355.78081	0.56888
1353.85225	0.56780
1351.92368	0.56651
1349.99512	0.56527
1348.06655	0.56422
1346.13799	0.56319
1344.20942	0.56217
1342.28086	0.56128
1340.35229	0.56043
1338.42373	0.55931
1336.49517	0.55810
1334.56660	0.55715
1332.63804	0.55635
1330.70947	0.55543
1328.78091	0.55445
1326.85234	0.55362
1324.92378	0.55302
1322.99521	0.55255
1321.06665	0.55195
1319.13809	0.55110
1317.20952	0.55020
1315.28096	0.54943
1313.35239	0.54863
1311.42383	0.54770
1309.49526	0.54672
1307.56670	0.54573
1305.63813	0.54479
1303.70957	0.54402
1301.78101	0.54330
1299.85244	0.54245
1297.92388	0.54156
1295.99531	0.54073
1294.06675	0.54000
1292.13818	0.53932
1290.20962	0.53870
1288.28105	0.53820
1286.35249	0.53781
1284.42393	0.53739
1282.49536	0.53682
1280.56680	0.53614
1278.63823	0.53546
1276.70967	0.53484
1274.78110	0.53432
1272.85254	0.53390
1270.92397	0.53352
1268.99541	0.53300
1267.06685	0.53241
1265.13828	0.53202
1263.20972	0.53170
1261.28115	0.53119
1259.35259	0.53064
1257.42402	0.53030
1255.49546	0.53007
1253.56689	0.52977
1251.63833	0.52932
1249.70977	0.52877
1247.78120	0.52830
1245.85264	0.52804
1243.92407	0.52775
1241.99551	0.52721
1240.06694	0.52656
1238.13838	0.52595
1236.20981	0.52536
1234.28125	0.52475
1232.35269	0.52417
1230.42412	0.52348
1228.49556	0.52270
1226.56699	0.52198
1224.63843	0.52127
1222.70986	0.52054
1220.78130	0.51978
1218.85273	0.51883
1216.92417	0.51778
1214.99561	0.51692
1213.06704	0.51620
1211.13848	0.51552
1209.20991	0.51492
1207.28135	0.51446
1205.35278	0.51408
1203.42422	0.51363
1201.49565	0.51300
1199.56709	0.51223
1197.63853	0.51141
1195.70996	0.51077
1193.78140	0.51037
1191.85283	0.50995
1189.92427	0.50945
1187.99570	0.50907
1186.06714	0.50882
1184.13857	0.50865
1182.21001	0.50860
1180.28145	0.50873
1178.35288	0.50909
1176.42432	0.50953
1174.49575	0.51003
1172.56719	0.51085
1170.63862	0.51188
1168.71006	0.51284
1166.78149	0.51366
1164.85293	0.51439
1162.92437	0.51508
1160.99580	0.51560
1159.06724	0.51595
1157.13867	0.51611
1155.21011	0.51582
1153.28154	0.51492
1151.35298	0.51350
1149.42441	0.51177
1147.49585	0.50969
1145.56729	0.50717
1143.63872	0.50456
1141.71016	0.50222
1139.78159	0.50011
1137.85303	0.49803
1135.92446	0.49595
1133.99590	0.49422
1132.06733	0.49310
1130.13877	0.49239
1128.21021	0.49166
1126.28164	0.49075
1124.35308	0.48980
1122.42451	0.48906
1120.49595	0.48855
1118.56738	0.48812
1116.63882	0.48795
1114.71025	0.48826
1112.78169	0.48911
1110.85312	0.49027
1108.92456	0.49123
1106.99600	0.49196
1105.06743	0.49278
1103.13887	0.49369
1101.21030	0.49481
1099.28174	0.49632
1097.35317	0.49810
1095.42461	0.50037
1093.49604	0.50345
1091.56748	0.50771
1089.63892	0.51366
1087.71035	0.52139
1085.78179	0.53024
1083.85322	0.53902
1081.92466	0.54660
1079.99609	0.55259
1078.06753	0.55630
1076.13896	0.55680
1074.21040	0.55420
1072.28184	0.54927
1070.35327	0.54278
1068.42471	0.53561
1066.49614	0.52838
1064.56758	0.52171
1062.63901	0.51611
1060.71045	0.51142
1058.78188	0.50720
1056.85332	0.50338
1054.92476	0.50014
1052.99619	0.49740
1051.06763	0.49516
1049.13906	0.49374
1047.21050	0.49321
1045.28193	0.49314
1043.35337	0.49325
1041.42480	0.49377
1039.49624	0.49454
1037.56768	0.49489
1035.63911	0.49468
1033.71055	0.49426
1031.78198	0.49368
1029.85342	0.49291
1027.92485	0.49187
1025.99629	0.49052
1024.06772	0.48944
1022.13916	0.48895
1020.21060	0.48884
1018.28203	0.48902
1016.35347	0.48929
1014.42490	0.48939
1012.49634	0.48940
1010.56777	0.48956
1008.63921	0.49000
1006.71064	0.49073
1004.78208	0.49176
1002.85352	0.49334
1000.92495	0.49583
998.99639	0.49928
997.06782	0.50319
995.13926	0.50718
993.21069	0.51119
991.28213	0.51476
989.35356	0.51726
987.42500	0.51844
985.49644	0.51850
983.56787	0.51834
981.63931	0.51883
979.71074	0.52010
977.78218	0.52191
975.85361	0.52405
973.92505	0.52647
971.99648	0.52944
970.06792	0.53295
968.13936	0.53684
966.21079	0.54110
964.28223	0.54577
962.35366	0.55087
960.42510	0.55617
958.49653	0.56161
956.56797	0.56730
954.63940	0.57336
952.71084	0.57998
950.78228	0.58673
948.85371	0.59285
946.92515	0.59865
944.99658	0.60508
943.06802	0.61192
941.13945	0.61818
939.21089	0.62369
937.28232	0.62905
935.35376	0.63444
933.42520	0.63993
931.49663	0.64619
929.56807	0.65327
927.63950	0.66034
925.71094	0.66664
923.78237	0.67220
921.85381	0.67832
919.92524	0.68577
917.99668	0.69340
916.06812	0.70054
914.13955	0.70802
912.21099	0.71622
910.28242	0.72458
908.35386	0.73276
906.42529	0.74122
904.49673	0.75034
902.56816	0.76003
900.63960	0.77030
898.71104	0.78069
896.78247	0.79037
894.85391	0.79966
892.92534	0.80930
890.99678	0.81931
889.06821	0.82995
887.13965	0.84168
885.21108	0.85399
883.28252	0.86625
881.35396	0.87818
879.42539	0.88936
877.49683	0.90009
875.56826	0.91082
873.63970	0.92139
871.71113	0.93345
869.78257	0.94695
867.85400	0.95866
865.92544	0.96819
863.99687	0.97739
862.06831	0.98798
860.13975	1.00074
858.21118	1.01457
856.28262	1.02729
854.35405	1.03909
852.42549	1.05237
850.49692	1.06602
848.56836	1.07827
846.63979	1.09054
844.71123	1.10127
842.78267	1.10915
840.85410	1.11875
838.92554	1.13210
836.99697	1.14665
835.06841	1.16018
833.13984	1.17067
831.21128	1.17817
829.28271	1.18840
827.35415	1.20722
825.42559	1.22951
823.49702	1.24412
821.56846	1.24672
819.63989	1.24815
817.71133	1.26401
815.78276	1.29099
813.85420	1.31130
811.92563	1.32422
809.99707	1.34051
808.06851	1.35409
806.13994	1.36768
804.21138	1.39336
802.28281	1.41988
800.35425	1.43699
798.42568	1.46698
796.49712	1.51743
794.56855	1.52713
792.63999	1.49897
790.71143	1.53858
788.78286	1.66949
786.85430	1.77254
784.92573	1.76402
782.99717	1.73613
781.06860	1.68820
779.14004	1.61398
777.21147	1.57705
775.28291	1.62069
773.35435	1.71137
771.42578	1.75111
769.49722	1.90210
767.56865	2.43746
765.64009	2.35061
763.71152	2.28767
761.78296	1.92194
759.85439	1.59644
757.92583	1.50579
755.99727	1.45070
754.06870	1.36661
752.14014	1.39196
750.21157	1.47596
748.28301	1.33361
746.35444	1.20200
744.42588	1.20670
742.49731	1.20000
740.56875	1.12015
738.64019	1.16643
736.71162	1.46877
734.78306	1.33534
732.85449	0.93320
730.92593	0.75896
728.99736	0.66660
727.06880	0.59599
725.14023	0.59413
723.21167	0.64620
721.28311	0.59221
719.35454	0.48100
717.42598	0.42104
715.49741	0.42820
713.56885	0.48235
711.64028	0.48485
709.71172	0.38532
707.78315	0.30441
705.85459	0.33187
703.92603	0.38256
701.99746	0.30865
700.06890	0.21436
698.14033	0.15356
696.21177	0.10506
694.28320	0.07808
692.35464	0.14712
690.42607	0.26616
688.49751	0.27246
686.56895	0.21200
684.64038	0.17948
682.71182	0.17664
680.78325	0.19394
678.85469	0.22183
676.92612	0.27935
674.99756	0.35449
673.06899	0.33060
671.14043	0.22442
669.21187	0.19799
667.28330	0.16384
665.35474	0.13029
663.42617	0.16620
661.49761	0.25060
659.56904	0.32640
657.64048	0.31715
655.71191	0.22005
653.78335	0.20642
651.85479	0.19978
649.92622	0.11002
647.99766	0.02666
646.06909	0.12423
644.14053	0.34594
642.21196	0.40450
640.28340	0.33262
638.35483	0.34612
636.42627	0.31958
634.49771	0.14217
632.56914	0.02326
630.64058	0.06124
628.71201	0.19149
626.78345	0.26487
624.85488	0.21576
622.92632	0.17346
620.99775	0.20350
619.06919	0.24631
617.14062	0.25987
615.21206	0.27819
613.28350	0.32946
611.35493	0.33441
609.42637	0.21429
607.49780	0.11369
605.56924	0.10829
603.64067	0.17446
601.71211	0.19304
599.78354	0.14122
597.85498	0.11604
595.92642	0.10506
593.99785	0.08461
592.06929	0.09651
590.14072	0.16068
588.21216	0.25133
586.28359	0.31310
584.35503	0.29714
582.42646	0.29798
580.49790	0.41804
578.56934	0.51635
576.64077	0.33493
574.71221	0.21683
572.78364	0.20799
570.85508	0.25705
568.92651	0.24469
566.99795	0.19492
565.06938	0.19158
563.14082	0.19424
561.21226	0.24738
559.28369	0.40490
557.35513	0.51902
555.42656	0.41708
553.49800	0.28290
551.56943	0.20619
549.64087	0.19956
547.71230	0.18265
545.78374	0.16906
543.85518	0.21503
541.92661	0.27007
539.99805	0.27379
538.06948	0.29079
536.14092	0.28622
534.21235	0.23284
532.28379	0.19993
530.35522	0.15987
528.42666	0.07480
526.49810	0.05212
524.56953	0.11555
522.64097	0.18493
520.71240	0.21985
518.78384	0.23604
516.85527	0.25352
514.92671	0.28175
512.99814	0.25313
511.06958	0.18249
509.14102	0.20118
507.21245	0.26593
505.28389	0.18932
503.35532	0.05986
501.42676	0.00248
499.49819	0.00278
