3997.91411	0.07258
3995.98555	0.07349
3994.05698	0.07406
3992.12842	0.07430
3990.19985	0.07455
3988.27129	0.07468
3986.34272	0.07442
3984.41416	0.07422
3982.48560	0.07442
3980.55703	0.07461
3978.62847	0.07495
3976.69990	0.07554
3974.77134	0.07576
3972.84277	0.07565
3970.91421	0.07585
3968.98564	0.07642
3967.05708	0.07659
3965.12852	0.07619
3963.19995	0.07598
3961.27139	0.07591
3959.34282	0.07576
3957.41426	0.07588
3955.48569	0.07632
3953.55713	0.07647
3951.62856	0.07621
3949.70000	0.07607
3947.77144	0.07612
3945.84287	0.07605
3943.91431	0.07615
3941.98574	0.07654
3940.05718	0.07682
3938.12861	0.07659
3936.20005	0.07605
3934.27148	0.07602
3932.34292	0.07695
3930.41436	0.07796
3928.48579	0.07803
3926.55723	0.07736
3924.62866	0.07675
3922.70010	0.07662
3920.77153	0.07668
3918.84297	0.07663
3916.91440	0.07669
3914.98584	0.07681
3913.05728	0.07681
3911.12871	0.07685
3909.20015	0.07671
3907.27158	0.07590
3905.34302	0.07512
3903.41445	0.07584
3901.48589	0.07716
3899.55732	0.07707
3897.62876	0.07615
3895.70020	0.07557
3893.77163	0.07572
3891.84307	0.07630
3889.91450	0.07661
3887.98594	0.07647
3886.05737	0.07658
3884.12881	0.07684
3882.20024	0.07683
3880.27168	0.07718
3878.34312	0.07760
3876.41455	0.07722
3874.48599	0.07695
3872.55742	0.07737
3870.62886	0.07785
3868.70029	0.07797
3866.77173	0.07758
3864.84316	0.07744
3862.91460	0.07815
3860.98604	0.07877
3859.05747	0.07867
3857.12891	0.07864
3855.20034	0.07983
3853.27178	0.08195
3851.34321	0.08208
3849.41465	0.08099
3847.48608	0.08086
3845.55752	0.08126
3843.62896	0.08206
3841.70039	0.08345
3839.77183	0.08510
3837.84326	0.08655
3835.91470	0.08722
3833.98613	0.08705
3832.05757	0.08668
3830.12900	0.08638
3828.20044	0.08625
3826.27187	0.08677
3824.34331	0.08814
3822.41475	0.09009
3820.48618	0.09218
3818.55762	0.09294
3816.62905	0.09293
3814.70049	0.09363
3812.77192	0.09459
3810.84336	0.09526
3808.91479	0.09588
3806.98623	0.09687
3805.05767	0.09830
3803.12910	0.09986
3801.20054	0.10164
3799.27197	0.10256
3797.34341	0.10236
3795.41484	0.10291
3793.48628	0.10433
3791.55771	0.10569
3789.62915	0.10681
3787.70059	0.10801
3785.77202	0.10950
3783.84346	0.11093
3781.91489	0.11217
3779.98633	0.11359
3778.05776	0.11549
3776.12920	0.11729
3774.20063	0.11864
3772.27207	0.12006
3770.34351	0.12216
3768.41494	0.12479
3766.48638	0.12708
3764.55781	0.12886
3762.62925	0.13000
3760.70068	0.13118
3758.77212	0.13335
3756.84355	0.13620
3754.91499	0.13877
3752.98643	0.14107
3751.05786	0.14404
3749.12930	0.14799
3747.20073	0.15066
3745.27217	0.15251
3743.34360	0.15592
3741.41504	0.15966
3739.48647	0.16231
3737.55791	0.16525
3735.62935	0.16971
3733.70078	0.17568
3731.77222	0.18090
3729.84365	0.18444
3727.91509	0.18751
3725.98652	0.19182
3724.05796	0.19762
3722.12939	0.20401
3720.20083	0.21101
3718.27227	0.21872
3716.34370	0.22689
3714.41514	0.23499
3712.48657	0.24412
3710.55801	0.25632
3708.62944	0.26963
3706.70088	0.28140
3704.77231	0.29269
3702.84375	0.30535
3700.91519	0.32176
3698.98662	0.34020
3697.05806	0.35762
3695.12949	0.37561
3693.20093	0.39452
3691.27236	0.41502
3689.34380	0.44200
3687.41523	0.47575
3685.48667	0.50555
3683.55811	0.53139
3681.62954	0.55926
3679.70098	0.59042
3677.77241	0.62271
3675.84385	0.66096
3673.91528	0.71319
3671.98672	0.75649
3670.05815	0.79437
3668.12959	0.84574
3666.20103	0.89340
3664.27246	0.93358
3662.34390	0.97643
3660.41533	1.02276
3658.48677	1.06856
3656.55820	1.11721
3654.62964	1.17132
3652.70107	1.21669
3650.77251	1.25550
3648.84395	1.30852
3646.91538	1.37450
3644.98682	1.42425
3643.05825	1.46271
3641.12969	1.50180
3639.20112	1.54507
3637.27256	1.58897
3635.34399	1.63139
3633.41543	1.67358
3631.48687	1.71311
3629.55830	1.75231
3627.62974	1.80327
3625.70117	1.85260
3623.77261	1.88678
3621.84404	1.91841
3619.91548	1.95416
3617.98691	1.99911
3616.05835	2.04456
3614.12979	2.08298
3612.20122	2.12200
3610.27266	2.16037
3608.34409	2.19895
3606.41553	2.24058
3604.48696	2.27996
3602.55840	2.31550
3600.62983	2.35326
3598.70127	2.39360
3596.77271	2.43289
3594.84414	2.47320
3592.91558	2.51475
3590.98701	2.55326
3589.05845	2.58939
3587.12988	2.63287
3585.20132	2.68116
3583.27275	2.72273
3581.34419	2.76106
3579.41562	2.80095
3577.48706	2.84185
3575.55850	2.88402
3573.62993	2.92899
3571.70137	2.97230
3569.77280	3.01194
3567.84424	3.05341
3565.91567	3.10325
3563.98711	3.15250
3562.05854	3.19671
3560.12998	3.24178
3558.20142	3.28668
3556.27285	3.32983
3554.34429	3.37279
3552.41572	3.42035
3550.48716	3.47020
3548.55859	3.51516
3546.63003	3.55432
3544.70146	3.59583
3542.77290	3.64603
3540.84434	3.69861
3538.91577	3.74859
3536.98721	3.79814
3535.05864	3.84868
3533.13008	3.89458
3531.20151	3.93765
3529.27295	3.98342
3527.34438	4.02893
3525.41582	4.07142
3523.48726	4.11694
3521.55869	4.16968
3519.63013	4.22253
3517.70156	4.26877
3515.77300	4.31122
3513.84443	4.35967
3511.91587	4.41435
3509.98730	4.46756
3508.05874	4.51684
3506.13018	4.56300
3504.20161	4.60759
3502.27305	4.65304
3500.34448	4.70277
3498.41592	4.75472
3496.48735	4.80352
3494.55879	4.84768
3492.63022	4.89074
3490.70166	4.93782
3488.77310	4.99153
3486.84453	5.05085
3484.91597	5.11146
3482.98740	5.16793
3481.05884	5.21589
3479.13027	5.25729
3477.20171	5.29731
3475.27314	5.34324
3473.34458	5.40176
3471.41602	5.46109
3469.48745	5.51049
3467.55889	5.54686
3465.63032	5.57395
3463.70176	5.61985
3461.77319	5.68949
3459.84463	5.75836
3457.91606	5.81524
3455.98750	5.86268
3454.05894	5.90438
3452.13037	5.94899
3450.20181	5.99650
3448.27324	6.03264
3446.34468	6.06522
3444.41611	6.11479
3442.48755	6.18721
3440.55898	6.26020
3438.63042	6.30914
3436.70186	6.34279
3434.77329	6.38123
3432.84473	6.43170
3430.91616	6.49063
3428.98760	6.55647
3427.05903	6.62014
3425.13047	6.67437
3423.20190	6.71371
3421.27334	6.73820
3419.34478	6.75043
3417.41621	6.77149
3415.48765	6.82318
3413.55908	6.88141
3411.63052	6.93927
3409.70195	7.01517
3407.77339	7.09901
3405.84482	7.15763
3403.91626	7.18884
3401.98770	7.20115
3400.05913	7.20360
3398.13057	7.23426
3396.20200	7.30299
3394.27344	7.36156
3392.34487	7.38545
3390.41631	7.41560
3388.48774	7.45042
3386.55918	7.47833
3384.63062	7.53142
3382.70205	7.62101
3380.77349	7.68274
3378.84492	7.68737
3376.91636	7.69192
3374.98779	7.70766
3373.05923	7.73872
3371.13066	7.77341
3369.20210	7.80085
3367.27354	7.83374
3365.34497	7.88705
3363.41641	7.96255
3361.48784	8.01411
3359.55928	8.00102
3357.63071	7.95810
3355.70215	7.96056
3353.77358	7.98431
3351.84502	8.00707
3349.91646	8.08264
3347.98789	8.17031
3346.05933	8.12127
3344.13076	7.98005
3342.20220	7.91195
3340.27363	7.93045
3338.34507	7.96867
3336.41650	8.00116
3334.48794	8.09035
3332.55937	8.19698
3330.63081	8.20074
3328.70225	8.14476
3326.77368	8.13324
3324.84512	8.18281
3322.91655	8.22814
3320.98799	8.23527
3319.05942	8.20258
3317.13086	8.15849
3315.20229	8.19230
3313.27373	8.30966
3311.34517	8.35573
3309.41660	8.33455
3307.48804	8.33415
3305.55947	8.29647
3303.63091	8.28640
3301.70234	8.34079
3299.77378	8.32683
3297.84521	8.22149
3295.91665	8.17130
3293.98809	8.24582
3292.05952	8.36392
3290.13096	8.39204
3288.20239	8.34381
3286.27383	8.31147
3284.34526	8.29636
3282.41670	8.32532
3280.48813	8.36212
3278.55957	8.30317
3276.63101	8.20945
3274.70244	8.20302
3272.77388	8.29053
3270.84531	8.40161
3268.91675	8.46610
3266.98818	8.46000
3265.05962	8.41464
3263.13105	8.37166
3261.20249	8.36278
3259.27393	8.35008
3257.34536	8.33706
3255.41680	8.33652
3253.48823	8.32585
3251.55967	8.37547
3249.63110	8.45815
3247.70254	8.45818
3245.77397	8.40711
3243.84541	8.36501
3241.91685	8.29894
3239.98828	8.19851
3238.05972	8.13899
3236.13115	8.16474
3234.20259	8.25490
3232.27402	8.36193
3230.34546	8.39823
3228.41689	8.35842
3226.48833	8.34109
3224.55977	8.36405
3222.63120	8.38683
3220.70264	8.36278
3218.77407	8.30477
3216.84551	8.25285
3214.91694	8.14149
3212.98838	7.99850
3211.05981	7.95027
3209.13125	7.98410
3207.20269	8.04733
3205.27412	8.11088
3203.34556	8.09370
3201.41699	8.00313
3199.48843	7.92169
3197.55986	7.88504
3195.63130	7.85317
3193.70273	7.76720
3191.77417	7.69081
3189.84561	7.69808
3187.91704	7.70215
3185.98848	7.61220
3184.05991	7.51005
3182.13135	7.46168
3180.20278	7.43296
3178.27422	7.38702
3176.34565	7.35033
3174.41709	7.33843
3172.48853	7.28009
3170.55996	7.16588
3168.63140	7.08688
3166.70283	7.06063
3164.77427	7.04175
3162.84570	6.99745
3160.91714	6.90567
3158.98857	6.79761
3157.06001	6.71425
3155.13145	6.64200
3153.20288	6.56730
3151.27432	6.49707
3149.34575	6.42482
3147.41719	6.35702
3145.48862	6.30118
3143.56006	6.23952
3141.63149	6.17315
3139.70293	6.10826
3137.77437	6.03738
3135.84580	5.95947
3133.91724	5.88119
3131.98867	5.80859
3130.06011	5.74452
3128.13154	5.68120
3126.20298	5.60566
3124.27441	5.52545
3122.34585	5.45059
3120.41729	5.37988
3118.48872	5.30901
3116.56016	5.23452
3114.63159	5.16113
3112.70303	5.08927
3110.77446	5.01477
3108.84590	4.94221
3106.91733	4.87536
3104.98877	4.80770
3103.06021	4.73514
3101.13164	4.66167
3099.20308	4.59273
3097.27451	4.52672
3095.34595	4.46029
3093.41738	4.39502
3091.48882	4.32771
3089.56025	4.25798
3087.63169	4.19034
3085.70312	4.12341
3083.77456	4.05587
3081.84600	3.98985
3079.91743	3.92712
3077.98887	3.86830
3076.06030	3.81129
3074.13174	3.75285
3072.20317	3.69273
3070.27461	3.63251
3068.34604	3.57287
3066.41748	3.51332
3064.48892	3.45450
3062.56035	3.39867
3060.63179	3.34478
3058.70322	3.28912
3056.77466	3.23155
3054.84609	3.17505
3052.91753	3.12103
3050.98896	3.06855
3049.06040	3.01663
3047.13184	2.96532
3045.20327	2.91453
3043.27471	2.86395
3041.34614	2.81366
3039.41758	2.76435
3037.48901	2.71685
3035.56045	2.67061
3033.63188	2.62432
3031.70332	2.57763
3029.77476	2.53103
3027.84619	2.48576
3025.91763	2.44249
3023.98906	2.40039
3022.06050	2.35830
3020.13193	2.31595
3018.20337	2.27485
3016.27480	2.23576
3014.34624	2.19699
3012.41768	2.15751
3010.48911	2.11787
3008.56055	2.07885
3006.63198	2.04115
3004.70342	2.00505
3002.77485	1.96999
3000.84629	1.93516
2998.91772	1.90031
2996.98916	1.86604
2995.06060	1.83263
2993.13203	1.79937
2991.20347	1.76640
2989.27490	1.73470
2987.34634	1.70382
2985.41777	1.67294
2983.48921	1.64244
2981.56064	1.61274
2979.63208	1.58391
2977.70352	1.55591
2975.77495	1.52820
2973.84639	1.50041
2971.91782	1.47288
2969.98926	1.44579
2968.06069	1.41918
2966.13213	1.39333
2964.20356	1.36813
2962.27500	1.34331
2960.34644	1.31896
2958.41787	1.29507
2956.48931	1.27095
2954.56074	1.24659
2952.63218	1.22296
2950.70361	1.20022
2948.77505	1.17817
2946.84648	1.15704
2944.91792	1.13634
2942.98936	1.11541
2941.06079	1.09453
2939.13223	1.07406
2937.20366	1.05407
2935.27510	1.03457
2933.34653	1.01520
2931.41797	0.99617
2929.48940	0.97799
2927.56084	0.96022
2925.63228	0.94232
2923.70371	0.92467
2921.77515	0.90776
2919.84658	0.89158
2917.91802	0.87552
2915.98945	0.85916
2914.06089	0.84313
2912.13232	0.82758
2910.20376	0.81217
2908.27520	0.79714
2906.34663	0.78301
2904.41807	0.76988
2902.48950	0.75701
2900.56094	0.74366
2898.63237	0.73022
2896.70381	0.71734
2894.77524	0.70490
2892.84668	0.69254
2890.91812	0.68043
2888.98955	0.66884
2887.06099	0.65746
2885.13242	0.64600
2883.20386	0.63487
2881.27529	0.62449
2879.34673	0.61430
2877.41816	0.60386
2875.48960	0.59361
2873.56104	0.58342
2871.63247	0.57295
2869.70391	0.56280
2867.77534	0.55304
2865.84678	0.54316
2863.91821	0.53327
2861.98965	0.52379
2860.06108	0.51487
2858.13252	0.50636
2856.20396	0.49793
2854.27539	0.48944
2852.34683	0.48100
2850.41826	0.47298
2848.48970	0.46532
2846.56113	0.45766
2844.63257	0.45017
2842.70400	0.44338
2840.77544	0.43724
2838.84687	0.43107
2836.91831	0.42468
2834.98975	0.41856
2833.06118	0.41292
2831.13262	0.40719
2829.20405	0.40119
2827.27549	0.39521
2825.34692	0.38923
2823.41836	0.38333
2821.48979	0.37773
2819.56123	0.37219
2817.63267	0.36668
2815.70410	0.36131
2813.77554	0.35593
2811.84697	0.35059
2809.91841	0.34561
2807.98984	0.34081
2806.06128	0.33581
2804.13271	0.33069
2802.20415	0.32574
2800.27559	0.32117
2798.34702	0.31692
2796.41846	0.31259
2794.48989	0.30813
2792.56133	0.30372
2790.63276	0.29934
2788.70420	0.29506
2786.77563	0.29104
2784.84707	0.28719
2782.91851	0.28335
2780.98994	0.27949
2779.06138	0.27568
2777.13281	0.27193
2775.20425	0.26827
2773.27568	0.26496
2771.34712	0.26178
2769.41855	0.25847
2767.48999	0.25519
2765.56143	0.25202
2763.63286	0.24892
2761.70430	0.24591
2759.77573	0.24285
2757.84717	0.23985
2755.91860	0.23708
2753.99004	0.23438
2752.06147	0.23154
2750.13291	0.22875
2748.20435	0.22618
2746.27578	0.22354
2744.34722	0.22081
2742.41865	0.21833
2740.49009	0.21601
2738.56152	0.21371
2736.63296	0.21138
2734.70439	0.20899
2732.77583	0.20671
2730.84727	0.20455
2728.91870	0.20241
2726.99014	0.20044
2725.06157	0.19857
2723.13301	0.19663
2721.20444	0.19472
2719.27588	0.19284
2717.34731	0.19092
2715.41875	0.18912
2713.49019	0.18755
2711.56162	0.18608
2709.63306	0.18451
2707.70449	0.18284
2705.77593	0.18129
2703.84736	0.17976
2701.91880	0.17819
2699.99023	0.17676
2698.06167	0.17545
2696.13311	0.17420
2694.20454	0.17302
2692.27598	0.17187
2690.34741	0.17068
2688.41885	0.16941
2686.49028	0.16815
2684.56172	0.16698
2682.63315	0.16592
2680.70459	0.16491
2678.77603	0.16392
2676.84746	0.16301
2674.91890	0.16207
2672.99033	0.16098
2671.06177	0.15995
2669.13320	0.15917
2667.20464	0.15848
2665.27607	0.15758
2663.34751	0.15646
2661.41895	0.15548
2659.49038	0.15493
2657.56182	0.15456
2655.63325	0.15396
2653.70469	0.15320
2651.77612	0.15258
2649.84756	0.15204
2647.91899	0.15142
2645.99043	0.15091
2644.06187	0.15058
2642.13330	0.15030
2640.20474	0.14994
2638.27617	0.14945
2636.34761	0.14893
2634.41904	0.14851
2632.49048	0.14823
2630.56191	0.14809
2628.63335	0.14808
2626.70479	0.14797
2624.77622	0.14759
2622.84766	0.14714
2620.91909	0.14694
2618.99053	0.14697
2617.06196	0.14694
2615.13340	0.14681
2613.20483	0.14668
2611.27627	0.14664
2609.34771	0.14669
2607.41914	0.14669
2605.49058	0.14653
2603.56201	0.14630
2601.63345	0.14622
2599.70488	0.14635
2597.77632	0.14659
2595.84775	0.14677
2593.91919	0.14695
2591.99062	0.14725
2590.06206	0.14756
2588.13350	0.14779
2586.20493	0.14803
2584.27637	0.14844
2582.34780	0.14890
2580.41924	0.14915
2578.49067	0.14919
2576.56211	0.14928
2574.63354	0.14961
2572.70498	0.15009
2570.77642	0.15055
2568.84785	0.15095
2566.91929	0.15147
2564.99072	0.15206
2563.06216	0.15263
2561.13359	0.15321
2559.20503	0.15372
2557.27646	0.15412
2555.34790	0.15452
2553.41934	0.15506
2551.49077	0.15583
2549.56221	0.15656
2547.63364	0.15705
2545.70508	0.15758
2543.77651	0.15828
2541.84795	0.15895
2539.91938	0.15955
2537.99082	0.16017
2536.06226	0.16086
2534.13369	0.16166
2532.20513	0.16260
2530.27656	0.16356
2528.34800	0.16442
2526.41943	0.16521
2524.49087	0.16596
2522.56230	0.16665
2520.63374	0.16730
2518.70518	0.16801
2516.77661	0.16879
2514.84805	0.16966
2512.91948	0.17059
2510.99092	0.17139
2509.06235	0.17210
2507.13379	0.17296
2505.20522	0.17399
2503.27666	0.17501
2501.34810	0.17594
2499.41953	0.17680
2497.49097	0.17760
2495.56240	0.17838
2493.63384	0.17918
2491.70527	0.18004
2489.77671	0.18095
2487.84814	0.18186
2485.91958	0.18281
2483.99102	0.18393
2482.06245	0.18515
2480.13389	0.18619
2478.20532	0.18700
2476.27676	0.18790
2474.34819	0.18905
2472.41963	0.19015
2470.49106	0.19095
2468.56250	0.19168
2466.63394	0.19254
2464.70537	0.19355
2462.77681	0.19458
2460.84824	0.19551
2458.91968	0.19635
2456.99111	0.19731
2455.06255	0.19839
2453.13398	0.19946
2451.20542	0.20043
2449.27686	0.20144
2447.34829	0.20260
2445.41973	0.20381
2443.49116	0.20501
2441.56260	0.20616
2439.63403	0.20722
2437.70547	0.20812
2435.77690	0.20898
2433.84834	0.20993
2431.91978	0.21091
2429.99121	0.21195
2428.06265	0.21315
2426.13408	0.21431
2424.20552	0.21526
2422.27695	0.21630
2420.34839	0.21762
2418.41982	0.21899
2416.49126	0.22027
2414.56270	0.22140
2412.63413	0.22244
2410.70557	0.22350
2408.77700	0.22469
2406.84844	0.22605
2404.91987	0.22742
2402.99131	0.22857
2401.06274	0.22969
2399.13418	0.23093
2397.20562	0.23219
2395.27705	0.23346
2393.34849	0.23469
2391.41992	0.23586
2389.49136	0.23707
2387.56279	0.23827
2385.63423	0.23937
2383.70566	0.24054
2381.77710	0.24166
2379.84854	0.24254
2377.91997	0.24351
2375.99141	0.24480
2374.06284	0.24593
2372.13428	0.24636
2370.20571	0.24653
2368.27715	0.24747
2366.34858	0.24915
2364.42002	0.25062
2362.49146	0.25152
2360.56289	0.25234
2358.63433	0.25446
2356.70576	0.25770
2354.77720	0.26044
2352.84863	0.26228
2350.92007	0.26356
2348.99150	0.26469
2347.06294	0.26562
2345.13437	0.26640
2343.20581	0.26741
2341.27725	0.26885
2339.34868	0.27027
2337.42012	0.27149
2335.49155	0.27320
2333.56299	0.27549
2331.63442	0.27795
2329.70586	0.28040
2327.77729	0.28257
2325.84873	0.28421
2323.92017	0.28560
2321.99160	0.28737
2320.06304	0.28963
2318.13447	0.29188
2316.20591	0.29389
2314.27734	0.29564
2312.34878	0.29737
2310.42021	0.29944
2308.49165	0.30148
2306.56309	0.30329
2304.63452	0.30523
2302.70596	0.30728
2300.77739	0.30931
2298.84883	0.31135
2296.92026	0.31339
2294.99170	0.31523
2293.06313	0.31695
2291.13457	0.31881
2289.20601	0.32092
2287.27744	0.32315
2285.34888	0.32538
2283.42031	0.32751
2281.49175	0.32952
2279.56318	0.33153
2277.63462	0.33353
2275.70605	0.33543
2273.77749	0.33741
2271.84893	0.33963
2269.92036	0.34190
2267.99180	0.34401
2266.06323	0.34591
2264.13467	0.34787
2262.20610	0.35006
2260.27754	0.35228
2258.34897	0.35446
2256.42041	0.35661
2254.49185	0.35872
2252.56328	0.36094
2250.63472	0.36327
2248.70615	0.36564
2246.77759	0.36793
2244.84902	0.37016
2242.92046	0.37236
2240.99189	0.37454
2239.06333	0.37677
2237.13477	0.37907
2235.20620	0.38132
2233.27764	0.38350
2231.34907	0.38570
2229.42051	0.38798
2227.49194	0.39032
2225.56338	0.39265
2223.63481	0.39485
2221.70625	0.39699
2219.77769	0.39918
2217.84912	0.40139
2215.92056	0.40371
2213.99199	0.40606
2212.06343	0.40820
2210.13486	0.41016
2208.20630	0.41216
2206.27773	0.41425
2204.34917	0.41638
2202.42061	0.41853
2200.49204	0.42061
2198.56348	0.42257
2196.63491	0.42451
2194.70635	0.42651
2192.77778	0.42842
2190.84922	0.43033
2188.92065	0.43239
2186.99209	0.43437
2185.06353	0.43612
2183.13496	0.43779
2181.20640	0.43950
2179.27783	0.44112
2177.34927	0.44263
2175.42070	0.44405
2173.49214	0.44542
2171.56357	0.44687
2169.63501	0.44827
2167.70645	0.44942
2165.77788	0.45065
2163.84932	0.45207
2161.92075	0.45329
2159.99219	0.45424
2158.06362	0.45516
2156.13506	0.45620
2154.20649	0.45725
2152.27793	0.45811
2150.34937	0.45879
2148.42080	0.45940
2146.49224	0.45987
2144.56367	0.46022
2142.63511	0.46057
2140.70654	0.46090
2138.77798	0.46123
2136.84941	0.46146
2134.92085	0.46150
2132.99229	0.46141
2131.06372	0.46126
2129.13516	0.46108
2127.20659	0.46084
2125.27803	0.46044
2123.34946	0.45983
2121.42090	0.45919
2119.49233	0.45862
2117.56377	0.45802
2115.63521	0.45737
2113.70664	0.45661
2111.77808	0.45567
2109.84951	0.45457
2107.92095	0.45343
2105.99238	0.45228
2104.06382	0.45097
2102.13525	0.44944
2100.20669	0.44795
2098.27812	0.44661
2096.34956	0.44517
2094.42100	0.44346
2092.49243	0.44160
2090.56387	0.43989
2088.63530	0.43825
2086.70674	0.43648
2084.77817	0.43460
2082.84961	0.43267
2080.92104	0.43065
2078.99248	0.42854
2077.06392	0.42645
2075.13535	0.42437
2073.20679	0.42220
2071.27822	0.41992
2069.34966	0.41763
2067.42109	0.41531
2065.49253	0.41290
2063.56396	0.41036
2061.63540	0.40776
2059.70684	0.40512
2057.77827	0.40256
2055.84971	0.40012
2053.92114	0.39756
2051.99258	0.39489
2050.06401	0.39222
2048.13545	0.38952
2046.20688	0.38678
2044.27832	0.38407
2042.34976	0.38136
2040.42119	0.37862
2038.49263	0.37589
2036.56406	0.37313
2034.63550	0.37031
2032.70693	0.36749
2030.77837	0.36471
2028.84980	0.36197
2026.92124	0.35921
2024.99268	0.35637
2023.06411	0.35354
2021.13555	0.35076
2019.20698	0.34791
2017.27842	0.34503
2015.34985	0.34222
2013.42129	0.33951
2011.49272	0.33676
2009.56416	0.33399
2007.63560	0.33119
2005.70703	0.32838
2003.77847	0.32567
2001.84990	0.32314
1999.92134	0.32068
1997.99277	0.31821
1996.06421	0.31571
1994.13564	0.31323
1992.20708	0.31071
1990.27852	0.30805
1988.34995	0.30541
1986.42139	0.30287
1984.49282	0.30053
1982.56426	0.29832
1980.63569	0.29605
1978.70713	0.29373
1976.77856	0.29146
1974.85000	0.28924
1972.92144	0.28705
1970.99287	0.28493
1969.06431	0.28287
1967.13574	0.28076
1965.20718	0.27867
1963.27861	0.27672
1961.35005	0.27486
1959.42148	0.27299
1957.49292	0.27111
1955.56436	0.26924
1953.63579	0.26751
1951.70723	0.26587
1949.77866	0.26420
1947.85010	0.26255
1945.92153	0.26109
1943.99297	0.25983
1942.06440	0.25852
1940.13584	0.25700
1938.20728	0.25549
1936.27871	0.25411
1934.35015	0.25269
1932.42158	0.25130
1930.49302	0.25002
1928.56445	0.24888
1926.63589	0.24787
1924.70732	0.24697
1922.77876	0.24609
1920.85020	0.24517
1918.92163	0.24432
1916.99307	0.24353
1915.06450	0.24267
1913.13594	0.24182
1911.20737	0.24115
1909.27881	0.24051
1907.35024	0.23984
1905.42168	0.23916
1903.49312	0.23853
1901.56455	0.23800
1899.63599	0.23747
1897.70742	0.23699
1895.77886	0.23664
1893.85029	0.23631
1891.92173	0.23593
1889.99316	0.23572
1888.06460	0.23558
1886.13604	0.23533
1884.20747	0.23505
1882.27891	0.23484
1880.35034	0.23478
1878.42178	0.23479
1876.49321	0.23480
1874.56465	0.23475
1872.63608	0.23472
1870.70752	0.23486
1868.77896	0.23534
1866.85039	0.23584
1864.92183	0.23607
1862.99326	0.23622
1861.06470	0.23637
1859.13613	0.23666
1857.20757	0.23703
1855.27900	0.23747
1853.35044	0.23792
1851.42187	0.23850
1849.49331	0.23917
1847.56475	0.23982
1845.63618	0.24049
1843.70762	0.24146
1841.77905	0.24246
1839.85049	0.24307
1837.92192	0.24379
1835.99336	0.24467
1834.06479	0.24556
1832.13623	0.24650
1830.20767	0.24785
1828.27910	0.24927
1826.35054	0.25036
1824.42197	0.25171
1822.49341	0.25310
1820.56484	0.25435
1818.63628	0.25567
1816.70771	0.25733
1814.77915	0.25911
1812.85059	0.26088
1810.92202	0.26285
1808.99346	0.26494
1807.06489	0.26696
1805.13633	0.26888
1803.20776	0.27104
1801.27920	0.27348
1799.35063	0.27630
1797.42207	0.27898
1795.49351	0.28143
1793.56494	0.28411
1791.63638	0.28763
1789.70781	0.29120
1787.77925	0.29396
1785.85068	0.29713
1783.92212	0.30090
1781.99355	0.30492
1780.06499	0.30915
1778.13643	0.31357
1776.20786	0.31771
1774.27930	0.32192
1772.35073	0.32753
1770.42217	0.33383
1768.49360	0.33931
1766.56504	0.34457
1764.63647	0.34995
1762.70791	0.35587
1760.77935	0.36345
1758.85078	0.37065
1756.92222	0.37776
1754.99365	0.38556
1753.06509	0.39269
1751.13652	0.40097
1749.20796	0.41147
1747.27939	0.42220
1745.35083	0.43180
1743.42227	0.44175
1741.49370	0.45250
1739.56514	0.46509
1737.63657	0.47785
1735.70801	0.48914
1733.77944	0.50590
1731.85088	0.52586
1729.92231	0.54157
1727.99375	0.55736
1726.06519	0.57432
1724.13662	0.59276
1722.20806	0.61266
1720.27949	0.63102
1718.35093	0.65239
1716.42236	0.68405
1714.49380	0.71469
1712.56523	0.73992
1710.63667	0.76432
1708.70811	0.79021
1706.77954	0.81927
1704.85098	0.85378
1702.92241	0.88468
1700.99385	0.91533
1699.06528	0.96061
1697.13672	1.00203
1695.20815	1.04426
1693.27959	1.08556
1691.35103	1.11896
1689.42246	1.15699
1687.49390	1.19654
1685.56533	1.23420
1683.63677	1.29225
1681.70820	1.35327
1679.77964	1.39286
1677.85107	1.43057
1675.92251	1.47405
1673.99395	1.52707
1672.06538	1.57371
1670.13682	1.61906
1668.20825	1.67634
1666.27969	1.72206
1664.35112	1.76066
1662.42256	1.80826
1660.49399	1.86134
1658.56543	1.90304
1656.63687	1.93645
1654.70830	1.96593
1652.77974	2.01505
1650.85117	2.06853
1648.92261	2.09121
1646.99404	2.11711
1645.06548	2.14703
1643.13691	2.16833
1641.20835	2.18190
1639.27979	2.19428
1637.35122	2.20339
1635.42266	2.20653
1633.49409	2.20102
1631.56553	2.18842
1629.63696	2.17329
1627.70840	2.14827
1625.77983	2.11667
1623.85127	2.07738
1621.92271	2.03243
1619.99414	1.99293
1618.06558	1.95274
1616.13701	1.89487
1614.20845	1.83565
1612.27988	1.78994
1610.35132	1.74235
1608.42275	1.69096
1606.49419	1.64014
1604.56562	1.59285
1602.63706	1.54650
1600.70850	1.50106
1598.77993	1.45963
1596.85137	1.42057
1594.92280	1.38196
1592.99424	1.34390
1591.06567	1.30842
1589.13711	1.27514
1587.20854	1.24418
1585.27998	1.21509
1583.35142	1.18730
1581.42285	1.16155
1579.49429	1.13919
1577.56572	1.11837
1575.63716	1.09249
1573.70859	1.06999
1571.78003	1.05524
1569.85146	1.03886
1567.92290	1.02012
1565.99434	1.00545
1564.06577	0.99299
1562.13721	0.98249
1560.20864	0.97357
1558.28008	0.95927
1556.35151	0.94691
1554.42295	0.93952
1552.49438	0.93206
1550.56582	0.92388
1548.63726	0.91457
1546.70869	0.90559
1544.78013	0.89674
1542.85156	0.88707
1540.92300	0.87475
1538.99443	0.85770
1537.06587	0.84601
1535.13730	0.83813
1533.20874	0.82787
1531.28018	0.81688
1529.35161	0.80853
1527.42305	0.80037
1525.49448	0.79189
1523.56592	0.78448
1521.63735	0.77709
1519.70879	0.76945
1517.78022	0.76307
1515.85166	0.75618
1513.92310	0.74913
1511.99453	0.74307
1510.06597	0.73762
1508.13740	0.73244
1506.20884	0.72494
1504.28027	0.71818
1502.35171	0.71403
1500.42314	0.71038
1498.49458	0.70652
1496.56602	0.70202
1494.63745	0.69756
1492.70889	0.69396
1490.78032	0.69075
1488.85176	0.68729
1486.92319	0.68408
1484.99463	0.68140
1483.06606	0.67904
1481.13750	0.67672
1479.20894	0.67463
1477.28037	0.67296
1475.35181	0.67126
1473.42324	0.66940
1471.49468	0.66724
1469.56611	0.66496
1467.63755	0.66276
1465.70898	0.66050
1463.78042	0.65800
1461.85186	0.65568
1459.92329	0.65372
1457.99473	0.65168
1456.06616	0.64938
1454.13760	0.64692
1452.20903	0.64440
1450.28047	0.64192
1448.35190	0.63934
1446.42334	0.63637
1444.49478	0.63366
1442.56621	0.63147
1440.63765	0.62940
1438.70908	0.62735
1436.78052	0.62507
1434.85195	0.62275
1432.92339	0.62091
1430.99482	0.61934
1429.06626	0.61787
1427.13770	0.61669
1425.20913	0.61575
1423.28057	0.61477
1421.35200	0.61375
1419.42344	0.61279
1417.49487	0.61163
1415.56631	0.61000
1413.63774	0.60848
1411.70918	0.60732
1409.78062	0.60633
1407.85205	0.60544
1405.92349	0.60473
1403.99492	0.60404
1402.06636	0.60311
1400.13779	0.60195
1398.20923	0.60058
1396.28066	0.59896
1394.35210	0.59699
1392.42354	0.59488
1390.49497	0.59287
1388.56641	0.59087
1386.63784	0.58865
1384.70928	0.58628
1382.78071	0.58411
1380.85215	0.58209
1378.92358	0.58024
1376.99502	0.57872
1375.06646	0.57744
1373.13789	0.57614
1371.20933	0.57497
1369.28076	0.57406
1367.35220	0.57326
1365.42363	0.57233
1363.49507	0.57123
1361.56650	0.57004
1359.63794	0.56890
1357.70937	0.56783
1355.78081	0.56687
1353.85225	0.56608
1351.92368	0.56535
1349.99512	0.56454
1348.06655	0.56360
1346.13799	0.56267
1344.20942	0.56183
1342.28086	0.56104
1340.35229	0.56036
1338.42373	0.55958
1336.49517	0.55858
1334.56660	0.55766
1332.63804	0.55697
1330.70947	0.55642
1328.78091	0.55590
1326.85234	0.55544
1324.92378	0.55513
1322.99521	0.55490
1321.06665	0.55450
1319.13809	0.55391
1317.20952	0.55331
1315.28096	0.55268
1313.35239	0.55199
1311.42383	0.55129
1309.49526	0.55061
1307.56670	0.54995
1305.63813	0.54921
1303.70957	0.54840
1301.78101	0.54762
1299.85244	0.54686
1297.92388	0.54615
1295.99531	0.54545
1294.06675	0.54455
1292.13818	0.54351
1290.20962	0.54265
1288.28105	0.54199
1286.35249	0.54132
1284.42393	0.54070
1282.49536	0.54010
1280.56680	0.53941
1278.63823	0.53867
1276.70967	0.53807
1274.78110	0.53765
1272.85254	0.53725
1270.92397	0.53669
1268.99541	0.53595
1267.06685	0.53518
1265.13828	0.53448
1263.20972	0.53387
1261.28115	0.53332
1259.35259	0.53287
1257.42402	0.53262
1255.49546	0.53252
1253.56689	0.53232
1251.63833	0.53195
1249.70977	0.53163
1247.78120	0.53142
1245.85264	0.53125
1243.92407	0.53101
1241.99551	0.53049
1240.06694	0.52971
1238.13838	0.52886
1236.20981	0.52792
1234.28125	0.52686
1232.35269	0.52579
1230.42412	0.52478
1228.49556	0.52383
1226.56699	0.52303
1224.63843	0.52237
1222.70986	0.52167
1220.78130	0.52088
1218.85273	0.52008
1216.92417	0.51923
1214.99561	0.51835
1213.06704	0.51754
1211.13848	0.51675
1209.20991	0.51599
1207.28135	0.51529
1205.35278	0.51458
1203.42422	0.51399
1201.49565	0.51349
1199.56709	0.51296
1197.63853	0.51242
1195.70996	0.51185
1193.78140	0.51129
1191.85283	0.51093
1189.92427	0.51082
1187.99570	0.51070
1186.06714	0.51047
1184.13857	0.51028
1182.21001	0.51037
1180.28145	0.51082
1178.35288	0.51138
1176.42432	0.51187
1174.49575	0.51231
1172.56719	0.51268
1170.63862	0.51311
1168.71006	0.51356
1166.78149	0.51388
1164.85293	0.51407
1162.92437	0.51418
1160.99580	0.51419
1159.06724	0.51403
1157.13867	0.51349
1155.21011	0.51247
1153.28154	0.51111
1151.35298	0.50945
1149.42441	0.50753
1147.49585	0.50545
1145.56729	0.50319
1143.63872	0.50086
1141.71016	0.49851
1139.78159	0.49624
1137.85303	0.49412
1135.92446	0.49204
1133.99590	0.49008
1132.06733	0.48856
1130.13877	0.48744
1128.21021	0.48629
1126.28164	0.48507
1124.35308	0.48391
1122.42451	0.48277
1120.49595	0.48175
1118.56738	0.48085
1116.63882	0.48008
1114.71025	0.47977
1112.78169	0.47997
1110.85312	0.48028
1108.92456	0.48054
1106.99600	0.48109
1105.06743	0.48220
1103.13887	0.48377
1101.21030	0.48560
1099.28174	0.48764
1097.35317	0.49008
1095.42461	0.49306
1093.49604	0.49638
1091.56748	0.50001
1089.63892	0.50441
1087.71035	0.51005
1085.78179	0.51665
1083.85322	0.52337
1081.92466	0.52962
1079.99609	0.53496
1078.06753	0.53863
1076.13896	0.54005
1074.21040	0.53893
1072.28184	0.53506
1070.35327	0.52890
1068.42471	0.52186
1066.49614	0.51510
1064.56758	0.50870
1062.63901	0.50276
1060.71045	0.49764
1058.78188	0.49323
1056.85332	0.48933
1054.92476	0.48581
1052.99619	0.48274
1051.06763	0.48028
1049.13906	0.47827
1047.21050	0.47650
1045.28193	0.47503
1043.35337	0.47376
1041.42480	0.47268
1039.49624	0.47209
1037.56768	0.47163
1035.63911	0.47092
1033.71055	0.47028
1031.78198	0.47002
1029.85342	0.47014
1027.92485	0.47053
1025.99629	0.47105
1024.06772	0.47145
1022.13916	0.47172
1020.21060	0.47221
1018.28203	0.47314
1016.35347	0.47438
1014.42490	0.47575
1012.49634	0.47708
1010.56777	0.47835
1008.63921	0.47982
1006.71064	0.48170
1004.78208	0.48399
1002.85352	0.48653
1000.92495	0.48913
998.99639	0.49200
997.06782	0.49542
995.13926	0.49924
993.21069	0.50324
991.28213	0.50699
989.35356	0.50982
987.42500	0.51151
985.49644	0.51253
983.56787	0.51343
981.63931	0.51457
979.71074	0.51613
977.78218	0.51824
975.85361	0.52091
973.92505	0.52393
971.99648	0.52715
970.06792	0.53044
968.13936	0.53404
966.21079	0.53816
964.28223	0.54281
962.35366	0.54808
960.42510	0.55353
958.49653	0.55891
956.56797	0.56459
954.63940	0.57077
952.71084	0.57725
950.78228	0.58374
948.85371	0.59011
946.92515	0.59645
944.99658	0.60284
943.06802	0.60911
941.13945	0.61494
939.21089	0.62062
937.28232	0.62692
935.35376	0.63369
933.42520	0.63985
931.49663	0.64499
929.56807	0.64988
927.63950	0.65534
925.71094	0.66142
923.78237	0.66789
921.85381	0.67455
919.92524	0.68148
917.99668	0.68879
916.06812	0.69643
914.13955	0.70439
912.21099	0.71222
910.28242	0.71977
908.35386	0.72765
906.42529	0.73638
904.49673	0.74572
902.56816	0.75474
900.63960	0.76382
898.71104	0.77371
896.78247	0.78344
894.85391	0.79296
892.92534	0.80281
890.99678	0.81294
889.06821	0.82440
887.13965	0.83606
885.21108	0.84649
883.28252	0.85724
881.35396	0.86793
879.42539	0.87839
877.49683	0.89046
875.56826	0.90397
873.63970	0.91697
871.71113	0.92901
869.78257	0.94156
867.85400	0.95351
865.92544	0.96286
863.99687	0.97220
862.06831	0.98409
860.13975	0.99706
858.21118	1.00918
856.28262	1.02064
854.35405	1.03280
852.42549	1.04535
850.49692	1.05676
848.56836	1.06721
846.63979	1.07837
844.71123	1.09022
842.78267	1.10120
840.85410	1.11222
838.92554	1.12288
836.99697	1.13264
835.06841	1.14381
833.13984	1.15414
831.21128	1.16234
829.28271	1.17118
827.35415	1.17903
825.42559	1.18702
823.49702	1.20382
821.56846	1.22791
819.63989	1.24653
817.71133	1.25697
815.78276	1.26128
813.85420	1.26190
811.92563	1.26785
809.99707	1.27581
808.06851	1.27932
806.13994	1.28921
804.21138	1.31193
802.28281	1.34561
800.35425	1.37468
798.42568	1.36779
796.49712	1.33949
794.56855	1.34789
792.63999	1.39317
790.71143	1.40021
788.78286	1.38806
786.85430	1.42127
784.92573	1.45999
782.99717	1.41570
781.06860	1.32905
779.14004	1.30693
777.21147	1.35882
775.28291	1.39558
773.35435	1.36979
771.42578	1.35455
769.49722	1.38397
767.56865	1.41768
765.64009	1.40351
763.71152	1.38429
761.78296	1.40409
759.85439	1.42366
757.92583	1.46615
755.99727	1.59199
754.06870	1.53293
752.14014	1.24050
750.21157	1.07104
748.28301	1.03963
746.35444	1.10611
744.42588	1.20820
742.49731	1.34814
740.56875	1.69858
738.64019	1.65152
736.71162	1.25383
734.78306	1.13442
732.85449	1.12225
730.92593	1.11596
728.99736	1.22426
727.06880	1.54435
725.14023	1.11357
723.21167	0.75417
721.28311	0.64527
719.35454	0.66579
717.42598	0.65081
715.49741	0.52636
713.56885	0.46587
711.64028	0.45762
709.71172	0.37279
707.78315	0.30808
705.85459	0.33249
703.92603	0.39353
701.99746	0.40748
700.06890	0.33126
698.14033	0.27835
696.21177	0.30045
694.28320	0.34426
692.35464	0.41418
690.42607	0.42681
688.49751	0.34164
686.56895	0.31717
684.64038	0.44825
682.71182	0.57172
680.78325	0.47104
678.85469	0.39066
676.92612	0.41309
674.99756	0.38510
673.06899	0.28337
671.14043	0.22991
669.21187	0.27389
667.28330	0.32603
665.35474	0.36167
663.42617	0.34782
661.49761	0.27681
659.56904	0.23004
657.64048	0.19469
655.71191	0.12763
653.78335	0.14734
651.85479	0.23079
649.92622	0.24915
647.99766	0.16560
646.06909	0.18635
644.14053	0.30204
642.21196	0.47217
640.28340	0.65259
638.35483	0.53810
636.42627	0.36501
634.49771	0.30765
632.56914	0.33206
630.64058	0.40628
628.71201	0.38380
626.78345	0.25519
624.85488	0.16171
622.92632	0.13012
620.99775	0.18025
619.06919	0.30413
617.14062	0.35278
615.21206	0.24855
613.28350	0.19830
611.35493	0.27785
609.42637	0.43248
607.49780	0.45102
605.56924	0.38890
603.64067	0.43983
601.71211	0.50445
599.78354	0.41963
597.85498	0.35684
595.92642	0.41105
593.99785	0.43394
592.06929	0.31056
590.14072	0.25932
588.21216	0.29265
586.28359	0.31371
584.35503	0.28333
582.42646	0.27699
580.49790	0.33637
578.56934	0.42426
576.64077	0.54664
574.71221	0.58393
572.78364	0.37931
570.85508	0.22467
568.92651	0.20399
566.99795	0.31907
565.06938	0.42941
563.14082	0.46666
561.21226	0.36540
559.28369	0.25483
557.35513	0.22257
555.42656	0.21317
553.49800	0.22862
551.56943	0.32084
549.64087	0.36619
547.71230	0.32116
545.78374	0.33788
543.85518	0.34263
541.92661	0.26989
539.99805	0.17303
538.06948	0.10687
536.14092	0.10984
534.21235	0.13842
532.28379	0.13110
530.35522	0.09828
528.42666	0.08109
526.49810	0.10116
524.56953	0.16793
522.64097	0.23949
520.71240	0.27542
518.78384	0.30623
516.85527	0.29862
514.92671	0.20807
512.99814	0.15021
511.06958	0.19249
509.14102	0.31496
507.21245	0.39360
505.28389	0.26942
503.35532	0.12948
501.42676	0.10042
499.49819	0.16741
