3997.91411	0.07125
3995.98555	0.07093
3994.05698	0.07125
3992.12842	0.07218
3990.19985	0.07280
3988.27129	0.07282
3986.34272	0.07264
3984.41416	0.07271
3982.48560	0.07288
3980.55703	0.07313
3978.62847	0.07361
3976.69990	0.07403
3974.77134	0.07420
3972.84277	0.07429
3970.91421	0.07454
3968.98564	0.07493
3967.05708	0.07485
3965.12852	0.07440
3963.19995	0.07452
3961.27139	0.07524
3959.34282	0.07550
3957.41426	0.07499
3955.48569	0.07471
3953.55713	0.07501
3951.62856	0.07527
3949.70000	0.07533
3947.77144	0.07547
3945.84287	0.07553
3943.91431	0.07536
3941.98574	0.07538
3940.05718	0.07567
3938.12861	0.07565
3936.20005	0.07524
3934.27148	0.07485
3932.34292	0.07468
3930.41436	0.07473
3928.48579	0.07469
3926.55723	0.07417
3924.62866	0.07371
3922.70010	0.07382
3920.77153	0.07387
3918.84297	0.07375
3916.91440	0.07415
3914.98584	0.07474
3913.05728	0.07465
3911.12871	0.07426
3909.20015	0.07398
3907.27158	0.07361
3905.34302	0.07299
3903.41445	0.07232
3901.48589	0.07235
3899.55732	0.07338
3897.62876	0.07412
3895.70020	0.07401
3893.77163	0.07378
3891.84307	0.07372
3889.91450	0.07402
3887.98594	0.07425
3886.05737	0.07407
3884.12881	0.07410
3882.20024	0.07435
3880.27168	0.07456
3878.34312	0.07488
3876.41455	0.07484
3874.48599	0.07459
3872.55742	0.07455
3870.62886	0.07480
3868.70029	0.07560
3866.77173	0.07621
3864.84316	0.07641
3862.91460	0.07712
3860.98604	0.07788
3859.05747	0.07789
3857.12891	0.07711
3855.20034	0.07583
3853.27178	0.07580
3851.34321	0.07864
3849.41465	0.08043
3847.48608	0.08062
3845.55752	0.08056
3843.62896	0.08057
3841.70039	0.08053
3839.77183	0.08059
3837.84326	0.08161
3835.91470	0.08321
3833.98613	0.08412
3832.05757	0.08458
3830.12900	0.08497
3828.20044	0.08519
3826.27187	0.08537
3824.34331	0.08567
3822.41475	0.08598
3820.48618	0.08730
3818.55762	0.08930
3816.62905	0.09047
3814.70049	0.09200
3812.77192	0.09359
3810.84336	0.09426
3808.91479	0.09460
3806.98623	0.09533
3805.05767	0.09645
3803.12910	0.09712
3801.20054	0.09783
3799.27197	0.09930
3797.34341	0.10070
3795.41484	0.10226
3793.48628	0.10415
3791.55771	0.10603
3789.62915	0.10776
3787.70059	0.10906
3785.77202	0.11009
3783.84346	0.11092
3781.91489	0.11157
3779.98633	0.11283
3778.05776	0.11497
3776.12920	0.11689
3774.20063	0.11815
3772.27207	0.11926
3770.34351	0.12075
3768.41494	0.12288
3766.48638	0.12493
3764.55781	0.12689
3762.62925	0.12895
3760.70068	0.13088
3758.77212	0.13337
3756.84355	0.13638
3754.91499	0.13834
3752.98643	0.13930
3751.05786	0.14089
3749.12930	0.14443
3747.20073	0.14761
3745.27217	0.14972
3743.34360	0.15341
3741.41504	0.15765
3739.48647	0.16008
3737.55791	0.16205
3735.62935	0.16548
3733.70078	0.17102
3731.77222	0.17653
3729.84365	0.18102
3727.91509	0.18506
3725.98652	0.18977
3724.05796	0.19591
3722.12939	0.20288
3720.20083	0.21052
3718.27227	0.21892
3716.34370	0.22741
3714.41514	0.23501
3712.48657	0.24303
3710.55801	0.25480
3708.62944	0.26910
3706.70088	0.28170
3704.77231	0.29305
3702.84375	0.30543
3700.91519	0.32155
3698.98662	0.34003
3697.05806	0.35796
3695.12949	0.37653
3693.20093	0.39583
3691.27236	0.41642
3689.34380	0.44308
3687.41523	0.47740
3685.48667	0.50884
3683.55811	0.53539
3681.62954	0.56288
3679.70098	0.59368
3677.77241	0.62622
3675.84385	0.66441
3673.91528	0.71598
3671.98672	0.75931
3670.05815	0.79812
3668.12959	0.85136
3666.20103	0.90092
3664.27246	0.94243
3662.34390	0.98584
3660.41533	1.03170
3658.48677	1.07681
3656.55820	1.12509
3654.62964	1.17902
3652.70107	1.22425
3650.77251	1.26261
3648.84395	1.31482
3646.91538	1.38162
3644.98682	1.43370
3643.05825	1.47406
3641.12969	1.51430
3639.20112	1.55774
3637.27256	1.60094
3635.34399	1.64268
3633.41543	1.68462
3631.48687	1.72428
3629.55830	1.76411
3627.62974	1.81592
3625.70117	1.86515
3623.77261	1.89935
3621.84404	1.93204
3619.91548	1.96879
3617.98691	2.01319
3616.05835	2.05682
3614.12979	2.09407
3612.20122	2.13349
3610.27266	2.17245
3608.34409	2.21104
3606.41553	2.25342
3604.48696	2.29306
3602.55840	2.32739
3600.62983	2.36404
3598.70127	2.40456
3596.77271	2.44520
3594.84414	2.48578
3592.91558	2.52649
3590.98701	2.56501
3589.05845	2.60057
3587.12988	2.64265
3585.20132	2.69143
3583.27275	2.73361
3581.34419	2.77196
3579.41562	2.81464
3577.48706	2.85948
3575.55850	2.90195
3573.62993	2.94489
3571.70137	2.98721
3569.77280	3.02682
3567.84424	3.06866
3565.91567	3.12034
3563.98711	3.17127
3562.05854	3.21423
3560.12998	3.25661
3558.20142	3.29945
3556.27285	3.34092
3554.34429	3.38145
3552.41572	3.42677
3550.48716	3.47749
3548.55859	3.52590
3546.63003	3.56964
3544.70146	3.61560
3542.77290	3.66456
3540.84434	3.71269
3538.91577	3.76088
3536.98721	3.81008
3535.05864	3.86125
3533.13008	3.90863
3531.20151	3.95286
3529.27295	4.00047
3527.34438	4.04952
3525.41582	4.09555
3523.48726	4.14037
3521.55869	4.18832
3519.63013	4.24088
3517.70156	4.29486
3515.77300	4.34321
3513.84443	4.38858
3511.91587	4.43635
3509.98730	4.48726
3508.05874	4.54207
3506.13018	4.59523
3504.20161	4.64143
3502.27305	4.68531
3500.34448	4.73426
3498.41592	4.78303
3496.48735	4.82668
3494.55879	4.87441
3492.63022	4.92677
3490.70166	4.97468
3488.77310	5.02239
3486.84453	5.06919
3484.91597	5.11148
3482.98740	5.16488
3481.05884	5.23009
3479.13027	5.28213
3477.20171	5.31773
3475.27314	5.35398
3473.34458	5.39959
3471.41602	5.45307
3469.48745	5.50814
3467.55889	5.56223
3465.63032	5.61228
3463.70176	5.66023
3461.77319	5.71562
3459.84463	5.77428
3457.91606	5.82367
3455.98750	5.87279
3454.05894	5.93321
3452.13037	5.99425
3450.20181	6.04127
3448.27324	6.08409
3446.34468	6.13837
3444.41611	6.19359
3442.48755	6.24792
3440.55898	6.29300
3438.63042	6.31819
3436.70186	6.34622
3434.77329	6.38357
3432.84473	6.42276
3430.91616	6.48588
3428.98760	6.57994
3427.05903	6.65970
3425.13047	6.69710
3423.20190	6.71855
3421.27334	6.77373
3419.34478	6.84779
3417.41621	6.89616
3415.48765	6.92927
3413.55908	6.95233
3411.63052	6.98372
3409.70195	7.04727
3407.77339	7.13104
3405.84482	7.19603
3403.91626	7.23707
3401.98770	7.27856
3400.05913	7.32849
3398.13057	7.38207
3396.20200	7.40670
3394.27344	7.40146
3392.34487	7.45692
3390.41631	7.60773
3388.48774	7.72433
3386.55918	7.74648
3384.63062	7.71319
3382.70205	7.68073
3380.77349	7.70381
3378.84492	7.74142
3376.91636	7.75144
3374.98779	7.74433
3373.05923	7.76347
3371.13066	7.83022
3369.20210	7.94278
3367.27354	8.04044
3365.34497	8.04549
3363.41641	7.97647
3361.48784	7.93616
3359.55928	8.01343
3357.63071	8.13558
3355.70215	8.17563
3353.77358	8.13752
3351.84502	8.13064
3349.91646	8.20630
3347.98789	8.31146
3346.05933	8.32098
3344.13076	8.23965
3342.20220	8.25118
3340.27363	8.37471
3338.34507	8.44740
3336.41650	8.39178
3334.48794	8.33669
3332.55937	8.35543
3330.63081	8.39363
3328.70225	8.40836
3326.77368	8.42230
3324.84512	8.40262
3322.91655	8.28633
3320.98799	8.16488
3319.05942	8.12593
3317.13086	8.16352
3315.20229	8.20542
3313.27373	8.24485
3311.34517	8.29033
3309.41660	8.25259
3307.48804	8.18127
3305.55947	8.19855
3303.63091	8.27535
3301.70234	8.33459
3299.77378	8.36682
3297.84521	8.34494
3295.91665	8.32961
3293.98809	8.36674
3292.05952	8.39738
3290.13096	8.43599
3288.20239	8.45604
3286.27383	8.43688
3284.34526	8.46543
3282.41670	8.52822
3280.48813	8.54066
3278.55957	8.51410
3276.63101	8.47896
3274.70244	8.46470
3272.77388	8.47508
3270.84531	8.50522
3268.91675	8.52744
3266.98818	8.45981
3265.05962	8.40660
3263.13105	8.44485
3261.20249	8.41549
3259.27393	8.32447
3257.34536	8.34767
3255.41680	8.41044
3253.48823	8.39931
3251.55967	8.46171
3249.63110	8.61291
3247.70254	8.65050
3245.77397	8.57723
3243.84541	8.48895
3241.91685	8.39060
3239.98828	8.33192
3238.05972	8.31343
3236.13115	8.32838
3234.20259	8.39025
3232.27402	8.42012
3230.34546	8.34737
3228.41689	8.23024
3226.48833	8.16185
3224.55977	8.15758
3222.63120	8.18358
3220.70264	8.21708
3218.77407	8.27660
3216.84551	8.37153
3214.91694	8.41048
3212.98838	8.31833
3211.05981	8.16194
3209.13125	8.01889
3207.20269	7.93488
3205.27412	7.91833
3203.34556	7.92231
3201.41699	7.91311
3199.48843	7.90718
3197.55986	7.92822
3195.63130	7.94103
3193.70273	7.89039
3191.77417	7.81557
3189.84561	7.78678
3187.91704	7.76465
3185.98848	7.70732
3184.05991	7.65112
3182.13135	7.58488
3180.20278	7.51987
3178.27422	7.48197
3176.34565	7.41060
3174.41709	7.28417
3172.48853	7.18783
3170.55996	7.16310
3168.63140	7.17248
3166.70283	7.16441
3164.77427	7.10123
3162.84570	7.00156
3160.91714	6.90603
3158.98857	6.83995
3157.06001	6.80988
3155.13145	6.77640
3153.20288	6.69927
3151.27432	6.59665
3149.34575	6.50600
3147.41719	6.43073
3145.48862	6.35183
3143.56006	6.26264
3141.63149	6.17516
3139.70293	6.10030
3137.77437	6.03164
3135.84580	5.96703
3133.91724	5.91091
3131.98867	5.83871
3130.06011	5.74370
3128.13154	5.65518
3126.20298	5.58031
3124.27441	5.51235
3122.34585	5.44800
3120.41729	5.38406
3118.48872	5.31212
3116.56016	5.22959
3114.63159	5.15090
3112.70303	5.08184
3110.77446	5.00929
3108.84590	4.93001
3106.91733	4.85651
3104.98877	4.78927
3103.06021	4.71876
3101.13164	4.64478
3099.20308	4.57442
3097.27451	4.50804
3095.34595	4.44013
3093.41738	4.37123
3091.48882	4.30508
3089.56025	4.24055
3087.63169	4.17394
3085.70312	4.10545
3083.77456	4.03723
3081.84600	3.97121
3079.91743	3.90969
3077.98887	3.85074
3076.06030	3.78953
3074.13174	3.72631
3072.20317	3.66595
3070.27461	3.60967
3068.34604	3.55363
3066.41748	3.49516
3064.48892	3.43457
3062.56035	3.37375
3060.63179	3.31611
3058.70322	3.26193
3056.77466	3.20807
3054.84609	3.15353
3052.91753	3.09986
3050.98896	3.04705
3049.06040	2.99343
3047.13184	2.94051
3045.20327	2.88977
3043.27471	2.83962
3041.34614	2.78976
3039.41758	2.74146
3037.48901	2.69425
3035.56045	2.64636
3033.63188	2.59874
3031.70332	2.55330
3029.77476	2.50928
3027.84619	2.46567
3025.91763	2.42202
3023.98906	2.37819
3022.06050	2.33514
3020.13193	2.29329
3018.20337	2.25237
3016.27480	2.21248
3014.34624	2.17311
3012.41768	2.13409
3010.48911	2.09586
3008.56055	2.05823
3006.63198	2.02091
3004.70342	1.98383
3002.77485	1.94710
3000.84629	1.91126
2998.91772	1.87682
2996.98916	1.84352
2995.06060	1.81037
2993.13203	1.77714
2991.20347	1.74449
2989.27490	1.71231
2987.34634	1.68018
2985.41777	1.64876
2983.48921	1.61857
2981.56064	1.58892
2979.63208	1.55918
2977.70352	1.52940
2975.77495	1.49988
2973.84639	1.47124
2971.91782	1.44350
2969.98926	1.41626
2968.06069	1.38950
2966.13213	1.36304
2964.20356	1.33696
2962.27500	1.31144
2960.34644	1.28627
2958.41787	1.26185
2956.48931	1.23835
2954.56074	1.21514
2952.63218	1.19227
2950.70361	1.16991
2948.77505	1.14796
2946.84648	1.12660
2944.91792	1.10544
2942.98936	1.08425
2941.06079	1.06338
2939.13223	1.04278
2937.20366	1.02247
2935.27510	1.00235
2933.34653	0.98219
2931.41797	0.96240
2929.48940	0.94363
2927.56084	0.92587
2925.63228	0.90841
2923.70371	0.89110
2921.77515	0.87427
2919.84658	0.85830
2917.91802	0.84347
2915.98945	0.82877
2914.06089	0.81367
2912.13232	0.79948
2910.20376	0.78644
2908.27520	0.77340
2906.34663	0.75975
2904.41807	0.74605
2902.48950	0.73310
2900.56094	0.72067
2898.63237	0.70829
2896.70381	0.69608
2894.77524	0.68421
2892.84668	0.67250
2890.91812	0.66078
2888.98955	0.64933
2887.06099	0.63801
2885.13242	0.62665
2883.20386	0.61575
2881.27529	0.60540
2879.34673	0.59520
2877.41816	0.58504
2875.48960	0.57487
2873.56104	0.56454
2871.63247	0.55423
2869.70391	0.54416
2867.77534	0.53439
2865.84678	0.52492
2863.91821	0.51562
2861.98965	0.50636
2860.06108	0.49704
2858.13252	0.48767
2856.20396	0.47862
2854.27539	0.47041
2852.34683	0.46285
2850.41826	0.45542
2848.48970	0.44823
2846.56113	0.44177
2844.63257	0.43580
2842.70400	0.42979
2840.77544	0.42373
2838.84687	0.41772
2836.91831	0.41181
2834.98975	0.40604
2833.06118	0.40041
2831.13262	0.39480
2829.20405	0.38920
2827.27549	0.38355
2825.34692	0.37780
2823.41836	0.37218
2821.48979	0.36684
2819.56123	0.36156
2817.63267	0.35621
2815.70410	0.35092
2813.77554	0.34567
2811.84697	0.34041
2809.91841	0.33523
2807.98984	0.33018
2806.06128	0.32532
2804.13271	0.32066
2802.20415	0.31599
2800.27559	0.31143
2798.34702	0.30717
2796.41846	0.30302
2794.48989	0.29876
2792.56133	0.29461
2790.63276	0.29069
2788.70420	0.28670
2786.77563	0.28254
2784.84707	0.27856
2782.91851	0.27481
2780.98994	0.27115
2779.06138	0.26766
2777.13281	0.26415
2775.20425	0.26058
2773.27568	0.25723
2771.34712	0.25400
2769.41855	0.25073
2767.48999	0.24755
2765.56143	0.24453
2763.63286	0.24149
2761.70430	0.23847
2759.77573	0.23558
2757.84717	0.23260
2755.91860	0.22962
2753.99004	0.22694
2752.06147	0.22445
2750.13291	0.22190
2748.20435	0.21934
2746.27578	0.21676
2744.34722	0.21420
2742.41865	0.21185
2740.49009	0.20964
2738.56152	0.20740
2736.63296	0.20513
2734.70439	0.20290
2732.77583	0.20073
2730.84727	0.19871
2728.91870	0.19675
2726.99014	0.19463
2725.06157	0.19254
2723.13301	0.19071
2721.20444	0.18886
2719.27588	0.18698
2717.34731	0.18529
2715.41875	0.18373
2713.49019	0.18212
2711.56162	0.18038
2709.63306	0.17869
2707.70449	0.17724
2705.77593	0.17594
2703.84736	0.17462
2701.91880	0.17323
2699.99023	0.17186
2698.06167	0.17051
2696.13311	0.16923
2694.20454	0.16808
2692.27598	0.16697
2690.34741	0.16574
2688.41885	0.16441
2686.49028	0.16324
2684.56172	0.16229
2682.63315	0.16135
2680.70459	0.16032
2678.77603	0.15929
2676.84746	0.15830
2674.91890	0.15735
2672.99033	0.15646
2671.06177	0.15556
2669.13320	0.15459
2667.20464	0.15370
2665.27607	0.15297
2663.34751	0.15228
2661.41895	0.15153
2659.49038	0.15066
2657.56182	0.14985
2655.63325	0.14926
2653.70469	0.14874
2651.77612	0.14817
2649.84756	0.14772
2647.91899	0.14745
2645.99043	0.14713
2644.06187	0.14666
2642.13330	0.14620
2640.20474	0.14578
2638.27617	0.14521
2636.34761	0.14468
2634.41904	0.14439
2632.49048	0.14418
2630.56191	0.14396
2628.63335	0.14382
2626.70479	0.14372
2624.77622	0.14361
2622.84766	0.14339
2620.91909	0.14307
2618.99053	0.14283
2617.06196	0.14286
2615.13340	0.14301
2613.20483	0.14302
2611.27627	0.14301
2609.34771	0.14307
2607.41914	0.14315
2605.49058	0.14338
2603.56201	0.14361
2601.63345	0.14349
2599.70488	0.14327
2597.77632	0.14342
2595.84775	0.14386
2593.91919	0.14416
2591.99062	0.14425
2590.06206	0.14431
2588.13350	0.14454
2586.20493	0.14491
2584.27637	0.14521
2582.34780	0.14540
2580.41924	0.14561
2578.49067	0.14597
2576.56211	0.14650
2574.63354	0.14700
2572.70498	0.14740
2570.77642	0.14781
2568.84785	0.14832
2566.91929	0.14887
2564.99072	0.14941
2563.06216	0.14988
2561.13359	0.15033
2559.20503	0.15094
2557.27646	0.15165
2555.34790	0.15232
2553.41934	0.15295
2551.49077	0.15348
2549.56221	0.15404
2547.63364	0.15471
2545.70508	0.15540
2543.77651	0.15617
2541.84795	0.15699
2539.91938	0.15766
2537.99082	0.15829
2536.06226	0.15910
2534.13369	0.16003
2532.20513	0.16092
2530.27656	0.16169
2528.34800	0.16250
2526.41943	0.16344
2524.49087	0.16429
2522.56230	0.16492
2520.63374	0.16544
2518.70518	0.16608
2516.77661	0.16687
2514.84805	0.16766
2512.91948	0.16857
2510.99092	0.16960
2509.06235	0.17057
2507.13379	0.17140
2505.20522	0.17221
2503.27666	0.17314
2501.34810	0.17413
2499.41953	0.17508
2497.49097	0.17595
2495.56240	0.17684
2493.63384	0.17781
2491.70527	0.17886
2489.77671	0.17996
2487.84814	0.18106
2485.91958	0.18207
2483.99102	0.18296
2482.06245	0.18371
2480.13389	0.18446
2478.20532	0.18542
2476.27676	0.18655
2474.34819	0.18760
2472.41963	0.18849
2470.49106	0.18942
2468.56250	0.19046
2466.63394	0.19141
2464.70537	0.19229
2462.77681	0.19328
2460.84824	0.19445
2458.91968	0.19562
2456.99111	0.19666
2455.06255	0.19771
2453.13398	0.19888
2451.20542	0.20000
2449.27686	0.20098
2447.34829	0.20197
2445.41973	0.20298
2443.49116	0.20400
2441.56260	0.20510
2439.63403	0.20617
2437.70547	0.20712
2435.77690	0.20811
2433.84834	0.20922
2431.91978	0.21041
2429.99121	0.21162
2428.06265	0.21282
2426.13408	0.21394
2424.20552	0.21507
2422.27695	0.21617
2420.34839	0.21720
2418.41982	0.21832
2416.49126	0.21964
2414.56270	0.22097
2412.63413	0.22218
2410.70557	0.22324
2408.77700	0.22425
2406.84844	0.22543
2404.91987	0.22684
2402.99131	0.22823
2401.06274	0.22944
2399.13418	0.23053
2397.20562	0.23167
2395.27705	0.23291
2393.34849	0.23419
2391.41992	0.23549
2389.49136	0.23669
2387.56279	0.23776
2385.63423	0.23855
2383.70566	0.23895
2381.77710	0.23904
2379.84854	0.23885
2377.91997	0.23840
2375.99141	0.23757
2374.06284	0.23625
2372.13428	0.23475
2370.20571	0.23332
2368.27715	0.23122
2366.34858	0.22840
2364.42002	0.22673
2362.49146	0.22722
2360.56289	0.22901
2358.63433	0.23103
2356.70576	0.23333
2354.77720	0.23743
2352.84863	0.24338
2350.92007	0.24887
2348.99150	0.25182
2347.06294	0.25201
2345.13437	0.25036
2343.20581	0.24943
2341.27725	0.25127
2339.34868	0.25404
2337.42012	0.25624
2335.49155	0.25853
2333.56299	0.26097
2331.63442	0.26283
2329.70586	0.26444
2327.77729	0.26689
2325.84873	0.27001
2323.92017	0.27331
2321.99160	0.27656
2320.06304	0.27973
2318.13447	0.28302
2316.20591	0.28607
2314.27734	0.28860
2312.34878	0.29099
2310.42021	0.29358
2308.49165	0.29630
2306.56309	0.29898
2304.63452	0.30150
2302.70596	0.30381
2300.77739	0.30600
2298.84883	0.30823
2296.92026	0.31056
2294.99170	0.31286
2293.06313	0.31516
2291.13457	0.31754
2289.20601	0.31996
2287.27744	0.32235
2285.34888	0.32466
2283.42031	0.32691
2281.49175	0.32904
2279.56318	0.33095
2277.63462	0.33274
2275.70605	0.33467
2273.77749	0.33686
2271.84893	0.33911
2269.92036	0.34114
2267.99180	0.34304
2266.06323	0.34515
2264.13467	0.34742
2262.20610	0.34968
2260.27754	0.35190
2258.34897	0.35406
2256.42041	0.35626
2254.49185	0.35855
2252.56328	0.36090
2250.63472	0.36323
2248.70615	0.36551
2246.77759	0.36777
2244.84902	0.37006
2242.92046	0.37223
2240.99189	0.37427
2239.06333	0.37637
2237.13477	0.37864
2235.20620	0.38096
2233.27764	0.38329
2231.34907	0.38567
2229.42051	0.38803
2227.49194	0.39028
2225.56338	0.39252
2223.63481	0.39477
2221.70625	0.39697
2219.77769	0.39916
2217.84912	0.40135
2215.92056	0.40352
2213.99199	0.40569
2212.06343	0.40783
2210.13486	0.40994
2208.20630	0.41209
2206.27773	0.41428
2204.34917	0.41644
2202.42061	0.41858
2200.49204	0.42062
2198.56348	0.42246
2196.63491	0.42428
2194.70635	0.42629
2192.77778	0.42839
2190.84922	0.43034
2188.92065	0.43212
2186.99209	0.43386
2185.06353	0.43560
2183.13496	0.43735
2181.20640	0.43912
2179.27783	0.44086
2177.34927	0.44265
2175.42070	0.44439
2173.49214	0.44594
2171.56357	0.44735
2169.63501	0.44872
2167.70645	0.44993
2165.77788	0.45095
2163.84932	0.45198
2161.92075	0.45306
2159.99219	0.45415
2158.06362	0.45525
2156.13506	0.45622
2154.20649	0.45700
2152.27793	0.45784
2150.34937	0.45872
2148.42080	0.45936
2146.49224	0.45984
2144.56367	0.46036
2142.63511	0.46080
2140.70654	0.46111
2138.77798	0.46141
2136.84941	0.46169
2134.92085	0.46182
2132.99229	0.46179
2131.06372	0.46166
2129.13516	0.46140
2127.20659	0.46099
2125.27803	0.46055
2123.34946	0.46012
2121.42090	0.45964
2119.49233	0.45899
2117.56377	0.45824
2115.63521	0.45743
2113.70664	0.45662
2111.77808	0.45584
2109.84951	0.45494
2107.92095	0.45384
2105.99238	0.45265
2104.06382	0.45148
2102.13525	0.45023
2100.20669	0.44888
2098.27812	0.44748
2096.34956	0.44601
2094.42100	0.44444
2092.49243	0.44284
2090.56387	0.44124
2088.63530	0.43943
2086.70674	0.43739
2084.77817	0.43527
2082.84961	0.43322
2080.92104	0.43120
2078.99248	0.42918
2077.06392	0.42716
2075.13535	0.42502
2073.20679	0.42265
2071.27822	0.42024
2069.34966	0.41802
2067.42109	0.41585
2065.49253	0.41355
2063.56396	0.41110
2061.63540	0.40864
2059.70684	0.40620
2057.77827	0.40366
2055.84971	0.40105
2053.92114	0.39852
2051.99258	0.39607
2050.06401	0.39350
2048.13545	0.39078
2046.20688	0.38800
2044.27832	0.38514
2042.34976	0.38233
2040.42119	0.37971
2038.49263	0.37718
2036.56406	0.37447
2034.63550	0.37163
2032.70693	0.36878
2030.77837	0.36588
2028.84980	0.36301
2026.92124	0.36031
2024.99268	0.35763
2023.06411	0.35482
2021.13555	0.35207
2019.20698	0.34937
2017.27842	0.34653
2015.34985	0.34361
2013.42129	0.34087
2011.49272	0.33827
2009.56416	0.33566
2007.63560	0.33287
2005.70703	0.33006
2003.77847	0.32739
2001.84990	0.32479
1999.92134	0.32212
1997.99277	0.31944
1996.06421	0.31685
1994.13564	0.31434
1992.20708	0.31188
1990.27852	0.30937
1988.34995	0.30687
1986.42139	0.30435
1984.49282	0.30188
1982.56426	0.29953
1980.63569	0.29722
1978.70713	0.29489
1976.77856	0.29264
1974.85000	0.29052
1972.92144	0.28838
1970.99287	0.28611
1969.06431	0.28387
1967.13574	0.28180
1965.20718	0.27990
1963.27861	0.27802
1961.35005	0.27611
1959.42148	0.27425
1957.49292	0.27243
1955.56436	0.27063
1953.63579	0.26888
1951.70723	0.26715
1949.77866	0.26547
1947.85010	0.26383
1945.92153	0.26219
1943.99297	0.26058
1942.06440	0.25907
1940.13584	0.25769
1938.20728	0.25634
1936.27871	0.25508
1934.35015	0.25393
1932.42158	0.25271
1930.49302	0.25139
1928.56445	0.25016
1926.63589	0.24904
1924.70732	0.24799
1922.77876	0.24696
1920.85020	0.24602
1918.92163	0.24522
1916.99307	0.24443
1915.06450	0.24362
1913.13594	0.24283
1911.20737	0.24202
1909.27881	0.24117
1907.35024	0.24037
1905.42168	0.23979
1903.49312	0.23940
1901.56455	0.23903
1899.63599	0.23862
1897.70742	0.23815
1895.77886	0.23768
1893.85029	0.23730
1891.92173	0.23689
1889.99316	0.23652
1888.06460	0.23630
1886.13604	0.23616
1884.20747	0.23593
1882.27891	0.23566
1880.35034	0.23555
1878.42178	0.23554
1876.49321	0.23557
1874.56465	0.23555
1872.63608	0.23550
1870.70752	0.23543
1868.77896	0.23569
1866.85039	0.23625
1864.92183	0.23659
1862.99326	0.23676
1861.06470	0.23697
1859.13613	0.23730
1857.20757	0.23768
1855.27900	0.23816
1853.35044	0.23864
1851.42187	0.23915
1849.49331	0.23968
1847.56475	0.24026
1845.63618	0.24089
1843.70762	0.24170
1841.77905	0.24266
1839.85049	0.24343
1837.92192	0.24421
1835.99336	0.24508
1834.06479	0.24602
1832.13623	0.24690
1830.20767	0.24804
1828.27910	0.24949
1826.35054	0.25070
1824.42197	0.25205
1822.49341	0.25350
1820.56484	0.25491
1818.63628	0.25639
1816.70771	0.25806
1814.77915	0.25971
1812.85059	0.26141
1810.92202	0.26332
1808.99346	0.26534
1807.06489	0.26740
1805.13633	0.26936
1803.20776	0.27142
1801.27920	0.27376
1799.35063	0.27657
1797.42207	0.27921
1795.49351	0.28159
1793.56494	0.28424
1791.63638	0.28784
1789.70781	0.29166
1787.77925	0.29461
1785.85068	0.29773
1783.92212	0.30134
1781.99355	0.30535
1780.06499	0.30969
1778.13643	0.31411
1776.20786	0.31810
1774.27930	0.32208
1772.35073	0.32745
1770.42217	0.33377
1768.49360	0.33951
1766.56504	0.34505
1764.63647	0.35054
1762.70791	0.35633
1760.77935	0.36384
1758.85078	0.37114
1756.92222	0.37838
1754.99365	0.38620
1753.06509	0.39303
1751.13652	0.40074
1749.20796	0.41077
1747.27939	0.42141
1745.35083	0.43104
1743.42227	0.44096
1741.49370	0.45177
1739.56514	0.46477
1737.63657	0.47791
1735.70801	0.48891
1733.77944	0.50500
1731.85088	0.52505
1729.92231	0.54135
1727.99375	0.55766
1726.06519	0.57482
1724.13662	0.59328
1722.20806	0.61322
1720.27949	0.63137
1718.35093	0.65198
1716.42236	0.68316
1714.49380	0.71438
1712.56523	0.74007
1710.63667	0.76437
1708.70811	0.78984
1706.77954	0.81830
1704.85098	0.85224
1702.92241	0.88257
1700.99385	0.91221
1699.06528	0.95627
1697.13672	0.99703
1695.20815	1.03863
1693.27959	1.07888
1691.35103	1.11105
1689.42246	1.14748
1687.49390	1.18501
1685.56533	1.22069
1683.63677	1.27614
1681.70820	1.33363
1679.77964	1.37010
1677.85107	1.40457
1675.92251	1.44426
1673.99395	1.49326
1672.06538	1.53596
1670.13682	1.57678
1668.20825	1.63027
1666.27969	1.67394
1664.35112	1.70987
1662.42256	1.75301
1660.49399	1.79983
1658.56543	1.83556
1656.63687	1.86478
1654.70830	1.89268
1652.77974	1.94144
1650.85117	1.99290
1648.92261	2.01527
1646.99404	2.04292
1645.06548	2.07538
1643.13691	2.09870
1641.20835	2.11433
1639.27979	2.12730
1637.35122	2.13602
1635.42266	2.13916
1633.49409	2.13486
1631.56553	2.12527
1629.63696	2.11238
1627.70840	2.08903
1625.77983	2.06150
1623.85127	2.02718
1621.92271	1.98470
1619.99414	1.94661
1618.06558	1.90818
1616.13701	1.85156
1614.20845	1.79329
1612.27988	1.74890
1610.35132	1.70242
1608.42275	1.65138
1606.49419	1.60050
1604.56562	1.55355
1602.63706	1.50778
1600.70850	1.46208
1598.77993	1.41945
1596.85137	1.37922
1594.92280	1.34046
1592.99424	1.30316
1591.06567	1.26851
1589.13711	1.23558
1587.20854	1.20435
1585.27998	1.17463
1583.35142	1.14628
1581.42285	1.12036
1579.49429	1.09801
1577.56572	1.07720
1575.63716	1.05080
1573.70859	1.02691
1571.78003	1.01064
1569.85146	0.99255
1567.92290	0.97213
1565.99434	0.95603
1564.06577	0.94184
1562.13721	0.92939
1560.20864	0.91801
1558.28008	0.89861
1556.35151	0.88175
1554.42295	0.87129
1552.49438	0.86088
1550.56582	0.85102
1548.63726	0.84093
1546.70869	0.83157
1544.78013	0.82272
1542.85156	0.81357
1540.92300	0.80377
1538.99443	0.79272
1537.06587	0.78534
1535.13730	0.77993
1533.20874	0.77297
1531.28018	0.76555
1529.35161	0.75986
1527.42305	0.75425
1525.49448	0.74803
1523.56592	0.74208
1521.63735	0.73602
1519.70879	0.72984
1517.78022	0.72456
1515.85166	0.71941
1513.92310	0.71493
1511.99453	0.71114
1510.06597	0.70714
1508.13740	0.70290
1506.20884	0.69775
1504.28027	0.69382
1502.35171	0.69108
1500.42314	0.68824
1498.49458	0.68501
1496.56602	0.68140
1494.63745	0.67806
1492.70889	0.67517
1490.78032	0.67234
1488.85176	0.66914
1486.92319	0.66595
1484.99463	0.66302
1483.06606	0.66017
1481.13750	0.65741
1479.20894	0.65492
1477.28037	0.65248
1475.35181	0.64963
1473.42324	0.64631
1471.49468	0.64262
1469.56611	0.63956
1467.63755	0.63715
1465.70898	0.63478
1463.78042	0.63222
1461.85186	0.62998
1459.92329	0.62805
1457.99473	0.62575
1456.06616	0.62300
1454.13760	0.62094
1452.20903	0.61942
1450.28047	0.61793
1448.35190	0.61636
1446.42334	0.61473
1444.49478	0.61316
1442.56621	0.61155
1440.63765	0.60984
1438.70908	0.60820
1436.78052	0.60658
1434.85195	0.60504
1432.92339	0.60354
1430.99482	0.60209
1429.06626	0.60072
1427.13770	0.59943
1425.20913	0.59800
1423.28057	0.59642
1421.35200	0.59489
1419.42344	0.59332
1417.49487	0.59178
1415.56631	0.59038
1413.63774	0.58891
1411.70918	0.58739
1409.78062	0.58598
1407.85205	0.58467
1405.92349	0.58342
1403.99492	0.58218
1402.06636	0.58084
1400.13779	0.57949
1398.20923	0.57813
1396.28066	0.57682
1394.35210	0.57561
1392.42354	0.57444
1390.49497	0.57319
1388.56641	0.57190
1386.63784	0.57075
1384.70928	0.56975
1382.78071	0.56872
1380.85215	0.56754
1378.92358	0.56638
1376.99502	0.56537
1375.06646	0.56439
1373.13789	0.56337
1371.20933	0.56246
1369.28076	0.56149
1367.35220	0.56042
1365.42363	0.55942
1363.49507	0.55846
1361.56650	0.55763
1359.63794	0.55692
1357.70937	0.55613
1355.78081	0.55527
1353.85225	0.55453
1351.92368	0.55379
1349.99512	0.55289
1348.06655	0.55188
1346.13799	0.55091
1344.20942	0.54998
1342.28086	0.54909
1340.35229	0.54830
1338.42373	0.54752
1336.49517	0.54661
1334.56660	0.54564
1332.63804	0.54475
1330.70947	0.54392
1328.78091	0.54312
1326.85234	0.54234
1324.92378	0.54159
1322.99521	0.54084
1321.06665	0.53993
1319.13809	0.53895
1317.20952	0.53802
1315.28096	0.53709
1313.35239	0.53634
1311.42383	0.53583
1309.49526	0.53533
1307.56670	0.53478
1305.63813	0.53413
1303.70957	0.53327
1301.78101	0.53247
1299.85244	0.53181
1297.92388	0.53110
1295.99531	0.53037
1294.06675	0.52974
1292.13818	0.52926
1290.20962	0.52882
1288.28105	0.52835
1286.35249	0.52779
1284.42393	0.52714
1282.49536	0.52649
1280.56680	0.52591
1278.63823	0.52543
1276.70967	0.52503
1274.78110	0.52463
1272.85254	0.52425
1270.92397	0.52387
1268.99541	0.52334
1267.06685	0.52267
1265.13828	0.52209
1263.20972	0.52169
1261.28115	0.52129
1259.35259	0.52083
1257.42402	0.52035
1255.49546	0.51999
1253.56689	0.51973
1251.63833	0.51945
1249.70977	0.51928
1247.78120	0.51919
1245.85264	0.51911
1243.92407	0.51890
1241.99551	0.51844
1240.06694	0.51784
1238.13838	0.51719
1236.20981	0.51659
1234.28125	0.51618
1232.35269	0.51589
1230.42412	0.51539
1228.49556	0.51462
1226.56699	0.51387
1224.63843	0.51331
1222.70986	0.51286
1220.78130	0.51231
1218.85273	0.51165
1216.92417	0.51095
1214.99561	0.51020
1213.06704	0.50950
1211.13848	0.50885
1209.20991	0.50810
1207.28135	0.50751
1205.35278	0.50712
1203.42422	0.50657
1201.49565	0.50586
1199.56709	0.50534
1197.63853	0.50497
1195.70996	0.50446
1193.78140	0.50380
1191.85283	0.50323
1189.92427	0.50281
1187.99570	0.50257
1186.06714	0.50243
1184.13857	0.50219
1182.21001	0.50204
1180.28145	0.50224
1178.35288	0.50256
1176.42432	0.50286
1174.49575	0.50328
1172.56719	0.50374
1170.63862	0.50399
1168.71006	0.50419
1166.78149	0.50454
1164.85293	0.50490
1162.92437	0.50499
1160.99580	0.50485
1159.06724	0.50461
1157.13867	0.50419
1155.21011	0.50341
1153.28154	0.50227
1151.35298	0.50091
1149.42441	0.49943
1147.49585	0.49769
1145.56729	0.49562
1143.63872	0.49344
1141.71016	0.49135
1139.78159	0.48924
1137.85303	0.48700
1135.92446	0.48480
1133.99590	0.48269
1132.06733	0.48067
1130.13877	0.47886
1128.21021	0.47730
1126.28164	0.47596
1124.35308	0.47484
1122.42451	0.47410
1120.49595	0.47351
1118.56738	0.47264
1116.63882	0.47181
1114.71025	0.47165
1112.78169	0.47215
1110.85312	0.47297
1108.92456	0.47379
1106.99600	0.47457
1105.06743	0.47545
1103.13887	0.47663
1101.21030	0.47842
1099.28174	0.48084
1097.35317	0.48357
1095.42461	0.48649
1093.49604	0.48995
1091.56748	0.49402
1089.63892	0.49862
1087.71035	0.50391
1085.78179	0.50997
1083.85322	0.51675
1081.92466	0.52363
1079.99609	0.52952
1078.06753	0.53354
1076.13896	0.53504
1074.21040	0.53379
1072.28184	0.53009
1070.35327	0.52439
1068.42471	0.51769
1066.49614	0.51120
1064.56758	0.50518
1062.63901	0.49943
1060.71045	0.49405
1058.78188	0.48915
1056.85332	0.48485
1054.92476	0.48139
1052.99619	0.47859
1051.06763	0.47598
1049.13906	0.47371
1047.21050	0.47203
1045.28193	0.47066
1043.35337	0.46956
1041.42480	0.46874
1039.49624	0.46802
1037.56768	0.46752
1035.63911	0.46724
1033.71055	0.46698
1031.78198	0.46682
1029.85342	0.46703
1027.92485	0.46750
1025.99629	0.46788
1024.06772	0.46829
1022.13916	0.46895
1020.21060	0.46985
1018.28203	0.47093
1016.35347	0.47219
1014.42490	0.47350
1012.49634	0.47476
1010.56777	0.47621
1008.63921	0.47800
1006.71064	0.47999
1004.78208	0.48205
1002.85352	0.48429
1000.92495	0.48691
998.99639	0.49000
997.06782	0.49356
995.13926	0.49744
993.21069	0.50134
991.28213	0.50476
989.35356	0.50726
987.42500	0.50891
985.49644	0.51003
983.56787	0.51090
981.63931	0.51192
979.71074	0.51343
977.78218	0.51570
975.85361	0.51856
973.92505	0.52150
971.99648	0.52461
970.06792	0.52802
968.13936	0.53166
966.21079	0.53577
964.28223	0.54044
962.35366	0.54552
960.42510	0.55075
958.49653	0.55617
956.56797	0.56203
954.63940	0.56821
952.71084	0.57440
950.78228	0.58065
948.85371	0.58699
946.92515	0.59343
944.99658	0.60004
943.06802	0.60668
941.13945	0.61293
939.21089	0.61843
937.28232	0.62356
935.35376	0.62921
933.42520	0.63498
931.49663	0.63992
929.56807	0.64489
927.63950	0.65115
925.71094	0.65796
923.78237	0.66429
921.85381	0.67068
919.92524	0.67764
917.99668	0.68522
916.06812	0.69360
914.13955	0.70195
912.21099	0.70932
910.28242	0.71670
908.35386	0.72550
906.42529	0.73464
904.49673	0.74267
902.56816	0.75099
900.63960	0.76086
898.71104	0.77116
896.78247	0.78060
894.85391	0.79026
892.92534	0.80207
890.99678	0.81393
889.06821	0.82344
887.13965	0.83361
885.21108	0.84561
883.28252	0.85688
881.35396	0.86780
879.42539	0.87946
877.49683	0.89116
875.56826	0.90252
873.63970	0.91340
871.71113	0.92408
869.78257	0.93558
867.85400	0.94827
865.92544	0.96061
863.99687	0.97193
862.06831	0.98368
860.13975	0.99522
858.21118	1.00695
856.28262	1.02129
854.35405	1.03628
852.42549	1.04797
850.49692	1.05701
848.56836	1.06727
846.63979	1.08082
844.71123	1.09483
842.78267	1.10463
840.85410	1.11167
838.92554	1.12035
836.99697	1.13308
835.06841	1.15192
833.13984	1.17143
831.21128	1.18178
829.28271	1.18734
827.35415	1.19791
825.42559	1.21148
823.49702	1.22470
821.56846	1.24131
819.63989	1.26086
817.71133	1.27456
815.78276	1.28366
813.85420	1.29300
811.92563	1.29932
809.99707	1.30610
808.06851	1.31782
806.13994	1.33899
804.21138	1.36623
802.28281	1.38891
800.35425	1.40895
798.42568	1.42084
796.49712	1.42117
794.56855	1.43751
792.63999	1.46694
790.71143	1.46366
788.78286	1.46441
786.85430	1.49186
784.92573	1.47513
782.99717	1.46476
781.06860	1.56313
779.14004	1.74756
777.21147	1.90651
775.28291	2.12852
773.35435	2.27866
771.42578	1.92971
769.49722	1.67124
767.56865	1.64358
765.64009	1.98581
763.71152	2.93271
761.78296	2.48212
759.85439	2.46624
757.92583	1.75216
755.99727	1.55743
754.06870	1.41763
752.14014	1.38655
750.21157	1.60616
748.28301	1.62092
746.35444	1.20535
744.42588	1.07762
742.49731	1.20071
740.56875	1.40990
738.64019	1.80951
736.71162	4.42027
734.78306	1.07500
732.85449	0.69058
730.92593	0.59309
728.99736	0.67036
727.06880	0.75029
725.14023	0.46673
723.21167	0.10815
721.28311	-0.44980
719.35454	4.31613
717.42598	4.30456
715.49741	-0.13569
713.56885	0.13893
711.64028	0.42732
709.71172	0.55837
707.78315	0.48156
705.85459	0.47503
703.92603	0.52242
701.99746	0.49732
700.06890	0.53961
698.14033	0.80570
696.21177	1.18974
694.28320	0.77526
692.35464	0.56502
690.42607	0.56724
688.49751	0.92101
686.56895	0.94960
684.64038	0.43351
682.71182	0.39700
680.78325	0.61529
678.85469	0.68109
676.92612	0.48312
674.99756	0.35227
673.06899	0.28701
671.14043	0.26727
669.21187	0.33000
667.28330	0.51898
665.35474	0.79789
663.42617	0.87576
661.49761	0.63002
659.56904	0.51933
657.64048	0.59102
655.71191	0.85799
653.78335	1.29366
651.85479	0.99402
649.92622	0.74157
647.99766	0.64343
646.06909	0.53853
644.14053	0.44236
642.21196	0.39407
640.28340	0.32636
638.35483	0.25143
636.42627	0.28296
634.49771	0.38182
632.56914	0.34922
630.64058	0.28262
628.71201	0.27844
626.78345	0.30533
624.85488	0.36476
622.92632	0.44071
620.99775	0.46441
619.06919	0.40753
617.14062	0.36014
615.21206	0.40375
613.28350	0.52837
611.35493	0.49867
609.42637	0.37982
607.49780	0.35903
605.56924	0.40148
603.64067	0.42406
601.71211	0.49533
599.78354	0.67082
597.85498	0.68385
595.92642	0.60686
593.99785	0.57860
592.06929	0.46842
590.14072	0.36408
588.21216	0.33670
586.28359	0.34097
584.35503	0.31401
582.42646	0.26796
580.49790	0.24180
578.56934	0.24613
576.64077	0.25553
574.71221	0.26874
572.78364	0.33373
570.85508	0.41885
568.92651	0.45203
566.99795	0.43766
565.06938	0.33961
563.14082	0.27460
561.21226	0.32724
559.28369	0.51754
557.35513	0.59803
555.42656	0.38469
553.49800	0.28367
551.56943	0.31516
549.64087	0.46088
547.71230	0.60791
545.78374	0.53826
543.85518	0.38467
541.92661	0.33732
539.99805	0.39929
538.06948	0.48320
536.14092	0.56892
534.21235	0.77800
532.28379	0.76321
530.35522	0.57206
528.42666	0.44098
526.49810	0.36057
524.56953	0.32324
522.64097	0.27489
520.71240	0.23061
518.78384	0.24538
516.85527	0.30565
514.92671	0.32946
512.99814	0.32328
511.06958	0.31535
509.14102	0.29363
507.21245	0.26637
505.28389	0.25415
503.35532	0.26864
501.42676	0.33071
499.49819	0.43808
