3997.91411	0.06528
3995.98555	0.06549
3994.05698	0.06596
3992.12842	0.06632
3990.19985	0.06677
3988.27129	0.06717
3986.34272	0.06732
3984.41416	0.06764
3982.48560	0.06801
3980.55703	0.06793
3978.62847	0.06765
3976.69990	0.06782
3974.77134	0.06854
3972.84277	0.06928
3970.91421	0.06928
3968.98564	0.06888
3967.05708	0.06910
3965.12852	0.06975
3963.19995	0.07008
3961.27139	0.07020
3959.34282	0.07028
3957.41426	0.07009
3955.48569	0.06967
3953.55713	0.06968
3951.62856	0.07041
3949.70000	0.07133
3947.77144	0.07191
3945.84287	0.07190
3943.91431	0.07166
3941.98574	0.07163
3940.05718	0.07115
3938.12861	0.07033
3936.20005	0.07017
3934.27148	0.07111
3932.34292	0.07277
3930.41436	0.07359
3928.48579	0.07278
3926.55723	0.07185
3924.62866	0.07154
3922.70010	0.07111
3920.77153	0.07093
3918.84297	0.07155
3916.91440	0.07176
3914.98584	0.07043
3913.05728	0.06896
3911.12871	0.06877
3909.20015	0.06940
3907.27158	0.07035
3905.34302	0.07198
3903.41445	0.07394
3901.48589	0.07458
3899.55732	0.07382
3897.62876	0.07257
3895.70020	0.07100
3893.77163	0.07015
3891.84307	0.07056
3889.91450	0.07097
3887.98594	0.07101
3886.05737	0.07186
3884.12881	0.07281
3882.20024	0.07283
3880.27168	0.07262
3878.34312	0.07215
3876.41455	0.07172
3874.48599	0.07229
3872.55742	0.07358
3870.62886	0.07486
3868.70029	0.07554
3866.77173	0.07531
3864.84316	0.07530
3862.91460	0.07540
3860.98604	0.07457
3859.05747	0.07391
3857.12891	0.07482
3855.20034	0.07758
3853.27178	0.08151
3851.34321	0.08264
3849.41465	0.07999
3847.48608	0.07788
3845.55752	0.07737
3843.62896	0.07792
3841.70039	0.07897
3839.77183	0.08077
3837.84326	0.08329
3835.91470	0.08478
3833.98613	0.08472
3832.05757	0.08424
3830.12900	0.08364
3828.20044	0.08326
3826.27187	0.08379
3824.34331	0.08506
3822.41475	0.08707
3820.48618	0.08991
3818.55762	0.09125
3816.62905	0.09133
3814.70049	0.09162
3812.77192	0.09132
3810.84336	0.09100
3808.91479	0.09161
3806.98623	0.09327
3805.05767	0.09499
3803.12910	0.09648
3801.20054	0.09836
3799.27197	0.09929
3797.34341	0.09912
3795.41484	0.09890
3793.48628	0.09861
3791.55771	0.09912
3789.62915	0.10063
3787.70059	0.10253
3785.77202	0.10470
3783.84346	0.10658
3781.91489	0.10785
3779.98633	0.10938
3778.05776	0.11095
3776.12920	0.11164
3774.20063	0.11252
3772.27207	0.11469
3770.34351	0.11793
3768.41494	0.12070
3766.48638	0.12223
3764.55781	0.12395
3762.62925	0.12581
3760.70068	0.12777
3758.77212	0.13057
3756.84355	0.13355
3754.91499	0.13615
3752.98643	0.13978
3751.05786	0.14515
3749.12930	0.14948
3747.20073	0.15140
3745.27217	0.15446
3743.34360	0.15904
3741.41504	0.16198
3739.48647	0.16450
3737.55791	0.16948
3735.62935	0.17807
3733.70078	0.18708
3731.77222	0.19169
3729.84365	0.19467
3727.91509	0.19877
3725.98652	0.20449
3724.05796	0.21099
3722.12939	0.21645
3720.20083	0.22059
3718.27227	0.22432
3716.34370	0.22876
3714.41514	0.23488
3712.48657	0.24490
3710.55801	0.26050
3708.62944	0.27602
3706.70088	0.28731
3704.77231	0.29780
3702.84375	0.31023
3700.91519	0.32598
3698.98662	0.34300
3697.05806	0.35960
3695.12949	0.37747
3693.20093	0.39655
3691.27236	0.41738
3689.34380	0.44375
3687.41523	0.47559
3685.48667	0.50362
3683.55811	0.52814
3681.62954	0.55511
3679.70098	0.58603
3677.77241	0.61864
3675.84385	0.65711
3673.91528	0.70838
3671.98672	0.75023
3670.05815	0.78754
3668.12959	0.83815
3666.20103	0.88432
3664.27246	0.92366
3662.34390	0.96634
3660.41533	1.01250
3658.48677	1.05827
3656.55820	1.10718
3654.62964	1.16101
3652.70107	1.20576
3650.77251	1.24546
3648.84395	1.30181
3646.91538	1.37009
3644.98682	1.41857
3643.05825	1.45585
3641.12969	1.49486
3639.20112	1.53825
3637.27256	1.58281
3635.34399	1.62720
3633.41543	1.67160
3631.48687	1.71322
3629.55830	1.75571
3627.62974	1.81013
3625.70117	1.85918
3623.77261	1.89171
3621.84404	1.92343
3619.91548	1.96015
3617.98691	2.00419
3616.05835	2.04655
3614.12979	2.08177
3612.20122	2.11887
3610.27266	2.15724
3608.34409	2.19731
3606.41553	2.24127
3604.48696	2.28247
3602.55840	2.31828
3600.62983	2.35571
3598.70127	2.39688
3596.77271	2.43740
3594.84414	2.47807
3592.91558	2.52068
3590.98701	2.56019
3589.05845	2.59500
3587.12988	2.63580
3585.20132	2.68211
3583.27275	2.72202
3581.34419	2.75879
3579.41562	2.79915
3577.48706	2.84300
3575.55850	2.88682
3573.62993	2.93090
3571.70137	2.97344
3569.77280	3.01266
3567.84424	3.05310
3565.91567	3.10329
3563.98711	3.15549
3562.05854	3.20017
3560.12998	3.24238
3558.20142	3.28506
3556.27285	3.32858
3554.34429	3.37299
3552.41572	3.42052
3550.48716	3.46852
3548.55859	3.51242
3546.63003	3.55452
3544.70146	3.60062
3542.77290	3.64968
3540.84434	3.69838
3538.91577	3.74870
3536.98721	3.79985
3535.05864	3.84890
3533.13008	3.89327
3531.20151	3.93563
3529.27295	3.98211
3527.34438	4.03522
3525.41582	4.08818
3523.48726	4.13651
3521.55869	4.18362
3519.63013	4.23003
3517.70156	4.27722
3515.77300	4.32733
3513.84443	4.37808
3511.91587	4.42514
3509.98730	4.47120
3508.05874	4.51837
3506.13018	4.56126
3504.20161	4.59982
3502.27305	4.64380
3500.34448	4.69886
3498.41592	4.75243
3496.48735	4.79674
3494.55879	4.84157
3492.63022	4.89383
3490.70166	4.95072
3488.77310	5.00463
3486.84453	5.04688
3484.91597	5.08141
3482.98740	5.12074
3481.05884	5.17131
3479.13027	5.22452
3477.20171	5.26971
3475.27314	5.31355
3473.34458	5.36550
3471.41602	5.42413
3469.48745	5.47873
3467.55889	5.52463
3465.63032	5.57582
3463.70176	5.63917
3461.77319	5.69187
3459.84463	5.72554
3457.91606	5.76676
3455.98750	5.82931
3454.05894	5.89276
3452.13037	5.94370
3450.20181	5.98888
3448.27324	6.02632
3446.34468	6.06317
3444.41611	6.10386
3442.48755	6.14673
3440.55898	6.19985
3438.63042	6.25964
3436.70186	6.31476
3434.77329	6.35934
3432.84473	6.38819
3430.91616	6.41483
3428.98760	6.47717
3427.05903	6.57431
3425.13047	6.65276
3423.20190	6.68865
3421.27334	6.72101
3419.34478	6.76799
3417.41621	6.82012
3415.48765	6.86174
3413.55908	6.88409
3411.63052	6.91450
3409.70195	6.96464
3407.77339	7.03015
3405.84482	7.07564
3403.91626	7.09119
3401.98770	7.12242
3400.05913	7.16313
3398.13057	7.18941
3396.20200	7.23574
3394.27344	7.30654
3392.34487	7.34303
3390.41631	7.34382
3388.48774	7.34043
3386.55918	7.36699
3384.63062	7.41659
3382.70205	7.44264
3380.77349	7.45486
3378.84492	7.47882
3376.91636	7.52227
3374.98779	7.62188
3373.05923	7.76067
3371.13066	7.78197
3369.20210	7.70604
3367.27354	7.67214
3365.34497	7.72151
3363.41641	7.84619
3361.48784	7.89784
3359.55928	7.81548
3357.63071	7.74185
3355.70215	7.73212
3353.77358	7.77198
3351.84502	7.84502
3349.91646	7.89666
3347.98789	7.92946
3346.05933	7.96197
3344.13076	8.00237
3342.20220	8.05620
3340.27363	8.08627
3338.34507	8.13612
3336.41650	8.19281
3334.48794	8.15459
3332.55937	8.05924
3330.63081	7.99791
3328.70225	7.94758
3326.77368	7.90475
3324.84512	7.94022
3322.91655	8.04846
3320.98799	8.15102
3319.05942	8.20769
3317.13086	8.18190
3315.20229	8.05894
3313.27373	7.99941
3311.34517	8.04960
3309.41660	8.09216
3307.48804	8.08611
3305.55947	8.04719
3303.63091	8.01941
3301.70234	8.04483
3299.77378	8.10874
3297.84521	8.15314
3295.91665	8.17731
3293.98809	8.14993
3292.05952	8.08120
3290.13096	8.06214
3288.20239	8.05792
3286.27383	8.08855
3284.34526	8.18089
3282.41670	8.17663
3280.48813	8.08750
3278.55957	8.08314
3276.63101	8.13223
3274.70244	8.16663
3272.77388	8.17668
3270.84531	8.12731
3268.91675	8.06951
3266.98818	8.12333
3265.05962	8.26340
3263.13105	8.26365
3261.20249	8.11959
3259.27393	8.02422
3257.34536	8.03118
3255.41680	8.09376
3253.48823	8.16280
3251.55967	8.18414
3249.63110	8.15004
3247.70254	8.14302
3245.77397	8.12879
3243.84541	8.03922
3241.91685	7.95883
3239.98828	7.99161
3238.05972	8.10347
3236.13115	8.14308
3234.20259	8.08867
3232.27402	8.05589
3230.34546	8.08160
3228.41689	8.14477
3226.48833	8.19383
3224.55977	8.13645
3222.63120	8.02614
3220.70264	7.97188
3218.77407	7.94438
3216.84551	7.88867
3214.91694	7.86355
3212.98838	7.91012
3211.05981	7.91812
3209.13125	7.81345
3207.20269	7.70456
3205.27412	7.68617
3203.34556	7.70990
3201.41699	7.69227
3199.48843	7.67711
3197.55986	7.67968
3195.63130	7.58610
3193.70273	7.45005
3191.77417	7.40928
3189.84561	7.41572
3187.91704	7.38412
3185.98848	7.34081
3184.05991	7.29830
3182.13135	7.24291
3180.20278	7.22044
3178.27422	7.22348
3176.34565	7.19229
3174.41709	7.14763
3172.48853	7.11237
3170.55996	7.06936
3168.63140	7.00581
3166.70283	6.94152
3164.77427	6.90280
3162.84570	6.85893
3160.91714	6.78115
3158.98857	6.68301
3157.06001	6.59841
3155.13145	6.55518
3153.20288	6.51983
3151.27432	6.44330
3149.34575	6.34465
3147.41719	6.26748
3145.48862	6.20892
3143.56006	6.13871
3141.63149	6.05248
3139.70293	5.96967
3137.77437	5.90788
3135.84580	5.86376
3133.91724	5.81350
3131.98867	5.74881
3130.06011	5.68177
3128.13154	5.60805
3126.20298	5.52499
3124.27441	5.44828
3122.34585	5.38322
3120.41729	5.32323
3118.48872	5.25868
3116.56016	5.18717
3114.63159	5.11311
3112.70303	5.03617
3110.77446	4.96082
3108.84590	4.89532
3106.91733	4.83448
3104.98877	4.76842
3103.06021	4.69784
3101.13164	4.62604
3099.20308	4.55688
3097.27451	4.49260
3095.34595	4.42930
3093.41738	4.36274
3091.48882	4.29375
3089.56025	4.22797
3087.63169	4.16733
3085.70312	4.10820
3083.77456	4.04894
3081.84600	3.99030
3079.91743	3.93050
3077.98887	3.86896
3076.06030	3.80951
3074.13174	3.75339
3072.20317	3.69728
3070.27461	3.63915
3068.34604	3.57979
3066.41748	3.52161
3064.48892	3.46704
3062.56035	3.41327
3060.63179	3.35702
3058.70322	3.30175
3056.77466	3.24995
3054.84609	3.19819
3052.91753	3.14456
3050.98896	3.09132
3049.06040	3.03989
3047.13184	2.99007
3045.20327	2.94056
3043.27471	2.89021
3041.34614	2.84043
3039.41758	2.79269
3037.48901	2.74618
3035.56045	2.70024
3033.63188	2.65499
3031.70332	2.60980
3029.77476	2.56485
3027.84619	2.52136
3025.91763	2.47827
3023.98906	2.43437
3022.06050	2.39122
3020.13193	2.34999
3018.20337	2.30954
3016.27480	2.26869
3014.34624	2.22825
3012.41768	2.18926
3010.48911	2.15109
3008.56055	2.11333
3006.63198	2.07641
3004.70342	2.04018
3002.77485	2.00429
3000.84629	1.96938
2998.91772	1.93575
2996.98916	1.90315
2995.06060	1.87148
2993.13203	1.84052
2991.20347	1.81037
2989.27490	1.78048
2987.34634	1.75042
2985.41777	1.72139
2983.48921	1.69398
2981.56064	1.66737
2979.63208	1.64092
2977.70352	1.61467
2975.77495	1.58933
2973.84639	1.56508
2971.91782	1.54120
2969.98926	1.51769
2968.06069	1.49492
2966.13213	1.47203
2964.20356	1.44845
2962.27500	1.42487
2960.34644	1.40140
2958.41787	1.37768
2956.48931	1.35398
2954.56074	1.33046
2952.63218	1.30719
2950.70361	1.28442
2948.77505	1.26230
2946.84648	1.24041
2944.91792	1.21850
2942.98936	1.19737
2941.06079	1.17792
2939.13223	1.15944
2937.20366	1.14035
2935.27510	1.12058
2933.34653	1.10138
2931.41797	1.08281
2929.48940	1.06362
2927.56084	1.04362
2925.63228	1.02412
2923.70371	1.00596
2921.77515	0.98806
2919.84658	0.96984
2917.91802	0.95206
2915.98945	0.93461
2914.06089	0.91733
2912.13232	0.90039
2910.20376	0.88383
2908.27520	0.86791
2906.34663	0.85267
2904.41807	0.83770
2902.48950	0.82267
2900.56094	0.80791
2898.63237	0.79373
2896.70381	0.78005
2894.77524	0.76707
2892.84668	0.75501
2890.91812	0.74329
2888.98955	0.73148
2887.06099	0.72004
2885.13242	0.70940
2883.20386	0.69941
2881.27529	0.68974
2879.34673	0.68022
2877.41816	0.67080
2875.48960	0.66115
2873.56104	0.65072
2871.63247	0.63956
2869.70391	0.62820
2867.77534	0.61679
2865.84678	0.60513
2863.91821	0.59314
2861.98965	0.58132
2860.06108	0.57038
2858.13252	0.56027
2856.20396	0.55062
2854.27539	0.54120
2852.34683	0.53188
2850.41826	0.52266
2848.48970	0.51365
2846.56113	0.50504
2844.63257	0.49709
2842.70400	0.48963
2840.77544	0.48230
2838.84687	0.47515
2836.91831	0.46829
2834.98975	0.46174
2833.06118	0.45554
2831.13262	0.44937
2829.20405	0.44302
2827.27549	0.43674
2825.34692	0.43058
2823.41836	0.42428
2821.48979	0.41789
2819.56123	0.41186
2817.63267	0.40617
2815.70410	0.40041
2813.77554	0.39458
2811.84697	0.38891
2809.91841	0.38344
2807.98984	0.37813
2806.06128	0.37289
2804.13271	0.36762
2802.20415	0.36223
2800.27559	0.35697
2798.34702	0.35190
2796.41846	0.34678
2794.48989	0.34186
2792.56133	0.33741
2790.63276	0.33300
2788.70420	0.32843
2786.77563	0.32390
2784.84707	0.31952
2782.91851	0.31514
2780.98994	0.31075
2779.06138	0.30659
2777.13281	0.30264
2775.20425	0.29880
2773.27568	0.29502
2771.34712	0.29119
2769.41855	0.28736
2767.48999	0.28363
2765.56143	0.28007
2763.63286	0.27672
2761.70430	0.27351
2759.77573	0.27019
2757.84717	0.26677
2755.91860	0.26347
2753.99004	0.26028
2752.06147	0.25711
2750.13291	0.25396
2748.20435	0.25092
2746.27578	0.24815
2744.34722	0.24553
2742.41865	0.24275
2740.49009	0.23988
2738.56152	0.23718
2736.63296	0.23467
2734.70439	0.23225
2732.77583	0.22975
2730.84727	0.22731
2728.91870	0.22496
2726.99014	0.22268
2725.06157	0.22054
2723.13301	0.21843
2721.20444	0.21627
2719.27588	0.21410
2717.34731	0.21198
2715.41875	0.20995
2713.49019	0.20793
2711.56162	0.20592
2709.63306	0.20410
2707.70449	0.20243
2705.77593	0.20077
2703.84736	0.19914
2701.91880	0.19755
2699.99023	0.19599
2698.06167	0.19451
2696.13311	0.19310
2694.20454	0.19170
2692.27598	0.19031
2690.34741	0.18897
2688.41885	0.18762
2686.49028	0.18620
2684.56172	0.18481
2682.63315	0.18351
2680.70459	0.18228
2678.77603	0.18103
2676.84746	0.17982
2674.91890	0.17882
2672.99033	0.17788
2671.06177	0.17673
2669.13320	0.17551
2667.20464	0.17447
2665.27607	0.17354
2663.34751	0.17257
2661.41895	0.17157
2659.49038	0.17061
2657.56182	0.16979
2655.63325	0.16907
2653.70469	0.16836
2651.77612	0.16761
2649.84756	0.16689
2647.91899	0.16631
2645.99043	0.16585
2644.06187	0.16524
2642.13330	0.16443
2640.20474	0.16368
2638.27617	0.16313
2636.34761	0.16264
2634.41904	0.16203
2632.49048	0.16136
2630.56191	0.16092
2628.63335	0.16065
2626.70479	0.16030
2624.77622	0.15988
2622.84766	0.15949
2620.91909	0.15912
2618.99053	0.15879
2617.06196	0.15847
2615.13340	0.15829
2613.20483	0.15821
2611.27627	0.15799
2609.34771	0.15763
2607.41914	0.15737
2605.49058	0.15734
2603.56201	0.15730
2601.63345	0.15720
2599.70488	0.15718
2597.77632	0.15723
2595.84775	0.15730
2593.91919	0.15741
2591.99062	0.15758
2590.06206	0.15771
2588.13350	0.15770
2586.20493	0.15764
2584.27637	0.15768
2582.34780	0.15786
2580.41924	0.15814
2578.49067	0.15840
2576.56211	0.15863
2574.63354	0.15890
2572.70498	0.15911
2570.77642	0.15926
2568.84785	0.15949
2566.91929	0.15984
2564.99072	0.16028
2563.06216	0.16073
2561.13359	0.16104
2559.20503	0.16125
2557.27646	0.16151
2555.34790	0.16193
2553.41934	0.16252
2551.49077	0.16318
2549.56221	0.16382
2547.63364	0.16431
2545.70508	0.16473
2543.77651	0.16533
2541.84795	0.16605
2539.91938	0.16669
2537.99082	0.16727
2536.06226	0.16785
2534.13369	0.16848
2532.20513	0.16916
2530.27656	0.16984
2528.34800	0.17057
2526.41943	0.17121
2524.49087	0.17173
2522.56230	0.17243
2520.63374	0.17321
2518.70518	0.17387
2516.77661	0.17446
2514.84805	0.17503
2512.91948	0.17567
2510.99092	0.17647
2509.06235	0.17728
2507.13379	0.17810
2505.20522	0.17901
2503.27666	0.17985
2501.34810	0.18055
2499.41953	0.18133
2497.49097	0.18219
2495.56240	0.18284
2493.63384	0.18338
2491.70527	0.18412
2489.77671	0.18508
2487.84814	0.18614
2485.91958	0.18720
2483.99102	0.18810
2482.06245	0.18888
2480.13389	0.18958
2478.20532	0.19025
2476.27676	0.19098
2474.34819	0.19178
2472.41963	0.19258
2470.49106	0.19346
2468.56250	0.19443
2466.63394	0.19541
2464.70537	0.19633
2462.77681	0.19726
2460.84824	0.19823
2458.91968	0.19913
2456.99111	0.19996
2455.06255	0.20090
2453.13398	0.20194
2451.20542	0.20287
2449.27686	0.20359
2447.34829	0.20422
2445.41973	0.20507
2443.49116	0.20614
2441.56260	0.20721
2439.63403	0.20832
2437.70547	0.20938
2435.77690	0.21020
2433.84834	0.21098
2431.91978	0.21194
2429.99121	0.21295
2428.06265	0.21396
2426.13408	0.21512
2424.20552	0.21631
2422.27695	0.21741
2420.34839	0.21841
2418.41982	0.21933
2416.49126	0.22035
2414.56270	0.22151
2412.63413	0.22271
2410.70557	0.22382
2408.77700	0.22494
2406.84844	0.22612
2404.91987	0.22738
2402.99131	0.22859
2401.06274	0.22970
2399.13418	0.23090
2397.20562	0.23221
2395.27705	0.23338
2393.34849	0.23455
2391.41992	0.23588
2389.49136	0.23752
2387.56279	0.23992
2385.63423	0.24368
2383.70566	0.24940
2381.77710	0.25731
2379.84854	0.26701
2377.91997	0.27820
2375.99141	0.29118
2374.06284	0.30651
2372.13428	0.32404
2370.20571	0.34326
2368.27715	0.36317
2366.34858	0.38157
2364.42002	0.39681
2362.49146	0.40883
2360.56289	0.41651
2358.63433	0.41715
2356.70576	0.40938
2354.77720	0.39517
2352.84863	0.37687
2350.92007	0.35797
2348.99150	0.34646
2347.06294	0.34683
2345.13437	0.35967
2343.20581	0.37809
2341.27725	0.38808
2339.34868	0.38873
2337.42012	0.38710
2335.49155	0.38554
2333.56299	0.38373
2331.63442	0.38255
2329.70586	0.38174
2327.77729	0.37974
2325.84873	0.37574
2323.92017	0.37048
2321.99160	0.36454
2320.06304	0.35803
2318.13447	0.35172
2316.20591	0.34632
2314.27734	0.34251
2312.34878	0.34049
2310.42021	0.33916
2308.49165	0.33703
2306.56309	0.33397
2304.63452	0.33119
2302.70596	0.32974
2300.77739	0.32920
2298.84883	0.32871
2296.92026	0.32830
2294.99170	0.32815
2293.06313	0.32803
2291.13457	0.32781
2289.20601	0.32772
2287.27744	0.32772
2285.34888	0.32784
2283.42031	0.32853
2281.49175	0.33009
2279.56318	0.33242
2277.63462	0.33509
2275.70605	0.33758
2273.77749	0.33985
2271.84893	0.34205
2269.92036	0.34410
2267.99180	0.34602
2266.06323	0.34800
2264.13467	0.34995
2262.20610	0.35176
2260.27754	0.35354
2258.34897	0.35529
2256.42041	0.35702
2254.49185	0.35888
2252.56328	0.36073
2250.63472	0.36240
2248.70615	0.36402
2246.77759	0.36573
2244.84902	0.36764
2242.92046	0.36971
2240.99189	0.37193
2239.06333	0.37422
2237.13477	0.37638
2235.20620	0.37839
2233.27764	0.38050
2231.34907	0.38281
2229.42051	0.38518
2227.49194	0.38749
2225.56338	0.38964
2223.63481	0.39172
2221.70625	0.39376
2219.77769	0.39579
2217.84912	0.39797
2215.92056	0.40030
2213.99199	0.40257
2212.06343	0.40476
2210.13486	0.40688
2208.20630	0.40895
2206.27773	0.41102
2204.34917	0.41313
2202.42061	0.41531
2200.49204	0.41745
2198.56348	0.41948
2196.63491	0.42134
2194.70635	0.42311
2192.77778	0.42495
2190.84922	0.42679
2188.92065	0.42853
2186.99209	0.43034
2185.06353	0.43229
2183.13496	0.43416
2181.20640	0.43574
2179.27783	0.43714
2177.34927	0.43863
2175.42070	0.44020
2173.49214	0.44168
2171.56357	0.44304
2169.63501	0.44440
2167.70645	0.44577
2165.77788	0.44711
2163.84932	0.44839
2161.92075	0.44952
2159.99219	0.45048
2158.06362	0.45142
2156.13506	0.45231
2154.20649	0.45300
2152.27793	0.45368
2150.34937	0.45443
2148.42080	0.45515
2146.49224	0.45584
2144.56367	0.45636
2142.63511	0.45669
2140.70654	0.45703
2138.77798	0.45728
2136.84941	0.45733
2134.92085	0.45739
2132.99229	0.45741
2131.06372	0.45721
2129.13516	0.45683
2127.20659	0.45640
2125.27803	0.45606
2123.34946	0.45574
2121.42090	0.45530
2119.49233	0.45470
2117.56377	0.45397
2115.63521	0.45316
2113.70664	0.45229
2111.77808	0.45134
2109.84951	0.45034
2107.92095	0.44936
2105.99238	0.44829
2104.06382	0.44701
2102.13525	0.44561
2100.20669	0.44417
2098.27812	0.44264
2096.34956	0.44112
2094.42100	0.43966
2092.49243	0.43816
2090.56387	0.43646
2088.63530	0.43458
2086.70674	0.43271
2084.77817	0.43078
2082.84961	0.42883
2080.92104	0.42687
2078.99248	0.42477
2077.06392	0.42260
2075.13535	0.42041
2073.20679	0.41820
2071.27822	0.41604
2069.34966	0.41390
2067.42109	0.41155
2065.49253	0.40902
2063.56396	0.40642
2061.63540	0.40392
2059.70684	0.40157
2057.77827	0.39920
2055.84971	0.39654
2053.92114	0.39367
2051.99258	0.39100
2050.06401	0.38852
2048.13545	0.38597
2046.20688	0.38331
2044.27832	0.38071
2042.34976	0.37805
2040.42119	0.37522
2038.49263	0.37236
2036.56406	0.36958
2034.63550	0.36684
2032.70693	0.36414
2030.77837	0.36148
2028.84980	0.35879
2026.92124	0.35603
2024.99268	0.35321
2023.06411	0.35045
2021.13555	0.34778
2019.20698	0.34514
2017.27842	0.34243
2015.34985	0.33953
2013.42129	0.33656
2011.49272	0.33368
2009.56416	0.33099
2007.63560	0.32845
2005.70703	0.32588
2003.77847	0.32319
2001.84990	0.32049
1999.92134	0.31790
1997.99277	0.31540
1996.06421	0.31291
1994.13564	0.31051
1992.20708	0.30813
1990.27852	0.30558
1988.34995	0.30296
1986.42139	0.30040
1984.49282	0.29795
1982.56426	0.29563
1980.63569	0.29341
1978.70713	0.29129
1976.77856	0.28915
1974.85000	0.28689
1972.92144	0.28460
1970.99287	0.28254
1969.06431	0.28079
1967.13574	0.27900
1965.20718	0.27679
1963.27861	0.27456
1961.35005	0.27266
1959.42148	0.27090
1957.49292	0.26917
1955.56436	0.26741
1953.63579	0.26555
1951.70723	0.26374
1949.77866	0.26217
1947.85010	0.26079
1945.92153	0.25952
1943.99297	0.25831
1942.06440	0.25690
1940.13584	0.25521
1938.20728	0.25359
1936.27871	0.25217
1934.35015	0.25090
1932.42158	0.24977
1930.49302	0.24863
1928.56445	0.24745
1926.63589	0.24634
1924.70732	0.24545
1922.77876	0.24468
1920.85020	0.24382
1918.92163	0.24301
1916.99307	0.24212
1915.06450	0.24106
1913.13594	0.24015
1911.20737	0.23958
1909.27881	0.23906
1907.35024	0.23832
1905.42168	0.23744
1903.49312	0.23673
1901.56455	0.23626
1899.63599	0.23589
1897.70742	0.23557
1895.77886	0.23528
1893.85029	0.23498
1891.92173	0.23466
1889.99316	0.23448
1888.06460	0.23420
1886.13604	0.23386
1884.20747	0.23369
1882.27891	0.23357
1880.35034	0.23346
1878.42178	0.23337
1876.49321	0.23330
1874.56465	0.23331
1872.63608	0.23352
1870.70752	0.23403
1868.77896	0.23484
1866.85039	0.23512
1864.92183	0.23474
1862.99326	0.23450
1861.06470	0.23466
1859.13613	0.23509
1857.20757	0.23549
1855.27900	0.23589
1853.35044	0.23634
1851.42187	0.23691
1849.49331	0.23756
1847.56475	0.23836
1845.63618	0.23938
1843.70762	0.24048
1841.77905	0.24108
1839.85049	0.24138
1837.92192	0.24212
1835.99336	0.24306
1834.06479	0.24400
1832.13623	0.24514
1830.20767	0.24683
1828.27910	0.24840
1826.35054	0.24933
1824.42197	0.25035
1822.49341	0.25136
1820.56484	0.25248
1818.63628	0.25388
1816.70771	0.25550
1814.77915	0.25715
1812.85059	0.25916
1810.92202	0.26154
1808.99346	0.26358
1807.06489	0.26531
1805.13633	0.26721
1803.20776	0.26962
1801.27920	0.27232
1799.35063	0.27507
1797.42207	0.27744
1795.49351	0.27983
1793.56494	0.28272
1791.63638	0.28631
1789.70781	0.28953
1787.77925	0.29195
1785.85068	0.29508
1783.92212	0.29885
1781.99355	0.30277
1780.06499	0.30691
1778.13643	0.31128
1776.20786	0.31554
1774.27930	0.32024
1772.35073	0.32625
1770.42217	0.33225
1768.49360	0.33716
1766.56504	0.34205
1764.63647	0.34729
1762.70791	0.35322
1760.77935	0.36057
1758.85078	0.36743
1756.92222	0.37453
1754.99365	0.38243
1753.06509	0.38969
1751.13652	0.39823
1749.20796	0.40884
1747.27939	0.41937
1745.35083	0.42859
1743.42227	0.43820
1741.49370	0.44882
1739.56514	0.46138
1737.63657	0.47387
1735.70801	0.48495
1733.77944	0.50154
1731.85088	0.52076
1729.92231	0.53567
1727.99375	0.55084
1726.06519	0.56734
1724.13662	0.58561
1722.20806	0.60552
1720.27949	0.62423
1718.35093	0.64625
1716.42236	0.67807
1714.49380	0.70783
1712.56523	0.73202
1710.63667	0.75589
1708.70811	0.78182
1706.77954	0.81117
1704.85098	0.84626
1702.92241	0.87788
1700.99385	0.90946
1699.06528	0.95665
1697.13672	1.00046
1695.20815	1.04543
1693.27959	1.08925
1691.35103	1.12509
1689.42246	1.16672
1687.49390	1.21097
1685.56533	1.25433
1683.63677	1.32108
1681.70820	1.38965
1679.77964	1.43346
1677.85107	1.47535
1675.92251	1.52376
1673.99395	1.58417
1672.06538	1.63900
1670.13682	1.69317
1668.20825	1.76274
1666.27969	1.81981
1664.35112	1.86914
1662.42256	1.93290
1660.49399	2.00731
1658.56543	2.06641
1656.63687	2.11218
1654.70830	2.14940
1652.77974	2.20472
1650.85117	2.26263
1648.92261	2.28394
1646.99404	2.30641
1645.06548	2.33154
1643.13691	2.34870
1641.20835	2.35575
1639.27979	2.36046
1637.35122	2.36191
1635.42266	2.35778
1633.49409	2.34777
1631.56553	2.33166
1629.63696	2.31052
1627.70840	2.27772
1625.77983	2.24113
1623.85127	2.19576
1621.92271	2.14063
1619.99414	2.09208
1618.06558	2.04465
1616.13701	1.97788
1614.20845	1.91151
1612.27988	1.86112
1610.35132	1.80756
1608.42275	1.74953
1606.49419	1.69442
1604.56562	1.64475
1602.63706	1.59572
1600.70850	1.54734
1598.77993	1.50355
1596.85137	1.46310
1594.92280	1.42404
1592.99424	1.38641
1591.06567	1.35213
1589.13711	1.32074
1587.20854	1.29229
1585.27998	1.26600
1583.35142	1.24135
1581.42285	1.21965
1579.49429	1.20220
1577.56572	1.18712
1575.63716	1.16887
1573.70859	1.15321
1571.78003	1.14401
1569.85146	1.13590
1567.92290	1.12726
1565.99434	1.12123
1564.06577	1.11814
1562.13721	1.11695
1560.20864	1.11854
1558.28008	1.12697
1556.35151	1.13560
1554.42295	1.14034
1552.49438	1.14482
1550.56582	1.14687
1548.63726	1.14518
1546.70869	1.14014
1544.78013	1.13213
1542.85156	1.12111
1540.92300	1.10263
1538.99443	1.06938
1537.06587	1.04381
1535.13730	1.02683
1533.20874	1.00443
1531.28018	0.98015
1529.35161	0.96265
1527.42305	0.94677
1525.49448	0.93050
1523.56592	0.91659
1521.63735	0.90342
1519.70879	0.89010
1517.78022	0.87875
1515.85166	0.86555
1513.92310	0.85165
1511.99453	0.83963
1510.06597	0.82878
1508.13740	0.81812
1506.20884	0.80111
1504.28027	0.78568
1502.35171	0.77713
1500.42314	0.77023
1498.49458	0.76324
1496.56602	0.75473
1494.63745	0.74572
1492.70889	0.73882
1490.78032	0.73322
1488.85176	0.72691
1486.92319	0.72068
1484.99463	0.71579
1483.06606	0.71221
1481.13750	0.70957
1479.20894	0.70784
1477.28037	0.70728
1475.35181	0.70779
1473.42324	0.70901
1471.49468	0.70948
1469.56611	0.70811
1467.63755	0.70633
1465.70898	0.70524
1463.78042	0.70464
1461.85186	0.70441
1459.92329	0.70510
1457.99473	0.70652
1456.06616	0.70661
1454.13760	0.70424
1452.20903	0.70159
1450.28047	0.69914
1448.35190	0.69656
1446.42334	0.69334
1444.49478	0.68998
1442.56621	0.68694
1440.63765	0.68409
1438.70908	0.68130
1436.78052	0.67768
1434.85195	0.67329
1432.92339	0.66989
1430.99482	0.66774
1429.06626	0.66654
1427.13770	0.66621
1425.20913	0.66684
1423.28057	0.66824
1421.35200	0.66970
1419.42344	0.67104
1417.49487	0.67144
1415.56631	0.67036
1413.63774	0.66940
1411.70918	0.66946
1409.78062	0.67060
1407.85205	0.67241
1405.92349	0.67462
1403.99492	0.67660
1402.06636	0.67746
1400.13779	0.67729
1398.20923	0.67605
1396.28066	0.67345
1394.35210	0.66925
1392.42354	0.66400
1390.49497	0.65898
1388.56641	0.65407
1386.63784	0.64847
1384.70928	0.64259
1382.78071	0.63708
1380.85215	0.63198
1378.92358	0.62767
1376.99502	0.62460
1375.06646	0.62261
1373.13789	0.62113
1371.20933	0.62006
1369.28076	0.61927
1367.35220	0.61811
1365.42363	0.61663
1363.49507	0.61527
1361.56650	0.61372
1359.63794	0.61178
1357.70937	0.60996
1355.78081	0.60844
1353.85225	0.60716
1351.92368	0.60621
1349.99512	0.60558
1348.06655	0.60484
1346.13799	0.60382
1344.20942	0.60280
1342.28086	0.60199
1340.35229	0.60156
1338.42373	0.60128
1336.49517	0.60057
1334.56660	0.59969
1332.63804	0.59925
1330.70947	0.59949
1328.78091	0.60024
1326.85234	0.60123
1324.92378	0.60229
1322.99521	0.60346
1321.06665	0.60463
1319.13809	0.60561
1317.20952	0.60624
1315.28096	0.60645
1313.35239	0.60629
1311.42383	0.60581
1309.49526	0.60512
1307.56670	0.60441
1305.63813	0.60390
1303.70957	0.60339
1301.78101	0.60264
1299.85244	0.60166
1297.92388	0.60048
1295.99531	0.59919
1294.06675	0.59794
1292.13818	0.59670
1290.20962	0.59534
1288.28105	0.59384
1286.35249	0.59230
1284.42393	0.59078
1282.49536	0.58920
1280.56680	0.58752
1278.63823	0.58581
1276.70967	0.58426
1274.78110	0.58308
1272.85254	0.58222
1270.92397	0.58136
1268.99541	0.58042
1267.06685	0.57956
1265.13828	0.57871
1263.20972	0.57778
1261.28115	0.57691
1259.35259	0.57607
1257.42402	0.57521
1255.49546	0.57457
1253.56689	0.57425
1251.63833	0.57416
1249.70977	0.57421
1247.78120	0.57423
1245.85264	0.57396
1243.92407	0.57323
1241.99551	0.57213
1240.06694	0.57069
1238.13838	0.56866
1236.20981	0.56614
1234.28125	0.56360
1232.35269	0.56106
1230.42412	0.55834
1228.49556	0.55578
1226.56699	0.55355
1224.63843	0.55142
1222.70986	0.54934
1220.78130	0.54743
1218.85273	0.54572
1216.92417	0.54420
1214.99561	0.54282
1213.06704	0.54161
1211.13848	0.54077
1209.20991	0.54025
1207.28135	0.53976
1205.35278	0.53902
1203.42422	0.53810
1201.49565	0.53715
1199.56709	0.53604
1197.63853	0.53477
1195.70996	0.53361
1193.78140	0.53272
1191.85283	0.53202
1189.92427	0.53162
1187.99570	0.53145
1186.06714	0.53125
1184.13857	0.53112
1182.21001	0.53141
1180.28145	0.53226
1178.35288	0.53369
1176.42432	0.53553
1174.49575	0.53725
1172.56719	0.53837
1170.63862	0.53882
1168.71006	0.53892
1166.78149	0.53917
1164.85293	0.53952
1162.92437	0.53967
1160.99580	0.53975
1159.06724	0.53990
1157.13867	0.53988
1155.21011	0.53939
1153.28154	0.53828
1151.35298	0.53658
1149.42441	0.53433
1147.49585	0.53150
1145.56729	0.52849
1143.63872	0.52578
1141.71016	0.52342
1139.78159	0.52154
1137.85303	0.52042
1135.92446	0.52001
1133.99590	0.52002
1132.06733	0.52020
1130.13877	0.52045
1128.21021	0.52066
1126.28164	0.52056
1124.35308	0.52015
1122.42451	0.51988
1120.49595	0.52003
1118.56738	0.52045
1116.63882	0.52100
1114.71025	0.52163
1112.78169	0.52238
1110.85312	0.52323
1108.92456	0.52417
1106.99600	0.52524
1105.06743	0.52630
1103.13887	0.52702
1101.21030	0.52767
1099.28174	0.52878
1097.35317	0.53055
1095.42461	0.53309
1093.49604	0.53669
1091.56748	0.54166
1089.63892	0.54818
1087.71035	0.55602
1085.78179	0.56461
1083.85322	0.57322
1081.92466	0.58086
1079.99609	0.58637
1078.06753	0.58894
1076.13896	0.58831
1074.21040	0.58470
1072.28184	0.57903
1070.35327	0.57227
1068.42471	0.56481
1066.49614	0.55729
1064.56758	0.55044
1062.63901	0.54450
1060.71045	0.53965
1058.78188	0.53582
1056.85332	0.53246
1054.92476	0.52910
1052.99619	0.52579
1051.06763	0.52312
1049.13906	0.52150
1047.21050	0.52056
1045.28193	0.51998
1043.35337	0.51995
1041.42480	0.52038
1039.49624	0.52070
1037.56768	0.52075
1035.63911	0.52064
1033.71055	0.51997
1031.78198	0.51841
1029.85342	0.51645
1027.92485	0.51456
1025.99629	0.51269
1024.06772	0.51092
1022.13916	0.50946
1020.21060	0.50846
1018.28203	0.50794
1016.35347	0.50765
1014.42490	0.50724
1012.49634	0.50671
1010.56777	0.50621
1008.63921	0.50582
1006.71064	0.50572
1004.78208	0.50622
1002.85352	0.50747
1000.92495	0.50958
998.99639	0.51265
997.06782	0.51680
995.13926	0.52160
993.21069	0.52600
991.28213	0.52932
989.35356	0.53142
987.42500	0.53221
985.49644	0.53189
983.56787	0.53134
981.63931	0.53139
979.71074	0.53199
977.78218	0.53296
975.85361	0.53450
973.92505	0.53670
971.99648	0.53938
970.06792	0.54245
968.13936	0.54608
966.21079	0.55026
964.28223	0.55458
962.35366	0.55900
960.42510	0.56408
958.49653	0.56984
956.56797	0.57574
954.63940	0.58148
952.71084	0.58714
950.78228	0.59310
948.85371	0.59942
946.92515	0.60573
944.99658	0.61197
943.06802	0.61805
941.13945	0.62422
939.21089	0.63094
937.28232	0.63774
935.35376	0.64386
933.42520	0.64927
931.49663	0.65429
929.56807	0.65951
927.63950	0.66530
925.71094	0.67133
923.78237	0.67767
921.85381	0.68463
919.92524	0.69185
917.99668	0.69887
916.06812	0.70607
914.13955	0.71398
912.21099	0.72188
910.28242	0.72904
908.35386	0.73631
906.42529	0.74496
904.49673	0.75479
902.56816	0.76408
900.63960	0.77286
898.71104	0.78243
896.78247	0.79220
894.85391	0.80167
892.92534	0.81161
890.99678	0.82242
889.06821	0.83360
887.13965	0.84420
885.21108	0.85452
883.28252	0.86506
881.35396	0.87603
879.42539	0.88960
877.49683	0.90479
875.56826	0.91685
873.63970	0.92656
871.71113	0.93722
869.78257	0.94757
867.85400	0.95692
865.92544	0.96671
863.99687	0.97775
862.06831	0.99023
860.13975	1.00272
858.21118	1.01444
856.28262	1.02617
854.35405	1.03724
852.42549	1.04707
850.49692	1.05770
848.56836	1.07011
846.63979	1.08211
844.71123	1.09214
842.78267	1.10151
840.85410	1.11255
838.92554	1.12531
836.99697	1.13798
835.06841	1.14854
833.13984	1.15797
831.21128	1.16932
829.28271	1.17989
827.35415	1.18614
825.42559	1.19075
823.49702	1.19898
821.56846	1.21527
819.63989	1.23774
817.71133	1.25577
815.78276	1.26516
813.85420	1.27400
811.92563	1.28362
809.99707	1.28590
808.06851	1.28464
806.13994	1.29101
804.21138	1.29521
802.28281	1.28630
800.35425	1.27442
798.42568	1.27375
796.49712	1.28117
794.56855	1.28585
792.63999	1.29767
790.71143	1.29941
788.78286	1.26807
786.85430	1.25462
784.92573	1.28178
782.99717	1.28055
781.06860	1.23048
779.14004	1.19925
777.21147	1.20767
775.28291	1.21992
773.35435	1.18885
771.42578	1.15238
769.49722	1.16904
767.56865	1.21741
765.64009	1.23503
763.71152	1.21372
761.78296	1.19605
759.85439	1.19197
757.92583	1.16214
755.99727	1.09217
754.06870	1.03174
752.14014	1.00615
750.21157	0.99339
748.28301	1.00724
746.35444	1.05827
744.42588	1.09709
742.49731	1.08081
740.56875	0.96144
738.64019	0.84923
736.71162	0.78629
734.78306	0.67032
732.85449	0.55023
730.92593	0.50082
728.99736	0.48130
727.06880	0.43973
725.14023	0.38137
723.21167	0.32812
721.28311	0.31663
719.35454	0.34633
717.42598	0.32979
715.49741	0.25891
713.56885	0.21203
711.64028	0.17607
709.71172	0.10927
707.78315	0.06920
705.85459	0.07052
703.92603	0.09291
701.99746	0.17324
700.06890	0.28637
698.14033	0.27311
696.21177	0.14140
694.28320	0.10203
692.35464	0.14134
690.42607	0.15188
688.49751	0.16401
686.56895	0.19504
684.64038	0.18757
682.71182	0.17055
680.78325	0.11094
678.85469	0.06567
676.92612	0.12235
674.99756	0.18590
673.06899	0.16795
671.14043	0.18185
669.21187	0.21690
667.28330	0.17871
665.35474	0.13511
663.42617	0.13844
661.49761	0.17452
659.56904	0.14266
657.64048	0.09703
655.71191	0.15175
653.78335	0.22245
651.85479	0.22796
649.92622	0.25895
647.99766	0.29457
646.06909	0.28240
644.14053	0.21306
642.21196	0.14916
640.28340	0.13604
638.35483	0.17297
636.42627	0.21615
634.49771	0.19471
632.56914	0.16369
630.64058	0.21235
628.71201	0.25214
626.78345	0.23411
624.85488	0.21353
622.92632	0.24014
620.99775	0.26958
619.06919	0.26208
617.14062	0.19134
615.21206	0.07197
613.28350	0.01428
611.35493	0.04875
609.42637	0.07761
607.49780	0.02706
605.56924	-0.00195
603.64067	0.04491
601.71211	0.10288
599.78354	0.10568
597.85498	0.06637
595.92642	0.04177
593.99785	0.05308
592.06929	0.07233
590.14072	0.04706
588.21216	0.03402
586.28359	0.12844
584.35503	0.30421
582.42646	0.36798
580.49790	0.28063
578.56934	0.14688
576.64077	0.07998
574.71221	0.10687
572.78364	0.13995
570.85508	0.12796
568.92651	0.10709
566.99795	0.11930
565.06938	0.12611
563.14082	0.10200
561.21226	0.10649
559.28369	0.10425
557.35513	0.03890
555.42656	-0.00354
553.49800	0.04475
551.56943	0.11275
549.64087	0.14615
547.71230	0.16994
545.78374	0.20637
543.85518	0.26022
541.92661	0.32442
539.99805	0.29570
538.06948	0.15557
536.14092	0.04393
534.21235	0.01945
532.28379	0.04006
530.35522	0.06180
528.42666	0.08948
526.49810	0.12646
524.56953	0.13457
522.64097	0.13762
520.71240	0.13710
518.78384	0.12788
516.85527	0.15143
514.92671	0.16172
512.99814	0.12854
511.06958	0.09938
509.14102	0.08545
507.21245	0.09268
505.28389	0.14038
503.35532	0.16367
501.42676	0.11106
499.49819	0.10491
