3997.91411	0.07043
3995.98555	0.07066
3994.05698	0.07092
3992.12842	0.07108
3990.19985	0.07141
3988.27129	0.07189
3986.34272	0.07248
3984.41416	0.07303
3982.48560	0.07304
3980.55703	0.07265
3978.62847	0.07262
3976.69990	0.07301
3974.77134	0.07323
3972.84277	0.07322
3970.91421	0.07309
3968.98564	0.07295
3967.05708	0.07343
3965.12852	0.07442
3963.19995	0.07499
3961.27139	0.07508
3959.34282	0.07526
3957.41426	0.07529
3955.48569	0.07492
3953.55713	0.07454
3951.62856	0.07438
3949.70000	0.07455
3947.77144	0.07499
3945.84287	0.07533
3943.91431	0.07568
3941.98574	0.07617
3940.05718	0.07604
3938.12861	0.07512
3936.20005	0.07449
3934.27148	0.07478
3932.34292	0.07556
3930.41436	0.07590
3928.48579	0.07547
3926.55723	0.07502
3924.62866	0.07480
3922.70010	0.07437
3920.77153	0.07405
3918.84297	0.07425
3916.91440	0.07451
3914.98584	0.07408
3913.05728	0.07342
3911.12871	0.07349
3909.20015	0.07399
3907.27158	0.07429
3905.34302	0.07462
3903.41445	0.07511
3901.48589	0.07503
3899.55732	0.07452
3897.62876	0.07439
3895.70020	0.07454
3893.77163	0.07461
3891.84307	0.07443
3889.91450	0.07392
3887.98594	0.07362
3886.05737	0.07425
3884.12881	0.07514
3882.20024	0.07511
3880.27168	0.07484
3878.34312	0.07481
3876.41455	0.07474
3874.48599	0.07496
3872.55742	0.07559
3870.62886	0.07614
3868.70029	0.07639
3866.77173	0.07630
3864.84316	0.07643
3862.91460	0.07698
3860.98604	0.07728
3859.05747	0.07735
3857.12891	0.07759
3855.20034	0.07835
3853.27178	0.08019
3851.34321	0.08171
3849.41465	0.08116
3847.48608	0.08049
3845.55752	0.08038
3843.62896	0.08050
3841.70039	0.08078
3839.77183	0.08175
3837.84326	0.08360
3835.91470	0.08522
3833.98613	0.08575
3832.05757	0.08571
3830.12900	0.08576
3828.20044	0.08605
3826.27187	0.08652
3824.34331	0.08730
3822.41475	0.08855
3820.48618	0.09030
3818.55762	0.09137
3816.62905	0.09201
3814.70049	0.09297
3812.77192	0.09370
3810.84336	0.09426
3808.91479	0.09495
3806.98623	0.09616
3805.05767	0.09760
3803.12910	0.09817
3801.20054	0.09875
3799.27197	0.10006
3797.34341	0.10109
3795.41484	0.10196
3793.48628	0.10282
3791.55771	0.10367
3789.62915	0.10467
3787.70059	0.10595
3785.77202	0.10760
3783.84346	0.10926
3781.91489	0.11052
3779.98633	0.11183
3778.05776	0.11343
3776.12920	0.11480
3774.20063	0.11613
3772.27207	0.11787
3770.34351	0.12018
3768.41494	0.12268
3766.48638	0.12446
3764.55781	0.12623
3762.62925	0.12818
3760.70068	0.12993
3758.77212	0.13213
3756.84355	0.13466
3754.91499	0.13677
3752.98643	0.13932
3751.05786	0.14325
3749.12930	0.14696
3747.20073	0.14881
3745.27217	0.15128
3743.34360	0.15548
3741.41504	0.15859
3739.48647	0.16041
3737.55791	0.16314
3735.62935	0.16816
3733.70078	0.17470
3731.77222	0.17941
3729.84365	0.18257
3727.91509	0.18610
3725.98652	0.19097
3724.05796	0.19689
3722.12939	0.20312
3720.20083	0.20992
3718.27227	0.21743
3716.34370	0.22534
3714.41514	0.23303
3712.48657	0.24177
3710.55801	0.25398
3708.62944	0.26736
3706.70088	0.27878
3704.77231	0.28972
3702.84375	0.30222
3700.91519	0.31832
3698.98662	0.33605
3697.05806	0.35302
3695.12949	0.37134
3693.20093	0.39099
3691.27236	0.41181
3689.34380	0.43823
3687.41523	0.47172
3685.48667	0.50203
3683.55811	0.52791
3681.62954	0.55516
3679.70098	0.58570
3677.77241	0.61775
3675.84385	0.65579
3673.91528	0.70771
3671.98672	0.75077
3670.05815	0.78857
3668.12959	0.84016
3666.20103	0.88788
3664.27246	0.92772
3662.34390	0.97011
3660.41533	1.01612
3658.48677	1.06171
3656.55820	1.10991
3654.62964	1.16336
3652.70107	1.20832
3650.77251	1.24697
3648.84395	1.29974
3646.91538	1.36585
3644.98682	1.41624
3643.05825	1.45572
3641.12969	1.49613
3639.20112	1.53999
3637.27256	1.58372
3635.34399	1.62648
3633.41543	1.66849
3631.48687	1.70657
3629.55830	1.74537
3627.62974	1.79780
3625.70117	1.84762
3623.77261	1.88195
3621.84404	1.91548
3619.91548	1.95421
3617.98691	2.00016
3616.05835	2.04345
3614.12979	2.07939
3612.20122	2.11714
3610.27266	2.15557
3608.34409	2.19440
3606.41553	2.23550
3604.48696	2.27480
3602.55840	2.31099
3600.62983	2.34895
3598.70127	2.38912
3596.77271	2.42901
3594.84414	2.47006
3592.91558	2.51184
3590.98701	2.55063
3589.05845	2.58640
3587.12988	2.62819
3585.20132	2.67536
3583.27275	2.71795
3581.34419	2.75805
3579.41562	2.79988
3577.48706	2.84331
3575.55850	2.88633
3573.62993	2.92907
3571.70137	2.97061
3569.77280	3.00997
3567.84424	3.05179
3565.91567	3.10607
3563.98711	3.15961
3562.05854	3.20090
3560.12998	3.24173
3558.20142	3.28560
3556.27285	3.32982
3554.34429	3.37368
3552.41572	3.41898
3550.48716	3.46368
3548.55859	3.50578
3546.63003	3.55012
3544.70146	3.60072
3542.77290	3.65098
3540.84434	3.69652
3538.91577	3.74087
3536.98721	3.78619
3535.05864	3.83562
3533.13008	3.88739
3531.20151	3.93746
3529.27295	3.98694
3527.34438	4.03882
3525.41582	4.08979
3523.48726	4.13799
3521.55869	4.18513
3519.63013	4.22954
3517.70156	4.27422
3515.77300	4.32129
3513.84443	4.36995
3511.91587	4.41797
3509.98730	4.46394
3508.05874	4.51161
3506.13018	4.56094
3504.20161	4.60648
3502.27305	4.65026
3500.34448	4.69900
3498.41592	4.75184
3496.48735	4.80312
3494.55879	4.85061
3492.63022	4.89643
3490.70166	4.94085
3488.77310	4.98926
3486.84453	5.04360
3484.91597	5.09437
3482.98740	5.13979
3481.05884	5.18466
3479.13027	5.22954
3477.20171	5.27746
3475.27314	5.33097
3473.34458	5.38242
3471.41602	5.42871
3469.48745	5.47768
3467.55889	5.53257
3465.63032	5.59285
3463.70176	5.65102
3461.77319	5.69367
3459.84463	5.73261
3457.91606	5.78483
3455.98750	5.83988
3454.05894	5.89143
3452.13037	5.94417
3450.20181	5.99241
3448.27324	6.03684
3446.34468	6.08286
3444.41611	6.12989
3442.48755	6.18214
3440.55898	6.22902
3438.63042	6.26739
3436.70186	6.30882
3434.77329	6.35852
3432.84473	6.41614
3430.91616	6.47215
3428.98760	6.51964
3427.05903	6.56479
3425.13047	6.63123
3423.20190	6.70095
3421.27334	6.73096
3419.34478	6.74422
3417.41621	6.79293
3415.48765	6.86645
3413.55908	6.93376
3411.63052	7.00634
3409.70195	7.07484
3407.77339	7.10219
3405.84482	7.09097
3403.91626	7.10800
3401.98770	7.15127
3400.05913	7.17756
3398.13057	7.21150
3396.20200	7.26330
3394.27344	7.33529
3392.34487	7.41873
3390.41631	7.48634
3388.48774	7.53777
3386.55918	7.61025
3384.63062	7.69560
3382.70205	7.75243
3380.77349	7.76600
3378.84492	7.74259
3376.91636	7.71245
3374.98779	7.68704
3373.05923	7.71805
3371.13066	7.79740
3369.20210	7.84259
3367.27354	7.85335
3365.34497	7.86734
3363.41641	7.90218
3361.48784	7.98445
3359.55928	8.08016
3357.63071	8.07737
3355.70215	8.00126
3353.77358	7.95290
3351.84502	7.95645
3349.91646	7.98882
3347.98789	8.02582
3346.05933	8.03673
3344.13076	8.04012
3342.20220	8.06180
3340.27363	8.05613
3338.34507	8.03657
3336.41650	8.02867
3334.48794	8.01443
3332.55937	7.96871
3330.63081	7.93692
3328.70225	7.98523
3326.77368	8.07843
3324.84512	8.15519
3322.91655	8.21607
3320.98799	8.27695
3319.05942	8.29502
3317.13086	8.25540
3315.20229	8.24953
3313.27373	8.32240
3311.34517	8.30419
3309.41660	8.16202
3307.48804	8.11960
3305.55947	8.23202
3303.63091	8.34799
3301.70234	8.33931
3299.77378	8.31661
3297.84521	8.34380
3295.91665	8.34843
3293.98809	8.33594
3292.05952	8.30830
3290.13096	8.24466
3288.20239	8.22590
3286.27383	8.27441
3284.34526	8.33613
3282.41670	8.46089
3280.48813	8.56065
3278.55957	8.46758
3276.63101	8.32972
3274.70244	8.27926
3272.77388	8.26459
3270.84531	8.26802
3268.91675	8.26424
3266.98818	8.18813
3265.05962	8.17253
3263.13105	8.30075
3261.20249	8.36093
3259.27393	8.24751
3257.34536	8.14703
3255.41680	8.12606
3253.48823	8.17375
3251.55967	8.29815
3249.63110	8.43091
3247.70254	8.52523
3245.77397	8.60560
3243.84541	8.58417
3241.91685	8.43112
3239.98828	8.35118
3238.05972	8.35161
3236.13115	8.31647
3234.20259	8.34555
3232.27402	8.43859
3230.34546	8.42378
3228.41689	8.32876
3226.48833	8.24071
3224.55977	8.17184
3222.63120	8.16398
3220.70264	8.19060
3218.77407	8.19781
3216.84551	8.18705
3214.91694	8.16949
3212.98838	8.18822
3211.05981	8.20535
3209.13125	8.12512
3207.20269	8.03590
3205.27412	8.04890
3203.34556	8.08562
3201.41699	8.03904
3199.48843	7.95553
3197.55986	7.88385
3195.63130	7.81116
3193.70273	7.74223
3191.77417	7.68927
3189.84561	7.66954
3187.91704	7.67543
3185.98848	7.65569
3184.05991	7.59836
3182.13135	7.54540
3180.20278	7.47798
3178.27422	7.36683
3176.34565	7.29111
3174.41709	7.26945
3172.48853	7.21101
3170.55996	7.10858
3168.63140	7.04129
3166.70283	7.01775
3164.77427	6.98413
3162.84570	6.91915
3160.91714	6.83516
3158.98857	6.75372
3157.06001	6.68792
3155.13145	6.64228
3153.20288	6.60188
3151.27432	6.53969
3149.34575	6.45179
3147.41719	6.36069
3145.48862	6.28458
3143.56006	6.20612
3141.63149	6.11592
3139.70293	6.03008
3137.77437	5.95147
3135.84580	5.87369
3133.91724	5.80307
3131.98867	5.74057
3130.06011	5.67505
3128.13154	5.60982
3126.20298	5.54559
3124.27441	5.47381
3122.34585	5.39776
3120.41729	5.31986
3118.48872	5.24012
3116.56016	5.16628
3114.63159	5.09991
3112.70303	5.03746
3110.77446	4.97449
3108.84590	4.90525
3106.91733	4.83332
3104.98877	4.76481
3103.06021	4.69918
3101.13164	4.63365
3099.20308	4.56835
3097.27451	4.50397
3095.34595	4.43904
3093.41738	4.37207
3091.48882	4.30575
3089.56025	4.24207
3087.63169	4.17738
3085.70312	4.11164
3083.77456	4.04735
3081.84600	3.98564
3079.91743	3.92563
3077.98887	3.86513
3076.06030	3.80487
3074.13174	3.74480
3072.20317	3.68567
3070.27461	3.62892
3068.34604	3.57207
3066.41748	3.51452
3064.48892	3.45785
3062.56035	3.40141
3060.63179	3.34625
3058.70322	3.29310
3056.77466	3.23921
3054.84609	3.18435
3052.91753	3.13092
3050.98896	3.07939
3049.06040	3.02866
3047.13184	2.97829
3045.20327	2.92846
3043.27471	2.87867
3041.34614	2.82873
3039.41758	2.77965
3037.48901	2.73242
3035.56045	2.68672
3033.63188	2.64186
3031.70332	2.59723
3029.77476	2.55277
3027.84619	2.50920
3025.91763	2.46619
3023.98906	2.42300
3022.06050	2.38015
3020.13193	2.33822
3018.20337	2.29697
3016.27480	2.25627
3014.34624	2.21640
3012.41768	2.17717
3010.48911	2.13862
3008.56055	2.10129
3006.63198	2.06487
3004.70342	2.02894
3002.77485	1.99362
3000.84629	1.95899
2998.91772	1.92488
2996.98916	1.89158
2995.06060	1.85946
2993.13203	1.82800
2991.20347	1.79703
2989.27490	1.76712
2987.34634	1.73802
2985.41777	1.70895
2983.48921	1.68001
2981.56064	1.65198
2979.63208	1.62527
2977.70352	1.59935
2975.77495	1.57363
2973.84639	1.54797
2971.91782	1.52255
2969.98926	1.49790
2968.06069	1.47411
2966.13213	1.45067
2964.20356	1.42731
2962.27500	1.40379
2960.34644	1.37992
2958.41787	1.35585
2956.48931	1.33149
2954.56074	1.30724
2952.63218	1.28405
2950.70361	1.26171
2948.77505	1.23953
2946.84648	1.21772
2944.91792	1.19640
2942.98936	1.17533
2941.06079	1.15499
2939.13223	1.13579
2937.20366	1.11680
2935.27510	1.09737
2933.34653	1.07833
2931.41797	1.05953
2929.48940	1.04019
2927.56084	1.02103
2925.63228	1.00263
2923.70371	0.98471
2921.77515	0.96695
2919.84658	0.94917
2917.91802	0.93139
2915.98945	0.91402
2914.06089	0.89747
2912.13232	0.88093
2910.20376	0.86421
2908.27520	0.84835
2906.34663	0.83344
2904.41807	0.81910
2902.48950	0.80498
2900.56094	0.79081
2898.63237	0.77671
2896.70381	0.76271
2894.77524	0.74925
2892.84668	0.73681
2890.91812	0.72483
2888.98955	0.71307
2887.06099	0.70214
2885.13242	0.69186
2883.20386	0.68170
2881.27529	0.67171
2879.34673	0.66196
2877.41816	0.65239
2875.48960	0.64281
2873.56104	0.63264
2871.63247	0.62169
2869.70391	0.61052
2867.77534	0.59962
2865.84678	0.58867
2863.91821	0.57725
2861.98965	0.56608
2860.06108	0.55580
2858.13252	0.54587
2856.20396	0.53616
2854.27539	0.52685
2852.34683	0.51770
2850.41826	0.50877
2848.48970	0.50021
2846.56113	0.49184
2844.63257	0.48384
2842.70400	0.47656
2840.77544	0.46989
2838.84687	0.46347
2836.91831	0.45692
2834.98975	0.45028
2833.06118	0.44390
2831.13262	0.43772
2829.20405	0.43155
2827.27549	0.42554
2825.34692	0.41956
2823.41836	0.41331
2821.48979	0.40707
2819.56123	0.40129
2817.63267	0.39580
2815.70410	0.39014
2813.77554	0.38436
2811.84697	0.37865
2809.91841	0.37336
2807.98984	0.36855
2806.06128	0.36367
2804.13271	0.35855
2802.20415	0.35343
2800.27559	0.34841
2798.34702	0.34352
2796.41846	0.33865
2794.48989	0.33378
2792.56133	0.32909
2790.63276	0.32458
2788.70420	0.32014
2786.77563	0.31576
2784.84707	0.31141
2782.91851	0.30711
2780.98994	0.30299
2779.06138	0.29913
2777.13281	0.29545
2775.20425	0.29180
2773.27568	0.28808
2771.34712	0.28430
2769.41855	0.28061
2767.48999	0.27702
2765.56143	0.27342
2763.63286	0.26998
2761.70430	0.26676
2759.77573	0.26359
2757.84717	0.26043
2755.91860	0.25739
2753.99004	0.25433
2752.06147	0.25110
2750.13291	0.24794
2748.20435	0.24503
2746.27578	0.24232
2744.34722	0.23980
2742.41865	0.23723
2740.49009	0.23455
2738.56152	0.23202
2736.63296	0.22957
2734.70439	0.22701
2732.77583	0.22450
2730.84727	0.22227
2728.91870	0.22002
2726.99014	0.21766
2725.06157	0.21547
2723.13301	0.21335
2721.20444	0.21123
2719.27588	0.20921
2717.34731	0.20728
2715.41875	0.20536
2713.49019	0.20332
2711.56162	0.20130
2709.63306	0.19955
2707.70449	0.19797
2705.77593	0.19637
2703.84736	0.19474
2701.91880	0.19319
2699.99023	0.19183
2698.06167	0.19052
2696.13311	0.18908
2694.20454	0.18757
2692.27598	0.18628
2690.34741	0.18509
2688.41885	0.18369
2686.49028	0.18228
2684.56172	0.18105
2682.63315	0.17981
2680.70459	0.17858
2678.77603	0.17750
2676.84746	0.17652
2674.91890	0.17553
2672.99033	0.17437
2671.06177	0.17314
2669.13320	0.17224
2667.20464	0.17163
2665.27607	0.17080
2663.34751	0.16970
2661.41895	0.16865
2659.49038	0.16779
2657.56182	0.16715
2655.63325	0.16653
2653.70469	0.16578
2651.77612	0.16505
2649.84756	0.16435
2647.91899	0.16369
2645.99043	0.16317
2644.06187	0.16266
2642.13330	0.16194
2640.20474	0.16110
2638.27617	0.16040
2636.34761	0.15993
2634.41904	0.15951
2632.49048	0.15910
2630.56191	0.15878
2628.63335	0.15836
2626.70479	0.15785
2624.77622	0.15746
2622.84766	0.15718
2620.91909	0.15699
2618.99053	0.15688
2617.06196	0.15676
2615.13340	0.15662
2613.20483	0.15654
2611.27627	0.15640
2609.34771	0.15609
2607.41914	0.15588
2605.49058	0.15600
2603.56201	0.15617
2601.63345	0.15609
2599.70488	0.15593
2597.77632	0.15596
2595.84775	0.15612
2593.91919	0.15625
2591.99062	0.15636
2590.06206	0.15650
2588.13350	0.15664
2586.20493	0.15674
2584.27637	0.15681
2582.34780	0.15685
2580.41924	0.15695
2578.49067	0.15716
2576.56211	0.15744
2574.63354	0.15781
2572.70498	0.15827
2570.77642	0.15871
2568.84785	0.15901
2566.91929	0.15931
2564.99072	0.15959
2563.06216	0.15975
2561.13359	0.15990
2559.20503	0.16033
2557.27646	0.16106
2555.34790	0.16178
2553.41934	0.16234
2551.49077	0.16282
2549.56221	0.16329
2547.63364	0.16379
2545.70508	0.16437
2543.77651	0.16499
2541.84795	0.16552
2539.91938	0.16603
2537.99082	0.16672
2536.06226	0.16755
2534.13369	0.16827
2532.20513	0.16883
2530.27656	0.16939
2528.34800	0.17006
2526.41943	0.17075
2524.49087	0.17146
2522.56230	0.17220
2520.63374	0.17302
2518.70518	0.17391
2516.77661	0.17460
2514.84805	0.17505
2512.91948	0.17561
2510.99092	0.17645
2509.06235	0.17743
2507.13379	0.17834
2505.20522	0.17908
2503.27666	0.17975
2501.34810	0.18048
2499.41953	0.18137
2497.49097	0.18226
2495.56240	0.18298
2493.63384	0.18359
2491.70527	0.18435
2489.77671	0.18528
2487.84814	0.18619
2485.91958	0.18708
2483.99102	0.18800
2482.06245	0.18892
2480.13389	0.18969
2478.20532	0.19043
2476.27676	0.19139
2474.34819	0.19241
2472.41963	0.19317
2470.49106	0.19388
2468.56250	0.19479
2466.63394	0.19580
2464.70537	0.19681
2462.77681	0.19781
2460.84824	0.19879
2458.91968	0.19964
2456.99111	0.20044
2455.06255	0.20143
2453.13398	0.20244
2451.20542	0.20327
2449.27686	0.20400
2447.34829	0.20478
2445.41973	0.20565
2443.49116	0.20655
2441.56260	0.20758
2439.63403	0.20883
2437.70547	0.21007
2435.77690	0.21106
2433.84834	0.21188
2431.91978	0.21281
2429.99121	0.21387
2428.06265	0.21495
2426.13408	0.21613
2424.20552	0.21730
2422.27695	0.21835
2420.34839	0.21941
2418.41982	0.22051
2416.49126	0.22154
2414.56270	0.22258
2412.63413	0.22377
2410.70557	0.22495
2408.77700	0.22600
2406.84844	0.22714
2404.91987	0.22842
2402.99131	0.22966
2401.06274	0.23090
2399.13418	0.23219
2397.20562	0.23342
2395.27705	0.23454
2393.34849	0.23574
2391.41992	0.23713
2389.49136	0.23849
2387.56279	0.23962
2385.63423	0.24069
2383.70566	0.24196
2381.77710	0.24333
2379.84854	0.24465
2377.91997	0.24595
2375.99141	0.24728
2374.06284	0.24889
2372.13428	0.25085
2370.20571	0.25282
2368.27715	0.25473
2366.34858	0.25668
2364.42002	0.25849
2362.49146	0.26047
2360.56289	0.26222
2358.63433	0.26266
2356.70576	0.26309
2354.77720	0.26528
2352.84863	0.26811
2350.92007	0.26955
2348.99150	0.26984
2347.06294	0.27005
2345.13437	0.27109
2343.20581	0.27350
2341.27725	0.27628
2339.34868	0.27846
2337.42012	0.28005
2335.49155	0.28128
2333.56299	0.28299
2331.63442	0.28544
2329.70586	0.28733
2327.77729	0.28841
2325.84873	0.28966
2323.92017	0.29107
2321.99160	0.29222
2320.06304	0.29344
2318.13447	0.29501
2316.20591	0.29639
2314.27734	0.29758
2312.34878	0.29906
2310.42021	0.30080
2308.49165	0.30258
2306.56309	0.30443
2304.63452	0.30635
2302.70596	0.30833
2300.77739	0.31025
2298.84883	0.31186
2296.92026	0.31333
2294.99170	0.31503
2293.06313	0.31696
2291.13457	0.31901
2289.20601	0.32101
2287.27744	0.32277
2285.34888	0.32455
2283.42031	0.32650
2281.49175	0.32839
2279.56318	0.33027
2277.63462	0.33240
2275.70605	0.33452
2273.77749	0.33643
2271.84893	0.33838
2269.92036	0.34056
2267.99180	0.34277
2266.06323	0.34494
2264.13467	0.34720
2262.20610	0.34949
2260.27754	0.35163
2258.34897	0.35362
2256.42041	0.35556
2254.49185	0.35762
2252.56328	0.35975
2250.63472	0.36191
2248.70615	0.36411
2246.77759	0.36630
2244.84902	0.36849
2242.92046	0.37067
2240.99189	0.37280
2239.06333	0.37493
2237.13477	0.37717
2235.20620	0.37938
2233.27764	0.38149
2231.34907	0.38373
2229.42051	0.38609
2227.49194	0.38840
2225.56338	0.39065
2223.63481	0.39284
2221.70625	0.39498
2219.77769	0.39716
2217.84912	0.39943
2215.92056	0.40171
2213.99199	0.40392
2212.06343	0.40604
2210.13486	0.40806
2208.20630	0.41007
2206.27773	0.41217
2204.34917	0.41437
2202.42061	0.41655
2200.49204	0.41858
2198.56348	0.42045
2196.63491	0.42225
2194.70635	0.42415
2192.77778	0.42618
2190.84922	0.42811
2188.92065	0.42983
2186.99209	0.43152
2185.06353	0.43329
2183.13496	0.43499
2181.20640	0.43660
2179.27783	0.43828
2177.34927	0.44007
2175.42070	0.44185
2173.49214	0.44337
2171.56357	0.44460
2169.63501	0.44577
2167.70645	0.44703
2165.77788	0.44836
2163.84932	0.44965
2161.92075	0.45078
2159.99219	0.45172
2158.06362	0.45262
2156.13506	0.45358
2154.20649	0.45448
2152.27793	0.45520
2150.34937	0.45581
2148.42080	0.45643
2146.49224	0.45708
2144.56367	0.45755
2142.63511	0.45780
2140.70654	0.45799
2138.77798	0.45816
2136.84941	0.45829
2134.92085	0.45841
2132.99229	0.45842
2131.06372	0.45827
2129.13516	0.45805
2127.20659	0.45782
2125.27803	0.45744
2123.34946	0.45682
2121.42090	0.45617
2119.49233	0.45566
2117.56377	0.45516
2115.63521	0.45447
2113.70664	0.45374
2111.77808	0.45298
2109.84951	0.45202
2107.92095	0.45082
2105.99238	0.44956
2104.06382	0.44833
2102.13525	0.44701
2100.20669	0.44557
2098.27812	0.44398
2096.34956	0.44236
2094.42100	0.44082
2092.49243	0.43924
2090.56387	0.43754
2088.63530	0.43572
2086.70674	0.43384
2084.77817	0.43196
2082.84961	0.43011
2080.92104	0.42811
2078.99248	0.42594
2077.06392	0.42383
2075.13535	0.42184
2073.20679	0.41976
2071.27822	0.41750
2069.34966	0.41511
2067.42109	0.41261
2065.49253	0.41010
2063.56396	0.40766
2061.63540	0.40534
2059.70684	0.40296
2057.77827	0.40037
2055.84971	0.39769
2053.92114	0.39505
2051.99258	0.39247
2050.06401	0.38995
2048.13545	0.38743
2046.20688	0.38473
2044.27832	0.38194
2042.34976	0.37924
2040.42119	0.37664
2038.49263	0.37402
2036.56406	0.37134
2034.63550	0.36855
2032.70693	0.36561
2030.77837	0.36276
2028.84980	0.36009
2026.92124	0.35739
2024.99268	0.35460
2023.06411	0.35184
2021.13555	0.34909
2019.20698	0.34633
2017.27842	0.34355
2015.34985	0.34065
2013.42129	0.33775
2011.49272	0.33501
2009.56416	0.33242
2007.63560	0.32987
2005.70703	0.32726
2003.77847	0.32460
2001.84990	0.32194
1999.92134	0.31930
1997.99277	0.31656
1996.06421	0.31390
1994.13564	0.31153
1992.20708	0.30925
1990.27852	0.30672
1988.34995	0.30407
1986.42139	0.30150
1984.49282	0.29909
1982.56426	0.29677
1980.63569	0.29451
1978.70713	0.29237
1976.77856	0.29025
1974.85000	0.28808
1972.92144	0.28589
1970.99287	0.28381
1969.06431	0.28183
1967.13574	0.27977
1965.20718	0.27760
1963.27861	0.27563
1961.35005	0.27383
1959.42148	0.27199
1957.49292	0.27016
1955.56436	0.26841
1953.63579	0.26672
1951.70723	0.26509
1949.77866	0.26354
1947.85010	0.26208
1945.92153	0.26061
1943.99297	0.25906
1942.06440	0.25754
1940.13584	0.25609
1938.20728	0.25469
1936.27871	0.25330
1934.35015	0.25194
1932.42158	0.25069
1930.49302	0.24953
1928.56445	0.24848
1926.63589	0.24745
1924.70732	0.24643
1922.77876	0.24546
1920.85020	0.24452
1918.92163	0.24362
1916.99307	0.24272
1915.06450	0.24185
1913.13594	0.24102
1911.20737	0.24033
1909.27881	0.23969
1907.35024	0.23893
1905.42168	0.23815
1903.49312	0.23762
1901.56455	0.23727
1899.63599	0.23686
1897.70742	0.23635
1895.77886	0.23589
1893.85029	0.23556
1891.92173	0.23527
1889.99316	0.23511
1888.06460	0.23499
1886.13604	0.23483
1884.20747	0.23460
1882.27891	0.23435
1880.35034	0.23418
1878.42178	0.23409
1876.49321	0.23410
1874.56465	0.23419
1872.63608	0.23432
1870.70752	0.23440
1868.77896	0.23466
1866.85039	0.23499
1864.92183	0.23515
1862.99326	0.23531
1861.06470	0.23560
1859.13613	0.23604
1857.20757	0.23642
1855.27900	0.23680
1853.35044	0.23722
1851.42187	0.23770
1849.49331	0.23817
1847.56475	0.23873
1845.63618	0.23950
1843.70762	0.24052
1841.77905	0.24146
1839.85049	0.24211
1837.92192	0.24290
1835.99336	0.24379
1834.06479	0.24472
1832.13623	0.24568
1830.20767	0.24690
1828.27910	0.24824
1826.35054	0.24933
1824.42197	0.25061
1822.49341	0.25192
1820.56484	0.25323
1818.63628	0.25464
1816.70771	0.25626
1814.77915	0.25786
1812.85059	0.25961
1810.92202	0.26171
1808.99346	0.26385
1807.06489	0.26580
1805.13633	0.26768
1803.20776	0.26979
1801.27920	0.27207
1799.35063	0.27472
1797.42207	0.27733
1795.49351	0.27977
1793.56494	0.28244
1791.63638	0.28595
1789.70781	0.28948
1787.77925	0.29220
1785.85068	0.29537
1783.92212	0.29913
1781.99355	0.30306
1780.06499	0.30714
1778.13643	0.31146
1776.20786	0.31559
1774.27930	0.31991
1772.35073	0.32560
1770.42217	0.33186
1768.49360	0.33726
1766.56504	0.34245
1764.63647	0.34775
1762.70791	0.35351
1760.77935	0.36082
1758.85078	0.36776
1756.92222	0.37471
1754.99365	0.38243
1753.06509	0.38951
1751.13652	0.39766
1749.20796	0.40792
1747.27939	0.41839
1745.35083	0.42762
1743.42227	0.43731
1741.49370	0.44808
1739.56514	0.46075
1737.63657	0.47341
1735.70801	0.48450
1733.77944	0.50094
1731.85088	0.52031
1729.92231	0.53561
1727.99375	0.55125
1726.06519	0.56805
1724.13662	0.58635
1722.20806	0.60620
1720.27949	0.62446
1718.35093	0.64566
1716.42236	0.67720
1714.49380	0.70754
1712.56523	0.73211
1710.63667	0.75586
1708.70811	0.78149
1706.77954	0.81057
1704.85098	0.84528
1702.92241	0.87651
1700.99385	0.90781
1699.06528	0.95431
1697.13672	0.99696
1695.20815	1.04103
1693.27959	1.08440
1691.35103	1.11955
1689.42246	1.15987
1687.49390	1.20240
1685.56533	1.24377
1683.63677	1.30832
1681.70820	1.37526
1679.77964	1.41747
1677.85107	1.45758
1675.92251	1.50451
1673.99395	1.56313
1672.06538	1.61491
1670.13682	1.66505
1668.20825	1.73188
1666.27969	1.78806
1664.35112	1.83546
1662.42256	1.89534
1660.49399	1.96439
1658.56543	2.01799
1656.63687	2.05914
1654.70830	2.09470
1652.77974	2.15177
1650.85117	2.21002
1648.92261	2.23139
1646.99404	2.25414
1645.06548	2.27785
1643.13691	2.29426
1641.20835	2.30332
1639.27979	2.31044
1637.35122	2.31387
1635.42266	2.31214
1633.49409	2.30353
1631.56553	2.28813
1629.63696	2.26744
1627.70840	2.23430
1625.77983	2.19801
1623.85127	2.15542
1621.92271	2.10365
1619.99414	2.05783
1618.06558	2.01312
1616.13701	1.94814
1614.20845	1.88215
1612.27988	1.83232
1610.35132	1.78008
1608.42275	1.72335
1606.49419	1.66804
1604.56562	1.61747
1602.63706	1.56872
1600.70850	1.52159
1598.77993	1.47870
1596.85137	1.43833
1594.92280	1.39883
1592.99424	1.36096
1591.06567	1.32704
1589.13711	1.29593
1587.20854	1.26705
1585.27998	1.24014
1583.35142	1.21517
1581.42285	1.19294
1579.49429	1.17452
1577.56572	1.15836
1575.63716	1.13896
1573.70859	1.12226
1571.78003	1.11196
1569.85146	1.10194
1567.92290	1.09137
1565.99434	1.08399
1564.06577	1.07912
1562.13721	1.07598
1560.20864	1.07541
1558.28008	1.07946
1556.35151	1.08407
1554.42295	1.08610
1552.49438	1.08777
1550.56582	1.08772
1548.63726	1.08477
1546.70869	1.07912
1544.78013	1.07057
1542.85156	1.05910
1540.92300	1.04192
1538.99443	1.01323
1537.06587	0.99139
1535.13730	0.97630
1533.20874	0.95636
1531.28018	0.93553
1529.35161	0.92075
1527.42305	0.90670
1525.49448	0.89189
1523.56592	0.87948
1521.63735	0.86803
1519.70879	0.85650
1517.78022	0.84645
1515.85166	0.83447
1513.92310	0.82205
1511.99453	0.81137
1510.06597	0.80165
1508.13740	0.79212
1506.20884	0.77723
1504.28027	0.76434
1502.35171	0.75732
1500.42314	0.75104
1498.49458	0.74417
1496.56602	0.73643
1494.63745	0.72894
1492.70889	0.72307
1490.78032	0.71764
1488.85176	0.71110
1486.92319	0.70519
1484.99463	0.70091
1483.06606	0.69754
1481.13750	0.69461
1479.20894	0.69233
1477.28037	0.69105
1475.35181	0.69067
1473.42324	0.69079
1471.49468	0.69056
1469.56611	0.68951
1467.63755	0.68785
1465.70898	0.68599
1463.78042	0.68436
1461.85186	0.68355
1459.92329	0.68359
1457.99473	0.68422
1456.06616	0.68424
1454.13760	0.68249
1452.20903	0.68024
1450.28047	0.67790
1448.35190	0.67543
1446.42334	0.67268
1444.49478	0.67003
1442.56621	0.66758
1440.63765	0.66516
1438.70908	0.66265
1436.78052	0.65923
1434.85195	0.65507
1432.92339	0.65191
1430.99482	0.64996
1429.06626	0.64893
1427.13770	0.64862
1425.20913	0.64895
1423.28057	0.64980
1421.35200	0.65053
1419.42344	0.65085
1417.49487	0.65063
1415.56631	0.64977
1413.63774	0.64906
1411.70918	0.64903
1409.78062	0.64981
1407.85205	0.65109
1405.92349	0.65260
1403.99492	0.65399
1402.06636	0.65458
1400.13779	0.65413
1398.20923	0.65262
1396.28066	0.65023
1394.35210	0.64694
1392.42354	0.64285
1390.49497	0.63862
1388.56641	0.63423
1386.63784	0.62938
1384.70928	0.62450
1382.78071	0.61996
1380.85215	0.61565
1378.92358	0.61190
1376.99502	0.60901
1375.06646	0.60696
1373.13789	0.60546
1371.20933	0.60434
1369.28076	0.60351
1367.35220	0.60247
1365.42363	0.60099
1363.49507	0.59938
1361.56650	0.59785
1359.63794	0.59626
1357.70937	0.59465
1355.78081	0.59323
1353.85225	0.59213
1351.92368	0.59127
1349.99512	0.59061
1348.06655	0.59000
1346.13799	0.58922
1344.20942	0.58836
1342.28086	0.58753
1340.35229	0.58674
1338.42373	0.58604
1336.49517	0.58554
1334.56660	0.58522
1332.63804	0.58515
1330.70947	0.58538
1328.78091	0.58576
1326.85234	0.58622
1324.92378	0.58681
1322.99521	0.58755
1321.06665	0.58826
1319.13809	0.58877
1317.20952	0.58900
1315.28096	0.58905
1313.35239	0.58896
1311.42383	0.58849
1309.49526	0.58767
1307.56670	0.58699
1305.63813	0.58671
1303.70957	0.58644
1301.78101	0.58577
1299.85244	0.58478
1297.92388	0.58366
1295.99531	0.58248
1294.06675	0.58140
1292.13818	0.58048
1290.20962	0.57942
1288.28105	0.57816
1286.35249	0.57689
1284.42393	0.57564
1282.49536	0.57428
1280.56680	0.57288
1278.63823	0.57162
1276.70967	0.57041
1274.78110	0.56922
1272.85254	0.56822
1270.92397	0.56735
1268.99541	0.56641
1267.06685	0.56551
1265.13828	0.56473
1263.20972	0.56398
1261.28115	0.56325
1259.35259	0.56252
1257.42402	0.56183
1255.49546	0.56136
1253.56689	0.56119
1251.63833	0.56117
1249.70977	0.56112
1247.78120	0.56096
1245.85264	0.56069
1243.92407	0.56020
1241.99551	0.55930
1240.06694	0.55789
1238.13838	0.55611
1236.20981	0.55408
1234.28125	0.55194
1232.35269	0.54984
1230.42412	0.54773
1228.49556	0.54554
1226.56699	0.54338
1224.63843	0.54149
1222.70986	0.53996
1220.78130	0.53857
1218.85273	0.53707
1216.92417	0.53547
1214.99561	0.53408
1213.06704	0.53321
1211.13848	0.53280
1209.20991	0.53237
1207.28135	0.53151
1205.35278	0.53037
1203.42422	0.52939
1201.49565	0.52861
1199.56709	0.52767
1197.63853	0.52665
1195.70996	0.52585
1193.78140	0.52521
1191.85283	0.52457
1189.92427	0.52402
1187.99570	0.52376
1186.06714	0.52380
1184.13857	0.52409
1182.21001	0.52453
1180.28145	0.52517
1178.35288	0.52626
1176.42432	0.52776
1174.49575	0.52905
1172.56719	0.52972
1170.63862	0.52995
1168.71006	0.52994
1166.78149	0.52978
1164.85293	0.52967
1162.92437	0.52967
1160.99580	0.52953
1159.06724	0.52917
1157.13867	0.52869
1155.21011	0.52789
1153.28154	0.52658
1151.35298	0.52486
1149.42441	0.52289
1147.49585	0.52062
1145.56729	0.51807
1143.63872	0.51558
1141.71016	0.51337
1139.78159	0.51153
1137.85303	0.51009
1135.92446	0.50910
1133.99590	0.50864
1132.06733	0.50850
1130.13877	0.50815
1128.21021	0.50758
1126.28164	0.50694
1124.35308	0.50615
1122.42451	0.50540
1120.49595	0.50497
1118.56738	0.50492
1116.63882	0.50528
1114.71025	0.50575
1112.78169	0.50604
1110.85312	0.50636
1108.92456	0.50714
1106.99600	0.50841
1105.06743	0.50973
1103.13887	0.51065
1101.21030	0.51152
1099.28174	0.51313
1097.35317	0.51550
1095.42461	0.51821
1093.49604	0.52161
1091.56748	0.52620
1089.63892	0.53187
1087.71035	0.53861
1085.78179	0.54638
1083.85322	0.55406
1081.92466	0.56051
1079.99609	0.56542
1078.06753	0.56850
1076.13896	0.56935
1074.21040	0.56734
1072.28184	0.56229
1070.35327	0.55545
1068.42471	0.54828
1066.49614	0.54124
1064.56758	0.53455
1062.63901	0.52856
1060.71045	0.52340
1058.78188	0.51914
1056.85332	0.51559
1054.92476	0.51213
1052.99619	0.50870
1051.06763	0.50584
1049.13906	0.50375
1047.21050	0.50216
1045.28193	0.50102
1043.35337	0.50031
1041.42480	0.49989
1039.49624	0.49957
1037.56768	0.49925
1035.63911	0.49894
1033.71055	0.49853
1031.78198	0.49781
1029.85342	0.49673
1027.92485	0.49543
1025.99629	0.49420
1024.06772	0.49343
1022.13916	0.49316
1020.21060	0.49307
1018.28203	0.49325
1016.35347	0.49369
1014.42490	0.49391
1012.49634	0.49391
1010.56777	0.49395
1008.63921	0.49419
1006.71064	0.49490
1004.78208	0.49618
1002.85352	0.49798
1000.92495	0.50046
998.99639	0.50367
997.06782	0.50758
995.13926	0.51205
993.21069	0.51624
991.28213	0.51940
989.35356	0.52153
987.42500	0.52282
985.49644	0.52334
983.56787	0.52340
981.63931	0.52368
979.71074	0.52461
977.78218	0.52624
975.85361	0.52852
973.92505	0.53122
971.99648	0.53411
970.06792	0.53732
968.13936	0.54088
966.21079	0.54480
964.28223	0.54920
962.35366	0.55411
960.42510	0.55925
958.49653	0.56453
956.56797	0.57024
954.63940	0.57631
952.71084	0.58238
950.78228	0.58860
948.85371	0.59512
946.92515	0.60163
944.99658	0.60785
943.06802	0.61407
941.13945	0.62038
939.21089	0.62599
937.28232	0.63119
935.35376	0.63722
933.42520	0.64372
931.49663	0.64982
929.56807	0.65597
927.63950	0.66236
925.71094	0.66868
923.78237	0.67498
921.85381	0.68157
919.92524	0.68818
917.99668	0.69461
916.06812	0.70169
914.13955	0.70940
912.21099	0.71729
910.28242	0.72572
908.35386	0.73429
906.42529	0.74268
904.49673	0.75173
902.56816	0.76228
900.63960	0.77327
898.71104	0.78235
896.78247	0.79033
894.85391	0.79958
892.92534	0.81031
890.99678	0.82162
889.06821	0.83254
887.13965	0.84211
885.21108	0.85057
883.28252	0.86032
881.35396	0.87332
879.42539	0.88771
877.49683	0.90113
875.56826	0.91367
873.63970	0.92513
871.71113	0.93601
869.78257	0.94748
867.85400	0.95902
865.92544	0.97032
863.99687	0.98136
862.06831	0.99265
860.13975	1.00385
858.21118	1.01417
856.28262	1.02494
854.35405	1.03664
852.42549	1.04886
850.49692	1.06113
848.56836	1.07314
846.63979	1.08591
844.71123	1.09941
842.78267	1.11225
840.85410	1.12427
838.92554	1.13656
836.99697	1.14958
835.06841	1.16156
833.13984	1.17097
831.21128	1.17985
829.28271	1.19159
827.35415	1.20408
825.42559	1.21515
823.49702	1.22870
821.56846	1.23942
819.63989	1.24506
817.71133	1.25781
815.78276	1.27779
813.85420	1.29813
811.92563	1.31824
809.99707	1.33385
808.06851	1.33852
806.13994	1.33648
804.21138	1.34613
802.28281	1.36821
800.35425	1.38436
798.42568	1.41045
796.49712	1.44477
794.56855	1.44121
792.63999	1.41976
790.71143	1.41384
788.78286	1.42563
786.85430	1.46776
784.92573	1.50384
782.99717	1.48522
781.06860	1.46644
779.14004	1.49503
777.21147	1.54613
775.28291	1.56991
773.35435	1.59484
771.42578	1.60978
769.49722	1.55577
767.56865	1.57790
765.64009	1.63654
763.71152	1.62697
761.78296	1.60353
759.85439	1.50070
757.92583	1.34013
755.99727	1.24446
754.06870	1.30064
752.14014	1.36036
750.21157	1.24592
748.28301	1.19445
746.35444	1.31108
744.42588	1.39633
742.49731	1.20774
740.56875	1.03967
738.64019	1.00858
736.71162	1.00320
734.78306	0.86370
732.85449	0.71275
730.92593	0.64700
728.99736	0.66194
727.06880	0.63329
725.14023	0.55940
723.21167	0.63651
721.28311	0.98796
719.35454	1.05592
717.42598	0.81577
715.49741	0.73634
713.56885	0.59062
711.64028	0.38954
709.71172	0.32190
707.78315	0.38434
705.85459	0.46109
703.92603	0.44641
701.99746	0.39392
700.06890	0.35208
698.14033	0.33122
696.21177	0.29511
694.28320	0.21301
692.35464	0.17822
690.42607	0.24889
688.49751	0.46975
686.56895	0.61450
684.64038	0.58579
682.71182	0.43528
680.78325	0.24186
678.85469	0.15853
676.92612	0.20072
674.99756	0.29207
673.06899	0.40580
671.14043	0.48433
669.21187	0.38157
667.28330	0.31701
665.35474	0.34225
663.42617	0.34490
661.49761	0.36680
659.56904	0.61941
657.64048	3.94584
655.71191	0.99482
653.78335	0.50298
651.85479	0.31394
649.92622	0.30634
647.99766	0.33809
646.06909	0.26353
644.14053	0.20330
642.21196	0.25680
640.28340	0.41403
638.35483	0.70306
636.42627	0.98526
634.49771	0.67549
632.56914	0.43960
630.64058	0.37977
628.71201	0.36269
626.78345	0.33793
624.85488	0.31525
622.92632	0.32697
620.99775	0.34383
619.06919	0.27553
617.14062	0.17794
615.21206	0.14202
613.28350	0.15844
611.35493	0.16637
609.42637	0.17263
607.49780	0.17910
605.56924	0.20364
603.64067	0.22877
601.71211	0.23688
599.78354	0.28489
597.85498	0.32624
595.92642	0.28038
593.99785	0.27055
592.06929	0.24832
590.14072	0.17331
588.21216	0.14197
586.28359	0.23322
584.35503	0.50335
582.42646	1.18932
580.49790	0.60226
578.56934	0.32129
576.64077	0.23813
574.71221	0.23742
572.78364	0.25967
570.85508	0.31708
568.92651	0.52955
566.99795	1.61030
565.06938	0.52687
563.14082	0.26991
561.21226	0.21757
559.28369	0.21284
557.35513	0.14049
555.42656	0.11773
553.49800	0.22471
551.56943	0.31818
549.64087	0.32693
547.71230	0.28579
545.78374	0.20717
543.85518	0.16879
541.92661	0.22654
539.99805	0.28784
538.06948	0.21568
536.14092	0.14796
534.21235	0.16877
532.28379	0.25287
530.35522	0.37739
528.42666	0.37102
526.49810	0.18828
524.56953	0.10261
522.64097	0.12041
520.71240	0.17450
518.78384	0.18390
516.85527	0.19247
514.92671	0.25853
512.99814	0.35313
511.06958	0.32523
509.14102	0.21019
507.21245	0.15614
505.28389	0.19270
503.35532	0.26467
501.42676	0.28746
499.49819	0.32899
