3997.91411	0.07988
3995.98555	0.08015
3994.05698	0.08034
3992.12842	0.08056
3990.19985	0.08083
3988.27129	0.08115
3986.34272	0.08140
3984.41416	0.08160
3982.48560	0.08173
3980.55703	0.08159
3978.62847	0.08159
3976.69990	0.08208
3974.77134	0.08240
3972.84277	0.08240
3970.91421	0.08278
3968.98564	0.08342
3967.05708	0.08358
3965.12852	0.08325
3963.19995	0.08301
3961.27139	0.08286
3959.34282	0.08265
3957.41426	0.08258
3955.48569	0.08283
3953.55713	0.08319
3951.62856	0.08354
3949.70000	0.08384
3947.77144	0.08383
3945.84287	0.08342
3943.91431	0.08309
3941.98574	0.08323
3940.05718	0.08346
3938.12861	0.08325
3936.20005	0.08279
3934.27148	0.08267
3932.34292	0.08313
3930.41436	0.08372
3928.48579	0.08373
3926.55723	0.08331
3924.62866	0.08343
3922.70010	0.08405
3920.77153	0.08424
3918.84297	0.08404
3916.91440	0.08389
3914.98584	0.08381
3913.05728	0.08349
3911.12871	0.08305
3909.20015	0.08295
3907.27158	0.08305
3905.34302	0.08311
3903.41445	0.08358
3901.48589	0.08432
3899.55732	0.08448
3897.62876	0.08403
3895.70020	0.08366
3893.77163	0.08372
3891.84307	0.08384
3889.91450	0.08352
3887.98594	0.08312
3886.05737	0.08303
3884.12881	0.08292
3882.20024	0.08286
3880.27168	0.08349
3878.34312	0.08393
3876.41455	0.08349
3874.48599	0.08340
3872.55742	0.08414
3870.62886	0.08498
3868.70029	0.08523
3866.77173	0.08493
3864.84316	0.08530
3862.91460	0.08624
3860.98604	0.08605
3859.05747	0.08493
3857.12891	0.08456
3855.20034	0.08596
3853.27178	0.08879
3851.34321	0.08970
3849.41465	0.08836
3847.48608	0.08797
3845.55752	0.08843
3843.62896	0.08910
3841.70039	0.09011
3839.77183	0.09167
3837.84326	0.09339
3835.91470	0.09373
3833.98613	0.09307
3832.05757	0.09299
3830.12900	0.09333
3828.20044	0.09369
3826.27187	0.09421
3824.34331	0.09469
3822.41475	0.09566
3820.48618	0.09806
3818.55762	0.09998
3816.62905	0.10022
3814.70049	0.10019
3812.77192	0.10029
3810.84336	0.10065
3808.91479	0.10146
3806.98623	0.10294
3805.05767	0.10471
3803.12910	0.10618
3801.20054	0.10780
3799.27197	0.10880
3797.34341	0.10902
3795.41484	0.10993
3793.48628	0.11125
3791.55771	0.11235
3789.62915	0.11332
3787.70059	0.11431
3785.77202	0.11560
3783.84346	0.11722
3781.91489	0.11880
3779.98633	0.12040
3778.05776	0.12222
3776.12920	0.12362
3774.20063	0.12459
3772.27207	0.12589
3770.34351	0.12817
3768.41494	0.13120
3766.48638	0.13353
3764.55781	0.13487
3762.62925	0.13570
3760.70068	0.13714
3758.77212	0.14000
3756.84355	0.14308
3754.91499	0.14511
3752.98643	0.14716
3751.05786	0.15082
3749.12930	0.15539
3747.20073	0.15814
3745.27217	0.16027
3743.34360	0.16322
3741.41504	0.16616
3739.48647	0.16902
3737.55791	0.17226
3735.62935	0.17654
3733.70078	0.18233
3731.77222	0.18730
3729.84365	0.19055
3727.91509	0.19367
3725.98652	0.19843
3724.05796	0.20497
3722.12939	0.21202
3720.20083	0.21913
3718.27227	0.22640
3716.34370	0.23400
3714.41514	0.24171
3712.48657	0.25078
3710.55801	0.26347
3708.62944	0.27726
3706.70088	0.28860
3704.77231	0.29915
3702.84375	0.31144
3700.91519	0.32779
3698.98662	0.34610
3697.05806	0.36346
3695.12949	0.38161
3693.20093	0.40062
3691.27236	0.42120
3689.34380	0.44820
3687.41523	0.48165
3685.48667	0.51130
3683.55811	0.53714
3681.62954	0.56490
3679.70098	0.59615
3677.77241	0.62891
3675.84385	0.66761
3673.91528	0.71987
3671.98672	0.76306
3670.05815	0.80111
3668.12959	0.85234
3666.20103	0.89893
3664.27246	0.93828
3662.34390	0.98110
3660.41533	1.02769
3658.48677	1.07372
3656.55820	1.12230
3654.62964	1.17597
3652.70107	1.22146
3650.77251	1.26088
3648.84395	1.31393
3646.91538	1.37987
3644.98682	1.43044
3643.05825	1.46961
3641.12969	1.50879
3639.20112	1.55178
3637.27256	1.59550
3635.34399	1.63818
3633.41543	1.68103
3631.48687	1.72122
3629.55830	1.76153
3627.62974	1.81421
3625.70117	1.86356
3623.77261	1.89676
3621.84404	1.92893
3619.91548	1.96668
3617.98691	2.01243
3616.05835	2.05699
3614.12979	2.09470
3612.20122	2.13319
3610.27266	2.17097
3608.34409	2.20864
3606.41553	2.24948
3604.48696	2.28934
3602.55840	2.32599
3600.62983	2.36433
3598.70127	2.40426
3596.77271	2.44331
3594.84414	2.48463
3592.91558	2.52753
3590.98701	2.56657
3589.05845	2.60202
3587.12988	2.64353
3585.20132	2.69087
3583.27275	2.73353
3581.34419	2.77198
3579.41562	2.81074
3577.48706	2.85208
3575.55850	2.89509
3573.62993	2.93845
3571.70137	2.98096
3569.77280	3.02245
3567.84424	3.06555
3565.91567	3.11759
3563.98711	3.16986
3562.05854	3.21277
3560.12998	3.25372
3558.20142	3.29727
3556.27285	3.34272
3554.34429	3.38679
3552.41572	3.43105
3550.48716	3.47650
3548.55859	3.52236
3546.63003	3.56958
3544.70146	3.61743
3542.77290	3.66267
3540.84434	3.70787
3538.91577	3.75706
3536.98721	3.80701
3535.05864	3.85537
3533.13008	3.90190
3531.20151	3.94991
3529.27295	4.00301
3527.34438	4.05640
3525.41582	4.10148
3523.48726	4.14302
3521.55869	4.19005
3519.63013	4.23932
3517.70156	4.28862
3515.77300	4.33906
3513.84443	4.38783
3511.91587	4.43474
3509.98730	4.48394
3508.05874	4.53422
3506.13018	4.58366
3504.20161	4.63285
3502.27305	4.68118
3500.34448	4.72833
3498.41592	4.77757
3496.48735	4.83467
3494.55879	4.89289
3492.63022	4.94288
3490.70166	4.99064
3488.77310	5.04121
3486.84453	5.08776
3484.91597	5.12824
3482.98740	5.17004
3481.05884	5.21686
3479.13027	5.27099
3477.20171	5.33108
3475.27314	5.38746
3473.34458	5.43757
3471.41602	5.48565
3469.48745	5.52652
3467.55889	5.55857
3465.63032	5.59425
3463.70176	5.64119
3461.77319	5.69134
3459.84463	5.74088
3457.91606	5.79753
3455.98750	5.86545
3454.05894	5.93706
3452.13037	5.99929
3450.20181	6.04472
3448.27324	6.08286
3446.34468	6.13226
3444.41611	6.19085
3442.48755	6.24901
3440.55898	6.29706
3438.63042	6.33361
3436.70186	6.37786
3434.77329	6.44274
3432.84473	6.52257
3430.91616	6.59009
3428.98760	6.63026
3427.05903	6.67470
3425.13047	6.73923
3423.20190	6.79092
3421.27334	6.82036
3419.34478	6.85175
3417.41621	6.90433
3415.48765	6.96146
3413.55908	7.01298
3411.63052	7.08256
3409.70195	7.16219
3407.77339	7.21932
3405.84482	7.23121
3403.91626	7.23812
3401.98770	7.28231
3400.05913	7.33763
3398.13057	7.36519
3396.20200	7.38367
3394.27344	7.42008
3392.34487	7.45469
3390.41631	7.49406
3388.48774	7.53778
3386.55918	7.57930
3384.63062	7.62845
3382.70205	7.70156
3380.77349	7.78407
3378.84492	7.84849
3376.91636	7.89746
3374.98779	7.93527
3373.05923	7.96101
3371.13066	7.93596
3369.20210	7.92887
3367.27354	8.00394
3365.34497	8.10771
3363.41641	8.17711
3361.48784	8.17614
3359.55928	8.11469
3357.63071	8.04618
3355.70215	8.04901
3353.77358	8.13662
3351.84502	8.25267
3349.91646	8.28014
3347.98789	8.24345
3346.05933	8.24352
3344.13076	8.28176
3342.20220	8.34336
3340.27363	8.36614
3338.34507	8.36452
3336.41650	8.35846
3334.48794	8.33946
3332.55937	8.33707
3330.63081	8.34760
3328.70225	8.36270
3326.77368	8.42150
3324.84512	8.49305
3322.91655	8.43770
3320.98799	8.29396
3319.05942	8.22128
3317.13086	8.26876
3315.20229	8.33055
3313.27373	8.34697
3311.34517	8.31737
3309.41660	8.24448
3307.48804	8.25718
3305.55947	8.34574
3303.63091	8.38693
3301.70234	8.41720
3299.77378	8.46189
3297.84521	8.45839
3295.91665	8.44968
3293.98809	8.46458
3292.05952	8.45736
3290.13096	8.43839
3288.20239	8.45536
3286.27383	8.51450
3284.34526	8.54995
3282.41670	8.56757
3280.48813	8.61060
3278.55957	8.57765
3276.63101	8.44637
3274.70244	8.41311
3272.77388	8.46715
3270.84531	8.42486
3268.91675	8.35474
3266.98818	8.38681
3265.05962	8.49346
3263.13105	8.59389
3261.20249	8.67660
3259.27393	8.68243
3257.34536	8.61491
3255.41680	8.64141
3253.48823	8.76292
3251.55967	8.74278
3249.63110	8.57367
3247.70254	8.56540
3245.77397	8.74975
3243.84541	8.87883
3241.91685	8.91341
3239.98828	8.97598
3238.05972	8.99400
3236.13115	8.86027
3234.20259	8.68264
3232.27402	8.59892
3230.34546	8.61131
3228.41689	8.62887
3226.48833	8.62767
3224.55977	8.63311
3222.63120	8.58199
3220.70264	8.47551
3218.77407	8.40573
3216.84551	8.39375
3214.91694	8.38449
3212.98838	8.32330
3211.05981	8.24615
3209.13125	8.21475
3207.20269	8.22669
3205.27412	8.26387
3203.34556	8.25134
3201.41699	8.09547
3199.48843	7.90828
3197.55986	7.82584
3195.63130	7.81309
3193.70273	7.80603
3191.77417	7.81927
3189.84561	7.83546
3187.91704	7.79921
3185.98848	7.74563
3184.05991	7.72360
3182.13135	7.70354
3180.20278	7.65657
3178.27422	7.60086
3176.34565	7.53547
3174.41709	7.43765
3172.48853	7.34864
3170.55996	7.27900
3168.63140	7.18584
3166.70283	7.08815
3164.77427	7.02671
3162.84570	6.99383
3160.91714	6.93902
3158.98857	6.85231
3157.06001	6.78235
3155.13145	6.72643
3153.20288	6.65889
3151.27432	6.59754
3149.34575	6.53355
3147.41719	6.45633
3145.48862	6.37954
3143.56006	6.30129
3141.63149	6.22504
3139.70293	6.14353
3137.77437	6.05654
3135.84580	5.99062
3133.91724	5.94409
3131.98867	5.88301
3130.06011	5.80279
3128.13154	5.72114
3126.20298	5.64060
3124.27441	5.56420
3122.34585	5.48951
3120.41729	5.41161
3118.48872	5.33249
3116.56016	5.25537
3114.63159	5.18313
3112.70303	5.11174
3110.77446	5.03875
3108.84590	4.96929
3106.91733	4.90179
3104.98877	4.83154
3103.06021	4.76309
3101.13164	4.69603
3099.20308	4.62538
3097.27451	4.55321
3095.34595	4.48332
3093.41738	4.41498
3091.48882	4.34403
3089.56025	4.27232
3087.63169	4.20515
3085.70312	4.14148
3083.77456	4.07759
3081.84600	4.01497
3079.91743	3.95210
3077.98887	3.88576
3076.06030	3.82200
3074.13174	3.76485
3072.20317	3.70931
3070.27461	3.65141
3068.34604	3.59213
3066.41748	3.53218
3064.48892	3.47133
3062.56035	3.41191
3060.63179	3.35535
3058.70322	3.29934
3056.77466	3.24319
3054.84609	3.18896
3052.91753	3.13574
3050.98896	3.08168
3049.06040	3.02816
3047.13184	2.97663
3045.20327	2.92615
3043.27471	2.87597
3041.34614	2.82682
3039.41758	2.77950
3037.48901	2.73326
3035.56045	2.68594
3033.63188	2.63810
3031.70332	2.59211
3029.77476	2.54741
3027.84619	2.50263
3025.91763	2.45793
3023.98906	2.41344
3022.06050	2.36977
3020.13193	2.32791
3018.20337	2.28736
3016.27480	2.24720
3014.34624	2.20738
3012.41768	2.16785
3010.48911	2.12898
3008.56055	2.09146
3006.63198	2.05473
3004.70342	2.01790
3002.77485	1.98132
3000.84629	1.94573
2998.91772	1.91107
2996.98916	1.87696
2995.06060	1.84348
2993.13203	1.81022
2991.20347	1.77699
2989.27490	1.74456
2987.34634	1.71326
2985.41777	1.68322
2983.48921	1.65412
2981.56064	1.62479
2979.63208	1.59515
2977.70352	1.56610
2975.77495	1.53797
2973.84639	1.51050
2971.91782	1.48395
2969.98926	1.45826
2968.06069	1.43237
2966.13213	1.40613
2964.20356	1.38027
2962.27500	1.35497
2960.34644	1.33019
2958.41787	1.30590
2956.48931	1.28222
2954.56074	1.25933
2952.63218	1.23652
2950.70361	1.21377
2948.77505	1.19200
2946.84648	1.17089
2944.91792	1.14965
2942.98936	1.12849
2941.06079	1.10805
2939.13223	1.08810
2937.20366	1.06821
2935.27510	1.04871
2933.34653	1.02963
2931.41797	1.01089
2929.48940	0.99270
2927.56084	0.97487
2925.63228	0.95708
2923.70371	0.93949
2921.77515	0.92226
2919.84658	0.90565
2917.91802	0.88963
2915.98945	0.87356
2914.06089	0.85754
2912.13232	0.84205
2910.20376	0.82697
2908.27520	0.81224
2906.34663	0.79818
2904.41807	0.78477
2902.48950	0.77136
2900.56094	0.75776
2898.63237	0.74443
2896.70381	0.73161
2894.77524	0.71916
2892.84668	0.70680
2890.91812	0.69451
2888.98955	0.68258
2887.06099	0.67104
2885.13242	0.65978
2883.20386	0.64887
2881.27529	0.63850
2879.34673	0.62849
2877.41816	0.61829
2875.48960	0.60778
2873.56104	0.59736
2871.63247	0.58742
2869.70391	0.57794
2867.77534	0.56839
2865.84678	0.55833
2863.91821	0.54796
2861.98965	0.53791
2860.06108	0.52852
2858.13252	0.51974
2856.20396	0.51123
2854.27539	0.50259
2852.34683	0.49401
2850.41826	0.48586
2848.48970	0.47815
2846.56113	0.47073
2844.63257	0.46327
2842.70400	0.45584
2840.77544	0.44891
2838.84687	0.44246
2836.91831	0.43607
2834.98975	0.42985
2833.06118	0.42390
2831.13262	0.41800
2829.20405	0.41210
2827.27549	0.40624
2825.34692	0.40043
2823.41836	0.39475
2821.48979	0.38906
2819.56123	0.38316
2817.63267	0.37723
2815.70410	0.37159
2813.77554	0.36621
2811.84697	0.36090
2809.91841	0.35569
2807.98984	0.35061
2806.06128	0.34560
2804.13271	0.34083
2802.20415	0.33633
2800.27559	0.33182
2798.34702	0.32722
2796.41846	0.32252
2794.48989	0.31785
2792.56133	0.31344
2790.63276	0.30921
2788.70420	0.30511
2786.77563	0.30121
2784.84707	0.29731
2782.91851	0.29325
2780.98994	0.28912
2779.06138	0.28510
2777.13281	0.28132
2775.20425	0.27772
2773.27568	0.27426
2771.34712	0.27092
2769.41855	0.26760
2767.48999	0.26442
2765.56143	0.26131
2763.63286	0.25813
2761.70430	0.25489
2759.77573	0.25165
2757.84717	0.24861
2755.91860	0.24580
2753.99004	0.24288
2752.06147	0.23991
2750.13291	0.23726
2748.20435	0.23481
2746.27578	0.23222
2744.34722	0.22954
2742.41865	0.22692
2740.49009	0.22438
2738.56152	0.22197
2736.63296	0.21957
2734.70439	0.21715
2732.77583	0.21491
2730.84727	0.21288
2728.91870	0.21092
2726.99014	0.20892
2725.06157	0.20689
2723.13301	0.20494
2721.20444	0.20299
2719.27588	0.20087
2717.34731	0.19880
2715.41875	0.19712
2713.49019	0.19574
2711.56162	0.19428
2709.63306	0.19242
2707.70449	0.19047
2705.77593	0.18889
2703.84736	0.18744
2701.91880	0.18597
2699.99023	0.18464
2698.06167	0.18336
2696.13311	0.18195
2694.20454	0.18054
2692.27598	0.17941
2690.34741	0.17836
2688.41885	0.17700
2686.49028	0.17554
2684.56172	0.17420
2682.63315	0.17291
2680.70459	0.17173
2678.77603	0.17065
2676.84746	0.16970
2674.91890	0.16885
2672.99033	0.16801
2671.06177	0.16719
2669.13320	0.16628
2667.20464	0.16522
2665.27607	0.16415
2663.34751	0.16312
2661.41895	0.16219
2659.49038	0.16157
2657.56182	0.16114
2655.63325	0.16051
2653.70469	0.15964
2651.77612	0.15883
2649.84756	0.15830
2647.91899	0.15783
2645.99043	0.15727
2644.06187	0.15686
2642.13330	0.15654
2640.20474	0.15602
2638.27617	0.15543
2636.34761	0.15496
2634.41904	0.15453
2632.49048	0.15416
2630.56191	0.15395
2628.63335	0.15377
2626.70479	0.15357
2624.77622	0.15323
2622.84766	0.15286
2620.91909	0.15267
2618.99053	0.15252
2617.06196	0.15230
2615.13340	0.15217
2613.20483	0.15208
2611.27627	0.15204
2609.34771	0.15215
2607.41914	0.15214
2605.49058	0.15189
2603.56201	0.15170
2601.63345	0.15177
2599.70488	0.15183
2597.77632	0.15177
2595.84775	0.15186
2593.91919	0.15222
2591.99062	0.15263
2590.06206	0.15287
2588.13350	0.15296
2586.20493	0.15303
2584.27637	0.15317
2582.34780	0.15353
2580.41924	0.15402
2578.49067	0.15432
2576.56211	0.15449
2574.63354	0.15471
2572.70498	0.15509
2570.77642	0.15563
2568.84785	0.15619
2566.91929	0.15674
2564.99072	0.15726
2563.06216	0.15765
2561.13359	0.15801
2559.20503	0.15843
2557.27646	0.15895
2555.34790	0.15950
2553.41934	0.16007
2551.49077	0.16068
2549.56221	0.16122
2547.63364	0.16174
2545.70508	0.16241
2543.77651	0.16316
2541.84795	0.16380
2539.91938	0.16440
2537.99082	0.16508
2536.06226	0.16570
2534.13369	0.16631
2532.20513	0.16715
2530.27656	0.16813
2528.34800	0.16899
2526.41943	0.16967
2524.49087	0.17030
2522.56230	0.17093
2520.63374	0.17165
2518.70518	0.17252
2516.77661	0.17339
2514.84805	0.17418
2512.91948	0.17494
2510.99092	0.17573
2509.06235	0.17655
2507.13379	0.17741
2505.20522	0.17838
2503.27666	0.17946
2501.34810	0.18049
2499.41953	0.18131
2497.49097	0.18196
2495.56240	0.18256
2493.63384	0.18327
2491.70527	0.18424
2489.77671	0.18537
2487.84814	0.18632
2485.91958	0.18711
2483.99102	0.18805
2482.06245	0.18911
2480.13389	0.19004
2478.20532	0.19101
2476.27676	0.19216
2474.34819	0.19325
2472.41963	0.19409
2470.49106	0.19479
2468.56250	0.19549
2466.63394	0.19636
2464.70537	0.19740
2462.77681	0.19845
2460.84824	0.19944
2458.91968	0.20042
2456.99111	0.20154
2455.06255	0.20271
2453.13398	0.20371
2451.20542	0.20457
2449.27686	0.20546
2447.34829	0.20643
2445.41973	0.20748
2443.49116	0.20862
2441.56260	0.20985
2439.63403	0.21100
2437.70547	0.21200
2435.77690	0.21298
2433.84834	0.21392
2431.91978	0.21476
2429.99121	0.21566
2428.06265	0.21671
2426.13408	0.21776
2424.20552	0.21872
2422.27695	0.21981
2420.34839	0.22115
2418.41982	0.22261
2416.49126	0.22394
2414.56270	0.22493
2412.63413	0.22586
2410.70557	0.22699
2408.77700	0.22824
2406.84844	0.22953
2404.91987	0.23076
2402.99131	0.23184
2401.06274	0.23295
2399.13418	0.23420
2397.20562	0.23538
2395.27705	0.23655
2393.34849	0.23783
2391.41992	0.23914
2389.49136	0.24039
2387.56279	0.24165
2385.63423	0.24299
2383.70566	0.24446
2381.77710	0.24588
2379.84854	0.24706
2377.91997	0.24824
2375.99141	0.24972
2374.06284	0.25128
2372.13428	0.25246
2370.20571	0.25332
2368.27715	0.25462
2366.34858	0.25691
2364.42002	0.25959
2362.49146	0.26175
2360.56289	0.26342
2358.63433	0.26489
2356.70576	0.26598
2354.77720	0.26727
2352.84863	0.26894
2350.92007	0.27013
2348.99150	0.27080
2347.06294	0.27172
2345.13437	0.27348
2343.20581	0.27553
2341.27725	0.27693
2339.34868	0.27818
2337.42012	0.27979
2335.49155	0.28168
2333.56299	0.28351
2331.63442	0.28524
2329.70586	0.28684
2327.77729	0.28850
2325.84873	0.29036
2323.92017	0.29202
2321.99160	0.29352
2320.06304	0.29511
2318.13447	0.29664
2316.20591	0.29825
2314.27734	0.30013
2312.34878	0.30208
2310.42021	0.30395
2308.49165	0.30571
2306.56309	0.30752
2304.63452	0.30940
2302.70596	0.31119
2300.77739	0.31296
2298.84883	0.31488
2296.92026	0.31689
2294.99170	0.31868
2293.06313	0.32037
2291.13457	0.32229
2289.20601	0.32439
2287.27744	0.32646
2285.34888	0.32841
2283.42031	0.33030
2281.49175	0.33227
2279.56318	0.33438
2277.63462	0.33651
2275.70605	0.33853
2273.77749	0.34044
2271.84893	0.34239
2269.92036	0.34454
2267.99180	0.34687
2266.06323	0.34908
2264.13467	0.35102
2262.20610	0.35300
2260.27754	0.35517
2258.34897	0.35742
2256.42041	0.35956
2254.49185	0.36157
2252.56328	0.36371
2250.63472	0.36614
2248.70615	0.36853
2246.77759	0.37065
2244.84902	0.37275
2242.92046	0.37506
2240.99189	0.37740
2239.06333	0.37960
2237.13477	0.38182
2235.20620	0.38414
2233.27764	0.38638
2231.34907	0.38861
2229.42051	0.39090
2227.49194	0.39313
2225.56338	0.39526
2223.63481	0.39745
2221.70625	0.39972
2219.77769	0.40200
2217.84912	0.40427
2215.92056	0.40645
2213.99199	0.40847
2212.06343	0.41042
2210.13486	0.41243
2208.20630	0.41462
2206.27773	0.41690
2204.34917	0.41909
2202.42061	0.42114
2200.49204	0.42312
2198.56348	0.42506
2196.63491	0.42703
2194.70635	0.42903
2192.77778	0.43101
2190.84922	0.43297
2188.92065	0.43493
2186.99209	0.43679
2185.06353	0.43846
2183.13496	0.44003
2181.20640	0.44171
2179.27783	0.44341
2177.34927	0.44499
2175.42070	0.44650
2173.49214	0.44797
2171.56357	0.44947
2169.63501	0.45104
2167.70645	0.45240
2165.77788	0.45347
2163.84932	0.45451
2161.92075	0.45569
2159.99219	0.45689
2158.06362	0.45799
2156.13506	0.45900
2154.20649	0.45994
2152.27793	0.46078
2150.34937	0.46148
2148.42080	0.46197
2146.49224	0.46223
2144.56367	0.46251
2142.63511	0.46301
2140.70654	0.46349
2138.77798	0.46376
2136.84941	0.46386
2134.92085	0.46386
2132.99229	0.46382
2131.06372	0.46372
2129.13516	0.46361
2127.20659	0.46344
2125.27803	0.46294
2123.34946	0.46226
2121.42090	0.46174
2119.49233	0.46127
2117.56377	0.46064
2115.63521	0.45992
2113.70664	0.45914
2111.77808	0.45821
2109.84951	0.45717
2107.92095	0.45604
2105.99238	0.45479
2104.06382	0.45350
2102.13525	0.45213
2100.20669	0.45062
2098.27812	0.44908
2096.34956	0.44761
2094.42100	0.44607
2092.49243	0.44435
2090.56387	0.44255
2088.63530	0.44077
2086.70674	0.43898
2084.77817	0.43718
2082.84961	0.43537
2080.92104	0.43346
2078.99248	0.43140
2077.06392	0.42918
2075.13535	0.42690
2073.20679	0.42459
2071.27822	0.42222
2069.34966	0.41982
2067.42109	0.41749
2065.49253	0.41521
2063.56396	0.41283
2061.63540	0.41032
2059.70684	0.40770
2057.77827	0.40512
2055.84971	0.40261
2053.92114	0.39997
2051.99258	0.39727
2050.06401	0.39462
2048.13545	0.39197
2046.20688	0.38922
2044.27832	0.38651
2042.34976	0.38388
2040.42119	0.38118
2038.49263	0.37841
2036.56406	0.37564
2034.63550	0.37285
2032.70693	0.37008
2030.77837	0.36740
2028.84980	0.36473
2026.92124	0.36200
2024.99268	0.35912
2023.06411	0.35617
2021.13555	0.35331
2019.20698	0.35056
2017.27842	0.34783
2015.34985	0.34501
2013.42129	0.34223
2011.49272	0.33955
2009.56416	0.33689
2007.63560	0.33405
2005.70703	0.33112
2003.77847	0.32833
2001.84990	0.32575
1999.92134	0.32326
1997.99277	0.32077
1996.06421	0.31826
1994.13564	0.31573
1992.20708	0.31325
1990.27852	0.31078
1988.34995	0.30826
1986.42139	0.30567
1984.49282	0.30315
1982.56426	0.30081
1980.63569	0.29853
1978.70713	0.29632
1976.77856	0.29416
1974.85000	0.29193
1972.92144	0.28959
1970.99287	0.28738
1969.06431	0.28542
1967.13574	0.28346
1965.20718	0.28134
1963.27861	0.27937
1961.35005	0.27753
1959.42148	0.27558
1957.49292	0.27365
1955.56436	0.27184
1953.63579	0.27013
1951.70723	0.26848
1949.77866	0.26684
1947.85010	0.26521
1945.92153	0.26372
1943.99297	0.26229
1942.06440	0.26082
1940.13584	0.25933
1938.20728	0.25796
1936.27871	0.25667
1934.35015	0.25535
1932.42158	0.25407
1930.49302	0.25286
1928.56445	0.25173
1926.63589	0.25072
1924.70732	0.24982
1922.77876	0.24887
1920.85020	0.24787
1918.92163	0.24697
1916.99307	0.24607
1915.06450	0.24513
1913.13594	0.24427
1911.20737	0.24356
1909.27881	0.24284
1907.35024	0.24216
1905.42168	0.24155
1903.49312	0.24097
1901.56455	0.24041
1899.63599	0.23992
1897.70742	0.23957
1895.77886	0.23917
1893.85029	0.23869
1891.92173	0.23828
1889.99316	0.23808
1888.06460	0.23794
1886.13604	0.23775
1884.20747	0.23757
1882.27891	0.23742
1880.35034	0.23731
1878.42178	0.23724
1876.49321	0.23723
1874.56465	0.23722
1872.63608	0.23733
1870.70752	0.23754
1868.77896	0.23788
1866.85039	0.23820
1864.92183	0.23835
1862.99326	0.23848
1861.06470	0.23861
1859.13613	0.23884
1857.20757	0.23919
1855.27900	0.23971
1853.35044	0.24021
1851.42187	0.24072
1849.49331	0.24131
1847.56475	0.24205
1845.63618	0.24295
1843.70762	0.24397
1841.77905	0.24480
1839.85049	0.24527
1837.92192	0.24595
1835.99336	0.24681
1834.06479	0.24775
1832.13623	0.24880
1830.20767	0.25021
1828.27910	0.25172
1826.35054	0.25287
1824.42197	0.25412
1822.49341	0.25541
1820.56484	0.25672
1818.63628	0.25809
1816.70771	0.25965
1814.77915	0.26130
1812.85059	0.26309
1810.92202	0.26508
1808.99346	0.26715
1807.06489	0.26917
1805.13633	0.27111
1803.20776	0.27316
1801.27920	0.27553
1799.35063	0.27846
1797.42207	0.28123
1795.49351	0.28363
1793.56494	0.28630
1791.63638	0.28991
1789.70781	0.29359
1787.77925	0.29640
1785.85068	0.29953
1783.92212	0.30311
1781.99355	0.30699
1780.06499	0.31117
1778.13643	0.31561
1776.20786	0.31980
1774.27930	0.32411
1772.35073	0.32984
1770.42217	0.33624
1768.49360	0.34168
1766.56504	0.34684
1764.63647	0.35220
1762.70791	0.35816
1760.77935	0.36570
1758.85078	0.37282
1756.92222	0.37989
1754.99365	0.38759
1753.06509	0.39465
1751.13652	0.40301
1749.20796	0.41355
1747.27939	0.42416
1745.35083	0.43366
1743.42227	0.44361
1741.49370	0.45448
1739.56514	0.46727
1737.63657	0.48003
1735.70801	0.49108
1733.77944	0.50750
1731.85088	0.52732
1729.92231	0.54313
1727.99375	0.55897
1726.06519	0.57587
1724.13662	0.59434
1722.20806	0.61432
1720.27949	0.63274
1718.35093	0.65417
1716.42236	0.68586
1714.49380	0.71640
1712.56523	0.74156
1710.63667	0.76596
1708.70811	0.79179
1706.77954	0.82075
1704.85098	0.85527
1702.92241	0.88627
1700.99385	0.91693
1699.06528	0.96208
1697.13672	1.00362
1695.20815	1.04631
1693.27959	1.08778
1691.35103	1.12107
1689.42246	1.15889
1687.49390	1.19849
1685.56533	1.23701
1683.63677	1.29566
1681.70820	1.35576
1679.77964	1.39470
1677.85107	1.43218
1675.92251	1.47566
1673.99395	1.52851
1672.06538	1.57433
1670.13682	1.61948
1668.20825	1.67828
1666.27969	1.72459
1664.35112	1.76193
1662.42256	1.80850
1660.49399	1.86148
1658.56543	1.90251
1656.63687	1.93547
1654.70830	1.96704
1652.77974	2.01976
1650.85117	2.07147
1648.92261	2.09204
1646.99404	2.11903
1645.06548	2.15090
1643.13691	2.17125
1641.20835	2.18336
1639.27979	2.19615
1637.35122	2.20700
1635.42266	2.20921
1633.49409	2.20035
1631.56553	2.18664
1629.63696	2.17110
1627.70840	2.14720
1625.77983	2.11957
1623.85127	2.08320
1621.92271	2.03701
1619.99414	1.99612
1618.06558	1.95682
1616.13701	1.89920
1614.20845	1.83859
1612.27988	1.79172
1610.35132	1.74309
1608.42275	1.69140
1606.49419	1.64096
1604.56562	1.59397
1602.63706	1.54809
1600.70850	1.50287
1598.77993	1.46068
1596.85137	1.42076
1594.92280	1.38213
1592.99424	1.34443
1591.06567	1.30939
1589.13711	1.27633
1587.20854	1.24487
1585.27998	1.21507
1583.35142	1.18688
1581.42285	1.16086
1579.49429	1.13842
1577.56572	1.11800
1575.63716	1.09260
1573.70859	1.06986
1571.78003	1.05478
1569.85146	1.03827
1567.92290	1.01926
1565.99434	1.00437
1564.06577	0.99180
1562.13721	0.98124
1560.20864	0.97269
1558.28008	0.95890
1556.35151	0.94584
1554.42295	0.93747
1552.49438	0.92905
1550.56582	0.92026
1548.63726	0.91104
1546.70869	0.90258
1544.78013	0.89424
1542.85156	0.88520
1540.92300	0.87420
1538.99443	0.85763
1537.06587	0.84496
1535.13730	0.83672
1533.20874	0.82657
1531.28018	0.81556
1529.35161	0.80736
1527.42305	0.79969
1525.49448	0.79157
1523.56592	0.78416
1521.63735	0.77681
1519.70879	0.76922
1517.78022	0.76263
1515.85166	0.75553
1513.92310	0.74853
1511.99453	0.74266
1510.06597	0.73756
1508.13740	0.73309
1506.20884	0.72633
1504.28027	0.71945
1502.35171	0.71498
1500.42314	0.71122
1498.49458	0.70755
1496.56602	0.70334
1494.63745	0.69891
1492.70889	0.69529
1490.78032	0.69235
1488.85176	0.68926
1486.92319	0.68604
1484.99463	0.68325
1483.06606	0.68097
1481.13750	0.67892
1479.20894	0.67711
1477.28037	0.67568
1475.35181	0.67436
1473.42324	0.67290
1471.49468	0.67074
1469.56611	0.66836
1467.63755	0.66634
1465.70898	0.66436
1463.78042	0.66202
1461.85186	0.65985
1459.92329	0.65837
1457.99473	0.65705
1456.06616	0.65473
1454.13760	0.65177
1452.20903	0.64912
1450.28047	0.64665
1448.35190	0.64429
1446.42334	0.64188
1444.49478	0.63949
1442.56621	0.63719
1440.63765	0.63502
1438.70908	0.63303
1436.78052	0.63087
1434.85195	0.62857
1432.92339	0.62661
1430.99482	0.62502
1429.06626	0.62359
1427.13770	0.62225
1425.20913	0.62109
1423.28057	0.62006
1421.35200	0.61908
1419.42344	0.61806
1417.49487	0.61665
1415.56631	0.61497
1413.63774	0.61346
1411.70918	0.61207
1409.78062	0.61084
1407.85205	0.60988
1405.92349	0.60914
1403.99492	0.60832
1402.06636	0.60719
1400.13779	0.60590
1398.20923	0.60451
1396.28066	0.60288
1394.35210	0.60083
1392.42354	0.59859
1390.49497	0.59656
1388.56641	0.59482
1386.63784	0.59304
1384.70928	0.59107
1382.78071	0.58912
1380.85215	0.58733
1378.92358	0.58573
1376.99502	0.58434
1375.06646	0.58326
1373.13789	0.58242
1371.20933	0.58170
1369.28076	0.58096
1367.35220	0.57997
1365.42363	0.57885
1363.49507	0.57788
1361.56650	0.57697
1359.63794	0.57578
1357.70937	0.57450
1355.78081	0.57341
1353.85225	0.57243
1351.92368	0.57143
1349.99512	0.57046
1348.06655	0.56943
1346.13799	0.56834
1344.20942	0.56729
1342.28086	0.56628
1340.35229	0.56538
1338.42373	0.56453
1336.49517	0.56354
1334.56660	0.56256
1332.63804	0.56187
1330.70947	0.56128
1328.78091	0.56068
1326.85234	0.56027
1324.92378	0.55997
1322.99521	0.55959
1321.06665	0.55911
1319.13809	0.55861
1317.20952	0.55807
1315.28096	0.55750
1313.35239	0.55680
1311.42383	0.55584
1309.49526	0.55482
1307.56670	0.55390
1305.63813	0.55303
1303.70957	0.55223
1301.78101	0.55150
1299.85244	0.55069
1297.92388	0.54986
1295.99531	0.54917
1294.06675	0.54841
1292.13818	0.54747
1290.20962	0.54669
1288.28105	0.54607
1286.35249	0.54541
1284.42393	0.54474
1282.49536	0.54403
1280.56680	0.54333
1278.63823	0.54266
1276.70967	0.54193
1274.78110	0.54129
1272.85254	0.54075
1270.92397	0.54019
1268.99541	0.53966
1267.06685	0.53917
1265.13828	0.53868
1263.20972	0.53825
1261.28115	0.53785
1259.35259	0.53741
1257.42402	0.53693
1255.49546	0.53648
1253.56689	0.53612
1251.63833	0.53584
1249.70977	0.53559
1247.78120	0.53531
1245.85264	0.53492
1243.92407	0.53438
1241.99551	0.53374
1240.06694	0.53315
1238.13838	0.53256
1236.20981	0.53173
1234.28125	0.53056
1232.35269	0.52940
1230.42412	0.52839
1228.49556	0.52737
1226.56699	0.52637
1224.63843	0.52556
1222.70986	0.52474
1220.78130	0.52374
1218.85273	0.52275
1216.92417	0.52193
1214.99561	0.52119
1213.06704	0.52049
1211.13848	0.51979
1209.20991	0.51899
1207.28135	0.51823
1205.35278	0.51759
1203.42422	0.51704
1201.49565	0.51651
1199.56709	0.51586
1197.63853	0.51515
1195.70996	0.51447
1193.78140	0.51395
1191.85283	0.51364
1189.92427	0.51335
1187.99570	0.51309
1186.06714	0.51288
1184.13857	0.51260
1182.21001	0.51246
1180.28145	0.51270
1178.35288	0.51318
1176.42432	0.51381
1174.49575	0.51459
1172.56719	0.51549
1170.63862	0.51636
1168.71006	0.51718
1166.78149	0.51805
1164.85293	0.51883
1162.92437	0.51930
1160.99580	0.51932
1159.06724	0.51904
1157.13867	0.51881
1155.21011	0.51844
1153.28154	0.51752
1151.35298	0.51611
1149.42441	0.51436
1147.49585	0.51226
1145.56729	0.50981
1143.63872	0.50723
1141.71016	0.50470
1139.78159	0.50235
1137.85303	0.50032
1135.92446	0.49858
1133.99590	0.49704
1132.06733	0.49581
1130.13877	0.49482
1128.21021	0.49395
1126.28164	0.49320
1124.35308	0.49251
1122.42451	0.49190
1120.49595	0.49145
1118.56738	0.49117
1116.63882	0.49118
1114.71025	0.49155
1112.78169	0.49195
1110.85312	0.49231
1108.92456	0.49291
1106.99600	0.49398
1105.06743	0.49526
1103.13887	0.49623
1101.21030	0.49709
1099.28174	0.49860
1097.35317	0.50087
1095.42461	0.50359
1093.49604	0.50687
1091.56748	0.51123
1089.63892	0.51693
1087.71035	0.52390
1085.78179	0.53192
1083.85322	0.54023
1081.92466	0.54765
1079.99609	0.55331
1078.06753	0.55662
1076.13896	0.55708
1074.21040	0.55477
1072.28184	0.55013
1070.35327	0.54371
1068.42471	0.53649
1066.49614	0.52945
1064.56758	0.52298
1062.63901	0.51727
1060.71045	0.51246
1058.78188	0.50837
1056.85332	0.50466
1054.92476	0.50125
1052.99619	0.49836
1051.06763	0.49610
1049.13906	0.49436
1047.21050	0.49326
1045.28193	0.49291
1043.35337	0.49295
1041.42480	0.49299
1039.49624	0.49312
1037.56768	0.49322
1035.63911	0.49299
1033.71055	0.49244
1031.78198	0.49170
1029.85342	0.49084
1027.92485	0.49001
1025.99629	0.48923
1024.06772	0.48849
1022.13916	0.48806
1020.21060	0.48820
1018.28203	0.48861
1016.35347	0.48888
1014.42490	0.48908
1012.49634	0.48947
1010.56777	0.48993
1008.63921	0.49028
1006.71064	0.49087
1004.78208	0.49212
1002.85352	0.49402
1000.92495	0.49650
998.99639	0.49970
997.06782	0.50360
995.13926	0.50782
993.21069	0.51187
991.28213	0.51521
989.35356	0.51746
987.42500	0.51864
985.49644	0.51905
983.56787	0.51919
981.63931	0.51958
979.71074	0.52064
977.78218	0.52244
975.85361	0.52474
973.92505	0.52738
971.99648	0.53052
970.06792	0.53413
968.13936	0.53801
966.21079	0.54227
964.28223	0.54688
962.35366	0.55164
960.42510	0.55683
958.49653	0.56270
956.56797	0.56877
954.63940	0.57465
952.71084	0.58075
950.78228	0.58730
948.85371	0.59385
946.92515	0.60020
944.99658	0.60667
943.06802	0.61332
941.13945	0.61972
939.21089	0.62565
937.28232	0.63127
935.35376	0.63699
933.42520	0.64270
931.49663	0.64791
929.56807	0.65326
927.63950	0.65954
925.71094	0.66611
923.78237	0.67260
921.85381	0.67949
919.92524	0.68677
917.99668	0.69394
916.06812	0.70117
914.13955	0.70931
912.21099	0.71811
910.28242	0.72681
908.35386	0.73510
906.42529	0.74325
904.49673	0.75285
902.56816	0.76375
900.63960	0.77363
898.71104	0.78233
896.78247	0.79143
894.85391	0.80128
892.92534	0.81156
890.99678	0.82237
889.06821	0.83341
887.13965	0.84378
885.21108	0.85424
883.28252	0.86594
881.35396	0.87708
879.42539	0.88713
877.49683	0.89830
875.56826	0.91155
873.63970	0.92526
871.71113	0.93686
869.78257	0.94632
867.85400	0.95590
865.92544	0.96718
863.99687	0.98047
862.06831	0.99468
860.13975	1.00736
858.21118	1.01711
856.28262	1.02687
854.35405	1.04056
852.42549	1.05519
850.49692	1.06691
848.56836	1.07885
846.63979	1.09222
844.71123	1.10470
842.78267	1.11470
840.85410	1.12298
838.92554	1.13376
836.99697	1.14824
835.06841	1.16193
833.13984	1.17325
831.21128	1.18458
829.28271	1.19519
827.35415	1.20541
825.42559	1.21837
823.49702	1.23444
821.56846	1.24892
819.63989	1.25798
817.71133	1.26856
815.78276	1.28889
813.85420	1.31536
811.92563	1.33671
809.99707	1.35060
808.06851	1.36862
806.13994	1.39428
804.21138	1.41287
802.28281	1.42206
800.35425	1.42540
798.42568	1.42679
796.49712	1.45552
794.56855	1.51631
792.63999	1.60702
790.71143	1.78388
788.78286	1.90325
786.85430	1.76821
784.92573	1.87114
782.99717	2.69574
781.06860	2.43591
779.14004	2.06618
777.21147	2.11494
775.28291	2.02705
773.35435	1.79002
771.42578	1.55295
769.49722	1.48018
767.56865	1.61903
765.64009	2.00226
763.71152	1.84452
761.78296	1.48832
759.85439	1.31560
757.92583	1.23525
755.99727	1.21690
754.06870	1.23542
752.14014	1.27399
750.21157	1.29828
748.28301	1.22840
746.35444	1.13528
744.42588	1.11643
742.49731	1.10650
740.56875	0.99065
738.64019	0.88996
736.71162	0.87114
734.78306	0.85920
732.85449	0.79693
730.92593	0.75898
728.99736	0.77951
727.06880	0.80146
725.14023	0.69132
723.21167	0.54768
721.28311	0.51359
719.35454	0.50417
717.42598	0.43575
715.49741	0.36130
713.56885	0.28729
711.64028	0.22780
709.71172	0.21167
707.78315	0.21224
705.85459	0.17846
703.92603	0.16217
701.99746	0.19306
700.06890	0.21970
698.14033	0.20556
696.21177	0.19859
694.28320	0.18574
692.35464	0.12952
690.42607	0.07908
688.49751	0.04903
686.56895	0.03641
684.64038	0.04777
682.71182	0.07873
680.78325	0.15820
678.85469	0.31934
676.92612	0.41132
674.99756	0.30901
673.06899	0.17994
671.14043	0.12096
669.21187	0.17455
667.28330	0.21967
665.35474	0.18485
663.42617	0.09136
661.49761	0.06894
659.56904	0.15923
657.64048	0.23402
655.71191	0.16070
653.78335	0.12530
651.85479	0.11916
649.92622	0.10462
647.99766	0.09138
646.06909	0.09096
644.14053	0.14616
642.21196	0.23675
640.28340	0.24036
638.35483	0.21111
636.42627	0.26109
634.49771	0.39272
632.56914	0.31356
630.64058	0.16090
628.71201	0.15429
626.78345	0.18517
624.85488	0.14524
622.92632	0.09616
620.99775	0.12899
619.06919	0.19928
617.14062	0.21606
615.21206	0.18789
613.28350	0.16731
611.35493	0.18046
609.42637	0.19351
607.49780	0.14157
605.56924	0.07398
603.64067	0.06285
601.71211	0.07721
599.78354	0.07794
597.85498	0.06804
595.92642	0.06048
593.99785	0.08106
592.06929	0.14198
590.14072	0.18725
588.21216	0.15935
586.28359	0.11253
584.35503	0.10065
582.42646	0.06894
580.49790	0.01362
578.56934	0.03700
576.64077	0.17226
574.71221	0.33349
572.78364	0.28536
570.85508	0.13558
568.92651	0.04309
566.99795	0.05058
565.06938	0.11579
563.14082	0.17926
561.21226	0.17990
559.28369	0.12499
557.35513	0.07771
555.42656	0.09544
553.49800	0.20323
551.56943	0.29145
549.64087	0.20602
547.71230	0.14471
545.78374	0.13799
543.85518	0.15003
541.92661	0.12564
539.99805	0.05719
538.06948	0.02755
536.14092	0.05820
534.21235	0.10198
532.28379	0.12912
530.35522	0.07907
528.42666	0.01414
526.49810	0.02438
524.56953	0.04457
522.64097	0.05000
520.71240	0.08960
518.78384	0.12095
516.85527	0.11444
514.92671	0.11276
512.99814	0.10849
511.06958	0.05537
509.14102	0.01329
507.21245	0.02180
505.28389	0.03445
503.35532	0.00992
501.42676	-0.02214
499.49819	-0.01721
