3997.91411	0.05637
3995.98555	0.05682
3994.05698	0.05726
3992.12842	0.05777
3990.19985	0.05807
3988.27129	0.05794
3986.34272	0.05764
3984.41416	0.05785
3982.48560	0.05836
3980.55703	0.05842
3978.62847	0.05834
3976.69990	0.05917
3974.77134	0.06064
3972.84277	0.06168
3970.91421	0.06193
3968.98564	0.06172
3967.05708	0.06138
3965.12852	0.06124
3963.19995	0.06179
3961.27139	0.06263
3959.34282	0.06277
3957.41426	0.06234
3955.48569	0.06203
3953.55713	0.06237
3951.62856	0.06394
3949.70000	0.06619
3947.77144	0.06711
3945.84287	0.06644
3943.91431	0.06661
3941.98574	0.06731
3940.05718	0.06597
3938.12861	0.06377
3936.20005	0.06288
3934.27148	0.06399
3932.34292	0.06683
3930.41436	0.06864
3928.48579	0.06763
3926.55723	0.06679
3924.62866	0.06814
3922.70010	0.06882
3920.77153	0.06752
3918.84297	0.06726
3916.91440	0.06807
3914.98584	0.06672
3913.05728	0.06378
3911.12871	0.06193
3909.20015	0.06183
3907.27158	0.06420
3905.34302	0.06987
3903.41445	0.07632
3901.48589	0.07889
3899.55732	0.07711
3897.62876	0.07265
3895.70020	0.06826
3893.77163	0.06754
3891.84307	0.07025
3889.91450	0.07123
3887.98594	0.06954
3886.05737	0.07031
3884.12881	0.07290
3882.20024	0.07412
3880.27168	0.07456
3878.34312	0.07227
3876.41455	0.06927
3874.48599	0.07081
3872.55742	0.07544
3870.62886	0.07940
3868.70029	0.08036
3866.77173	0.07824
3864.84316	0.07832
3862.91460	0.07987
3860.98604	0.07725
3859.05747	0.07358
3857.12891	0.07437
3855.20034	0.08052
3853.27178	0.09029
3851.34321	0.09232
3849.41465	0.08359
3847.48608	0.07641
3845.55752	0.07427
3843.62896	0.07691
3841.70039	0.08252
3839.77183	0.08891
3837.84326	0.09321
3835.91470	0.09193
3833.98613	0.08799
3832.05757	0.08515
3830.12900	0.08297
3828.20044	0.08210
3826.27187	0.08356
3824.34331	0.08606
3822.41475	0.09033
3820.48618	0.09680
3818.55762	0.09855
3816.62905	0.09611
3814.70049	0.09295
3812.77192	0.08842
3810.84336	0.08580
3808.91479	0.08729
3806.98623	0.09192
3805.05767	0.09614
3803.12910	0.09992
3801.20054	0.10535
3799.27197	0.10672
3797.34341	0.10349
3795.41484	0.10034
3793.48628	0.09689
3791.55771	0.09483
3789.62915	0.09549
3787.70059	0.09786
3785.77202	0.10115
3783.84346	0.10383
3781.91489	0.10514
3779.98633	0.10735
3778.05776	0.10961
3776.12920	0.10893
3774.20063	0.10824
3772.27207	0.11090
3770.34351	0.11668
3768.41494	0.12190
3766.48638	0.12391
3764.55781	0.12440
3762.62925	0.12480
3760.70068	0.12789
3758.77212	0.13419
3756.84355	0.13869
3754.91499	0.14070
3752.98643	0.14581
3751.05786	0.15616
3749.12930	0.16382
3747.20073	0.16351
3745.27217	0.16383
3743.34360	0.16542
3741.41504	0.16394
3739.48647	0.16329
3737.55791	0.16725
3735.62935	0.17604
3733.70078	0.18336
3731.77222	0.18195
3729.84365	0.17732
3727.91509	0.17690
3725.98652	0.18263
3724.05796	0.19152
3722.12939	0.19992
3720.20083	0.20744
3718.27227	0.21444
3716.34370	0.22195
3714.41514	0.23160
3712.48657	0.24532
3710.55801	0.26164
3708.62944	0.27164
3706.70088	0.27604
3704.77231	0.28324
3702.84375	0.29648
3700.91519	0.31495
3698.98662	0.33313
3697.05806	0.34952
3695.12949	0.36833
3693.20093	0.39073
3691.27236	0.41826
3689.34380	0.45328
3687.41523	0.48786
3685.48667	0.51228
3683.55811	0.53442
3681.62954	0.56219
3679.70098	0.59679
3677.77241	0.63558
3675.84385	0.68170
3673.91528	0.73734
3671.98672	0.77899
3670.05815	0.81710
3668.12959	0.86707
3666.20103	0.90913
3664.27246	0.94550
3662.34390	0.98801
3660.41533	1.03598
3658.48677	1.08438
3656.55820	1.13656
3654.62964	1.19381
3652.70107	1.24225
3650.77251	1.28779
3648.84395	1.35037
3646.91538	1.41728
3644.98682	1.45977
3643.05825	1.49330
3641.12969	1.53090
3639.20112	1.57363
3637.27256	1.61716
3635.34399	1.66012
3633.41543	1.70355
3631.48687	1.74541
3629.55830	1.78999
3627.62974	1.84570
3625.70117	1.89210
3623.77261	1.92294
3621.84404	1.95676
3619.91548	1.99963
3617.98691	2.05067
3616.05835	2.09594
3614.12979	2.13281
3612.20122	2.17178
3610.27266	2.21024
3608.34409	2.24934
3606.41553	2.29021
3604.48696	2.32641
3602.55840	2.35972
3600.62983	2.39796
3598.70127	2.43953
3596.77271	2.47948
3594.84414	2.52062
3592.91558	2.56356
3590.98701	2.60422
3589.05845	2.64403
3587.12988	2.69142
3585.20132	2.73910
3583.27275	2.77693
3581.34419	2.81280
3579.41562	2.85219
3577.48706	2.89364
3575.55850	2.93563
3573.62993	2.97898
3571.70137	3.02146
3569.77280	3.06392
3567.84424	3.11200
3565.91567	3.16879
3563.98711	3.21860
3562.05854	3.25761
3560.12998	3.29694
3558.20142	3.33735
3556.27285	3.37828
3554.34429	3.42187
3552.41572	3.47075
3550.48716	3.52114
3548.55859	3.56778
3546.63003	3.61333
3544.70146	3.66270
3542.77290	3.71125
3540.84434	3.75517
3538.91577	3.79915
3536.98721	3.84433
3535.05864	3.89137
3533.13008	3.94051
3531.20151	3.99019
3529.27295	4.03896
3527.34438	4.08783
3525.41582	4.13382
3523.48726	4.17662
3521.55869	4.22330
3519.63013	4.27267
3517.70156	4.32088
3515.77300	4.36824
3513.84443	4.41708
3511.91587	4.46647
3509.98730	4.51599
3508.05874	4.56520
3506.13018	4.61003
3504.20161	4.65358
3502.27305	4.70221
3500.34448	4.75414
3498.41592	4.80425
3496.48735	4.85098
3494.55879	4.89564
3492.63022	4.94245
3490.70166	4.98872
3488.77310	5.03350
3486.84453	5.08502
3484.91597	5.13960
3482.98740	5.18845
3481.05884	5.23358
3479.13027	5.27818
3477.20171	5.32968
3475.27314	5.39000
3473.34458	5.44574
3471.41602	5.48953
3469.48745	5.53034
3467.55889	5.57824
3465.63032	5.63054
3463.70176	5.68415
3461.77319	5.73402
3459.84463	5.77423
3457.91606	5.81768
3455.98750	5.86852
3454.05894	5.91334
3452.13037	5.95967
3450.20181	6.01616
3448.27324	6.07017
3446.34468	6.11732
3444.41611	6.16057
3442.48755	6.20718
3440.55898	6.25950
3438.63042	6.31136
3436.70186	6.36103
3434.77329	6.41081
3432.84473	6.46117
3430.91616	6.51186
3428.98760	6.56295
3427.05903	6.60969
3425.13047	6.65221
3423.20190	6.69537
3421.27334	6.75802
3419.34478	6.82588
3417.41621	6.86575
3415.48765	6.89112
3413.55908	6.93497
3411.63052	7.00604
3409.70195	7.06608
3407.77339	7.10953
3405.84482	7.14217
3403.91626	7.16070
3401.98770	7.17297
3400.05913	7.17260
3398.13057	7.18347
3396.20200	7.24126
3394.27344	7.32812
3392.34487	7.40180
3390.41631	7.47557
3388.48774	7.52660
3386.55918	7.53020
3384.63062	7.54162
3382.70205	7.57743
3380.77349	7.59330
3378.84492	7.58981
3376.91636	7.62613
3374.98779	7.69691
3373.05923	7.75117
3371.13066	7.77382
3369.20210	7.77831
3367.27354	7.78129
3365.34497	7.82993
3363.41641	7.90526
3361.48784	7.90592
3359.55928	7.85992
3357.63071	7.83638
3355.70215	7.82053
3353.77358	7.81462
3351.84502	7.84420
3349.91646	7.88864
3347.98789	7.94701
3346.05933	8.00616
3344.13076	8.03077
3342.20220	8.03030
3340.27363	8.03422
3338.34507	8.05501
3336.41650	8.05374
3334.48794	8.05782
3332.55937	8.09817
3330.63081	8.13280
3328.70225	8.13442
3326.77368	8.12373
3324.84512	8.12345
3322.91655	8.13837
3320.98799	8.17592
3319.05942	8.21420
3317.13086	8.24276
3315.20229	8.23654
3313.27373	8.19711
3311.34517	8.16267
3309.41660	8.14712
3307.48804	8.14146
3305.55947	8.11153
3303.63091	8.07828
3301.70234	8.11052
3299.77378	8.18022
3297.84521	8.17610
3295.91665	8.12873
3293.98809	8.12502
3292.05952	8.20012
3290.13096	8.28111
3288.20239	8.25593
3286.27383	8.21867
3284.34526	8.22248
3282.41670	8.20956
3280.48813	8.20050
3278.55957	8.21594
3276.63101	8.21152
3274.70244	8.21057
3272.77388	8.22573
3270.84531	8.20108
3268.91675	8.17207
3266.98818	8.19414
3265.05962	8.22136
3263.13105	8.22137
3261.20249	8.23601
3259.27393	8.22487
3257.34536	8.16798
3255.41680	8.13813
3253.48823	8.15278
3251.55967	8.12454
3249.63110	8.04379
3247.70254	8.04519
3245.77397	8.13802
3243.84541	8.21693
3241.91685	8.25842
3239.98828	8.28607
3238.05972	8.23902
3236.13115	8.12869
3234.20259	8.06529
3232.27402	8.06809
3230.34546	8.09807
3228.41689	8.13105
3226.48833	8.16756
3224.55977	8.16046
3222.63120	8.09552
3220.70264	8.05173
3218.77407	8.04595
3216.84551	8.01165
3214.91694	7.94435
3212.98838	7.92497
3211.05981	7.93945
3209.13125	7.90170
3207.20269	7.83802
3205.27412	7.80567
3203.34556	7.76529
3201.41699	7.72106
3199.48843	7.71721
3197.55986	7.69691
3195.63130	7.62453
3193.70273	7.55166
3191.77417	7.52076
3189.84561	7.51303
3187.91704	7.47200
3185.98848	7.40507
3184.05991	7.34451
3182.13135	7.28493
3180.20278	7.23283
3178.27422	7.18645
3176.34565	7.12563
3174.41709	7.07814
3172.48853	7.06288
3170.55996	7.03210
3168.63140	6.96015
3166.70283	6.86728
3164.77427	6.78166
3162.84570	6.71741
3160.91714	6.66949
3158.98857	6.62732
3157.06001	6.56096
3155.13145	6.46707
3153.20288	6.38318
3151.27432	6.32701
3149.34575	6.27415
3147.41719	6.19504
3145.48862	6.10979
3143.56006	6.04604
3141.63149	5.98545
3139.70293	5.91064
3137.77437	5.83887
3135.84580	5.77672
3133.91724	5.71069
3131.98867	5.63181
3130.06011	5.54605
3128.13154	5.47171
3126.20298	5.41134
3124.27441	5.34984
3122.34585	5.28135
3120.41729	5.21183
3118.48872	5.14149
3116.56016	5.06927
3114.63159	4.99950
3112.70303	4.93025
3110.77446	4.85731
3108.84590	4.78418
3106.91733	4.71842
3104.98877	4.65962
3103.06021	4.59895
3101.13164	4.53433
3099.20308	4.46824
3097.27451	4.40072
3095.34595	4.33311
3093.41738	4.26629
3091.48882	4.20333
3089.56025	4.14512
3087.63169	4.08499
3085.70312	4.02086
3083.77456	3.95723
3081.84600	3.89595
3079.91743	3.83597
3077.98887	3.77806
3076.06030	3.72242
3074.13174	3.66692
3072.20317	3.61060
3070.27461	3.55365
3068.34604	3.49613
3066.41748	3.43837
3064.48892	3.38304
3062.56035	3.33107
3060.63179	3.27910
3058.70322	3.22551
3056.77466	3.17212
3054.84609	3.12025
3052.91753	3.06915
3050.98896	3.01877
3049.06040	2.97012
3047.13184	2.92264
3045.20327	2.87447
3043.27471	2.82554
3041.34614	2.77755
3039.41758	2.73059
3037.48901	2.68388
3035.56045	2.63872
3033.63188	2.59569
3031.70332	2.55181
3029.77476	2.50632
3027.84619	2.46228
3025.91763	2.42022
3023.98906	2.37888
3022.06050	2.33825
3020.13193	2.29805
3018.20337	2.25795
3016.27480	2.21823
3014.34624	2.17908
3012.41768	2.14045
3010.48911	2.10293
3008.56055	2.06677
3006.63198	2.03112
3004.70342	1.99564
3002.77485	1.96067
3000.84629	1.92677
2998.91772	1.89398
2996.98916	1.86192
2995.06060	1.83059
2993.13203	1.80005
2991.20347	1.77041
2989.27490	1.74149
2987.34634	1.71289
2985.41777	1.68476
2983.48921	1.65747
2981.56064	1.63109
2979.63208	1.60511
2977.70352	1.57953
2975.77495	1.55522
2973.84639	1.53204
2971.91782	1.50881
2969.98926	1.48555
2968.06069	1.46314
2966.13213	1.44130
2964.20356	1.41929
2962.27500	1.39730
2960.34644	1.37563
2958.41787	1.35414
2956.48931	1.33223
2954.56074	1.30920
2952.63218	1.28544
2950.70361	1.26216
2948.77505	1.23917
2946.84648	1.21583
2944.91792	1.19359
2942.98936	1.17387
2941.06079	1.15534
2939.13223	1.13670
2937.20366	1.11841
2935.27510	1.10082
2933.34653	1.08375
2931.41797	1.06690
2929.48940	1.04986
2927.56084	1.03283
2925.63228	1.01599
2923.70371	0.99874
2921.77515	0.98099
2919.84658	0.96309
2917.91802	0.94445
2915.98945	0.92486
2914.06089	0.90588
2912.13232	0.88798
2910.20376	0.87027
2908.27520	0.85304
2906.34663	0.83678
2904.41807	0.82103
2902.48950	0.80574
2900.56094	0.79107
2898.63237	0.77695
2896.70381	0.76347
2894.77524	0.75028
2892.84668	0.73718
2890.91812	0.72467
2888.98955	0.71275
2887.06099	0.70119
2885.13242	0.69017
2883.20386	0.67983
2881.27529	0.67013
2879.34673	0.66088
2877.41816	0.65166
2875.48960	0.64259
2873.56104	0.63372
2871.63247	0.62423
2869.70391	0.61352
2867.77534	0.60193
2865.84678	0.59006
2863.91821	0.57847
2861.98965	0.56754
2860.06108	0.55745
2858.13252	0.54835
2856.20396	0.54017
2854.27539	0.53233
2852.34683	0.52416
2850.41826	0.51530
2848.48970	0.50561
2846.56113	0.49533
2844.63257	0.48541
2842.70400	0.47643
2840.77544	0.46820
2838.84687	0.46072
2836.91831	0.45392
2834.98975	0.44725
2833.06118	0.44055
2831.13262	0.43405
2829.20405	0.42775
2827.27549	0.42154
2825.34692	0.41543
2823.41836	0.40947
2821.48979	0.40359
2819.56123	0.39778
2817.63267	0.39201
2815.70410	0.38620
2813.77554	0.38046
2811.84697	0.37494
2809.91841	0.36960
2807.98984	0.36433
2806.06128	0.35907
2804.13271	0.35379
2802.20415	0.34853
2800.27559	0.34349
2798.34702	0.33870
2796.41846	0.33402
2794.48989	0.32932
2792.56133	0.32462
2790.63276	0.32000
2788.70420	0.31555
2786.77563	0.31121
2784.84707	0.30690
2782.91851	0.30278
2780.98994	0.29873
2779.06138	0.29454
2777.13281	0.29043
2775.20425	0.28658
2773.27568	0.28287
2771.34712	0.27917
2769.41855	0.27548
2767.48999	0.27189
2765.56143	0.26846
2763.63286	0.26503
2761.70430	0.26153
2759.77573	0.25804
2757.84717	0.25469
2755.91860	0.25153
2753.99004	0.24842
2752.06147	0.24533
2750.13291	0.24242
2748.20435	0.23968
2746.27578	0.23691
2744.34722	0.23415
2742.41865	0.23148
2740.49009	0.22884
2738.56152	0.22614
2736.63296	0.22349
2734.70439	0.22098
2732.77583	0.21853
2730.84727	0.21603
2728.91870	0.21355
2726.99014	0.21124
2725.06157	0.20906
2723.13301	0.20686
2721.20444	0.20472
2719.27588	0.20264
2717.34731	0.20057
2715.41875	0.19868
2713.49019	0.19701
2711.56162	0.19528
2709.63306	0.19345
2707.70449	0.19166
2705.77593	0.19000
2703.84736	0.18847
2701.91880	0.18696
2699.99023	0.18548
2698.06167	0.18406
2696.13311	0.18262
2694.20454	0.18114
2692.27598	0.17980
2690.34741	0.17857
2688.41885	0.17730
2686.49028	0.17605
2684.56172	0.17478
2682.63315	0.17347
2680.70459	0.17223
2678.77603	0.17110
2676.84746	0.17002
2674.91890	0.16897
2672.99033	0.16793
2671.06177	0.16699
2669.13320	0.16599
2667.20464	0.16488
2665.27607	0.16396
2663.34751	0.16320
2661.41895	0.16240
2659.49038	0.16158
2657.56182	0.16081
2655.63325	0.15993
2653.70469	0.15894
2651.77612	0.15813
2649.84756	0.15752
2647.91899	0.15686
2645.99043	0.15622
2644.06187	0.15567
2642.13330	0.15503
2640.20474	0.15442
2638.27617	0.15402
2636.34761	0.15361
2634.41904	0.15302
2632.49048	0.15249
2630.56191	0.15220
2628.63335	0.15190
2626.70479	0.15139
2624.77622	0.15090
2622.84766	0.15054
2620.91909	0.15018
2618.99053	0.14984
2617.06196	0.14959
2615.13340	0.14944
2613.20483	0.14934
2611.27627	0.14920
2609.34771	0.14901
2607.41914	0.14881
2605.49058	0.14869
2603.56201	0.14873
2601.63345	0.14874
2599.70488	0.14860
2597.77632	0.14854
2595.84775	0.14862
2593.91919	0.14866
2591.99062	0.14871
2590.06206	0.14885
2588.13350	0.14895
2586.20493	0.14898
2584.27637	0.14913
2582.34780	0.14934
2580.41924	0.14941
2578.49067	0.14943
2576.56211	0.14961
2574.63354	0.14998
2572.70498	0.15043
2570.77642	0.15085
2568.84785	0.15113
2566.91929	0.15139
2564.99072	0.15172
2563.06216	0.15208
2561.13359	0.15247
2559.20503	0.15291
2557.27646	0.15335
2555.34790	0.15381
2553.41934	0.15430
2551.49077	0.15475
2549.56221	0.15522
2547.63364	0.15578
2545.70508	0.15639
2543.77651	0.15695
2541.84795	0.15747
2539.91938	0.15802
2537.99082	0.15853
2536.06226	0.15911
2534.13369	0.15985
2532.20513	0.16056
2530.27656	0.16121
2528.34800	0.16186
2526.41943	0.16242
2524.49087	0.16290
2522.56230	0.16347
2520.63374	0.16414
2518.70518	0.16479
2516.77661	0.16553
2514.84805	0.16638
2512.91948	0.16717
2510.99092	0.16787
2509.06235	0.16862
2507.13379	0.16950
2505.20522	0.17028
2503.27666	0.17093
2501.34810	0.17172
2499.41953	0.17257
2497.49097	0.17336
2495.56240	0.17418
2493.63384	0.17499
2491.70527	0.17570
2489.77671	0.17643
2487.84814	0.17725
2485.91958	0.17816
2483.99102	0.17913
2482.06245	0.17999
2480.13389	0.18073
2478.20532	0.18146
2476.27676	0.18229
2474.34819	0.18320
2472.41963	0.18409
2470.49106	0.18487
2468.56250	0.18562
2466.63394	0.18641
2464.70537	0.18723
2462.77681	0.18816
2460.84824	0.18922
2458.91968	0.19016
2456.99111	0.19101
2455.06255	0.19194
2453.13398	0.19289
2451.20542	0.19386
2449.27686	0.19483
2447.34829	0.19583
2445.41973	0.19692
2443.49116	0.19793
2441.56260	0.19882
2439.63403	0.19977
2437.70547	0.20073
2435.77690	0.20153
2433.84834	0.20227
2431.91978	0.20313
2429.99121	0.20418
2428.06265	0.20536
2426.13408	0.20662
2424.20552	0.20789
2422.27695	0.20904
2420.34839	0.21004
2418.41982	0.21097
2416.49126	0.21197
2414.56270	0.21310
2412.63413	0.21428
2410.70557	0.21537
2408.77700	0.21647
2406.84844	0.21769
2404.91987	0.21899
2402.99131	0.22020
2401.06274	0.22132
2399.13418	0.22245
2397.20562	0.22364
2395.27705	0.22479
2393.34849	0.22592
2391.41992	0.22703
2389.49136	0.22796
2387.56279	0.22848
2385.63423	0.22805
2383.70566	0.22617
2381.77710	0.22272
2379.84854	0.21801
2377.91997	0.21223
2375.99141	0.20519
2374.06284	0.19680
2372.13428	0.18700
2370.20571	0.17584
2368.27715	0.16406
2366.34858	0.15315
2364.42002	0.14430
2362.49146	0.13861
2360.56289	0.13632
2358.63433	0.13762
2356.70576	0.14491
2354.77720	0.15827
2352.84863	0.17480
2350.92007	0.19094
2348.99150	0.20103
2347.06294	0.20196
2345.13437	0.19472
2343.20581	0.18586
2341.27725	0.18288
2339.34868	0.18451
2337.42012	0.18758
2335.49155	0.19136
2333.56299	0.19547
2331.63442	0.19958
2329.70586	0.20403
2327.77729	0.20914
2325.84873	0.21487
2323.92017	0.22084
2321.99160	0.22703
2320.06304	0.23399
2318.13447	0.24151
2316.20591	0.24849
2314.27734	0.25400
2312.34878	0.25813
2310.42021	0.26222
2308.49165	0.26723
2306.56309	0.27272
2304.63452	0.27776
2302.70596	0.28186
2300.77739	0.28531
2298.84883	0.28863
2296.92026	0.29192
2294.99170	0.29505
2293.06313	0.29816
2291.13457	0.30141
2289.20601	0.30471
2287.27744	0.30803
2285.34888	0.31130
2283.42031	0.31417
2281.49175	0.31634
2279.56318	0.31805
2277.63462	0.31967
2275.70605	0.32130
2273.77749	0.32306
2271.84893	0.32507
2269.92036	0.32712
2267.99180	0.32914
2266.06323	0.33133
2264.13467	0.33368
2262.20610	0.33602
2260.27754	0.33835
2258.34897	0.34074
2256.42041	0.34313
2254.49185	0.34547
2252.56328	0.34781
2250.63472	0.35017
2248.70615	0.35253
2246.77759	0.35491
2244.84902	0.35724
2242.92046	0.35949
2240.99189	0.36173
2239.06333	0.36396
2237.13477	0.36609
2235.20620	0.36819
2233.27764	0.37052
2231.34907	0.37298
2229.42051	0.37526
2227.49194	0.37739
2225.56338	0.37950
2223.63481	0.38160
2221.70625	0.38373
2219.77769	0.38593
2217.84912	0.38811
2215.92056	0.39024
2213.99199	0.39236
2212.06343	0.39444
2210.13486	0.39655
2208.20630	0.39877
2206.27773	0.40101
2204.34917	0.40311
2202.42061	0.40513
2200.49204	0.40713
2198.56348	0.40910
2196.63491	0.41102
2194.70635	0.41290
2192.77778	0.41480
2190.84922	0.41677
2188.92065	0.41874
2186.99209	0.42058
2185.06353	0.42218
2183.13496	0.42365
2181.20640	0.42531
2179.27783	0.42719
2177.34927	0.42897
2175.42070	0.43051
2173.49214	0.43201
2171.56357	0.43347
2169.63501	0.43475
2167.70645	0.43599
2165.77788	0.43725
2163.84932	0.43843
2161.92075	0.43951
2159.99219	0.44054
2158.06362	0.44150
2156.13506	0.44244
2154.20649	0.44341
2152.27793	0.44438
2150.34937	0.44523
2148.42080	0.44595
2146.49224	0.44663
2144.56367	0.44719
2142.63511	0.44752
2140.70654	0.44774
2138.77798	0.44806
2136.84941	0.44833
2134.92085	0.44839
2132.99229	0.44832
2131.06372	0.44828
2129.13516	0.44825
2127.20659	0.44813
2125.27803	0.44795
2123.34946	0.44766
2121.42090	0.44720
2119.49233	0.44669
2117.56377	0.44617
2115.63521	0.44558
2113.70664	0.44481
2111.77808	0.44386
2109.84951	0.44292
2107.92095	0.44200
2105.99238	0.44092
2104.06382	0.43986
2102.13525	0.43877
2100.20669	0.43741
2098.27812	0.43595
2096.34956	0.43453
2094.42100	0.43309
2092.49243	0.43168
2090.56387	0.43027
2088.63530	0.42864
2086.70674	0.42679
2084.77817	0.42491
2082.84961	0.42304
2080.92104	0.42109
2078.99248	0.41912
2077.06392	0.41719
2075.13535	0.41523
2073.20679	0.41310
2071.27822	0.41077
2069.34966	0.40850
2067.42109	0.40646
2065.49253	0.40454
2063.56396	0.40230
2061.63540	0.39977
2059.70684	0.39726
2057.77827	0.39476
2055.84971	0.39220
2053.92114	0.38962
2051.99258	0.38703
2050.06401	0.38449
2048.13545	0.38194
2046.20688	0.37934
2044.27832	0.37686
2042.34976	0.37455
2040.42119	0.37208
2038.49263	0.36925
2036.56406	0.36634
2034.63550	0.36355
2032.70693	0.36082
2030.77837	0.35812
2028.84980	0.35545
2026.92124	0.35279
2024.99268	0.35009
2023.06411	0.34737
2021.13555	0.34475
2019.20698	0.34240
2017.27842	0.34007
2015.34985	0.33719
2013.42129	0.33399
2011.49272	0.33104
2009.56416	0.32833
2007.63560	0.32564
2005.70703	0.32299
2003.77847	0.32037
2001.84990	0.31773
1999.92134	0.31512
1997.99277	0.31253
1996.06421	0.30998
1994.13564	0.30787
1992.20708	0.30613
1990.27852	0.30387
1988.34995	0.30094
1986.42139	0.29794
1984.49282	0.29525
1982.56426	0.29287
1980.63569	0.29059
1978.70713	0.28832
1976.77856	0.28612
1974.85000	0.28399
1972.92144	0.28180
1970.99287	0.27971
1969.06431	0.27810
1967.13574	0.27668
1965.20718	0.27456
1963.27861	0.27201
1961.35005	0.26982
1959.42148	0.26796
1957.49292	0.26622
1955.56436	0.26453
1953.63579	0.26276
1951.70723	0.26090
1949.77866	0.25920
1947.85010	0.25786
1945.92153	0.25691
1943.99297	0.25628
1942.06440	0.25521
1940.13584	0.25299
1938.20728	0.25062
1936.27871	0.24894
1934.35015	0.24759
1932.42158	0.24629
1930.49302	0.24499
1928.56445	0.24378
1926.63589	0.24285
1924.70732	0.24261
1922.77876	0.24260
1920.85020	0.24185
1918.92163	0.24087
1916.99307	0.23976
1915.06450	0.23800
1913.13594	0.23659
1911.20737	0.23625
1909.27881	0.23614
1907.35024	0.23536
1905.42168	0.23417
1903.49312	0.23321
1901.56455	0.23248
1899.63599	0.23188
1897.70742	0.23165
1895.77886	0.23176
1893.85029	0.23167
1891.92173	0.23148
1889.99316	0.23178
1888.06460	0.23153
1886.13604	0.23047
1884.20747	0.22970
1882.27891	0.22932
1880.35034	0.22909
1878.42178	0.22898
1876.49321	0.22893
1874.56465	0.22895
1872.63608	0.22954
1870.70752	0.23143
1868.77896	0.23399
1866.85039	0.23409
1864.92183	0.23193
1862.99326	0.23048
1861.06470	0.23031
1859.13613	0.23073
1857.20757	0.23108
1855.27900	0.23135
1853.35044	0.23167
1851.42187	0.23239
1849.49331	0.23368
1847.56475	0.23548
1845.63618	0.23761
1843.70762	0.23910
1841.77905	0.23861
1839.85049	0.23774
1837.92192	0.23818
1835.99336	0.23913
1834.06479	0.24004
1832.13623	0.24189
1830.20767	0.24501
1828.27910	0.24704
1826.35054	0.24739
1824.42197	0.24792
1822.49341	0.24816
1820.56484	0.24847
1818.63628	0.24958
1816.70771	0.25119
1814.77915	0.25286
1812.85059	0.25520
1810.92202	0.25807
1808.99346	0.26006
1807.06489	0.26125
1805.13633	0.26287
1803.20776	0.26576
1801.27920	0.26950
1799.35063	0.27277
1797.42207	0.27496
1795.49351	0.27748
1793.56494	0.28141
1791.63638	0.28575
1789.70781	0.28767
1787.77925	0.28839
1785.85068	0.29096
1783.92212	0.29492
1781.99355	0.29932
1780.06499	0.30375
1778.13643	0.30776
1776.20786	0.31205
1774.27930	0.31810
1772.35073	0.32600
1770.42217	0.33201
1768.49360	0.33526
1766.56504	0.33858
1764.63647	0.34317
1762.70791	0.34972
1760.77935	0.35783
1758.85078	0.36470
1756.92222	0.37165
1754.99365	0.37922
1753.06509	0.38680
1751.13652	0.39736
1749.20796	0.41017
1747.27939	0.42063
1745.35083	0.42871
1743.42227	0.43762
1741.49370	0.44796
1739.56514	0.46011
1737.63657	0.47207
1735.70801	0.48367
1733.77944	0.50152
1731.85088	0.51995
1729.92231	0.53293
1727.99375	0.54647
1726.06519	0.56205
1724.13662	0.58022
1722.20806	0.60031
1720.27949	0.62002
1718.35093	0.64502
1716.42236	0.67923
1714.49380	0.70704
1712.56523	0.72830
1710.63667	0.75077
1708.70811	0.77720
1706.77954	0.80853
1704.85098	0.84516
1702.92241	0.87713
1700.99385	0.90977
1699.06528	0.95815
1697.13672	1.00137
1695.20815	1.04379
1693.27959	1.08488
1691.35103	1.12027
1689.42246	1.16346
1687.49390	1.20982
1685.56533	1.25570
1683.63677	1.32455
1681.70820	1.39203
1679.77964	1.43395
1677.85107	1.47514
1675.92251	1.52455
1673.99395	1.58658
1672.06538	1.64259
1670.13682	1.69794
1668.20825	1.76789
1666.27969	1.82522
1664.35112	1.87667
1662.42256	1.94280
1660.49399	2.01580
1658.56543	2.07232
1656.63687	2.12032
1654.70830	2.16742
1652.77974	2.23468
1650.85117	2.28961
1648.92261	2.30798
1646.99404	2.33267
1645.06548	2.35590
1643.13691	2.36971
1641.20835	2.37669
1639.27979	2.38403
1637.35122	2.39031
1635.42266	2.38800
1633.49409	2.37204
1631.56553	2.35208
1629.63696	2.33195
1627.70840	2.30072
1625.77983	2.26456
1623.85127	2.22035
1621.92271	2.16553
1619.99414	2.11600
1618.06558	2.06937
1616.13701	2.00269
1614.20845	1.93143
1612.27988	1.87603
1610.35132	1.82110
1608.42275	1.76417
1606.49419	1.70784
1604.56562	1.65515
1602.63706	1.60486
1600.70850	1.55595
1598.77993	1.51064
1596.85137	1.46853
1594.92280	1.42802
1592.99424	1.38894
1591.06567	1.35350
1589.13711	1.32095
1587.20854	1.29126
1585.27998	1.26432
1583.35142	1.23932
1581.42285	1.21692
1579.49429	1.19923
1577.56572	1.18540
1575.63716	1.16832
1573.70859	1.15110
1571.78003	1.14054
1569.85146	1.13250
1567.92290	1.12358
1565.99434	1.11669
1564.06577	1.11320
1562.13721	1.11272
1560.20864	1.11750
1558.28008	1.12943
1556.35151	1.13496
1554.42295	1.13633
1552.49438	1.13928
1550.56582	1.14132
1548.63726	1.14053
1546.70869	1.13719
1544.78013	1.13182
1542.85156	1.12336
1540.92300	1.10667
1538.99443	1.07323
1537.06587	1.04498
1535.13730	1.02697
1533.20874	1.00494
1531.28018	0.98015
1529.35161	0.96197
1527.42305	0.94660
1525.49448	0.93138
1523.56592	0.91891
1521.63735	0.90742
1519.70879	0.89377
1517.78022	0.88133
1515.85166	0.86711
1513.92310	0.85142
1511.99453	0.83857
1510.06597	0.82931
1508.13740	0.82226
1506.20884	0.80571
1504.28027	0.78534
1502.35171	0.77424
1500.42314	0.76713
1498.49458	0.76092
1496.56602	0.75258
1494.63745	0.74220
1492.70889	0.73468
1490.78032	0.73057
1488.85176	0.72568
1486.92319	0.71776
1484.99463	0.71027
1483.06606	0.70536
1481.13750	0.70239
1479.20894	0.70055
1477.28037	0.70051
1475.35181	0.70264
1473.42324	0.70555
1471.49468	0.70514
1469.56611	0.70122
1467.63755	0.69832
1465.70898	0.69753
1463.78042	0.69682
1461.85186	0.69597
1459.92329	0.69751
1457.99473	0.70159
1456.06616	0.70212
1454.13760	0.69689
1452.20903	0.69219
1450.28047	0.68892
1448.35190	0.68641
1446.42334	0.68330
1444.49478	0.67967
1442.56621	0.67637
1440.63765	0.67343
1438.70908	0.67130
1436.78052	0.66899
1434.85195	0.66451
1432.92339	0.66016
1430.99482	0.65787
1429.06626	0.65665
1427.13770	0.65589
1425.20913	0.65659
1423.28057	0.65841
1421.35200	0.66013
1419.42344	0.66214
1417.49487	0.66269
1415.56631	0.66038
1413.63774	0.65851
1411.70918	0.65850
1409.78062	0.65969
1407.85205	0.66162
1405.92349	0.66447
1403.99492	0.66700
1402.06636	0.66794
1400.13779	0.66846
1398.20923	0.66851
1396.28066	0.66654
1394.35210	0.66187
1392.42354	0.65562
1390.49497	0.65023
1388.56641	0.64587
1386.63784	0.64059
1384.70928	0.63393
1382.78071	0.62758
1380.85215	0.62230
1378.92358	0.61815
1376.99502	0.61521
1375.06646	0.61360
1373.13789	0.61214
1371.20933	0.61028
1369.28076	0.60882
1367.35220	0.60736
1365.42363	0.60599
1363.49507	0.60527
1361.56650	0.60391
1359.63794	0.60134
1357.70937	0.59912
1355.78081	0.59761
1353.85225	0.59647
1351.92368	0.59570
1349.99512	0.59517
1348.06655	0.59442
1346.13799	0.59334
1344.20942	0.59243
1342.28086	0.59231
1340.35229	0.59301
1338.42373	0.59316
1336.49517	0.59198
1334.56660	0.59070
1332.63804	0.59017
1330.70947	0.59033
1328.78091	0.59098
1326.85234	0.59198
1324.92378	0.59318
1322.99521	0.59443
1321.06665	0.59576
1319.13809	0.59695
1317.20952	0.59749
1315.28096	0.59754
1313.35239	0.59739
1311.42383	0.59689
1309.49526	0.59621
1307.56670	0.59571
1305.63813	0.59530
1303.70957	0.59480
1301.78101	0.59413
1299.85244	0.59322
1297.92388	0.59216
1295.99531	0.59101
1294.06675	0.58975
1292.13818	0.58829
1290.20962	0.58678
1288.28105	0.58550
1286.35249	0.58433
1284.42393	0.58296
1282.49536	0.58154
1280.56680	0.58015
1278.63823	0.57854
1276.70967	0.57681
1274.78110	0.57550
1272.85254	0.57475
1270.92397	0.57421
1268.99541	0.57356
1267.06685	0.57270
1265.13828	0.57164
1263.20972	0.57067
1261.28115	0.56985
1259.35259	0.56899
1257.42402	0.56818
1255.49546	0.56769
1253.56689	0.56754
1251.63833	0.56767
1249.70977	0.56795
1247.78120	0.56820
1245.85264	0.56817
1243.92407	0.56763
1241.99551	0.56657
1240.06694	0.56516
1238.13838	0.56329
1236.20981	0.56078
1234.28125	0.55799
1232.35269	0.55536
1230.42412	0.55295
1228.49556	0.55066
1226.56699	0.54851
1224.63843	0.54654
1222.70986	0.54468
1220.78130	0.54296
1218.85273	0.54138
1216.92417	0.53989
1214.99561	0.53862
1213.06704	0.53765
1211.13848	0.53685
1209.20991	0.53603
1207.28135	0.53523
1205.35278	0.53448
1203.42422	0.53366
1201.49565	0.53265
1199.56709	0.53165
1197.63853	0.53087
1195.70996	0.53027
1193.78140	0.52975
1191.85283	0.52925
1189.92427	0.52886
1187.99570	0.52865
1186.06714	0.52847
1184.13857	0.52846
1182.21001	0.52904
1180.28145	0.53018
1178.35288	0.53155
1176.42432	0.53309
1174.49575	0.53452
1172.56719	0.53546
1170.63862	0.53583
1168.71006	0.53573
1166.78149	0.53544
1164.85293	0.53520
1162.92437	0.53493
1160.99580	0.53449
1159.06724	0.53383
1157.13867	0.53284
1155.21011	0.53161
1153.28154	0.53021
1151.35298	0.52841
1149.42441	0.52612
1147.49585	0.52364
1145.56729	0.52112
1143.63872	0.51858
1141.71016	0.51633
1139.78159	0.51459
1137.85303	0.51320
1135.92446	0.51214
1133.99590	0.51159
1132.06733	0.51144
1130.13877	0.51131
1128.21021	0.51091
1126.28164	0.51034
1124.35308	0.50962
1122.42451	0.50889
1120.49595	0.50839
1118.56738	0.50825
1116.63882	0.50841
1114.71025	0.50879
1112.78169	0.50925
1110.85312	0.50981
1108.92456	0.51059
1106.99600	0.51154
1105.06743	0.51263
1103.13887	0.51382
1101.21030	0.51527
1099.28174	0.51739
1097.35317	0.52002
1095.42461	0.52282
1093.49604	0.52598
1091.56748	0.53001
1089.63892	0.53515
1087.71035	0.54116
1085.78179	0.54781
1083.85322	0.55499
1081.92466	0.56205
1079.99609	0.56756
1078.06753	0.57030
1076.13896	0.57002
1074.21040	0.56712
1072.28184	0.56222
1070.35327	0.55593
1068.42471	0.54904
1066.49614	0.54241
1064.56758	0.53632
1062.63901	0.53069
1060.71045	0.52563
1058.78188	0.52125
1056.85332	0.51720
1054.92476	0.51336
1052.99619	0.50989
1051.06763	0.50696
1049.13906	0.50474
1047.21050	0.50313
1045.28193	0.50176
1043.35337	0.50053
1041.42480	0.49964
1039.49624	0.49897
1037.56768	0.49818
1035.63911	0.49737
1033.71055	0.49678
1031.78198	0.49621
1029.85342	0.49541
1027.92485	0.49461
1025.99629	0.49408
1024.06772	0.49379
1022.13916	0.49370
1020.21060	0.49374
1018.28203	0.49381
1016.35347	0.49396
1014.42490	0.49418
1012.49634	0.49437
1010.56777	0.49462
1008.63921	0.49507
1006.71064	0.49598
1004.78208	0.49757
1002.85352	0.49971
1000.92495	0.50223
998.99639	0.50533
997.06782	0.50916
995.13926	0.51336
993.21069	0.51745
991.28213	0.52104
989.35356	0.52363
987.42500	0.52490
985.49644	0.52523
983.56787	0.52540
981.63931	0.52572
979.71074	0.52647
977.78218	0.52792
975.85361	0.52987
973.92505	0.53208
971.99648	0.53469
970.06792	0.53782
968.13936	0.54164
966.21079	0.54599
964.28223	0.55038
962.35366	0.55481
960.42510	0.55962
958.49653	0.56473
956.56797	0.57014
954.63940	0.57615
952.71084	0.58253
950.78228	0.58880
948.85371	0.59506
946.92515	0.60146
944.99658	0.60786
943.06802	0.61417
941.13945	0.62028
939.21089	0.62597
937.28232	0.63149
935.35376	0.63726
933.42520	0.64314
931.49663	0.64880
929.56807	0.65442
927.63950	0.66008
925.71094	0.66553
923.78237	0.67131
921.85381	0.67780
919.92524	0.68445
917.99668	0.69083
916.06812	0.69693
914.13955	0.70370
912.21099	0.71140
910.28242	0.71916
908.35386	0.72731
906.42529	0.73605
904.49673	0.74477
902.56816	0.75412
900.63960	0.76445
898.71104	0.77464
896.78247	0.78449
894.85391	0.79420
892.92534	0.80352
890.99678	0.81307
889.06821	0.82363
887.13965	0.83480
885.21108	0.84549
883.28252	0.85566
881.35396	0.86662
879.42539	0.87889
877.49683	0.89186
875.56826	0.90416
873.63970	0.91417
871.71113	0.92304
869.78257	0.93362
867.85400	0.94518
865.92544	0.95641
863.99687	0.97021
862.06831	0.98590
860.13975	0.99825
858.21118	1.00737
856.28262	1.01604
854.35405	1.02608
852.42549	1.03784
850.49692	1.04956
848.56836	1.06185
846.63979	1.07574
844.71123	1.08897
842.78267	1.09961
840.85410	1.10904
838.92554	1.11910
836.99697	1.13096
835.06841	1.14374
833.13984	1.15495
831.21128	1.16679
829.28271	1.18323
827.35415	1.19903
825.42559	1.20489
823.49702	1.20859
821.56846	1.22149
819.63989	1.23543
817.71133	1.24197
815.78276	1.24781
813.85420	1.25959
811.92563	1.27765
809.99707	1.29585
808.06851	1.30631
806.13994	1.31507
804.21138	1.32761
802.28281	1.33843
800.35425	1.34452
798.42568	1.35690
796.49712	1.38112
794.56855	1.39598
792.63999	1.39340
790.71143	1.38631
788.78286	1.40180
786.85430	1.47724
784.92573	1.58956
782.99717	1.60642
781.06860	1.53698
779.14004	1.46287
777.21147	1.38693
775.28291	1.37136
773.35435	1.45067
771.42578	1.54775
769.49722	1.51098
767.56865	1.47776
765.64009	1.54160
763.71152	1.53715
761.78296	1.49401
759.85439	1.57748
757.92583	1.57672
755.99727	1.37335
754.06870	1.29315
752.14014	1.32201
750.21157	1.28330
748.28301	1.22940
746.35444	1.25767
744.42588	1.30410
742.49731	1.28193
740.56875	1.17543
738.64019	1.04390
736.71162	0.93438
734.78306	0.86691
732.85449	0.80572
730.92593	0.69977
728.99736	0.51920
727.06880	0.29662
725.14023	0.13311
723.21167	0.09036
721.28311	0.12317
719.35454	0.21272
717.42598	0.39717
715.49741	0.82614
713.56885	1.89440
711.64028	0.57697
709.71172	0.36172
707.78315	0.38347
705.85459	0.45044
703.92603	0.46133
701.99746	0.49422
700.06890	0.61122
698.14033	0.75046
696.21177	0.86029
694.28320	0.80264
692.35464	0.57125
690.42607	0.40513
688.49751	0.33982
686.56895	0.35999
684.64038	0.39236
682.71182	0.34909
680.78325	0.29149
678.85469	0.29021
676.92612	0.28954
674.99756	0.23055
673.06899	0.23971
671.14043	0.42126
669.21187	0.58154
667.28330	0.51386
665.35474	0.49190
663.42617	0.56730
661.49761	0.51673
659.56904	0.35135
657.64048	0.29380
655.71191	0.41844
653.78335	0.63072
651.85479	0.55217
649.92622	0.44453
647.99766	0.43116
646.06909	0.47400
644.14053	0.51615
642.21196	0.51700
640.28340	0.49736
638.35483	0.44089
636.42627	0.39010
634.49771	0.37003
632.56914	0.34820
630.64058	0.35854
628.71201	0.43619
626.78345	0.51317
624.85488	0.50923
622.92632	0.50293
620.99775	0.48414
619.06919	0.41171
617.14062	0.34285
615.21206	0.32885
613.28350	0.36740
611.35493	0.44889
609.42637	0.63680
607.49780	0.74081
605.56924	0.50168
603.64067	0.32685
601.71211	0.29346
599.78354	0.35460
597.85498	0.42058
595.92642	0.42921
593.99785	0.42344
592.06929	0.39933
590.14072	0.32839
588.21216	0.26576
586.28359	0.26068
584.35503	0.31166
582.42646	0.35851
580.49790	0.40434
578.56934	0.48040
576.64077	0.45258
574.71221	0.36389
572.78364	0.30408
570.85508	0.29601
568.92651	0.35536
566.99795	0.41462
565.06938	0.39544
563.14082	0.40768
561.21226	0.44748
559.28369	0.36327
557.35513	0.29295
555.42656	0.31508
553.49800	0.41833
551.56943	0.53343
549.64087	0.71766
547.71230	0.99460
545.78374	0.57242
543.85518	0.38464
541.92661	0.32003
539.99805	0.28798
538.06948	0.32629
536.14092	0.47486
534.21235	0.56458
532.28379	0.50910
530.35522	0.46623
528.42666	0.38746
526.49810	0.33609
524.56953	0.36358
522.64097	0.40614
520.71240	0.40094
518.78384	0.41489
516.85527	0.44258
514.92671	0.40580
512.99814	0.38891
511.06958	0.42669
509.14102	0.39002
507.21245	0.32345
505.28389	0.31430
503.35532	0.37781
501.42676	0.46541
499.49819	0.39566
