3997.91411	0.06017
3995.98555	0.06089
3994.05698	0.06167
3992.12842	0.06221
3990.19985	0.06274
3988.27129	0.06308
3986.34272	0.06308
3984.41416	0.06313
3982.48560	0.06329
3980.55703	0.06344
3978.62847	0.06365
3976.69990	0.06408
3974.77134	0.06463
3972.84277	0.06503
3970.91421	0.06521
3968.98564	0.06520
3967.05708	0.06506
3965.12852	0.06489
3963.19995	0.06487
3961.27139	0.06519
3959.34282	0.06568
3957.41426	0.06600
3955.48569	0.06618
3953.55713	0.06627
3951.62856	0.06650
3949.70000	0.06711
3947.77144	0.06757
3945.84287	0.06748
3943.91431	0.06769
3941.98574	0.06837
3940.05718	0.06822
3938.12861	0.06726
3936.20005	0.06653
3934.27148	0.06668
3932.34292	0.06800
3930.41436	0.06923
3928.48579	0.06876
3926.55723	0.06775
3924.62866	0.06785
3922.70010	0.06821
3920.77153	0.06791
3918.84297	0.06799
3916.91440	0.06876
3914.98584	0.06861
3913.05728	0.06698
3911.12871	0.06558
3909.20015	0.06531
3907.27158	0.06607
3905.34302	0.06823
3903.41445	0.07126
3901.48589	0.07260
3899.55732	0.07155
3897.62876	0.06958
3895.70020	0.06803
3893.77163	0.06803
3891.84307	0.06939
3889.91450	0.06978
3887.98594	0.06865
3886.05737	0.06876
3884.12881	0.07007
3882.20024	0.07067
3880.27168	0.07097
3878.34312	0.07029
3876.41455	0.06922
3874.48599	0.07014
3872.55742	0.07251
3870.62886	0.07432
3868.70029	0.07448
3866.77173	0.07328
3864.84316	0.07354
3862.91460	0.07483
3860.98604	0.07422
3859.05747	0.07302
3857.12891	0.07344
3855.20034	0.07588
3853.27178	0.08035
3851.34321	0.08228
3849.41465	0.07884
3847.48608	0.07555
3845.55752	0.07453
3843.62896	0.07597
3841.70039	0.07892
3839.77183	0.08213
3837.84326	0.08480
3835.91470	0.08509
3833.98613	0.08316
3832.05757	0.08158
3830.12900	0.08139
3828.20044	0.08190
3826.27187	0.08261
3824.34331	0.08347
3822.41475	0.08550
3820.48618	0.08941
3818.55762	0.09150
3816.62905	0.09122
3814.70049	0.09037
3812.77192	0.08834
3810.84336	0.08690
3808.91479	0.08764
3806.98623	0.09050
3805.05767	0.09363
3803.12910	0.09626
3801.20054	0.09963
3799.27197	0.10112
3797.34341	0.09997
3795.41484	0.09905
3793.48628	0.09836
3791.55771	0.09806
3789.62915	0.09871
3787.70059	0.10019
3785.77202	0.10246
3783.84346	0.10477
3781.91489	0.10629
3779.98633	0.10808
3778.05776	0.11028
3776.12920	0.11117
3774.20063	0.11164
3772.27207	0.11343
3770.34351	0.11689
3768.41494	0.12055
3766.48638	0.12260
3764.55781	0.12370
3762.62925	0.12452
3760.70068	0.12648
3758.77212	0.13050
3756.84355	0.13434
3754.91499	0.13676
3752.98643	0.14019
3751.05786	0.14648
3749.12930	0.15272
3747.20073	0.15525
3745.27217	0.15786
3743.34360	0.16248
3741.41504	0.16586
3739.48647	0.16880
3737.55791	0.17459
3735.62935	0.18437
3733.70078	0.19449
3731.77222	0.19948
3729.84365	0.20236
3727.91509	0.20665
3725.98652	0.21300
3724.05796	0.21976
3722.12939	0.22491
3720.20083	0.22852
3718.27227	0.23129
3716.34370	0.23468
3714.41514	0.24038
3712.48657	0.25124
3710.55801	0.26901
3708.62944	0.28591
3706.70088	0.29666
3704.77231	0.30661
3702.84375	0.31986
3700.91519	0.33741
3698.98662	0.35538
3697.05806	0.37177
3695.12949	0.38965
3693.20093	0.40964
3691.27236	0.43249
3689.34380	0.46142
3687.41523	0.49398
3685.48667	0.52127
3683.55811	0.54573
3681.62954	0.57346
3679.70098	0.60581
3677.77241	0.64061
3675.84385	0.68199
3673.91528	0.73591
3671.98672	0.77887
3670.05815	0.81755
3668.12959	0.87004
3666.20103	0.91638
3664.27246	0.95504
3662.34390	0.99760
3660.41533	1.04432
3658.48677	1.09124
3656.55820	1.14241
3654.62964	1.19967
3652.70107	1.24755
3650.77251	1.29052
3648.84395	1.35052
3646.91538	1.41941
3644.98682	1.46644
3643.05825	1.50368
3641.12969	1.54389
3639.20112	1.58889
3637.27256	1.63435
3635.34399	1.67934
3633.41543	1.72549
3631.48687	1.76898
3629.55830	1.81269
3627.62974	1.86886
3625.70117	1.91922
3623.77261	1.95205
3621.84404	1.98404
3619.91548	2.02154
3617.98691	2.06709
3616.05835	2.11080
3614.12979	2.14696
3612.20122	2.18485
3610.27266	2.22382
3608.34409	2.26409
3606.41553	2.30667
3604.48696	2.34584
3602.55840	2.38102
3600.62983	2.41920
3598.70127	2.46101
3596.77271	2.50181
3594.84414	2.54296
3592.91558	2.58508
3590.98701	2.62397
3589.05845	2.66009
3587.12988	2.70405
3585.20132	2.75264
3583.27275	2.79252
3581.34419	2.82831
3579.41562	2.86621
3577.48706	2.90661
3575.55850	2.94852
3573.62993	2.99219
3571.70137	3.03426
3569.77280	3.07373
3567.84424	3.11692
3565.91567	3.17086
3563.98711	3.22272
3562.05854	3.26447
3560.12998	3.30524
3558.20142	3.34864
3556.27285	3.39221
3554.34429	3.43421
3552.41572	3.47997
3550.48716	3.52799
3548.55859	3.57263
3546.63003	3.61786
3544.70146	3.66859
3542.77290	3.72011
3540.84434	3.76667
3538.91577	3.80932
3536.98721	3.85259
3535.05864	3.90020
3533.13008	3.94766
3531.20151	3.99399
3529.27295	4.04345
3527.34438	4.09650
3525.41582	4.14767
3523.48726	4.19495
3521.55869	4.24233
3519.63013	4.29002
3517.70156	4.33712
3515.77300	4.38161
3513.84443	4.42547
3511.91587	4.47298
3509.98730	4.52233
3508.05874	4.57020
3506.13018	4.61868
3504.20161	4.66743
3502.27305	4.71470
3500.34448	4.76237
3498.41592	4.80851
3496.48735	4.85575
3494.55879	4.90585
3492.63022	4.95508
3490.70166	5.00561
3488.77310	5.05814
3486.84453	5.10869
3484.91597	5.15481
3482.98740	5.19923
3481.05884	5.24490
3479.13027	5.28817
3477.20171	5.33302
3475.27314	5.38499
3473.34458	5.43711
3471.41602	5.48085
3469.48745	5.52247
3467.55889	5.57378
3465.63032	5.62916
3463.70176	5.68299
3461.77319	5.73790
3459.84463	5.79637
3457.91606	5.85363
3455.98750	5.90364
3454.05894	5.95520
3452.13037	6.00962
3450.20181	6.05593
3448.27324	6.09962
3446.34468	6.15512
3444.41611	6.21467
3442.48755	6.26918
3440.55898	6.31203
3438.63042	6.34118
3436.70186	6.38066
3434.77329	6.44501
3432.84473	6.51147
3430.91616	6.56098
3428.98760	6.60620
3427.05903	6.65084
3425.13047	6.69557
3423.20190	6.74142
3421.27334	6.78990
3419.34478	6.84383
3417.41621	6.91212
3415.48765	6.98133
3413.55908	7.00179
3411.63052	6.99915
3409.70195	7.02594
3407.77339	7.07831
3405.84482	7.14291
3403.91626	7.20878
3401.98770	7.24942
3400.05913	7.29237
3398.13057	7.37272
3396.20200	7.44673
3394.27344	7.49514
3392.34487	7.53000
3390.41631	7.57255
3388.48774	7.61802
3386.55918	7.60259
3384.63062	7.55642
3382.70205	7.59046
3380.77349	7.68268
3378.84492	7.76254
3376.91636	7.83383
3374.98779	7.88522
3373.05923	7.92849
3371.13066	7.95636
3369.20210	7.94917
3367.27354	7.91172
3365.34497	7.86158
3363.41641	7.82719
3361.48784	7.82326
3359.55928	7.83859
3357.63071	7.86014
3355.70215	7.93090
3353.77358	8.02871
3351.84502	8.05875
3349.91646	8.02951
3347.98789	8.04503
3346.05933	8.10313
3344.13076	8.11279
3342.20220	8.08345
3340.27363	8.11434
3338.34507	8.19708
3336.41650	8.17716
3334.48794	8.09631
3332.55937	8.07358
3330.63081	8.09682
3328.70225	8.11102
3326.77368	8.10399
3324.84512	8.12139
3322.91655	8.15709
3320.98799	8.18789
3319.05942	8.22233
3317.13086	8.26112
3315.20229	8.25451
3313.27373	8.22436
3311.34517	8.21846
3309.41660	8.23754
3307.48804	8.29277
3305.55947	8.33423
3303.63091	8.34175
3301.70234	8.35049
3299.77378	8.36470
3297.84521	8.35647
3295.91665	8.27134
3293.98809	8.13814
3292.05952	8.12791
3290.13096	8.28901
3288.20239	8.45172
3286.27383	8.50063
3284.34526	8.42111
3282.41670	8.26080
3280.48813	8.18363
3278.55957	8.21343
3276.63101	8.19547
3274.70244	8.15504
3272.77388	8.23698
3270.84531	8.39948
3268.91675	8.47070
3266.98818	8.43217
3265.05962	8.42289
3263.13105	8.44102
3261.20249	8.43389
3259.27393	8.44660
3257.34536	8.45299
3255.41680	8.38211
3253.48823	8.32612
3251.55967	8.33647
3249.63110	8.33982
3247.70254	8.32541
3245.77397	8.34156
3243.84541	8.41400
3241.91685	8.41238
3239.98828	8.26205
3238.05972	8.19088
3236.13115	8.29630
3234.20259	8.34329
3232.27402	8.23047
3230.34546	8.15863
3228.41689	8.20029
3226.48833	8.28192
3224.55977	8.25278
3222.63120	8.12433
3220.70264	8.09285
3218.77407	8.15334
3216.84551	8.11026
3214.91694	7.99739
3212.98838	7.97097
3211.05981	7.98737
3209.13125	7.96311
3207.20269	7.94026
3205.27412	7.92484
3203.34556	7.87644
3201.41699	7.81212
3199.48843	7.72679
3197.55986	7.65160
3195.63130	7.64283
3193.70273	7.64352
3191.77417	7.58847
3189.84561	7.52867
3187.91704	7.49373
3185.98848	7.44419
3184.05991	7.39370
3182.13135	7.36744
3180.20278	7.33140
3178.27422	7.25450
3176.34565	7.17129
3174.41709	7.12512
3172.48853	7.09841
3170.55996	7.03488
3168.63140	6.92412
3166.70283	6.83014
3164.77427	6.76953
3162.84570	6.70781
3160.91714	6.64597
3158.98857	6.59131
3157.06001	6.53102
3155.13145	6.45596
3153.20288	6.37864
3151.27432	6.31541
3149.34575	6.25590
3147.41719	6.18340
3145.48862	6.10635
3143.56006	6.04189
3141.63149	5.98718
3139.70293	5.92575
3137.77437	5.85209
3135.84580	5.77036
3133.91724	5.69116
3131.98867	5.62553
3130.06011	5.56532
3128.13154	5.49446
3126.20298	5.41624
3124.27441	5.34244
3122.34585	5.27154
3120.41729	5.19937
3118.48872	5.12918
3116.56016	5.06246
3114.63159	4.99408
3112.70303	4.92182
3110.77446	4.85175
3108.84590	4.78772
3106.91733	4.72390
3104.98877	4.65506
3103.06021	4.58578
3101.13164	4.52039
3099.20308	4.45746
3097.27451	4.39410
3095.34595	4.32835
3093.41738	4.26117
3091.48882	4.19616
3089.56025	4.13380
3087.63169	4.07080
3085.70312	4.00722
3083.77456	3.94554
3081.84600	3.88559
3079.91743	3.82480
3077.98887	3.76362
3076.06030	3.70624
3074.13174	3.65294
3072.20317	3.59918
3070.27461	3.54189
3068.34604	3.48318
3066.41748	3.42723
3064.48892	3.37380
3062.56035	3.31959
3060.63179	3.26519
3058.70322	3.21250
3056.77466	3.16075
3054.84609	3.10881
3052.91753	3.05760
3050.98896	3.00801
3049.06040	2.95826
3047.13184	2.90781
3045.20327	2.85887
3043.27471	2.81158
3041.34614	2.76452
3039.41758	2.71808
3037.48901	2.67282
3035.56045	2.62799
3033.63188	2.58315
3031.70332	2.53834
3029.77476	2.49386
3027.84619	2.45078
3025.91763	2.40913
3023.98906	2.36742
3022.06050	2.32540
3020.13193	2.28419
3018.20337	2.24414
3016.27480	2.20490
3014.34624	2.16619
3012.41768	2.12834
3010.48911	2.09160
3008.56055	2.05559
3006.63198	2.01992
3004.70342	1.98441
3002.77485	1.94965
3000.84629	1.91612
2998.91772	1.88306
2996.98916	1.85023
2995.06060	1.81878
2993.13203	1.78892
2991.20347	1.75940
2989.27490	1.72974
2987.34634	1.70082
2985.41777	1.67268
2983.48921	1.64471
2981.56064	1.61698
2979.63208	1.58976
2977.70352	1.56343
2975.77495	1.53815
2973.84639	1.51353
2971.91782	1.48948
2969.98926	1.46614
2968.06069	1.44337
2966.13213	1.42064
2964.20356	1.39753
2962.27500	1.37432
2960.34644	1.35113
2958.41787	1.32778
2956.48931	1.30437
2954.56074	1.28089
2952.63218	1.25752
2950.70361	1.23442
2948.77505	1.21157
2946.84648	1.18933
2944.91792	1.16778
2942.98936	1.14686
2941.06079	1.12681
2939.13223	1.10742
2937.20366	1.08822
2935.27510	1.06929
2933.34653	1.05076
2931.41797	1.03260
2929.48940	1.01453
2927.56084	0.99630
2925.63228	0.97815
2923.70371	0.96023
2921.77515	0.94260
2919.84658	0.92505
2917.91802	0.90717
2915.98945	0.88965
2914.06089	0.87296
2912.13232	0.85671
2910.20376	0.84085
2908.27520	0.82528
2906.34663	0.80996
2904.41807	0.79535
2902.48950	0.78151
2900.56094	0.76800
2898.63237	0.75452
2896.70381	0.74137
2894.77524	0.72871
2892.84668	0.71638
2890.91812	0.70443
2888.98955	0.69307
2887.06099	0.68235
2885.13242	0.67203
2883.20386	0.66204
2881.27529	0.65257
2879.34673	0.64329
2877.41816	0.63389
2875.48960	0.62439
2873.56104	0.61453
2871.63247	0.60421
2869.70391	0.59355
2867.77534	0.58237
2865.84678	0.57064
2863.91821	0.55911
2861.98965	0.54822
2860.06108	0.53789
2858.13252	0.52810
2856.20396	0.51896
2854.27539	0.51046
2852.34683	0.50212
2850.41826	0.49337
2848.48970	0.48444
2846.56113	0.47603
2844.63257	0.46818
2842.70400	0.46078
2840.77544	0.45396
2838.84687	0.44771
2836.91831	0.44179
2834.98975	0.43602
2833.06118	0.43021
2831.13262	0.42433
2829.20405	0.41858
2827.27549	0.41290
2825.34692	0.40708
2823.41836	0.40131
2821.48979	0.39563
2819.56123	0.38983
2817.63267	0.38407
2815.70410	0.37855
2813.77554	0.37318
2811.84697	0.36790
2809.91841	0.36267
2807.98984	0.35741
2806.06128	0.35218
2804.13271	0.34714
2802.20415	0.34223
2800.27559	0.33741
2798.34702	0.33268
2796.41846	0.32787
2794.48989	0.32306
2792.56133	0.31849
2790.63276	0.31402
2788.70420	0.30949
2786.77563	0.30510
2784.84707	0.30091
2782.91851	0.29684
2780.98994	0.29292
2779.06138	0.28912
2777.13281	0.28540
2775.20425	0.28167
2773.27568	0.27783
2771.34712	0.27399
2769.41855	0.27032
2767.48999	0.26672
2765.56143	0.26324
2763.63286	0.26003
2761.70430	0.25688
2759.77573	0.25369
2757.84717	0.25045
2755.91860	0.24717
2753.99004	0.24405
2752.06147	0.24111
2750.13291	0.23826
2748.20435	0.23549
2746.27578	0.23267
2744.34722	0.22976
2742.41865	0.22704
2740.49009	0.22456
2738.56152	0.22208
2736.63296	0.21954
2734.70439	0.21717
2732.77583	0.21489
2730.84727	0.21244
2728.91870	0.20999
2726.99014	0.20768
2725.06157	0.20550
2723.13301	0.20355
2721.20444	0.20167
2719.27588	0.19958
2717.34731	0.19746
2715.41875	0.19554
2713.49019	0.19379
2711.56162	0.19208
2709.63306	0.19037
2707.70449	0.18861
2705.77593	0.18679
2703.84736	0.18505
2701.91880	0.18351
2699.99023	0.18221
2698.06167	0.18099
2696.13311	0.17967
2694.20454	0.17822
2692.27598	0.17676
2690.34741	0.17548
2688.41885	0.17440
2686.49028	0.17330
2684.56172	0.17199
2682.63315	0.17052
2680.70459	0.16919
2678.77603	0.16816
2676.84746	0.16727
2674.91890	0.16628
2672.99033	0.16522
2671.06177	0.16424
2669.13320	0.16336
2667.20464	0.16247
2665.27607	0.16140
2663.34751	0.16023
2661.41895	0.15913
2659.49038	0.15823
2657.56182	0.15762
2655.63325	0.15707
2653.70469	0.15636
2651.77612	0.15560
2649.84756	0.15500
2647.91899	0.15450
2645.99043	0.15395
2644.06187	0.15337
2642.13330	0.15299
2640.20474	0.15262
2638.27617	0.15206
2636.34761	0.15149
2634.41904	0.15099
2632.49048	0.15050
2630.56191	0.15002
2628.63335	0.14967
2626.70479	0.14940
2624.77622	0.14906
2622.84766	0.14865
2620.91909	0.14831
2618.99053	0.14811
2617.06196	0.14792
2615.13340	0.14763
2613.20483	0.14727
2611.27627	0.14701
2609.34771	0.14692
2607.41914	0.14691
2605.49058	0.14691
2603.56201	0.14693
2601.63345	0.14691
2599.70488	0.14678
2597.77632	0.14665
2595.84775	0.14667
2593.91919	0.14679
2591.99062	0.14699
2590.06206	0.14727
2588.13350	0.14743
2586.20493	0.14740
2584.27637	0.14750
2582.34780	0.14774
2580.41924	0.14787
2578.49067	0.14794
2576.56211	0.14816
2574.63354	0.14849
2572.70498	0.14885
2570.77642	0.14924
2568.84785	0.14954
2566.91929	0.14976
2564.99072	0.15011
2563.06216	0.15061
2561.13359	0.15100
2559.20503	0.15129
2557.27646	0.15167
2555.34790	0.15210
2553.41934	0.15255
2551.49077	0.15305
2549.56221	0.15365
2547.63364	0.15430
2545.70508	0.15488
2543.77651	0.15535
2541.84795	0.15585
2539.91938	0.15646
2537.99082	0.15710
2536.06226	0.15766
2534.13369	0.15818
2532.20513	0.15874
2530.27656	0.15934
2528.34800	0.16003
2526.41943	0.16085
2524.49087	0.16165
2522.56230	0.16239
2520.63374	0.16312
2518.70518	0.16376
2516.77661	0.16442
2514.84805	0.16516
2512.91948	0.16585
2510.99092	0.16657
2509.06235	0.16735
2507.13379	0.16811
2505.20522	0.16887
2503.27666	0.16972
2501.34810	0.17055
2499.41953	0.17139
2497.49097	0.17230
2495.56240	0.17311
2493.63384	0.17379
2491.70527	0.17452
2489.77671	0.17536
2487.84814	0.17620
2485.91958	0.17702
2483.99102	0.17779
2482.06245	0.17862
2480.13389	0.17961
2478.20532	0.18062
2476.27676	0.18148
2474.34819	0.18227
2472.41963	0.18315
2470.49106	0.18410
2468.56250	0.18494
2466.63394	0.18563
2464.70537	0.18641
2462.77681	0.18739
2460.84824	0.18845
2458.91968	0.18939
2456.99111	0.19024
2455.06255	0.19119
2453.13398	0.19219
2451.20542	0.19313
2449.27686	0.19406
2447.34829	0.19505
2445.41973	0.19601
2443.49116	0.19690
2441.56260	0.19784
2439.63403	0.19887
2437.70547	0.19986
2435.77690	0.20077
2433.84834	0.20168
2431.91978	0.20266
2429.99121	0.20378
2428.06265	0.20493
2426.13408	0.20601
2424.20552	0.20704
2422.27695	0.20808
2420.34839	0.20914
2418.41982	0.21024
2416.49126	0.21137
2414.56270	0.21250
2412.63413	0.21367
2410.70557	0.21483
2408.77700	0.21594
2406.84844	0.21711
2404.91987	0.21832
2402.99131	0.21943
2401.06274	0.22056
2399.13418	0.22173
2397.20562	0.22287
2395.27705	0.22405
2393.34849	0.22533
2391.41992	0.22678
2389.49136	0.22857
2387.56279	0.23126
2385.63423	0.23583
2383.70566	0.24308
2381.77710	0.25310
2379.84854	0.26541
2377.91997	0.27955
2375.99141	0.29575
2374.06284	0.31465
2372.13428	0.33611
2370.20571	0.35914
2368.27715	0.38252
2366.34858	0.40476
2364.42002	0.42428
2362.49146	0.43925
2360.56289	0.44754
2358.63433	0.44813
2356.70576	0.43998
2354.77720	0.42266
2352.84863	0.39944
2350.92007	0.37566
2348.99150	0.36079
2347.06294	0.36127
2345.13437	0.37724
2343.20581	0.39826
2341.27725	0.40893
2339.34868	0.40930
2337.42012	0.40653
2335.49155	0.40433
2333.56299	0.40267
2331.63442	0.40125
2329.70586	0.39936
2327.77729	0.39565
2325.84873	0.38978
2323.92017	0.38310
2321.99160	0.37637
2320.06304	0.36860
2318.13447	0.35998
2316.20591	0.35255
2314.27734	0.34762
2312.34878	0.34475
2310.42021	0.34238
2308.49165	0.33888
2306.56309	0.33418
2304.63452	0.32973
2302.70596	0.32695
2300.77739	0.32568
2298.84883	0.32479
2296.92026	0.32375
2294.99170	0.32266
2293.06313	0.32167
2291.13457	0.32088
2289.20601	0.32031
2287.27744	0.31983
2285.34888	0.31948
2283.42031	0.31978
2281.49175	0.32119
2279.56318	0.32352
2277.63462	0.32628
2275.70605	0.32905
2273.77749	0.33156
2271.84893	0.33369
2269.92036	0.33558
2267.99180	0.33746
2266.06323	0.33935
2264.13467	0.34115
2262.20610	0.34281
2260.27754	0.34440
2258.34897	0.34597
2256.42041	0.34758
2254.49185	0.34925
2252.56328	0.35096
2250.63472	0.35275
2248.70615	0.35459
2246.77759	0.35644
2244.84902	0.35834
2242.92046	0.36029
2240.99189	0.36222
2239.06333	0.36417
2237.13477	0.36623
2235.20620	0.36836
2233.27764	0.37061
2231.34907	0.37289
2229.42051	0.37506
2227.49194	0.37722
2225.56338	0.37945
2223.63481	0.38159
2221.70625	0.38360
2219.77769	0.38572
2217.84912	0.38798
2215.92056	0.39021
2213.99199	0.39243
2212.06343	0.39458
2210.13486	0.39661
2208.20630	0.39865
2206.27773	0.40065
2204.34917	0.40258
2202.42061	0.40464
2200.49204	0.40683
2198.56348	0.40892
2196.63491	0.41083
2194.70635	0.41262
2192.77778	0.41441
2190.84922	0.41631
2188.92065	0.41824
2186.99209	0.42010
2185.06353	0.42192
2183.13496	0.42371
2181.20640	0.42541
2179.27783	0.42705
2177.34927	0.42870
2175.42070	0.43035
2173.49214	0.43184
2171.56357	0.43315
2169.63501	0.43446
2167.70645	0.43582
2165.77788	0.43713
2163.84932	0.43838
2161.92075	0.43957
2159.99219	0.44070
2158.06362	0.44169
2156.13506	0.44256
2154.20649	0.44341
2152.27793	0.44428
2150.34937	0.44507
2148.42080	0.44573
2146.49224	0.44641
2144.56367	0.44703
2142.63511	0.44741
2140.70654	0.44771
2138.77798	0.44808
2136.84941	0.44842
2134.92085	0.44863
2132.99229	0.44876
2131.06372	0.44882
2129.13516	0.44872
2127.20659	0.44843
2125.27803	0.44809
2123.34946	0.44780
2121.42090	0.44746
2119.49233	0.44692
2117.56377	0.44626
2115.63521	0.44557
2113.70664	0.44489
2111.77808	0.44422
2109.84951	0.44342
2107.92095	0.44238
2105.99238	0.44127
2104.06382	0.44019
2102.13525	0.43910
2100.20669	0.43797
2098.27812	0.43673
2096.34956	0.43530
2094.42100	0.43377
2092.49243	0.43223
2090.56387	0.43060
2088.63530	0.42894
2086.70674	0.42731
2084.77817	0.42561
2082.84961	0.42385
2080.92104	0.42203
2078.99248	0.42011
2077.06392	0.41805
2075.13535	0.41595
2073.20679	0.41390
2071.27822	0.41175
2069.34966	0.40939
2067.42109	0.40705
2065.49253	0.40491
2063.56396	0.40271
2061.63540	0.40035
2059.70684	0.39798
2057.77827	0.39560
2055.84971	0.39316
2053.92114	0.39065
2051.99258	0.38818
2050.06401	0.38570
2048.13545	0.38312
2046.20688	0.38052
2044.27832	0.37799
2042.34976	0.37539
2040.42119	0.37270
2038.49263	0.37001
2036.56406	0.36728
2034.63550	0.36445
2032.70693	0.36170
2030.77837	0.35909
2028.84980	0.35644
2026.92124	0.35373
2024.99268	0.35105
2023.06411	0.34842
2021.13555	0.34583
2019.20698	0.34327
2017.27842	0.34063
2015.34985	0.33780
2013.42129	0.33495
2011.49272	0.33221
2009.56416	0.32954
2007.63560	0.32682
2005.70703	0.32409
2003.77847	0.32141
2001.84990	0.31885
1999.92134	0.31633
1997.99277	0.31372
1996.06421	0.31114
1994.13564	0.30887
1992.20708	0.30674
1990.27852	0.30432
1988.34995	0.30171
1986.42139	0.29913
1984.49282	0.29659
1982.56426	0.29421
1980.63569	0.29193
1978.70713	0.28962
1976.77856	0.28735
1974.85000	0.28518
1972.92144	0.28297
1970.99287	0.28085
1969.06431	0.27905
1967.13574	0.27739
1965.20718	0.27536
1963.27861	0.27312
1961.35005	0.27110
1959.42148	0.26917
1957.49292	0.26722
1955.56436	0.26534
1953.63579	0.26353
1951.70723	0.26179
1949.77866	0.26016
1947.85010	0.25860
1945.92153	0.25722
1943.99297	0.25612
1942.06440	0.25488
1940.13584	0.25310
1938.20728	0.25124
1936.27871	0.24975
1934.35015	0.24844
1932.42158	0.24721
1930.49302	0.24598
1928.56445	0.24477
1926.63589	0.24368
1924.70732	0.24294
1922.77876	0.24232
1920.85020	0.24145
1918.92163	0.24062
1916.99307	0.23978
1915.06450	0.23857
1913.13594	0.23738
1911.20737	0.23667
1909.27881	0.23627
1907.35024	0.23571
1905.42168	0.23486
1903.49312	0.23399
1901.56455	0.23323
1899.63599	0.23265
1897.70742	0.23232
1895.77886	0.23216
1893.85029	0.23197
1891.92173	0.23176
1889.99316	0.23175
1888.06460	0.23142
1886.13604	0.23076
1884.20747	0.23033
1882.27891	0.23010
1880.35034	0.22997
1878.42178	0.22991
1876.49321	0.22986
1874.56465	0.22979
1872.63608	0.22998
1870.70752	0.23080
1868.77896	0.23205
1866.85039	0.23229
1864.92183	0.23152
1862.99326	0.23099
1861.06470	0.23099
1859.13613	0.23133
1857.20757	0.23171
1855.27900	0.23204
1853.35044	0.23237
1851.42187	0.23292
1849.49331	0.23374
1847.56475	0.23481
1845.63618	0.23618
1843.70762	0.23754
1841.77905	0.23794
1839.85049	0.23783
1837.92192	0.23837
1835.99336	0.23925
1834.06479	0.24015
1832.13623	0.24138
1830.20767	0.24338
1828.27910	0.24514
1826.35054	0.24607
1824.42197	0.24707
1822.49341	0.24787
1820.56484	0.24868
1818.63628	0.24994
1816.70771	0.25162
1814.77915	0.25332
1812.85059	0.25526
1810.92202	0.25756
1808.99346	0.25960
1807.06489	0.26126
1805.13633	0.26299
1803.20776	0.26541
1801.27920	0.26837
1799.35063	0.27125
1797.42207	0.27354
1795.49351	0.27595
1793.56494	0.27917
1791.63638	0.28311
1789.70781	0.28603
1787.77925	0.28789
1785.85068	0.29072
1783.92212	0.29443
1781.99355	0.29844
1780.06499	0.30265
1778.13643	0.30682
1776.20786	0.31090
1774.27930	0.31581
1772.35073	0.32248
1770.42217	0.32875
1768.49360	0.33316
1766.56504	0.33743
1764.63647	0.34234
1762.70791	0.34834
1760.77935	0.35590
1758.85078	0.36276
1756.92222	0.36967
1754.99365	0.37724
1753.06509	0.38433
1751.13652	0.39326
1749.20796	0.40448
1747.27939	0.41483
1745.35083	0.42336
1743.42227	0.43249
1741.49370	0.44280
1739.56514	0.45503
1737.63657	0.46732
1735.70801	0.47842
1733.77944	0.49514
1731.85088	0.51421
1729.92231	0.52874
1727.99375	0.54359
1726.06519	0.55991
1724.13662	0.57825
1722.20806	0.59828
1720.27949	0.61706
1718.35093	0.63967
1716.42236	0.67247
1714.49380	0.70211
1712.56523	0.72549
1710.63667	0.74872
1708.70811	0.77445
1706.77954	0.80416
1704.85098	0.83953
1702.92241	0.87092
1700.99385	0.90239
1699.06528	0.94949
1697.13672	0.99267
1695.20815	1.03668
1693.27959	1.07976
1691.35103	1.11540
1689.42246	1.15735
1687.49390	1.20189
1685.56533	1.24527
1683.63677	1.31238
1681.70820	1.38121
1679.77964	1.42420
1677.85107	1.46507
1675.92251	1.51341
1673.99395	1.57485
1672.06538	1.63011
1670.13682	1.68406
1668.20825	1.75363
1666.27969	1.81061
1664.35112	1.86039
1662.42256	1.92397
1660.49399	1.99532
1658.56543	2.05066
1656.63687	2.09625
1654.70830	2.14004
1652.77974	2.20672
1650.85117	2.26407
1648.92261	2.28171
1646.99404	2.30553
1645.06548	2.33085
1643.13691	2.34651
1641.20835	2.35564
1639.27979	2.36559
1637.35122	2.37299
1635.42266	2.37337
1633.49409	2.36345
1631.56553	2.34700
1629.63696	2.32823
1627.70840	2.29830
1625.77983	2.26295
1623.85127	2.21744
1621.92271	2.16142
1619.99414	2.11251
1618.06558	2.06634
1616.13701	2.00084
1614.20845	1.93320
1612.27988	1.88117
1610.35132	1.82683
1608.42275	1.76807
1606.49419	1.71099
1604.56562	1.65911
1602.63706	1.60920
1600.70850	1.56087
1598.77993	1.51673
1596.85137	1.47511
1594.92280	1.43423
1592.99424	1.39443
1591.06567	1.35790
1589.13711	1.32391
1587.20854	1.29273
1585.27998	1.26441
1583.35142	1.23844
1581.42285	1.21507
1579.49429	1.19555
1577.56572	1.17899
1575.63716	1.15933
1573.70859	1.14135
1571.78003	1.13000
1569.85146	1.11970
1567.92290	1.10866
1565.99434	1.10072
1564.06577	1.09578
1562.13721	1.09289
1560.20864	1.09358
1558.28008	1.10040
1556.35151	1.10520
1554.42295	1.10633
1552.49438	1.10805
1550.56582	1.10900
1548.63726	1.10750
1546.70869	1.10316
1544.78013	1.09594
1542.85156	1.08520
1540.92300	1.06697
1538.99443	1.03599
1537.06587	1.01220
1535.13730	0.99624
1533.20874	0.97544
1531.28018	0.95260
1529.35161	0.93592
1527.42305	0.92113
1525.49448	0.90612
1523.56592	0.89309
1521.63735	0.88065
1519.70879	0.86787
1517.78022	0.85693
1515.85166	0.84389
1513.92310	0.82979
1511.99453	0.81810
1510.06597	0.80872
1508.13740	0.80034
1506.20884	0.78503
1504.28027	0.76963
1502.35171	0.76115
1500.42314	0.75463
1498.49458	0.74818
1496.56602	0.74040
1494.63745	0.73215
1492.70889	0.72607
1490.78032	0.72173
1488.85176	0.71669
1486.92319	0.71048
1484.99463	0.70507
1483.06606	0.70144
1481.13750	0.69909
1479.20894	0.69749
1477.28037	0.69695
1475.35181	0.69770
1473.42324	0.69903
1471.49468	0.69857
1469.56611	0.69595
1467.63755	0.69347
1465.70898	0.69188
1463.78042	0.69054
1461.85186	0.68943
1459.92329	0.68959
1457.99473	0.69110
1456.06616	0.69085
1454.13760	0.68728
1452.20903	0.68378
1450.28047	0.68087
1448.35190	0.67797
1446.42334	0.67463
1444.49478	0.67148
1442.56621	0.66866
1440.63765	0.66582
1438.70908	0.66327
1436.78052	0.66028
1434.85195	0.65597
1432.92339	0.65219
1430.99482	0.64995
1429.06626	0.64877
1427.13770	0.64821
1425.20913	0.64848
1423.28057	0.64947
1421.35200	0.65049
1419.42344	0.65153
1417.49487	0.65156
1415.56631	0.64987
1413.63774	0.64849
1411.70918	0.64839
1409.78062	0.64942
1407.85205	0.65117
1405.92349	0.65348
1403.99492	0.65557
1402.06636	0.65635
1400.13779	0.65620
1398.20923	0.65516
1396.28066	0.65282
1394.35210	0.64882
1392.42354	0.64379
1390.49497	0.63925
1388.56641	0.63507
1386.63784	0.62997
1384.70928	0.62410
1382.78071	0.61862
1380.85215	0.61363
1378.92358	0.60940
1376.99502	0.60651
1375.06646	0.60484
1373.13789	0.60335
1371.20933	0.60183
1369.28076	0.60063
1367.35220	0.59934
1365.42363	0.59787
1363.49507	0.59667
1361.56650	0.59540
1359.63794	0.59362
1357.70937	0.59192
1355.78081	0.59064
1353.85225	0.58960
1351.92368	0.58867
1349.99512	0.58799
1348.06655	0.58743
1346.13799	0.58674
1344.20942	0.58602
1342.28086	0.58543
1340.35229	0.58510
1338.42373	0.58470
1336.49517	0.58397
1334.56660	0.58337
1332.63804	0.58330
1330.70947	0.58365
1328.78091	0.58418
1326.85234	0.58472
1324.92378	0.58531
1322.99521	0.58622
1321.06665	0.58732
1319.13809	0.58814
1317.20952	0.58847
1315.28096	0.58853
1313.35239	0.58846
1311.42383	0.58814
1309.49526	0.58761
1307.56670	0.58702
1305.63813	0.58651
1303.70957	0.58600
1301.78101	0.58534
1299.85244	0.58452
1297.92388	0.58359
1295.99531	0.58254
1294.06675	0.58144
1292.13818	0.58025
1290.20962	0.57889
1288.28105	0.57753
1286.35249	0.57636
1284.42393	0.57522
1282.49536	0.57385
1280.56680	0.57230
1278.63823	0.57077
1276.70967	0.56940
1274.78110	0.56824
1272.85254	0.56743
1270.92397	0.56688
1268.99541	0.56618
1267.06685	0.56522
1265.13828	0.56424
1263.20972	0.56341
1261.28115	0.56271
1259.35259	0.56200
1257.42402	0.56120
1255.49546	0.56058
1253.56689	0.56042
1251.63833	0.56071
1249.70977	0.56102
1247.78120	0.56104
1245.85264	0.56085
1243.92407	0.56042
1241.99551	0.55955
1240.06694	0.55821
1238.13838	0.55648
1236.20981	0.55438
1234.28125	0.55201
1232.35269	0.54968
1230.42412	0.54762
1228.49556	0.54556
1226.56699	0.54346
1224.63843	0.54165
1222.70986	0.54016
1220.78130	0.53870
1218.85273	0.53720
1216.92417	0.53582
1214.99561	0.53471
1213.06704	0.53387
1211.13848	0.53324
1209.20991	0.53272
1207.28135	0.53208
1205.35278	0.53123
1203.42422	0.53042
1201.49565	0.52975
1199.56709	0.52902
1197.63853	0.52822
1195.70996	0.52750
1193.78140	0.52695
1191.85283	0.52651
1189.92427	0.52618
1187.99570	0.52599
1186.06714	0.52602
1184.13857	0.52629
1182.21001	0.52673
1180.28145	0.52752
1178.35288	0.52882
1176.42432	0.53038
1174.49575	0.53179
1172.56719	0.53277
1170.63862	0.53325
1168.71006	0.53327
1166.78149	0.53293
1164.85293	0.53243
1162.92437	0.53198
1160.99580	0.53149
1159.06724	0.53082
1157.13867	0.52989
1155.21011	0.52875
1153.28154	0.52738
1151.35298	0.52562
1149.42441	0.52350
1147.49585	0.52109
1145.56729	0.51837
1143.63872	0.51556
1141.71016	0.51305
1139.78159	0.51094
1137.85303	0.50921
1135.92446	0.50787
1133.99590	0.50687
1132.06733	0.50617
1130.13877	0.50576
1128.21021	0.50537
1126.28164	0.50461
1124.35308	0.50375
1122.42451	0.50321
1120.49595	0.50282
1118.56738	0.50247
1116.63882	0.50245
1114.71025	0.50261
1112.78169	0.50274
1110.85312	0.50309
1108.92456	0.50378
1106.99600	0.50470
1105.06743	0.50592
1103.13887	0.50742
1101.21030	0.50907
1099.28174	0.51100
1097.35317	0.51338
1095.42461	0.51630
1093.49604	0.51974
1091.56748	0.52371
1089.63892	0.52847
1087.71035	0.53428
1085.78179	0.54084
1083.85322	0.54753
1081.92466	0.55375
1079.99609	0.55880
1078.06753	0.56181
1076.13896	0.56231
1074.21040	0.56026
1072.28184	0.55598
1070.35327	0.54991
1068.42471	0.54280
1066.49614	0.53565
1064.56758	0.52914
1062.63901	0.52338
1060.71045	0.51829
1058.78188	0.51380
1056.85332	0.50979
1054.92476	0.50623
1052.99619	0.50309
1051.06763	0.50021
1049.13906	0.49775
1047.21050	0.49586
1045.28193	0.49449
1043.35337	0.49330
1041.42480	0.49199
1039.49624	0.49068
1037.56768	0.48983
1035.63911	0.48951
1033.71055	0.48926
1031.78198	0.48868
1029.85342	0.48799
1027.92485	0.48750
1025.99629	0.48726
1024.06772	0.48740
1022.13916	0.48783
1020.21060	0.48815
1018.28203	0.48835
1016.35347	0.48861
1014.42490	0.48894
1012.49634	0.48929
1010.56777	0.48992
1008.63921	0.49101
1006.71064	0.49242
1004.78208	0.49408
1002.85352	0.49617
1000.92495	0.49879
998.99639	0.50186
997.06782	0.50544
995.13926	0.50958
993.21069	0.51383
991.28213	0.51747
989.35356	0.52003
987.42500	0.52149
985.49644	0.52220
983.56787	0.52259
981.63931	0.52304
979.71074	0.52392
977.78218	0.52545
975.85361	0.52759
973.92505	0.53021
971.99648	0.53307
970.06792	0.53617
968.13936	0.53977
966.21079	0.54388
964.28223	0.54830
962.35366	0.55309
960.42510	0.55829
958.49653	0.56361
956.56797	0.56886
954.63940	0.57439
952.71084	0.58037
950.78228	0.58678
948.85371	0.59344
946.92515	0.59986
944.99658	0.60590
943.06802	0.61193
941.13945	0.61831
939.21089	0.62487
937.28232	0.63121
935.35376	0.63708
933.42520	0.64264
931.49663	0.64790
929.56807	0.65279
927.63950	0.65785
925.71094	0.66360
923.78237	0.66970
921.85381	0.67583
919.92524	0.68244
917.99668	0.68956
916.06812	0.69673
914.13955	0.70399
912.21099	0.71137
910.28242	0.71926
908.35386	0.72779
906.42529	0.73625
904.49673	0.74442
902.56816	0.75279
900.63960	0.76180
898.71104	0.77190
896.78247	0.78308
894.85391	0.79432
892.92534	0.80458
890.99678	0.81380
889.06821	0.82355
887.13965	0.83481
885.21108	0.84633
883.28252	0.85710
881.35396	0.86722
879.42539	0.87782
877.49683	0.89008
875.56826	0.90333
873.63970	0.91562
871.71113	0.92709
869.78257	0.93895
867.85400	0.94996
865.92544	0.95987
863.99687	0.97036
862.06831	0.98179
860.13975	0.99289
858.21118	1.00333
856.28262	1.01533
854.35405	1.02923
852.42549	1.04187
850.49692	1.05237
848.56836	1.06313
846.63979	1.07638
844.71123	1.08978
842.78267	1.09859
840.85410	1.10700
838.92554	1.12030
836.99697	1.13406
835.06841	1.14488
833.13984	1.15542
831.21128	1.16832
829.28271	1.18603
827.35415	1.20686
825.42559	1.22281
823.49702	1.23301
821.56846	1.24013
819.63989	1.24524
817.71133	1.25368
815.78276	1.26366
813.85420	1.26832
811.92563	1.27719
809.99707	1.30210
808.06851	1.33267
806.13994	1.36014
804.21138	1.38531
802.28281	1.39967
800.35425	1.39702
798.42568	1.38495
796.49712	1.38816
794.56855	1.44164
792.63999	1.53825
790.71143	1.57233
788.78286	1.53983
786.85430	1.55863
784.92573	1.62963
782.99717	1.64531
781.06860	1.63938
779.14004	1.77602
777.21147	1.95834
775.28291	1.69256
773.35435	1.49438
771.42578	1.51524
769.49722	1.72826
767.56865	2.02626
765.64009	1.77352
763.71152	1.61157
761.78296	1.68850
759.85439	1.88603
757.92583	1.75786
755.99727	1.48876
754.06870	1.33670
752.14014	1.35047
750.21157	1.63891
748.28301	2.01654
746.35444	1.59730
744.42588	1.33092
742.49731	1.10481
740.56875	0.92267
738.64019	0.84707
736.71162	0.88051
734.78306	0.85472
732.85449	0.68750
730.92593	0.59015
728.99736	0.57607
727.06880	0.49610
725.14023	0.37916
723.21167	0.32060
721.28311	0.22590
719.35454	0.00364
717.42598	-0.22812
715.49741	-0.36389
713.56885	-0.25515
711.64028	0.06813
709.71172	0.14652
707.78315	0.14942
705.85459	0.24841
703.92603	0.32282
701.99746	0.25399
700.06890	0.19426
698.14033	0.23936
696.21177	0.35676
694.28320	0.44640
692.35464	0.47092
690.42607	0.43692
688.49751	0.42299
686.56895	0.50819
684.64038	0.72762
682.71182	0.62777
680.78325	0.39171
678.85469	0.35183
676.92612	0.46949
674.99756	0.62763
673.06899	0.47868
671.14043	0.27767
669.21187	0.20255
667.28330	0.17808
665.35474	0.17278
663.42617	0.18229
661.49761	0.22702
659.56904	0.33059
657.64048	0.44947
655.71191	0.44678
653.78335	0.31052
651.85479	0.19365
649.92622	0.19485
647.99766	0.26050
646.06909	0.25636
644.14053	0.20083
642.21196	0.21334
640.28340	0.31588
638.35483	0.38326
636.42627	0.42297
634.49771	0.49835
632.56914	0.47748
630.64058	0.35518
628.71201	0.28494
626.78345	0.30533
624.85488	0.39106
622.92632	0.41683
620.99775	0.35569
619.06919	0.30437
617.14062	0.27925
615.21206	0.28674
613.28350	0.33131
611.35493	0.38944
609.42637	0.47500
607.49780	0.59879
605.56924	0.55868
603.64067	0.40358
601.71211	0.32470
599.78354	0.27558
597.85498	0.22282
595.92642	0.21186
593.99785	0.23919
592.06929	0.27613
590.14072	0.31326
588.21216	0.32667
586.28359	0.29991
584.35503	0.27810
582.42646	0.34752
580.49790	0.51158
578.56934	0.51659
576.64077	0.36143
574.71221	0.27459
572.78364	0.24467
570.85508	0.24224
568.92651	0.27463
566.99795	0.34152
565.06938	0.37153
563.14082	0.27495
561.21226	0.19875
559.28369	0.25512
557.35513	0.36901
555.42656	0.45612
553.49800	0.69806
551.56943	0.74830
549.64087	0.31257
547.71230	0.15470
545.78374	0.17782
543.85518	0.20917
541.92661	0.21976
539.99805	0.24861
538.06948	0.22087
536.14092	0.18093
534.21235	0.21128
532.28379	0.23647
530.35522	0.23289
528.42666	0.27136
526.49810	0.32510
524.56953	0.27939
522.64097	0.22338
520.71240	0.23613
518.78384	0.30383
516.85527	0.35459
514.92671	0.32918
512.99814	0.27219
511.06958	0.23811
509.14102	0.26004
507.21245	0.31161
505.28389	0.37948
503.35532	0.48126
501.42676	0.54780
499.49819	0.43929
