3997.91411	0.05608
3995.98555	0.05709
3994.05698	0.05775
3992.12842	0.05813
3990.19985	0.05869
3988.27129	0.05897
3986.34272	0.05872
3984.41416	0.05869
3982.48560	0.05908
3980.55703	0.05941
3978.62847	0.05956
3976.69990	0.05979
3974.77134	0.06024
3972.84277	0.06073
3970.91421	0.06106
3968.98564	0.06117
3967.05708	0.06099
3965.12852	0.06086
3963.19995	0.06122
3961.27139	0.06190
3959.34282	0.06235
3957.41426	0.06259
3955.48569	0.06280
3953.55713	0.06297
3951.62856	0.06348
3949.70000	0.06437
3947.77144	0.06459
3945.84287	0.06390
3943.91431	0.06406
3941.98574	0.06525
3940.05718	0.06518
3938.12861	0.06379
3936.20005	0.06290
3934.27148	0.06324
3932.34292	0.06477
3930.41436	0.06615
3928.48579	0.06575
3926.55723	0.06478
3924.62866	0.06478
3922.70010	0.06482
3920.77153	0.06440
3918.84297	0.06473
3916.91440	0.06552
3914.98584	0.06492
3913.05728	0.06302
3911.12871	0.06170
3909.20015	0.06147
3907.27158	0.06236
3905.34302	0.06512
3903.41445	0.06898
3901.48589	0.07079
3899.55732	0.06970
3897.62876	0.06729
3895.70020	0.06527
3893.77163	0.06510
3891.84307	0.06650
3889.91450	0.06690
3887.98594	0.06563
3886.05737	0.06578
3884.12881	0.06750
3882.20024	0.06842
3880.27168	0.06881
3878.34312	0.06808
3876.41455	0.06685
3874.48599	0.06789
3872.55742	0.07042
3870.62886	0.07235
3868.70029	0.07304
3866.77173	0.07235
3864.84316	0.07251
3862.91460	0.07331
3860.98604	0.07213
3859.05747	0.07056
3857.12891	0.07102
3855.20034	0.07426
3853.27178	0.08036
3851.34321	0.08243
3849.41465	0.07713
3847.48608	0.07269
3845.55752	0.07153
3843.62896	0.07327
3841.70039	0.07671
3839.77183	0.08051
3837.84326	0.08357
3835.91470	0.08394
3833.98613	0.08181
3832.05757	0.07961
3830.12900	0.07874
3828.20044	0.07919
3826.27187	0.08048
3824.34331	0.08180
3822.41475	0.08396
3820.48618	0.08802
3818.55762	0.08983
3816.62905	0.08911
3814.70049	0.08831
3812.77192	0.08626
3810.84336	0.08464
3808.91479	0.08544
3806.98623	0.08863
3805.05767	0.09186
3803.12910	0.09437
3801.20054	0.09816
3799.27197	0.09991
3797.34341	0.09810
3795.41484	0.09651
3793.48628	0.09538
3791.55771	0.09485
3789.62915	0.09543
3787.70059	0.09690
3785.77202	0.09937
3783.84346	0.10205
3781.91489	0.10360
3779.98633	0.10514
3778.05776	0.10714
3776.12920	0.10781
3774.20063	0.10822
3772.27207	0.11022
3770.34351	0.11393
3768.41494	0.11789
3766.48638	0.12046
3764.55781	0.12203
3762.62925	0.12282
3760.70068	0.12453
3758.77212	0.12871
3756.84355	0.13287
3754.91499	0.13531
3752.98643	0.13897
3751.05786	0.14602
3749.12930	0.15265
3747.20073	0.15443
3745.27217	0.15573
3743.34360	0.15899
3741.41504	0.16161
3739.48647	0.16388
3737.55791	0.16882
3735.62935	0.17763
3733.70078	0.18630
3731.77222	0.18953
3729.84365	0.19083
3727.91509	0.19407
3725.98652	0.19996
3724.05796	0.20674
3722.12939	0.21272
3720.20083	0.21825
3718.27227	0.22325
3716.34370	0.22844
3714.41514	0.23530
3712.48657	0.24639
3710.55801	0.26329
3708.62944	0.27856
3706.70088	0.28776
3704.77231	0.29680
3702.84375	0.30974
3700.91519	0.32742
3698.98662	0.34585
3697.05806	0.36263
3695.12949	0.38072
3693.20093	0.40099
3691.27236	0.42468
3689.34380	0.45553
3687.41523	0.49006
3685.48667	0.51749
3683.55811	0.54135
3681.62954	0.56897
3679.70098	0.60172
3677.77241	0.63702
3675.84385	0.67854
3673.91528	0.73250
3671.98672	0.77619
3670.05815	0.81575
3668.12959	0.86808
3666.20103	0.91337
3664.27246	0.95155
3662.34390	0.99437
3660.41533	1.04191
3658.48677	1.09004
3656.55820	1.14214
3654.62964	1.19918
3652.70107	1.24640
3650.77251	1.28910
3648.84395	1.34926
3646.91538	1.41887
3644.98682	1.46628
3643.05825	1.50281
3641.12969	1.54174
3639.20112	1.58549
3637.27256	1.63032
3635.34399	1.67508
3633.41543	1.72035
3631.48687	1.76263
3629.55830	1.80613
3627.62974	1.86260
3625.70117	1.91257
3623.77261	1.94510
3621.84404	1.97689
3619.91548	2.01443
3617.98691	2.06117
3616.05835	2.10635
3614.12979	2.14320
3612.20122	2.18153
3610.27266	2.22063
3608.34409	2.26132
3606.41553	2.30451
3604.48696	2.34249
3602.55840	2.37647
3600.62983	2.41617
3598.70127	2.46023
3596.77271	2.50053
3594.84414	2.53966
3592.91558	2.58102
3590.98701	2.62026
3589.05845	2.65784
3587.12988	2.70395
3585.20132	2.75187
3583.27275	2.78930
3581.34419	2.82451
3579.41562	2.86466
3577.48706	2.90867
3575.55850	2.95207
3573.62993	2.99421
3571.70137	3.03577
3569.77280	3.07731
3567.84424	3.12141
3565.91567	3.17368
3563.98711	3.22266
3562.05854	3.26240
3560.12998	3.30380
3558.20142	3.34848
3556.27285	3.39310
3554.34429	3.43710
3552.41572	3.48404
3550.48716	3.53129
3548.55859	3.57567
3546.63003	3.62213
3544.70146	3.67409
3542.77290	3.72439
3540.84434	3.76830
3538.91577	3.81089
3536.98721	3.85582
3535.05864	3.90471
3533.13008	3.95411
3531.20151	4.00140
3529.27295	4.04928
3527.34438	4.10126
3525.41582	4.15111
3523.48726	4.19480
3521.55869	4.24232
3519.63013	4.29417
3517.70156	4.34501
3515.77300	4.39506
3513.84443	4.44244
3511.91587	4.48487
3509.98730	4.52770
3508.05874	4.57757
3506.13018	4.63161
3504.20161	4.68220
3502.27305	4.72967
3500.34448	4.77635
3498.41592	4.81843
3496.48735	4.86247
3494.55879	4.91509
3492.63022	4.96463
3490.70166	5.00604
3488.77310	5.04931
3486.84453	5.09892
3484.91597	5.15458
3482.98740	5.21215
3481.05884	5.26287
3479.13027	5.30351
3477.20171	5.34458
3475.27314	5.39520
3473.34458	5.44799
3471.41602	5.49633
3469.48745	5.54168
3467.55889	5.58703
3465.63032	5.64012
3463.70176	5.69945
3461.77319	5.75142
3459.84463	5.79378
3457.91606	5.83343
3455.98750	5.88094
3454.05894	5.94139
3452.13037	6.00734
3450.20181	6.06328
3448.27324	6.10033
3446.34468	6.13560
3444.41611	6.17927
3442.48755	6.22719
3440.55898	6.28235
3438.63042	6.35379
3436.70186	6.42775
3434.77329	6.47095
3432.84473	6.49060
3430.91616	6.53123
3428.98760	6.60078
3427.05903	6.65867
3425.13047	6.70382
3423.20190	6.75135
3421.27334	6.79570
3419.34478	6.84398
3417.41621	6.90655
3415.48765	6.96339
3413.55908	6.99088
3411.63052	7.01508
3409.70195	7.05451
3407.77339	7.09549
3405.84482	7.12667
3403.91626	7.16086
3401.98770	7.19315
3400.05913	7.23188
3398.13057	7.29366
3396.20200	7.35740
3394.27344	7.41653
3392.34487	7.44261
3390.41631	7.44270
3388.48774	7.46629
3386.55918	7.51953
3384.63062	7.56027
3382.70205	7.58575
3380.77349	7.62828
3378.84492	7.65747
3376.91636	7.65652
3374.98779	7.66641
3373.05923	7.72643
3371.13066	7.78192
3369.20210	7.79494
3367.27354	7.81503
3365.34497	7.85063
3363.41641	7.86115
3361.48784	7.84859
3359.55928	7.87496
3357.63071	7.94171
3355.70215	7.96275
3353.77358	7.90337
3351.84502	7.86901
3349.91646	7.89359
3347.98789	7.94410
3346.05933	7.98068
3344.13076	7.94700
3342.20220	7.93481
3340.27363	8.00228
3338.34507	8.09135
3336.41650	8.18345
3334.48794	8.22723
3332.55937	8.17593
3330.63081	8.08639
3328.70225	7.98941
3326.77368	7.97945
3324.84512	8.09738
3322.91655	8.18642
3320.98799	8.16875
3319.05942	8.13491
3317.13086	8.17776
3315.20229	8.27737
3313.27373	8.33287
3311.34517	8.30598
3309.41660	8.23866
3307.48804	8.17379
3305.55947	8.13746
3303.63091	8.11481
3301.70234	8.07547
3299.77378	8.08792
3297.84521	8.15699
3295.91665	8.22133
3293.98809	8.29236
3292.05952	8.34094
3290.13096	8.30255
3288.20239	8.22622
3286.27383	8.20463
3284.34526	8.20386
3282.41670	8.15960
3280.48813	8.16711
3278.55957	8.29002
3276.63101	8.37568
3274.70244	8.36892
3272.77388	8.37800
3270.84531	8.39470
3268.91675	8.35272
3266.98818	8.24074
3265.05962	8.15222
3263.13105	8.14849
3261.20249	8.14784
3259.27393	8.10227
3257.34536	8.10959
3255.41680	8.18417
3253.48823	8.26109
3251.55967	8.33356
3249.63110	8.34066
3247.70254	8.25052
3245.77397	8.21467
3243.84541	8.27475
3241.91685	8.26756
3239.98828	8.18097
3238.05972	8.10854
3236.13115	8.09146
3234.20259	8.13167
3232.27402	8.12775
3230.34546	8.04095
3228.41689	8.00697
3226.48833	8.09493
3224.55977	8.20016
3222.63120	8.22386
3220.70264	8.16124
3218.77407	8.09912
3216.84551	8.11165
3214.91694	8.09854
3212.98838	8.02117
3211.05981	7.98237
3209.13125	7.95222
3207.20269	7.87936
3205.27412	7.83791
3203.34556	7.86570
3201.41699	7.88972
3199.48843	7.84474
3197.55986	7.79196
3195.63130	7.75108
3193.70273	7.67555
3191.77417	7.58206
3189.84561	7.49771
3187.91704	7.43356
3185.98848	7.39781
3184.05991	7.39481
3182.13135	7.37584
3180.20278	7.30024
3178.27422	7.22315
3176.34565	7.16052
3174.41709	7.07874
3172.48853	6.99424
3170.55996	6.93027
3168.63140	6.90065
3166.70283	6.88949
3164.77427	6.83220
3162.84570	6.74142
3160.91714	6.67836
3158.98857	6.62106
3157.06001	6.53653
3155.13145	6.45449
3153.20288	6.39331
3151.27432	6.33439
3149.34575	6.26296
3147.41719	6.18318
3145.48862	6.11012
3143.56006	6.04456
3141.63149	5.97451
3139.70293	5.90081
3137.77437	5.83428
3135.84580	5.77572
3133.91724	5.71885
3131.98867	5.65659
3130.06011	5.58890
3128.13154	5.52354
3126.20298	5.45374
3124.27441	5.37174
3122.34585	5.28698
3120.41729	5.20905
3118.48872	5.13927
3116.56016	5.07291
3114.63159	5.00463
3112.70303	4.93760
3110.77446	4.87074
3108.84590	4.79746
3106.91733	4.72450
3104.98877	4.65820
3103.06021	4.59465
3101.13164	4.53118
3099.20308	4.46671
3097.27451	4.40083
3095.34595	4.33573
3093.41738	4.27264
3091.48882	4.21024
3089.56025	4.14771
3087.63169	4.08564
3085.70312	4.02335
3083.77456	3.95853
3081.84600	3.89410
3079.91743	3.83427
3077.98887	3.77707
3076.06030	3.71974
3074.13174	3.66221
3072.20317	3.60564
3070.27461	3.54971
3068.34604	3.49354
3066.41748	3.43810
3064.48892	3.38303
3062.56035	3.32651
3060.63179	3.26947
3058.70322	3.21523
3056.77466	3.16548
3054.84609	3.11716
3052.91753	3.06581
3050.98896	3.01217
3049.06040	2.96054
3047.13184	2.91193
3045.20327	2.86343
3043.27471	2.81393
3041.34614	2.76583
3039.41758	2.72012
3037.48901	2.67478
3035.56045	2.62931
3033.63188	2.58486
3031.70332	2.54089
3029.77476	2.49704
3027.84619	2.45408
3025.91763	2.41168
3023.98906	2.36968
3022.06050	2.32852
3020.13193	2.28820
3018.20337	2.24890
3016.27480	2.20993
3014.34624	2.17066
3012.41768	2.13217
3010.48911	2.09512
3008.56055	2.05877
3006.63198	2.02250
3004.70342	1.98655
3002.77485	1.95156
3000.84629	1.91770
2998.91772	1.88468
2996.98916	1.85239
2995.06060	1.82078
2993.13203	1.78981
2991.20347	1.75977
2989.27490	1.73041
2987.34634	1.70131
2985.41777	1.67262
2983.48921	1.64447
2981.56064	1.61691
2979.63208	1.59005
2977.70352	1.56380
2975.77495	1.53799
2973.84639	1.51269
2971.91782	1.48788
2969.98926	1.46332
2968.06069	1.43941
2966.13213	1.41643
2964.20356	1.39333
2962.27500	1.36954
2960.34644	1.34590
2958.41787	1.32265
2956.48931	1.29933
2954.56074	1.27623
2952.63218	1.25353
2950.70361	1.23061
2948.77505	1.20771
2946.84648	1.18580
2944.91792	1.16482
2942.98936	1.14424
2941.06079	1.12397
2939.13223	1.10399
2937.20366	1.08428
2935.27510	1.06491
2933.34653	1.04576
2931.41797	1.02629
2929.48940	1.00646
2927.56084	0.98705
2925.63228	0.96873
2923.70371	0.95145
2921.77515	0.93462
2919.84658	0.91783
2917.91802	0.90129
2915.98945	0.88514
2914.06089	0.86908
2912.13232	0.85324
2910.20376	0.83808
2908.27520	0.82333
2906.34663	0.80833
2904.41807	0.79347
2902.48950	0.77958
2900.56094	0.76636
2898.63237	0.75328
2896.70381	0.74049
2894.77524	0.72803
2892.84668	0.71580
2890.91812	0.70396
2888.98955	0.69254
2887.06099	0.68168
2885.13242	0.67148
2883.20386	0.66175
2881.27529	0.65227
2879.34673	0.64271
2877.41816	0.63307
2875.48960	0.62348
2873.56104	0.61355
2871.63247	0.60303
2869.70391	0.59231
2867.77534	0.58139
2865.84678	0.56995
2863.91821	0.55839
2861.98965	0.54717
2860.06108	0.53640
2858.13252	0.52620
2856.20396	0.51642
2854.27539	0.50713
2852.34683	0.49854
2850.41826	0.49023
2848.48970	0.48185
2846.56113	0.47378
2844.63257	0.46625
2842.70400	0.45938
2840.77544	0.45321
2838.84687	0.44738
2836.91831	0.44157
2834.98975	0.43572
2833.06118	0.43002
2831.13262	0.42441
2829.20405	0.41867
2827.27549	0.41291
2825.34692	0.40713
2823.41836	0.40122
2821.48979	0.39538
2819.56123	0.38964
2817.63267	0.38386
2815.70410	0.37819
2813.77554	0.37274
2811.84697	0.36727
2809.91841	0.36174
2807.98984	0.35642
2806.06128	0.35144
2804.13271	0.34654
2802.20415	0.34154
2800.27559	0.33665
2798.34702	0.33195
2796.41846	0.32728
2794.48989	0.32262
2792.56133	0.31807
2790.63276	0.31354
2788.70420	0.30899
2786.77563	0.30459
2784.84707	0.30045
2782.91851	0.29641
2780.98994	0.29228
2779.06138	0.28815
2777.13281	0.28426
2775.20425	0.28059
2773.27568	0.27689
2771.34712	0.27318
2769.41855	0.26958
2767.48999	0.26595
2765.56143	0.26236
2763.63286	0.25909
2761.70430	0.25593
2759.77573	0.25272
2757.84717	0.24954
2755.91860	0.24640
2753.99004	0.24331
2752.06147	0.24031
2750.13291	0.23739
2748.20435	0.23450
2746.27578	0.23160
2744.34722	0.22880
2742.41865	0.22615
2740.49009	0.22358
2738.56152	0.22105
2736.63296	0.21866
2734.70439	0.21639
2732.77583	0.21405
2730.84727	0.21164
2728.91870	0.20926
2726.99014	0.20688
2725.06157	0.20458
2723.13301	0.20248
2721.20444	0.20052
2719.27588	0.19850
2717.34731	0.19641
2715.41875	0.19454
2713.49019	0.19289
2711.56162	0.19118
2709.63306	0.18933
2707.70449	0.18751
2705.77593	0.18593
2703.84736	0.18448
2701.91880	0.18298
2699.99023	0.18143
2698.06167	0.17991
2696.13311	0.17847
2694.20454	0.17707
2692.27598	0.17558
2690.34741	0.17413
2688.41885	0.17292
2686.49028	0.17184
2684.56172	0.17063
2682.63315	0.16929
2680.70459	0.16796
2678.77603	0.16677
2676.84746	0.16578
2674.91890	0.16480
2672.99033	0.16375
2671.06177	0.16272
2669.13320	0.16172
2667.20464	0.16084
2665.27607	0.16005
2663.34751	0.15917
2661.41895	0.15812
2659.49038	0.15704
2657.56182	0.15624
2655.63325	0.15567
2653.70469	0.15501
2651.77612	0.15423
2649.84756	0.15354
2647.91899	0.15289
2645.99043	0.15215
2644.06187	0.15150
2642.13330	0.15115
2640.20474	0.15078
2638.27617	0.15006
2636.34761	0.14939
2634.41904	0.14905
2632.49048	0.14873
2630.56191	0.14830
2628.63335	0.14795
2626.70479	0.14765
2624.77622	0.14727
2622.84766	0.14695
2620.91909	0.14670
2618.99053	0.14637
2617.06196	0.14590
2615.13340	0.14545
2613.20483	0.14513
2611.27627	0.14505
2609.34771	0.14516
2607.41914	0.14518
2605.49058	0.14511
2603.56201	0.14507
2601.63345	0.14508
2599.70488	0.14499
2597.77632	0.14480
2595.84775	0.14478
2593.91919	0.14500
2591.99062	0.14521
2590.06206	0.14535
2588.13350	0.14553
2586.20493	0.14570
2584.27637	0.14580
2582.34780	0.14592
2580.41924	0.14615
2578.49067	0.14644
2576.56211	0.14676
2574.63354	0.14701
2572.70498	0.14712
2570.77642	0.14729
2568.84785	0.14758
2566.91929	0.14803
2564.99072	0.14861
2563.06216	0.14906
2561.13359	0.14942
2559.20503	0.14985
2557.27646	0.15031
2555.34790	0.15065
2553.41934	0.15093
2551.49077	0.15135
2549.56221	0.15196
2547.63364	0.15265
2545.70508	0.15332
2543.77651	0.15381
2541.84795	0.15413
2539.91938	0.15453
2537.99082	0.15517
2536.06226	0.15592
2534.13369	0.15666
2532.20513	0.15731
2530.27656	0.15785
2528.34800	0.15851
2526.41943	0.15939
2524.49087	0.16022
2522.56230	0.16094
2520.63374	0.16169
2518.70518	0.16241
2516.77661	0.16312
2514.84805	0.16383
2512.91948	0.16447
2510.99092	0.16514
2509.06235	0.16591
2507.13379	0.16668
2505.20522	0.16755
2503.27666	0.16850
2501.34810	0.16935
2499.41953	0.17017
2497.49097	0.17099
2495.56240	0.17174
2493.63384	0.17247
2491.70527	0.17324
2489.77671	0.17407
2487.84814	0.17494
2485.91958	0.17575
2483.99102	0.17652
2482.06245	0.17730
2480.13389	0.17817
2478.20532	0.17910
2476.27676	0.18002
2474.34819	0.18093
2472.41963	0.18189
2470.49106	0.18287
2468.56250	0.18367
2466.63394	0.18432
2464.70537	0.18516
2462.77681	0.18623
2460.84824	0.18734
2458.91968	0.18825
2456.99111	0.18899
2455.06255	0.18986
2453.13398	0.19095
2451.20542	0.19205
2449.27686	0.19303
2447.34829	0.19393
2445.41973	0.19479
2443.49116	0.19567
2441.56260	0.19659
2439.63403	0.19764
2437.70547	0.19871
2435.77690	0.19964
2433.84834	0.20053
2431.91978	0.20144
2429.99121	0.20247
2428.06265	0.20362
2426.13408	0.20480
2424.20552	0.20593
2422.27695	0.20700
2420.34839	0.20802
2418.41982	0.20908
2416.49126	0.21017
2414.56270	0.21126
2412.63413	0.21243
2410.70557	0.21362
2408.77700	0.21475
2406.84844	0.21581
2404.91987	0.21691
2402.99131	0.21809
2401.06274	0.21927
2399.13418	0.22045
2397.20562	0.22168
2395.27705	0.22290
2393.34849	0.22411
2391.41992	0.22539
2389.49136	0.22693
2387.56279	0.22899
2385.63423	0.23183
2383.70566	0.23579
2381.77710	0.24099
2379.84854	0.24722
2377.91997	0.25409
2375.99141	0.26158
2374.06284	0.27022
2372.13428	0.28011
2370.20571	0.29074
2368.27715	0.30160
2366.34858	0.31211
2364.42002	0.32119
2362.49146	0.32769
2360.56289	0.33112
2358.63433	0.33189
2356.70576	0.32996
2354.77720	0.32437
2352.84863	0.31578
2350.92007	0.30645
2348.99150	0.30071
2347.06294	0.30154
2345.13437	0.30923
2343.20581	0.31921
2341.27725	0.32485
2339.34868	0.32613
2337.42012	0.32570
2335.49155	0.32518
2333.56299	0.32488
2331.63442	0.32516
2329.70586	0.32577
2327.77729	0.32567
2325.84873	0.32454
2323.92017	0.32291
2321.99160	0.32106
2320.06304	0.31876
2318.13447	0.31616
2316.20591	0.31390
2314.27734	0.31265
2312.34878	0.31251
2310.42021	0.31268
2308.49165	0.31229
2306.56309	0.31126
2304.63452	0.31022
2302.70596	0.30989
2300.77739	0.31026
2298.84883	0.31081
2296.92026	0.31134
2294.99170	0.31185
2293.06313	0.31235
2291.13457	0.31294
2289.20601	0.31373
2287.27744	0.31465
2285.34888	0.31560
2283.42031	0.31680
2281.49175	0.31853
2279.56318	0.32066
2277.63462	0.32288
2275.70605	0.32508
2273.77749	0.32722
2271.84893	0.32924
2269.92036	0.33124
2267.99180	0.33329
2266.06323	0.33535
2264.13467	0.33739
2262.20610	0.33937
2260.27754	0.34124
2258.34897	0.34311
2256.42041	0.34510
2254.49185	0.34710
2252.56328	0.34901
2250.63472	0.35104
2248.70615	0.35317
2246.77759	0.35518
2244.84902	0.35713
2242.92046	0.35915
2240.99189	0.36121
2239.06333	0.36334
2237.13477	0.36551
2235.20620	0.36766
2233.27764	0.36987
2231.34907	0.37211
2229.42051	0.37429
2227.49194	0.37654
2225.56338	0.37882
2223.63481	0.38097
2221.70625	0.38303
2219.77769	0.38525
2217.84912	0.38756
2215.92056	0.38974
2213.99199	0.39184
2212.06343	0.39399
2210.13486	0.39612
2208.20630	0.39815
2206.27773	0.40009
2204.34917	0.40207
2202.42061	0.40425
2200.49204	0.40634
2198.56348	0.40814
2196.63491	0.40991
2194.70635	0.41182
2192.77778	0.41378
2190.84922	0.41578
2188.92065	0.41780
2186.99209	0.41964
2185.06353	0.42131
2183.13496	0.42304
2181.20640	0.42482
2179.27783	0.42651
2177.34927	0.42817
2175.42070	0.42979
2173.49214	0.43130
2171.56357	0.43277
2169.63501	0.43419
2167.70645	0.43546
2165.77788	0.43671
2163.84932	0.43804
2161.92075	0.43933
2159.99219	0.44048
2158.06362	0.44140
2156.13506	0.44223
2154.20649	0.44306
2152.27793	0.44389
2150.34937	0.44466
2148.42080	0.44534
2146.49224	0.44600
2144.56367	0.44662
2142.63511	0.44721
2140.70654	0.44772
2138.77798	0.44804
2136.84941	0.44820
2134.92085	0.44836
2132.99229	0.44843
2131.06372	0.44833
2129.13516	0.44817
2127.20659	0.44796
2125.27803	0.44767
2123.34946	0.44732
2121.42090	0.44697
2119.49233	0.44657
2117.56377	0.44608
2115.63521	0.44543
2113.70664	0.44469
2111.77808	0.44392
2109.84951	0.44300
2107.92095	0.44194
2105.99238	0.44090
2104.06382	0.43992
2102.13525	0.43883
2100.20669	0.43763
2098.27812	0.43633
2096.34956	0.43484
2094.42100	0.43329
2092.49243	0.43181
2090.56387	0.43034
2088.63530	0.42869
2086.70674	0.42687
2084.77817	0.42501
2082.84961	0.42321
2080.92104	0.42134
2078.99248	0.41941
2077.06392	0.41740
2075.13535	0.41532
2073.20679	0.41326
2071.27822	0.41119
2069.34966	0.40899
2067.42109	0.40668
2065.49253	0.40443
2063.56396	0.40221
2061.63540	0.39991
2059.70684	0.39746
2057.77827	0.39494
2055.84971	0.39245
2053.92114	0.38999
2051.99258	0.38755
2050.06401	0.38508
2048.13545	0.38261
2046.20688	0.38009
2044.27832	0.37750
2042.34976	0.37486
2040.42119	0.37216
2038.49263	0.36943
2036.56406	0.36674
2034.63550	0.36405
2032.70693	0.36135
2030.77837	0.35874
2028.84980	0.35612
2026.92124	0.35331
2024.99268	0.35042
2023.06411	0.34764
2021.13555	0.34500
2019.20698	0.34248
2017.27842	0.34000
2015.34985	0.33729
2013.42129	0.33436
2011.49272	0.33149
2009.56416	0.32877
2007.63560	0.32613
2005.70703	0.32347
2003.77847	0.32074
2001.84990	0.31805
1999.92134	0.31550
1997.99277	0.31299
1996.06421	0.31051
1994.13564	0.30825
1992.20708	0.30610
1990.27852	0.30358
1988.34995	0.30087
1986.42139	0.29829
1984.49282	0.29584
1982.56426	0.29350
1980.63569	0.29121
1978.70713	0.28889
1976.77856	0.28654
1974.85000	0.28432
1972.92144	0.28222
1970.99287	0.28027
1969.06431	0.27856
1967.13574	0.27685
1965.20718	0.27467
1963.27861	0.27234
1961.35005	0.27032
1959.42148	0.26845
1957.49292	0.26656
1955.56436	0.26471
1953.63579	0.26295
1951.70723	0.26125
1949.77866	0.25962
1947.85010	0.25806
1945.92153	0.25675
1943.99297	0.25586
1942.06440	0.25477
1940.13584	0.25280
1938.20728	0.25071
1936.27871	0.24921
1934.35015	0.24800
1932.42158	0.24680
1930.49302	0.24558
1928.56445	0.24436
1926.63589	0.24325
1924.70732	0.24255
1922.77876	0.24206
1920.85020	0.24124
1918.92163	0.24031
1916.99307	0.23933
1915.06450	0.23803
1913.13594	0.23685
1911.20737	0.23626
1909.27881	0.23589
1907.35024	0.23513
1905.42168	0.23408
1903.49312	0.23327
1901.56455	0.23268
1899.63599	0.23214
1897.70742	0.23180
1895.77886	0.23174
1893.85029	0.23159
1891.92173	0.23132
1889.99316	0.23135
1888.06460	0.23108
1886.13604	0.23030
1884.20747	0.22968
1882.27891	0.22938
1880.35034	0.22933
1878.42178	0.22938
1876.49321	0.22941
1874.56465	0.22938
1872.63608	0.22961
1870.70752	0.23057
1868.77896	0.23203
1866.85039	0.23229
1864.92183	0.23133
1862.99326	0.23071
1861.06470	0.23070
1859.13613	0.23103
1857.20757	0.23141
1855.27900	0.23179
1853.35044	0.23213
1851.42187	0.23265
1849.49331	0.23355
1847.56475	0.23481
1845.63618	0.23636
1843.70762	0.23778
1841.77905	0.23804
1839.85049	0.23777
1837.92192	0.23832
1835.99336	0.23927
1834.06479	0.24010
1832.13623	0.24133
1830.20767	0.24350
1828.27910	0.24538
1826.35054	0.24626
1824.42197	0.24721
1822.49341	0.24792
1820.56484	0.24863
1818.63628	0.24988
1816.70771	0.25151
1814.77915	0.25309
1812.85059	0.25506
1810.92202	0.25758
1808.99346	0.25967
1807.06489	0.26114
1805.13633	0.26276
1803.20776	0.26523
1801.27920	0.26838
1799.35063	0.27146
1797.42207	0.27380
1795.49351	0.27618
1793.56494	0.27951
1791.63638	0.28359
1789.70781	0.28629
1787.77925	0.28785
1785.85068	0.29062
1783.92212	0.29444
1781.99355	0.29859
1780.06499	0.30291
1778.13643	0.30710
1776.20786	0.31116
1774.27930	0.31613
1772.35073	0.32300
1770.42217	0.32937
1768.49360	0.33363
1766.56504	0.33769
1764.63647	0.34248
1762.70791	0.34857
1760.77935	0.35631
1758.85078	0.36316
1756.92222	0.36996
1754.99365	0.37741
1753.06509	0.38449
1751.13652	0.39366
1749.20796	0.40511
1747.27939	0.41538
1745.35083	0.42379
1743.42227	0.43284
1741.49370	0.44303
1739.56514	0.45510
1737.63657	0.46730
1735.70801	0.47856
1733.77944	0.49581
1731.85088	0.51518
1729.92231	0.52941
1727.99375	0.54376
1726.06519	0.55975
1724.13662	0.57804
1722.20806	0.59816
1720.27949	0.61710
1718.35093	0.64009
1716.42236	0.67342
1714.49380	0.70309
1712.56523	0.72606
1710.63667	0.74891
1708.70811	0.77450
1706.77954	0.80436
1704.85098	0.84009
1702.92241	0.87177
1700.99385	0.90342
1699.06528	0.95057
1697.13672	0.99326
1695.20815	1.03623
1693.27959	1.07806
1691.35103	1.11268
1689.42246	1.15389
1687.49390	1.19789
1685.56533	1.24083
1683.63677	1.30686
1681.70820	1.37368
1679.77964	1.41558
1677.85107	1.45637
1675.92251	1.50412
1673.99395	1.56334
1672.06538	1.61638
1670.13682	1.66844
1668.20825	1.73578
1666.27969	1.79191
1664.35112	1.84153
1662.42256	1.90436
1660.49399	1.97451
1658.56543	2.02901
1656.63687	2.07428
1654.70830	2.11828
1652.77974	2.18475
1650.85117	2.24115
1648.92261	2.25927
1646.99404	2.28332
1645.06548	2.30771
1643.13691	2.32269
1641.20835	2.33128
1639.27979	2.34055
1637.35122	2.34714
1635.42266	2.34773
1633.49409	2.33899
1631.56553	2.32146
1629.63696	2.30009
1627.70840	2.26934
1625.77983	2.23677
1623.85127	2.19474
1621.92271	2.14015
1619.99414	2.09157
1618.06558	2.04502
1616.13701	1.97743
1614.20845	1.90847
1612.27988	1.85732
1610.35132	1.80483
1608.42275	1.74776
1606.49419	1.69088
1604.56562	1.63806
1602.63706	1.58736
1600.70850	1.53833
1598.77993	1.49351
1596.85137	1.45166
1594.92280	1.41118
1592.99424	1.37243
1591.06567	1.33739
1589.13711	1.30472
1587.20854	1.27429
1585.27998	1.24660
1583.35142	1.22145
1581.42285	1.19889
1579.49429	1.18006
1577.56572	1.16431
1575.63716	1.14529
1573.70859	1.12717
1571.78003	1.11564
1569.85146	1.10572
1567.92290	1.09513
1565.99434	1.08698
1564.06577	1.08165
1562.13721	1.07873
1560.20864	1.07971
1558.28008	1.08597
1556.35151	1.08910
1554.42295	1.08921
1552.49438	1.09014
1550.56582	1.09028
1548.63726	1.08795
1546.70869	1.08330
1544.78013	1.07644
1542.85156	1.06630
1540.92300	1.04893
1538.99443	1.01900
1537.06587	0.99575
1535.13730	0.98049
1533.20874	0.96065
1531.28018	0.93857
1529.35161	0.92261
1527.42305	0.90856
1525.49448	0.89422
1523.56592	0.88214
1521.63735	0.87091
1519.70879	0.85862
1517.78022	0.84754
1515.85166	0.83459
1513.92310	0.82079
1511.99453	0.80955
1510.06597	0.80093
1508.13740	0.79377
1506.20884	0.77943
1504.28027	0.76349
1502.35171	0.75454
1500.42314	0.74803
1498.49458	0.74192
1496.56602	0.73451
1494.63745	0.72619
1492.70889	0.71985
1490.78032	0.71547
1488.85176	0.71051
1486.92319	0.70413
1484.99463	0.69836
1483.06606	0.69426
1481.13750	0.69140
1479.20894	0.68944
1477.28037	0.68876
1475.35181	0.68941
1473.42324	0.69058
1471.49468	0.68972
1469.56611	0.68656
1467.63755	0.68388
1465.70898	0.68253
1463.78042	0.68155
1461.85186	0.68076
1459.92329	0.68149
1457.99473	0.68383
1456.06616	0.68417
1454.13760	0.68051
1452.20903	0.67682
1450.28047	0.67400
1448.35190	0.67170
1446.42334	0.66911
1444.49478	0.66646
1442.56621	0.66410
1440.63765	0.66180
1438.70908	0.65966
1436.78052	0.65707
1434.85195	0.65337
1432.92339	0.65012
1430.99482	0.64812
1429.06626	0.64691
1427.13770	0.64620
1425.20913	0.64644
1423.28057	0.64742
1421.35200	0.64828
1419.42344	0.64927
1417.49487	0.64949
1415.56631	0.64799
1413.63774	0.64667
1411.70918	0.64641
1409.78062	0.64709
1407.85205	0.64856
1405.92349	0.65061
1403.99492	0.65228
1402.06636	0.65274
1400.13779	0.65261
1398.20923	0.65202
1396.28066	0.65020
1394.35210	0.64639
1392.42354	0.64122
1390.49497	0.63651
1388.56641	0.63254
1386.63784	0.62802
1384.70928	0.62255
1382.78071	0.61726
1380.85215	0.61274
1378.92358	0.60914
1376.99502	0.60653
1375.06646	0.60494
1373.13789	0.60365
1371.20933	0.60230
1369.28076	0.60133
1367.35220	0.60031
1365.42363	0.59896
1363.49507	0.59780
1361.56650	0.59649
1359.63794	0.59453
1357.70937	0.59273
1355.78081	0.59146
1353.85225	0.59040
1351.92368	0.58938
1349.99512	0.58852
1348.06655	0.58777
1346.13799	0.58695
1344.20942	0.58625
1342.28086	0.58595
1340.35229	0.58594
1338.42373	0.58542
1336.49517	0.58427
1334.56660	0.58336
1332.63804	0.58296
1330.70947	0.58301
1328.78091	0.58348
1326.85234	0.58413
1324.92378	0.58476
1322.99521	0.58551
1321.06665	0.58651
1319.13809	0.58751
1317.20952	0.58796
1315.28096	0.58780
1313.35239	0.58740
1311.42383	0.58680
1309.49526	0.58603
1307.56670	0.58539
1305.63813	0.58493
1303.70957	0.58440
1301.78101	0.58363
1299.85244	0.58263
1297.92388	0.58154
1295.99531	0.58046
1294.06675	0.57944
1292.13818	0.57828
1290.20962	0.57690
1288.28105	0.57545
1286.35249	0.57415
1284.42393	0.57307
1282.49536	0.57202
1280.56680	0.57089
1278.63823	0.56971
1276.70967	0.56845
1274.78110	0.56714
1272.85254	0.56594
1270.92397	0.56496
1268.99541	0.56420
1267.06685	0.56355
1265.13828	0.56288
1263.20972	0.56214
1261.28115	0.56134
1259.35259	0.56053
1257.42402	0.55978
1255.49546	0.55932
1253.56689	0.55925
1251.63833	0.55937
1249.70977	0.55952
1247.78120	0.55957
1245.85264	0.55933
1243.92407	0.55870
1241.99551	0.55772
1240.06694	0.55637
1238.13838	0.55461
1236.20981	0.55259
1234.28125	0.55056
1232.35269	0.54852
1230.42412	0.54632
1228.49556	0.54412
1226.56699	0.54211
1224.63843	0.54025
1222.70986	0.53851
1220.78130	0.53695
1218.85273	0.53556
1216.92417	0.53439
1214.99561	0.53351
1213.06704	0.53282
1211.13848	0.53220
1209.20991	0.53156
1207.28135	0.53096
1205.35278	0.53026
1203.42422	0.52929
1201.49565	0.52818
1199.56709	0.52721
1197.63853	0.52649
1195.70996	0.52589
1193.78140	0.52532
1191.85283	0.52468
1189.92427	0.52408
1187.99570	0.52358
1186.06714	0.52330
1184.13857	0.52333
1182.21001	0.52375
1180.28145	0.52474
1178.35288	0.52618
1176.42432	0.52762
1174.49575	0.52880
1172.56719	0.52966
1170.63862	0.53004
1168.71006	0.53010
1166.78149	0.53018
1164.85293	0.53024
1162.92437	0.53006
1160.99580	0.52977
1159.06724	0.52946
1157.13867	0.52895
1155.21011	0.52818
1153.28154	0.52714
1151.35298	0.52549
1149.42441	0.52311
1147.49585	0.52040
1145.56729	0.51762
1143.63872	0.51478
1141.71016	0.51216
1139.78159	0.51012
1137.85303	0.50874
1135.92446	0.50787
1133.99590	0.50738
1132.06733	0.50723
1130.13877	0.50718
1128.21021	0.50692
1126.28164	0.50646
1124.35308	0.50611
1122.42451	0.50597
1120.49595	0.50592
1118.56738	0.50613
1116.63882	0.50657
1114.71025	0.50709
1112.78169	0.50775
1110.85312	0.50865
1108.92456	0.50970
1106.99600	0.51063
1105.06743	0.51156
1103.13887	0.51262
1101.21030	0.51376
1099.28174	0.51521
1097.35317	0.51725
1095.42461	0.51987
1093.49604	0.52317
1091.56748	0.52756
1089.63892	0.53332
1087.71035	0.54029
1085.78179	0.54805
1083.85322	0.55612
1081.92466	0.56374
1079.99609	0.56951
1078.06753	0.57227
1076.13896	0.57197
1074.21040	0.56880
1072.28184	0.56327
1070.35327	0.55646
1068.42471	0.54917
1066.49614	0.54208
1064.56758	0.53573
1062.63901	0.53030
1060.71045	0.52555
1058.78188	0.52123
1056.85332	0.51748
1054.92476	0.51425
1052.99619	0.51128
1051.06763	0.50873
1049.13906	0.50684
1047.21050	0.50549
1045.28193	0.50456
1043.35337	0.50390
1041.42480	0.50332
1039.49624	0.50295
1037.56768	0.50283
1035.63911	0.50263
1033.71055	0.50211
1031.78198	0.50122
1029.85342	0.50007
1027.92485	0.49875
1025.99629	0.49739
1024.06772	0.49636
1022.13916	0.49597
1020.21060	0.49603
1018.28203	0.49608
1016.35347	0.49608
1014.42490	0.49604
1012.49634	0.49586
1010.56777	0.49573
1008.63921	0.49583
1006.71064	0.49623
1004.78208	0.49715
1002.85352	0.49884
1000.92495	0.50132
998.99639	0.50464
997.06782	0.50875
995.13926	0.51320
993.21069	0.51740
991.28213	0.52077
989.35356	0.52297
987.42500	0.52409
985.49644	0.52433
983.56787	0.52419
981.63931	0.52428
979.71074	0.52486
977.78218	0.52613
975.85361	0.52810
973.92505	0.53053
971.99648	0.53330
970.06792	0.53644
968.13936	0.54007
966.21079	0.54425
964.28223	0.54861
962.35366	0.55308
960.42510	0.55781
958.49653	0.56271
956.56797	0.56809
954.63940	0.57427
952.71084	0.58082
950.78228	0.58713
948.85371	0.59318
946.92515	0.59930
944.99658	0.60578
943.06802	0.61249
941.13945	0.61876
939.21089	0.62445
937.28232	0.63028
935.35376	0.63635
933.42520	0.64200
931.49663	0.64730
929.56807	0.65270
927.63950	0.65812
925.71094	0.66374
923.78237	0.66994
921.85381	0.67628
919.92524	0.68238
917.99668	0.68890
916.06812	0.69645
914.13955	0.70470
912.21099	0.71243
910.28242	0.71923
908.35386	0.72684
906.42529	0.73622
904.49673	0.74540
902.56816	0.75314
900.63960	0.76132
898.71104	0.77093
896.78247	0.78052
894.85391	0.78965
892.92534	0.79988
890.99678	0.81146
889.06821	0.82254
887.13965	0.83260
885.21108	0.84255
883.28252	0.85351
881.35396	0.86557
879.42539	0.87766
877.49683	0.88984
875.56826	0.90228
873.63970	0.91426
871.71113	0.92505
869.78257	0.93488
867.85400	0.94555
865.92544	0.95719
863.99687	0.96834
862.06831	0.97904
860.13975	0.98967
858.21118	1.00044
856.28262	1.01207
854.35405	1.02532
852.42549	1.03911
850.49692	1.05243
848.56836	1.06468
846.63979	1.07381
844.71123	1.08233
842.78267	1.09340
840.85410	1.10492
838.92554	1.11608
836.99697	1.12912
835.06841	1.14328
833.13984	1.15363
831.21128	1.16124
829.28271	1.17291
827.35415	1.18876
825.42559	1.20233
823.49702	1.21048
821.56846	1.21605
819.63989	1.22054
817.71133	1.22974
815.78276	1.25121
813.85420	1.27241
811.92563	1.28201
809.99707	1.28993
808.06851	1.29880
806.13994	1.30461
804.21138	1.30937
802.28281	1.32429
800.35425	1.35665
798.42568	1.39180
796.49712	1.40689
794.56855	1.40369
792.63999	1.40670
790.71143	1.43319
788.78286	1.45861
786.85430	1.42084
784.92573	1.35130
782.99717	1.32235
781.06860	1.35383
779.14004	1.44324
777.21147	1.54886
775.28291	1.57186
773.35435	1.61291
771.42578	2.01595
769.49722	4.61698
767.56865	1.87016
765.64009	1.50567
763.71152	1.37038
761.78296	1.29263
759.85439	1.26833
757.92583	1.22858
755.99727	1.16486
754.06870	1.14241
752.14014	1.13261
750.21157	1.07003
748.28301	1.02051
746.35444	1.05143
744.42588	1.16457
742.49731	1.26825
740.56875	1.18767
738.64019	1.00199
736.71162	0.85785
734.78306	0.76187
732.85449	0.67742
730.92593	0.61426
728.99736	0.60334
727.06880	0.55462
725.14023	0.38782
723.21167	0.21941
721.28311	0.06054
719.35454	-0.13757
717.42598	-0.34720
715.49741	-0.52201
713.56885	-0.48627
711.64028	-0.12491
709.71172	0.14087
707.78315	0.20111
705.85459	0.15181
703.92603	0.21050
701.99746	0.27090
700.06890	0.25859
698.14033	0.23079
696.21177	0.25795
694.28320	0.31762
692.35464	0.37752
690.42607	0.39239
688.49751	0.34143
686.56895	0.24699
684.64038	0.16438
682.71182	0.13981
680.78325	0.14645
678.85469	0.19313
676.92612	0.28624
674.99756	0.28502
673.06899	0.16911
671.14043	0.11552
669.21187	0.11753
667.28330	0.13527
665.35474	0.14521
663.42617	0.14303
661.49761	0.17381
659.56904	0.24741
657.64048	0.33503
655.71191	0.39860
653.78335	0.43814
651.85479	0.39983
649.92622	0.27647
647.99766	0.24023
646.06909	0.25801
644.14053	0.20487
642.21196	0.13758
640.28340	0.17926
638.35483	0.27361
636.42627	0.24480
634.49771	0.17075
632.56914	0.18423
630.64058	0.23777
628.71201	0.24066
626.78345	0.18858
624.85488	0.15339
622.92632	0.18066
620.99775	0.25702
619.06919	0.44961
617.14062	0.73973
615.21206	0.49992
613.28350	0.34217
611.35493	0.29019
609.42637	0.25439
607.49780	0.25548
605.56924	0.30064
603.64067	0.29978
601.71211	0.26031
599.78354	0.30028
597.85498	0.46213
595.92642	0.60967
593.99785	0.40293
592.06929	0.23400
590.14072	0.17110
588.21216	0.15344
586.28359	0.12054
584.35503	0.10083
582.42646	0.15748
580.49790	0.21133
578.56934	0.17337
576.64077	0.13544
574.71221	0.12320
572.78364	0.13885
570.85508	0.20071
568.92651	0.24517
566.99795	0.23070
565.06938	0.18033
563.14082	0.12109
561.21226	0.09875
559.28369	0.14991
557.35513	0.24249
555.42656	0.25031
553.49800	0.20541
551.56943	0.18419
549.64087	0.13542
547.71230	0.10920
545.78374	0.18244
543.85518	0.23258
541.92661	0.20189
539.99805	0.17754
538.06948	0.18769
536.14092	0.22583
534.21235	0.20629
532.28379	0.17436
530.35522	0.20598
528.42666	0.26317
526.49810	0.25132
524.56953	0.20868
522.64097	0.19548
520.71240	0.19499
518.78384	0.19167
516.85527	0.19235
514.92671	0.21130
512.99814	0.19915
511.06958	0.13810
509.14102	0.12342
507.21245	0.15943
505.28389	0.18585
503.35532	0.21191
501.42676	0.25320
499.49819	0.27028
