3997.91411	0.06948
3995.98555	0.07015
3994.05698	0.07059
3992.12842	0.07051
3990.19985	0.07035
3988.27129	0.07028
3986.34272	0.07016
3984.41416	0.07041
3982.48560	0.07126
3980.55703	0.07195
3978.62847	0.07191
3976.69990	0.07190
3974.77134	0.07249
3972.84277	0.07329
3970.91421	0.07387
3968.98564	0.07385
3967.05708	0.07310
3965.12852	0.07239
3963.19995	0.07263
3961.27139	0.07334
3959.34282	0.07373
3957.41426	0.07396
3955.48569	0.07416
3953.55713	0.07415
3951.62856	0.07428
3949.70000	0.07481
3947.77144	0.07533
3945.84287	0.07550
3943.91431	0.07585
3941.98574	0.07648
3940.05718	0.07617
3938.12861	0.07508
3936.20005	0.07452
3934.27148	0.07486
3932.34292	0.07584
3930.41436	0.07658
3928.48579	0.07611
3926.55723	0.07532
3924.62866	0.07568
3922.70010	0.07625
3920.77153	0.07596
3918.84297	0.07612
3916.91440	0.07687
3914.98584	0.07642
3913.05728	0.07482
3911.12871	0.07356
3909.20015	0.07300
3907.27158	0.07348
3905.34302	0.07570
3903.41445	0.07900
3901.48589	0.08082
3899.55732	0.08054
3897.62876	0.07911
3895.70020	0.07724
3893.77163	0.07633
3891.84307	0.07705
3889.91450	0.07778
3887.98594	0.07721
3886.05737	0.07742
3884.12881	0.07874
3882.20024	0.07918
3880.27168	0.07927
3878.34312	0.07879
3876.41455	0.07765
3874.48599	0.07804
3872.55742	0.07986
3870.62886	0.08163
3868.70029	0.08258
3866.77173	0.08216
3864.84316	0.08222
3862.91460	0.08296
3860.98604	0.08218
3859.05747	0.08067
3857.12891	0.08057
3855.20034	0.08268
3853.27178	0.08722
3851.34321	0.08967
3849.41465	0.08655
3847.48608	0.08343
3845.55752	0.08263
3843.62896	0.08410
3841.70039	0.08687
3839.77183	0.08998
3837.84326	0.09274
3835.91470	0.09313
3833.98613	0.09144
3832.05757	0.09008
3830.12900	0.08963
3828.20044	0.08985
3826.27187	0.09084
3824.34331	0.09196
3822.41475	0.09370
3820.48618	0.09725
3818.55762	0.09917
3816.62905	0.09877
3814.70049	0.09808
3812.77192	0.09628
3810.84336	0.09485
3808.91479	0.09553
3806.98623	0.09858
3805.05767	0.10194
3803.12910	0.10406
3801.20054	0.10680
3799.27197	0.10847
3797.34341	0.10783
3795.41484	0.10717
3793.48628	0.10605
3791.55771	0.10517
3789.62915	0.10601
3787.70059	0.10815
3785.77202	0.11067
3783.84346	0.11270
3781.91489	0.11391
3779.98633	0.11548
3778.05776	0.11743
3776.12920	0.11828
3774.20063	0.11885
3772.27207	0.12066
3770.34351	0.12393
3768.41494	0.12723
3766.48638	0.12916
3764.55781	0.13071
3762.62925	0.13216
3760.70068	0.13418
3758.77212	0.13792
3756.84355	0.14173
3754.91499	0.14404
3752.98643	0.14710
3751.05786	0.15335
3749.12930	0.16004
3747.20073	0.16222
3745.27217	0.16370
3743.34360	0.16774
3741.41504	0.17163
3739.48647	0.17473
3737.55791	0.18007
3735.62935	0.18944
3733.70078	0.19953
3731.77222	0.20447
3729.84365	0.20670
3727.91509	0.20996
3725.98652	0.21568
3724.05796	0.22233
3722.12939	0.22763
3720.20083	0.23194
3718.27227	0.23554
3716.34370	0.23950
3714.41514	0.24582
3712.48657	0.25725
3710.55801	0.27510
3708.62944	0.29162
3706.70088	0.30221
3704.77231	0.31225
3702.84375	0.32550
3700.91519	0.34313
3698.98662	0.36153
3697.05806	0.37830
3695.12949	0.39622
3693.20093	0.41607
3691.27236	0.43884
3689.34380	0.46810
3687.41523	0.50184
3685.48667	0.52996
3683.55811	0.55419
3681.62954	0.58160
3679.70098	0.61398
3677.77241	0.64875
3675.84385	0.69037
3673.91528	0.74489
3671.98672	0.78726
3670.05815	0.82482
3668.12959	0.87741
3666.20103	0.92465
3664.27246	0.96418
3662.34390	1.00780
3660.41533	1.05546
3658.48677	1.10269
3656.55820	1.15354
3654.62964	1.21065
3652.70107	1.25888
3650.77251	1.30145
3648.84395	1.36045
3646.91538	1.43022
3644.98682	1.47868
3643.05825	1.51593
3641.12969	1.55563
3639.20112	1.60058
3637.27256	1.64663
3635.34399	1.69172
3633.41543	1.73667
3631.48687	1.77892
3629.55830	1.82235
3627.62974	1.87940
3625.70117	1.93152
3623.77261	1.96526
3621.84404	1.99704
3619.91548	2.03397
3617.98691	2.07986
3616.05835	2.12407
3614.12979	2.15951
3612.20122	2.19673
3610.27266	2.23581
3608.34409	2.27709
3606.41553	2.32139
3604.48696	2.36102
3602.55840	2.39583
3600.62983	2.43394
3598.70127	2.47523
3596.77271	2.51543
3594.84414	2.55711
3592.91558	2.59976
3590.98701	2.63783
3589.05845	2.67329
3587.12988	2.71805
3585.20132	2.76726
3583.27275	2.80655
3581.34419	2.84217
3579.41562	2.88114
3577.48706	2.92261
3575.55850	2.96480
3573.62993	3.00784
3571.70137	3.04858
3569.77280	3.08748
3567.84424	3.13074
3565.91567	3.18494
3563.98711	3.23710
3562.05854	3.27794
3560.12998	3.31734
3558.20142	3.35993
3556.27285	3.40375
3554.34429	3.44667
3552.41572	3.49216
3550.48716	3.53953
3548.55859	3.58563
3546.63003	3.63264
3544.70146	3.68145
3542.77290	3.72779
3540.84434	3.77214
3538.91577	3.81761
3536.98721	3.86350
3535.05864	3.91114
3533.13008	3.95922
3531.20151	4.00747
3529.27295	4.05787
3527.34438	4.10866
3525.41582	4.15613
3523.48726	4.20270
3521.55869	4.25239
3519.63013	4.30137
3517.70156	4.34650
3515.77300	4.38907
3513.84443	4.43327
3511.91587	4.48378
3509.98730	4.54039
3508.05874	4.59309
3506.13018	4.63701
3504.20161	4.68015
3502.27305	4.72689
3500.34448	4.77266
3498.41592	4.81403
3496.48735	4.85972
3494.55879	4.91701
3492.63022	4.97594
3490.70166	5.02499
3488.77310	5.06789
3486.84453	5.11079
3484.91597	5.15493
3482.98740	5.20173
3481.05884	5.25334
3479.13027	5.30586
3477.20171	5.35215
3475.27314	5.39321
3473.34458	5.43646
3471.41602	5.48667
3469.48745	5.54162
3467.55889	5.59741
3465.63032	5.65137
3463.70176	5.69921
3461.77319	5.73808
3459.84463	5.78059
3457.91606	5.83075
3455.98750	5.87731
3454.05894	5.92020
3452.13037	5.97045
3450.20181	6.03616
3448.27324	6.10001
3446.34468	6.14266
3444.41611	6.17469
3442.48755	6.22087
3440.55898	6.27399
3438.63042	6.31508
3436.70186	6.35758
3434.77329	6.40992
3432.84473	6.46194
3430.91616	6.52010
3428.98760	6.58613
3427.05903	6.63280
3425.13047	6.66115
3423.20190	6.69852
3421.27334	6.76075
3419.34478	6.82235
3417.41621	6.86714
3415.48765	6.92565
3413.55908	6.98623
3411.63052	7.02302
3409.70195	7.04260
3407.77339	7.06283
3405.84482	7.09407
3403.91626	7.14858
3401.98770	7.21555
3400.05913	7.29466
3398.13057	7.37265
3396.20200	7.38978
3394.27344	7.38543
3392.34487	7.41008
3390.41631	7.45317
3388.48774	7.50811
3386.55918	7.57985
3384.63062	7.63465
3382.70205	7.64891
3380.77349	7.66842
3378.84492	7.68648
3376.91636	7.68131
3374.98779	7.68873
3373.05923	7.73454
3371.13066	7.77658
3369.20210	7.78235
3367.27354	7.78049
3365.34497	7.79751
3363.41641	7.83623
3361.48784	7.90638
3359.55928	7.96765
3357.63071	7.98775
3355.70215	8.01671
3353.77358	8.05102
3351.84502	8.09044
3349.91646	8.08767
3347.98789	8.03776
3346.05933	8.02457
3344.13076	8.00598
3342.20220	7.93847
3340.27363	7.90454
3338.34507	7.98090
3336.41650	8.10976
3334.48794	8.21124
3332.55937	8.25313
3330.63081	8.17999
3328.70225	8.03141
3326.77368	7.97953
3324.84512	8.07048
3322.91655	8.16908
3320.98799	8.20259
3319.05942	8.19594
3317.13086	8.19520
3315.20229	8.18487
3313.27373	8.11184
3311.34517	8.04212
3309.41660	8.08314
3307.48804	8.16720
3305.55947	8.13839
3303.63091	8.06281
3301.70234	8.11191
3299.77378	8.27950
3297.84521	8.29712
3295.91665	8.19301
3293.98809	8.20641
3292.05952	8.23209
3290.13096	8.15644
3288.20239	8.09044
3286.27383	8.11252
3284.34526	8.18572
3282.41670	8.22044
3280.48813	8.17033
3278.55957	8.13905
3276.63101	8.17968
3274.70244	8.17828
3272.77388	8.10140
3270.84531	8.09070
3268.91675	8.17730
3266.98818	8.20349
3265.05962	8.18511
3263.13105	8.21624
3261.20249	8.20977
3259.27393	8.16909
3257.34536	8.13985
3255.41680	8.07358
3253.48823	8.05058
3251.55967	8.14144
3249.63110	8.25750
3247.70254	8.30700
3245.77397	8.31497
3243.84541	8.31880
3241.91685	8.22406
3239.98828	8.06630
3238.05972	7.98946
3236.13115	7.99305
3234.20259	8.02003
3232.27402	8.07028
3230.34546	8.17567
3228.41689	8.27881
3226.48833	8.27354
3224.55977	8.19811
3222.63120	8.13160
3220.70264	8.08184
3218.77407	8.08081
3216.84551	8.09881
3214.91694	8.03088
3212.98838	7.91674
3211.05981	7.86346
3209.13125	7.85277
3207.20269	7.82255
3205.27412	7.83464
3203.34556	7.92041
3201.41699	7.93766
3199.48843	7.82067
3197.55986	7.69172
3195.63130	7.63564
3193.70273	7.63363
3191.77417	7.62798
3189.84561	7.59333
3187.91704	7.54589
3185.98848	7.49338
3184.05991	7.41420
3182.13135	7.31229
3180.20278	7.22757
3178.27422	7.17303
3176.34565	7.13804
3174.41709	7.10066
3172.48853	7.03135
3170.55996	6.92559
3168.63140	6.82026
3166.70283	6.76295
3164.77427	6.76176
3162.84570	6.76244
3160.91714	6.72067
3158.98857	6.66465
3157.06001	6.59704
3155.13145	6.49951
3153.20288	6.40196
3151.27432	6.32657
3149.34575	6.26318
3147.41719	6.19766
3145.48862	6.12481
3143.56006	6.04302
3141.63149	5.95992
3139.70293	5.89417
3137.77437	5.84602
3135.84580	5.79532
3133.91724	5.73354
3131.98867	5.65900
3130.06011	5.57571
3128.13154	5.49993
3126.20298	5.43179
3124.27441	5.36028
3122.34585	5.28772
3120.41729	5.21853
3118.48872	5.14955
3116.56016	5.08087
3114.63159	5.01400
3112.70303	4.94420
3110.77446	4.86771
3108.84590	4.79182
3106.91733	4.72251
3104.98877	4.65609
3103.06021	4.59175
3101.13164	4.52808
3099.20308	4.46209
3097.27451	4.39488
3095.34595	4.32863
3093.41738	4.26418
3091.48882	4.20010
3089.56025	4.13602
3087.63169	4.07211
3085.70312	4.00807
3083.77456	3.94444
3081.84600	3.88160
3079.91743	3.82067
3077.98887	3.76304
3076.06030	3.70602
3074.13174	3.64782
3072.20317	3.58997
3070.27461	3.53129
3068.34604	3.47258
3066.41748	3.41658
3064.48892	3.36189
3062.56035	3.30735
3060.63179	3.25383
3058.70322	3.20073
3056.77466	3.14770
3054.84609	3.09518
3052.91753	3.04260
3050.98896	2.99022
3049.06040	2.93931
3047.13184	2.89003
3045.20327	2.84151
3043.27471	2.79319
3041.34614	2.74555
3039.41758	2.69963
3037.48901	2.65532
3035.56045	2.61097
3033.63188	2.56584
3031.70332	2.52075
3029.77476	2.47643
3027.84619	2.43308
3025.91763	2.39077
3023.98906	2.34903
3022.06050	2.30776
3020.13193	2.26735
3018.20337	2.22784
3016.27480	2.18921
3014.34624	2.15119
3012.41768	2.11367
3010.48911	2.07671
3008.56055	2.04026
3006.63198	2.00430
3004.70342	1.96864
3002.77485	1.93354
3000.84629	1.89961
2998.91772	1.86619
2996.98916	1.83261
2995.06060	1.79999
2993.13203	1.76898
2991.20347	1.73846
2989.27490	1.70787
2987.34634	1.67749
2985.41777	1.64772
2983.48921	1.61907
2981.56064	1.59135
2979.63208	1.56390
2977.70352	1.53677
2975.77495	1.50989
2973.84639	1.48282
2971.91782	1.45603
2969.98926	1.43004
2968.06069	1.40486
2966.13213	1.38057
2964.20356	1.35690
2962.27500	1.33333
2960.34644	1.30974
2958.41787	1.28659
2956.48931	1.26380
2954.56074	1.24110
2952.63218	1.21880
2950.70361	1.19713
2948.77505	1.17573
2946.84648	1.15438
2944.91792	1.13341
2942.98936	1.11298
2941.06079	1.09324
2939.13223	1.07443
2937.20366	1.05591
2935.27510	1.03683
2933.34653	1.01789
2931.41797	0.99965
2929.48940	0.98148
2927.56084	0.96345
2925.63228	0.94597
2923.70371	0.92912
2921.77515	0.91311
2919.84658	0.89749
2917.91802	0.88156
2915.98945	0.86540
2914.06089	0.84947
2912.13232	0.83423
2910.20376	0.81977
2908.27520	0.80568
2906.34663	0.79185
2904.41807	0.77839
2902.48950	0.76504
2900.56094	0.75185
2898.63237	0.73918
2896.70381	0.72696
2894.77524	0.71494
2892.84668	0.70315
2890.91812	0.69153
2888.98955	0.68015
2887.06099	0.66919
2885.13242	0.65856
2883.20386	0.64822
2881.27529	0.63829
2879.34673	0.62861
2877.41816	0.61866
2875.48960	0.60843
2873.56104	0.59837
2871.63247	0.58836
2869.70391	0.57794
2867.77534	0.56751
2865.84678	0.55741
2863.91821	0.54730
2861.98965	0.53727
2860.06108	0.52774
2858.13252	0.51870
2856.20396	0.50988
2854.27539	0.50129
2852.34683	0.49303
2850.41826	0.48498
2848.48970	0.47698
2846.56113	0.46911
2844.63257	0.46174
2842.70400	0.45499
2840.77544	0.44858
2838.84687	0.44235
2836.91831	0.43619
2834.98975	0.43021
2833.06118	0.42451
2831.13262	0.41877
2829.20405	0.41287
2827.27549	0.40698
2825.34692	0.40107
2823.41836	0.39515
2821.48979	0.38932
2819.56123	0.38355
2817.63267	0.37784
2815.70410	0.37219
2813.77554	0.36665
2811.84697	0.36138
2809.91841	0.35638
2807.98984	0.35122
2806.06128	0.34585
2804.13271	0.34069
2802.20415	0.33579
2800.27559	0.33113
2798.34702	0.32665
2796.41846	0.32214
2794.48989	0.31760
2792.56133	0.31307
2790.63276	0.30871
2788.70420	0.30446
2786.77563	0.30017
2784.84707	0.29611
2782.91851	0.29243
2780.98994	0.28876
2779.06138	0.28488
2777.13281	0.28087
2775.20425	0.27687
2773.27568	0.27318
2771.34712	0.26987
2769.41855	0.26668
2767.48999	0.26332
2765.56143	0.25985
2763.63286	0.25652
2761.70430	0.25320
2759.77573	0.24987
2757.84717	0.24679
2755.91860	0.24391
2753.99004	0.24102
2752.06147	0.23822
2750.13291	0.23546
2748.20435	0.23264
2746.27578	0.22987
2744.34722	0.22734
2742.41865	0.22508
2740.49009	0.22288
2738.56152	0.22053
2736.63296	0.21804
2734.70439	0.21558
2732.77583	0.21323
2730.84727	0.21095
2728.91870	0.20881
2726.99014	0.20684
2725.06157	0.20491
2723.13301	0.20289
2721.20444	0.20084
2719.27588	0.19894
2717.34731	0.19714
2715.41875	0.19526
2713.49019	0.19337
2711.56162	0.19164
2709.63306	0.19005
2707.70449	0.18849
2705.77593	0.18679
2703.84736	0.18497
2701.91880	0.18336
2699.99023	0.18197
2698.06167	0.18054
2696.13311	0.17905
2694.20454	0.17759
2692.27598	0.17616
2690.34741	0.17481
2688.41885	0.17364
2686.49028	0.17246
2684.56172	0.17122
2682.63315	0.17005
2680.70459	0.16889
2678.77603	0.16769
2676.84746	0.16652
2674.91890	0.16543
2672.99033	0.16433
2671.06177	0.16322
2669.13320	0.16223
2667.20464	0.16140
2665.27607	0.16056
2663.34751	0.15965
2661.41895	0.15869
2659.49038	0.15768
2657.56182	0.15679
2655.63325	0.15615
2653.70469	0.15556
2651.77612	0.15484
2649.84756	0.15411
2647.91899	0.15350
2645.99043	0.15291
2644.06187	0.15234
2642.13330	0.15176
2640.20474	0.15115
2638.27617	0.15066
2636.34761	0.15037
2634.41904	0.15006
2632.49048	0.14957
2630.56191	0.14899
2628.63335	0.14846
2626.70479	0.14803
2624.77622	0.14766
2622.84766	0.14739
2620.91909	0.14728
2618.99053	0.14723
2617.06196	0.14710
2615.13340	0.14689
2613.20483	0.14667
2611.27627	0.14656
2609.34771	0.14651
2607.41914	0.14637
2605.49058	0.14621
2603.56201	0.14620
2601.63345	0.14625
2599.70488	0.14631
2597.77632	0.14644
2595.84775	0.14653
2593.91919	0.14652
2591.99062	0.14648
2590.06206	0.14645
2588.13350	0.14657
2586.20493	0.14689
2584.27637	0.14721
2582.34780	0.14743
2580.41924	0.14763
2578.49067	0.14774
2576.56211	0.14781
2574.63354	0.14808
2572.70498	0.14862
2570.77642	0.14922
2568.84785	0.14968
2566.91929	0.15000
2564.99072	0.15022
2563.06216	0.15054
2561.13359	0.15108
2559.20503	0.15171
2557.27646	0.15226
2555.34790	0.15271
2553.41934	0.15314
2551.49077	0.15349
2549.56221	0.15379
2547.63364	0.15421
2545.70508	0.15483
2543.77651	0.15563
2541.84795	0.15643
2539.91938	0.15700
2537.99082	0.15748
2536.06226	0.15819
2534.13369	0.15899
2532.20513	0.15967
2530.27656	0.16030
2528.34800	0.16094
2526.41943	0.16154
2524.49087	0.16222
2522.56230	0.16305
2520.63374	0.16387
2518.70518	0.16454
2516.77661	0.16514
2514.84805	0.16591
2512.91948	0.16686
2510.99092	0.16776
2509.06235	0.16849
2507.13379	0.16922
2505.20522	0.17007
2503.27666	0.17091
2501.34810	0.17159
2499.41953	0.17232
2497.49097	0.17320
2495.56240	0.17417
2493.63384	0.17512
2491.70527	0.17592
2489.77671	0.17662
2487.84814	0.17742
2485.91958	0.17842
2483.99102	0.17947
2482.06245	0.18034
2480.13389	0.18108
2478.20532	0.18189
2476.27676	0.18280
2474.34819	0.18372
2472.41963	0.18462
2470.49106	0.18554
2468.56250	0.18644
2466.63394	0.18716
2464.70537	0.18799
2462.77681	0.18911
2460.84824	0.19015
2458.91968	0.19090
2456.99111	0.19167
2455.06255	0.19271
2453.13398	0.19384
2451.20542	0.19479
2449.27686	0.19559
2447.34829	0.19647
2445.41973	0.19746
2443.49116	0.19846
2441.56260	0.19947
2439.63403	0.20058
2437.70547	0.20165
2435.77690	0.20258
2433.84834	0.20353
2431.91978	0.20460
2429.99121	0.20571
2428.06265	0.20677
2426.13408	0.20789
2424.20552	0.20911
2422.27695	0.21026
2420.34839	0.21127
2418.41982	0.21231
2416.49126	0.21346
2414.56270	0.21461
2412.63413	0.21568
2410.70557	0.21679
2408.77700	0.21806
2406.84844	0.21924
2404.91987	0.22025
2402.99131	0.22131
2401.06274	0.22253
2399.13418	0.22374
2397.20562	0.22488
2395.27705	0.22612
2393.34849	0.22743
2391.41992	0.22877
2389.49136	0.23045
2387.56279	0.23303
2385.63423	0.23708
2383.70566	0.24314
2381.77710	0.25136
2379.84854	0.26138
2377.91997	0.27274
2375.99141	0.28566
2374.06284	0.30070
2372.13428	0.31772
2370.20571	0.33584
2368.27715	0.35382
2366.34858	0.37088
2364.42002	0.38637
2362.49146	0.39850
2360.56289	0.40577
2358.63433	0.40728
2356.70576	0.40151
2354.77720	0.38840
2352.84863	0.37076
2350.92007	0.35261
2348.99150	0.34110
2347.06294	0.34133
2345.13437	0.35375
2343.20581	0.37052
2341.27725	0.37954
2339.34868	0.38035
2337.42012	0.37840
2335.49155	0.37665
2333.56299	0.37529
2331.63442	0.37438
2329.70586	0.37327
2327.77729	0.37117
2325.84873	0.36804
2323.92017	0.36401
2321.99160	0.35893
2320.06304	0.35288
2318.13447	0.34656
2316.20591	0.34119
2314.27734	0.33788
2312.34878	0.33629
2310.42021	0.33475
2308.49165	0.33209
2306.56309	0.32864
2304.63452	0.32554
2302.70596	0.32371
2300.77739	0.32288
2298.84883	0.32226
2296.92026	0.32170
2294.99170	0.32131
2293.06313	0.32099
2291.13457	0.32070
2289.20601	0.32050
2287.27744	0.32043
2285.34888	0.32054
2283.42031	0.32118
2281.49175	0.32275
2279.56318	0.32509
2277.63462	0.32762
2275.70605	0.33008
2273.77749	0.33237
2271.84893	0.33441
2269.92036	0.33629
2267.99180	0.33816
2266.06323	0.34013
2264.13467	0.34212
2262.20610	0.34406
2260.27754	0.34585
2258.34897	0.34747
2256.42041	0.34904
2254.49185	0.35079
2252.56328	0.35271
2250.63472	0.35458
2248.70615	0.35638
2246.77759	0.35818
2244.84902	0.36008
2242.92046	0.36216
2240.99189	0.36433
2239.06333	0.36641
2237.13477	0.36843
2235.20620	0.37052
2233.27764	0.37269
2231.34907	0.37484
2229.42051	0.37701
2227.49194	0.37929
2225.56338	0.38155
2223.63481	0.38367
2221.70625	0.38573
2219.77769	0.38783
2217.84912	0.38999
2215.92056	0.39229
2213.99199	0.39455
2212.06343	0.39661
2210.13486	0.39864
2208.20630	0.40079
2206.27773	0.40285
2204.34917	0.40478
2202.42061	0.40676
2200.49204	0.40884
2198.56348	0.41096
2196.63491	0.41304
2194.70635	0.41499
2192.77778	0.41685
2190.84922	0.41871
2188.92065	0.42051
2186.99209	0.42230
2185.06353	0.42413
2183.13496	0.42590
2181.20640	0.42755
2179.27783	0.42915
2177.34927	0.43077
2175.42070	0.43243
2173.49214	0.43407
2171.56357	0.43559
2169.63501	0.43687
2167.70645	0.43796
2165.77788	0.43916
2163.84932	0.44054
2161.92075	0.44189
2159.99219	0.44311
2158.06362	0.44422
2156.13506	0.44523
2154.20649	0.44603
2152.27793	0.44670
2150.34937	0.44747
2148.42080	0.44838
2146.49224	0.44921
2144.56367	0.44986
2142.63511	0.45032
2140.70654	0.45065
2138.77798	0.45097
2136.84941	0.45124
2134.92085	0.45136
2132.99229	0.45133
2131.06372	0.45131
2129.13516	0.45140
2127.20659	0.45142
2125.27803	0.45120
2123.34946	0.45073
2121.42090	0.45011
2119.49233	0.44952
2117.56377	0.44910
2115.63521	0.44867
2113.70664	0.44805
2111.77808	0.44731
2109.84951	0.44644
2107.92095	0.44540
2105.99238	0.44432
2104.06382	0.44327
2102.13525	0.44216
2100.20669	0.44095
2098.27812	0.43966
2096.34956	0.43833
2094.42100	0.43707
2092.49243	0.43571
2090.56387	0.43405
2088.63530	0.43224
2086.70674	0.43052
2084.77817	0.42883
2082.84961	0.42710
2080.92104	0.42532
2078.99248	0.42348
2077.06392	0.42151
2075.13535	0.41943
2073.20679	0.41731
2071.27822	0.41521
2069.34966	0.41307
2067.42109	0.41089
2065.49253	0.40868
2063.56396	0.40632
2061.63540	0.40391
2059.70684	0.40151
2057.77827	0.39905
2055.84971	0.39667
2053.92114	0.39441
2051.99258	0.39205
2050.06401	0.38953
2048.13545	0.38690
2046.20688	0.38422
2044.27832	0.38164
2042.34976	0.37914
2040.42119	0.37655
2038.49263	0.37385
2036.56406	0.37114
2034.63550	0.36847
2032.70693	0.36581
2030.77837	0.36312
2028.84980	0.36039
2026.92124	0.35769
2024.99268	0.35501
2023.06411	0.35230
2021.13555	0.34961
2019.20698	0.34706
2017.27842	0.34454
2015.34985	0.34173
2013.42129	0.33870
2011.49272	0.33584
2009.56416	0.33325
2007.63560	0.33074
2005.70703	0.32815
2003.77847	0.32551
2001.84990	0.32285
1999.92134	0.32016
1997.99277	0.31748
1996.06421	0.31492
1994.13564	0.31264
1992.20708	0.31047
1990.27852	0.30803
1988.34995	0.30547
1986.42139	0.30294
1984.49282	0.30042
1982.56426	0.29803
1980.63569	0.29571
1978.70713	0.29338
1976.77856	0.29106
1974.85000	0.28874
1972.92144	0.28643
1970.99287	0.28428
1969.06431	0.28239
1967.13574	0.28056
1965.20718	0.27845
1963.27861	0.27623
1961.35005	0.27422
1959.42148	0.27241
1957.49292	0.27066
1955.56436	0.26895
1953.63579	0.26724
1951.70723	0.26543
1949.77866	0.26367
1947.85010	0.26210
1945.92153	0.26075
1943.99297	0.25959
1942.06440	0.25826
1940.13584	0.25645
1938.20728	0.25465
1936.27871	0.25327
1934.35015	0.25206
1932.42158	0.25082
1930.49302	0.24949
1928.56445	0.24822
1926.63589	0.24716
1924.70732	0.24645
1922.77876	0.24590
1920.85020	0.24506
1918.92163	0.24407
1916.99307	0.24300
1915.06450	0.24163
1913.13594	0.24045
1911.20737	0.23988
1909.27881	0.23949
1907.35024	0.23877
1905.42168	0.23784
1903.49312	0.23705
1901.56455	0.23643
1899.63599	0.23592
1897.70742	0.23549
1895.77886	0.23513
1893.85029	0.23480
1891.92173	0.23453
1889.99316	0.23451
1888.06460	0.23427
1886.13604	0.23367
1884.20747	0.23315
1882.27891	0.23281
1880.35034	0.23260
1878.42178	0.23253
1876.49321	0.23249
1874.56465	0.23242
1872.63608	0.23261
1870.70752	0.23345
1868.77896	0.23483
1866.85039	0.23527
1864.92183	0.23447
1862.99326	0.23386
1861.06470	0.23392
1859.13613	0.23427
1857.20757	0.23449
1855.27900	0.23472
1853.35044	0.23509
1851.42187	0.23571
1849.49331	0.23654
1847.56475	0.23765
1845.63618	0.23912
1843.70762	0.24050
1841.77905	0.24086
1839.85049	0.24071
1837.92192	0.24115
1835.99336	0.24190
1834.06479	0.24273
1832.13623	0.24401
1830.20767	0.24609
1828.27910	0.24782
1826.35054	0.24858
1824.42197	0.24953
1822.49341	0.25046
1820.56484	0.25135
1818.63628	0.25258
1816.70771	0.25417
1814.77915	0.25583
1812.85059	0.25781
1810.92202	0.26016
1808.99346	0.26220
1807.06489	0.26383
1805.13633	0.26558
1803.20776	0.26798
1801.27920	0.27089
1799.35063	0.27379
1797.42207	0.27617
1795.49351	0.27864
1793.56494	0.28190
1791.63638	0.28581
1789.70781	0.28869
1787.77925	0.29059
1785.85068	0.29345
1783.92212	0.29715
1781.99355	0.30119
1780.06499	0.30543
1778.13643	0.30958
1776.20786	0.31363
1774.27930	0.31856
1772.35073	0.32523
1770.42217	0.33154
1768.49360	0.33612
1766.56504	0.34056
1764.63647	0.34550
1762.70791	0.35148
1760.77935	0.35910
1758.85078	0.36602
1756.92222	0.37301
1754.99365	0.38062
1753.06509	0.38765
1751.13652	0.39651
1749.20796	0.40764
1747.27939	0.41801
1745.35083	0.42679
1743.42227	0.43611
1741.49370	0.44664
1739.56514	0.45916
1737.63657	0.47150
1735.70801	0.48254
1733.77944	0.49953
1731.85088	0.51889
1729.92231	0.53344
1727.99375	0.54832
1726.06519	0.56461
1724.13662	0.58280
1722.20806	0.60274
1720.27949	0.62150
1718.35093	0.64419
1716.42236	0.67712
1714.49380	0.70668
1712.56523	0.72987
1710.63667	0.75291
1708.70811	0.77852
1706.77954	0.80820
1704.85098	0.84356
1702.92241	0.87485
1700.99385	0.90585
1699.06528	0.95164
1697.13672	0.99332
1695.20815	1.03565
1693.27959	1.07644
1691.35103	1.10954
1689.42246	1.14845
1687.49390	1.18962
1685.56533	1.22924
1683.63677	1.28973
1681.70820	1.35196
1679.77964	1.39211
1677.85107	1.43065
1675.92251	1.47507
1673.99395	1.53004
1672.06538	1.57897
1670.13682	1.62631
1668.20825	1.68598
1666.27969	1.73398
1664.35112	1.77559
1662.42256	1.82765
1660.49399	1.88485
1658.56543	1.92868
1656.63687	1.96475
1654.70830	1.99929
1652.77974	2.05418
1650.85117	2.10644
1648.92261	2.12756
1646.99404	2.15773
1645.06548	2.19275
1643.13691	2.21470
1641.20835	2.22822
1639.27979	2.24057
1637.35122	2.24844
1635.42266	2.25072
1633.49409	2.24705
1631.56553	2.23697
1629.63696	2.22379
1627.70840	2.19955
1625.77983	2.16847
1623.85127	2.12863
1621.92271	2.08085
1619.99414	2.03837
1618.06558	1.99690
1616.13701	1.93712
1614.20845	1.87465
1612.27988	1.82627
1610.35132	1.77590
1608.42275	1.72170
1606.49419	1.66853
1604.56562	1.61991
1602.63706	1.57324
1600.70850	1.52732
1598.77993	1.48453
1596.85137	1.44408
1594.92280	1.40452
1592.99424	1.36559
1591.06567	1.32948
1589.13711	1.29539
1587.20854	1.26319
1585.27998	1.23308
1583.35142	1.20475
1581.42285	1.17868
1579.49429	1.15637
1577.56572	1.13643
1575.63716	1.11130
1573.70859	1.08762
1571.78003	1.07172
1569.85146	1.05550
1567.92290	1.03674
1565.99434	1.02140
1564.06577	1.00888
1562.13721	0.99905
1560.20864	0.99187
1558.28008	0.98009
1556.35151	0.96745
1554.42295	0.95891
1552.49438	0.95078
1550.56582	0.94265
1548.63726	0.93390
1546.70869	0.92561
1544.78013	0.91751
1542.85156	0.90858
1540.92300	0.89715
1538.99443	0.87846
1537.06587	0.86329
1535.13730	0.85378
1533.20874	0.84241
1531.28018	0.82938
1529.35161	0.81949
1527.42305	0.81091
1525.49448	0.80247
1523.56592	0.79508
1521.63735	0.78744
1519.70879	0.77869
1517.78022	0.77115
1515.85166	0.76292
1513.92310	0.75428
1511.99453	0.74742
1510.06597	0.74241
1508.13740	0.73871
1506.20884	0.73126
1504.28027	0.72174
1502.35171	0.71580
1500.42314	0.71159
1498.49458	0.70815
1496.56602	0.70406
1494.63745	0.69894
1492.70889	0.69497
1490.78032	0.69266
1488.85176	0.69024
1486.92319	0.68665
1484.99463	0.68303
1483.06606	0.68034
1481.13750	0.67848
1479.20894	0.67712
1477.28037	0.67653
1475.35181	0.67673
1473.42324	0.67701
1471.49468	0.67560
1469.56611	0.67272
1467.63755	0.67042
1465.70898	0.66899
1463.78042	0.66746
1461.85186	0.66568
1459.92329	0.66470
1457.99473	0.66439
1456.06616	0.66238
1454.13760	0.65857
1452.20903	0.65533
1450.28047	0.65244
1448.35190	0.64955
1446.42334	0.64646
1444.49478	0.64355
1442.56621	0.64118
1440.63765	0.63909
1438.70908	0.63731
1436.78052	0.63552
1434.85195	0.63307
1432.92339	0.63081
1430.99482	0.62929
1429.06626	0.62791
1427.13770	0.62649
1425.20913	0.62573
1423.28057	0.62552
1421.35200	0.62518
1419.42344	0.62462
1417.49487	0.62332
1415.56631	0.62106
1413.63774	0.61892
1411.70918	0.61729
1409.78062	0.61613
1407.85205	0.61535
1405.92349	0.61482
1403.99492	0.61400
1402.06636	0.61281
1400.13779	0.61190
1398.20923	0.61096
1396.28066	0.60936
1394.35210	0.60694
1392.42354	0.60409
1390.49497	0.60162
1388.56641	0.59961
1386.63784	0.59746
1384.70928	0.59498
1382.78071	0.59261
1380.85215	0.59066
1378.92358	0.58927
1376.99502	0.58843
1375.06646	0.58796
1373.13789	0.58727
1371.20933	0.58636
1369.28076	0.58578
1367.35220	0.58516
1365.42363	0.58422
1363.49507	0.58338
1361.56650	0.58234
1359.63794	0.58072
1357.70937	0.57919
1355.78081	0.57794
1353.85225	0.57668
1351.92368	0.57542
1349.99512	0.57439
1348.06655	0.57346
1346.13799	0.57234
1344.20942	0.57122
1342.28086	0.57048
1340.35229	0.57007
1338.42373	0.56926
1336.49517	0.56787
1334.56660	0.56661
1332.63804	0.56573
1330.70947	0.56505
1328.78091	0.56454
1326.85234	0.56430
1324.92378	0.56427
1322.99521	0.56425
1321.06665	0.56417
1319.13809	0.56407
1317.20952	0.56381
1315.28096	0.56331
1313.35239	0.56259
1311.42383	0.56158
1309.49526	0.56033
1307.56670	0.55906
1305.63813	0.55794
1303.70957	0.55693
1301.78101	0.55585
1299.85244	0.55477
1297.92388	0.55393
1295.99531	0.55330
1294.06675	0.55256
1292.13818	0.55169
1290.20962	0.55092
1288.28105	0.55023
1286.35249	0.54938
1284.42393	0.54840
1282.49536	0.54743
1280.56680	0.54659
1278.63823	0.54583
1276.70967	0.54508
1274.78110	0.54441
1272.85254	0.54386
1270.92397	0.54340
1268.99541	0.54294
1267.06685	0.54251
1265.13828	0.54208
1263.20972	0.54157
1261.28115	0.54091
1259.35259	0.54019
1257.42402	0.53957
1255.49546	0.53921
1253.56689	0.53908
1251.63833	0.53891
1249.70977	0.53869
1247.78120	0.53854
1245.85264	0.53825
1243.92407	0.53767
1241.99551	0.53691
1240.06694	0.53598
1238.13838	0.53501
1236.20981	0.53407
1234.28125	0.53305
1232.35269	0.53194
1230.42412	0.53078
1228.49556	0.52949
1226.56699	0.52810
1224.63843	0.52682
1222.70986	0.52577
1220.78130	0.52482
1218.85273	0.52379
1216.92417	0.52269
1214.99561	0.52178
1213.06704	0.52108
1211.13848	0.52044
1209.20991	0.51989
1207.28135	0.51947
1205.35278	0.51907
1203.42422	0.51858
1201.49565	0.51799
1199.56709	0.51732
1197.63853	0.51661
1195.70996	0.51586
1193.78140	0.51508
1191.85283	0.51429
1189.92427	0.51364
1187.99570	0.51320
1186.06714	0.51291
1184.13857	0.51288
1182.21001	0.51312
1180.28145	0.51352
1178.35288	0.51422
1176.42432	0.51530
1174.49575	0.51644
1172.56719	0.51740
1170.63862	0.51831
1168.71006	0.51932
1166.78149	0.52040
1164.85293	0.52155
1162.92437	0.52273
1160.99580	0.52366
1159.06724	0.52421
1157.13867	0.52446
1155.21011	0.52423
1153.28154	0.52330
1151.35298	0.52186
1149.42441	0.51994
1147.49585	0.51734
1145.56729	0.51431
1143.63872	0.51140
1141.71016	0.50876
1139.78159	0.50645
1137.85303	0.50482
1135.92446	0.50384
1133.99590	0.50322
1132.06733	0.50303
1130.13877	0.50310
1128.21021	0.50295
1126.28164	0.50266
1124.35308	0.50250
1122.42451	0.50228
1120.49595	0.50194
1118.56738	0.50185
1116.63882	0.50237
1114.71025	0.50327
1112.78169	0.50408
1110.85312	0.50485
1108.92456	0.50574
1106.99600	0.50661
1105.06743	0.50733
1103.13887	0.50791
1101.21030	0.50853
1099.28174	0.50953
1097.35317	0.51109
1095.42461	0.51329
1093.49604	0.51651
1091.56748	0.52136
1089.63892	0.52809
1087.71035	0.53658
1085.78179	0.54634
1083.85322	0.55625
1081.92466	0.56474
1079.99609	0.57057
1078.06753	0.57325
1076.13896	0.57263
1074.21040	0.56874
1072.28184	0.56237
1070.35327	0.55495
1068.42471	0.54747
1066.49614	0.54049
1064.56758	0.53439
1062.63901	0.52928
1060.71045	0.52496
1058.78188	0.52122
1056.85332	0.51785
1054.92476	0.51480
1052.99619	0.51231
1051.06763	0.51072
1049.13906	0.51008
1047.21050	0.51029
1045.28193	0.51124
1043.35337	0.51241
1041.42480	0.51346
1039.49624	0.51453
1037.56768	0.51540
1035.63911	0.51565
1033.71055	0.51505
1031.78198	0.51365
1029.85342	0.51169
1027.92485	0.50927
1025.99629	0.50675
1024.06772	0.50476
1022.13916	0.50351
1020.21060	0.50282
1018.28203	0.50231
1016.35347	0.50186
1014.42490	0.50133
1012.49634	0.50053
1010.56777	0.49976
1008.63921	0.49930
1006.71064	0.49908
1004.78208	0.49926
1002.85352	0.50028
1000.92495	0.50229
998.99639	0.50520
997.06782	0.50897
995.13926	0.51355
993.21069	0.51811
991.28213	0.52141
989.35356	0.52304
987.42500	0.52347
985.49644	0.52329
983.56787	0.52287
981.63931	0.52261
979.71074	0.52285
977.78218	0.52378
975.85361	0.52553
973.92505	0.52794
971.99648	0.53069
970.06792	0.53378
968.13936	0.53729
966.21079	0.54120
964.28223	0.54552
962.35366	0.55031
960.42510	0.55533
958.49653	0.56043
956.56797	0.56586
954.63940	0.57174
952.71084	0.57781
950.78228	0.58381
948.85371	0.59005
946.92515	0.59654
944.99658	0.60268
943.06802	0.60845
941.13945	0.61429
939.21089	0.62010
937.28232	0.62562
935.35376	0.63093
933.42520	0.63654
931.49663	0.64237
929.56807	0.64773
927.63950	0.65276
925.71094	0.65843
923.78237	0.66508
921.85381	0.67198
919.92524	0.67876
917.99668	0.68540
916.06812	0.69209
914.13955	0.69918
912.21099	0.70651
910.28242	0.71423
908.35386	0.72235
906.42529	0.73043
904.49673	0.73845
902.56816	0.74676
900.63960	0.75602
898.71104	0.76573
896.78247	0.77475
894.85391	0.78393
892.92534	0.79494
890.99678	0.80649
889.06821	0.81639
887.13965	0.82565
885.21108	0.83583
883.28252	0.84643
881.35396	0.85701
879.42539	0.86807
877.49683	0.87952
875.56826	0.89103
873.63970	0.90221
871.71113	0.91326
869.78257	0.92545
867.85400	0.93806
865.92544	0.94943
863.99687	0.96076
862.06831	0.97317
860.13975	0.98492
858.21118	0.99537
856.28262	1.00540
854.35405	1.01546
852.42549	1.02666
850.49692	1.03901
848.56836	1.05123
846.63979	1.06402
844.71123	1.07742
842.78267	1.08838
840.85410	1.09632
838.92554	1.10534
836.99697	1.11812
835.06841	1.13082
833.13984	1.14090
831.21128	1.15197
829.28271	1.16413
827.35415	1.17657
825.42559	1.18799
823.49702	1.19408
821.56846	1.19814
819.63989	1.20591
817.71133	1.21640
815.78276	1.22835
813.85420	1.23984
811.92563	1.24575
809.99707	1.24864
808.06851	1.25977
806.13994	1.28453
804.21138	1.30932
802.28281	1.30686
800.35425	1.28571
798.42568	1.29155
796.49712	1.32805
794.56855	1.35445
792.63999	1.36928
790.71143	1.40775
788.78286	1.45997
786.85430	1.43534
784.92573	1.37061
782.99717	1.40057
781.06860	1.51974
779.14004	1.55742
777.21147	1.47566
775.28291	1.41210
773.35435	1.42077
771.42578	1.43813
769.49722	1.37142
767.56865	1.31322
765.64009	1.29105
763.71152	1.30927
761.78296	1.36826
759.85439	1.30374
757.92583	1.17811
755.99727	1.18475
754.06870	1.34439
752.14014	1.40380
750.21157	1.24749
748.28301	1.18262
746.35444	1.22766
744.42588	1.24466
742.49731	1.16214
740.56875	1.09780
738.64019	1.14901
736.71162	1.32250
734.78306	1.15574
732.85449	0.91188
730.92593	0.87209
728.99736	0.84443
727.06880	0.67709
725.14023	0.55668
723.21167	0.45077
721.28311	0.28043
719.35454	0.12868
717.42598	0.08427
715.49741	0.12220
713.56885	0.15312
711.64028	0.08686
709.71172	0.07379
707.78315	0.20940
705.85459	0.12554
703.92603	0.04593
701.99746	0.04617
700.06890	0.10047
698.14033	0.22381
696.21177	0.53781
694.28320	1.16639
692.35464	1.22795
690.42607	1.45845
688.49751	0.94947
686.56895	0.55831
684.64038	0.42824
682.71182	0.36614
680.78325	0.25242
678.85469	0.18485
676.92612	0.19911
674.99756	0.19783
673.06899	0.20913
671.14043	0.31805
669.21187	0.41761
667.28330	0.38805
665.35474	0.36945
663.42617	0.41052
661.49761	0.41546
659.56904	0.34413
657.64048	0.22805
655.71191	0.16624
653.78335	0.20233
651.85479	0.26724
649.92622	0.31853
647.99766	0.40708
646.06909	0.47230
644.14053	0.47828
642.21196	0.47227
640.28340	0.39023
638.35483	0.31111
636.42627	0.32141
634.49771	0.33276
632.56914	0.24614
630.64058	0.18965
628.71201	0.23861
626.78345	0.28893
624.85488	0.25057
622.92632	0.22644
620.99775	0.20768
619.06919	0.15340
617.14062	0.12164
615.21206	0.16923
613.28350	0.25688
611.35493	0.28220
609.42637	0.25676
607.49780	0.29337
605.56924	0.48344
603.64067	0.65315
601.71211	0.34982
599.78354	0.21636
597.85498	0.17439
595.92642	0.16792
593.99785	0.19795
592.06929	0.22568
590.14072	0.24206
588.21216	0.28302
586.28359	0.35367
584.35503	0.40394
582.42646	0.37258
580.49790	0.25736
578.56934	0.21227
576.64077	0.27153
574.71221	0.30783
572.78364	0.23982
570.85508	0.21104
568.92651	0.23319
566.99795	0.28478
565.06938	0.28911
563.14082	0.22083
561.21226	0.21401
559.28369	0.25340
557.35513	0.24718
555.42656	0.20273
553.49800	0.15883
551.56943	0.13540
549.64087	0.13065
547.71230	0.14375
545.78374	0.17953
543.85518	0.24226
541.92661	0.30387
539.99805	0.30164
538.06948	0.24479
536.14092	0.22414
534.21235	0.25702
532.28379	0.31313
530.35522	0.36421
528.42666	0.33559
526.49810	0.21856
524.56953	0.12441
522.64097	0.11950
520.71240	0.19809
518.78384	0.26696
516.85527	0.25609
514.92671	0.22850
512.99814	0.21382
511.06958	0.21360
509.14102	0.21481
507.21245	0.20189
505.28389	0.18540
503.35532	0.17896
501.42676	0.19767
499.49819	0.21768
