3997.91411	0.06909
3995.98555	0.06955
3994.05698	0.06989
3992.12842	0.07005
3990.19985	0.07024
3988.27129	0.07028
3986.34272	0.07014
3984.41416	0.07057
3982.48560	0.07150
3980.55703	0.07195
3978.62847	0.07193
3976.69990	0.07244
3974.77134	0.07361
3972.84277	0.07446
3970.91421	0.07431
3968.98564	0.07358
3967.05708	0.07289
3965.12852	0.07289
3963.19995	0.07390
3961.27139	0.07503
3959.34282	0.07541
3957.41426	0.07542
3955.48569	0.07534
3953.55713	0.07515
3951.62856	0.07554
3949.70000	0.07682
3947.77144	0.07783
3945.84287	0.07771
3943.91431	0.07796
3941.98574	0.07885
3940.05718	0.07801
3938.12861	0.07598
3936.20005	0.07501
3934.27148	0.07596
3932.34292	0.07849
3930.41436	0.08019
3928.48579	0.07928
3926.55723	0.07830
3924.62866	0.07930
3922.70010	0.07995
3920.77153	0.07902
3918.84297	0.07910
3916.91440	0.08023
3914.98584	0.07932
3913.05728	0.07642
3911.12871	0.07429
3909.20015	0.07392
3907.27158	0.07569
3905.34302	0.08044
3903.41445	0.08660
3901.48589	0.08959
3899.55732	0.08844
3897.62876	0.08494
3895.70020	0.08108
3893.77163	0.07988
3891.84307	0.08201
3889.91450	0.08338
3887.98594	0.08202
3886.05737	0.08245
3884.12881	0.08481
3882.20024	0.08543
3880.27168	0.08542
3878.34312	0.08413
3876.41455	0.08178
3874.48599	0.08262
3872.55742	0.08646
3870.62886	0.09023
3868.70029	0.09181
3866.77173	0.09025
3864.84316	0.08989
3862.91460	0.09121
3860.98604	0.08944
3859.05747	0.08644
3857.12891	0.08667
3855.20034	0.09120
3853.27178	0.09970
3851.34321	0.10290
3849.41465	0.09541
3847.48608	0.08825
3845.55752	0.08596
3843.62896	0.08867
3841.70039	0.09403
3839.77183	0.09990
3837.84326	0.10482
3835.91470	0.10472
3833.98613	0.10059
3832.05757	0.09724
3830.12900	0.09554
3828.20044	0.09526
3826.27187	0.09661
3824.34331	0.09854
3822.41475	0.10191
3820.48618	0.10790
3818.55762	0.11007
3816.62905	0.10823
3814.70049	0.10591
3812.77192	0.10170
3810.84336	0.09866
3808.91479	0.09981
3806.98623	0.10480
3805.05767	0.10945
3803.12910	0.11228
3801.20054	0.11647
3799.27197	0.11827
3797.34341	0.11619
3795.41484	0.11381
3793.48628	0.11051
3791.55771	0.10806
3789.62915	0.10839
3787.70059	0.11065
3785.77202	0.11385
3783.84346	0.11673
3781.91489	0.11843
3779.98633	0.12060
3778.05776	0.12281
3776.12920	0.12250
3774.20063	0.12192
3772.27207	0.12400
3770.34351	0.12903
3768.41494	0.13408
3766.48638	0.13627
3764.55781	0.13722
3762.62925	0.13795
3760.70068	0.14042
3758.77212	0.14594
3756.84355	0.15059
3754.91499	0.15271
3752.98643	0.15737
3751.05786	0.16802
3749.12930	0.17774
3747.20073	0.17872
3745.27217	0.17907
3743.34360	0.18220
3741.41504	0.18364
3739.48647	0.18510
3737.55791	0.19128
3735.62935	0.20359
3733.70078	0.21518
3731.77222	0.21710
3729.84365	0.21509
3727.91509	0.21644
3725.98652	0.22288
3724.05796	0.23113
3722.12939	0.23704
3720.20083	0.24052
3718.27227	0.24297
3716.34370	0.24656
3714.41514	0.25358
3712.48657	0.26741
3710.55801	0.28804
3708.62944	0.30363
3706.70088	0.31124
3704.77231	0.31971
3702.84375	0.33292
3700.91519	0.35069
3698.98662	0.36842
3697.05806	0.38483
3695.12949	0.40363
3693.20093	0.42521
3691.27236	0.45062
3689.34380	0.48297
3687.41523	0.51667
3685.48667	0.54158
3683.55811	0.56377
3681.62954	0.59116
3679.70098	0.62514
3677.77241	0.66326
3675.84385	0.70919
3673.91528	0.76555
3671.98672	0.80722
3670.05815	0.84546
3668.12959	0.89758
3666.20103	0.94160
3664.27246	0.97845
3662.34390	1.02061
3660.41533	1.06820
3658.48677	1.11701
3656.55820	1.17007
3654.62964	1.22761
3652.70107	1.27503
3650.77251	1.31984
3648.84395	1.38449
3646.91538	1.45534
3644.98682	1.49923
3643.05825	1.53309
3641.12969	1.57158
3639.20112	1.61580
3637.27256	1.66052
3635.34399	1.70510
3633.41543	1.75170
3631.48687	1.79693
3629.55830	1.84403
3627.62974	1.90226
3625.70117	1.94943
3623.77261	1.97854
3621.84404	2.00931
3619.91548	2.04842
3617.98691	2.09664
3616.05835	2.14089
3614.12979	2.17713
3612.20122	2.21546
3610.27266	2.25359
3608.34409	2.29335
3606.41553	2.33589
3604.48696	2.37309
3602.55840	2.40669
3600.62983	2.44591
3598.70127	2.48876
3596.77271	2.52897
3594.84414	2.56919
3592.91558	2.60968
3590.98701	2.64652
3589.05845	2.68275
3587.12988	2.72952
3585.20132	2.77875
3583.27275	2.81509
3581.34419	2.84778
3579.41562	2.88660
3577.48706	2.93052
3575.55850	2.97410
3573.62993	3.01651
3571.70137	3.05686
3569.77280	3.09649
3567.84424	3.14218
3565.91567	3.19908
3563.98711	3.24826
3562.05854	3.28386
3560.12998	3.32133
3558.20142	3.36405
3556.27285	3.41016
3554.34429	3.45758
3552.41572	3.50520
3550.48716	3.55075
3548.55859	3.59379
3546.63003	3.63800
3544.70146	3.68710
3542.77290	3.73758
3540.84434	3.78519
3538.91577	3.83029
3536.98721	3.87330
3535.05864	3.91853
3533.13008	3.96453
3531.20151	4.00854
3529.27295	4.05401
3527.34438	4.10386
3525.41582	4.15653
3523.48726	4.21051
3521.55869	4.26404
3519.63013	4.31233
3517.70156	4.35565
3515.77300	4.39680
3513.84443	4.44045
3511.91587	4.48925
3509.98730	4.54168
3508.05874	4.59451
3506.13018	4.64414
3504.20161	4.69235
3502.27305	4.74112
3500.34448	4.78609
3498.41592	4.82934
3496.48735	4.88050
3494.55879	4.93488
3492.63022	4.98119
3490.70166	5.02272
3488.77310	5.06638
3486.84453	5.11608
3484.91597	5.17298
3482.98740	5.22490
3481.05884	5.26339
3479.13027	5.30072
3477.20171	5.35087
3475.27314	5.41145
3473.34458	5.46711
3471.41602	5.50998
3469.48745	5.55433
3467.55889	5.60952
3465.63032	5.66167
3463.70176	5.70311
3461.77319	5.74337
3459.84463	5.79291
3457.91606	5.84651
3455.98750	5.90058
3454.05894	5.96202
3452.13037	6.02054
3450.20181	6.06176
3448.27324	6.09285
3446.34468	6.12895
3444.41611	6.17546
3442.48755	6.23876
3440.55898	6.30704
3438.63042	6.36367
3436.70186	6.41225
3434.77329	6.46232
3432.84473	6.52360
3430.91616	6.58355
3428.98760	6.62973
3427.05903	6.67281
3425.13047	6.72697
3423.20190	6.78191
3421.27334	6.83087
3419.34478	6.87599
3417.41621	6.91593
3415.48765	6.96663
3413.55908	7.03008
3411.63052	7.09565
3409.70195	7.15163
3407.77339	7.20387
3405.84482	7.26015
3403.91626	7.29446
3401.98770	7.29959
3400.05913	7.32373
3398.13057	7.35307
3396.20200	7.35988
3394.27344	7.37949
3392.34487	7.39663
3390.41631	7.42338
3388.48774	7.47717
3386.55918	7.54278
3384.63062	7.62902
3382.70205	7.71945
3380.77349	7.77906
3378.84492	7.79657
3376.91636	7.79386
3374.98779	7.80843
3373.05923	7.84559
3371.13066	7.86102
3369.20210	7.88258
3367.27354	7.92983
3365.34497	7.95960
3363.41641	7.97816
3361.48784	7.99979
3359.55928	8.00273
3357.63071	7.97556
3355.70215	7.94005
3353.77358	7.90425
3351.84502	7.89345
3349.91646	7.92684
3347.98789	8.00500
3346.05933	8.09990
3344.13076	8.16865
3342.20220	8.16418
3340.27363	8.09281
3338.34507	8.03826
3336.41650	8.00327
3334.48794	8.04032
3332.55937	8.19958
3330.63081	8.34175
3328.70225	8.32068
3326.77368	8.24802
3324.84512	8.23564
3322.91655	8.21016
3320.98799	8.12429
3319.05942	8.04759
3317.13086	8.06549
3315.20229	8.12808
3313.27373	8.14709
3311.34517	8.14786
3309.41660	8.19745
3307.48804	8.29787
3305.55947	8.35911
3303.63091	8.35251
3301.70234	8.33578
3299.77378	8.32025
3297.84521	8.25932
3295.91665	8.21680
3293.98809	8.22470
3292.05952	8.17323
3290.13096	8.09481
3288.20239	8.13937
3286.27383	8.25076
3284.34526	8.25375
3282.41670	8.21772
3280.48813	8.26038
3278.55957	8.37039
3276.63101	8.42429
3274.70244	8.31660
3272.77388	8.17407
3270.84531	8.16288
3268.91675	8.29617
3266.98818	8.44712
3265.05962	8.51868
3263.13105	8.52747
3261.20249	8.50469
3259.27393	8.45976
3257.34536	8.40553
3255.41680	8.36298
3253.48823	8.36830
3251.55967	8.39332
3249.63110	8.39279
3247.70254	8.37112
3245.77397	8.32142
3243.84541	8.32164
3241.91685	8.38426
3239.98828	8.38897
3238.05972	8.33761
3236.13115	8.29841
3234.20259	8.24710
3232.27402	8.20813
3230.34546	8.19412
3228.41689	8.13648
3226.48833	8.11947
3224.55977	8.14907
3222.63120	8.09792
3220.70264	8.06857
3218.77407	8.11888
3216.84551	8.11684
3214.91694	8.08148
3212.98838	8.09482
3211.05981	8.12420
3209.13125	8.11666
3207.20269	8.05119
3205.27412	7.96879
3203.34556	7.91394
3201.41699	7.85366
3199.48843	7.77897
3197.55986	7.74686
3195.63130	7.75288
3193.70273	7.73799
3191.77417	7.68329
3189.84561	7.62528
3187.91704	7.55156
3185.98848	7.43828
3184.05991	7.36361
3182.13135	7.36016
3180.20278	7.35714
3178.27422	7.29612
3176.34565	7.21192
3174.41709	7.15350
3172.48853	7.09772
3170.55996	7.01881
3168.63140	6.94529
3166.70283	6.90175
3164.77427	6.86372
3162.84570	6.80584
3160.91714	6.72496
3158.98857	6.63857
3157.06001	6.56921
3155.13145	6.50482
3153.20288	6.43865
3151.27432	6.38695
3149.34575	6.33184
3147.41719	6.24729
3145.48862	6.15417
3143.56006	6.07545
3141.63149	6.01009
3139.70293	5.95306
3137.77437	5.88958
3135.84580	5.80835
3133.91724	5.72562
3131.98867	5.65514
3130.06011	5.58861
3128.13154	5.51412
3126.20298	5.43439
3124.27441	5.36014
3122.34585	5.28827
3120.41729	5.21691
3118.48872	5.14926
3116.56016	5.08014
3114.63159	5.00786
3112.70303	4.93589
3110.77446	4.86539
3108.84590	4.79642
3106.91733	4.72959
3104.98877	4.66241
3103.06021	4.59267
3101.13164	4.52406
3099.20308	4.45659
3097.27451	4.38595
3095.34595	4.31611
3093.41738	4.25073
3091.48882	4.18548
3089.56025	4.11930
3087.63169	4.05502
3085.70312	3.99291
3083.77456	3.93051
3081.84600	3.86736
3079.91743	3.80618
3077.98887	3.74740
3076.06030	3.68767
3074.13174	3.62658
3072.20317	3.56715
3070.27461	3.50856
3068.34604	3.45017
3066.41748	3.39440
3064.48892	3.33949
3062.56035	3.28304
3060.63179	3.22738
3058.70322	3.17352
3056.77466	3.11988
3054.84609	3.06625
3052.91753	3.01342
3050.98896	2.96209
3049.06040	2.91209
3047.13184	2.86233
3045.20327	2.81305
3043.27471	2.76486
3041.34614	2.71660
3039.41758	2.66879
3037.48901	2.62312
3035.56045	2.57866
3033.63188	2.53421
3031.70332	2.49006
3029.77476	2.44627
3027.84619	2.40265
3025.91763	2.35979
3023.98906	2.31814
3022.06050	2.27735
3020.13193	2.23738
3018.20337	2.19828
3016.27480	2.15977
3014.34624	2.12209
3012.41768	2.08523
3010.48911	2.04848
3008.56055	2.01165
3006.63198	1.97496
3004.70342	1.93849
3002.77485	1.90255
3000.84629	1.86774
2998.91772	1.83399
2996.98916	1.80102
2995.06060	1.76898
2993.13203	1.73740
2991.20347	1.70591
2989.27490	1.67472
2987.34634	1.64389
2985.41777	1.61349
2983.48921	1.58369
2981.56064	1.55475
2979.63208	1.52619
2977.70352	1.49726
2975.77495	1.46846
2973.84639	1.44085
2971.91782	1.41444
2969.98926	1.38837
2968.06069	1.36223
2966.13213	1.33626
2964.20356	1.31079
2962.27500	1.28606
2960.34644	1.26201
2958.41787	1.23860
2956.48931	1.21570
2954.56074	1.19313
2952.63218	1.17078
2950.70361	1.14868
2948.77505	1.12707
2946.84648	1.10609
2944.91792	1.08550
2942.98936	1.06503
2941.06079	1.04489
2939.13223	1.02522
2937.20366	1.00617
2935.27510	0.98785
2933.34653	0.97021
2931.41797	0.95318
2929.48940	0.93646
2927.56084	0.91967
2925.63228	0.90300
2923.70371	0.88674
2921.77515	0.87079
2919.84658	0.85502
2917.91802	0.83907
2915.98945	0.82280
2914.06089	0.80676
2912.13232	0.79112
2910.20376	0.77605
2908.27520	0.76189
2906.34663	0.74833
2904.41807	0.73493
2902.48950	0.72166
2900.56094	0.70873
2898.63237	0.69628
2896.70381	0.68402
2894.77524	0.67170
2892.84668	0.65969
2890.91812	0.64833
2888.98955	0.63737
2887.06099	0.62629
2885.13242	0.61502
2883.20386	0.60407
2881.27529	0.59361
2879.34673	0.58332
2877.41816	0.57329
2875.48960	0.56360
2873.56104	0.55392
2871.63247	0.54411
2869.70391	0.53447
2867.77534	0.52514
2865.84678	0.51608
2863.91821	0.50737
2861.98965	0.49891
2860.06108	0.49052
2858.13252	0.48256
2856.20396	0.47539
2854.27539	0.46855
2852.34683	0.46134
2850.41826	0.45368
2848.48970	0.44567
2846.56113	0.43772
2844.63257	0.43028
2842.70400	0.42333
2840.77544	0.41673
2838.84687	0.41050
2836.91831	0.40459
2834.98975	0.39895
2833.06118	0.39347
2831.13262	0.38788
2829.20405	0.38221
2827.27549	0.37673
2825.34692	0.37138
2823.41836	0.36594
2821.48979	0.36057
2819.56123	0.35537
2817.63267	0.35004
2815.70410	0.34446
2813.77554	0.33908
2811.84697	0.33409
2809.91841	0.32911
2807.98984	0.32407
2806.06128	0.31916
2804.13271	0.31455
2802.20415	0.31017
2800.27559	0.30583
2798.34702	0.30149
2796.41846	0.29722
2794.48989	0.29309
2792.56133	0.28906
2790.63276	0.28508
2788.70420	0.28108
2786.77563	0.27706
2784.84707	0.27315
2782.91851	0.26944
2780.98994	0.26581
2779.06138	0.26218
2777.13281	0.25859
2775.20425	0.25515
2773.27568	0.25194
2771.34712	0.24888
2769.41855	0.24582
2767.48999	0.24266
2765.56143	0.23950
2763.63286	0.23651
2761.70430	0.23359
2759.77573	0.23053
2757.84717	0.22752
2755.91860	0.22484
2753.99004	0.22226
2752.06147	0.21967
2750.13291	0.21715
2748.20435	0.21465
2746.27578	0.21214
2744.34722	0.20963
2742.41865	0.20717
2740.49009	0.20489
2738.56152	0.20280
2736.63296	0.20066
2734.70439	0.19843
2732.77583	0.19617
2730.84727	0.19401
2728.91870	0.19209
2726.99014	0.19026
2725.06157	0.18828
2723.13301	0.18626
2721.20444	0.18438
2719.27588	0.18264
2717.34731	0.18094
2715.41875	0.17916
2713.49019	0.17740
2711.56162	0.17597
2709.63306	0.17478
2707.70449	0.17343
2705.77593	0.17180
2703.84736	0.17002
2701.91880	0.16848
2699.99023	0.16733
2698.06167	0.16618
2696.13311	0.16485
2694.20454	0.16353
2692.27598	0.16221
2690.34741	0.16082
2688.41885	0.15962
2686.49028	0.15872
2684.56172	0.15785
2682.63315	0.15694
2680.70459	0.15605
2678.77603	0.15514
2676.84746	0.15414
2674.91890	0.15304
2672.99033	0.15200
2671.06177	0.15114
2669.13320	0.15030
2667.20464	0.14951
2665.27607	0.14885
2663.34751	0.14822
2661.41895	0.14739
2659.49038	0.14640
2657.56182	0.14562
2655.63325	0.14518
2653.70469	0.14478
2651.77612	0.14425
2649.84756	0.14368
2647.91899	0.14313
2645.99043	0.14266
2644.06187	0.14233
2642.13330	0.14193
2640.20474	0.14145
2638.27617	0.14110
2636.34761	0.14092
2634.41904	0.14075
2632.49048	0.14044
2630.56191	0.14004
2628.63335	0.13970
2626.70479	0.13949
2624.77622	0.13929
2622.84766	0.13908
2620.91909	0.13902
2618.99053	0.13907
2617.06196	0.13902
2615.13340	0.13886
2613.20483	0.13876
2611.27627	0.13876
2609.34771	0.13878
2607.41914	0.13877
2605.49058	0.13876
2603.56201	0.13885
2601.63345	0.13901
2599.70488	0.13916
2597.77632	0.13923
2595.84775	0.13935
2593.91919	0.13957
2591.99062	0.13975
2590.06206	0.13991
2588.13350	0.14022
2586.20493	0.14066
2584.27637	0.14100
2582.34780	0.14121
2580.41924	0.14147
2578.49067	0.14183
2576.56211	0.14219
2574.63354	0.14260
2572.70498	0.14312
2570.77642	0.14371
2568.84785	0.14422
2566.91929	0.14466
2564.99072	0.14508
2563.06216	0.14552
2561.13359	0.14604
2559.20503	0.14663
2557.27646	0.14720
2555.34790	0.14773
2553.41934	0.14822
2551.49077	0.14864
2549.56221	0.14906
2547.63364	0.14966
2545.70508	0.15046
2543.77651	0.15133
2541.84795	0.15213
2539.91938	0.15277
2537.99082	0.15343
2536.06226	0.15424
2534.13369	0.15506
2532.20513	0.15578
2530.27656	0.15647
2528.34800	0.15722
2526.41943	0.15799
2524.49087	0.15878
2522.56230	0.15957
2520.63374	0.16032
2518.70518	0.16114
2516.77661	0.16206
2514.84805	0.16299
2512.91948	0.16393
2510.99092	0.16474
2509.06235	0.16542
2507.13379	0.16615
2505.20522	0.16712
2503.27666	0.16820
2501.34810	0.16909
2499.41953	0.16988
2497.49097	0.17069
2495.56240	0.17158
2493.63384	0.17260
2491.70527	0.17358
2489.77671	0.17437
2487.84814	0.17516
2485.91958	0.17616
2483.99102	0.17724
2482.06245	0.17825
2480.13389	0.17918
2478.20532	0.18016
2476.27676	0.18118
2474.34819	0.18213
2472.41963	0.18302
2470.49106	0.18400
2468.56250	0.18505
2466.63394	0.18599
2464.70537	0.18696
2462.77681	0.18802
2460.84824	0.18902
2458.91968	0.18998
2456.99111	0.19092
2455.06255	0.19188
2453.13398	0.19294
2451.20542	0.19397
2449.27686	0.19491
2447.34829	0.19586
2445.41973	0.19693
2443.49116	0.19811
2441.56260	0.19928
2439.63403	0.20046
2437.70547	0.20162
2435.77690	0.20267
2433.84834	0.20364
2431.91978	0.20470
2429.99121	0.20585
2428.06265	0.20689
2426.13408	0.20786
2424.20552	0.20904
2422.27695	0.21035
2420.34839	0.21157
2418.41982	0.21269
2416.49126	0.21381
2414.56270	0.21490
2412.63413	0.21600
2410.70557	0.21721
2408.77700	0.21853
2406.84844	0.21979
2404.91987	0.22094
2402.99131	0.22207
2401.06274	0.22333
2399.13418	0.22468
2397.20562	0.22598
2395.27705	0.22724
2393.34849	0.22848
2391.41992	0.22977
2389.49136	0.23141
2387.56279	0.23390
2385.63423	0.23785
2383.70566	0.24377
2381.77710	0.25182
2379.84854	0.26155
2377.91997	0.27246
2375.99141	0.28467
2374.06284	0.29885
2372.13428	0.31499
2370.20571	0.33215
2368.27715	0.34928
2366.34858	0.36567
2364.42002	0.38048
2362.49146	0.39239
2360.56289	0.40012
2358.63433	0.40171
2356.70576	0.39563
2354.77720	0.38284
2352.84863	0.36623
2350.92007	0.34941
2348.99150	0.33865
2347.06294	0.33861
2345.13437	0.35003
2343.20581	0.36589
2341.27725	0.37471
2339.34868	0.37572
2337.42012	0.37399
2335.49155	0.37243
2333.56299	0.37155
2331.63442	0.37170
2329.70586	0.37171
2327.77729	0.36976
2325.84873	0.36595
2323.92017	0.36153
2321.99160	0.35695
2320.06304	0.35183
2318.13447	0.34616
2316.20591	0.34100
2314.27734	0.33771
2312.34878	0.33623
2310.42021	0.33503
2308.49165	0.33272
2306.56309	0.32937
2304.63452	0.32622
2302.70596	0.32446
2300.77739	0.32390
2298.84883	0.32363
2296.92026	0.32331
2294.99170	0.32301
2293.06313	0.32283
2291.13457	0.32267
2289.20601	0.32248
2287.27744	0.32244
2285.34888	0.32270
2283.42031	0.32348
2281.49175	0.32511
2279.56318	0.32753
2277.63462	0.33018
2275.70605	0.33255
2273.77749	0.33464
2271.84893	0.33662
2269.92036	0.33860
2267.99180	0.34059
2266.06323	0.34263
2264.13467	0.34466
2262.20610	0.34665
2260.27754	0.34853
2258.34897	0.35026
2256.42041	0.35196
2254.49185	0.35373
2252.56328	0.35559
2250.63472	0.35748
2248.70615	0.35937
2246.77759	0.36121
2244.84902	0.36307
2242.92046	0.36509
2240.99189	0.36727
2239.06333	0.36948
2237.13477	0.37163
2235.20620	0.37373
2233.27764	0.37578
2231.34907	0.37789
2229.42051	0.38014
2227.49194	0.38243
2225.56338	0.38457
2223.63481	0.38670
2221.70625	0.38894
2219.77769	0.39115
2217.84912	0.39338
2215.92056	0.39570
2213.99199	0.39784
2212.06343	0.39978
2210.13486	0.40186
2208.20630	0.40408
2206.27773	0.40619
2204.34917	0.40816
2202.42061	0.41016
2200.49204	0.41226
2198.56348	0.41429
2196.63491	0.41622
2194.70635	0.41814
2192.77778	0.42012
2190.84922	0.42209
2188.92065	0.42400
2186.99209	0.42590
2185.06353	0.42770
2183.13496	0.42932
2181.20640	0.43096
2179.27783	0.43268
2177.34927	0.43434
2175.42070	0.43591
2173.49214	0.43747
2171.56357	0.43899
2169.63501	0.44040
2167.70645	0.44177
2165.77788	0.44310
2163.84932	0.44430
2161.92075	0.44537
2159.99219	0.44644
2158.06362	0.44757
2156.13506	0.44863
2154.20649	0.44959
2152.27793	0.45051
2150.34937	0.45140
2148.42080	0.45224
2146.49224	0.45303
2144.56367	0.45360
2142.63511	0.45395
2140.70654	0.45426
2138.77798	0.45457
2136.84941	0.45484
2134.92085	0.45509
2132.99229	0.45521
2131.06372	0.45518
2129.13516	0.45510
2127.20659	0.45505
2125.27803	0.45492
2123.34946	0.45459
2121.42090	0.45408
2119.49233	0.45344
2117.56377	0.45285
2115.63521	0.45238
2113.70664	0.45184
2111.77808	0.45116
2109.84951	0.45036
2107.92095	0.44937
2105.99238	0.44829
2104.06382	0.44724
2102.13525	0.44611
2100.20669	0.44483
2098.27812	0.44341
2096.34956	0.44194
2094.42100	0.44052
2092.49243	0.43917
2090.56387	0.43779
2088.63530	0.43619
2086.70674	0.43441
2084.77817	0.43254
2082.84961	0.43073
2080.92104	0.42900
2078.99248	0.42731
2077.06392	0.42548
2075.13535	0.42339
2073.20679	0.42114
2071.27822	0.41896
2069.34966	0.41686
2067.42109	0.41475
2065.49253	0.41265
2063.56396	0.41037
2061.63540	0.40787
2059.70684	0.40540
2057.77827	0.40300
2055.84971	0.40052
2053.92114	0.39795
2051.99258	0.39549
2050.06401	0.39311
2048.13545	0.39058
2046.20688	0.38789
2044.27832	0.38535
2042.34976	0.38298
2040.42119	0.38045
2038.49263	0.37763
2036.56406	0.37480
2034.63550	0.37211
2032.70693	0.36937
2030.77837	0.36657
2028.84980	0.36387
2026.92124	0.36124
2024.99268	0.35851
2023.06411	0.35581
2021.13555	0.35318
2019.20698	0.35070
2017.27842	0.34840
2015.34985	0.34579
2013.42129	0.34275
2011.49272	0.33976
2009.56416	0.33703
2007.63560	0.33438
2005.70703	0.33164
2003.77847	0.32883
2001.84990	0.32609
1999.92134	0.32353
1997.99277	0.32101
1996.06421	0.31857
1994.13564	0.31655
1992.20708	0.31476
1990.27852	0.31235
1988.34995	0.30944
1986.42139	0.30660
1984.49282	0.30393
1982.56426	0.30139
1980.63569	0.29894
1978.70713	0.29658
1976.77856	0.29432
1974.85000	0.29217
1972.92144	0.29004
1970.99287	0.28797
1969.06431	0.28624
1967.13574	0.28472
1965.20718	0.28261
1963.27861	0.28005
1961.35005	0.27781
1959.42148	0.27590
1957.49292	0.27407
1955.56436	0.27230
1953.63579	0.27054
1951.70723	0.26870
1949.77866	0.26695
1947.85010	0.26548
1945.92153	0.26445
1943.99297	0.26377
1942.06440	0.26267
1940.13584	0.26044
1938.20728	0.25805
1936.27871	0.25643
1934.35015	0.25522
1932.42158	0.25397
1930.49302	0.25259
1928.56445	0.25129
1926.63589	0.25027
1924.70732	0.24993
1922.77876	0.24997
1920.85020	0.24932
1918.92163	0.24829
1916.99307	0.24708
1915.06450	0.24530
1913.13594	0.24386
1911.20737	0.24349
1909.27881	0.24340
1907.35024	0.24261
1905.42168	0.24134
1903.49312	0.24038
1901.56455	0.23973
1899.63599	0.23909
1897.70742	0.23866
1895.77886	0.23863
1893.85029	0.23848
1891.92173	0.23817
1889.99316	0.23829
1888.06460	0.23806
1886.13604	0.23723
1884.20747	0.23653
1882.27891	0.23603
1880.35034	0.23578
1878.42178	0.23573
1876.49321	0.23564
1874.56465	0.23561
1872.63608	0.23621
1870.70752	0.23801
1868.77896	0.24046
1866.85039	0.24070
1864.92183	0.23874
1862.99326	0.23738
1861.06470	0.23721
1859.13613	0.23753
1857.20757	0.23779
1855.27900	0.23809
1853.35044	0.23849
1851.42187	0.23910
1849.49331	0.24016
1847.56475	0.24180
1845.63618	0.24391
1843.70762	0.24555
1841.77905	0.24527
1839.85049	0.24444
1837.92192	0.24480
1835.99336	0.24569
1834.06479	0.24658
1832.13623	0.24831
1830.20767	0.25133
1828.27910	0.25342
1826.35054	0.25387
1824.42197	0.25444
1822.49341	0.25471
1820.56484	0.25499
1818.63628	0.25606
1816.70771	0.25770
1814.77915	0.25942
1812.85059	0.26174
1810.92202	0.26457
1808.99346	0.26661
1807.06489	0.26787
1805.13633	0.26944
1803.20776	0.27217
1801.27920	0.27574
1799.35063	0.27903
1797.42207	0.28138
1795.49351	0.28400
1793.56494	0.28786
1791.63638	0.29214
1789.70781	0.29423
1787.77925	0.29518
1785.85068	0.29786
1783.92212	0.30191
1781.99355	0.30635
1780.06499	0.31087
1778.13643	0.31499
1776.20786	0.31914
1774.27930	0.32483
1772.35073	0.33260
1770.42217	0.33889
1768.49360	0.34245
1766.56504	0.34590
1764.63647	0.35041
1762.70791	0.35685
1760.77935	0.36513
1758.85078	0.37218
1756.92222	0.37910
1754.99365	0.38656
1753.06509	0.39382
1751.13652	0.40394
1749.20796	0.41655
1747.27939	0.42710
1745.35083	0.43527
1743.42227	0.44427
1741.49370	0.45470
1739.56514	0.46701
1737.63657	0.47925
1735.70801	0.49083
1733.77944	0.50894
1731.85088	0.52829
1729.92231	0.54175
1727.99375	0.55566
1726.06519	0.57153
1724.13662	0.58994
1722.20806	0.61034
1720.27949	0.63004
1718.35093	0.65468
1716.42236	0.68931
1714.49380	0.71799
1712.56523	0.73936
1710.63667	0.76132
1708.70811	0.78672
1706.77954	0.81678
1704.85098	0.85227
1702.92241	0.88297
1700.99385	0.91352
1699.06528	0.95927
1697.13672	0.99995
1695.20815	1.03932
1693.27959	1.07651
1691.35103	1.10698
1689.42246	1.14355
1687.49390	1.18247
1685.56533	1.22028
1683.63677	1.27735
1681.70820	1.33334
1679.77964	1.36799
1677.85107	1.40235
1675.92251	1.44331
1673.99395	1.49401
1672.06538	1.53903
1670.13682	1.58309
1668.20825	1.63695
1666.27969	1.67805
1664.35112	1.71350
1662.42256	1.75819
1660.49399	1.80717
1658.56543	1.84572
1656.63687	1.87847
1654.70830	1.91111
1652.77974	1.96635
1650.85117	2.01869
1648.92261	2.04015
1646.99404	2.07119
1645.06548	2.10667
1643.13691	2.12913
1641.20835	2.14424
1639.27979	2.15885
1637.35122	2.17093
1635.42266	2.17721
1633.49409	2.17154
1631.56553	2.15884
1629.63696	2.14568
1627.70840	2.12472
1625.77983	2.09867
1623.85127	2.06294
1621.92271	2.01692
1619.99414	1.97625
1618.06558	1.93846
1616.13701	1.88258
1614.20845	1.82079
1612.27988	1.77300
1610.35132	1.72518
1608.42275	1.67324
1606.49419	1.62070
1604.56562	1.57181
1602.63706	1.52444
1600.70850	1.47722
1598.77993	1.43294
1596.85137	1.39167
1594.92280	1.35227
1592.99424	1.31394
1591.06567	1.27804
1589.13711	1.24395
1587.20854	1.21186
1585.27998	1.18154
1583.35142	1.15269
1581.42285	1.12613
1579.49429	1.10359
1577.56572	1.08384
1575.63716	1.05823
1573.70859	1.03299
1571.78003	1.01631
1569.85146	0.99973
1567.92290	0.97953
1565.99434	0.96188
1564.06577	0.94680
1562.13721	0.93529
1560.20864	0.92818
1558.28008	0.91374
1556.35151	0.89342
1554.42295	0.87920
1552.49438	0.86668
1550.56582	0.85545
1548.63726	0.84439
1546.70869	0.83514
1544.78013	0.82884
1542.85156	0.82439
1540.92300	0.81885
1538.99443	0.80504
1537.06587	0.79151
1535.13730	0.78422
1533.20874	0.77740
1531.28018	0.76873
1529.35161	0.76195
1527.42305	0.75712
1525.49448	0.75263
1523.56592	0.74857
1521.63735	0.74415
1519.70879	0.73719
1517.78022	0.73057
1515.85166	0.72405
1513.92310	0.71713
1511.99453	0.71227
1510.06597	0.71023
1508.13740	0.71063
1506.20884	0.70677
1504.28027	0.69672
1502.35171	0.69023
1500.42314	0.68689
1498.49458	0.68498
1496.56602	0.68204
1494.63745	0.67729
1492.70889	0.67391
1490.78032	0.67310
1488.85176	0.67181
1486.92319	0.66697
1484.99463	0.66147
1483.06606	0.65747
1481.13750	0.65449
1479.20894	0.65186
1477.28037	0.65013
1475.35181	0.64969
1473.42324	0.64931
1471.49468	0.64546
1469.56611	0.63941
1467.63755	0.63550
1465.70898	0.63368
1463.78042	0.63145
1461.85186	0.62870
1459.92329	0.62806
1457.99473	0.62966
1456.06616	0.62805
1454.13760	0.62217
1452.20903	0.61784
1450.28047	0.61541
1448.35190	0.61396
1446.42334	0.61210
1444.49478	0.60966
1442.56621	0.60757
1440.63765	0.60614
1438.70908	0.60579
1436.78052	0.60621
1434.85195	0.60511
1432.92339	0.60284
1430.99482	0.60135
1429.06626	0.59990
1427.13770	0.59783
1425.20913	0.59629
1423.28057	0.59528
1421.35200	0.59442
1419.42344	0.59412
1417.49487	0.59260
1415.56631	0.58918
1413.63774	0.58643
1411.70918	0.58482
1409.78062	0.58346
1407.85205	0.58215
1405.92349	0.58128
1403.99492	0.58009
1402.06636	0.57851
1400.13779	0.57781
1398.20923	0.57774
1396.28066	0.57723
1394.35210	0.57575
1392.42354	0.57326
1390.49497	0.57118
1388.56641	0.57026
1386.63784	0.56933
1384.70928	0.56734
1382.78071	0.56536
1380.85215	0.56419
1378.92358	0.56354
1376.99502	0.56329
1375.06646	0.56334
1373.13789	0.56248
1371.20933	0.56068
1369.28076	0.55926
1367.35220	0.55812
1365.42363	0.55730
1363.49507	0.55730
1361.56650	0.55678
1359.63794	0.55490
1357.70937	0.55328
1355.78081	0.55241
1353.85225	0.55157
1351.92368	0.55056
1349.99512	0.54976
1348.06655	0.54899
1346.13799	0.54800
1344.20942	0.54721
1342.28086	0.54719
1340.35229	0.54777
1338.42373	0.54748
1336.49517	0.54574
1334.56660	0.54382
1332.63804	0.54249
1330.70947	0.54158
1328.78091	0.54075
1326.85234	0.53995
1324.92378	0.53921
1322.99521	0.53854
1321.06665	0.53807
1319.13809	0.53770
1317.20952	0.53701
1315.28096	0.53610
1313.35239	0.53522
1311.42383	0.53429
1309.49526	0.53336
1307.56670	0.53254
1305.63813	0.53173
1303.70957	0.53090
1301.78101	0.53012
1299.85244	0.52949
1297.92388	0.52900
1295.99531	0.52847
1294.06675	0.52783
1292.13818	0.52723
1290.20962	0.52671
1288.28105	0.52618
1286.35249	0.52563
1284.42393	0.52516
1282.49536	0.52481
1280.56680	0.52448
1278.63823	0.52395
1276.70967	0.52337
1274.78110	0.52300
1272.85254	0.52280
1270.92397	0.52255
1268.99541	0.52216
1267.06685	0.52177
1265.13828	0.52137
1263.20972	0.52092
1261.28115	0.52054
1259.35259	0.52013
1257.42402	0.51958
1255.49546	0.51914
1253.56689	0.51900
1251.63833	0.51894
1249.70977	0.51881
1247.78120	0.51853
1245.85264	0.51811
1243.92407	0.51770
1241.99551	0.51737
1240.06694	0.51698
1238.13838	0.51656
1236.20981	0.51619
1234.28125	0.51584
1232.35269	0.51536
1230.42412	0.51473
1228.49556	0.51408
1226.56699	0.51352
1224.63843	0.51304
1222.70986	0.51261
1220.78130	0.51211
1218.85273	0.51151
1216.92417	0.51097
1214.99561	0.51049
1213.06704	0.50992
1211.13848	0.50926
1209.20991	0.50866
1207.28135	0.50819
1205.35278	0.50780
1203.42422	0.50733
1201.49565	0.50667
1199.56709	0.50600
1197.63853	0.50555
1195.70996	0.50534
1193.78140	0.50519
1191.85283	0.50479
1189.92427	0.50418
1187.99570	0.50376
1186.06714	0.50362
1184.13857	0.50358
1182.21001	0.50349
1180.28145	0.50343
1178.35288	0.50358
1176.42432	0.50391
1174.49575	0.50424
1172.56719	0.50460
1170.63862	0.50493
1168.71006	0.50502
1166.78149	0.50497
1164.85293	0.50508
1162.92437	0.50517
1160.99580	0.50493
1159.06724	0.50443
1157.13867	0.50378
1155.21011	0.50291
1153.28154	0.50169
1151.35298	0.50023
1149.42441	0.49865
1147.49585	0.49681
1145.56729	0.49461
1143.63872	0.49222
1141.71016	0.48985
1139.78159	0.48761
1137.85303	0.48551
1135.92446	0.48347
1133.99590	0.48154
1132.06733	0.47984
1130.13877	0.47820
1128.21021	0.47647
1126.28164	0.47493
1124.35308	0.47380
1122.42451	0.47273
1120.49595	0.47158
1118.56738	0.47076
1116.63882	0.47051
1114.71025	0.47058
1112.78169	0.47072
1110.85312	0.47103
1108.92456	0.47175
1106.99600	0.47274
1105.06743	0.47394
1103.13887	0.47535
1101.21030	0.47692
1099.28174	0.47895
1097.35317	0.48162
1095.42461	0.48458
1093.49604	0.48790
1091.56748	0.49199
1089.63892	0.49686
1087.71035	0.50228
1085.78179	0.50811
1083.85322	0.51426
1081.92466	0.52050
1079.99609	0.52601
1078.06753	0.52969
1076.13896	0.53082
1074.21040	0.52908
1072.28184	0.52472
1070.35327	0.51884
1068.42471	0.51266
1066.49614	0.50659
1064.56758	0.50056
1062.63901	0.49480
1060.71045	0.48966
1058.78188	0.48530
1056.85332	0.48161
1054.92476	0.47841
1052.99619	0.47570
1051.06763	0.47352
1049.13906	0.47171
1047.21050	0.46995
1045.28193	0.46821
1043.35337	0.46691
1041.42480	0.46613
1039.49624	0.46548
1037.56768	0.46499
1035.63911	0.46493
1033.71055	0.46497
1031.78198	0.46491
1029.85342	0.46515
1027.92485	0.46568
1025.99629	0.46624
1024.06772	0.46707
1022.13916	0.46831
1020.21060	0.46964
1018.28203	0.47089
1016.35347	0.47213
1014.42490	0.47331
1012.49634	0.47445
1010.56777	0.47574
1008.63921	0.47729
1006.71064	0.47904
1004.78208	0.48101
1002.85352	0.48325
1000.92495	0.48572
998.99639	0.48863
997.06782	0.49214
995.13926	0.49604
993.21069	0.49998
991.28213	0.50357
989.35356	0.50642
987.42500	0.50841
985.49644	0.50976
983.56787	0.51084
981.63931	0.51192
979.71074	0.51328
977.78218	0.51521
975.85361	0.51788
973.92505	0.52101
971.99648	0.52417
970.06792	0.52743
968.13936	0.53112
966.21079	0.53543
964.28223	0.54015
962.35366	0.54488
960.42510	0.54976
958.49653	0.55509
956.56797	0.56070
954.63940	0.56663
952.71084	0.57303
950.78228	0.57946
948.85371	0.58563
946.92515	0.59182
944.99658	0.59816
943.06802	0.60456
941.13945	0.61083
939.21089	0.61664
937.28232	0.62191
935.35376	0.62691
933.42520	0.63212
931.49663	0.63782
929.56807	0.64358
927.63950	0.64914
925.71094	0.65488
923.78237	0.66125
921.85381	0.66803
919.92524	0.67462
917.99668	0.68115
916.06812	0.68784
914.13955	0.69459
912.21099	0.70187
910.28242	0.71046
908.35386	0.71980
906.42529	0.72831
904.49673	0.73641
902.56816	0.74554
900.63960	0.75499
898.71104	0.76355
896.78247	0.77187
894.85391	0.78123
892.92534	0.79098
890.99678	0.80024
889.06821	0.81083
887.13965	0.82300
885.21108	0.83446
883.28252	0.84540
881.35396	0.85692
879.42539	0.86874
877.49683	0.88102
875.56826	0.89304
873.63970	0.90260
871.71113	0.91104
869.78257	0.92140
867.85400	0.93355
865.92544	0.94633
863.99687	0.95820
862.06831	0.96884
860.13975	0.98036
858.21118	0.99282
856.28262	1.00395
854.35405	1.01422
852.42549	1.02551
850.49692	1.03762
848.56836	1.04899
846.63979	1.05876
844.71123	1.06854
842.78267	1.07952
840.85410	1.09138
838.92554	1.10296
836.99697	1.11425
835.06841	1.12615
833.13984	1.13693
831.21128	1.14683
829.28271	1.15887
827.35415	1.17462
825.42559	1.19253
823.49702	1.20722
821.56846	1.21434
819.63989	1.21825
817.71133	1.22839
815.78276	1.24453
813.85420	1.25618
811.92563	1.26353
809.99707	1.27655
808.06851	1.29060
806.13994	1.29533
804.21138	1.30035
802.28281	1.32559
800.35425	1.35206
798.42568	1.34960
796.49712	1.34986
794.56855	1.36235
792.63999	1.36749
790.71143	1.39253
788.78286	1.45232
786.85430	1.50254
784.92573	1.52553
782.99717	1.55211
781.06860	1.60275
779.14004	1.69038
777.21147	1.79996
775.28291	1.92608
773.35435	1.82913
771.42578	1.56503
769.49722	1.44287
767.56865	1.47977
765.64009	1.53601
763.71152	1.41708
761.78296	1.29145
759.85439	1.26063
757.92583	1.29442
755.99727	1.38586
754.06870	1.68261
752.14014	4.51284
750.21157	4.50127
748.28301	1.79255
746.35444	1.48966
744.42588	1.17693
742.49731	1.10444
740.56875	1.33364
738.64019	4.43184
736.71162	1.83326
734.78306	1.12858
732.85449	0.88520
730.92593	0.86030
728.99736	0.95361
727.06880	0.86800
725.14023	0.69465
723.21167	0.51132
721.28311	0.27172
719.35454	0.08478
717.42598	0.07892
715.49741	0.24086
713.56885	0.33842
711.64028	0.09626
709.71172	-0.13567
707.78315	-0.19811
705.85459	-0.08474
703.92603	0.18366
701.99746	0.67847
700.06890	0.65586
698.14033	0.30034
696.21177	0.15664
694.28320	0.23743
692.35464	0.54806
690.42607	1.34426
688.49751	0.96394
686.56895	0.58168
684.64038	0.41271
682.71182	0.25809
680.78325	0.13160
678.85469	0.13389
676.92612	0.24058
674.99756	0.24256
673.06899	0.18068
671.14043	0.21675
669.21187	0.31191
667.28330	0.35373
665.35474	0.34292
663.42617	0.35506
661.49761	0.33705
659.56904	0.28435
657.64048	0.30439
655.71191	0.39012
653.78335	0.43272
651.85479	0.34123
649.92622	0.21121
647.99766	0.14062
646.06909	0.13754
644.14053	0.18172
642.21196	0.21764
640.28340	0.22995
638.35483	0.29300
636.42627	0.45224
634.49771	0.49360
632.56914	0.36248
630.64058	0.24469
628.71201	0.18686
626.78345	0.14311
624.85488	0.13194
622.92632	0.19040
620.99775	0.26108
619.06919	0.26143
617.14062	0.25430
615.21206	0.29508
613.28350	0.29143
611.35493	0.27477
609.42637	0.32615
607.49780	0.34621
605.56924	0.32704
603.64067	0.33664
601.71211	0.31843
599.78354	0.25061
597.85498	0.16881
595.92642	0.12416
593.99785	0.15605
592.06929	0.17007
590.14072	0.14004
588.21216	0.12927
586.28359	0.16227
584.35503	0.21654
582.42646	0.28948
580.49790	0.36644
578.56934	0.35779
576.64077	0.34433
574.71221	0.37416
572.78364	0.35196
570.85508	0.29733
568.92651	0.26145
566.99795	0.21575
565.06938	0.19117
563.14082	0.21944
561.21226	0.29811
559.28369	0.34247
557.35513	0.30522
555.42656	0.25389
553.49800	0.22764
551.56943	0.22476
549.64087	0.19071
547.71230	0.12919
545.78374	0.13091
543.85518	0.17867
541.92661	0.21620
539.99805	0.23072
538.06948	0.24765
536.14092	0.24140
534.21235	0.23790
532.28379	0.26296
530.35522	0.26351
528.42666	0.26121
526.49810	0.26478
524.56953	0.23153
522.64097	0.18185
520.71240	0.15847
518.78384	0.15687
516.85527	0.14823
514.92671	0.14534
512.99814	0.17847
511.06958	0.22724
509.14102	0.26044
507.21245	0.24879
505.28389	0.21272
503.35532	0.18202
501.42676	0.16463
499.49819	0.15573
