3997.91411	0.06140
3995.98555	0.06130
3994.05698	0.06108
3992.12842	0.06168
3990.19985	0.06282
3988.27129	0.06325
3986.34272	0.06286
3984.41416	0.06263
3982.48560	0.06280
3980.55703	0.06306
3978.62847	0.06341
3976.69990	0.06393
3974.77134	0.06452
3972.84277	0.06503
3970.91421	0.06537
3968.98564	0.06570
3967.05708	0.06589
3965.12852	0.06564
3963.19995	0.06530
3961.27139	0.06549
3959.34282	0.06602
3957.41426	0.06616
3955.48569	0.06596
3953.55713	0.06593
3951.62856	0.06627
3949.70000	0.06674
3947.77144	0.06697
3945.84287	0.06693
3943.91431	0.06695
3941.98574	0.06702
3940.05718	0.06686
3938.12861	0.06692
3936.20005	0.06722
3934.27148	0.06741
3932.34292	0.06780
3930.41436	0.06816
3928.48579	0.06768
3926.55723	0.06710
3924.62866	0.06756
3922.70010	0.06799
3920.77153	0.06752
3918.84297	0.06721
3916.91440	0.06726
3914.98584	0.06694
3913.05728	0.06634
3911.12871	0.06613
3909.20015	0.06634
3907.27158	0.06683
3905.34302	0.06775
3903.41445	0.06895
3901.48589	0.06988
3899.55732	0.06995
3897.62876	0.06861
3895.70020	0.06700
3893.77163	0.06672
3891.84307	0.06723
3889.91450	0.06724
3887.98594	0.06723
3886.05737	0.06782
3884.12881	0.06838
3882.20024	0.06858
3880.27168	0.06883
3878.34312	0.06865
3876.41455	0.06823
3874.48599	0.06880
3872.55742	0.07010
3870.62886	0.07117
3868.70029	0.07167
3866.77173	0.07154
3864.84316	0.07192
3862.91460	0.07276
3860.98604	0.07265
3859.05747	0.07203
3857.12891	0.07197
3855.20034	0.07284
3853.27178	0.07472
3851.34321	0.07596
3849.41465	0.07488
3847.48608	0.07383
3845.55752	0.07389
3843.62896	0.07489
3841.70039	0.07644
3839.77183	0.07809
3837.84326	0.07957
3835.91470	0.08030
3833.98613	0.08002
3832.05757	0.07955
3830.12900	0.07955
3828.20044	0.08013
3826.27187	0.08133
3824.34331	0.08289
3822.41475	0.08458
3820.48618	0.08647
3818.55762	0.08713
3816.62905	0.08727
3814.70049	0.08773
3812.77192	0.08726
3810.84336	0.08679
3808.91479	0.08755
3806.98623	0.08943
3805.05767	0.09154
3803.12910	0.09335
3801.20054	0.09529
3799.27197	0.09663
3797.34341	0.09710
3795.41484	0.09753
3793.48628	0.09795
3791.55771	0.09867
3789.62915	0.09973
3787.70059	0.10102
3785.77202	0.10295
3783.84346	0.10510
3781.91489	0.10664
3779.98633	0.10811
3778.05776	0.10979
3776.12920	0.11089
3774.20063	0.11185
3772.27207	0.11346
3770.34351	0.11587
3768.41494	0.11871
3766.48638	0.12102
3764.55781	0.12288
3762.62925	0.12441
3760.70068	0.12630
3758.77212	0.12948
3756.84355	0.13272
3754.91499	0.13494
3752.98643	0.13753
3751.05786	0.14183
3749.12930	0.14662
3747.20073	0.14920
3745.27217	0.15116
3743.34360	0.15414
3741.41504	0.15688
3739.48647	0.15908
3737.55791	0.16208
3735.62935	0.16715
3733.70078	0.17339
3731.77222	0.17727
3729.84365	0.17972
3727.91509	0.18307
3725.98652	0.18817
3724.05796	0.19495
3722.12939	0.20270
3720.20083	0.21076
3718.27227	0.21851
3716.34370	0.22620
3714.41514	0.23418
3712.48657	0.24390
3710.55801	0.25715
3708.62944	0.27076
3706.70088	0.28199
3704.77231	0.29315
3702.84375	0.30632
3700.91519	0.32340
3698.98662	0.34216
3697.05806	0.35987
3695.12949	0.37888
3693.20093	0.39954
3691.27236	0.42204
3689.34380	0.45079
3687.41523	0.48567
3685.48667	0.51621
3683.55811	0.54284
3681.62954	0.57175
3679.70098	0.60445
3677.77241	0.63874
3675.84385	0.67881
3673.91528	0.73210
3671.98672	0.77599
3670.05815	0.81507
3668.12959	0.86832
3666.20103	0.91747
3664.27246	0.95887
3662.34390	1.00297
3660.41533	1.05065
3658.48677	1.09776
3656.55820	1.14739
3654.62964	1.20273
3652.70107	1.25012
3650.77251	1.29174
3648.84395	1.34811
3646.91538	1.41614
3644.98682	1.46636
3643.05825	1.50563
3641.12969	1.54586
3639.20112	1.59004
3637.27256	1.63451
3635.34399	1.67788
3633.41543	1.72144
3631.48687	1.76202
3629.55830	1.80268
3627.62974	1.85555
3625.70117	1.90522
3623.77261	1.93981
3621.84404	1.97378
3619.91548	2.01286
3617.98691	2.05942
3616.05835	2.10352
3614.12979	2.14031
3612.20122	2.17885
3610.27266	2.21703
3608.34409	2.25587
3606.41553	2.29904
3604.48696	2.33951
3602.55840	2.37442
3600.62983	2.41150
3598.70127	2.45249
3596.77271	2.49282
3594.84414	2.53280
3592.91558	2.57431
3590.98701	2.61530
3589.05845	2.65376
3587.12988	2.69750
3585.20132	2.74462
3583.27275	2.78468
3581.34419	2.82289
3579.41562	2.86495
3577.48706	2.90827
3575.55850	2.95016
3573.62993	2.99343
3571.70137	3.03617
3569.77280	3.07547
3567.84424	3.11646
3565.91567	3.16757
3563.98711	3.21749
3562.05854	3.25861
3560.12998	3.29964
3558.20142	3.34246
3556.27285	3.38579
3554.34429	3.42930
3552.41572	3.47470
3550.48716	3.52120
3548.55859	3.56724
3546.63003	3.61350
3544.70146	3.66228
3542.77290	3.71108
3540.84434	3.75728
3538.91577	3.80415
3536.98721	3.85249
3535.05864	3.90108
3533.13008	3.94742
3531.20151	3.99141
3529.27295	4.03605
3527.34438	4.08727
3525.41582	4.14019
3523.48726	4.18489
3521.55869	4.22947
3519.63013	4.28091
3517.70156	4.33280
3515.77300	4.37982
3513.84443	4.42453
3511.91587	4.46981
3509.98730	4.51757
3508.05874	4.56810
3506.13018	4.61804
3504.20161	4.66630
3502.27305	4.71574
3500.34448	4.76455
3498.41592	4.80698
3496.48735	4.84876
3494.55879	4.90065
3492.63022	4.95835
3490.70166	5.00866
3488.77310	5.05437
3486.84453	5.10410
3484.91597	5.15270
3482.98740	5.19500
3481.05884	5.23550
3479.13027	5.28050
3477.20171	5.33279
3475.27314	5.38695
3473.34458	5.43581
3471.41602	5.47980
3469.48745	5.52128
3467.55889	5.56493
3465.63032	5.61604
3463.70176	5.66979
3461.77319	5.71745
3459.84463	5.75656
3457.91606	5.79336
3455.98750	5.84707
3454.05894	5.91210
3452.13037	5.96489
3450.20181	6.01142
3448.27324	6.05991
3446.34468	6.11075
3444.41611	6.16801
3442.48755	6.23025
3440.55898	6.28188
3438.63042	6.32489
3436.70186	6.36844
3434.77329	6.40516
3432.84473	6.44242
3430.91616	6.48283
3428.98760	6.52282
3427.05903	6.57701
3425.13047	6.65513
3423.20190	6.71506
3421.27334	6.73627
3419.34478	6.77576
3417.41621	6.84807
3415.48765	6.89122
3413.55908	6.89881
3411.63052	6.92891
3409.70195	6.99867
3407.77339	7.09525
3405.84482	7.17276
3403.91626	7.20333
3401.98770	7.20768
3400.05913	7.22465
3398.13057	7.27836
3396.20200	7.32860
3394.27344	7.34706
3392.34487	7.34941
3390.41631	7.35638
3388.48774	7.36828
3386.55918	7.41971
3384.63062	7.52348
3382.70205	7.59424
3380.77349	7.59591
3378.84492	7.58782
3376.91636	7.60880
3374.98779	7.64875
3373.05923	7.68596
3371.13066	7.69963
3369.20210	7.70771
3367.27354	7.72028
3365.34497	7.73814
3363.41641	7.76662
3361.48784	7.80636
3359.55928	7.87358
3357.63071	7.94487
3355.70215	7.98748
3353.77358	7.98707
3351.84502	7.96437
3349.91646	7.94948
3347.98789	7.96027
3346.05933	7.97969
3344.13076	7.97286
3342.20220	7.94521
3340.27363	7.93995
3338.34507	7.98390
3336.41650	8.02335
3334.48794	8.04224
3332.55937	8.07171
3330.63081	8.12013
3328.70225	8.14507
3326.77368	8.09826
3324.84512	8.01846
3322.91655	7.99999
3320.98799	8.06166
3319.05942	8.05786
3317.13086	7.98308
3315.20229	7.98873
3313.27373	8.06465
3311.34517	8.09958
3309.41660	8.09384
3307.48804	8.07311
3305.55947	8.05170
3303.63091	8.06068
3301.70234	8.06776
3299.77378	8.10033
3297.84521	8.15700
3295.91665	8.19266
3293.98809	8.21724
3292.05952	8.21814
3290.13096	8.21163
3288.20239	8.20214
3286.27383	8.14127
3284.34526	8.07074
3282.41670	8.07322
3280.48813	8.11259
3278.55957	8.17209
3276.63101	8.26298
3274.70244	8.29463
3272.77388	8.25956
3270.84531	8.24611
3268.91675	8.24433
3266.98818	8.21673
3265.05962	8.18618
3263.13105	8.17770
3261.20249	8.17882
3259.27393	8.10811
3257.34536	8.01032
3255.41680	8.04290
3253.48823	8.15578
3251.55967	8.15880
3249.63110	8.10908
3247.70254	8.11502
3245.77397	8.10094
3243.84541	8.07493
3241.91685	8.10286
3239.98828	8.11008
3238.05972	8.04989
3236.13115	8.04077
3234.20259	8.10295
3232.27402	8.10732
3230.34546	8.04507
3228.41689	7.99805
3226.48833	8.00825
3224.55977	8.05718
3222.63120	8.07766
3220.70264	8.03763
3218.77407	7.98539
3216.84551	7.98557
3214.91694	7.99555
3212.98838	7.92034
3211.05981	7.83137
3209.13125	7.83015
3207.20269	7.86166
3205.27412	7.85003
3203.34556	7.81013
3201.41699	7.75894
3199.48843	7.67418
3197.55986	7.57804
3195.63130	7.52997
3193.70273	7.53585
3191.77417	7.53868
3189.84561	7.50091
3187.91704	7.44331
3185.98848	7.38980
3184.05991	7.34968
3182.13135	7.29631
3180.20278	7.21201
3178.27422	7.13264
3176.34565	7.07448
3174.41709	7.02534
3172.48853	6.97487
3170.55996	6.91629
3168.63140	6.86450
3166.70283	6.82247
3164.77427	6.76564
3162.84570	6.69982
3160.91714	6.64937
3158.98857	6.59725
3157.06001	6.51127
3155.13145	6.41758
3153.20288	6.34594
3151.27432	6.28490
3149.34575	6.23458
3147.41719	6.18985
3145.48862	6.13021
3143.56006	6.05791
3141.63149	5.98238
3139.70293	5.90934
3137.77437	5.84191
3135.84580	5.77319
3133.91724	5.70558
3131.98867	5.63810
3130.06011	5.56045
3128.13154	5.47747
3126.20298	5.39835
3124.27441	5.32903
3122.34585	5.26710
3120.41729	5.20071
3118.48872	5.12954
3116.56016	5.06194
3114.63159	4.99271
3112.70303	4.91690
3110.77446	4.84378
3108.84590	4.77678
3106.91733	4.70966
3104.98877	4.64070
3103.06021	4.57507
3101.13164	4.51258
3099.20308	4.44754
3097.27451	4.38069
3095.34595	4.31553
3093.41738	4.25095
3091.48882	4.18609
3089.56025	4.12220
3087.63169	4.05755
3085.70312	3.99185
3083.77456	3.92915
3081.84600	3.87031
3079.91743	3.81118
3077.98887	3.75034
3076.06030	3.69056
3074.13174	3.63315
3072.20317	3.57626
3070.27461	3.51889
3068.34604	3.46353
3066.41748	3.40925
3064.48892	3.35322
3062.56035	3.29781
3060.63179	3.24472
3058.70322	3.19239
3056.77466	3.14020
3054.84609	3.08826
3052.91753	3.03583
3050.98896	2.98246
3049.06040	2.93004
3047.13184	2.88089
3045.20327	2.83397
3043.27471	2.78652
3041.34614	2.73836
3039.41758	2.69069
3037.48901	2.64399
3035.56045	2.59926
3033.63188	2.55663
3031.70332	2.51387
3029.77476	2.46978
3027.84619	2.42600
3025.91763	2.38363
3023.98906	2.34176
3022.06050	2.30018
3020.13193	2.25991
3018.20337	2.22028
3016.27480	2.18028
3014.34624	2.14086
3012.41768	2.10314
3010.48911	2.06661
3008.56055	2.03053
3006.63198	1.99509
3004.70342	1.96009
3002.77485	1.92520
3000.84629	1.89090
2998.91772	1.85740
2996.98916	1.82454
2995.06060	1.79221
2993.13203	1.76049
2991.20347	1.72953
2989.27490	1.69920
2987.34634	1.66924
2985.41777	1.63982
2983.48921	1.61112
2981.56064	1.58285
2979.63208	1.55495
2977.70352	1.52739
2975.77495	1.50034
2973.84639	1.47416
2971.91782	1.44852
2969.98926	1.42290
2968.06069	1.39759
2966.13213	1.37295
2964.20356	1.34845
2962.27500	1.32379
2960.34644	1.29953
2958.41787	1.27581
2956.48931	1.25214
2954.56074	1.22846
2952.63218	1.20521
2950.70361	1.18286
2948.77505	1.16148
2946.84648	1.14046
2944.91792	1.11919
2942.98936	1.09796
2941.06079	1.07730
2939.13223	1.05684
2937.20366	1.03634
2935.27510	1.01622
2933.34653	0.99639
2931.41797	0.97686
2929.48940	0.95786
2927.56084	0.93914
2925.63228	0.92088
2923.70371	0.90379
2921.77515	0.88781
2919.84658	0.87229
2917.91802	0.85708
2915.98945	0.84228
2914.06089	0.82773
2912.13232	0.81328
2910.20376	0.79888
2908.27520	0.78456
2906.34663	0.77062
2904.41807	0.75693
2902.48950	0.74348
2900.56094	0.73047
2898.63237	0.71785
2896.70381	0.70571
2894.77524	0.69404
2892.84668	0.68255
2890.91812	0.67125
2888.98955	0.66025
2887.06099	0.64940
2885.13242	0.63892
2883.20386	0.62893
2881.27529	0.61887
2879.34673	0.60849
2877.41816	0.59813
2875.48960	0.58802
2873.56104	0.57807
2871.63247	0.56817
2869.70391	0.55798
2867.77534	0.54731
2865.84678	0.53669
2863.91821	0.52636
2861.98965	0.51608
2860.06108	0.50595
2858.13252	0.49630
2856.20396	0.48708
2854.27539	0.47813
2852.34683	0.46972
2850.41826	0.46215
2848.48970	0.45513
2846.56113	0.44842
2844.63257	0.44232
2842.70400	0.43665
2840.77544	0.43099
2838.84687	0.42534
2836.91831	0.41965
2834.98975	0.41378
2833.06118	0.40798
2831.13262	0.40230
2829.20405	0.39665
2827.27549	0.39118
2825.34692	0.38580
2823.41836	0.38018
2821.48979	0.37441
2819.56123	0.36879
2817.63267	0.36341
2815.70410	0.35814
2813.77554	0.35287
2811.84697	0.34768
2809.91841	0.34265
2807.98984	0.33767
2806.06128	0.33264
2804.13271	0.32776
2802.20415	0.32318
2800.27559	0.31868
2798.34702	0.31405
2796.41846	0.30940
2794.48989	0.30489
2792.56133	0.30057
2790.63276	0.29639
2788.70420	0.29219
2786.77563	0.28812
2784.84707	0.28434
2782.91851	0.28056
2780.98994	0.27658
2779.06138	0.27257
2777.13281	0.26885
2775.20425	0.26545
2773.27568	0.26208
2771.34712	0.25859
2769.41855	0.25513
2767.48999	0.25180
2765.56143	0.24848
2763.63286	0.24512
2761.70430	0.24195
2759.77573	0.23902
2757.84717	0.23613
2755.91860	0.23325
2753.99004	0.23051
2752.06147	0.22786
2750.13291	0.22509
2748.20435	0.22235
2746.27578	0.21983
2744.34722	0.21739
2742.41865	0.21484
2740.49009	0.21215
2738.56152	0.20955
2736.63296	0.20729
2734.70439	0.20516
2732.77583	0.20277
2730.84727	0.20028
2728.91870	0.19807
2726.99014	0.19602
2725.06157	0.19399
2723.13301	0.19205
2721.20444	0.19026
2719.27588	0.18849
2717.34731	0.18663
2715.41875	0.18475
2713.49019	0.18298
2711.56162	0.18129
2709.63306	0.17964
2707.70449	0.17804
2705.77593	0.17644
2703.84736	0.17483
2701.91880	0.17332
2699.99023	0.17187
2698.06167	0.17042
2696.13311	0.16911
2694.20454	0.16800
2692.27598	0.16688
2690.34741	0.16561
2688.41885	0.16441
2686.49028	0.16334
2684.56172	0.16224
2682.63315	0.16117
2680.70459	0.16009
2678.77603	0.15888
2676.84746	0.15781
2674.91890	0.15695
2672.99033	0.15603
2671.06177	0.15504
2669.13320	0.15410
2667.20464	0.15313
2665.27607	0.15220
2663.34751	0.15135
2661.41895	0.15068
2659.49038	0.15019
2657.56182	0.14963
2655.63325	0.14891
2653.70469	0.14819
2651.77612	0.14748
2649.84756	0.14682
2647.91899	0.14626
2645.99043	0.14575
2644.06187	0.14527
2642.13330	0.14484
2640.20474	0.14437
2638.27617	0.14395
2636.34761	0.14358
2634.41904	0.14329
2632.49048	0.14313
2630.56191	0.14290
2628.63335	0.14247
2626.70479	0.14191
2624.77622	0.14143
2622.84766	0.14118
2620.91909	0.14109
2618.99053	0.14102
2617.06196	0.14100
2615.13340	0.14106
2613.20483	0.14105
2611.27627	0.14092
2609.34771	0.14080
2607.41914	0.14067
2605.49058	0.14057
2603.56201	0.14054
2601.63345	0.14048
2599.70488	0.14043
2597.77632	0.14051
2595.84775	0.14070
2593.91919	0.14092
2591.99062	0.14110
2590.06206	0.14125
2588.13350	0.14146
2586.20493	0.14169
2584.27637	0.14182
2582.34780	0.14198
2580.41924	0.14235
2578.49067	0.14275
2576.56211	0.14308
2574.63354	0.14349
2572.70498	0.14395
2570.77642	0.14430
2568.84785	0.14452
2566.91929	0.14478
2564.99072	0.14520
2563.06216	0.14578
2561.13359	0.14638
2559.20503	0.14693
2557.27646	0.14744
2555.34790	0.14795
2553.41934	0.14848
2551.49077	0.14898
2549.56221	0.14946
2547.63364	0.14992
2545.70508	0.15037
2543.77651	0.15091
2541.84795	0.15159
2539.91938	0.15233
2537.99082	0.15309
2536.06226	0.15394
2534.13369	0.15470
2532.20513	0.15528
2530.27656	0.15589
2528.34800	0.15664
2526.41943	0.15740
2524.49087	0.15806
2522.56230	0.15876
2520.63374	0.15956
2518.70518	0.16041
2516.77661	0.16124
2514.84805	0.16194
2512.91948	0.16261
2510.99092	0.16349
2509.06235	0.16451
2507.13379	0.16550
2505.20522	0.16635
2503.27666	0.16705
2501.34810	0.16777
2499.41953	0.16862
2497.49097	0.16939
2495.56240	0.17016
2493.63384	0.17114
2491.70527	0.17212
2489.77671	0.17286
2487.84814	0.17356
2485.91958	0.17441
2483.99102	0.17538
2482.06245	0.17643
2480.13389	0.17750
2478.20532	0.17849
2476.27676	0.17937
2474.34819	0.18026
2472.41963	0.18117
2470.49106	0.18205
2468.56250	0.18291
2466.63394	0.18381
2464.70537	0.18473
2462.77681	0.18559
2460.84824	0.18650
2458.91968	0.18759
2456.99111	0.18875
2455.06255	0.18981
2453.13398	0.19077
2451.20542	0.19169
2449.27686	0.19255
2447.34829	0.19344
2445.41973	0.19440
2443.49116	0.19546
2441.56260	0.19670
2439.63403	0.19802
2437.70547	0.19910
2435.77690	0.19996
2433.84834	0.20091
2431.91978	0.20202
2429.99121	0.20315
2428.06265	0.20419
2426.13408	0.20523
2424.20552	0.20633
2422.27695	0.20740
2420.34839	0.20841
2418.41982	0.20961
2416.49126	0.21092
2414.56270	0.21200
2412.63413	0.21290
2410.70557	0.21400
2408.77700	0.21539
2406.84844	0.21667
2404.91987	0.21775
2402.99131	0.21886
2401.06274	0.22004
2399.13418	0.22123
2397.20562	0.22255
2395.27705	0.22397
2393.34849	0.22532
2391.41992	0.22657
2389.49136	0.22777
2387.56279	0.22879
2385.63423	0.22941
2383.70566	0.22956
2381.77710	0.22926
2379.84854	0.22847
2377.91997	0.22721
2375.99141	0.22564
2374.06284	0.22379
2372.13428	0.22150
2370.20571	0.21901
2368.27715	0.21669
2366.34858	0.21444
2364.42002	0.21202
2362.49146	0.21041
2360.56289	0.21065
2358.63433	0.21248
2356.70576	0.21621
2354.77720	0.22197
2352.84863	0.22865
2350.92007	0.23483
2348.99150	0.23885
2347.06294	0.24000
2345.13437	0.23887
2343.20581	0.23729
2341.27725	0.23721
2339.34868	0.23882
2337.42012	0.24118
2335.49155	0.24373
2333.56299	0.24630
2331.63442	0.24837
2329.70586	0.25010
2327.77729	0.25241
2325.84873	0.25534
2323.92017	0.25854
2321.99160	0.26201
2320.06304	0.26575
2318.13447	0.26964
2316.20591	0.27330
2314.27734	0.27633
2312.34878	0.27882
2310.42021	0.28138
2308.49165	0.28431
2306.56309	0.28720
2304.63452	0.28982
2302.70596	0.29236
2300.77739	0.29484
2298.84883	0.29713
2296.92026	0.29934
2294.99170	0.30163
2293.06313	0.30404
2291.13457	0.30651
2289.20601	0.30897
2287.27744	0.31139
2285.34888	0.31375
2283.42031	0.31591
2281.49175	0.31779
2279.56318	0.31959
2277.63462	0.32151
2275.70605	0.32354
2273.77749	0.32560
2271.84893	0.32761
2269.92036	0.32964
2267.99180	0.33174
2266.06323	0.33389
2264.13467	0.33601
2262.20610	0.33813
2260.27754	0.34027
2258.34897	0.34249
2256.42041	0.34474
2254.49185	0.34692
2252.56328	0.34913
2250.63472	0.35148
2248.70615	0.35381
2246.77759	0.35604
2244.84902	0.35820
2242.92046	0.36039
2240.99189	0.36261
2239.06333	0.36492
2237.13477	0.36726
2235.20620	0.36953
2233.27764	0.37181
2231.34907	0.37408
2229.42051	0.37622
2227.49194	0.37830
2225.56338	0.38044
2223.63481	0.38267
2221.70625	0.38492
2219.77769	0.38700
2217.84912	0.38901
2215.92056	0.39121
2213.99199	0.39344
2212.06343	0.39557
2210.13486	0.39772
2208.20630	0.39995
2206.27773	0.40217
2204.34917	0.40423
2202.42061	0.40620
2200.49204	0.40823
2198.56348	0.41030
2196.63491	0.41235
2194.70635	0.41431
2192.77778	0.41611
2190.84922	0.41788
2188.92065	0.41961
2186.99209	0.42131
2185.06353	0.42321
2183.13496	0.42522
2181.20640	0.42698
2179.27783	0.42847
2177.34927	0.42985
2175.42070	0.43126
2173.49214	0.43278
2171.56357	0.43430
2169.63501	0.43574
2167.70645	0.43716
2165.77788	0.43859
2163.84932	0.43992
2161.92075	0.44108
2159.99219	0.44219
2158.06362	0.44326
2156.13506	0.44426
2154.20649	0.44517
2152.27793	0.44601
2150.34937	0.44678
2148.42080	0.44748
2146.49224	0.44814
2144.56367	0.44877
2142.63511	0.44935
2140.70654	0.44979
2138.77798	0.45007
2136.84941	0.45026
2134.92085	0.45033
2132.99229	0.45036
2131.06372	0.45039
2129.13516	0.45026
2127.20659	0.44994
2125.27803	0.44962
2123.34946	0.44931
2121.42090	0.44894
2119.49233	0.44852
2117.56377	0.44803
2115.63521	0.44742
2113.70664	0.44675
2111.77808	0.44609
2109.84951	0.44537
2107.92095	0.44450
2105.99238	0.44338
2104.06382	0.44214
2102.13525	0.44085
2100.20669	0.43949
2098.27812	0.43817
2096.34956	0.43695
2094.42100	0.43564
2092.49243	0.43413
2090.56387	0.43257
2088.63530	0.43094
2086.70674	0.42919
2084.77817	0.42743
2082.84961	0.42566
2080.92104	0.42369
2078.99248	0.42163
2077.06392	0.41966
2075.13535	0.41777
2073.20679	0.41581
2071.27822	0.41373
2069.34966	0.41160
2067.42109	0.40938
2065.49253	0.40706
2063.56396	0.40470
2061.63540	0.40238
2059.70684	0.40003
2057.77827	0.39763
2055.84971	0.39515
2053.92114	0.39251
2051.99258	0.38981
2050.06401	0.38720
2048.13545	0.38475
2046.20688	0.38238
2044.27832	0.37994
2042.34976	0.37735
2040.42119	0.37464
2038.49263	0.37190
2036.56406	0.36925
2034.63550	0.36664
2032.70693	0.36394
2030.77837	0.36126
2028.84980	0.35858
2026.92124	0.35584
2024.99268	0.35309
2023.06411	0.35043
2021.13555	0.34784
2019.20698	0.34522
2017.27842	0.34250
2015.34985	0.33969
2013.42129	0.33689
2011.49272	0.33418
2009.56416	0.33151
2007.63560	0.32882
2005.70703	0.32617
2003.77847	0.32354
2001.84990	0.32088
1999.92134	0.31828
1997.99277	0.31576
1996.06421	0.31325
1994.13564	0.31085
1992.20708	0.30854
1990.27852	0.30607
1988.34995	0.30338
1986.42139	0.30070
1984.49282	0.29826
1982.56426	0.29595
1980.63569	0.29357
1978.70713	0.29126
1976.77856	0.28906
1974.85000	0.28689
1972.92144	0.28477
1970.99287	0.28267
1969.06431	0.28059
1967.13574	0.27853
1965.20718	0.27647
1963.27861	0.27450
1961.35005	0.27261
1959.42148	0.27073
1957.49292	0.26892
1955.56436	0.26714
1953.63579	0.26531
1951.70723	0.26344
1949.77866	0.26170
1947.85010	0.26013
1945.92153	0.25873
1943.99297	0.25746
1942.06440	0.25611
1940.13584	0.25454
1938.20728	0.25298
1936.27871	0.25154
1934.35015	0.25015
1932.42158	0.24885
1930.49302	0.24765
1928.56445	0.24656
1926.63589	0.24553
1924.70732	0.24467
1922.77876	0.24387
1920.85020	0.24294
1918.92163	0.24192
1916.99307	0.24082
1915.06450	0.23970
1913.13594	0.23874
1911.20737	0.23803
1909.27881	0.23743
1907.35024	0.23679
1905.42168	0.23607
1903.49312	0.23541
1901.56455	0.23485
1899.63599	0.23433
1897.70742	0.23390
1895.77886	0.23357
1893.85029	0.23319
1891.92173	0.23275
1889.99316	0.23247
1888.06460	0.23220
1886.13604	0.23186
1884.20747	0.23159
1882.27891	0.23144
1880.35034	0.23138
1878.42178	0.23130
1876.49321	0.23122
1874.56465	0.23116
1872.63608	0.23119
1870.70752	0.23158
1868.77896	0.23237
1866.85039	0.23270
1864.92183	0.23238
1862.99326	0.23223
1861.06470	0.23243
1859.13613	0.23282
1857.20757	0.23317
1855.27900	0.23351
1853.35044	0.23383
1851.42187	0.23429
1849.49331	0.23493
1847.56475	0.23571
1845.63618	0.23664
1843.70762	0.23774
1841.77905	0.23850
1839.85049	0.23886
1837.92192	0.23956
1835.99336	0.24050
1834.06479	0.24147
1832.13623	0.24258
1830.20767	0.24414
1828.27910	0.24561
1826.35054	0.24654
1824.42197	0.24763
1822.49341	0.24873
1820.56484	0.24984
1818.63628	0.25113
1816.70771	0.25272
1814.77915	0.25441
1812.85059	0.25624
1810.92202	0.25828
1808.99346	0.26024
1807.06489	0.26212
1805.13633	0.26409
1803.20776	0.26641
1801.27920	0.26903
1799.35063	0.27182
1797.42207	0.27429
1795.49351	0.27672
1793.56494	0.27959
1791.63638	0.28317
1789.70781	0.28647
1787.77925	0.28894
1785.85068	0.29198
1783.92212	0.29567
1781.99355	0.29967
1780.06499	0.30391
1778.13643	0.30821
1776.20786	0.31219
1774.27930	0.31654
1772.35073	0.32248
1770.42217	0.32870
1768.49360	0.33380
1766.56504	0.33874
1764.63647	0.34386
1762.70791	0.34959
1760.77935	0.35698
1758.85078	0.36405
1756.92222	0.37104
1754.99365	0.37845
1753.06509	0.38522
1751.13652	0.39354
1749.20796	0.40409
1747.27939	0.41433
1745.35083	0.42321
1743.42227	0.43260
1741.49370	0.44312
1739.56514	0.45567
1737.63657	0.46818
1735.70801	0.47913
1733.77944	0.49555
1731.85088	0.51497
1729.92231	0.53012
1727.99375	0.54548
1726.06519	0.56215
1724.13662	0.58052
1722.20806	0.60045
1720.27949	0.61893
1718.35093	0.64058
1716.42236	0.67234
1714.49380	0.70244
1712.56523	0.72676
1710.63667	0.75040
1708.70811	0.77596
1706.77954	0.80501
1704.85098	0.83950
1702.92241	0.87017
1700.99385	0.90039
1699.06528	0.94573
1697.13672	0.98787
1695.20815	1.03031
1693.27959	1.07124
1691.35103	1.10448
1689.42246	1.14299
1687.49390	1.18362
1685.56533	1.22286
1683.63677	1.28300
1681.70820	1.34552
1679.77964	1.38573
1677.85107	1.42407
1675.92251	1.46847
1673.99395	1.52318
1672.06538	1.57175
1670.13682	1.61971
1668.20825	1.68183
1666.27969	1.73198
1664.35112	1.77420
1662.42256	1.82753
1660.49399	1.88830
1658.56543	1.93516
1656.63687	1.97233
1654.70830	2.00779
1652.77974	2.06632
1650.85117	2.12165
1648.92261	2.14194
1646.99404	2.16885
1645.06548	2.20029
1643.13691	2.22096
1641.20835	2.23190
1639.27979	2.24092
1637.35122	2.24703
1635.42266	2.24708
1633.49409	2.24017
1631.56553	2.22830
1629.63696	2.21351
1627.70840	2.18867
1625.77983	2.15900
1623.85127	2.12010
1621.92271	2.07137
1619.99414	2.02686
1618.06558	1.98283
1616.13701	1.92179
1614.20845	1.86004
1612.27988	1.81240
1610.35132	1.76230
1608.42275	1.70745
1606.49419	1.65285
1604.56562	1.60228
1602.63706	1.55345
1600.70850	1.50595
1598.77993	1.46226
1596.85137	1.42098
1594.92280	1.38073
1592.99424	1.34208
1591.06567	1.30717
1589.13711	1.27485
1587.20854	1.24456
1585.27998	1.21612
1583.35142	1.18927
1581.42285	1.16471
1579.49429	1.14376
1577.56572	1.12507
1575.63716	1.10250
1573.70859	1.08232
1571.78003	1.06889
1569.85146	1.05489
1567.92290	1.03935
1565.99434	1.02728
1564.06577	1.01737
1562.13721	1.00945
1560.20864	1.00380
1558.28008	0.99607
1556.35151	0.98914
1554.42295	0.98484
1552.49438	0.98062
1550.56582	0.97559
1548.63726	0.96901
1546.70869	0.96174
1544.78013	0.95346
1542.85156	0.94331
1540.92300	0.92930
1538.99443	0.90771
1537.06587	0.89147
1535.13730	0.88078
1533.20874	0.86704
1531.28018	0.85192
1529.35161	0.84071
1527.42305	0.83042
1525.49448	0.81997
1523.56592	0.81103
1521.63735	0.80210
1519.70879	0.79231
1517.78022	0.78391
1515.85166	0.77491
1513.92310	0.76571
1511.99453	0.75781
1510.06597	0.75102
1508.13740	0.74498
1506.20884	0.73512
1504.28027	0.72538
1502.35171	0.71970
1500.42314	0.71495
1498.49458	0.71001
1496.56602	0.70429
1494.63745	0.69847
1492.70889	0.69393
1490.78032	0.69006
1488.85176	0.68559
1486.92319	0.68101
1484.99463	0.67709
1483.06606	0.67391
1481.13750	0.67113
1479.20894	0.66866
1477.28037	0.66687
1475.35181	0.66569
1473.42324	0.66446
1471.49468	0.66208
1469.56611	0.65914
1467.63755	0.65648
1465.70898	0.65411
1463.78042	0.65210
1461.85186	0.65074
1459.92329	0.65021
1457.99473	0.65038
1456.06616	0.64949
1454.13760	0.64675
1452.20903	0.64419
1450.28047	0.64204
1448.35190	0.64006
1446.42334	0.63779
1444.49478	0.63554
1442.56621	0.63367
1440.63765	0.63178
1438.70908	0.62983
1436.78052	0.62763
1434.85195	0.62503
1432.92339	0.62272
1430.99482	0.62102
1429.06626	0.61978
1427.13770	0.61900
1425.20913	0.61878
1423.28057	0.61888
1421.35200	0.61885
1419.42344	0.61870
1417.49487	0.61810
1415.56631	0.61670
1413.63774	0.61529
1411.70918	0.61442
1409.78062	0.61420
1407.85205	0.61437
1405.92349	0.61469
1403.99492	0.61477
1402.06636	0.61419
1400.13779	0.61314
1398.20923	0.61185
1396.28066	0.61023
1394.35210	0.60786
1392.42354	0.60495
1390.49497	0.60226
1388.56641	0.59958
1386.63784	0.59626
1384.70928	0.59268
1382.78071	0.58946
1380.85215	0.58648
1378.92358	0.58388
1376.99502	0.58198
1375.06646	0.58075
1373.13789	0.57967
1371.20933	0.57860
1369.28076	0.57773
1367.35220	0.57680
1365.42363	0.57568
1363.49507	0.57455
1361.56650	0.57343
1359.63794	0.57215
1357.70937	0.57093
1355.78081	0.56980
1353.85225	0.56881
1351.92368	0.56803
1349.99512	0.56735
1348.06655	0.56660
1346.13799	0.56582
1344.20942	0.56515
1342.28086	0.56462
1340.35229	0.56419
1338.42373	0.56358
1336.49517	0.56273
1334.56660	0.56194
1332.63804	0.56139
1330.70947	0.56096
1328.78091	0.56074
1326.85234	0.56085
1324.92378	0.56106
1322.99521	0.56117
1321.06665	0.56128
1319.13809	0.56146
1317.20952	0.56143
1315.28096	0.56099
1313.35239	0.56027
1311.42383	0.55948
1309.49526	0.55883
1307.56670	0.55825
1305.63813	0.55756
1303.70957	0.55679
1301.78101	0.55607
1299.85244	0.55541
1297.92388	0.55474
1295.99531	0.55393
1294.06675	0.55294
1292.13818	0.55191
1290.20962	0.55087
1288.28105	0.54980
1286.35249	0.54877
1284.42393	0.54800
1282.49536	0.54736
1280.56680	0.54656
1278.63823	0.54555
1276.70967	0.54454
1274.78110	0.54365
1272.85254	0.54298
1270.92397	0.54232
1268.99541	0.54152
1267.06685	0.54083
1265.13828	0.54031
1263.20972	0.53973
1261.28115	0.53912
1259.35259	0.53858
1257.42402	0.53813
1255.49546	0.53785
1253.56689	0.53767
1251.63833	0.53751
1249.70977	0.53741
1247.78120	0.53725
1245.85264	0.53697
1243.92407	0.53667
1241.99551	0.53621
1240.06694	0.53538
1238.13838	0.53417
1236.20981	0.53271
1234.28125	0.53124
1232.35269	0.52993
1230.42412	0.52873
1228.49556	0.52752
1226.56699	0.52632
1224.63843	0.52523
1222.70986	0.52429
1220.78130	0.52341
1218.85273	0.52246
1216.92417	0.52143
1214.99561	0.52048
1213.06704	0.51976
1211.13848	0.51919
1209.20991	0.51856
1207.28135	0.51790
1205.35278	0.51727
1203.42422	0.51661
1201.49565	0.51584
1199.56709	0.51500
1197.63853	0.51427
1195.70996	0.51377
1193.78140	0.51349
1191.85283	0.51327
1189.92427	0.51294
1187.99570	0.51246
1186.06714	0.51212
1184.13857	0.51212
1182.21001	0.51242
1180.28145	0.51292
1178.35288	0.51352
1176.42432	0.51423
1174.49575	0.51494
1172.56719	0.51544
1170.63862	0.51570
1168.71006	0.51578
1166.78149	0.51571
1164.85293	0.51551
1162.92437	0.51526
1160.99580	0.51499
1159.06724	0.51455
1157.13867	0.51375
1155.21011	0.51261
1153.28154	0.51126
1151.35298	0.50969
1149.42441	0.50778
1147.49585	0.50556
1145.56729	0.50308
1143.63872	0.50050
1141.71016	0.49820
1139.78159	0.49635
1137.85303	0.49474
1135.92446	0.49320
1133.99590	0.49194
1132.06733	0.49113
1130.13877	0.49046
1128.21021	0.48965
1126.28164	0.48873
1124.35308	0.48778
1122.42451	0.48697
1120.49595	0.48651
1118.56738	0.48619
1116.63882	0.48577
1114.71025	0.48551
1112.78169	0.48561
1110.85312	0.48600
1108.92456	0.48677
1106.99600	0.48790
1105.06743	0.48926
1103.13887	0.49078
1101.21030	0.49224
1099.28174	0.49388
1097.35317	0.49629
1095.42461	0.49933
1093.49604	0.50290
1091.56748	0.50727
1089.63892	0.51223
1087.71035	0.51759
1085.78179	0.52359
1083.85322	0.52991
1081.92466	0.53580
1079.99609	0.54097
1078.06753	0.54461
1076.13896	0.54551
1074.21040	0.54353
1072.28184	0.53940
1070.35327	0.53373
1068.42471	0.52705
1066.49614	0.52028
1064.56758	0.51410
1062.63901	0.50851
1060.71045	0.50339
1058.78188	0.49873
1056.85332	0.49466
1054.92476	0.49131
1052.99619	0.48848
1051.06763	0.48601
1049.13906	0.48390
1047.21050	0.48210
1045.28193	0.48062
1043.35337	0.47946
1041.42480	0.47856
1039.49624	0.47776
1037.56768	0.47712
1035.63911	0.47669
1033.71055	0.47625
1031.78198	0.47586
1029.85342	0.47570
1027.92485	0.47562
1025.99629	0.47560
1024.06772	0.47589
1022.13916	0.47639
1020.21060	0.47688
1018.28203	0.47747
1016.35347	0.47838
1014.42490	0.47949
1012.49634	0.48051
1010.56777	0.48160
1008.63921	0.48297
1006.71064	0.48463
1004.78208	0.48659
1002.85352	0.48889
1000.92495	0.49163
998.99639	0.49470
997.06782	0.49810
995.13926	0.50202
993.21069	0.50611
991.28213	0.50968
989.35356	0.51233
987.42500	0.51400
985.49644	0.51490
983.56787	0.51550
981.63931	0.51636
979.71074	0.51775
977.78218	0.51966
975.85361	0.52196
973.92505	0.52461
971.99648	0.52762
970.06792	0.53084
968.13936	0.53435
966.21079	0.53833
964.28223	0.54273
962.35366	0.54751
960.42510	0.55252
958.49653	0.55776
956.56797	0.56338
954.63940	0.56924
952.71084	0.57509
950.78228	0.58106
948.85371	0.58731
946.92515	0.59362
944.99658	0.59990
943.06802	0.60633
941.13945	0.61278
939.21089	0.61903
937.28232	0.62500
935.35376	0.63035
933.42520	0.63506
931.49663	0.64007
929.56807	0.64591
927.63950	0.65202
925.71094	0.65772
923.78237	0.66325
921.85381	0.66954
919.92524	0.67653
917.99668	0.68315
916.06812	0.68960
914.13955	0.69686
912.21099	0.70457
910.28242	0.71206
908.35386	0.71970
906.42529	0.72809
904.49673	0.73704
902.56816	0.74601
900.63960	0.75490
898.71104	0.76383
896.78247	0.77349
894.85391	0.78404
892.92534	0.79403
890.99678	0.80344
889.06821	0.81370
887.13965	0.82439
885.21108	0.83481
883.28252	0.84578
881.35396	0.85747
879.42539	0.86947
877.49683	0.88184
875.56826	0.89450
873.63970	0.90608
871.71113	0.91564
869.78257	0.92518
867.85400	0.93606
865.92544	0.94693
863.99687	0.95874
862.06831	0.97189
860.13975	0.98295
858.21118	0.99302
856.28262	1.00477
854.35405	1.01607
852.42549	1.02634
850.49692	1.03665
848.56836	1.04673
846.63979	1.05752
844.71123	1.06997
842.78267	1.08406
840.85410	1.09777
838.92554	1.10684
836.99697	1.11263
835.06841	1.12053
833.13984	1.13324
831.21128	1.14856
829.28271	1.16012
827.35415	1.16676
825.42559	1.17523
823.49702	1.18932
821.56846	1.20168
819.63989	1.20670
817.71133	1.20934
815.78276	1.21533
813.85420	1.22515
811.92563	1.23773
809.99707	1.25132
808.06851	1.25714
806.13994	1.25954
804.21138	1.27079
802.28281	1.28560
800.35425	1.30124
798.42568	1.30930
796.49712	1.29585
794.56855	1.26202
792.63999	1.21457
790.71143	1.18258
788.78286	1.17208
786.85430	1.14384
784.92573	1.10423
782.99717	1.07789
781.06860	1.05838
779.14004	1.03819
777.21147	1.01856
775.28291	0.99631
773.35435	0.97610
771.42578	0.95061
769.49722	0.91944
767.56865	0.90228
765.64009	0.89823
763.71152	0.87002
761.78296	0.81152
759.85439	0.75989
757.92583	0.71798
755.99727	0.67973
754.06870	0.65747
752.14014	0.64657
750.21157	0.63404
748.28301	0.61592
746.35444	0.58211
744.42588	0.53565
742.49731	0.49119
740.56875	0.44742
738.64019	0.39639
736.71162	0.33995
734.78306	0.28363
732.85449	0.20946
730.92593	0.10997
728.99736	0.01839
727.06880	-0.04438
725.14023	-0.08799
723.21167	-0.13136
721.28311	-0.20470
719.35454	-0.29124
717.42598	-0.31277
715.49741	-0.30420
713.56885	-0.31411
711.64028	-0.29275
709.71172	-0.23632
707.78315	-0.21106
705.85459	-0.23673
703.92603	-0.26769
701.99746	-0.30032
700.06890	-0.31033
698.14033	-0.29249
696.21177	-0.28715
694.28320	-0.29310
692.35464	-0.28572
690.42607	-0.27379
688.49751	-0.28230
686.56895	-0.30673
684.64038	-0.30330
682.71182	-0.26402
680.78325	-0.23167
678.85469	-0.22808
676.92612	-0.27225
674.99756	-0.33482
673.06899	-0.31818
671.14043	-0.25408
669.21187	-0.22317
667.28330	-0.21621
665.35474	-0.22336
663.42617	-0.25544
661.49761	-0.29655
659.56904	-0.32611
657.64048	-0.31751
655.71191	-0.27042
653.78335	-0.25113
651.85479	-0.27159
649.92622	-0.29146
647.99766	-0.26533
646.06909	-0.22052
644.14053	-0.22284
642.21196	-0.27003
640.28340	-0.29510
638.35483	-0.26694
636.42627	-0.23901
634.49771	-0.23983
632.56914	-0.23741
630.64058	-0.21752
628.71201	-0.19199
626.78345	-0.18386
624.85488	-0.20568
622.92632	-0.23537
620.99775	-0.23501
619.06919	-0.21613
617.14062	-0.20672
615.21206	-0.21130
613.28350	-0.21960
611.35493	-0.22435
609.42637	-0.21557
607.49780	-0.19742
605.56924	-0.20302
603.64067	-0.23362
601.71211	-0.24855
599.78354	-0.24950
597.85498	-0.24888
595.92642	-0.22329
593.99785	-0.20100
592.06929	-0.20823
590.14072	-0.22593
588.21216	-0.24509
586.28359	-0.25283
584.35503	-0.23278
582.42646	-0.19388
580.49790	-0.15790
578.56934	-0.14411
576.64077	-0.16381
574.71221	-0.20158
572.78364	-0.23025
570.85508	-0.22203
568.92651	-0.18127
566.99795	-0.15326
565.06938	-0.15812
563.14082	-0.16802
561.21226	-0.16859
559.28369	-0.18493
557.35513	-0.22652
555.42656	-0.24976
553.49800	-0.21598
551.56943	-0.19134
549.64087	-0.19509
547.71230	-0.19322
545.78374	-0.19669
543.85518	-0.19625
541.92661	-0.18207
539.99805	-0.18118
538.06948	-0.18515
536.14092	-0.17684
534.21235	-0.17948
532.28379	-0.21545
530.35522	-0.24785
528.42666	-0.22819
526.49810	-0.18863
524.56953	-0.16929
522.64097	-0.17769
520.71240	-0.20071
518.78384	-0.20804
516.85527	-0.18962
514.92671	-0.17567
512.99814	-0.16530
511.06958	-0.12943
509.14102	-0.09810
507.21245	-0.11103
505.28389	-0.14316
503.35532	-0.15480
501.42676	-0.15670
499.49819	-0.17079
