3997.91411	0.06332
3995.98555	0.06357
3994.05698	0.06388
3992.12842	0.06426
3990.19985	0.06479
3988.27129	0.06502
3986.34272	0.06504
3984.41416	0.06548
3982.48560	0.06616
3980.55703	0.06630
3978.62847	0.06573
3976.69990	0.06540
3974.77134	0.06570
3972.84277	0.06590
3970.91421	0.06616
3968.98564	0.06691
3967.05708	0.06758
3965.12852	0.06779
3963.19995	0.06779
3961.27139	0.06757
3959.34282	0.06722
3957.41426	0.06717
3955.48569	0.06730
3953.55713	0.06719
3951.62856	0.06728
3949.70000	0.06780
3947.77144	0.06811
3945.84287	0.06801
3943.91431	0.06800
3941.98574	0.06838
3940.05718	0.06872
3938.12861	0.06839
3936.20005	0.06786
3934.27148	0.06780
3932.34292	0.06796
3930.41436	0.06793
3928.48579	0.06767
3926.55723	0.06721
3924.62866	0.06696
3922.70010	0.06722
3920.77153	0.06758
3918.84297	0.06769
3916.91440	0.06777
3914.98584	0.06771
3913.05728	0.06729
3911.12871	0.06702
3909.20015	0.06707
3907.27158	0.06707
3905.34302	0.06721
3903.41445	0.06753
3901.48589	0.06730
3899.55732	0.06699
3897.62876	0.06706
3895.70020	0.06702
3893.77163	0.06712
3891.84307	0.06746
3889.91450	0.06740
3887.98594	0.06686
3886.05737	0.06650
3884.12881	0.06661
3882.20024	0.06701
3880.27168	0.06742
3878.34312	0.06767
3876.41455	0.06775
3874.48599	0.06781
3872.55742	0.06791
3870.62886	0.06796
3868.70029	0.06843
3866.77173	0.06913
3864.84316	0.06965
3862.91460	0.07020
3860.98604	0.07068
3859.05747	0.07097
3857.12891	0.07121
3855.20034	0.07140
3853.27178	0.07209
3851.34321	0.07360
3849.41465	0.07383
3847.48608	0.07335
3845.55752	0.07330
3843.62896	0.07349
3841.70039	0.07339
3839.77183	0.07346
3837.84326	0.07454
3835.91470	0.07608
3833.98613	0.07728
3832.05757	0.07813
3830.12900	0.07864
3828.20044	0.07913
3826.27187	0.07990
3824.34331	0.08051
3822.41475	0.08068
3820.48618	0.08134
3818.55762	0.08273
3816.62905	0.08372
3814.70049	0.08463
3812.77192	0.08568
3810.84336	0.08657
3808.91479	0.08731
3806.98623	0.08828
3805.05767	0.08985
3803.12910	0.09126
3801.20054	0.09211
3799.27197	0.09276
3797.34341	0.09357
3795.41484	0.09484
3793.48628	0.09639
3791.55771	0.09800
3789.62915	0.09976
3787.70059	0.10127
3785.77202	0.10238
3783.84346	0.10343
3781.91489	0.10447
3779.98633	0.10573
3778.05776	0.10773
3776.12920	0.10987
3774.20063	0.11173
3772.27207	0.11340
3770.34351	0.11497
3768.41494	0.11685
3766.48638	0.11883
3764.55781	0.12087
3762.62925	0.12282
3760.70068	0.12440
3758.77212	0.12621
3756.84355	0.12851
3754.91499	0.13082
3752.98643	0.13302
3751.05786	0.13576
3749.12930	0.13909
3747.20073	0.14119
3745.27217	0.14323
3743.34360	0.14787
3741.41504	0.15288
3739.48647	0.15588
3737.55791	0.15836
3735.62935	0.16198
3733.70078	0.16792
3731.77222	0.17437
3729.84365	0.17974
3727.91509	0.18431
3725.98652	0.18936
3724.05796	0.19559
3722.12939	0.20238
3720.20083	0.20964
3718.27227	0.21721
3716.34370	0.22454
3714.41514	0.23159
3712.48657	0.24022
3710.55801	0.25311
3708.62944	0.26794
3706.70088	0.28033
3704.77231	0.29166
3702.84375	0.30478
3700.91519	0.32180
3698.98662	0.34044
3697.05806	0.35815
3695.12949	0.37673
3693.20093	0.39636
3691.27236	0.41756
3689.34380	0.44479
3687.41523	0.47921
3685.48667	0.51079
3683.55811	0.53789
3681.62954	0.56615
3679.70098	0.59758
3677.77241	0.63016
3675.84385	0.66835
3673.91528	0.72122
3671.98672	0.76583
3670.05815	0.80493
3668.12959	0.85840
3666.20103	0.90811
3664.27246	0.94978
3662.34390	0.99412
3660.41533	1.04174
3658.48677	1.08837
3656.55820	1.13767
3654.62964	1.19284
3652.70107	1.23936
3650.77251	1.27922
3648.84395	1.33416
3646.91538	1.40325
3644.98682	1.45562
3643.05825	1.49624
3641.12969	1.53701
3639.20112	1.58132
3637.27256	1.62617
3635.34399	1.66995
3633.41543	1.71359
3631.48687	1.75413
3629.55830	1.79435
3627.62974	1.84736
3625.70117	1.89940
3623.77261	1.93623
3621.84404	1.97026
3619.91548	2.00730
3617.98691	2.05182
3616.05835	2.09533
3614.12979	2.13234
3612.20122	2.17186
3610.27266	2.21181
3608.34409	2.25260
3606.41553	2.29706
3604.48696	2.33839
3602.55840	2.37415
3600.62983	2.41145
3598.70127	2.45162
3596.77271	2.49111
3594.84414	2.53181
3592.91558	2.57422
3590.98701	2.61329
3589.05845	2.64869
3587.12988	2.69152
3585.20132	2.74036
3583.27275	2.78331
3581.34419	2.82400
3579.41562	2.86577
3577.48706	2.90689
3575.55850	2.94803
3573.62993	2.99141
3571.70137	3.03346
3569.77280	3.07221
3567.84424	3.11258
3565.91567	3.16270
3563.98711	3.21392
3562.05854	3.25860
3560.12998	3.30277
3558.20142	3.34813
3556.27285	3.39424
3554.34429	3.43868
3552.41572	3.48240
3550.48716	3.52714
3548.55859	3.57255
3546.63003	3.61913
3544.70146	3.66785
3542.77290	3.71611
3540.84434	3.76252
3538.91577	3.80815
3536.98721	3.85378
3535.05864	3.90141
3533.13008	3.94960
3531.20151	3.99846
3529.27295	4.04822
3527.34438	4.09861
3525.41582	4.14700
3523.48726	4.19357
3521.55869	4.24233
3519.63013	4.28878
3517.70156	4.33100
3515.77300	4.37306
3513.84443	4.41932
3511.91587	4.46838
3509.98730	4.51807
3508.05874	4.57070
3506.13018	4.62370
3504.20161	4.67260
3502.27305	4.72047
3500.34448	4.77157
3498.41592	4.82122
3496.48735	4.86665
3494.55879	4.91012
3492.63022	4.95175
3490.70166	4.99385
3488.77310	5.04382
3486.84453	5.10149
3484.91597	5.15485
3482.98740	5.19812
3481.05884	5.23980
3479.13027	5.29038
3477.20171	5.34717
3475.27314	5.39996
3473.34458	5.44569
3471.41602	5.48299
3469.48745	5.51753
3467.55889	5.56639
3465.63032	5.63070
3463.70176	5.69388
3461.77319	5.74584
3459.84463	5.78758
3457.91606	5.82603
3455.98750	5.87055
3454.05894	5.91657
3452.13037	5.96498
3450.20181	6.01531
3448.27324	6.04949
3446.34468	6.09133
3444.41611	6.16218
3442.48755	6.22967
3440.55898	6.27315
3438.63042	6.30438
3436.70186	6.34050
3434.77329	6.39224
3432.84473	6.45348
3430.91616	6.51285
3428.98760	6.57568
3427.05903	6.63723
3425.13047	6.68703
3423.20190	6.73454
3421.27334	6.79790
3419.34478	6.85457
3417.41621	6.87858
3415.48765	6.89176
3413.55908	6.92251
3411.63052	6.96910
3409.70195	7.00159
3407.77339	7.03322
3405.84482	7.09317
3403.91626	7.17316
3401.98770	7.22825
3400.05913	7.25840
3398.13057	7.28118
3396.20200	7.29537
3394.27344	7.33510
3392.34487	7.38027
3390.41631	7.42131
3388.48774	7.46724
3386.55918	7.49967
3384.63062	7.52158
3382.70205	7.55773
3380.77349	7.60150
3378.84492	7.61540
3376.91636	7.61994
3374.98779	7.62798
3373.05923	7.62103
3371.13066	7.60946
3369.20210	7.64249
3367.27354	7.71583
3365.34497	7.79970
3363.41641	7.86925
3361.48784	7.88318
3359.55928	7.88096
3357.63071	7.88783
3355.70215	7.88244
3353.77358	7.89083
3351.84502	7.94042
3349.91646	7.95240
3347.98789	7.93443
3346.05933	7.96959
3344.13076	8.00327
3342.20220	7.99393
3340.27363	8.00614
3338.34507	8.07429
3336.41650	8.10742
3334.48794	8.09697
3332.55937	8.06478
3330.63081	7.95906
3328.70225	7.86979
3326.77368	7.89283
3324.84512	8.01179
3322.91655	8.15052
3320.98799	8.19417
3319.05942	8.12255
3317.13086	8.02136
3315.20229	7.93750
3313.27373	7.93562
3311.34517	8.00902
3309.41660	8.07523
3307.48804	8.10841
3305.55947	8.11722
3303.63091	8.14707
3301.70234	8.18803
3299.77378	8.20425
3297.84521	8.21282
3295.91665	8.18901
3293.98809	8.12175
3292.05952	8.11775
3290.13096	8.17270
3288.20239	8.17068
3286.27383	8.16730
3284.34526	8.24867
3282.41670	8.36881
3280.48813	8.37474
3278.55957	8.25468
3276.63101	8.19696
3274.70244	8.26358
3272.77388	8.33755
3270.84531	8.33367
3268.91675	8.29464
3266.98818	8.25956
3265.05962	8.21955
3263.13105	8.16083
3261.20249	8.12310
3259.27393	8.15339
3257.34536	8.25729
3255.41680	8.33559
3253.48823	8.29546
3251.55967	8.22425
3249.63110	8.18921
3247.70254	8.17366
3245.77397	8.16438
3243.84541	8.17192
3241.91685	8.21776
3239.98828	8.26047
3238.05972	8.17966
3236.13115	8.02642
3234.20259	7.99083
3232.27402	8.11963
3230.34546	8.28240
3228.41689	8.28464
3226.48833	8.16841
3224.55977	8.12072
3222.63120	8.10987
3220.70264	8.02959
3218.77407	7.95837
3216.84551	7.92304
3214.91694	7.86828
3212.98838	7.82603
3211.05981	7.81230
3209.13125	7.82413
3207.20269	7.86599
3205.27412	7.88634
3203.34556	7.83499
3201.41699	7.74553
3199.48843	7.66853
3197.55986	7.59117
3195.63130	7.53598
3193.70273	7.54887
3191.77417	7.55144
3189.84561	7.48367
3187.91704	7.42317
3185.98848	7.39481
3184.05991	7.34844
3182.13135	7.28658
3180.20278	7.23433
3178.27422	7.16587
3176.34565	7.07701
3174.41709	7.00687
3172.48853	6.96898
3170.55996	6.94161
3168.63140	6.91331
3166.70283	6.88085
3164.77427	6.82742
3162.84570	6.74387
3160.91714	6.64456
3158.98857	6.57432
3157.06001	6.53336
3155.13145	6.46959
3153.20288	6.38527
3151.27432	6.31381
3149.34575	6.24269
3147.41719	6.15391
3145.48862	6.07385
3143.56006	6.01946
3141.63149	5.96746
3139.70293	5.90192
3137.77437	5.82705
3135.84580	5.74439
3133.91724	5.66438
3131.98867	5.60402
3130.06011	5.55621
3128.13154	5.49442
3126.20298	5.41271
3124.27441	5.33005
3122.34585	5.25783
3120.41729	5.19260
3118.48872	5.12701
3116.56016	5.05807
3114.63159	4.98532
3112.70303	4.91083
3110.77446	4.84128
3108.84590	4.77800
3106.91733	4.71612
3104.98877	4.65359
3103.06021	4.59210
3101.13164	4.52806
3099.20308	4.45943
3097.27451	4.39229
3095.34595	4.32865
3093.41738	4.26655
3091.48882	4.20454
3089.56025	4.14179
3087.63169	4.08100
3085.70312	4.02179
3083.77456	3.95976
3081.84600	3.89659
3079.91743	3.83582
3077.98887	3.77721
3076.06030	3.71879
3074.13174	3.65911
3072.20317	3.60075
3070.27461	3.54615
3068.34604	3.49321
3066.41748	3.43952
3064.48892	3.38632
3062.56035	3.33399
3060.63179	3.28090
3058.70322	3.22818
3056.77466	3.17587
3054.84609	3.12236
3052.91753	3.06955
3050.98896	3.01925
3049.06040	2.97050
3047.13184	2.92233
3045.20327	2.87437
3043.27471	2.82643
3041.34614	2.77905
3039.41758	2.73242
3037.48901	2.68598
3035.56045	2.64043
3033.63188	2.59640
3031.70332	2.55278
3029.77476	2.50948
3027.84619	2.46747
3025.91763	2.42592
3023.98906	2.38350
3022.06050	2.34091
3020.13193	2.29926
3018.20337	2.25903
3016.27480	2.22034
3014.34624	2.18214
3012.41768	2.14361
3010.48911	2.10571
3008.56055	2.06910
3006.63198	2.03348
3004.70342	1.99871
3002.77485	1.96438
3000.84629	1.93055
2998.91772	1.89771
2996.98916	1.86583
2995.06060	1.83466
2993.13203	1.80405
2991.20347	1.77425
2989.27490	1.74521
2987.34634	1.71650
2985.41777	1.68824
2983.48921	1.66074
2981.56064	1.63415
2979.63208	1.60847
2977.70352	1.58345
2975.77495	1.55885
2973.84639	1.53431
2971.91782	1.50984
2969.98926	1.48609
2968.06069	1.46315
2966.13213	1.44056
2964.20356	1.41812
2962.27500	1.39543
2960.34644	1.37201
2958.41787	1.34846
2956.48931	1.32548
2954.56074	1.30260
2952.63218	1.27947
2950.70361	1.25662
2948.77505	1.23450
2946.84648	1.21264
2944.91792	1.19085
2942.98936	1.17001
2941.06079	1.15037
2939.13223	1.13114
2937.20366	1.11166
2935.27510	1.09168
2933.34653	1.07164
2931.41797	1.05217
2929.48940	1.03345
2927.56084	1.01519
2925.63228	0.99697
2923.70371	0.97901
2921.77515	0.96163
2919.84658	0.94452
2917.91802	0.92732
2915.98945	0.91028
2914.06089	0.89390
2912.13232	0.87795
2910.20376	0.86184
2908.27520	0.84578
2906.34663	0.83034
2904.41807	0.81605
2902.48950	0.80276
2900.56094	0.78948
2898.63237	0.77597
2896.70381	0.76279
2894.77524	0.74989
2892.84668	0.73719
2890.91812	0.72521
2888.98955	0.71413
2887.06099	0.70334
2885.13242	0.69271
2883.20386	0.68262
2881.27529	0.67302
2879.34673	0.66365
2877.41816	0.65444
2875.48960	0.64516
2873.56104	0.63537
2871.63247	0.62504
2869.70391	0.61426
2867.77534	0.60290
2865.84678	0.59109
2863.91821	0.57923
2861.98965	0.56759
2860.06108	0.55649
2858.13252	0.54612
2856.20396	0.53634
2854.27539	0.52723
2852.34683	0.51853
2850.41826	0.50980
2848.48970	0.50119
2846.56113	0.49290
2844.63257	0.48497
2842.70400	0.47768
2840.77544	0.47102
2838.84687	0.46473
2836.91831	0.45865
2834.98975	0.45263
2833.06118	0.44651
2831.13262	0.44049
2829.20405	0.43475
2827.27549	0.42890
2825.34692	0.42268
2823.41836	0.41638
2821.48979	0.41035
2819.56123	0.40462
2817.63267	0.39894
2815.70410	0.39325
2813.77554	0.38757
2811.84697	0.38188
2809.91841	0.37629
2807.98984	0.37086
2806.06128	0.36550
2804.13271	0.36033
2802.20415	0.35544
2800.27559	0.35066
2798.34702	0.34576
2796.41846	0.34080
2794.48989	0.33593
2792.56133	0.33112
2790.63276	0.32650
2788.70420	0.32219
2786.77563	0.31810
2784.84707	0.31402
2782.91851	0.30962
2780.98994	0.30504
2779.06138	0.30078
2777.13281	0.29689
2775.20425	0.29315
2773.27568	0.28942
2771.34712	0.28560
2769.41855	0.28177
2767.48999	0.27809
2765.56143	0.27463
2763.63286	0.27127
2761.70430	0.26785
2759.77573	0.26443
2757.84717	0.26106
2755.91860	0.25776
2753.99004	0.25464
2752.06147	0.25171
2750.13291	0.24878
2748.20435	0.24586
2746.27578	0.24301
2744.34722	0.24015
2742.41865	0.23730
2740.49009	0.23447
2738.56152	0.23161
2736.63296	0.22899
2734.70439	0.22671
2732.77583	0.22438
2730.84727	0.22200
2728.91870	0.21987
2726.99014	0.21781
2725.06157	0.21541
2723.13301	0.21292
2721.20444	0.21073
2719.27588	0.20874
2717.34731	0.20678
2715.41875	0.20486
2713.49019	0.20296
2711.56162	0.20109
2709.63306	0.19935
2707.70449	0.19763
2705.77593	0.19589
2703.84736	0.19417
2701.91880	0.19247
2699.99023	0.19079
2698.06167	0.18927
2696.13311	0.18803
2694.20454	0.18687
2692.27598	0.18550
2690.34741	0.18400
2688.41885	0.18262
2686.49028	0.18133
2684.56172	0.18000
2682.63315	0.17862
2680.70459	0.17731
2678.77603	0.17621
2676.84746	0.17523
2674.91890	0.17413
2672.99033	0.17297
2671.06177	0.17191
2669.13320	0.17094
2667.20464	0.16990
2665.27607	0.16879
2663.34751	0.16787
2661.41895	0.16707
2659.49038	0.16616
2657.56182	0.16519
2655.63325	0.16433
2653.70469	0.16351
2651.77612	0.16272
2649.84756	0.16209
2647.91899	0.16139
2645.99043	0.16061
2644.06187	0.15995
2642.13330	0.15941
2640.20474	0.15899
2638.27617	0.15859
2636.34761	0.15803
2634.41904	0.15740
2632.49048	0.15680
2630.56191	0.15634
2628.63335	0.15603
2626.70479	0.15566
2624.77622	0.15516
2622.84766	0.15472
2620.91909	0.15440
2618.99053	0.15413
2617.06196	0.15382
2615.13340	0.15346
2613.20483	0.15317
2611.27627	0.15301
2609.34771	0.15290
2607.41914	0.15271
2605.49058	0.15252
2603.56201	0.15234
2601.63345	0.15213
2599.70488	0.15204
2597.77632	0.15219
2595.84775	0.15237
2593.91919	0.15245
2591.99062	0.15254
2590.06206	0.15258
2588.13350	0.15246
2586.20493	0.15240
2584.27637	0.15258
2582.34780	0.15279
2580.41924	0.15287
2578.49067	0.15296
2576.56211	0.15311
2574.63354	0.15339
2572.70498	0.15378
2570.77642	0.15402
2568.84785	0.15419
2566.91929	0.15454
2564.99072	0.15505
2563.06216	0.15557
2561.13359	0.15596
2559.20503	0.15619
2557.27646	0.15641
2555.34790	0.15674
2553.41934	0.15717
2551.49077	0.15772
2549.56221	0.15819
2547.63364	0.15855
2545.70508	0.15903
2543.77651	0.15958
2541.84795	0.16007
2539.91938	0.16064
2537.99082	0.16133
2536.06226	0.16205
2534.13369	0.16272
2532.20513	0.16335
2530.27656	0.16394
2528.34800	0.16445
2526.41943	0.16490
2524.49087	0.16554
2522.56230	0.16639
2520.63374	0.16718
2518.70518	0.16777
2516.77661	0.16827
2514.84805	0.16892
2512.91948	0.16980
2510.99092	0.17066
2509.06235	0.17137
2507.13379	0.17207
2505.20522	0.17278
2503.27666	0.17342
2501.34810	0.17413
2499.41953	0.17500
2497.49097	0.17586
2495.56240	0.17660
2493.63384	0.17729
2491.70527	0.17805
2489.77671	0.17889
2487.84814	0.17973
2485.91958	0.18056
2483.99102	0.18140
2482.06245	0.18224
2480.13389	0.18306
2478.20532	0.18383
2476.27676	0.18456
2474.34819	0.18532
2472.41963	0.18618
2470.49106	0.18709
2468.56250	0.18795
2466.63394	0.18871
2464.70537	0.18943
2462.77681	0.19026
2460.84824	0.19126
2458.91968	0.19230
2456.99111	0.19324
2455.06255	0.19410
2453.13398	0.19503
2451.20542	0.19602
2449.27686	0.19690
2447.34829	0.19765
2445.41973	0.19842
2443.49116	0.19937
2441.56260	0.20045
2439.63403	0.20154
2437.70547	0.20259
2435.77690	0.20354
2433.84834	0.20438
2431.91978	0.20519
2429.99121	0.20614
2428.06265	0.20721
2426.13408	0.20818
2424.20552	0.20913
2422.27695	0.21026
2420.34839	0.21140
2418.41982	0.21240
2416.49126	0.21337
2414.56270	0.21450
2412.63413	0.21568
2410.70557	0.21680
2408.77700	0.21790
2406.84844	0.21899
2404.91987	0.22007
2402.99131	0.22116
2401.06274	0.22231
2399.13418	0.22357
2397.20562	0.22480
2395.27705	0.22585
2393.34849	0.22691
2391.41992	0.22820
2389.49136	0.22959
2387.56279	0.23102
2385.63423	0.23255
2383.70566	0.23427
2381.77710	0.23619
2379.84854	0.23833
2377.91997	0.24070
2375.99141	0.24315
2374.06284	0.24558
2372.13428	0.24823
2370.20571	0.25115
2368.27715	0.25357
2366.34858	0.25506
2364.42002	0.25654
2362.49146	0.25940
2360.56289	0.26277
2358.63433	0.26486
2356.70576	0.26598
2354.77720	0.26654
2352.84863	0.26673
2350.92007	0.26662
2348.99150	0.26672
2347.06294	0.26775
2345.13437	0.26998
2343.20581	0.27280
2341.27725	0.27506
2339.34868	0.27652
2337.42012	0.27749
2335.49155	0.27848
2333.56299	0.27981
2331.63442	0.28139
2329.70586	0.28294
2327.77729	0.28420
2325.84873	0.28515
2323.92017	0.28624
2321.99160	0.28780
2320.06304	0.28930
2318.13447	0.29032
2316.20591	0.29114
2314.27734	0.29223
2312.34878	0.29368
2310.42021	0.29528
2308.49165	0.29681
2306.56309	0.29821
2304.63452	0.29952
2302.70596	0.30083
2300.77739	0.30216
2298.84883	0.30362
2296.92026	0.30530
2294.99170	0.30695
2293.06313	0.30846
2291.13457	0.30999
2289.20601	0.31160
2287.27744	0.31325
2285.34888	0.31492
2283.42031	0.31661
2281.49175	0.31844
2279.56318	0.32049
2277.63462	0.32266
2275.70605	0.32478
2273.77749	0.32683
2271.84893	0.32900
2269.92036	0.33116
2267.99180	0.33312
2266.06323	0.33503
2264.13467	0.33710
2262.20610	0.33927
2260.27754	0.34139
2258.34897	0.34345
2256.42041	0.34537
2254.49185	0.34720
2252.56328	0.34926
2250.63472	0.35155
2248.70615	0.35372
2246.77759	0.35576
2244.84902	0.35787
2242.92046	0.36002
2240.99189	0.36216
2239.06333	0.36430
2237.13477	0.36642
2235.20620	0.36861
2233.27764	0.37089
2231.34907	0.37321
2229.42051	0.37552
2227.49194	0.37782
2225.56338	0.37995
2223.63481	0.38189
2221.70625	0.38389
2219.77769	0.38611
2217.84912	0.38836
2215.92056	0.39051
2213.99199	0.39266
2212.06343	0.39482
2210.13486	0.39693
2208.20630	0.39899
2206.27773	0.40102
2204.34917	0.40305
2202.42061	0.40510
2200.49204	0.40714
2198.56348	0.40915
2196.63491	0.41111
2194.70635	0.41299
2192.77778	0.41482
2190.84922	0.41670
2188.92065	0.41861
2186.99209	0.42038
2185.06353	0.42204
2183.13496	0.42374
2181.20640	0.42547
2179.27783	0.42716
2177.34927	0.42873
2175.42070	0.43017
2173.49214	0.43165
2171.56357	0.43316
2169.63501	0.43465
2167.70645	0.43607
2165.77788	0.43742
2163.84932	0.43872
2161.92075	0.43988
2159.99219	0.44094
2158.06362	0.44204
2156.13506	0.44314
2154.20649	0.44412
2152.27793	0.44492
2150.34937	0.44553
2148.42080	0.44612
2146.49224	0.44675
2144.56367	0.44737
2142.63511	0.44794
2140.70654	0.44839
2138.77798	0.44860
2136.84941	0.44870
2134.92085	0.44887
2132.99229	0.44894
2131.06372	0.44889
2129.13516	0.44884
2127.20659	0.44867
2125.27803	0.44832
2123.34946	0.44786
2121.42090	0.44748
2119.49233	0.44713
2117.56377	0.44659
2115.63521	0.44583
2113.70664	0.44501
2111.77808	0.44428
2109.84951	0.44352
2107.92095	0.44257
2105.99238	0.44147
2104.06382	0.44040
2102.13525	0.43933
2100.20669	0.43818
2098.27812	0.43695
2096.34956	0.43562
2094.42100	0.43411
2092.49243	0.43249
2090.56387	0.43084
2088.63530	0.42917
2086.70674	0.42747
2084.77817	0.42567
2082.84961	0.42386
2080.92104	0.42213
2078.99248	0.42034
2077.06392	0.41836
2075.13535	0.41625
2073.20679	0.41415
2071.27822	0.41205
2069.34966	0.40980
2067.42109	0.40747
2065.49253	0.40520
2063.56396	0.40293
2061.63540	0.40065
2059.70684	0.39828
2057.77827	0.39581
2055.84971	0.39336
2053.92114	0.39098
2051.99258	0.38859
2050.06401	0.38607
2048.13545	0.38343
2046.20688	0.38085
2044.27832	0.37837
2042.34976	0.37580
2040.42119	0.37305
2038.49263	0.37025
2036.56406	0.36755
2034.63550	0.36487
2032.70693	0.36216
2030.77837	0.35950
2028.84980	0.35679
2026.92124	0.35402
2024.99268	0.35134
2023.06411	0.34870
2021.13555	0.34595
2019.20698	0.34311
2017.27842	0.34036
2015.34985	0.33770
2013.42129	0.33509
2011.49272	0.33246
2009.56416	0.32981
2007.63560	0.32712
2005.70703	0.32440
2003.77847	0.32175
2001.84990	0.31921
1999.92134	0.31663
1997.99277	0.31393
1996.06421	0.31135
1994.13564	0.30900
1992.20708	0.30666
1990.27852	0.30417
1988.34995	0.30163
1986.42139	0.29911
1984.49282	0.29665
1982.56426	0.29432
1980.63569	0.29205
1978.70713	0.28981
1976.77856	0.28761
1974.85000	0.28540
1972.92144	0.28310
1970.99287	0.28095
1969.06431	0.27908
1967.13574	0.27713
1965.20718	0.27497
1963.27861	0.27290
1961.35005	0.27103
1959.42148	0.26918
1957.49292	0.26733
1955.56436	0.26554
1953.63579	0.26390
1951.70723	0.26228
1949.77866	0.26060
1947.85010	0.25888
1945.92153	0.25723
1943.99297	0.25572
1942.06440	0.25427
1940.13584	0.25280
1938.20728	0.25135
1936.27871	0.24995
1934.35015	0.24859
1932.42158	0.24731
1930.49302	0.24610
1928.56445	0.24494
1926.63589	0.24382
1924.70732	0.24279
1922.77876	0.24182
1920.85020	0.24085
1918.92163	0.23997
1916.99307	0.23918
1915.06450	0.23833
1913.13594	0.23739
1911.20737	0.23655
1909.27881	0.23585
1907.35024	0.23518
1905.42168	0.23450
1903.49312	0.23392
1901.56455	0.23342
1899.63599	0.23291
1897.70742	0.23243
1895.77886	0.23201
1893.85029	0.23166
1891.92173	0.23128
1889.99316	0.23096
1888.06460	0.23070
1886.13604	0.23051
1884.20747	0.23031
1882.27891	0.23008
1880.35034	0.22986
1878.42178	0.22963
1876.49321	0.22957
1874.56465	0.22967
1872.63608	0.22975
1870.70752	0.22972
1868.77896	0.22984
1866.85039	0.23011
1864.92183	0.23038
1862.99326	0.23067
1861.06470	0.23095
1859.13613	0.23120
1857.20757	0.23145
1855.27900	0.23184
1853.35044	0.23227
1851.42187	0.23272
1849.49331	0.23319
1847.56475	0.23370
1845.63618	0.23441
1843.70762	0.23548
1841.77905	0.23645
1839.85049	0.23696
1837.92192	0.23765
1835.99336	0.23857
1834.06479	0.23948
1832.13623	0.24026
1830.20767	0.24134
1828.27910	0.24274
1826.35054	0.24401
1824.42197	0.24544
1822.49341	0.24689
1820.56484	0.24823
1818.63628	0.24956
1816.70771	0.25109
1814.77915	0.25262
1812.85059	0.25419
1810.92202	0.25606
1808.99346	0.25810
1807.06489	0.26012
1805.13633	0.26208
1803.20776	0.26418
1801.27920	0.26647
1799.35063	0.26918
1797.42207	0.27173
1795.49351	0.27405
1793.56494	0.27667
1791.63638	0.28017
1789.70781	0.28375
1787.77925	0.28656
1785.85068	0.28970
1783.92212	0.29328
1781.99355	0.29703
1780.06499	0.30103
1778.13643	0.30528
1776.20786	0.30927
1774.27930	0.31337
1772.35073	0.31878
1770.42217	0.32486
1768.49360	0.33029
1766.56504	0.33559
1764.63647	0.34089
1762.70791	0.34645
1760.77935	0.35354
1758.85078	0.36043
1756.92222	0.36740
1754.99365	0.37518
1753.06509	0.38225
1751.13652	0.39017
1749.20796	0.40012
1747.27939	0.41045
1745.35083	0.41971
1743.42227	0.42930
1741.49370	0.43965
1739.56514	0.45175
1737.63657	0.46399
1735.70801	0.47464
1733.77944	0.49058
1731.85088	0.51008
1729.92231	0.52571
1727.99375	0.54142
1726.06519	0.55813
1724.13662	0.57616
1722.20806	0.59562
1720.27949	0.61360
1718.35093	0.63441
1716.42236	0.66545
1714.49380	0.69605
1712.56523	0.72132
1710.63667	0.74544
1708.70811	0.77092
1706.77954	0.79972
1704.85098	0.83456
1702.92241	0.86609
1700.99385	0.89735
1699.06528	0.94419
1697.13672	0.98803
1695.20815	1.03367
1693.27959	1.07867
1691.35103	1.11519
1689.42246	1.15722
1687.49390	1.20175
1685.56533	1.24478
1683.63677	1.31149
1681.70820	1.38213
1679.77964	1.42802
1677.85107	1.47123
1675.92251	1.52024
1673.99395	1.58098
1672.06538	1.63605
1670.13682	1.69094
1668.20825	1.76285
1666.27969	1.82192
1664.35112	1.87247
1662.42256	1.93769
1660.49399	2.01333
1658.56543	2.07245
1656.63687	2.11968
1654.70830	2.16312
1652.77974	2.22636
1650.85117	2.28100
1648.92261	2.29842
1646.99404	2.32207
1645.06548	2.34926
1643.13691	2.36836
1641.20835	2.37847
1639.27979	2.38599
1637.35122	2.38814
1635.42266	2.38375
1633.49409	2.37501
1631.56553	2.36028
1629.63696	2.34118
1627.70840	2.31013
1625.77983	2.27347
1623.85127	2.22725
1621.92271	2.17177
1619.99414	2.12268
1618.06558	2.07495
1616.13701	2.00758
1614.20845	1.93869
1612.27988	1.88601
1610.35132	1.83152
1608.42275	1.77278
1606.49419	1.71511
1604.56562	1.66231
1602.63706	1.61169
1600.70850	1.56234
1598.77993	1.51676
1596.85137	1.47412
1594.92280	1.43310
1592.99424	1.39374
1591.06567	1.35797
1589.13711	1.32492
1587.20854	1.29474
1585.27998	1.26723
1583.35142	1.24153
1581.42285	1.21841
1579.49429	1.19918
1577.56572	1.18230
1575.63716	1.16300
1573.70859	1.14692
1571.78003	1.13652
1569.85146	1.12642
1567.92290	1.11666
1565.99434	1.11061
1564.06577	1.10729
1562.13721	1.10549
1560.20864	1.10605
1558.28008	1.11322
1556.35151	1.12205
1554.42295	1.12708
1552.49438	1.13161
1550.56582	1.13436
1548.63726	1.13428
1546.70869	1.13041
1544.78013	1.12179
1542.85156	1.10847
1540.92300	1.08822
1538.99443	1.05756
1537.06587	1.03481
1535.13730	1.01830
1533.20874	0.99595
1531.28018	0.97226
1529.35161	0.95489
1527.42305	0.93833
1525.49448	0.92128
1523.56592	0.90707
1521.63735	0.89397
1519.70879	0.88085
1517.78022	0.86933
1515.85166	0.85613
1513.92310	0.84267
1511.99453	0.83071
1510.06597	0.81946
1508.13740	0.80808
1506.20884	0.79098
1504.28027	0.77705
1502.35171	0.76931
1500.42314	0.76220
1498.49458	0.75454
1496.56602	0.74594
1494.63745	0.73761
1492.70889	0.73097
1490.78032	0.72479
1488.85176	0.71808
1486.92319	0.71246
1484.99463	0.70823
1483.06606	0.70496
1481.13750	0.70239
1479.20894	0.70068
1477.28037	0.70013
1475.35181	0.70045
1473.42324	0.70111
1471.49468	0.70130
1469.56611	0.70036
1467.63755	0.69852
1465.70898	0.69648
1463.78042	0.69509
1461.85186	0.69459
1459.92329	0.69448
1457.99473	0.69480
1456.06616	0.69520
1454.13760	0.69385
1452.20903	0.69138
1450.28047	0.68853
1448.35190	0.68563
1446.42334	0.68282
1444.49478	0.68031
1442.56621	0.67778
1440.63765	0.67484
1438.70908	0.67154
1436.78052	0.66740
1434.85195	0.66298
1432.92339	0.65978
1430.99482	0.65761
1429.06626	0.65643
1427.13770	0.65621
1425.20913	0.65659
1423.28057	0.65736
1421.35200	0.65806
1419.42344	0.65867
1417.49487	0.65920
1415.56631	0.65902
1413.63774	0.65864
1411.70918	0.65883
1409.78062	0.65992
1407.85205	0.66170
1405.92349	0.66392
1403.99492	0.66615
1402.06636	0.66721
1400.13779	0.66688
1398.20923	0.66547
1396.28066	0.66290
1394.35210	0.65897
1392.42354	0.65436
1390.49497	0.64989
1388.56641	0.64518
1386.63784	0.63964
1384.70928	0.63381
1382.78071	0.62827
1380.85215	0.62301
1378.92358	0.61846
1376.99502	0.61501
1375.06646	0.61262
1373.13789	0.61106
1371.20933	0.61018
1369.28076	0.60947
1367.35220	0.60823
1365.42363	0.60650
1363.49507	0.60477
1361.56650	0.60322
1359.63794	0.60179
1357.70937	0.60049
1355.78081	0.59923
1353.85225	0.59806
1351.92368	0.59705
1349.99512	0.59616
1348.06655	0.59541
1346.13799	0.59480
1344.20942	0.59418
1342.28086	0.59342
1340.35229	0.59259
1338.42373	0.59191
1336.49517	0.59145
1334.56660	0.59117
1332.63804	0.59118
1330.70947	0.59158
1328.78091	0.59226
1326.85234	0.59306
1324.92378	0.59391
1322.99521	0.59483
1321.06665	0.59582
1319.13809	0.59683
1317.20952	0.59755
1315.28096	0.59778
1313.35239	0.59763
1311.42383	0.59721
1309.49526	0.59669
1307.56670	0.59621
1305.63813	0.59573
1303.70957	0.59526
1301.78101	0.59481
1299.85244	0.59414
1297.92388	0.59320
1295.99531	0.59215
1294.06675	0.59096
1292.13818	0.58962
1290.20962	0.58831
1288.28105	0.58709
1286.35249	0.58579
1284.42393	0.58425
1282.49536	0.58250
1280.56680	0.58076
1278.63823	0.57923
1276.70967	0.57789
1274.78110	0.57667
1272.85254	0.57564
1270.92397	0.57481
1268.99541	0.57416
1267.06685	0.57355
1265.13828	0.57277
1263.20972	0.57181
1261.28115	0.57089
1259.35259	0.57014
1257.42402	0.56942
1255.49546	0.56878
1253.56689	0.56847
1251.63833	0.56852
1249.70977	0.56872
1247.78120	0.56880
1245.85264	0.56862
1243.92407	0.56815
1241.99551	0.56727
1240.06694	0.56585
1238.13838	0.56397
1236.20981	0.56164
1234.28125	0.55893
1232.35269	0.55625
1230.42412	0.55383
1228.49556	0.55158
1226.56699	0.54941
1224.63843	0.54737
1222.70986	0.54543
1220.78130	0.54363
1218.85273	0.54198
1216.92417	0.54044
1214.99561	0.53909
1213.06704	0.53810
1211.13848	0.53752
1209.20991	0.53709
1207.28135	0.53651
1205.35278	0.53564
1203.42422	0.53459
1201.49565	0.53361
1199.56709	0.53266
1197.63853	0.53178
1195.70996	0.53112
1193.78140	0.53055
1191.85283	0.52998
1189.92427	0.52958
1187.99570	0.52934
1186.06714	0.52910
1184.13857	0.52904
1182.21001	0.52955
1180.28145	0.53077
1178.35288	0.53247
1176.42432	0.53429
1174.49575	0.53582
1172.56719	0.53683
1170.63862	0.53730
1168.71006	0.53735
1166.78149	0.53728
1164.85293	0.53729
1162.92437	0.53730
1160.99580	0.53719
1159.06724	0.53687
1157.13867	0.53618
1155.21011	0.53516
1153.28154	0.53399
1151.35298	0.53243
1149.42441	0.53012
1147.49585	0.52731
1145.56729	0.52447
1143.63872	0.52174
1141.71016	0.51922
1139.78159	0.51711
1137.85303	0.51561
1135.92446	0.51484
1133.99590	0.51454
1132.06733	0.51419
1130.13877	0.51368
1128.21021	0.51324
1126.28164	0.51300
1124.35308	0.51289
1122.42451	0.51283
1120.49595	0.51282
1118.56738	0.51297
1116.63882	0.51338
1114.71025	0.51397
1112.78169	0.51470
1110.85312	0.51553
1108.92456	0.51637
1106.99600	0.51731
1105.06743	0.51842
1103.13887	0.51967
1101.21030	0.52098
1099.28174	0.52227
1097.35317	0.52385
1095.42461	0.52625
1093.49604	0.52969
1091.56748	0.53424
1089.63892	0.54010
1087.71035	0.54723
1085.78179	0.55510
1083.85322	0.56296
1081.92466	0.57005
1079.99609	0.57551
1078.06753	0.57848
1076.13896	0.57850
1074.21040	0.57565
1072.28184	0.57047
1070.35327	0.56363
1068.42471	0.55611
1066.49614	0.54898
1064.56758	0.54260
1062.63901	0.53690
1060.71045	0.53198
1058.78188	0.52786
1056.85332	0.52427
1054.92476	0.52083
1052.99619	0.51768
1051.06763	0.51514
1049.13906	0.51309
1047.21050	0.51148
1045.28193	0.51042
1043.35337	0.50985
1041.42480	0.50941
1039.49624	0.50900
1037.56768	0.50883
1035.63911	0.50880
1033.71055	0.50852
1031.78198	0.50771
1029.85342	0.50637
1027.92485	0.50480
1025.99629	0.50335
1024.06772	0.50222
1022.13916	0.50157
1020.21060	0.50132
1018.28203	0.50119
1016.35347	0.50103
1014.42490	0.50079
1012.49634	0.50037
1010.56777	0.50003
1008.63921	0.50011
1006.71064	0.50066
1004.78208	0.50161
1002.85352	0.50307
1000.92495	0.50551
998.99639	0.50903
997.06782	0.51304
995.13926	0.51723
993.21069	0.52141
991.28213	0.52498
989.35356	0.52736
987.42500	0.52839
985.49644	0.52847
983.56787	0.52829
981.63931	0.52842
979.71074	0.52909
977.78218	0.53019
975.85361	0.53158
973.92505	0.53355
971.99648	0.53624
970.06792	0.53935
968.13936	0.54273
966.21079	0.54643
964.28223	0.55037
962.35366	0.55462
960.42510	0.55947
958.49653	0.56487
956.56797	0.57065
954.63940	0.57680
952.71084	0.58301
950.78228	0.58916
948.85371	0.59545
946.92515	0.60193
944.99658	0.60835
943.06802	0.61440
941.13945	0.62018
939.21089	0.62602
937.28232	0.63169
935.35376	0.63700
933.42520	0.64240
931.49663	0.64785
929.56807	0.65306
927.63950	0.65820
925.71094	0.66383
923.78237	0.67014
921.85381	0.67630
919.92524	0.68198
917.99668	0.68840
916.06812	0.69625
914.13955	0.70430
912.21099	0.71164
910.28242	0.71880
908.35386	0.72669
906.42529	0.73560
904.49673	0.74505
902.56816	0.75490
900.63960	0.76440
898.71104	0.77294
896.78247	0.78180
894.85391	0.79193
892.92534	0.80248
890.99678	0.81215
889.06821	0.82150
887.13965	0.83210
885.21108	0.84383
883.28252	0.85594
881.35396	0.86825
879.42539	0.88083
877.49683	0.89285
875.56826	0.90340
873.63970	0.91298
871.71113	0.92273
869.78257	0.93398
867.85400	0.94682
865.92544	0.95897
863.99687	0.96951
862.06831	0.98113
860.13975	0.99524
858.21118	1.00846
856.28262	1.01816
854.35405	1.02699
852.42549	1.03723
850.49692	1.04810
848.56836	1.05970
846.63979	1.07261
844.71123	1.08532
842.78267	1.09723
840.85410	1.10936
838.92554	1.11969
836.99697	1.12843
835.06841	1.13946
833.13984	1.15281
831.21128	1.16685
829.28271	1.17909
827.35415	1.18527
825.42559	1.18847
823.49702	1.19953
821.56846	1.22009
819.63989	1.24256
817.71133	1.26187
815.78276	1.27716
813.85420	1.28865
811.92563	1.29167
809.99707	1.29562
808.06851	1.31561
806.13994	1.33635
804.21138	1.34872
802.28281	1.36597
800.35425	1.36596
798.42568	1.34189
796.49712	1.33528
794.56855	1.36262
792.63999	1.39949
790.71143	1.40395
788.78286	1.38749
786.85430	1.37352
784.92573	1.34474
782.99717	1.32255
781.06860	1.33346
779.14004	1.36380
777.21147	1.39661
775.28291	1.41913
773.35435	1.43033
771.42578	1.44302
769.49722	1.45761
767.56865	1.50233
765.64009	1.60962
763.71152	1.63785
761.78296	1.44234
759.85439	1.27424
757.92583	1.19433
755.99727	1.16776
754.06870	1.21052
752.14014	1.34193
750.21157	1.42524
748.28301	1.40863
746.35444	1.48538
744.42588	1.56376
742.49731	1.42405
740.56875	1.25940
738.64019	1.06140
736.71162	0.87006
734.78306	0.77340
732.85449	0.70173
730.92593	0.55641
728.99736	0.39427
727.06880	0.23692
725.14023	0.07759
723.21167	-0.04488
721.28311	-0.12353
719.35454	-0.12309
717.42598	-0.17190
715.49741	-0.06307
713.56885	0.20494
711.64028	0.38327
709.71172	0.51908
707.78315	0.64633
705.85459	0.78561
703.92603	1.04111
701.99746	1.19044
700.06890	0.81691
698.14033	0.61041
696.21177	0.54015
694.28320	0.51105
692.35464	0.48476
690.42607	0.47275
688.49751	0.50105
686.56895	0.59328
684.64038	0.60126
682.71182	0.48754
680.78325	0.44430
678.85469	0.50115
676.92612	0.59120
674.99756	0.62656
673.06899	0.56089
671.14043	0.47170
669.21187	0.46233
667.28330	0.55709
665.35474	0.67032
663.42617	0.64262
661.49761	0.56615
659.56904	0.51280
657.64048	0.46662
655.71191	0.45431
653.78335	0.47182
651.85479	0.46888
649.92622	0.40621
647.99766	0.35318
646.06909	0.40273
644.14053	0.57493
642.21196	0.91456
640.28340	0.89393
638.35483	0.50367
636.42627	0.34275
634.49771	0.30579
632.56914	0.32200
630.64058	0.38110
628.71201	0.44777
626.78345	0.43004
624.85488	0.41792
622.92632	0.49989
620.99775	0.58392
619.06919	0.55845
617.14062	0.50298
615.21206	0.42915
613.28350	0.37505
611.35493	0.37565
609.42637	0.40327
607.49780	0.42812
605.56924	0.42511
603.64067	0.38240
601.71211	0.36285
599.78354	0.40201
597.85498	0.43160
595.92642	0.40794
593.99785	0.42753
592.06929	0.47957
590.14072	0.46784
588.21216	0.43622
586.28359	0.40986
584.35503	0.41470
582.42646	0.46178
580.49790	0.46276
578.56934	0.43184
576.64077	0.51075
574.71221	0.75744
572.78364	0.78664
570.85508	0.64807
568.92651	0.55451
566.99795	0.41083
565.06938	0.33324
563.14082	0.34096
561.21226	0.37815
559.28369	0.44306
557.35513	0.55094
555.42656	0.56826
553.49800	0.49080
551.56943	0.42129
549.64087	0.35683
547.71230	0.31333
545.78374	0.30958
543.85518	0.32731
541.92661	0.31478
539.99805	0.32335
538.06948	0.39333
536.14092	0.41210
534.21235	0.36563
532.28379	0.34943
530.35522	0.38982
528.42666	0.48519
526.49810	0.46456
524.56953	0.33410
522.64097	0.28481
520.71240	0.28186
518.78384	0.29530
516.85527	0.36679
514.92671	0.43780
512.99814	0.39651
511.06958	0.41440
509.14102	0.51045
507.21245	0.48917
505.28389	0.37463
503.35532	0.33225
501.42676	0.38138
499.49819	0.38144
