3997.91411	0.06869
3995.98555	0.06911
3994.05698	0.06959
3992.12842	0.07009
3990.19985	0.07060
3988.27129	0.07076
3986.34272	0.07057
3984.41416	0.07079
3982.48560	0.07152
3980.55703	0.07203
3978.62847	0.07220
3976.69990	0.07250
3974.77134	0.07306
3972.84277	0.07365
3970.91421	0.07388
3968.98564	0.07358
3967.05708	0.07293
3965.12852	0.07256
3963.19995	0.07322
3961.27139	0.07439
3959.34282	0.07487
3957.41426	0.07484
3955.48569	0.07479
3953.55713	0.07466
3951.62856	0.07521
3949.70000	0.07691
3947.77144	0.07833
3945.84287	0.07826
3943.91431	0.07813
3941.98574	0.07869
3940.05718	0.07798
3938.12861	0.07611
3936.20005	0.07512
3934.27148	0.07594
3932.34292	0.07827
3930.41436	0.07986
3928.48579	0.07888
3926.55723	0.07781
3924.62866	0.07894
3922.70010	0.07991
3920.77153	0.07908
3918.84297	0.07900
3916.91440	0.08002
3914.98584	0.07926
3913.05728	0.07659
3911.12871	0.07460
3909.20015	0.07438
3907.27158	0.07617
3905.34302	0.08073
3903.41445	0.08683
3901.48589	0.08992
3899.55732	0.08862
3897.62876	0.08469
3895.70020	0.08038
3893.77163	0.07912
3891.84307	0.08151
3889.91450	0.08295
3887.98594	0.08154
3886.05737	0.08219
3884.12881	0.08479
3882.20024	0.08532
3880.27168	0.08533
3878.34312	0.08424
3876.41455	0.08172
3874.48599	0.08243
3872.55742	0.08655
3870.62886	0.09034
3868.70029	0.09144
3866.77173	0.08968
3864.84316	0.08952
3862.91460	0.09093
3860.98604	0.08897
3859.05747	0.08576
3857.12891	0.08583
3855.20034	0.09017
3853.27178	0.09852
3851.34321	0.10204
3849.41465	0.09516
3847.48608	0.08840
3845.55752	0.08620
3843.62896	0.08881
3841.70039	0.09394
3839.77183	0.09934
3837.84326	0.10401
3835.91470	0.10447
3833.98613	0.10110
3832.05757	0.09783
3830.12900	0.09554
3828.20044	0.09464
3826.27187	0.09595
3824.34331	0.09824
3822.41475	0.10171
3820.48618	0.10778
3818.55762	0.11016
3816.62905	0.10815
3814.70049	0.10586
3812.77192	0.10197
3810.84336	0.09885
3808.91479	0.09955
3806.98623	0.10432
3805.05767	0.10925
3803.12910	0.11217
3801.20054	0.11651
3799.27197	0.11879
3797.34341	0.11659
3795.41484	0.11403
3793.48628	0.11089
3791.55771	0.10843
3789.62915	0.10844
3787.70059	0.11040
3785.77202	0.11370
3783.84346	0.11681
3781.91489	0.11844
3779.98633	0.12043
3778.05776	0.12258
3776.12920	0.12234
3774.20063	0.12173
3772.27207	0.12369
3770.34351	0.12874
3768.41494	0.13393
3766.48638	0.13617
3764.55781	0.13713
3762.62925	0.13782
3760.70068	0.14015
3758.77212	0.14584
3756.84355	0.15092
3754.91499	0.15322
3752.98643	0.15749
3751.05786	0.16708
3749.12930	0.17652
3747.20073	0.17808
3745.27217	0.17818
3743.34360	0.18081
3741.41504	0.18242
3739.48647	0.18405
3737.55791	0.18975
3735.62935	0.20097
3733.70078	0.21203
3731.77222	0.21461
3729.84365	0.21324
3727.91509	0.21454
3725.98652	0.22065
3724.05796	0.22886
3722.12939	0.23504
3720.20083	0.23889
3718.27227	0.24169
3716.34370	0.24558
3714.41514	0.25290
3712.48657	0.26672
3710.55801	0.28696
3708.62944	0.30227
3706.70088	0.30982
3704.77231	0.31832
3702.84375	0.33198
3700.91519	0.35062
3698.98662	0.36874
3697.05806	0.38473
3695.12949	0.40294
3693.20093	0.42420
3691.27236	0.44975
3689.34380	0.48291
3687.41523	0.51775
3685.48667	0.54326
3683.55811	0.56544
3681.62954	0.59272
3679.70098	0.62661
3677.77241	0.66426
3675.84385	0.70992
3673.91528	0.76720
3671.98672	0.80913
3670.05815	0.84662
3668.12959	0.89855
3666.20103	0.94276
3664.27246	0.97978
3662.34390	1.02264
3660.41533	1.07095
3658.48677	1.11933
3656.55820	1.17125
3654.62964	1.22826
3652.70107	1.27575
3650.77251	1.32026
3648.84395	1.38434
3646.91538	1.45606
3644.98682	1.50100
3643.05825	1.53445
3641.12969	1.57165
3639.20112	1.61463
3637.27256	1.65930
3635.34399	1.70438
3633.41543	1.75003
3631.48687	1.79319
3629.55830	1.83893
3627.62974	1.89741
3625.70117	1.94506
3623.77261	1.97351
3621.84404	2.00337
3619.91548	2.04144
3617.98691	2.08860
3616.05835	2.13266
3614.12979	2.16920
3612.20122	2.20815
3610.27266	2.24653
3608.34409	2.28560
3606.41553	2.32815
3604.48696	2.36587
3602.55840	2.39854
3600.62983	2.43643
3598.70127	2.47997
3596.77271	2.52151
3594.84414	2.56159
3592.91558	2.60151
3590.98701	2.63810
3589.05845	2.67369
3587.12988	2.71857
3585.20132	2.76636
3583.27275	2.80481
3581.34419	2.84123
3579.41562	2.88111
3577.48706	2.92288
3575.55850	2.96452
3573.62993	3.00651
3571.70137	3.04698
3569.77280	3.08668
3567.84424	3.13296
3565.91567	3.19178
3563.98711	3.24257
3562.05854	3.27855
3560.12998	3.31704
3558.20142	3.36114
3556.27285	3.40541
3554.34429	3.44756
3552.41572	3.49139
3550.48716	3.53792
3548.55859	3.58592
3546.63003	3.63470
3544.70146	3.68161
3542.77290	3.72424
3540.84434	3.76652
3538.91577	3.81245
3536.98721	3.86024
3535.05864	3.90859
3533.13008	3.95457
3531.20151	3.99858
3529.27295	4.04650
3527.34438	4.10170
3525.41582	4.15500
3523.48726	4.20017
3521.55869	4.24487
3519.63013	4.29230
3517.70156	4.34208
3515.77300	4.39210
3513.84443	4.43995
3511.91587	4.48692
3509.98730	4.53658
3508.05874	4.58787
3506.13018	4.63446
3504.20161	4.67658
3502.27305	4.71950
3500.34448	4.76483
3498.41592	4.81197
3496.48735	4.86170
3494.55879	4.91242
3492.63022	4.96112
3490.70166	5.00700
3488.77310	5.05633
3486.84453	5.10977
3484.91597	5.15806
3482.98740	5.20529
3481.05884	5.25719
3479.13027	5.30665
3477.20171	5.35207
3475.27314	5.39676
3473.34458	5.44296
3471.41602	5.49029
3469.48745	5.53331
3467.55889	5.57423
3465.63032	5.62466
3463.70176	5.68410
3461.77319	5.73640
3459.84463	5.78405
3457.91606	5.84283
3455.98750	5.91396
3454.05894	5.97816
3452.13037	6.01694
3450.20181	6.04367
3448.27324	6.08447
3446.34468	6.14638
3444.41611	6.20515
3442.48755	6.24555
3440.55898	6.27956
3438.63042	6.32317
3436.70186	6.38221
3434.77329	6.44849
3432.84473	6.50588
3430.91616	6.54805
3428.98760	6.58913
3427.05903	6.64019
3425.13047	6.71323
3423.20190	6.80178
3421.27334	6.87771
3419.34478	6.91148
3417.41621	6.92323
3415.48765	6.95857
3413.55908	7.00931
3411.63052	7.06786
3409.70195	7.13018
3407.77339	7.16724
3405.84482	7.16692
3403.91626	7.18182
3401.98770	7.23646
3400.05913	7.28995
3398.13057	7.32951
3396.20200	7.35975
3394.27344	7.37606
3392.34487	7.40184
3390.41631	7.46316
3388.48774	7.52585
3386.55918	7.57613
3384.63062	7.60413
3382.70205	7.61419
3380.77349	7.66950
3378.84492	7.77241
3376.91636	7.84514
3374.98779	7.84981
3373.05923	7.83698
3371.13066	7.83419
3369.20210	7.84131
3367.27354	7.82630
3365.34497	7.81937
3363.41641	7.85719
3361.48784	7.88729
3359.55928	7.92657
3357.63071	8.01904
3355.70215	8.09871
3353.77358	8.10240
3351.84502	8.09122
3349.91646	8.04541
3347.98789	8.00533
3346.05933	8.04515
3344.13076	8.09557
3342.20220	8.12751
3340.27363	8.14445
3338.34507	8.15254
3336.41650	8.17244
3334.48794	8.19399
3332.55937	8.16925
3330.63081	8.14528
3328.70225	8.16263
3326.77368	8.15979
3324.84512	8.14365
3322.91655	8.16711
3320.98799	8.23039
3319.05942	8.27301
3317.13086	8.30176
3315.20229	8.35604
3313.27373	8.41017
3311.34517	8.33517
3309.41660	8.16925
3307.48804	8.11642
3305.55947	8.12079
3303.63091	8.05194
3301.70234	8.00863
3299.77378	8.13602
3297.84521	8.35923
3295.91665	8.42927
3293.98809	8.34589
3292.05952	8.29852
3290.13096	8.29858
3288.20239	8.29263
3286.27383	8.32005
3284.34526	8.35393
3282.41670	8.32035
3280.48813	8.31883
3278.55957	8.42439
3276.63101	8.43819
3274.70244	8.31635
3272.77388	8.24331
3270.84531	8.25316
3268.91675	8.31363
3266.98818	8.38853
3265.05962	8.44362
3263.13105	8.42717
3261.20249	8.35849
3259.27393	8.29721
3257.34536	8.23600
3255.41680	8.18692
3253.48823	8.19886
3251.55967	8.26505
3249.63110	8.32353
3247.70254	8.35949
3245.77397	8.43935
3243.84541	8.55839
3241.91685	8.53806
3239.98828	8.38671
3238.05972	8.26675
3236.13115	8.21322
3234.20259	8.19869
3232.27402	8.18114
3230.34546	8.12900
3228.41689	8.05059
3226.48833	8.03246
3224.55977	8.10260
3222.63120	8.10367
3220.70264	7.98574
3218.77407	7.93673
3216.84551	8.00434
3214.91694	8.05866
3212.98838	8.01486
3211.05981	7.93941
3209.13125	7.90869
3207.20269	7.87585
3205.27412	7.81920
3203.34556	7.82798
3201.41699	7.91815
3199.48843	7.90034
3197.55986	7.70800
3195.63130	7.58128
3193.70273	7.63310
3191.77417	7.71087
3189.84561	7.64655
3187.91704	7.53123
3185.98848	7.47462
3184.05991	7.45116
3182.13135	7.40793
3180.20278	7.33220
3178.27422	7.25436
3176.34565	7.19984
3174.41709	7.15795
3172.48853	7.10528
3170.55996	7.03743
3168.63140	6.95347
3166.70283	6.85182
3164.77427	6.76219
3162.84570	6.70682
3160.91714	6.66719
3158.98857	6.61818
3157.06001	6.54350
3155.13145	6.45453
3153.20288	6.37967
3151.27432	6.31732
3149.34575	6.24843
3147.41719	6.18141
3145.48862	6.12596
3143.56006	6.05504
3141.63149	5.96346
3139.70293	5.88063
3137.77437	5.81060
3135.84580	5.74306
3133.91724	5.67416
3131.98867	5.59950
3130.06011	5.52366
3128.13154	5.44698
3126.20298	5.36758
3124.27441	5.29617
3122.34585	5.23211
3120.41729	5.16488
3118.48872	5.08891
3116.56016	5.00748
3114.63159	4.93022
3112.70303	4.85950
3110.77446	4.79262
3108.84590	4.72625
3106.91733	4.65787
3104.98877	4.58982
3103.06021	4.52230
3101.13164	4.45174
3099.20308	4.38087
3097.27451	4.31156
3095.34595	4.23941
3093.41738	4.16645
3091.48882	4.09939
3089.56025	4.03735
3087.63169	3.97402
3085.70312	3.90886
3083.77456	3.84561
3081.84600	3.78364
3079.91743	3.72083
3077.98887	3.65897
3076.06030	3.60002
3074.13174	3.54203
3072.20317	3.48265
3070.27461	3.42301
3068.34604	3.36523
3066.41748	3.30868
3064.48892	3.25256
3062.56035	3.19755
3060.63179	3.14317
3058.70322	3.08832
3056.77466	3.03343
3054.84609	2.97999
3052.91753	2.92846
3050.98896	2.87786
3049.06040	2.82736
3047.13184	2.77695
3045.20327	2.72731
3043.27471	2.67874
3041.34614	2.63092
3039.41758	2.58408
3037.48901	2.53828
3035.56045	2.49291
3033.63188	2.44767
3031.70332	2.40306
3029.77476	2.35966
3027.84619	2.31753
3025.91763	2.27618
3023.98906	2.23496
3022.06050	2.19391
3020.13193	2.15346
3018.20337	2.11399
3016.27480	2.07554
3014.34624	2.03773
3012.41768	2.00055
3010.48911	1.96388
3008.56055	1.92731
3006.63198	1.89115
3004.70342	1.85585
3002.77485	1.82122
3000.84629	1.78730
2998.91772	1.75399
2996.98916	1.72090
2995.06060	1.68843
2993.13203	1.65713
2991.20347	1.62642
2989.27490	1.59540
2987.34634	1.56439
2985.41777	1.53405
2983.48921	1.50464
2981.56064	1.47632
2979.63208	1.44864
2977.70352	1.42073
2975.77495	1.39262
2973.84639	1.36522
2971.91782	1.33911
2969.98926	1.31384
2968.06069	1.28867
2966.13213	1.26356
2964.20356	1.23881
2962.27500	1.21473
2960.34644	1.19158
2958.41787	1.16896
2956.48931	1.14632
2954.56074	1.12375
2952.63218	1.10175
2950.70361	1.08051
2948.77505	1.05967
2946.84648	1.03893
2944.91792	1.01832
2942.98936	0.99794
2941.06079	0.97814
2939.13223	0.95933
2937.20366	0.94159
2935.27510	0.92439
2933.34653	0.90737
2931.41797	0.89075
2929.48940	0.87456
2927.56084	0.85866
2925.63228	0.84332
2923.70371	0.82845
2921.77515	0.81341
2919.84658	0.79798
2917.91802	0.78221
2915.98945	0.76613
2914.06089	0.74993
2912.13232	0.73413
2910.20376	0.71932
2908.27520	0.70558
2906.34663	0.69266
2904.41807	0.67998
2902.48950	0.66717
2900.56094	0.65443
2898.63237	0.64216
2896.70381	0.63019
2894.77524	0.61821
2892.84668	0.60656
2890.91812	0.59544
2888.98955	0.58471
2887.06099	0.57415
2885.13242	0.56354
2883.20386	0.55310
2881.27529	0.54323
2879.34673	0.53373
2877.41816	0.52432
2875.48960	0.51516
2873.56104	0.50618
2871.63247	0.49701
2869.70391	0.48767
2867.77534	0.47872
2865.84678	0.47032
2863.91821	0.46206
2861.98965	0.45385
2860.06108	0.44606
2858.13252	0.43890
2856.20396	0.43223
2854.27539	0.42594
2852.34683	0.41951
2850.41826	0.41205
2848.48970	0.40385
2846.56113	0.39606
2844.63257	0.38902
2842.70400	0.38227
2840.77544	0.37583
2838.84687	0.37007
2836.91831	0.36474
2834.98975	0.35957
2833.06118	0.35451
2831.13262	0.34928
2829.20405	0.34392
2827.27549	0.33878
2825.34692	0.33374
2823.41836	0.32863
2821.48979	0.32348
2819.56123	0.31838
2817.63267	0.31338
2815.70410	0.30848
2813.77554	0.30381
2811.84697	0.29937
2809.91841	0.29484
2807.98984	0.29025
2806.06128	0.28566
2804.13271	0.28112
2802.20415	0.27689
2800.27559	0.27302
2798.34702	0.26928
2796.41846	0.26539
2794.48989	0.26135
2792.56133	0.25738
2790.63276	0.25370
2788.70420	0.25020
2786.77563	0.24676
2784.84707	0.24349
2782.91851	0.24036
2780.98994	0.23709
2779.06138	0.23365
2777.13281	0.23022
2775.20425	0.22695
2773.27568	0.22397
2771.34712	0.22117
2769.41855	0.21837
2767.48999	0.21548
2765.56143	0.21259
2763.63286	0.20987
2761.70430	0.20724
2759.77573	0.20453
2757.84717	0.20190
2755.91860	0.19959
2753.99004	0.19751
2752.06147	0.19535
2750.13291	0.19290
2748.20435	0.19039
2746.27578	0.18815
2744.34722	0.18610
2742.41865	0.18406
2740.49009	0.18200
2738.56152	0.17997
2736.63296	0.17809
2734.70439	0.17629
2732.77583	0.17442
2730.84727	0.17255
2728.91870	0.17081
2726.99014	0.16916
2725.06157	0.16745
2723.13301	0.16567
2721.20444	0.16390
2719.27588	0.16227
2717.34731	0.16086
2715.41875	0.15950
2713.49019	0.15811
2711.56162	0.15683
2709.63306	0.15562
2707.70449	0.15441
2705.77593	0.15309
2703.84736	0.15162
2701.91880	0.15025
2699.99023	0.14911
2698.06167	0.14802
2696.13311	0.14690
2694.20454	0.14583
2692.27598	0.14486
2690.34741	0.14384
2688.41885	0.14284
2686.49028	0.14196
2684.56172	0.14112
2682.63315	0.14030
2680.70459	0.13953
2678.77603	0.13874
2676.84746	0.13789
2674.91890	0.13705
2672.99033	0.13628
2671.06177	0.13560
2669.13320	0.13495
2667.20464	0.13433
2665.27607	0.13380
2663.34751	0.13326
2661.41895	0.13260
2659.49038	0.13193
2657.56182	0.13144
2655.63325	0.13108
2653.70469	0.13078
2651.77612	0.13054
2649.84756	0.13022
2647.91899	0.12976
2645.99043	0.12927
2644.06187	0.12890
2642.13330	0.12863
2640.20474	0.12836
2638.27617	0.12810
2636.34761	0.12796
2634.41904	0.12785
2632.49048	0.12769
2630.56191	0.12758
2628.63335	0.12747
2626.70479	0.12725
2624.77622	0.12705
2622.84766	0.12700
2620.91909	0.12703
2618.99053	0.12701
2617.06196	0.12691
2615.13340	0.12678
2613.20483	0.12679
2611.27627	0.12701
2609.34771	0.12723
2607.41914	0.12733
2605.49058	0.12736
2603.56201	0.12744
2601.63345	0.12761
2599.70488	0.12784
2597.77632	0.12808
2595.84775	0.12835
2593.91919	0.12859
2591.99062	0.12874
2590.06206	0.12887
2588.13350	0.12914
2586.20493	0.12955
2584.27637	0.12999
2582.34780	0.13034
2580.41924	0.13060
2578.49067	0.13086
2576.56211	0.13121
2574.63354	0.13169
2572.70498	0.13227
2570.77642	0.13288
2568.84785	0.13336
2566.91929	0.13377
2564.99072	0.13426
2563.06216	0.13475
2561.13359	0.13520
2559.20503	0.13566
2557.27646	0.13610
2555.34790	0.13659
2553.41934	0.13727
2551.49077	0.13795
2549.56221	0.13852
2547.63364	0.13911
2545.70508	0.13981
2543.77651	0.14060
2541.84795	0.14134
2539.91938	0.14194
2537.99082	0.14262
2536.06226	0.14347
2534.13369	0.14427
2532.20513	0.14497
2530.27656	0.14569
2528.34800	0.14652
2526.41943	0.14742
2524.49087	0.14830
2522.56230	0.14914
2520.63374	0.14994
2518.70518	0.15068
2516.77661	0.15143
2514.84805	0.15225
2512.91948	0.15311
2510.99092	0.15397
2509.06235	0.15483
2507.13379	0.15568
2505.20522	0.15661
2503.27666	0.15753
2501.34810	0.15829
2499.41953	0.15902
2497.49097	0.15992
2495.56240	0.16090
2493.63384	0.16181
2491.70527	0.16264
2489.77671	0.16350
2487.84814	0.16442
2485.91958	0.16542
2483.99102	0.16650
2482.06245	0.16755
2480.13389	0.16850
2478.20532	0.16949
2476.27676	0.17052
2474.34819	0.17153
2472.41963	0.17245
2470.49106	0.17331
2468.56250	0.17416
2466.63394	0.17510
2464.70537	0.17624
2462.77681	0.17738
2460.84824	0.17838
2458.91968	0.17932
2456.99111	0.18033
2455.06255	0.18141
2453.13398	0.18248
2451.20542	0.18349
2449.27686	0.18444
2447.34829	0.18542
2445.41973	0.18646
2443.49116	0.18754
2441.56260	0.18872
2439.63403	0.18998
2437.70547	0.19104
2435.77690	0.19192
2433.84834	0.19290
2431.91978	0.19403
2429.99121	0.19519
2428.06265	0.19630
2426.13408	0.19743
2424.20552	0.19868
2422.27695	0.19999
2420.34839	0.20131
2418.41982	0.20261
2416.49126	0.20378
2414.56270	0.20484
2412.63413	0.20593
2410.70557	0.20715
2408.77700	0.20848
2406.84844	0.20977
2404.91987	0.21099
2402.99131	0.21226
2401.06274	0.21362
2399.13418	0.21496
2397.20562	0.21618
2395.27705	0.21739
2393.34849	0.21869
2391.41992	0.22005
2389.49136	0.22166
2387.56279	0.22402
2385.63423	0.22770
2383.70566	0.23309
2381.77710	0.24020
2379.84854	0.24865
2377.91997	0.25808
2375.99141	0.26863
2374.06284	0.28071
2372.13428	0.29437
2370.20571	0.30911
2368.27715	0.32416
2366.34858	0.33875
2364.42002	0.35165
2362.49146	0.36165
2360.56289	0.36822
2358.63433	0.37025
2356.70576	0.36642
2354.77720	0.35650
2352.84863	0.34252
2350.92007	0.32800
2348.99150	0.31882
2347.06294	0.31914
2345.13437	0.32921
2343.20581	0.34251
2341.27725	0.34986
2339.34868	0.35109
2337.42012	0.35003
2335.49155	0.34922
2333.56299	0.34890
2331.63442	0.34877
2329.70586	0.34824
2327.77729	0.34668
2325.84873	0.34412
2323.92017	0.34115
2321.99160	0.33800
2320.06304	0.33406
2318.13447	0.32929
2316.20591	0.32503
2314.27734	0.32262
2312.34878	0.32183
2310.42021	0.32112
2308.49165	0.31949
2306.56309	0.31725
2304.63452	0.31514
2302.70596	0.31382
2300.77739	0.31333
2298.84883	0.31322
2296.92026	0.31327
2294.99170	0.31345
2293.06313	0.31368
2291.13457	0.31386
2289.20601	0.31410
2287.27744	0.31449
2285.34888	0.31505
2283.42031	0.31598
2281.49175	0.31765
2279.56318	0.32002
2277.63462	0.32250
2275.70605	0.32479
2273.77749	0.32699
2271.84893	0.32918
2269.92036	0.33125
2267.99180	0.33321
2266.06323	0.33527
2264.13467	0.33737
2262.20610	0.33932
2260.27754	0.34115
2258.34897	0.34295
2256.42041	0.34476
2254.49185	0.34667
2252.56328	0.34868
2250.63472	0.35065
2248.70615	0.35259
2246.77759	0.35452
2244.84902	0.35645
2242.92046	0.35845
2240.99189	0.36057
2239.06333	0.36275
2237.13477	0.36495
2235.20620	0.36722
2233.27764	0.36946
2231.34907	0.37159
2229.42051	0.37375
2227.49194	0.37597
2225.56338	0.37822
2223.63481	0.38053
2221.70625	0.38278
2219.77769	0.38486
2217.84912	0.38690
2215.92056	0.38904
2213.99199	0.39127
2212.06343	0.39353
2210.13486	0.39575
2208.20630	0.39790
2206.27773	0.39996
2204.34917	0.40197
2202.42061	0.40403
2200.49204	0.40613
2198.56348	0.40829
2196.63491	0.41045
2194.70635	0.41243
2192.77778	0.41427
2190.84922	0.41618
2188.92065	0.41816
2186.99209	0.42009
2185.06353	0.42202
2183.13496	0.42386
2181.20640	0.42554
2179.27783	0.42717
2177.34927	0.42882
2175.42070	0.43045
2173.49214	0.43199
2171.56357	0.43342
2169.63501	0.43473
2167.70645	0.43599
2165.77788	0.43727
2163.84932	0.43859
2161.92075	0.43990
2159.99219	0.44114
2158.06362	0.44233
2156.13506	0.44347
2154.20649	0.44442
2152.27793	0.44532
2150.34937	0.44631
2148.42080	0.44720
2146.49224	0.44789
2144.56367	0.44854
2142.63511	0.44912
2140.70654	0.44953
2138.77798	0.44980
2136.84941	0.45003
2134.92085	0.45027
2132.99229	0.45044
2131.06372	0.45044
2129.13516	0.45033
2127.20659	0.45016
2125.27803	0.44991
2123.34946	0.44964
2121.42090	0.44931
2119.49233	0.44881
2117.56377	0.44834
2115.63521	0.44792
2113.70664	0.44733
2111.77808	0.44659
2109.84951	0.44581
2107.92095	0.44493
2105.99238	0.44397
2104.06382	0.44297
2102.13525	0.44185
2100.20669	0.44059
2098.27812	0.43923
2096.34956	0.43788
2094.42100	0.43665
2092.49243	0.43537
2090.56387	0.43386
2088.63530	0.43218
2086.70674	0.43045
2084.77817	0.42874
2082.84961	0.42700
2080.92104	0.42520
2078.99248	0.42336
2077.06392	0.42142
2075.13535	0.41938
2073.20679	0.41728
2071.27822	0.41519
2069.34966	0.41307
2067.42109	0.41095
2065.49253	0.40896
2063.56396	0.40678
2061.63540	0.40428
2059.70684	0.40174
2057.77827	0.39932
2055.84971	0.39698
2053.92114	0.39464
2051.99258	0.39224
2050.06401	0.38971
2048.13545	0.38717
2046.20688	0.38465
2044.27832	0.38217
2042.34976	0.37976
2040.42119	0.37721
2038.49263	0.37446
2036.56406	0.37170
2034.63550	0.36904
2032.70693	0.36639
2030.77837	0.36366
2028.84980	0.36087
2026.92124	0.35814
2024.99268	0.35548
2023.06411	0.35290
2021.13555	0.35035
2019.20698	0.34788
2017.27842	0.34547
2015.34985	0.34274
2013.42129	0.33972
2011.49272	0.33683
2009.56416	0.33416
2007.63560	0.33154
2005.70703	0.32884
2003.77847	0.32611
2001.84990	0.32345
1999.92134	0.32083
1997.99277	0.31821
1996.06421	0.31582
1994.13564	0.31392
1992.20708	0.31217
1990.27852	0.30975
1988.34995	0.30683
1986.42139	0.30400
1984.49282	0.30134
1982.56426	0.29882
1980.63569	0.29640
1978.70713	0.29405
1976.77856	0.29177
1974.85000	0.28955
1972.92144	0.28735
1970.99287	0.28526
1969.06431	0.28361
1967.13574	0.28214
1965.20718	0.27997
1963.27861	0.27736
1961.35005	0.27516
1959.42148	0.27332
1957.49292	0.27153
1955.56436	0.26973
1953.63579	0.26792
1951.70723	0.26608
1949.77866	0.26437
1947.85010	0.26293
1945.92153	0.26188
1943.99297	0.26123
1942.06440	0.26023
1940.13584	0.25807
1938.20728	0.25569
1936.27871	0.25400
1934.35015	0.25274
1932.42158	0.25155
1930.49302	0.25024
1928.56445	0.24889
1926.63589	0.24786
1924.70732	0.24758
1922.77876	0.24761
1920.85020	0.24687
1918.92163	0.24572
1916.99307	0.24447
1915.06450	0.24271
1913.13594	0.24126
1911.20737	0.24086
1909.27881	0.24079
1907.35024	0.24012
1905.42168	0.23894
1903.49312	0.23788
1901.56455	0.23706
1899.63599	0.23643
1897.70742	0.23614
1895.77886	0.23617
1893.85029	0.23601
1891.92173	0.23572
1889.99316	0.23587
1888.06460	0.23556
1886.13604	0.23458
1884.20747	0.23385
1882.27891	0.23343
1880.35034	0.23317
1878.42178	0.23310
1876.49321	0.23308
1874.56465	0.23303
1872.63608	0.23347
1870.70752	0.23513
1868.77896	0.23757
1866.85039	0.23797
1864.92183	0.23616
1862.99326	0.23487
1861.06470	0.23477
1859.13613	0.23515
1857.20757	0.23537
1855.27900	0.23548
1853.35044	0.23574
1851.42187	0.23634
1849.49331	0.23741
1847.56475	0.23900
1845.63618	0.24110
1843.70762	0.24287
1841.77905	0.24272
1839.85049	0.24190
1837.92192	0.24225
1835.99336	0.24309
1834.06479	0.24387
1832.13623	0.24546
1830.20767	0.24835
1828.27910	0.25047
1826.35054	0.25097
1824.42197	0.25162
1822.49341	0.25202
1820.56484	0.25237
1818.63628	0.25344
1816.70771	0.25503
1814.77915	0.25668
1812.85059	0.25896
1810.92202	0.26179
1808.99346	0.26384
1807.06489	0.26513
1805.13633	0.26674
1803.20776	0.26946
1801.27920	0.27297
1799.35063	0.27617
1797.42207	0.27848
1795.49351	0.28109
1793.56494	0.28492
1791.63638	0.28924
1789.70781	0.29131
1787.77925	0.29213
1785.85068	0.29472
1783.92212	0.29873
1781.99355	0.30317
1780.06499	0.30777
1778.13643	0.31196
1776.20786	0.31610
1774.27930	0.32177
1772.35073	0.32956
1770.42217	0.33593
1768.49360	0.33945
1766.56504	0.34286
1764.63647	0.34737
1762.70791	0.35372
1760.77935	0.36189
1758.85078	0.36889
1756.92222	0.37582
1754.99365	0.38336
1753.06509	0.39074
1751.13652	0.40088
1749.20796	0.41334
1747.27939	0.42374
1745.35083	0.43188
1743.42227	0.44080
1741.49370	0.45115
1739.56514	0.46347
1737.63657	0.47558
1735.70801	0.48691
1733.77944	0.50482
1731.85088	0.52415
1729.92231	0.53763
1727.99375	0.55142
1726.06519	0.56708
1724.13662	0.58537
1722.20806	0.60568
1720.27949	0.62501
1718.35093	0.64901
1716.42236	0.68337
1714.49380	0.71235
1712.56523	0.73388
1710.63667	0.75576
1708.70811	0.78103
1706.77954	0.81090
1704.85098	0.84604
1702.92241	0.87649
1700.99385	0.90725
1699.06528	0.95359
1697.13672	0.99452
1695.20815	1.03355
1693.27959	1.07003
1691.35103	1.10006
1689.42246	1.13655
1687.49390	1.17558
1685.56533	1.21364
1683.63677	1.27038
1681.70820	1.32593
1679.77964	1.36082
1677.85107	1.39503
1675.92251	1.43530
1673.99395	1.48522
1672.06538	1.52984
1670.13682	1.57439
1668.20825	1.62893
1666.27969	1.66917
1664.35112	1.70321
1662.42256	1.74809
1660.49399	1.79819
1658.56543	1.83594
1656.63687	1.86727
1654.70830	1.90042
1652.77974	1.95801
1650.85117	2.01117
1648.92261	2.03309
1646.99404	2.06414
1645.06548	2.09823
1643.13691	2.11967
1641.20835	2.13376
1639.27979	2.14688
1637.35122	2.15711
1635.42266	2.16247
1633.49409	2.15966
1631.56553	2.14959
1629.63696	2.13681
1627.70840	2.11499
1625.77983	2.08831
1623.85127	2.05375
1621.92271	2.01009
1619.99414	1.97020
1618.06558	1.93146
1616.13701	1.87460
1614.20845	1.81320
1612.27988	1.76578
1610.35132	1.71793
1608.42275	1.66664
1606.49419	1.61497
1604.56562	1.56571
1602.63706	1.51758
1600.70850	1.47066
1598.77993	1.42710
1596.85137	1.38612
1594.92280	1.34660
1592.99424	1.30792
1591.06567	1.27185
1589.13711	1.23775
1587.20854	1.20564
1585.27998	1.17554
1583.35142	1.14674
1581.42285	1.12008
1579.49429	1.09772
1577.56572	1.07851
1575.63716	1.05364
1573.70859	1.02860
1571.78003	1.01169
1569.85146	0.99480
1567.92290	0.97438
1565.99434	0.95693
1564.06577	0.94235
1562.13721	0.93086
1560.20864	0.92305
1558.28008	0.90799
1556.35151	0.88821
1554.42295	0.87448
1552.49438	0.86222
1550.56582	0.85112
1548.63726	0.84017
1546.70869	0.83111
1544.78013	0.82505
1542.85156	0.82065
1540.92300	0.81485
1538.99443	0.80087
1537.06587	0.78752
1535.13730	0.78036
1533.20874	0.77367
1531.28018	0.76510
1529.35161	0.75830
1527.42305	0.75343
1525.49448	0.74885
1523.56592	0.74458
1521.63735	0.73994
1519.70879	0.73300
1517.78022	0.72636
1515.85166	0.71962
1513.92310	0.71255
1511.99453	0.70775
1510.06597	0.70591
1508.13740	0.70633
1506.20884	0.70201
1504.28027	0.69191
1502.35171	0.68562
1500.42314	0.68231
1498.49458	0.68031
1496.56602	0.67728
1494.63745	0.67261
1492.70889	0.66929
1490.78032	0.66844
1488.85176	0.66722
1486.92319	0.66261
1484.99463	0.65726
1483.06606	0.65337
1481.13750	0.65052
1479.20894	0.64797
1477.28037	0.64631
1475.35181	0.64580
1473.42324	0.64523
1471.49468	0.64167
1469.56611	0.63606
1467.63755	0.63209
1465.70898	0.63004
1463.78042	0.62782
1461.85186	0.62517
1459.92329	0.62444
1457.99473	0.62579
1456.06616	0.62425
1454.13760	0.61880
1452.20903	0.61472
1450.28047	0.61229
1448.35190	0.61072
1446.42334	0.60881
1444.49478	0.60644
1442.56621	0.60448
1440.63765	0.60318
1438.70908	0.60289
1436.78052	0.60325
1434.85195	0.60196
1432.92339	0.59956
1430.99482	0.59800
1429.06626	0.59660
1427.13770	0.59471
1425.20913	0.59326
1423.28057	0.59226
1421.35200	0.59145
1419.42344	0.59127
1417.49487	0.59008
1415.56631	0.58693
1413.63774	0.58413
1411.70918	0.58234
1409.78062	0.58091
1407.85205	0.57963
1405.92349	0.57871
1403.99492	0.57753
1402.06636	0.57610
1400.13779	0.57547
1398.20923	0.57537
1396.28066	0.57488
1394.35210	0.57332
1392.42354	0.57064
1390.49497	0.56844
1388.56641	0.56756
1386.63784	0.56669
1384.70928	0.56471
1382.78071	0.56281
1380.85215	0.56182
1378.92358	0.56128
1376.99502	0.56090
1375.06646	0.56078
1373.13789	0.55991
1371.20933	0.55807
1369.28076	0.55661
1367.35220	0.55549
1365.42363	0.55455
1363.49507	0.55440
1361.56650	0.55407
1359.63794	0.55247
1357.70937	0.55087
1355.78081	0.54999
1353.85225	0.54928
1351.92368	0.54836
1349.99512	0.54741
1348.06655	0.54646
1346.13799	0.54546
1344.20942	0.54462
1342.28086	0.54445
1340.35229	0.54488
1338.42373	0.54446
1336.49517	0.54261
1334.56660	0.54063
1332.63804	0.53929
1330.70947	0.53841
1328.78091	0.53756
1326.85234	0.53668
1324.92378	0.53593
1322.99521	0.53529
1321.06665	0.53471
1319.13809	0.53416
1317.20952	0.53339
1315.28096	0.53242
1313.35239	0.53141
1311.42383	0.53029
1309.49526	0.52922
1307.56670	0.52836
1305.63813	0.52754
1303.70957	0.52659
1301.78101	0.52561
1299.85244	0.52473
1297.92388	0.52399
1295.99531	0.52319
1294.06675	0.52226
1292.13818	0.52145
1290.20962	0.52080
1288.28105	0.52011
1286.35249	0.51936
1284.42393	0.51869
1282.49536	0.51815
1280.56680	0.51755
1278.63823	0.51671
1276.70967	0.51576
1274.78110	0.51496
1272.85254	0.51440
1270.92397	0.51391
1268.99541	0.51331
1267.06685	0.51258
1265.13828	0.51171
1263.20972	0.51086
1261.28115	0.51015
1259.35259	0.50948
1257.42402	0.50879
1255.49546	0.50814
1253.56689	0.50752
1251.63833	0.50685
1249.70977	0.50623
1247.78120	0.50577
1245.85264	0.50528
1243.92407	0.50460
1241.99551	0.50382
1240.06694	0.50309
1238.13838	0.50242
1236.20981	0.50173
1234.28125	0.50104
1232.35269	0.50034
1230.42412	0.49946
1228.49556	0.49855
1226.56699	0.49779
1224.63843	0.49711
1222.70986	0.49640
1220.78130	0.49561
1218.85273	0.49474
1216.92417	0.49387
1214.99561	0.49302
1213.06704	0.49220
1211.13848	0.49138
1209.20991	0.49052
1207.28135	0.48968
1205.35278	0.48890
1203.42422	0.48809
1201.49565	0.48717
1199.56709	0.48620
1197.63853	0.48534
1195.70996	0.48447
1193.78140	0.48346
1191.85283	0.48241
1189.92427	0.48137
1187.99570	0.48033
1186.06714	0.47939
1184.13857	0.47856
1182.21001	0.47770
1180.28145	0.47677
1178.35288	0.47587
1176.42432	0.47496
1174.49575	0.47394
1172.56719	0.47288
1170.63862	0.47203
1168.71006	0.47133
1166.78149	0.47040
1164.85293	0.46927
1162.92437	0.46826
1160.99580	0.46736
1159.06724	0.46647
1157.13867	0.46559
1155.21011	0.46470
1153.28154	0.46387
1151.35298	0.46316
1149.42441	0.46239
1147.49585	0.46141
1145.56729	0.46050
1143.63872	0.45984
1141.71016	0.45915
1139.78159	0.45825
1137.85303	0.45735
1135.92446	0.45649
1133.99590	0.45571
1132.06733	0.45515
1130.13877	0.45459
1128.21021	0.45365
1126.28164	0.45257
1124.35308	0.45174
1122.42451	0.45102
1120.49595	0.45023
1118.56738	0.44951
1116.63882	0.44895
1114.71025	0.44856
1112.78169	0.44823
1110.85312	0.44781
1108.92456	0.44738
1106.99600	0.44698
1105.06743	0.44651
1103.13887	0.44599
1101.21030	0.44561
1099.28174	0.44538
1097.35317	0.44516
1095.42461	0.44495
1093.49604	0.44468
1091.56748	0.44425
1089.63892	0.44373
1087.71035	0.44320
1085.78179	0.44270
1083.85322	0.44231
1081.92466	0.44206
1079.99609	0.44183
1078.06753	0.44167
1076.13896	0.44156
1074.21040	0.44135
1072.28184	0.44108
1070.35327	0.44092
1068.42471	0.44109
1066.49614	0.44149
1064.56758	0.44175
1062.63901	0.44196
1060.71045	0.44229
1058.78188	0.44264
1056.85332	0.44295
1054.92476	0.44335
1052.99619	0.44388
1051.06763	0.44450
1049.13906	0.44511
1047.21050	0.44539
1045.28193	0.44557
1043.35337	0.44604
1041.42480	0.44667
1039.49624	0.44715
1037.56768	0.44767
1035.63911	0.44852
1033.71055	0.44957
1031.78198	0.45059
1029.85342	0.45172
1027.92485	0.45297
1025.99629	0.45415
1024.06772	0.45528
1022.13916	0.45658
1020.21060	0.45812
1018.28203	0.45979
1016.35347	0.46132
1014.42490	0.46249
1012.49634	0.46346
1010.56777	0.46473
1008.63921	0.46631
1006.71064	0.46784
1004.78208	0.46936
1002.85352	0.47098
1000.92495	0.47265
998.99639	0.47446
997.06782	0.47654
995.13926	0.47876
993.21069	0.48104
991.28213	0.48351
989.35356	0.48616
987.42500	0.48868
985.49644	0.49114
983.56787	0.49387
981.63931	0.49679
979.71074	0.49974
977.78218	0.50281
975.85361	0.50597
973.92505	0.50908
971.99648	0.51227
970.06792	0.51580
968.13936	0.51959
966.21079	0.52342
964.28223	0.52723
962.35366	0.53103
960.42510	0.53502
958.49653	0.53932
956.56797	0.54375
954.63940	0.54821
952.71084	0.55281
950.78228	0.55748
948.85371	0.56236
946.92515	0.56768
944.99658	0.57322
943.06802	0.57866
941.13945	0.58415
939.21089	0.58994
937.28232	0.59585
935.35376	0.60175
933.42520	0.60791
931.49663	0.61440
929.56807	0.62096
927.63950	0.62751
925.71094	0.63395
923.78237	0.64073
921.85381	0.64875
919.92524	0.65751
917.99668	0.66570
916.06812	0.67327
914.13955	0.68103
912.21099	0.68929
910.28242	0.69758
908.35386	0.70612
906.42529	0.71511
904.49673	0.72367
902.56816	0.73204
900.63960	0.74107
898.71104	0.75044
896.78247	0.75995
894.85391	0.77016
892.92534	0.78040
890.99678	0.78974
889.06821	0.79933
887.13965	0.80966
885.21108	0.82021
883.28252	0.83143
881.35396	0.84302
879.42539	0.85432
877.49683	0.86484
875.56826	0.87444
873.63970	0.88452
871.71113	0.89654
869.78257	0.90991
867.85400	0.92246
865.92544	0.93305
863.99687	0.94280
862.06831	0.95351
860.13975	0.96565
858.21118	0.97883
856.28262	0.99181
854.35405	1.00364
852.42549	1.01536
850.49692	1.02683
848.56836	1.03708
846.63979	1.04769
844.71123	1.06049
842.78267	1.07379
840.85410	1.08450
838.92554	1.09383
836.99697	1.10487
835.06841	1.11669
833.13984	1.12842
831.21128	1.14073
829.28271	1.15442
827.35415	1.16966
825.42559	1.18086
823.49702	1.18701
821.56846	1.19349
819.63989	1.20176
817.71133	1.21327
815.78276	1.22835
813.85420	1.24237
811.92563	1.24935
809.99707	1.25127
808.06851	1.25541
806.13994	1.26377
804.21138	1.27821
802.28281	1.30224
800.35425	1.33708
798.42568	1.37988
796.49712	1.40201
794.56855	1.39012
792.63999	1.39137
790.71143	1.41422
788.78286	1.41226
786.85430	1.39748
784.92573	1.42339
782.99717	1.47300
781.06860	1.51552
779.14004	1.56019
777.21147	1.57566
775.28291	1.55055
773.35435	1.54013
771.42578	1.58007
769.49722	1.55078
767.56865	1.45419
765.64009	1.43480
763.71152	1.49969
761.78296	1.61843
759.85439	1.88259
757.92583	2.44574
755.99727	1.98506
754.06870	1.57536
752.14014	1.38514
750.21157	1.37480
748.28301	1.47373
746.35444	1.38558
744.42588	1.23404
742.49731	1.23374
740.56875	1.32343
738.64019	1.33323
736.71162	1.21249
734.78306	0.97807
732.85449	0.81322
730.92593	0.77082
728.99736	0.73551
727.06880	0.60302
725.14023	0.46938
723.21167	0.42237
721.28311	0.47534
719.35454	0.46229
717.42598	0.33111
715.49741	0.28794
713.56885	0.41741
711.64028	0.75762
709.71172	0.35255
707.78315	0.15659
705.85459	0.33693
703.92603	1.58538
701.99746	1.07572
700.06890	0.29004
698.14033	0.12672
696.21177	0.10727
694.28320	0.15621
692.35464	0.27503
690.42607	0.49641
688.49751	0.72856
686.56895	0.54723
684.64038	0.31184
682.71182	0.16619
680.78325	0.09774
678.85469	0.15679
676.92612	0.25688
674.99756	0.23922
673.06899	0.28702
671.14043	0.50182
669.21187	0.61952
667.28330	0.57972
665.35474	0.60498
663.42617	0.75515
661.49761	0.79934
659.56904	0.45431
657.64048	0.29923
655.71191	0.36238
653.78335	0.61188
651.85479	1.05133
649.92622	0.68018
647.99766	0.37880
646.06909	0.23418
644.14053	0.21454
642.21196	0.29254
640.28340	0.33288
638.35483	0.32320
636.42627	0.42097
634.49771	0.75690
632.56914	0.72476
630.64058	0.39990
628.71201	0.29165
626.78345	0.22376
624.85488	0.18979
622.92632	0.21432
620.99775	0.24879
619.06919	0.24860
617.14062	0.24310
615.21206	0.27422
613.28350	0.27629
611.35493	0.30045
609.42637	0.56490
607.49780	3.64499
605.56924	3.63342
603.64067	0.72751
601.71211	0.43173
599.78354	0.38293
597.85498	0.41653
595.92642	0.33778
593.99785	0.15350
592.06929	0.08904
590.14072	0.11614
588.21216	0.24341
586.28359	0.54936
584.35503	0.66679
582.42646	0.36794
580.49790	0.25409
578.56934	0.23533
576.64077	0.23846
574.71221	0.25263
572.78364	0.33217
570.85508	0.60649
568.92651	0.68846
566.99795	0.29213
565.06938	0.20597
563.14082	0.24321
561.21226	0.25188
559.28369	0.24745
557.35513	0.24932
555.42656	0.25608
553.49800	0.26293
551.56943	0.24259
549.64087	0.22825
547.71230	0.26551
545.78374	0.30097
543.85518	0.32104
541.92661	0.39082
539.99805	0.50968
538.06948	0.53377
536.14092	0.50147
534.21235	0.57313
532.28379	0.75615
530.35522	0.54985
528.42666	0.31097
526.49810	0.22085
524.56953	0.22771
522.64097	0.29357
520.71240	0.33807
518.78384	0.28832
516.85527	0.22397
514.92671	0.20107
512.99814	0.21119
511.06958	0.22367
509.14102	0.23931
507.21245	0.28715
505.28389	0.33002
503.35532	0.32324
501.42676	0.30624
499.49819	0.28309
