3997.91411	0.06146
3995.98555	0.06161
3994.05698	0.06177
3992.12842	0.06201
3990.19985	0.06237
3988.27129	0.06261
3986.34272	0.06265
3984.41416	0.06294
3982.48560	0.06340
3980.55703	0.06368
3978.62847	0.06402
3976.69990	0.06439
3974.77134	0.06449
3972.84277	0.06445
3970.91421	0.06459
3968.98564	0.06497
3967.05708	0.06533
3965.12852	0.06530
3963.19995	0.06495
3961.27139	0.06506
3959.34282	0.06598
3957.41426	0.06664
3955.48569	0.06633
3953.55713	0.06570
3951.62856	0.06537
3949.70000	0.06546
3947.77144	0.06585
3945.84287	0.06615
3943.91431	0.06610
3941.98574	0.06603
3940.05718	0.06633
3938.12861	0.06672
3936.20005	0.06664
3934.27148	0.06637
3932.34292	0.06650
3930.41436	0.06666
3928.48579	0.06638
3926.55723	0.06596
3924.62866	0.06581
3922.70010	0.06581
3920.77153	0.06590
3918.84297	0.06621
3916.91440	0.06633
3914.98584	0.06611
3913.05728	0.06584
3911.12871	0.06553
3909.20015	0.06540
3907.27158	0.06552
3905.34302	0.06553
3903.41445	0.06565
3901.48589	0.06625
3899.55732	0.06666
3897.62876	0.06639
3895.70020	0.06599
3893.77163	0.06580
3891.84307	0.06551
3889.91450	0.06515
3887.98594	0.06521
3886.05737	0.06566
3884.12881	0.06595
3882.20024	0.06583
3880.27168	0.06604
3878.34312	0.06658
3876.41455	0.06652
3874.48599	0.06615
3872.55742	0.06612
3870.62886	0.06673
3868.70029	0.06775
3866.77173	0.06816
3864.84316	0.06825
3862.91460	0.06883
3860.98604	0.06942
3859.05747	0.06945
3857.12891	0.06912
3855.20034	0.06880
3853.27178	0.06934
3851.34321	0.07128
3849.41465	0.07234
3847.48608	0.07240
3845.55752	0.07218
3843.62896	0.07206
3841.70039	0.07261
3839.77183	0.07354
3837.84326	0.07456
3835.91470	0.07566
3833.98613	0.07606
3832.05757	0.07591
3830.12900	0.07629
3828.20044	0.07726
3826.27187	0.07850
3824.34331	0.07970
3822.41475	0.08038
3820.48618	0.08107
3818.55762	0.08203
3816.62905	0.08291
3814.70049	0.08401
3812.77192	0.08466
3810.84336	0.08494
3808.91479	0.08570
3806.98623	0.08701
3805.05767	0.08817
3803.12910	0.08891
3801.20054	0.09030
3799.27197	0.09233
3797.34341	0.09356
3795.41484	0.09479
3793.48628	0.09643
3791.55771	0.09780
3789.62915	0.09876
3787.70059	0.09969
3785.77202	0.10101
3783.84346	0.10268
3781.91489	0.10413
3779.98633	0.10544
3778.05776	0.10739
3776.12920	0.10924
3774.20063	0.11038
3772.27207	0.11153
3770.34351	0.11328
3768.41494	0.11564
3766.48638	0.11790
3764.55781	0.11996
3762.62925	0.12182
3760.70068	0.12353
3758.77212	0.12577
3756.84355	0.12822
3754.91499	0.12994
3752.98643	0.13133
3751.05786	0.13377
3749.12930	0.13807
3747.20073	0.14189
3745.27217	0.14487
3743.34360	0.14888
3741.41504	0.15260
3739.48647	0.15489
3737.55791	0.15708
3735.62935	0.16055
3733.70078	0.16614
3731.77222	0.17202
3729.84365	0.17664
3727.91509	0.18063
3725.98652	0.18547
3724.05796	0.19190
3722.12939	0.19949
3720.20083	0.20753
3718.27227	0.21527
3716.34370	0.22301
3714.41514	0.23081
3712.48657	0.23955
3710.55801	0.25170
3708.62944	0.26575
3706.70088	0.27813
3704.77231	0.29000
3702.84375	0.30344
3700.91519	0.32033
3698.98662	0.33890
3697.05806	0.35667
3695.12949	0.37548
3693.20093	0.39534
3691.27236	0.41660
3689.34380	0.44429
3687.41523	0.47925
3685.48667	0.51053
3683.55811	0.53734
3681.62954	0.56553
3679.70098	0.59692
3677.77241	0.62995
3675.84385	0.66926
3673.91528	0.72260
3671.98672	0.76687
3670.05815	0.80577
3668.12959	0.85923
3666.20103	0.90951
3664.27246	0.95149
3662.34390	0.99535
3660.41533	1.04256
3658.48677	1.08923
3656.55820	1.13841
3654.62964	1.19312
3652.70107	1.23929
3650.77251	1.27905
3648.84395	1.33363
3646.91538	1.40196
3644.98682	1.45400
3643.05825	1.49427
3641.12969	1.53525
3639.20112	1.58064
3637.27256	1.62597
3635.34399	1.66867
3633.41543	1.71031
3631.48687	1.74967
3629.55830	1.79039
3627.62974	1.84384
3625.70117	1.89474
3623.77261	1.92996
3621.84404	1.96309
3619.91548	2.00033
3617.98691	2.04561
3616.05835	2.09041
3614.12979	2.12865
3612.20122	2.16823
3610.27266	2.20666
3608.34409	2.24477
3606.41553	2.28722
3604.48696	2.32826
3602.55840	2.36421
3600.62983	2.40173
3598.70127	2.44297
3596.77271	2.48368
3594.84414	2.52406
3592.91558	2.56569
3590.98701	2.60555
3589.05845	2.64227
3587.12988	2.68489
3585.20132	2.73215
3583.27275	2.77352
3581.34419	2.81295
3579.41562	2.85515
3577.48706	2.89759
3575.55850	2.93834
3573.62993	2.98102
3571.70137	3.02496
3569.77280	3.06704
3567.84424	3.10859
3565.91567	3.15840
3563.98711	3.21016
3562.05854	3.25229
3560.12998	3.29215
3558.20142	3.33544
3556.27285	3.38104
3554.34429	3.42653
3552.41572	3.47329
3550.48716	3.52001
3548.55859	3.56462
3546.63003	3.60886
3544.70146	3.65480
3542.77290	3.70118
3540.84434	3.74816
3538.91577	3.79529
3536.98721	3.83993
3535.05864	3.88665
3533.13008	3.93655
3531.20151	3.98500
3529.27295	4.03158
3527.34438	4.07919
3525.41582	4.12794
3523.48726	4.17835
3521.55869	4.23010
3519.63013	4.27700
3517.70156	4.31788
3515.77300	4.35903
3513.84443	4.40827
3511.91587	4.46341
3509.98730	4.51568
3508.05874	4.56184
3506.13018	4.60527
3504.20161	4.65189
3502.27305	4.70443
3500.34448	4.75532
3498.41592	4.79518
3496.48735	4.83191
3494.55879	4.87720
3492.63022	4.93026
3490.70166	4.98485
3488.77310	5.03368
3486.84453	5.07702
3484.91597	5.12621
3482.98740	5.17915
3481.05884	5.22425
3479.13027	5.26266
3477.20171	5.30484
3475.27314	5.35577
3473.34458	5.41143
3471.41602	5.46218
3469.48745	5.50652
3467.55889	5.55553
3465.63032	5.61062
3463.70176	5.66020
3461.77319	5.69731
3459.84463	5.73999
3457.91606	5.80337
3455.98750	5.87262
3454.05894	5.92989
3452.13037	5.97318
3450.20181	6.01614
3448.27324	6.06273
3446.34468	6.10677
3444.41611	6.15327
3442.48755	6.20933
3440.55898	6.25887
3438.63042	6.30073
3436.70186	6.35367
3434.77329	6.40068
3432.84473	6.42727
3430.91616	6.45437
3428.98760	6.50347
3427.05903	6.56477
3425.13047	6.62051
3423.20190	6.67777
3421.27334	6.73960
3419.34478	6.78956
3417.41621	6.83080
3415.48765	6.87517
3413.55908	6.92061
3411.63052	6.96408
3409.70195	7.02222
3407.77339	7.10439
3405.84482	7.15451
3403.91626	7.17237
3401.98770	7.20218
3400.05913	7.24184
3398.13057	7.28842
3396.20200	7.32153
3394.27344	7.31999
3392.34487	7.29817
3390.41631	7.31124
3388.48774	7.38987
3386.55918	7.49729
3384.63062	7.57783
3382.70205	7.62812
3380.77349	7.62663
3378.84492	7.58064
3376.91636	7.57041
3374.98779	7.58944
3373.05923	7.62039
3371.13066	7.66197
3369.20210	7.68911
3367.27354	7.69771
3365.34497	7.70847
3363.41641	7.72869
3361.48784	7.76270
3359.55928	7.80117
3357.63071	7.81934
3355.70215	7.84972
3353.77358	7.89687
3351.84502	7.93292
3349.91646	7.92563
3347.98789	7.90217
3346.05933	7.91367
3344.13076	7.96846
3342.20220	8.05469
3340.27363	8.06247
3338.34507	7.96075
3336.41650	7.86428
3334.48794	7.85345
3332.55937	7.90628
3330.63081	7.94714
3328.70225	7.95370
3326.77368	7.97228
3324.84512	8.01003
3322.91655	8.02351
3320.98799	8.02062
3319.05942	8.02063
3317.13086	8.03482
3315.20229	8.04098
3313.27373	8.03869
3311.34517	8.02976
3309.41660	7.98371
3307.48804	7.96236
3305.55947	8.01028
3303.63091	8.07845
3301.70234	8.14230
3299.77378	8.21975
3297.84521	8.28072
3295.91665	8.29073
3293.98809	8.24634
3292.05952	8.19620
3290.13096	8.19627
3288.20239	8.18825
3286.27383	8.11953
3284.34526	8.07859
3282.41670	8.09395
3280.48813	8.06172
3278.55957	8.01685
3276.63101	8.08073
3274.70244	8.23270
3272.77388	8.30071
3270.84531	8.18629
3268.91675	8.04320
3266.98818	8.02412
3265.05962	8.12192
3263.13105	8.22860
3261.20249	8.27617
3259.27393	8.28792
3257.34536	8.29705
3255.41680	8.26295
3253.48823	8.20632
3251.55967	8.17215
3249.63110	8.15175
3247.70254	8.17191
3245.77397	8.16142
3243.84541	8.06193
3241.91685	7.98414
3239.98828	7.98261
3238.05972	8.00299
3236.13115	8.02987
3234.20259	8.05312
3232.27402	8.01919
3230.34546	7.97720
3228.41689	7.99745
3226.48833	8.04231
3224.55977	8.03357
3222.63120	7.98035
3220.70264	7.95967
3218.77407	7.97117
3216.84551	7.95684
3214.91694	7.92931
3212.98838	7.89270
3211.05981	7.81575
3209.13125	7.76372
3207.20269	7.79168
3205.27412	7.81064
3203.34556	7.77791
3201.41699	7.77414
3199.48843	7.76766
3197.55986	7.69713
3195.63130	7.60985
3193.70273	7.52906
3191.77417	7.45230
3189.84561	7.39579
3187.91704	7.35798
3185.98848	7.33216
3184.05991	7.31019
3182.13135	7.26679
3180.20278	7.21663
3178.27422	7.17023
3176.34565	7.09264
3174.41709	7.00911
3172.48853	6.96291
3170.55996	6.92187
3168.63140	6.86751
3166.70283	6.81972
3164.77427	6.75962
3162.84570	6.68238
3160.91714	6.62105
3158.98857	6.57416
3157.06001	6.51282
3155.13145	6.42944
3153.20288	6.34429
3151.27432	6.28243
3149.34575	6.22994
3147.41719	6.16143
3145.48862	6.09197
3143.56006	6.03152
3141.63149	5.96668
3139.70293	5.89206
3137.77437	5.81179
3135.84580	5.73456
3133.91724	5.67066
3131.98867	5.61221
3130.06011	5.54301
3128.13154	5.46583
3126.20298	5.39076
3124.27441	5.31995
3122.34585	5.24613
3120.41729	5.16588
3118.48872	5.09107
3116.56016	5.02957
3114.63159	4.97048
3112.70303	4.90950
3110.77446	4.85110
3108.84590	4.78745
3106.91733	4.71665
3104.98877	4.64740
3103.06021	4.58124
3101.13164	4.51421
3099.20308	4.44690
3097.27451	4.38215
3095.34595	4.31834
3093.41738	4.25269
3091.48882	4.18707
3089.56025	4.12453
3087.63169	4.06191
3085.70312	3.99800
3083.77456	3.93778
3081.84600	3.88089
3079.91743	3.82192
3077.98887	3.76073
3076.06030	3.70167
3074.13174	3.64489
3072.20317	3.58776
3070.27461	3.53010
3068.34604	3.47279
3066.41748	3.41646
3064.48892	3.36135
3062.56035	3.30708
3060.63179	3.25383
3058.70322	3.20175
3056.77466	3.15023
3054.84609	3.09882
3052.91753	3.04782
3050.98896	2.99770
3049.06040	2.94788
3047.13184	2.89729
3045.20327	2.84691
3043.27471	2.79842
3041.34614	2.75138
3039.41758	2.70531
3037.48901	2.66017
3035.56045	2.61497
3033.63188	2.56983
3031.70332	2.52593
3029.77476	2.48344
3027.84619	2.44148
3025.91763	2.39984
3023.98906	2.35866
3022.06050	2.31717
3020.13193	2.27544
3018.20337	2.23495
3016.27480	2.19608
3014.34624	2.15773
3012.41768	2.11932
3010.48911	2.08113
3008.56055	2.04397
3006.63198	2.00850
3004.70342	1.97415
3002.77485	1.94037
3000.84629	1.90691
2998.91772	1.87329
2996.98916	1.84044
2995.06060	1.80933
2993.13203	1.77891
2991.20347	1.74855
2989.27490	1.71864
2987.34634	1.68924
2985.41777	1.66072
2983.48921	1.63328
2981.56064	1.60646
2979.63208	1.57990
2977.70352	1.55373
2975.77495	1.52812
2973.84639	1.50269
2971.91782	1.47753
2969.98926	1.45337
2968.06069	1.42992
2966.13213	1.40650
2964.20356	1.38303
2962.27500	1.35960
2960.34644	1.33631
2958.41787	1.31332
2956.48931	1.29074
2954.56074	1.26822
2952.63218	1.24535
2950.70361	1.22261
2948.77505	1.20067
2946.84648	1.17925
2944.91792	1.15796
2942.98936	1.13705
2941.06079	1.11682
2939.13223	1.09731
2937.20366	1.07836
2935.27510	1.05945
2933.34653	1.04033
2931.41797	1.02138
2929.48940	1.00305
2927.56084	0.98485
2925.63228	0.96646
2923.70371	0.94891
2921.77515	0.93228
2919.84658	0.91553
2917.91802	0.89876
2915.98945	0.88239
2914.06089	0.86654
2912.13232	0.85109
2910.20376	0.83565
2908.27520	0.81994
2906.34663	0.80443
2904.41807	0.78971
2902.48950	0.77573
2900.56094	0.76241
2898.63237	0.74958
2896.70381	0.73679
2894.77524	0.72439
2892.84668	0.71282
2890.91812	0.70145
2888.98955	0.68981
2887.06099	0.67819
2885.13242	0.66727
2883.20386	0.65732
2881.27529	0.64767
2879.34673	0.63782
2877.41816	0.62809
2875.48960	0.61853
2873.56104	0.60883
2871.63247	0.59893
2869.70391	0.58863
2867.77534	0.57777
2865.84678	0.56660
2863.91821	0.55547
2861.98965	0.54475
2860.06108	0.53460
2858.13252	0.52485
2856.20396	0.51553
2854.27539	0.50700
2852.34683	0.49892
2850.41826	0.49063
2848.48970	0.48205
2846.56113	0.47369
2844.63257	0.46604
2842.70400	0.45897
2840.77544	0.45223
2838.84687	0.44584
2836.91831	0.43972
2834.98975	0.43375
2833.06118	0.42781
2831.13262	0.42183
2829.20405	0.41590
2827.27549	0.41009
2825.34692	0.40436
2823.41836	0.39859
2821.48979	0.39277
2819.56123	0.38699
2817.63267	0.38128
2815.70410	0.37564
2813.77554	0.37009
2811.84697	0.36462
2809.91841	0.35922
2807.98984	0.35388
2806.06128	0.34872
2804.13271	0.34389
2802.20415	0.33917
2800.27559	0.33430
2798.34702	0.32950
2796.41846	0.32489
2794.48989	0.32023
2792.56133	0.31553
2790.63276	0.31112
2788.70420	0.30699
2786.77563	0.30288
2784.84707	0.29867
2782.91851	0.29438
2780.98994	0.29022
2779.06138	0.28629
2777.13281	0.28244
2775.20425	0.27868
2773.27568	0.27500
2771.34712	0.27139
2769.41855	0.26786
2767.48999	0.26447
2765.56143	0.26110
2763.63286	0.25771
2761.70430	0.25447
2759.77573	0.25135
2757.84717	0.24818
2755.91860	0.24509
2753.99004	0.24220
2752.06147	0.23937
2750.13291	0.23645
2748.20435	0.23350
2746.27578	0.23069
2744.34722	0.22804
2742.41865	0.22546
2740.49009	0.22291
2738.56152	0.22036
2736.63296	0.21791
2734.70439	0.21556
2732.77583	0.21306
2730.84727	0.21053
2728.91870	0.20831
2726.99014	0.20625
2725.06157	0.20420
2723.13301	0.20231
2721.20444	0.20052
2719.27588	0.19856
2717.34731	0.19646
2715.41875	0.19446
2713.49019	0.19264
2711.56162	0.19088
2709.63306	0.18917
2707.70449	0.18752
2705.77593	0.18591
2703.84736	0.18430
2701.91880	0.18284
2699.99023	0.18136
2698.06167	0.17966
2696.13311	0.17808
2694.20454	0.17685
2692.27598	0.17569
2690.34741	0.17445
2688.41885	0.17330
2686.49028	0.17220
2684.56172	0.17099
2682.63315	0.16978
2680.70459	0.16862
2678.77603	0.16742
2676.84746	0.16621
2674.91890	0.16509
2672.99033	0.16400
2671.06177	0.16297
2669.13320	0.16193
2667.20464	0.16078
2665.27607	0.15971
2663.34751	0.15888
2661.41895	0.15823
2659.49038	0.15763
2657.56182	0.15699
2655.63325	0.15630
2653.70469	0.15552
2651.77612	0.15472
2649.84756	0.15406
2647.91899	0.15345
2645.99043	0.15277
2644.06187	0.15213
2642.13330	0.15160
2640.20474	0.15113
2638.27617	0.15070
2636.34761	0.15032
2634.41904	0.14993
2632.49048	0.14946
2630.56191	0.14905
2628.63335	0.14879
2626.70479	0.14844
2624.77622	0.14790
2622.84766	0.14751
2620.91909	0.14733
2618.99053	0.14715
2617.06196	0.14700
2615.13340	0.14689
2613.20483	0.14665
2611.27627	0.14642
2609.34771	0.14637
2607.41914	0.14631
2605.49058	0.14608
2603.56201	0.14586
2601.63345	0.14576
2599.70488	0.14572
2597.77632	0.14578
2595.84775	0.14588
2593.91919	0.14600
2591.99062	0.14614
2590.06206	0.14621
2588.13350	0.14632
2586.20493	0.14647
2584.27637	0.14647
2582.34780	0.14655
2580.41924	0.14694
2578.49067	0.14740
2576.56211	0.14777
2574.63354	0.14811
2572.70498	0.14840
2570.77642	0.14864
2568.84785	0.14885
2566.91929	0.14914
2564.99072	0.14959
2563.06216	0.15011
2561.13359	0.15059
2559.20503	0.15109
2557.27646	0.15160
2555.34790	0.15198
2553.41934	0.15234
2551.49077	0.15283
2549.56221	0.15332
2547.63364	0.15372
2545.70508	0.15416
2543.77651	0.15476
2541.84795	0.15540
2539.91938	0.15597
2537.99082	0.15664
2536.06226	0.15750
2534.13369	0.15822
2532.20513	0.15866
2530.27656	0.15912
2528.34800	0.15973
2526.41943	0.16039
2524.49087	0.16109
2522.56230	0.16194
2520.63374	0.16283
2518.70518	0.16354
2516.77661	0.16424
2514.84805	0.16498
2512.91948	0.16562
2510.99092	0.16632
2509.06235	0.16720
2507.13379	0.16800
2505.20522	0.16865
2503.27666	0.16932
2501.34810	0.17007
2499.41953	0.17085
2497.49097	0.17162
2495.56240	0.17254
2493.63384	0.17362
2491.70527	0.17454
2489.77671	0.17530
2487.84814	0.17615
2485.91958	0.17706
2483.99102	0.17795
2482.06245	0.17885
2480.13389	0.17975
2478.20532	0.18053
2476.27676	0.18119
2474.34819	0.18194
2472.41963	0.18290
2470.49106	0.18388
2468.56250	0.18472
2466.63394	0.18554
2464.70537	0.18648
2462.77681	0.18739
2460.84824	0.18826
2458.91968	0.18918
2456.99111	0.19016
2455.06255	0.19111
2453.13398	0.19204
2451.20542	0.19297
2449.27686	0.19390
2447.34829	0.19480
2445.41973	0.19561
2443.49116	0.19654
2441.56260	0.19770
2439.63403	0.19890
2437.70547	0.19997
2435.77690	0.20102
2433.84834	0.20208
2431.91978	0.20308
2429.99121	0.20405
2428.06265	0.20507
2426.13408	0.20613
2424.20552	0.20718
2422.27695	0.20817
2420.34839	0.20915
2418.41982	0.21029
2416.49126	0.21156
2414.56270	0.21271
2412.63413	0.21372
2410.70557	0.21480
2408.77700	0.21598
2406.84844	0.21716
2404.91987	0.21832
2402.99131	0.21949
2401.06274	0.22064
2399.13418	0.22180
2397.20562	0.22307
2395.27705	0.22446
2393.34849	0.22581
2391.41992	0.22695
2389.49136	0.22800
2387.56279	0.22912
2385.63423	0.23001
2383.70566	0.23048
2381.77710	0.23047
2379.84854	0.22992
2377.91997	0.22910
2375.99141	0.22845
2374.06284	0.22794
2372.13428	0.22694
2370.20571	0.22515
2368.27715	0.22294
2366.34858	0.22107
2364.42002	0.22007
2362.49146	0.22011
2360.56289	0.22119
2358.63433	0.22345
2356.70576	0.22677
2354.77720	0.23060
2352.84863	0.23521
2350.92007	0.24014
2348.99150	0.24349
2347.06294	0.24464
2345.13437	0.24432
2343.20581	0.24389
2341.27725	0.24457
2339.34868	0.24615
2337.42012	0.24793
2335.49155	0.25010
2333.56299	0.25254
2331.63442	0.25454
2329.70586	0.25630
2327.77729	0.25860
2325.84873	0.26119
2323.92017	0.26355
2321.99160	0.26604
2320.06304	0.26917
2318.13447	0.27278
2316.20591	0.27615
2314.27734	0.27883
2312.34878	0.28085
2310.42021	0.28289
2308.49165	0.28553
2306.56309	0.28838
2304.63452	0.29091
2302.70596	0.29318
2300.77739	0.29546
2298.84883	0.29777
2296.92026	0.30007
2294.99170	0.30233
2293.06313	0.30453
2291.13457	0.30667
2289.20601	0.30879
2287.27744	0.31095
2285.34888	0.31316
2283.42031	0.31531
2281.49175	0.31730
2279.56318	0.31929
2277.63462	0.32130
2275.70605	0.32322
2273.77749	0.32510
2271.84893	0.32710
2269.92036	0.32916
2267.99180	0.33118
2266.06323	0.33320
2264.13467	0.33529
2262.20610	0.33745
2260.27754	0.33967
2258.34897	0.34189
2256.42041	0.34405
2254.49185	0.34621
2252.56328	0.34841
2250.63472	0.35060
2248.70615	0.35276
2246.77759	0.35491
2244.84902	0.35711
2242.92046	0.35940
2240.99189	0.36171
2239.06333	0.36395
2237.13477	0.36614
2235.20620	0.36830
2233.27764	0.37052
2231.34907	0.37274
2229.42051	0.37487
2227.49194	0.37698
2225.56338	0.37916
2223.63481	0.38141
2221.70625	0.38363
2219.77769	0.38576
2217.84912	0.38785
2215.92056	0.39003
2213.99199	0.39225
2212.06343	0.39448
2210.13486	0.39664
2208.20630	0.39868
2206.27773	0.40075
2204.34917	0.40290
2202.42061	0.40492
2200.49204	0.40684
2198.56348	0.40881
2196.63491	0.41078
2194.70635	0.41270
2192.77778	0.41460
2190.84922	0.41642
2188.92065	0.41810
2186.99209	0.41981
2185.06353	0.42167
2183.13496	0.42346
2181.20640	0.42514
2179.27783	0.42681
2177.34927	0.42843
2175.42070	0.42991
2173.49214	0.43137
2171.56357	0.43288
2169.63501	0.43441
2167.70645	0.43589
2165.77788	0.43720
2163.84932	0.43840
2161.92075	0.43956
2159.99219	0.44060
2158.06362	0.44150
2156.13506	0.44245
2154.20649	0.44343
2152.27793	0.44441
2150.34937	0.44524
2148.42080	0.44588
2146.49224	0.44641
2144.56367	0.44688
2142.63511	0.44732
2140.70654	0.44777
2138.77798	0.44823
2136.84941	0.44857
2134.92085	0.44867
2132.99229	0.44866
2131.06372	0.44868
2129.13516	0.44862
2127.20659	0.44845
2125.27803	0.44817
2123.34946	0.44775
2121.42090	0.44733
2119.49233	0.44696
2117.56377	0.44648
2115.63521	0.44585
2113.70664	0.44517
2111.77808	0.44440
2109.84951	0.44353
2107.92095	0.44263
2105.99238	0.44167
2104.06382	0.44057
2102.13525	0.43933
2100.20669	0.43802
2098.27812	0.43667
2096.34956	0.43531
2094.42100	0.43390
2092.49243	0.43238
2090.56387	0.43075
2088.63530	0.42905
2086.70674	0.42736
2084.77817	0.42567
2082.84961	0.42393
2080.92104	0.42206
2078.99248	0.42004
2077.06392	0.41804
2075.13535	0.41618
2073.20679	0.41430
2071.27822	0.41223
2069.34966	0.41004
2067.42109	0.40777
2065.49253	0.40550
2063.56396	0.40325
2061.63540	0.40096
2059.70684	0.39855
2057.77827	0.39601
2055.84971	0.39345
2053.92114	0.39098
2051.99258	0.38857
2050.06401	0.38611
2048.13545	0.38360
2046.20688	0.38103
2044.27832	0.37833
2042.34976	0.37557
2040.42119	0.37288
2038.49263	0.37033
2036.56406	0.36780
2034.63550	0.36517
2032.70693	0.36244
2030.77837	0.35969
2028.84980	0.35700
2026.92124	0.35434
2024.99268	0.35161
2023.06411	0.34890
2021.13555	0.34627
2019.20698	0.34360
2017.27842	0.34087
2015.34985	0.33811
2013.42129	0.33536
2011.49272	0.33261
2009.56416	0.32983
2007.63560	0.32714
2005.70703	0.32463
2003.77847	0.32214
2001.84990	0.31957
1999.92134	0.31696
1997.99277	0.31431
1996.06421	0.31174
1994.13564	0.30929
1992.20708	0.30684
1990.27852	0.30433
1988.34995	0.30187
1986.42139	0.29945
1984.49282	0.29709
1982.56426	0.29478
1980.63569	0.29246
1978.70713	0.29014
1976.77856	0.28785
1974.85000	0.28564
1972.92144	0.28356
1970.99287	0.28153
1969.06431	0.27947
1967.13574	0.27746
1965.20718	0.27545
1963.27861	0.27346
1961.35005	0.27148
1959.42148	0.26950
1957.49292	0.26761
1955.56436	0.26584
1953.63579	0.26415
1951.70723	0.26241
1949.77866	0.26070
1947.85010	0.25909
1945.92153	0.25763
1943.99297	0.25618
1942.06440	0.25464
1940.13584	0.25317
1938.20728	0.25179
1936.27871	0.25041
1934.35015	0.24904
1932.42158	0.24777
1930.49302	0.24658
1928.56445	0.24554
1926.63589	0.24456
1924.70732	0.24355
1922.77876	0.24251
1920.85020	0.24146
1918.92163	0.24047
1916.99307	0.23951
1915.06450	0.23859
1913.13594	0.23772
1911.20737	0.23699
1909.27881	0.23635
1907.35024	0.23574
1905.42168	0.23508
1903.49312	0.23443
1901.56455	0.23377
1899.63599	0.23313
1897.70742	0.23267
1895.77886	0.23235
1893.85029	0.23204
1891.92173	0.23165
1889.99316	0.23137
1888.06460	0.23115
1886.13604	0.23084
1884.20747	0.23059
1882.27891	0.23050
1880.35034	0.23046
1878.42178	0.23037
1876.49321	0.23031
1874.56465	0.23024
1872.63608	0.23021
1870.70752	0.23027
1868.77896	0.23067
1866.85039	0.23113
1864.92183	0.23122
1862.99326	0.23121
1861.06470	0.23133
1859.13613	0.23161
1857.20757	0.23195
1855.27900	0.23241
1853.35044	0.23287
1851.42187	0.23335
1849.49331	0.23390
1847.56475	0.23443
1845.63618	0.23496
1843.70762	0.23583
1841.77905	0.23687
1839.85049	0.23757
1837.92192	0.23835
1835.99336	0.23928
1834.06479	0.24023
1832.13623	0.24112
1830.20767	0.24226
1828.27910	0.24366
1826.35054	0.24493
1824.42197	0.24632
1822.49341	0.24762
1820.56484	0.24883
1818.63628	0.25014
1816.70771	0.25168
1814.77915	0.25328
1812.85059	0.25498
1810.92202	0.25688
1808.99346	0.25887
1807.06489	0.26084
1805.13633	0.26280
1803.20776	0.26496
1801.27920	0.26730
1799.35063	0.26994
1797.42207	0.27244
1795.49351	0.27477
1793.56494	0.27735
1791.63638	0.28082
1789.70781	0.28450
1787.77925	0.28736
1785.85068	0.29042
1783.92212	0.29394
1781.99355	0.29780
1780.06499	0.30196
1778.13643	0.30621
1776.20786	0.31005
1774.27930	0.31404
1772.35073	0.31951
1770.42217	0.32576
1768.49360	0.33130
1766.56504	0.33664
1764.63647	0.34191
1762.70791	0.34754
1760.77935	0.35488
1758.85078	0.36202
1756.92222	0.36911
1754.99365	0.37680
1753.06509	0.38367
1751.13652	0.39170
1749.20796	0.40197
1747.27939	0.41233
1745.35083	0.42148
1743.42227	0.43097
1741.49370	0.44131
1739.56514	0.45349
1737.63657	0.46572
1735.70801	0.47632
1733.77944	0.49234
1731.85088	0.51198
1729.92231	0.52747
1727.99375	0.54289
1726.06519	0.55953
1724.13662	0.57773
1722.20806	0.59724
1720.27949	0.61507
1718.35093	0.63578
1716.42236	0.66684
1714.49380	0.69738
1712.56523	0.72248
1710.63667	0.74648
1708.70811	0.77194
1706.77954	0.80065
1704.85098	0.83509
1702.92241	0.86631
1700.99385	0.89717
1699.06528	0.94260
1697.13672	0.98492
1695.20815	1.02914
1693.27959	1.07247
1691.35103	1.10720
1689.42246	1.14691
1687.49390	1.18879
1685.56533	1.22900
1683.63677	1.29141
1681.70820	1.35821
1679.77964	1.40188
1677.85107	1.44281
1675.92251	1.48932
1673.99395	1.54679
1672.06538	1.59822
1670.13682	1.64857
1668.20825	1.71476
1666.27969	1.76988
1664.35112	1.81640
1662.42256	1.87504
1660.49399	1.94359
1658.56543	1.99813
1656.63687	2.04101
1654.70830	2.07921
1652.77974	2.13914
1650.85117	2.19734
1648.92261	2.21779
1646.99404	2.24176
1645.06548	2.26830
1643.13691	2.28708
1641.20835	2.29928
1639.27979	2.30900
1637.35122	2.31115
1635.42266	2.30704
1633.49409	2.30124
1631.56553	2.28946
1629.63696	2.27247
1627.70840	2.24310
1625.77983	2.20761
1623.85127	2.16331
1621.92271	2.11114
1619.99414	2.06573
1618.06558	2.02150
1616.13701	1.95854
1614.20845	1.89395
1612.27988	1.84374
1610.35132	1.79097
1608.42275	1.73443
1606.49419	1.67918
1604.56562	1.62787
1602.63706	1.57788
1600.70850	1.52925
1598.77993	1.48473
1596.85137	1.44286
1594.92280	1.40243
1592.99424	1.36401
1591.06567	1.32890
1589.13711	1.29584
1587.20854	1.26534
1585.27998	1.23758
1583.35142	1.21180
1581.42285	1.18831
1579.49429	1.16827
1577.56572	1.15039
1575.63716	1.12939
1573.70859	1.11142
1571.78003	1.09970
1569.85146	1.08784
1567.92290	1.07539
1565.99434	1.06627
1564.06577	1.05952
1562.13721	1.05467
1560.20864	1.05216
1558.28008	1.05209
1556.35151	1.05329
1554.42295	1.05379
1552.49438	1.05428
1550.56582	1.05349
1548.63726	1.05024
1546.70869	1.04446
1544.78013	1.03546
1542.85156	1.02284
1540.92300	1.00452
1538.99443	0.97780
1537.06587	0.95895
1535.13730	0.94594
1533.20874	0.92821
1531.28018	0.90898
1529.35161	0.89461
1527.42305	0.88085
1525.49448	0.86670
1523.56592	0.85466
1521.63735	0.84313
1519.70879	0.83185
1517.78022	0.82279
1515.85166	0.81246
1513.92310	0.80130
1511.99453	0.79120
1510.06597	0.78186
1508.13740	0.77279
1506.20884	0.75949
1504.28027	0.74830
1502.35171	0.74190
1500.42314	0.73605
1498.49458	0.72977
1496.56602	0.72272
1494.63745	0.71585
1492.70889	0.71040
1490.78032	0.70540
1488.85176	0.69968
1486.92319	0.69465
1484.99463	0.69092
1483.06606	0.68791
1481.13750	0.68519
1479.20894	0.68293
1477.28037	0.68159
1475.35181	0.68094
1473.42324	0.68047
1471.49468	0.67967
1469.56611	0.67825
1467.63755	0.67628
1465.70898	0.67426
1463.78042	0.67290
1461.85186	0.67224
1459.92329	0.67175
1457.99473	0.67155
1456.06616	0.67132
1454.13760	0.66971
1452.20903	0.66749
1450.28047	0.66512
1448.35190	0.66263
1446.42334	0.66010
1444.49478	0.65775
1442.56621	0.65551
1440.63765	0.65315
1438.70908	0.65053
1436.78052	0.64714
1434.85195	0.64357
1432.92339	0.64100
1430.99482	0.63926
1429.06626	0.63818
1427.13770	0.63768
1425.20913	0.63766
1423.28057	0.63794
1421.35200	0.63815
1419.42344	0.63832
1417.49487	0.63824
1415.56631	0.63738
1413.63774	0.63645
1411.70918	0.63614
1409.78062	0.63668
1407.85205	0.63778
1405.92349	0.63912
1403.99492	0.64033
1402.06636	0.64067
1400.13779	0.64011
1398.20923	0.63881
1396.28066	0.63661
1394.35210	0.63316
1392.42354	0.62910
1390.49497	0.62535
1388.56641	0.62153
1386.63784	0.61706
1384.70928	0.61256
1382.78071	0.60849
1380.85215	0.60469
1378.92358	0.60142
1376.99502	0.59891
1375.06646	0.59706
1373.13789	0.59574
1371.20933	0.59487
1369.28076	0.59411
1367.35220	0.59305
1365.42363	0.59154
1363.49507	0.58995
1361.56650	0.58857
1359.63794	0.58730
1357.70937	0.58611
1355.78081	0.58498
1353.85225	0.58389
1351.92368	0.58297
1349.99512	0.58229
1348.06655	0.58168
1346.13799	0.58088
1344.20942	0.58000
1342.28086	0.57919
1340.35229	0.57846
1338.42373	0.57774
1336.49517	0.57715
1334.56660	0.57683
1332.63804	0.57668
1330.70947	0.57661
1328.78091	0.57680
1326.85234	0.57723
1324.92378	0.57775
1322.99521	0.57836
1321.06665	0.57893
1319.13809	0.57936
1317.20952	0.57957
1315.28096	0.57949
1313.35239	0.57916
1311.42383	0.57867
1309.49526	0.57808
1307.56670	0.57751
1305.63813	0.57706
1303.70957	0.57655
1301.78101	0.57582
1299.85244	0.57487
1297.92388	0.57386
1295.99531	0.57286
1294.06675	0.57183
1292.13818	0.57079
1290.20962	0.56962
1288.28105	0.56836
1286.35249	0.56720
1284.42393	0.56614
1282.49536	0.56501
1280.56680	0.56380
1278.63823	0.56253
1276.70967	0.56123
1274.78110	0.56008
1272.85254	0.55930
1270.92397	0.55881
1268.99541	0.55826
1267.06685	0.55756
1265.13828	0.55675
1263.20972	0.55586
1261.28115	0.55500
1259.35259	0.55424
1257.42402	0.55361
1255.49546	0.55327
1253.56689	0.55316
1251.63833	0.55316
1249.70977	0.55322
1247.78120	0.55312
1245.85264	0.55282
1243.92407	0.55241
1241.99551	0.55175
1240.06694	0.55071
1238.13838	0.54927
1236.20981	0.54747
1234.28125	0.54541
1232.35269	0.54325
1230.42412	0.54123
1228.49556	0.53943
1226.56699	0.53772
1224.63843	0.53612
1222.70986	0.53469
1220.78130	0.53345
1218.85273	0.53224
1216.92417	0.53097
1214.99561	0.52985
1213.06704	0.52911
1211.13848	0.52854
1209.20991	0.52786
1207.28135	0.52712
1205.35278	0.52629
1203.42422	0.52529
1201.49565	0.52436
1199.56709	0.52369
1197.63853	0.52314
1195.70996	0.52245
1193.78140	0.52168
1191.85283	0.52115
1189.92427	0.52095
1187.99570	0.52078
1186.06714	0.52057
1184.13857	0.52056
1182.21001	0.52089
1180.28145	0.52164
1178.35288	0.52286
1176.42432	0.52418
1174.49575	0.52521
1172.56719	0.52597
1170.63862	0.52651
1168.71006	0.52677
1166.78149	0.52679
1164.85293	0.52671
1162.92437	0.52656
1160.99580	0.52633
1159.06724	0.52611
1157.13867	0.52571
1155.21011	0.52491
1153.28154	0.52367
1151.35298	0.52198
1149.42441	0.51976
1147.49585	0.51703
1145.56729	0.51416
1143.63872	0.51148
1141.71016	0.50907
1139.78159	0.50709
1137.85303	0.50568
1135.92446	0.50467
1133.99590	0.50383
1132.06733	0.50329
1130.13877	0.50310
1128.21021	0.50283
1126.28164	0.50218
1124.35308	0.50154
1122.42451	0.50118
1120.49595	0.50099
1118.56738	0.50097
1116.63882	0.50128
1114.71025	0.50187
1112.78169	0.50248
1110.85312	0.50303
1108.92456	0.50385
1106.99600	0.50497
1105.06743	0.50609
1103.13887	0.50707
1101.21030	0.50805
1099.28174	0.50935
1097.35317	0.51134
1095.42461	0.51409
1093.49604	0.51767
1091.56748	0.52229
1089.63892	0.52790
1087.71035	0.53428
1085.78179	0.54138
1083.85322	0.54887
1081.92466	0.55571
1079.99609	0.56082
1078.06753	0.56357
1076.13896	0.56364
1074.21040	0.56116
1072.28184	0.55655
1070.35327	0.55019
1068.42471	0.54308
1066.49614	0.53647
1064.56758	0.53052
1062.63901	0.52491
1060.71045	0.51987
1058.78188	0.51572
1056.85332	0.51220
1054.92476	0.50896
1052.99619	0.50594
1051.06763	0.50338
1049.13906	0.50141
1047.21050	0.49989
1045.28193	0.49882
1043.35337	0.49819
1041.42480	0.49780
1039.49624	0.49749
1037.56768	0.49720
1035.63911	0.49689
1033.71055	0.49649
1031.78198	0.49590
1029.85342	0.49509
1027.92485	0.49415
1025.99629	0.49315
1024.06772	0.49233
1022.13916	0.49196
1020.21060	0.49186
1018.28203	0.49189
1016.35347	0.49214
1014.42490	0.49246
1012.49634	0.49265
1010.56777	0.49282
1008.63921	0.49313
1006.71064	0.49381
1004.78208	0.49515
1002.85352	0.49715
1000.92495	0.49972
998.99639	0.50293
997.06782	0.50675
995.13926	0.51087
993.21069	0.51488
991.28213	0.51831
989.35356	0.52072
987.42500	0.52190
985.49644	0.52222
983.56787	0.52232
981.63931	0.52278
979.71074	0.52380
977.78218	0.52523
975.85361	0.52706
973.92505	0.52935
971.99648	0.53202
970.06792	0.53525
968.13936	0.53900
966.21079	0.54298
964.28223	0.54722
962.35366	0.55184
960.42510	0.55667
958.49653	0.56172
956.56797	0.56728
954.63940	0.57328
952.71084	0.57947
950.78228	0.58593
948.85371	0.59254
946.92515	0.59869
944.99658	0.60449
943.06802	0.61079
941.13945	0.61730
939.21089	0.62324
937.28232	0.62865
935.35376	0.63399
933.42520	0.63956
931.49663	0.64517
929.56807	0.65058
927.63950	0.65608
925.71094	0.66204
923.78237	0.66826
921.85381	0.67477
919.92524	0.68167
917.99668	0.68843
916.06812	0.69508
914.13955	0.70232
912.21099	0.70993
910.28242	0.71745
908.35386	0.72544
906.42529	0.73430
904.49673	0.74326
902.56816	0.75203
900.63960	0.76144
898.71104	0.77139
896.78247	0.78058
894.85391	0.78923
892.92534	0.79885
890.99678	0.80923
889.06821	0.81937
887.13965	0.82968
885.21108	0.84051
883.28252	0.85086
881.35396	0.86120
879.42539	0.87271
877.49683	0.88376
875.56826	0.89449
873.63970	0.90737
871.71113	0.92098
869.78257	0.93206
867.85400	0.94161
865.92544	0.95192
863.99687	0.96258
862.06831	0.97390
860.13975	0.98624
858.21118	0.99843
856.28262	1.01045
854.35405	1.02238
852.42549	1.03294
850.49692	1.04247
848.56836	1.05354
846.63979	1.06661
844.71123	1.07983
842.78267	1.09221
840.85410	1.10316
838.92554	1.11383
836.99697	1.12675
835.06841	1.13919
833.13984	1.14825
831.21128	1.15748
829.28271	1.17090
827.35415	1.18865
825.42559	1.20103
823.49702	1.20393
821.56846	1.21045
819.63989	1.22550
817.71133	1.23978
815.78276	1.24862
813.85420	1.25584
811.92563	1.26481
809.99707	1.27252
808.06851	1.27828
806.13994	1.29054
804.21138	1.30393
802.28281	1.31153
800.35425	1.32349
798.42568	1.33397
796.49712	1.32776
794.56855	1.31274
792.63999	1.29822
790.71143	1.29454
788.78286	1.31684
786.85430	1.34057
784.92573	1.35146
782.99717	1.37652
781.06860	1.40525
779.14004	1.40136
777.21147	1.36626
775.28291	1.34430
773.35435	1.34708
771.42578	1.34153
769.49722	1.31250
767.56865	1.26164
765.64009	1.21126
763.71152	1.21963
761.78296	1.27117
759.85439	1.27361
757.92583	1.23554
755.99727	1.17772
754.06870	1.13776
752.14014	1.18101
750.21157	1.26352
748.28301	1.21338
746.35444	1.08892
744.42588	1.00643
742.49731	0.96500
740.56875	0.95528
738.64019	0.94690
736.71162	0.91090
734.78306	0.84260
732.85449	0.73371
730.92593	0.64770
728.99736	0.62279
727.06880	0.55152
725.14023	0.45084
723.21167	0.43005
721.28311	0.37691
719.35454	0.23998
717.42598	0.19582
715.49741	0.19607
713.56885	0.16176
711.64028	0.20749
709.71172	0.36512
707.78315	0.51788
705.85459	0.55510
703.92603	0.43860
701.99746	0.22935
700.06890	0.09901
698.14033	0.06774
696.21177	0.08831
694.28320	0.15956
692.35464	0.22695
690.42607	0.23676
688.49751	0.24391
686.56895	0.23286
684.64038	0.18360
682.71182	0.13825
680.78325	0.15201
678.85469	0.23151
676.92612	0.26240
674.99756	0.19633
673.06899	0.17042
671.14043	0.15669
669.21187	0.11868
667.28330	0.11448
665.35474	0.16041
663.42617	0.23931
661.49761	0.29275
659.56904	0.26496
657.64048	0.24878
655.71191	0.28086
653.78335	0.27916
651.85479	0.22512
649.92622	0.19370
647.99766	0.21708
646.06909	0.27584
644.14053	0.32035
642.21196	0.26296
640.28340	0.20841
638.35483	0.27479
636.42627	0.31825
634.49771	0.22870
632.56914	0.23706
630.64058	0.56000
628.71201	0.77724
626.78345	0.35964
624.85488	0.17644
622.92632	0.07899
620.99775	0.09099
619.06919	0.17200
617.14062	0.18671
615.21206	0.13367
613.28350	0.12545
611.35493	0.17177
609.42637	0.23974
607.49780	0.34400
605.56924	0.36420
603.64067	0.24259
601.71211	0.18069
599.78354	0.19767
597.85498	0.25068
595.92642	0.26946
593.99785	0.22780
592.06929	0.23356
590.14072	0.27724
588.21216	0.21488
586.28359	0.11556
584.35503	0.10838
582.42646	0.16368
580.49790	0.17133
578.56934	0.13732
576.64077	0.12236
574.71221	0.15203
572.78364	0.23074
570.85508	0.37943
568.92651	0.43335
566.99795	0.31083
565.06938	0.20031
563.14082	0.14173
561.21226	0.12950
559.28369	0.14122
557.35513	0.16169
555.42656	0.13162
553.49800	0.12504
551.56943	0.21168
549.64087	0.30008
547.71230	0.26209
545.78374	0.23782
543.85518	0.25893
541.92661	0.29085
539.99805	0.31415
538.06948	0.28511
536.14092	0.26156
534.21235	0.24152
532.28379	0.17360
530.35522	0.11502
528.42666	0.11445
526.49810	0.12699
524.56953	0.13801
522.64097	0.16026
520.71240	0.18759
518.78384	0.19621
516.85527	0.15845
514.92671	0.11696
512.99814	0.12885
511.06958	0.22079
509.14102	0.29067
507.21245	0.22892
505.28389	0.14433
503.35532	0.11185
501.42676	0.12792
499.49819	0.14418
