3997.91411	0.05611
3995.98555	0.05663
3994.05698	0.05739
3992.12842	0.05825
3990.19985	0.05902
3988.27129	0.05919
3986.34272	0.05877
3984.41416	0.05853
3982.48560	0.05880
3980.55703	0.05896
3978.62847	0.05898
3976.69990	0.05996
3974.77134	0.06161
3972.84277	0.06265
3970.91421	0.06294
3968.98564	0.06254
3967.05708	0.06156
3965.12852	0.06103
3963.19995	0.06184
3961.27139	0.06332
3959.34282	0.06408
3957.41426	0.06395
3955.48569	0.06365
3953.55713	0.06412
3951.62856	0.06652
3949.70000	0.07000
3947.77144	0.07130
3945.84287	0.06982
3943.91431	0.06957
3941.98574	0.07063
3940.05718	0.06872
3938.12861	0.06517
3936.20005	0.06393
3934.27148	0.06624
3932.34292	0.07117
3930.41436	0.07425
3928.48579	0.07263
3926.55723	0.07098
3924.62866	0.07271
3922.70010	0.07384
3920.77153	0.07254
3918.84297	0.07294
3916.91440	0.07409
3914.98584	0.07126
3913.05728	0.06613
3911.12871	0.06307
3909.20015	0.06300
3907.27158	0.06689
3905.34302	0.07631
3903.41445	0.08754
3901.48589	0.09267
3899.55732	0.09037
3897.62876	0.08286
3895.70020	0.07476
3893.77163	0.07318
3891.84307	0.07797
3889.91450	0.07944
3887.98594	0.07603
3886.05737	0.07724
3884.12881	0.08197
3882.20024	0.08428
3880.27168	0.08495
3878.34312	0.08072
3876.41455	0.07538
3874.48599	0.07793
3872.55742	0.08599
3870.62886	0.09305
3868.70029	0.09456
3866.77173	0.09057
3864.84316	0.09066
3862.91460	0.09325
3860.98604	0.08842
3859.05747	0.08192
3857.12891	0.08334
3855.20034	0.09390
3853.27178	0.11002
3851.34321	0.11202
3849.41465	0.09604
3847.48608	0.08347
3845.55752	0.08008
3843.62896	0.08515
3841.70039	0.09503
3839.77183	0.10578
3837.84326	0.11266
3835.91470	0.10975
3833.98613	0.10225
3832.05757	0.09675
3830.12900	0.09258
3828.20044	0.09071
3826.27187	0.09244
3824.34331	0.09579
3822.41475	0.10282
3820.48618	0.11407
3818.55762	0.11643
3816.62905	0.11101
3814.70049	0.10449
3812.77192	0.09571
3810.84336	0.09042
3808.91479	0.09265
3806.98623	0.10073
3805.05767	0.10783
3803.12910	0.11344
3801.20054	0.12144
3799.27197	0.12263
3797.34341	0.11657
3795.41484	0.11065
3793.48628	0.10371
3791.55771	0.09862
3789.62915	0.09801
3787.70059	0.10070
3785.77202	0.10546
3783.84346	0.10938
3781.91489	0.11099
3779.98633	0.11416
3778.05776	0.11709
3776.12920	0.11450
3774.20063	0.11174
3772.27207	0.11499
3770.34351	0.12385
3768.41494	0.13165
3766.48638	0.13376
3764.55781	0.13326
3762.62925	0.13253
3760.70068	0.13610
3758.77212	0.14489
3756.84355	0.15106
3754.91499	0.15364
3752.98643	0.16160
3751.05786	0.17849
3749.12930	0.19095
3747.20073	0.18946
3745.27217	0.18885
3743.34360	0.19132
3741.41504	0.18985
3739.48647	0.19059
3737.55791	0.20023
3735.62935	0.21885
3733.70078	0.23348
3731.77222	0.23056
3729.84365	0.22222
3727.91509	0.22119
3725.98652	0.22867
3724.05796	0.23812
3722.12939	0.24325
3720.20083	0.24409
3718.27227	0.24262
3716.34370	0.24269
3714.41514	0.24965
3712.48657	0.26836
3710.55801	0.29485
3708.62944	0.30897
3706.70088	0.31043
3704.77231	0.31525
3702.84375	0.32849
3700.91519	0.34667
3698.98662	0.36249
3697.05806	0.37699
3695.12949	0.39533
3693.20093	0.41818
3691.27236	0.44773
3689.34380	0.48417
3687.41523	0.51466
3685.48667	0.53253
3683.55811	0.55016
3681.62954	0.57599
3679.70098	0.61177
3677.77241	0.65466
3675.84385	0.70596
3673.91528	0.76230
3671.98672	0.80013
3670.05815	0.83679
3668.12959	0.88459
3666.20103	0.92089
3664.27246	0.95304
3662.34390	0.99413
3660.41533	1.04212
3658.48677	1.09164
3656.55820	1.14570
3654.62964	1.20380
3652.70107	1.25359
3650.77251	1.30588
3648.84395	1.37926
3646.91538	1.44715
3644.98682	1.48052
3643.05825	1.50773
3641.12969	1.54411
3639.20112	1.58816
3637.27256	1.63358
3635.34399	1.67984
3633.41543	1.72857
3631.48687	1.77638
3629.55830	1.82750
3627.62974	1.88749
3625.70117	1.93048
3623.77261	1.95689
3621.84404	1.98896
3619.91548	2.03138
3617.98691	2.08108
3616.05835	2.12357
3614.12979	2.15853
3612.20122	2.19666
3610.27266	2.23443
3608.34409	2.27421
3606.41553	2.31647
3604.48696	2.35243
3602.55840	2.38634
3600.62983	2.42829
3598.70127	2.47439
3596.77271	2.51669
3594.84414	2.55701
3592.91558	2.59544
3590.98701	2.63083
3589.05845	2.66880
3587.12988	2.71749
3585.20132	2.76402
3583.27275	2.79740
3581.34419	2.83078
3579.41562	2.87058
3577.48706	2.91335
3575.55850	2.95489
3573.62993	2.99611
3571.70137	3.03804
3569.77280	3.08206
3567.84424	3.13378
3565.91567	3.19396
3563.98711	3.24053
3562.05854	3.27337
3560.12998	3.31064
3558.20142	3.35363
3556.27285	3.39846
3554.34429	3.44529
3552.41572	3.49468
3550.48716	3.54054
3548.55859	3.58239
3546.63003	3.62883
3544.70146	3.68107
3542.77290	3.73041
3540.84434	3.77451
3538.91577	3.81696
3536.98721	3.86111
3535.05864	3.90877
3533.13008	3.95471
3531.20151	3.99911
3529.27295	4.04706
3527.34438	4.10127
3525.41582	4.15558
3523.48726	4.20369
3521.55869	4.25087
3519.63013	4.29884
3517.70156	4.34577
3515.77300	4.38995
3513.84443	4.43199
3511.91587	4.47811
3509.98730	4.53206
3508.05874	4.58556
3506.13018	4.63399
3504.20161	4.68694
3502.27305	4.74144
3500.34448	4.78375
3498.41592	4.82054
3496.48735	4.86547
3494.55879	4.91650
3492.63022	4.96839
3490.70166	5.02075
3488.77310	5.07268
3486.84453	5.12443
3484.91597	5.17657
3482.98740	5.22643
3481.05884	5.26906
3479.13027	5.30548
3477.20171	5.34745
3475.27314	5.40074
3473.34458	5.45733
3471.41602	5.50666
3469.48745	5.55073
3467.55889	5.59707
3465.63032	5.64350
3463.70176	5.68987
3461.77319	5.73827
3459.84463	5.79084
3457.91606	5.84526
3455.98750	5.89650
3454.05894	5.95041
3452.13037	6.01332
3450.20181	6.07175
3448.27324	6.11123
3446.34468	6.14988
3444.41611	6.19631
3442.48755	6.24396
3440.55898	6.29966
3438.63042	6.35893
3436.70186	6.41242
3434.77329	6.46811
3432.84473	6.52313
3430.91616	6.56054
3428.98760	6.58895
3427.05903	6.63395
3425.13047	6.70972
3423.20190	6.78601
3421.27334	6.82776
3419.34478	6.85395
3417.41621	6.89844
3415.48765	6.94377
3413.55908	6.96244
3411.63052	6.97906
3409.70195	7.01440
3407.77339	7.06701
3405.84482	7.12197
3403.91626	7.17360
3401.98770	7.22026
3400.05913	7.27652
3398.13057	7.34940
3396.20200	7.39831
3394.27344	7.42487
3392.34487	7.45795
3390.41631	7.50562
3388.48774	7.54157
3386.55918	7.56187
3384.63062	7.59551
3382.70205	7.62625
3380.77349	7.64801
3378.84492	7.68964
3376.91636	7.72374
3374.98779	7.73079
3373.05923	7.76963
3371.13066	7.83114
3369.20210	7.85968
3367.27354	7.86237
3365.34497	7.88895
3363.41641	7.92637
3361.48784	7.94193
3359.55928	7.97274
3357.63071	8.02312
3355.70215	8.03795
3353.77358	7.98915
3351.84502	7.95106
3349.91646	7.97251
3347.98789	8.03387
3346.05933	8.11488
3344.13076	8.18975
3342.20220	8.18517
3340.27363	8.13190
3338.34507	8.14799
3336.41650	8.17123
3334.48794	8.14104
3332.55937	8.11364
3330.63081	8.12901
3328.70225	8.18801
3326.77368	8.25881
3324.84512	8.27797
3322.91655	8.23685
3320.98799	8.20277
3319.05942	8.21744
3317.13086	8.28338
3315.20229	8.28445
3313.27373	8.18907
3311.34517	8.10927
3309.41660	8.08304
3307.48804	8.10864
3305.55947	8.19850
3303.63091	8.28387
3301.70234	8.25687
3299.77378	8.18706
3297.84521	8.13381
3295.91665	8.10573
3293.98809	8.10048
3292.05952	8.12221
3290.13096	8.21042
3288.20239	8.31694
3286.27383	8.35794
3284.34526	8.34758
3282.41670	8.34973
3280.48813	8.35231
3278.55957	8.37094
3276.63101	8.43861
3274.70244	8.49769
3272.77388	8.46360
3270.84531	8.36938
3268.91675	8.34446
3266.98818	8.39074
3265.05962	8.39725
3263.13105	8.33659
3261.20249	8.30999
3259.27393	8.32618
3257.34536	8.32437
3255.41680	8.33016
3253.48823	8.36099
3251.55967	8.35651
3249.63110	8.32461
3247.70254	8.34227
3245.77397	8.34093
3243.84541	8.27343
3241.91685	8.21447
3239.98828	8.16446
3238.05972	8.13689
3236.13115	8.18539
3234.20259	8.26904
3232.27402	8.28691
3230.34546	8.24048
3228.41689	8.25362
3226.48833	8.37065
3224.55977	8.40137
3222.63120	8.27276
3220.70264	8.15936
3218.77407	8.14005
3216.84551	8.17639
3214.91694	8.14180
3212.98838	8.03064
3211.05981	7.97423
3209.13125	7.97283
3207.20269	7.97005
3205.27412	7.93532
3203.34556	7.86417
3201.41699	7.83288
3199.48843	7.84596
3197.55986	7.80611
3195.63130	7.70699
3193.70273	7.62621
3191.77417	7.58580
3189.84561	7.54827
3187.91704	7.50297
3185.98848	7.46858
3184.05991	7.43031
3182.13135	7.34391
3180.20278	7.22568
3178.27422	7.15799
3176.34565	7.15174
3174.41709	7.13636
3172.48853	7.08196
3170.55996	7.01181
3168.63140	6.94341
3166.70283	6.86852
3164.77427	6.79645
3162.84570	6.74746
3160.91714	6.69403
3158.98857	6.62221
3157.06001	6.55859
3155.13145	6.50121
3153.20288	6.43625
3151.27432	6.37368
3149.34575	6.30892
3147.41719	6.22772
3145.48862	6.13958
3143.56006	6.06394
3141.63149	6.00429
3139.70293	5.93726
3137.77437	5.85179
3135.84580	5.76818
3133.91724	5.70707
3131.98867	5.66028
3130.06011	5.59991
3128.13154	5.52499
3126.20298	5.45190
3124.27441	5.38265
3122.34585	5.31441
3120.41729	5.24396
3118.48872	5.16728
3116.56016	5.09102
3114.63159	5.01956
3112.70303	4.94668
3110.77446	4.87221
3108.84590	4.80035
3106.91733	4.73053
3104.98877	4.66157
3103.06021	4.59511
3101.13164	4.53043
3099.20308	4.46608
3097.27451	4.40204
3095.34595	4.33819
3093.41738	4.27617
3091.48882	4.21486
3089.56025	4.15005
3087.63169	4.08391
3085.70312	4.02209
3083.77456	3.96351
3081.84600	3.90460
3079.91743	3.84520
3077.98887	3.78587
3076.06030	3.72711
3074.13174	3.66961
3072.20317	3.61236
3070.27461	3.55445
3068.34604	3.49821
3066.41748	3.44423
3064.48892	3.38946
3062.56035	3.33383
3060.63179	3.27991
3058.70322	3.22712
3056.77466	3.17406
3054.84609	3.12131
3052.91753	3.06954
3050.98896	3.01902
3049.06040	2.96974
3047.13184	2.92154
3045.20327	2.87330
3043.27471	2.82393
3041.34614	2.77483
3039.41758	2.72790
3037.48901	2.68273
3035.56045	2.63803
3033.63188	2.59385
3031.70332	2.55031
3029.77476	2.50666
3027.84619	2.46346
3025.91763	2.42110
3023.98906	2.37831
3022.06050	2.33595
3020.13193	2.29579
3018.20337	2.25695
3016.27480	2.21779
3014.34624	2.17835
3012.41768	2.13973
3010.48911	2.10226
3008.56055	2.06570
3006.63198	2.03008
3004.70342	1.99472
3002.77485	1.95932
3000.84629	1.92513
2998.91772	1.89257
2996.98916	1.86100
2995.06060	1.83012
2993.13203	1.79987
2991.20347	1.77021
2989.27490	1.74090
2987.34634	1.71211
2985.41777	1.68421
2983.48921	1.65721
2981.56064	1.63063
2979.63208	1.60418
2977.70352	1.57862
2975.77495	1.55420
2973.84639	1.53018
2971.91782	1.50645
2969.98926	1.48337
2968.06069	1.46117
2966.13213	1.43951
2964.20356	1.41758
2962.27500	1.39521
2960.34644	1.37279
2958.41787	1.35040
2956.48931	1.32787
2954.56074	1.30471
2952.63218	1.28096
2950.70361	1.25749
2948.77505	1.23486
2946.84648	1.21317
2944.91792	1.19239
2942.98936	1.17220
2941.06079	1.15268
2939.13223	1.13409
2937.20366	1.11583
2935.27510	1.09756
2933.34653	1.07953
2931.41797	1.06171
2929.48940	1.04428
2927.56084	1.02709
2925.63228	1.00969
2923.70371	0.99240
2921.77515	0.97545
2919.84658	0.95822
2917.91802	0.93991
2915.98945	0.92090
2914.06089	0.90239
2912.13232	0.88502
2910.20376	0.86855
2908.27520	0.85221
2906.34663	0.83590
2904.41807	0.82029
2902.48950	0.80564
2900.56094	0.79138
2898.63237	0.77712
2896.70381	0.76327
2894.77524	0.75047
2892.84668	0.73845
2890.91812	0.72650
2888.98955	0.71459
2887.06099	0.70309
2885.13242	0.69217
2883.20386	0.68179
2881.27529	0.67206
2879.34673	0.66276
2877.41816	0.65342
2875.48960	0.64414
2873.56104	0.63491
2871.63247	0.62542
2869.70391	0.61508
2867.77534	0.60352
2865.84678	0.59133
2863.91821	0.57936
2861.98965	0.56812
2860.06108	0.55793
2858.13252	0.54867
2856.20396	0.54000
2854.27539	0.53167
2852.34683	0.52318
2850.41826	0.51422
2848.48970	0.50485
2846.56113	0.49495
2844.63257	0.48522
2842.70400	0.47661
2840.77544	0.46909
2838.84687	0.46227
2836.91831	0.45568
2834.98975	0.44907
2833.06118	0.44267
2831.13262	0.43648
2829.20405	0.43021
2827.27549	0.42382
2825.34692	0.41751
2823.41836	0.41144
2821.48979	0.40564
2819.56123	0.39994
2817.63267	0.39416
2815.70410	0.38834
2813.77554	0.38257
2811.84697	0.37691
2809.91841	0.37141
2807.98984	0.36592
2806.06128	0.36050
2804.13271	0.35526
2802.20415	0.35012
2800.27559	0.34512
2798.34702	0.34034
2796.41846	0.33560
2794.48989	0.33078
2792.56133	0.32609
2790.63276	0.32162
2788.70420	0.31721
2786.77563	0.31281
2784.84707	0.30853
2782.91851	0.30446
2780.98994	0.30044
2779.06138	0.29626
2777.13281	0.29206
2775.20425	0.28803
2773.27568	0.28417
2771.34712	0.28048
2769.41855	0.27689
2767.48999	0.27335
2765.56143	0.26990
2763.63286	0.26643
2761.70430	0.26288
2759.77573	0.25944
2757.84717	0.25611
2755.91860	0.25291
2753.99004	0.24992
2752.06147	0.24713
2750.13291	0.24444
2748.20435	0.24166
2746.27578	0.23865
2744.34722	0.23570
2742.41865	0.23299
2740.49009	0.23032
2738.56152	0.22762
2736.63296	0.22501
2734.70439	0.22244
2732.77583	0.21984
2730.84727	0.21742
2728.91870	0.21522
2726.99014	0.21303
2725.06157	0.21081
2723.13301	0.20861
2721.20444	0.20651
2719.27588	0.20451
2717.34731	0.20255
2715.41875	0.20067
2713.49019	0.19890
2711.56162	0.19712
2709.63306	0.19534
2707.70449	0.19363
2705.77593	0.19192
2703.84736	0.19024
2701.91880	0.18869
2699.99023	0.18713
2698.06167	0.18552
2696.13311	0.18401
2694.20454	0.18252
2692.27598	0.18108
2690.34741	0.17985
2688.41885	0.17874
2686.49028	0.17759
2684.56172	0.17635
2682.63315	0.17501
2680.70459	0.17371
2678.77603	0.17243
2676.84746	0.17119
2674.91890	0.17013
2672.99033	0.16918
2671.06177	0.16820
2669.13320	0.16716
2667.20464	0.16619
2665.27607	0.16534
2663.34751	0.16449
2661.41895	0.16355
2659.49038	0.16253
2657.56182	0.16149
2655.63325	0.16058
2653.70469	0.15981
2651.77612	0.15915
2649.84756	0.15852
2647.91899	0.15794
2645.99043	0.15748
2644.06187	0.15700
2642.13330	0.15629
2640.20474	0.15554
2638.27617	0.15501
2636.34761	0.15455
2634.41904	0.15392
2632.49048	0.15336
2630.56191	0.15306
2628.63335	0.15277
2626.70479	0.15236
2624.77622	0.15192
2622.84766	0.15155
2620.91909	0.15121
2618.99053	0.15093
2617.06196	0.15075
2615.13340	0.15058
2613.20483	0.15036
2611.27627	0.15018
2609.34771	0.15001
2607.41914	0.14979
2605.49058	0.14953
2603.56201	0.14929
2601.63345	0.14919
2599.70488	0.14933
2597.77632	0.14954
2595.84775	0.14952
2593.91919	0.14945
2591.99062	0.14954
2590.06206	0.14970
2588.13350	0.14979
2586.20493	0.14989
2584.27637	0.15004
2582.34780	0.15024
2580.41924	0.15042
2578.49067	0.15057
2576.56211	0.15075
2574.63354	0.15102
2572.70498	0.15144
2570.77642	0.15189
2568.84785	0.15213
2566.91929	0.15228
2564.99072	0.15257
2563.06216	0.15292
2561.13359	0.15336
2559.20503	0.15384
2557.27646	0.15431
2555.34790	0.15484
2553.41934	0.15530
2551.49077	0.15563
2549.56221	0.15603
2547.63364	0.15657
2545.70508	0.15723
2543.77651	0.15795
2541.84795	0.15860
2539.91938	0.15918
2537.99082	0.15973
2536.06226	0.16023
2534.13369	0.16079
2532.20513	0.16145
2530.27656	0.16217
2528.34800	0.16291
2526.41943	0.16360
2524.49087	0.16423
2522.56230	0.16482
2520.63374	0.16536
2518.70518	0.16590
2516.77661	0.16656
2514.84805	0.16732
2512.91948	0.16810
2510.99092	0.16891
2509.06235	0.16969
2507.13379	0.17044
2505.20522	0.17118
2503.27666	0.17191
2501.34810	0.17272
2499.41953	0.17356
2497.49097	0.17434
2495.56240	0.17509
2493.63384	0.17589
2491.70527	0.17680
2489.77671	0.17769
2487.84814	0.17844
2485.91958	0.17917
2483.99102	0.17996
2482.06245	0.18079
2480.13389	0.18167
2478.20532	0.18254
2476.27676	0.18341
2474.34819	0.18423
2472.41963	0.18500
2470.49106	0.18576
2468.56250	0.18659
2466.63394	0.18744
2464.70537	0.18826
2462.77681	0.18919
2460.84824	0.19030
2458.91968	0.19129
2456.99111	0.19210
2455.06255	0.19294
2453.13398	0.19391
2451.20542	0.19498
2449.27686	0.19608
2447.34829	0.19713
2445.41973	0.19816
2443.49116	0.19916
2441.56260	0.19999
2439.63403	0.20069
2437.70547	0.20152
2435.77690	0.20251
2433.84834	0.20346
2431.91978	0.20437
2429.99121	0.20545
2428.06265	0.20665
2426.13408	0.20789
2424.20552	0.20914
2422.27695	0.21031
2420.34839	0.21125
2418.41982	0.21199
2416.49126	0.21284
2414.56270	0.21397
2412.63413	0.21526
2410.70557	0.21648
2408.77700	0.21760
2406.84844	0.21872
2404.91987	0.21986
2402.99131	0.22107
2401.06274	0.22234
2399.13418	0.22348
2397.20562	0.22452
2395.27705	0.22570
2393.34849	0.22703
2391.41992	0.22846
2389.49136	0.23028
2387.56279	0.23331
2385.63423	0.23869
2383.70566	0.24737
2381.77710	0.25938
2379.84854	0.27399
2377.91997	0.29057
2375.99141	0.30937
2374.06284	0.33130
2372.13428	0.35640
2370.20571	0.38349
2368.27715	0.41064
2366.34858	0.43598
2364.42002	0.45815
2362.49146	0.47529
2360.56289	0.48491
2358.63433	0.48500
2356.70576	0.47452
2354.77720	0.45421
2352.84863	0.42730
2350.92007	0.39957
2348.99150	0.38216
2347.06294	0.38226
2345.13437	0.40042
2343.20581	0.42519
2341.27725	0.43803
2339.34868	0.43837
2337.42012	0.43464
2335.49155	0.43112
2333.56299	0.42836
2331.63442	0.42669
2329.70586	0.42481
2327.77729	0.42060
2325.84873	0.41387
2323.92017	0.40593
2321.99160	0.39715
2320.06304	0.38738
2318.13447	0.37729
2316.20591	0.36837
2314.27734	0.36207
2312.34878	0.35834
2310.42021	0.35516
2308.49165	0.35064
2306.56309	0.34475
2304.63452	0.33894
2302.70596	0.33510
2300.77739	0.33332
2298.84883	0.33194
2296.92026	0.33016
2294.99170	0.32844
2293.06313	0.32701
2291.13457	0.32569
2289.20601	0.32444
2287.27744	0.32332
2285.34888	0.32250
2283.42031	0.32251
2281.49175	0.32389
2279.56318	0.32642
2277.63462	0.32925
2275.70605	0.33187
2273.77749	0.33433
2271.84893	0.33659
2269.92036	0.33858
2267.99180	0.34048
2266.06323	0.34235
2264.13467	0.34404
2262.20610	0.34555
2260.27754	0.34699
2258.34897	0.34852
2256.42041	0.35021
2254.49185	0.35190
2252.56328	0.35344
2250.63472	0.35503
2248.70615	0.35684
2246.77759	0.35872
2244.84902	0.36050
2242.92046	0.36223
2240.99189	0.36414
2239.06333	0.36620
2237.13477	0.36824
2235.20620	0.37028
2233.27764	0.37249
2231.34907	0.37480
2229.42051	0.37699
2227.49194	0.37903
2225.56338	0.38112
2223.63481	0.38334
2221.70625	0.38552
2219.77769	0.38761
2217.84912	0.38969
2215.92056	0.39178
2213.99199	0.39384
2212.06343	0.39595
2210.13486	0.39818
2208.20630	0.40036
2206.27773	0.40239
2204.34917	0.40435
2202.42061	0.40629
2200.49204	0.40829
2198.56348	0.41036
2196.63491	0.41234
2194.70635	0.41426
2192.77778	0.41625
2190.84922	0.41832
2188.92065	0.42031
2186.99209	0.42212
2185.06353	0.42371
2183.13496	0.42523
2181.20640	0.42683
2179.27783	0.42850
2177.34927	0.43012
2175.42070	0.43160
2173.49214	0.43309
2171.56357	0.43462
2169.63501	0.43606
2167.70645	0.43745
2165.77788	0.43878
2163.84932	0.43997
2161.92075	0.44107
2159.99219	0.44212
2158.06362	0.44315
2156.13506	0.44419
2154.20649	0.44517
2152.27793	0.44596
2150.34937	0.44655
2148.42080	0.44714
2146.49224	0.44788
2144.56367	0.44857
2142.63511	0.44903
2140.70654	0.44937
2138.77798	0.44971
2136.84941	0.44991
2134.92085	0.44990
2132.99229	0.44983
2131.06372	0.44984
2129.13516	0.44981
2127.20659	0.44968
2125.27803	0.44947
2123.34946	0.44908
2121.42090	0.44857
2119.49233	0.44807
2117.56377	0.44763
2115.63521	0.44714
2113.70664	0.44647
2111.77808	0.44562
2109.84951	0.44473
2107.92095	0.44376
2105.99238	0.44263
2104.06382	0.44151
2102.13525	0.44039
2100.20669	0.43909
2098.27812	0.43758
2096.34956	0.43598
2094.42100	0.43446
2092.49243	0.43315
2090.56387	0.43192
2088.63530	0.43039
2086.70674	0.42852
2084.77817	0.42657
2082.84961	0.42467
2080.92104	0.42274
2078.99248	0.42085
2077.06392	0.41898
2075.13535	0.41693
2073.20679	0.41468
2071.27822	0.41239
2069.34966	0.41024
2067.42109	0.40833
2065.49253	0.40654
2063.56396	0.40432
2061.63540	0.40168
2059.70684	0.39907
2057.77827	0.39647
2055.84971	0.39382
2053.92114	0.39123
2051.99258	0.38879
2050.06401	0.38640
2048.13545	0.38392
2046.20688	0.38132
2044.27832	0.37881
2042.34976	0.37649
2040.42119	0.37397
2038.49263	0.37107
2036.56406	0.36811
2034.63550	0.36530
2032.70693	0.36260
2030.77837	0.35997
2028.84980	0.35730
2026.92124	0.35458
2024.99268	0.35181
2023.06411	0.34903
2021.13555	0.34644
2019.20698	0.34436
2017.27842	0.34239
2015.34985	0.33953
2013.42129	0.33607
2011.49272	0.33294
2009.56416	0.33019
2007.63560	0.32751
2005.70703	0.32486
2003.77847	0.32220
2001.84990	0.31959
1999.92134	0.31707
1997.99277	0.31454
1996.06421	0.31205
1994.13564	0.31028
1992.20708	0.30899
1990.27852	0.30665
1988.34995	0.30331
1986.42139	0.30007
1984.49282	0.29725
1982.56426	0.29488
1980.63569	0.29266
1978.70713	0.29037
1976.77856	0.28809
1974.85000	0.28586
1972.92144	0.28363
1970.99287	0.28168
1969.06431	0.28054
1967.13574	0.27957
1965.20718	0.27730
1963.27861	0.27427
1961.35005	0.27187
1959.42148	0.26996
1957.49292	0.26818
1955.56436	0.26654
1953.63579	0.26478
1951.70723	0.26285
1949.77866	0.26118
1947.85010	0.26002
1945.92153	0.25945
1943.99297	0.25942
1942.06440	0.25867
1940.13584	0.25592
1938.20728	0.25286
1936.27871	0.25094
1934.35015	0.24967
1932.42158	0.24844
1930.49302	0.24708
1928.56445	0.24580
1926.63589	0.24499
1924.70732	0.24532
1922.77876	0.24598
1920.85020	0.24532
1918.92163	0.24430
1916.99307	0.24314
1915.06450	0.24081
1913.13594	0.23898
1911.20737	0.23889
1909.27881	0.23916
1907.35024	0.23822
1905.42168	0.23656
1903.49312	0.23540
1901.56455	0.23465
1899.63599	0.23403
1897.70742	0.23397
1895.77886	0.23448
1893.85029	0.23450
1891.92173	0.23434
1889.99316	0.23501
1888.06460	0.23477
1886.13604	0.23317
1884.20747	0.23200
1882.27891	0.23140
1880.35034	0.23111
1878.42178	0.23105
1876.49321	0.23097
1874.56465	0.23102
1872.63608	0.23213
1870.70752	0.23542
1868.77896	0.23963
1866.85039	0.23960
1864.92183	0.23576
1862.99326	0.23315
1861.06470	0.23275
1859.13613	0.23319
1857.20757	0.23342
1855.27900	0.23348
1853.35044	0.23372
1851.42187	0.23456
1849.49331	0.23635
1847.56475	0.23913
1845.63618	0.24254
1843.70762	0.24466
1841.77905	0.24308
1839.85049	0.24094
1837.92192	0.24102
1835.99336	0.24193
1834.06479	0.24275
1832.13623	0.24524
1830.20767	0.24985
1828.27910	0.25240
1826.35054	0.25212
1824.42197	0.25205
1822.49341	0.25148
1820.56484	0.25099
1818.63628	0.25186
1816.70771	0.25346
1814.77915	0.25524
1812.85059	0.25819
1810.92202	0.26190
1808.99346	0.26394
1807.06489	0.26449
1805.13633	0.26569
1803.20776	0.26902
1801.27920	0.27379
1799.35063	0.27751
1797.42207	0.27945
1795.49351	0.28217
1793.56494	0.28712
1791.63638	0.29209
1789.70781	0.29267
1787.77925	0.29180
1785.85068	0.29398
1783.92212	0.29831
1781.99355	0.30322
1780.06499	0.30804
1778.13643	0.31203
1776.20786	0.31656
1774.27930	0.32401
1772.35073	0.33393
1770.42217	0.33989
1768.49360	0.34117
1766.56504	0.34279
1764.63647	0.34678
1762.70791	0.35393
1760.77935	0.36261
1758.85078	0.36925
1756.92222	0.37597
1754.99365	0.38317
1753.06509	0.39103
1751.13652	0.40351
1749.20796	0.41840
1747.27939	0.42865
1745.35083	0.43534
1743.42227	0.44336
1741.49370	0.45347
1739.56514	0.46541
1737.63657	0.47704
1735.70801	0.48944
1733.77944	0.50950
1731.85088	0.52801
1729.92231	0.53879
1727.99375	0.55029
1726.06519	0.56483
1724.13662	0.58316
1722.20806	0.60390
1720.27949	0.62486
1718.35093	0.65266
1716.42236	0.68949
1714.49380	0.71610
1712.56523	0.73481
1710.63667	0.75567
1708.70811	0.78181
1706.77954	0.81425
1704.85098	0.85219
1702.92241	0.88454
1700.99385	0.91821
1699.06528	0.96875
1697.13672	1.01246
1695.20815	1.05297
1693.27959	1.09085
1691.35103	1.12422
1689.42246	1.16705
1687.49390	1.21405
1685.56533	1.26153
1683.63677	1.33131
1681.70820	1.39624
1679.77964	1.43597
1677.85107	1.47663
1675.92251	1.52609
1673.99395	1.58732
1672.06538	1.64228
1670.13682	1.69778
1668.20825	1.76645
1666.27969	1.82054
1664.35112	1.87049
1662.42256	1.93724
1660.49399	2.01055
1658.56543	2.06609
1656.63687	2.11312
1654.70830	2.15954
1652.77974	2.22489
1650.85117	2.27950
1648.92261	2.30060
1646.99404	2.32872
1645.06548	2.35236
1643.13691	2.36247
1641.20835	2.36729
1639.27979	2.37575
1637.35122	2.38479
1635.42266	2.38481
1633.49409	2.36760
1631.56553	2.34593
1629.63696	2.32575
1627.70840	2.29547
1625.77983	2.26045
1623.85127	2.21643
1621.92271	2.16033
1619.99414	2.11042
1618.06558	2.06549
1616.13701	2.00014
1614.20845	1.92806
1612.27988	1.87267
1610.35132	1.81839
1608.42275	1.76078
1606.49419	1.70330
1604.56562	1.65011
1602.63706	1.59930
1600.70850	1.54974
1598.77993	1.50421
1596.85137	1.46270
1594.92280	1.42323
1592.99424	1.38454
1591.06567	1.34902
1589.13711	1.31663
1587.20854	1.28733
1585.27998	1.26082
1583.35142	1.23633
1581.42285	1.21438
1579.49429	1.19739
1577.56572	1.18517
1575.63716	1.16938
1573.70859	1.15132
1571.78003	1.14026
1569.85146	1.13286
1567.92290	1.12366
1565.99434	1.11552
1564.06577	1.11133
1562.13721	1.11123
1560.20864	1.11863
1558.28008	1.13367
1556.35151	1.13591
1554.42295	1.13310
1552.49438	1.13313
1550.56582	1.13371
1548.63726	1.13213
1546.70869	1.12859
1544.78013	1.12499
1542.85156	1.12052
1540.92300	1.10830
1538.99443	1.07354
1537.06587	1.04078
1535.13730	1.02201
1533.20874	1.00114
1531.28018	0.97613
1529.35161	0.95783
1527.42305	0.94414
1525.49448	0.93132
1523.56592	0.92105
1521.63735	0.91135
1519.70879	0.89764
1517.78022	0.88443
1515.85166	0.86920
1513.92310	0.85196
1511.99453	0.83876
1510.06597	0.83139
1508.13740	0.82841
1506.20884	0.81397
1504.28027	0.78971
1502.35171	0.77575
1500.42314	0.76812
1498.49458	0.76285
1496.56602	0.75505
1494.63745	0.74378
1492.70889	0.73602
1490.78032	0.73353
1488.85176	0.73006
1486.92319	0.72059
1484.99463	0.71089
1483.06606	0.70504
1481.13750	0.70201
1479.20894	0.70033
1477.28037	0.70111
1475.35181	0.70510
1473.42324	0.70986
1471.49468	0.70889
1469.56611	0.70254
1467.63755	0.69844
1465.70898	0.69800
1463.78042	0.69763
1461.85186	0.69670
1459.92329	0.69944
1457.99473	0.70660
1456.06616	0.70846
1454.13760	0.70080
1452.20903	0.69413
1450.28047	0.69030
1448.35190	0.68809
1446.42334	0.68490
1444.49478	0.68064
1442.56621	0.67714
1440.63765	0.67473
1438.70908	0.67382
1436.78052	0.67296
1434.85195	0.66856
1432.92339	0.66362
1430.99482	0.66143
1429.06626	0.66036
1427.13770	0.65935
1425.20913	0.66015
1423.28057	0.66239
1421.35200	0.66458
1419.42344	0.66746
1417.49487	0.66790
1415.56631	0.66418
1413.63774	0.66124
1411.70918	0.66074
1409.78062	0.66172
1407.85205	0.66368
1405.92349	0.66671
1403.99492	0.66897
1402.06636	0.66935
1400.13779	0.67002
1398.20923	0.67076
1396.28066	0.66928
1394.35210	0.66450
1392.42354	0.65742
1390.49497	0.65155
1388.56641	0.64782
1386.63784	0.64334
1384.70928	0.63656
1382.78071	0.62993
1380.85215	0.62492
1378.92358	0.62137
1376.99502	0.61931
1375.06646	0.61860
1373.13789	0.61712
1371.20933	0.61456
1369.28076	0.61291
1367.35220	0.61167
1365.42363	0.61059
1363.49507	0.61059
1361.56650	0.60959
1359.63794	0.60623
1357.70937	0.60316
1355.78081	0.60145
1353.85225	0.60020
1351.92368	0.59910
1349.99512	0.59837
1348.06655	0.59761
1346.13799	0.59654
1344.20942	0.59576
1342.28086	0.59617
1340.35229	0.59773
1338.42373	0.59796
1336.49517	0.59573
1334.56660	0.59355
1332.63804	0.59278
1330.70947	0.59294
1328.78091	0.59347
1326.85234	0.59419
1324.92378	0.59517
1322.99521	0.59653
1321.06665	0.59821
1319.13809	0.59974
1317.20952	0.60044
1315.28096	0.60042
1313.35239	0.60007
1311.42383	0.59923
1309.49526	0.59818
1307.56670	0.59738
1305.63813	0.59683
1303.70957	0.59627
1301.78101	0.59548
1299.85244	0.59436
1297.92388	0.59310
1295.99531	0.59185
1294.06675	0.59047
1292.13818	0.58897
1290.20962	0.58764
1288.28105	0.58650
1286.35249	0.58520
1284.42393	0.58377
1282.49536	0.58241
1280.56680	0.58106
1278.63823	0.57961
1276.70967	0.57818
1274.78110	0.57699
1272.85254	0.57612
1270.92397	0.57529
1268.99541	0.57439
1267.06685	0.57355
1265.13828	0.57270
1263.20972	0.57184
1261.28115	0.57110
1259.35259	0.57024
1257.42402	0.56922
1255.49546	0.56859
1253.56689	0.56854
1251.63833	0.56870
1249.70977	0.56885
1247.78120	0.56890
1245.85264	0.56868
1243.92407	0.56810
1241.99551	0.56710
1240.06694	0.56558
1238.13838	0.56365
1236.20981	0.56140
1234.28125	0.55891
1232.35269	0.55645
1230.42412	0.55413
1228.49556	0.55183
1226.56699	0.54957
1224.63843	0.54749
1222.70986	0.54558
1220.78130	0.54379
1218.85273	0.54207
1216.92417	0.54052
1214.99561	0.53932
1213.06704	0.53838
1211.13848	0.53756
1209.20991	0.53684
1207.28135	0.53616
1205.35278	0.53541
1203.42422	0.53450
1201.49565	0.53347
1199.56709	0.53246
1197.63853	0.53153
1195.70996	0.53070
1193.78140	0.52999
1191.85283	0.52930
1189.92427	0.52872
1187.99570	0.52844
1186.06714	0.52831
1184.13857	0.52833
1182.21001	0.52883
1180.28145	0.52986
1178.35288	0.53120
1176.42432	0.53276
1174.49575	0.53431
1172.56719	0.53539
1170.63862	0.53585
1168.71006	0.53595
1166.78149	0.53589
1164.85293	0.53585
1162.92437	0.53592
1160.99580	0.53589
1159.06724	0.53556
1157.13867	0.53491
1155.21011	0.53407
1153.28154	0.53301
1151.35298	0.53156
1149.42441	0.52942
1147.49585	0.52652
1145.56729	0.52342
1143.63872	0.52065
1141.71016	0.51835
1139.78159	0.51659
1137.85303	0.51536
1135.92446	0.51458
1133.99590	0.51437
1132.06733	0.51481
1130.13877	0.51541
1128.21021	0.51552
1126.28164	0.51522
1124.35308	0.51486
1122.42451	0.51452
1120.49595	0.51441
1118.56738	0.51466
1116.63882	0.51518
1114.71025	0.51590
1112.78169	0.51669
1110.85312	0.51748
1108.92456	0.51850
1106.99600	0.51984
1105.06743	0.52114
1103.13887	0.52200
1101.21030	0.52266
1099.28174	0.52378
1097.35317	0.52571
1095.42461	0.52837
1093.49604	0.53186
1091.56748	0.53652
1089.63892	0.54246
1087.71035	0.54966
1085.78179	0.55801
1083.85322	0.56663
1081.92466	0.57395
1079.99609	0.57906
1078.06753	0.58181
1076.13896	0.58170
1074.21040	0.57830
1072.28184	0.57241
1070.35327	0.56548
1068.42471	0.55833
1066.49614	0.55131
1064.56758	0.54484
1062.63901	0.53923
1060.71045	0.53447
1058.78188	0.53043
1056.85332	0.52680
1054.92476	0.52337
1052.99619	0.52030
1051.06763	0.51773
1049.13906	0.51592
1047.21050	0.51498
1045.28193	0.51437
1043.35337	0.51368
1041.42480	0.51311
1039.49624	0.51277
1037.56768	0.51243
1035.63911	0.51213
1033.71055	0.51184
1031.78198	0.51125
1029.85342	0.51004
1027.92485	0.50831
1025.99629	0.50650
1024.06772	0.50519
1022.13916	0.50443
1020.21060	0.50397
1018.28203	0.50357
1016.35347	0.50315
1014.42490	0.50273
1012.49634	0.50231
1010.56777	0.50194
1008.63921	0.50185
1006.71064	0.50217
1004.78208	0.50302
1002.85352	0.50452
1000.92495	0.50676
998.99639	0.51004
997.06782	0.51440
995.13926	0.51912
993.21069	0.52330
991.28213	0.52650
989.35356	0.52862
987.42500	0.52956
985.49644	0.52954
983.56787	0.52926
981.63931	0.52929
979.71074	0.52987
977.78218	0.53101
975.85361	0.53267
973.92505	0.53486
971.99648	0.53768
970.06792	0.54094
968.13936	0.54446
966.21079	0.54829
964.28223	0.55234
962.35366	0.55668
960.42510	0.56167
958.49653	0.56721
956.56797	0.57287
954.63940	0.57873
952.71084	0.58491
950.78228	0.59128
948.85371	0.59778
946.92515	0.60432
944.99658	0.61073
943.06802	0.61681
941.13945	0.62257
939.21089	0.62826
937.28232	0.63396
935.35376	0.63956
933.42520	0.64512
931.49663	0.65060
929.56807	0.65616
927.63950	0.66201
925.71094	0.66824
923.78237	0.67487
921.85381	0.68145
919.92524	0.68780
917.99668	0.69429
916.06812	0.70083
914.13955	0.70757
912.21099	0.71490
910.28242	0.72270
908.35386	0.73059
906.42529	0.73880
904.49673	0.74801
902.56816	0.75800
900.63960	0.76831
898.71104	0.77849
896.78247	0.78758
894.85391	0.79651
892.92534	0.80723
890.99678	0.81856
889.06821	0.82866
887.13965	0.83879
885.21108	0.84972
883.28252	0.86072
881.35396	0.87198
879.42539	0.88293
877.49683	0.89343
875.56826	0.90479
873.63970	0.91642
871.71113	0.92686
869.78257	0.93675
867.85400	0.94753
865.92544	0.95977
863.99687	0.97269
862.06831	0.98472
860.13975	0.99613
858.21118	1.00808
856.28262	1.02012
854.35405	1.03253
852.42549	1.04523
850.49692	1.05703
848.56836	1.06878
846.63979	1.08068
844.71123	1.09160
842.78267	1.10211
840.85410	1.11314
838.92554	1.12420
836.99697	1.13643
835.06841	1.15055
833.13984	1.16412
831.21128	1.17473
829.28271	1.18053
827.35415	1.18773
825.42559	1.20338
823.49702	1.22031
821.56846	1.23168
819.63989	1.24476
817.71133	1.26614
815.78276	1.28234
813.85420	1.28241
811.92563	1.28089
809.99707	1.28047
808.06851	1.27562
806.13994	1.27999
804.21138	1.30552
802.28281	1.34738
800.35425	1.37740
798.42568	1.36916
796.49712	1.33876
794.56855	1.31895
792.63999	1.33918
790.71143	1.42198
788.78286	1.51701
786.85430	1.51334
784.92573	1.49454
782.99717	1.52497
781.06860	1.56152
779.14004	1.57448
777.21147	1.50114
775.28291	1.44075
773.35435	1.49898
771.42578	1.53340
769.49722	1.41568
767.56865	1.31085
765.64009	1.23592
763.71152	1.19289
761.78296	1.20445
759.85439	1.25505
757.92583	1.32567
755.99727	1.32421
754.06870	1.21713
752.14014	1.12963
750.21157	1.08434
748.28301	1.01634
746.35444	0.93362
744.42588	0.87863
742.49731	0.85682
740.56875	0.86147
738.64019	0.88451
736.71162	0.88572
734.78306	0.86925
732.85449	0.85089
730.92593	0.76228
728.99736	0.61857
727.06880	0.42899
725.14023	0.22821
723.21167	0.10952
721.28311	0.04678
719.35454	-0.00923
717.42598	-0.02798
715.49741	0.02534
713.56885	0.03000
711.64028	0.01520
709.71172	0.12782
707.78315	0.26250
705.85459	0.28571
703.92603	0.26292
701.99746	0.27902
700.06890	0.36201
698.14033	0.41749
696.21177	0.36617
694.28320	0.32450
692.35464	0.34280
690.42607	0.40113
688.49751	0.40979
686.56895	0.37640
684.64038	0.36706
682.71182	0.33485
680.78325	0.29162
678.85469	0.27011
676.92612	0.23938
674.99756	0.17920
673.06899	0.15078
671.14043	0.19904
669.21187	0.26323
667.28330	0.34252
665.35474	0.46048
663.42617	0.48166
661.49761	0.41936
659.56904	0.39886
657.64048	0.38532
655.71191	0.37840
653.78335	0.42833
651.85479	0.46822
649.92622	0.39546
647.99766	0.33064
646.06909	0.35972
644.14053	0.43433
642.21196	0.46222
640.28340	0.45102
638.35483	0.47714
636.42627	0.55015
634.49771	0.51806
632.56914	0.42801
630.64058	0.36584
628.71201	0.29990
626.78345	0.24952
624.85488	0.25677
622.92632	0.32666
620.99775	0.38679
619.06919	0.38003
617.14062	0.33894
615.21206	0.32978
613.28350	0.36469
611.35493	0.39730
609.42637	0.42223
607.49780	0.39890
605.56924	0.36003
603.64067	0.35750
601.71211	0.35297
599.78354	0.33884
597.85498	0.34180
595.92642	0.30927
593.99785	0.23385
592.06929	0.20765
590.14072	0.23736
588.21216	0.24802
586.28359	0.26406
584.35503	0.29563
582.42646	0.30249
580.49790	0.27545
578.56934	0.22958
576.64077	0.22556
574.71221	0.32451
572.78364	0.48394
570.85508	0.41488
568.92651	0.30087
566.99795	0.29263
565.06938	0.36212
563.14082	0.55054
561.21226	0.69661
559.28369	0.48409
557.35513	0.38405
555.42656	0.35722
553.49800	0.36028
551.56943	0.34383
549.64087	0.29376
547.71230	0.27728
545.78374	0.29523
543.85518	0.28759
541.92661	0.26305
539.99805	0.24099
538.06948	0.23024
536.14092	0.24784
534.21235	0.26195
532.28379	0.24751
530.35522	0.23583
528.42666	0.27468
526.49810	0.36141
524.56953	0.35186
522.64097	0.25720
520.71240	0.22792
518.78384	0.23983
516.85527	0.21814
514.92671	0.18990
512.99814	0.22723
511.06958	0.30720
509.14102	0.28379
507.21245	0.20660
505.28389	0.18069
503.35532	0.20816
501.42676	0.28238
499.49819	0.33803
