3997.91411	0.07120
3995.98555	0.07189
3994.05698	0.07238
3992.12842	0.07235
3990.19985	0.07204
3988.27129	0.07163
3986.34272	0.07152
3984.41416	0.07220
3982.48560	0.07333
3980.55703	0.07399
3978.62847	0.07402
3976.69990	0.07427
3974.77134	0.07512
3972.84277	0.07586
3970.91421	0.07596
3968.98564	0.07551
3967.05708	0.07485
3965.12852	0.07460
3963.19995	0.07531
3961.27139	0.07631
3959.34282	0.07667
3957.41426	0.07664
3955.48569	0.07655
3953.55713	0.07646
3951.62856	0.07717
3949.70000	0.07900
3947.77144	0.08033
3945.84287	0.07981
3943.91431	0.07922
3941.98574	0.07961
3940.05718	0.07886
3938.12861	0.07717
3936.20005	0.07662
3934.27148	0.07780
3932.34292	0.08004
3930.41436	0.08124
3928.48579	0.08007
3926.55723	0.07886
3924.62866	0.07965
3922.70010	0.08045
3920.77153	0.07982
3918.84297	0.07982
3916.91440	0.08069
3914.98584	0.08007
3913.05728	0.07774
3911.12871	0.07574
3909.20015	0.07516
3907.27158	0.07653
3905.34302	0.08077
3903.41445	0.08665
3901.48589	0.08975
3899.55732	0.08868
3897.62876	0.08520
3895.70020	0.08153
3893.77163	0.08061
3891.84307	0.08268
3889.91450	0.08364
3887.98594	0.08215
3886.05737	0.08268
3884.12881	0.08508
3882.20024	0.08575
3880.27168	0.08579
3878.34312	0.08478
3876.41455	0.08279
3874.48599	0.08359
3872.55742	0.08718
3870.62886	0.09086
3868.70029	0.09252
3866.77173	0.09099
3864.84316	0.09025
3862.91460	0.09105
3860.98604	0.08926
3859.05747	0.08641
3857.12891	0.08658
3855.20034	0.09094
3853.27178	0.09926
3851.34321	0.10252
3849.41465	0.09558
3847.48608	0.08904
3845.55752	0.08706
3843.62896	0.08948
3841.70039	0.09395
3839.77183	0.09882
3837.84326	0.10308
3835.91470	0.10311
3833.98613	0.09970
3832.05757	0.09679
3830.12900	0.09511
3828.20044	0.09491
3826.27187	0.09654
3824.34331	0.09856
3822.41475	0.10162
3820.48618	0.10718
3818.55762	0.10949
3816.62905	0.10816
3814.70049	0.10622
3812.77192	0.10217
3810.84336	0.09899
3808.91479	0.09969
3806.98623	0.10439
3805.05767	0.10929
3803.12910	0.11226
3801.20054	0.11633
3799.27197	0.11819
3797.34341	0.11613
3795.41484	0.11395
3793.48628	0.11112
3791.55771	0.10868
3789.62915	0.10855
3787.70059	0.11050
3785.77202	0.11369
3783.84346	0.11665
3781.91489	0.11832
3779.98633	0.12037
3778.05776	0.12270
3776.12920	0.12269
3774.20063	0.12209
3772.27207	0.12380
3770.34351	0.12816
3768.41494	0.13267
3766.48638	0.13505
3764.55781	0.13660
3762.62925	0.13778
3760.70068	0.14018
3758.77212	0.14532
3756.84355	0.14991
3754.91499	0.15216
3752.98643	0.15637
3751.05786	0.16599
3749.12930	0.17570
3747.20073	0.17788
3745.27217	0.17892
3743.34360	0.18332
3741.41504	0.18777
3739.48647	0.19226
3737.55791	0.20106
3735.62935	0.21608
3733.70078	0.23040
3731.77222	0.23481
3729.84365	0.23552
3727.91509	0.23897
3725.98652	0.24601
3724.05796	0.25315
3722.12939	0.25668
3720.20083	0.25689
3718.27227	0.25531
3716.34370	0.25472
3714.41514	0.25868
3712.48657	0.27186
3710.55801	0.29510
3708.62944	0.31436
3706.70088	0.32377
3704.77231	0.33293
3702.84375	0.34641
3700.91519	0.36399
3698.98662	0.38153
3697.05806	0.39737
3695.12949	0.41459
3693.20093	0.43407
3691.27236	0.45746
3689.34380	0.48771
3687.41523	0.51953
3685.48667	0.54363
3683.55811	0.56507
3681.62954	0.59126
3679.70098	0.62415
3677.77241	0.66123
3675.84385	0.70564
3673.91528	0.76037
3671.98672	0.80093
3670.05815	0.83834
3668.12959	0.89034
3666.20103	0.93464
3664.27246	0.97173
3662.34390	1.01419
3660.41533	1.06166
3658.48677	1.10964
3656.55820	1.16184
3654.62964	1.21941
3652.70107	1.26730
3650.77251	1.31164
3648.84395	1.37519
3646.91538	1.44695
3644.98682	1.49237
3643.05825	1.52685
3641.12969	1.56644
3639.20112	1.61260
3637.27256	1.65966
3635.34399	1.70626
3633.41543	1.75386
3631.48687	1.79920
3629.55830	1.84608
3627.62974	1.90525
3625.70117	1.95469
3623.77261	1.98500
3621.84404	2.01560
3619.91548	2.05316
3617.98691	2.09892
3616.05835	2.14085
3614.12979	2.17469
3612.20122	2.21181
3610.27266	2.25116
3608.34409	2.29337
3606.41553	2.33879
3604.48696	2.37802
3602.55840	2.41179
3600.62983	2.45010
3598.70127	2.49335
3596.77271	2.53567
3594.84414	2.57728
3592.91558	2.61769
3590.98701	2.65448
3589.05845	2.69102
3587.12988	2.73681
3585.20132	2.78366
3583.27275	2.81930
3581.34419	2.85267
3579.41562	2.89128
3577.48706	2.93360
3575.55850	2.97498
3573.62993	3.01649
3571.70137	3.05825
3569.77280	3.10004
3567.84424	3.14753
3565.91567	3.20540
3563.98711	3.25461
3562.05854	3.29015
3560.12998	3.32694
3558.20142	3.36671
3556.27285	3.40859
3554.34429	3.45520
3552.41572	3.50723
3550.48716	3.55676
3548.55859	3.59909
3546.63003	3.64051
3544.70146	3.68676
3542.77290	3.73445
3540.84434	3.78074
3538.91577	3.82917
3536.98721	3.88045
3535.05864	3.93277
3533.13008	3.98096
3531.20151	4.02599
3529.27295	4.07374
3527.34438	4.12412
3525.41582	4.17011
3523.48726	4.21313
3521.55869	4.26299
3519.63013	4.31432
3517.70156	4.35846
3515.77300	4.39887
3513.84443	4.44099
3511.91587	4.48782
3509.98730	4.54089
3508.05874	4.59452
3506.13018	4.64301
3504.20161	4.68745
3502.27305	4.73078
3500.34448	4.77572
3498.41592	4.82266
3496.48735	4.87388
3494.55879	4.92679
3492.63022	4.97569
3490.70166	5.02446
3488.77310	5.07520
3486.84453	5.12161
3484.91597	5.16645
3482.98740	5.22034
3481.05884	5.28033
3479.13027	5.33250
3477.20171	5.37703
3475.27314	5.42270
3473.34458	5.46732
3471.41602	5.50552
3469.48745	5.54556
3467.55889	5.60162
3465.63032	5.66410
3463.70176	5.71332
3461.77319	5.75604
3459.84463	5.80552
3457.91606	5.85558
3455.98750	5.90544
3454.05894	5.96019
3452.13037	6.01177
3450.20181	6.05506
3448.27324	6.10495
3446.34468	6.16662
3444.41611	6.21823
3442.48755	6.26982
3440.55898	6.33016
3438.63042	6.37751
3436.70186	6.41570
3434.77329	6.46531
3432.84473	6.52253
3430.91616	6.57391
3428.98760	6.62294
3427.05903	6.66518
3425.13047	6.70954
3423.20190	6.77177
3421.27334	6.83713
3419.34478	6.87746
3417.41621	6.91615
3415.48765	6.97844
3413.55908	7.02305
3411.63052	7.05003
3409.70195	7.09612
3407.77339	7.14735
3405.84482	7.17451
3403.91626	7.20572
3401.98770	7.25954
3400.05913	7.32271
3398.13057	7.39616
3396.20200	7.46461
3394.27344	7.50190
3392.34487	7.51867
3390.41631	7.55308
3388.48774	7.57304
3386.55918	7.58061
3384.63062	7.62671
3382.70205	7.70075
3380.77349	7.76122
3378.84492	7.78213
3376.91636	7.79686
3374.98779	7.82204
3373.05923	7.82949
3371.13066	7.84501
3369.20210	7.91965
3367.27354	8.01835
3365.34497	8.09052
3363.41641	8.09072
3361.48784	8.04735
3359.55928	8.05040
3357.63071	8.08533
3355.70215	8.10564
3353.77358	8.07213
3351.84502	8.02298
3349.91646	8.02943
3347.98789	8.08140
3346.05933	8.13307
3344.13076	8.19871
3342.20220	8.24191
3340.27363	8.22072
3338.34507	8.21630
3336.41650	8.20321
3334.48794	8.16047
3332.55937	8.16052
3330.63081	8.23626
3328.70225	8.29021
3326.77368	8.27868
3324.84512	8.28251
3322.91655	8.28777
3320.98799	8.32334
3319.05942	8.36310
3317.13086	8.30647
3315.20229	8.22288
3313.27373	8.24366
3311.34517	8.33534
3309.41660	8.39357
3307.48804	8.42565
3305.55947	8.42538
3303.63091	8.36203
3301.70234	8.29574
3299.77378	8.31349
3297.84521	8.40599
3295.91665	8.49135
3293.98809	8.45704
3292.05952	8.34769
3290.13096	8.29613
3288.20239	8.33267
3286.27383	8.42024
3284.34526	8.50317
3282.41670	8.59433
3280.48813	8.63089
3278.55957	8.54745
3276.63101	8.39728
3274.70244	8.26667
3272.77388	8.26178
3270.84531	8.35483
3268.91675	8.36216
3266.98818	8.32654
3265.05962	8.39379
3263.13105	8.40404
3261.20249	8.28197
3259.27393	8.14793
3257.34536	8.12524
3255.41680	8.25955
3253.48823	8.37235
3251.55967	8.41146
3249.63110	8.48883
3247.70254	8.50436
3245.77397	8.42408
3243.84541	8.43129
3241.91685	8.54570
3239.98828	8.62636
3238.05972	8.59078
3236.13115	8.46430
3234.20259	8.38019
3232.27402	8.35930
3230.34546	8.30980
3228.41689	8.25598
3226.48833	8.23878
3224.55977	8.19444
3222.63120	8.13752
3220.70264	8.15229
3218.77407	8.19218
3216.84551	8.16778
3214.91694	8.14020
3212.98838	8.16500
3211.05981	8.17316
3209.13125	8.13828
3207.20269	8.13361
3205.27412	8.16111
3203.34556	8.11147
3201.41699	7.98315
3199.48843	7.87485
3197.55986	7.78817
3195.63130	7.70783
3193.70273	7.65254
3191.77417	7.61954
3189.84561	7.59601
3187.91704	7.53755
3185.98848	7.45407
3184.05991	7.39991
3182.13135	7.34784
3180.20278	7.27990
3178.27422	7.23692
3176.34565	7.24283
3174.41709	7.24462
3172.48853	7.16836
3170.55996	7.03935
3168.63140	6.93276
3166.70283	6.87085
3164.77427	6.82258
3162.84570	6.76230
3160.91714	6.68672
3158.98857	6.61507
3157.06001	6.56601
3155.13145	6.51858
3153.20288	6.44186
3151.27432	6.35199
3149.34575	6.27428
3147.41719	6.19296
3145.48862	6.10366
3143.56006	6.03013
3141.63149	5.97917
3139.70293	5.93114
3137.77437	5.86716
3135.84580	5.78789
3133.91724	5.70615
3131.98867	5.63518
3130.06011	5.57001
3128.13154	5.49888
3126.20298	5.42796
3124.27441	5.36223
3122.34585	5.29639
3120.41729	5.22577
3118.48872	5.15098
3116.56016	5.07968
3114.63159	5.01099
3112.70303	4.93897
3110.77446	4.86779
3108.84590	4.80180
3106.91733	4.73588
3104.98877	4.66382
3103.06021	4.59071
3101.13164	4.52228
3099.20308	4.45665
3097.27451	4.39114
3095.34595	4.32374
3093.41738	4.25531
3091.48882	4.19133
3089.56025	4.13265
3087.63169	4.07275
3085.70312	4.00978
3083.77456	3.94714
3081.84600	3.88573
3079.91743	3.82402
3077.98887	3.76139
3076.06030	3.70011
3074.13174	3.64235
3072.20317	3.58659
3070.27461	3.53008
3068.34604	3.47341
3066.41748	3.41817
3064.48892	3.36323
3062.56035	3.30777
3060.63179	3.25349
3058.70322	3.20051
3056.77466	3.14734
3054.84609	3.09466
3052.91753	3.04378
3050.98896	2.99372
3049.06040	2.94333
3047.13184	2.89316
3045.20327	2.84398
3043.27471	2.79611
3041.34614	2.74877
3039.41758	2.70136
3037.48901	2.65479
3035.56045	2.60959
3033.63188	2.56574
3031.70332	2.52227
3029.77476	2.47819
3027.84619	2.43460
3025.91763	2.39261
3023.98906	2.35198
3022.06050	2.31150
3020.13193	2.27045
3018.20337	2.22967
3016.27480	2.19029
3014.34624	2.15275
3012.41768	2.11616
3010.48911	2.07918
3008.56055	2.04224
3006.63198	2.00628
3004.70342	1.97085
3002.77485	1.93591
3000.84629	1.90219
2998.91772	1.86926
2996.98916	1.83656
2995.06060	1.80449
2993.13203	1.77322
2991.20347	1.74236
2989.27490	1.71195
2987.34634	1.68243
2985.41777	1.65390
2983.48921	1.62581
2981.56064	1.59776
2979.63208	1.57007
2977.70352	1.54289
2975.77495	1.51640
2973.84639	1.49056
2971.91782	1.46495
2969.98926	1.43955
2968.06069	1.41466
2966.13213	1.39031
2964.20356	1.36633
2962.27500	1.34272
2960.34644	1.31946
2958.41787	1.29650
2956.48931	1.27362
2954.56074	1.25058
2952.63218	1.22783
2950.70361	1.20582
2948.77505	1.18416
2946.84648	1.16246
2944.91792	1.14110
2942.98936	1.12054
2941.06079	1.10079
2939.13223	1.08138
2937.20366	1.06194
2935.27510	1.04257
2933.34653	1.02321
2931.41797	1.00433
2929.48940	0.98649
2927.56084	0.96899
2925.63228	0.95118
2923.70371	0.93357
2921.77515	0.91639
2919.84658	0.89969
2917.91802	0.88335
2915.98945	0.86704
2914.06089	0.85120
2912.13232	0.83604
2910.20376	0.82124
2908.27520	0.80667
2906.34663	0.79257
2904.41807	0.77898
2902.48950	0.76565
2900.56094	0.75250
2898.63237	0.73969
2896.70381	0.72710
2894.77524	0.71446
2892.84668	0.70204
2890.91812	0.69044
2888.98955	0.67962
2887.06099	0.66899
2885.13242	0.65834
2883.20386	0.64788
2881.27529	0.63783
2879.34673	0.62814
2877.41816	0.61860
2875.48960	0.60904
2873.56104	0.59923
2871.63247	0.58891
2869.70391	0.57844
2867.77534	0.56821
2865.84678	0.55796
2863.91821	0.54765
2861.98965	0.53749
2860.06108	0.52753
2858.13252	0.51802
2856.20396	0.50904
2854.27539	0.50048
2852.34683	0.49224
2850.41826	0.48407
2848.48970	0.47587
2846.56113	0.46798
2844.63257	0.46076
2842.70400	0.45411
2840.77544	0.44785
2838.84687	0.44187
2836.91831	0.43600
2834.98975	0.43027
2833.06118	0.42450
2831.13262	0.41844
2829.20405	0.41242
2827.27549	0.40672
2825.34692	0.40115
2823.41836	0.39556
2821.48979	0.38994
2819.56123	0.38442
2817.63267	0.37894
2815.70410	0.37342
2813.77554	0.36790
2811.84697	0.36246
2809.91841	0.35711
2807.98984	0.35188
2806.06128	0.34674
2804.13271	0.34169
2802.20415	0.33685
2800.27559	0.33222
2798.34702	0.32763
2796.41846	0.32304
2794.48989	0.31854
2792.56133	0.31408
2790.63276	0.30965
2788.70420	0.30535
2786.77563	0.30121
2784.84707	0.29727
2782.91851	0.29340
2780.98994	0.28947
2779.06138	0.28553
2777.13281	0.28162
2775.20425	0.27784
2773.27568	0.27429
2771.34712	0.27085
2769.41855	0.26748
2767.48999	0.26413
2765.56143	0.26076
2763.63286	0.25747
2761.70430	0.25423
2759.77573	0.25095
2757.84717	0.24776
2755.91860	0.24491
2753.99004	0.24230
2752.06147	0.23957
2750.13291	0.23662
2748.20435	0.23368
2746.27578	0.23092
2744.34722	0.22829
2742.41865	0.22577
2740.49009	0.22345
2738.56152	0.22124
2736.63296	0.21889
2734.70439	0.21634
2732.77583	0.21386
2730.84727	0.21165
2728.91870	0.20958
2726.99014	0.20750
2725.06157	0.20538
2723.13301	0.20327
2721.20444	0.20110
2719.27588	0.19899
2717.34731	0.19718
2715.41875	0.19552
2713.49019	0.19372
2711.56162	0.19193
2709.63306	0.19033
2707.70449	0.18878
2705.77593	0.18705
2703.84736	0.18524
2701.91880	0.18369
2699.99023	0.18249
2698.06167	0.18133
2696.13311	0.17996
2694.20454	0.17847
2692.27598	0.17699
2690.34741	0.17557
2688.41885	0.17432
2686.49028	0.17322
2684.56172	0.17215
2682.63315	0.17112
2680.70459	0.17011
2678.77603	0.16896
2676.84746	0.16777
2674.91890	0.16666
2672.99033	0.16569
2671.06177	0.16480
2669.13320	0.16390
2667.20464	0.16301
2665.27607	0.16206
2663.34751	0.16100
2661.41895	0.15993
2659.49038	0.15899
2657.56182	0.15832
2655.63325	0.15776
2653.70469	0.15709
2651.77612	0.15639
2649.84756	0.15577
2647.91899	0.15517
2645.99043	0.15458
2644.06187	0.15415
2642.13330	0.15382
2640.20474	0.15335
2638.27617	0.15274
2636.34761	0.15221
2634.41904	0.15175
2632.49048	0.15134
2630.56191	0.15096
2628.63335	0.15056
2626.70479	0.15013
2624.77622	0.14981
2622.84766	0.14965
2620.91909	0.14950
2618.99053	0.14931
2617.06196	0.14908
2615.13340	0.14887
2613.20483	0.14879
2611.27627	0.14873
2609.34771	0.14854
2607.41914	0.14833
2605.49058	0.14819
2603.56201	0.14815
2601.63345	0.14821
2599.70488	0.14825
2597.77632	0.14828
2595.84775	0.14835
2593.91919	0.14843
2591.99062	0.14848
2590.06206	0.14848
2588.13350	0.14864
2586.20493	0.14902
2584.27637	0.14934
2582.34780	0.14946
2580.41924	0.14953
2578.49067	0.14971
2576.56211	0.15003
2574.63354	0.15047
2572.70498	0.15095
2570.77642	0.15143
2568.84785	0.15185
2566.91929	0.15214
2564.99072	0.15230
2563.06216	0.15253
2561.13359	0.15296
2559.20503	0.15350
2557.27646	0.15395
2555.34790	0.15430
2553.41934	0.15475
2551.49077	0.15532
2549.56221	0.15585
2547.63364	0.15637
2545.70508	0.15698
2543.77651	0.15777
2541.84795	0.15858
2539.91938	0.15920
2537.99082	0.15967
2536.06226	0.16019
2534.13369	0.16076
2532.20513	0.16139
2530.27656	0.16218
2528.34800	0.16296
2526.41943	0.16359
2524.49087	0.16418
2522.56230	0.16484
2520.63374	0.16550
2518.70518	0.16624
2516.77661	0.16713
2514.84805	0.16804
2512.91948	0.16888
2510.99092	0.16969
2509.06235	0.17042
2507.13379	0.17118
2505.20522	0.17213
2503.27666	0.17309
2501.34810	0.17391
2499.41953	0.17465
2497.49097	0.17542
2495.56240	0.17625
2493.63384	0.17708
2491.70527	0.17789
2489.77671	0.17868
2487.84814	0.17945
2485.91958	0.18029
2483.99102	0.18123
2482.06245	0.18219
2480.13389	0.18311
2478.20532	0.18403
2476.27676	0.18501
2474.34819	0.18591
2472.41963	0.18662
2470.49106	0.18734
2468.56250	0.18818
2466.63394	0.18905
2464.70537	0.19005
2462.77681	0.19114
2460.84824	0.19213
2458.91968	0.19296
2456.99111	0.19381
2455.06255	0.19481
2453.13398	0.19585
2451.20542	0.19681
2449.27686	0.19764
2447.34829	0.19848
2445.41973	0.19952
2443.49116	0.20072
2441.56260	0.20184
2439.63403	0.20287
2437.70547	0.20386
2435.77690	0.20480
2433.84834	0.20576
2431.91978	0.20685
2429.99121	0.20797
2428.06265	0.20894
2426.13408	0.20985
2424.20552	0.21091
2422.27695	0.21210
2420.34839	0.21325
2418.41982	0.21436
2416.49126	0.21554
2414.56270	0.21675
2412.63413	0.21784
2410.70557	0.21896
2408.77700	0.22026
2406.84844	0.22149
2404.91987	0.22256
2402.99131	0.22368
2401.06274	0.22497
2399.13418	0.22623
2397.20562	0.22728
2395.27705	0.22841
2393.34849	0.22976
2391.41992	0.23125
2389.49136	0.23342
2387.56279	0.23761
2385.63423	0.24541
2383.70566	0.25811
2381.77710	0.27603
2379.84854	0.29830
2377.91997	0.32398
2375.99141	0.35350
2374.06284	0.38795
2372.13428	0.42709
2370.20571	0.46903
2368.27715	0.51146
2366.34858	0.55255
2364.42002	0.58899
2362.49146	0.61566
2360.56289	0.63036
2358.63433	0.63181
2356.70576	0.61544
2354.77720	0.58042
2352.84863	0.53403
2350.92007	0.48726
2348.99150	0.45816
2347.06294	0.45790
2345.13437	0.48649
2343.20581	0.52510
2341.27725	0.54436
2339.34868	0.54388
2337.42012	0.53808
2335.49155	0.53286
2333.56299	0.52741
2331.63442	0.52234
2329.70586	0.51678
2327.77729	0.50839
2325.84873	0.49672
2323.92017	0.48332
2321.99160	0.46879
2320.06304	0.45223
2318.13447	0.43445
2316.20591	0.41886
2314.27734	0.40819
2312.34878	0.40161
2310.42021	0.39543
2308.49165	0.38684
2306.56309	0.37626
2304.63452	0.36634
2302.70596	0.35940
2300.77739	0.35499
2298.84883	0.35128
2296.92026	0.34776
2294.99170	0.34451
2293.06313	0.34122
2291.13457	0.33779
2289.20601	0.33456
2287.27744	0.33170
2285.34888	0.32929
2283.42031	0.32819
2281.49175	0.32932
2279.56318	0.33226
2277.63462	0.33549
2275.70605	0.33825
2273.77749	0.34066
2271.84893	0.34284
2269.92036	0.34487
2267.99180	0.34679
2266.06323	0.34851
2264.13467	0.35002
2262.20610	0.35146
2260.27754	0.35285
2258.34897	0.35409
2256.42041	0.35523
2254.49185	0.35647
2252.56328	0.35786
2250.63472	0.35924
2248.70615	0.36053
2246.77759	0.36191
2244.84902	0.36354
2242.92046	0.36540
2240.99189	0.36741
2239.06333	0.36943
2237.13477	0.37141
2235.20620	0.37339
2233.27764	0.37536
2231.34907	0.37734
2229.42051	0.37943
2227.49194	0.38161
2225.56338	0.38375
2223.63481	0.38582
2221.70625	0.38792
2219.77769	0.39011
2217.84912	0.39237
2215.92056	0.39463
2213.99199	0.39680
2212.06343	0.39888
2210.13486	0.40093
2208.20630	0.40297
2206.27773	0.40501
2204.34917	0.40708
2202.42061	0.40922
2200.49204	0.41131
2198.56348	0.41330
2196.63491	0.41521
2194.70635	0.41708
2192.77778	0.41890
2190.84922	0.42068
2188.92065	0.42254
2186.99209	0.42452
2185.06353	0.42644
2183.13496	0.42820
2181.20640	0.42982
2179.27783	0.43139
2177.34927	0.43305
2175.42070	0.43465
2173.49214	0.43611
2171.56357	0.43753
2169.63501	0.43893
2167.70645	0.44026
2165.77788	0.44155
2163.84932	0.44283
2161.92075	0.44409
2159.99219	0.44529
2158.06362	0.44639
2156.13506	0.44737
2154.20649	0.44828
2152.27793	0.44916
2150.34937	0.44996
2148.42080	0.45064
2146.49224	0.45117
2144.56367	0.45165
2142.63511	0.45218
2140.70654	0.45268
2138.77798	0.45303
2136.84941	0.45323
2134.92085	0.45342
2132.99229	0.45356
2131.06372	0.45352
2129.13516	0.45339
2127.20659	0.45332
2125.27803	0.45322
2123.34946	0.45297
2121.42090	0.45257
2119.49233	0.45200
2117.56377	0.45144
2115.63521	0.45085
2113.70664	0.45008
2111.77808	0.44924
2109.84951	0.44834
2107.92095	0.44735
2105.99238	0.44634
2104.06382	0.44536
2102.13525	0.44425
2100.20669	0.44307
2098.27812	0.44182
2096.34956	0.44045
2094.42100	0.43901
2092.49243	0.43751
2090.56387	0.43591
2088.63530	0.43423
2086.70674	0.43256
2084.77817	0.43084
2082.84961	0.42912
2080.92104	0.42744
2078.99248	0.42569
2077.06392	0.42380
2075.13535	0.42173
2073.20679	0.41955
2071.27822	0.41736
2069.34966	0.41521
2067.42109	0.41314
2065.49253	0.41107
2063.56396	0.40874
2061.63540	0.40618
2059.70684	0.40362
2057.77827	0.40110
2055.84971	0.39858
2053.92114	0.39611
2051.99258	0.39377
2050.06401	0.39141
2048.13545	0.38886
2046.20688	0.38620
2044.27832	0.38366
2042.34976	0.38125
2040.42119	0.37871
2038.49263	0.37604
2036.56406	0.37332
2034.63550	0.37058
2032.70693	0.36775
2030.77837	0.36491
2028.84980	0.36218
2026.92124	0.35958
2024.99268	0.35697
2023.06411	0.35435
2021.13555	0.35180
2019.20698	0.34934
2017.27842	0.34686
2015.34985	0.34404
2013.42129	0.34099
2011.49272	0.33810
2009.56416	0.33543
2007.63560	0.33283
2005.70703	0.33018
2003.77847	0.32746
2001.84990	0.32475
1999.92134	0.32211
1997.99277	0.31949
1996.06421	0.31697
1994.13564	0.31490
1992.20708	0.31308
1990.27852	0.31070
1988.34995	0.30783
1986.42139	0.30500
1984.49282	0.30239
1982.56426	0.29998
1980.63569	0.29762
1978.70713	0.29529
1976.77856	0.29306
1974.85000	0.29083
1972.92144	0.28854
1970.99287	0.28642
1969.06431	0.28480
1967.13574	0.28335
1965.20718	0.28123
1963.27861	0.27868
1961.35005	0.27647
1959.42148	0.27457
1957.49292	0.27277
1955.56436	0.27105
1953.63579	0.26930
1951.70723	0.26751
1949.77866	0.26587
1947.85010	0.26439
1945.92153	0.26316
1943.99297	0.26220
1942.06440	0.26100
1940.13584	0.25897
1938.20728	0.25680
1936.27871	0.25517
1934.35015	0.25391
1932.42158	0.25274
1930.49302	0.25152
1928.56445	0.25033
1926.63589	0.24931
1924.70732	0.24886
1922.77876	0.24873
1920.85020	0.24801
1918.92163	0.24697
1916.99307	0.24584
1915.06450	0.24421
1913.13594	0.24281
1911.20737	0.24237
1909.27881	0.24222
1907.35024	0.24144
1905.42168	0.24025
1903.49312	0.23937
1901.56455	0.23875
1899.63599	0.23815
1897.70742	0.23773
1895.77886	0.23757
1893.85029	0.23736
1891.92173	0.23715
1889.99316	0.23733
1888.06460	0.23706
1886.13604	0.23617
1884.20747	0.23551
1882.27891	0.23518
1880.35034	0.23502
1878.42178	0.23495
1876.49321	0.23488
1874.56465	0.23486
1872.63608	0.23532
1870.70752	0.23685
1868.77896	0.23903
1866.85039	0.23935
1864.92183	0.23771
1862.99326	0.23651
1861.06470	0.23637
1859.13613	0.23673
1857.20757	0.23700
1855.27900	0.23720
1853.35044	0.23746
1851.42187	0.23795
1849.49331	0.23890
1847.56475	0.24043
1845.63618	0.24248
1843.70762	0.24425
1841.77905	0.24418
1839.85049	0.24337
1837.92192	0.24360
1835.99336	0.24441
1834.06479	0.24531
1832.13623	0.24702
1830.20767	0.24984
1828.27910	0.25170
1826.35054	0.25209
1824.42197	0.25284
1822.49341	0.25341
1820.56484	0.25387
1818.63628	0.25501
1816.70771	0.25668
1814.77915	0.25838
1812.85059	0.26057
1810.92202	0.26323
1808.99346	0.26524
1807.06489	0.26662
1805.13633	0.26831
1803.20776	0.27098
1801.27920	0.27432
1799.35063	0.27738
1797.42207	0.27968
1795.49351	0.28231
1793.56494	0.28609
1791.63638	0.29031
1789.70781	0.29254
1787.77925	0.29364
1785.85068	0.29627
1783.92212	0.30009
1781.99355	0.30435
1780.06499	0.30881
1778.13643	0.31294
1776.20786	0.31708
1774.27930	0.32269
1772.35073	0.33033
1770.42217	0.33652
1768.49360	0.34005
1766.56504	0.34368
1764.63647	0.34838
1762.70791	0.35467
1760.77935	0.36262
1758.85078	0.36947
1756.92222	0.37632
1754.99365	0.38377
1753.06509	0.39096
1751.13652	0.40074
1749.20796	0.41297
1747.27939	0.42336
1745.35083	0.43162
1743.42227	0.44068
1741.49370	0.45102
1739.56514	0.46328
1737.63657	0.47555
1735.70801	0.48711
1733.77944	0.50505
1731.85088	0.52429
1729.92231	0.53782
1727.99375	0.55165
1726.06519	0.56731
1724.13662	0.58548
1722.20806	0.60563
1720.27949	0.62498
1718.35093	0.64919
1716.42236	0.68367
1714.49380	0.71261
1712.56523	0.73430
1710.63667	0.75658
1708.70811	0.78236
1706.77954	0.81281
1704.85098	0.84887
1702.92241	0.88042
1700.99385	0.91217
1699.06528	0.95987
1697.13672	1.00242
1695.20815	1.04375
1693.27959	1.08320
1691.35103	1.11625
1689.42246	1.15644
1687.49390	1.19940
1685.56533	1.24160
1683.63677	1.30625
1681.70820	1.36974
1679.77964	1.40835
1677.85107	1.44628
1675.92251	1.49199
1673.99395	1.54947
1672.06538	1.60065
1670.13682	1.65109
1668.20825	1.71482
1666.27969	1.76492
1664.35112	1.80869
1662.42256	1.86511
1660.49399	1.92746
1658.56543	1.97561
1656.63687	2.01548
1654.70830	2.05399
1652.77974	2.11595
1650.85117	2.17150
1648.92261	2.19134
1646.99404	2.22016
1645.06548	2.25076
1643.13691	2.26834
1641.20835	2.27838
1639.27979	2.28867
1637.35122	2.29830
1635.42266	2.30305
1633.49409	2.29452
1631.56553	2.27910
1629.63696	2.26379
1627.70840	2.23820
1625.77983	2.20671
1623.85127	2.16638
1621.92271	2.11466
1619.99414	2.06809
1618.06558	2.02547
1616.13701	1.96461
1614.20845	1.89830
1612.27988	1.84658
1610.35132	1.79523
1608.42275	1.74097
1606.49419	1.68621
1604.56562	1.63497
1602.63706	1.58612
1600.70850	1.53872
1598.77993	1.49542
1596.85137	1.45518
1594.92280	1.41574
1592.99424	1.37656
1591.06567	1.33997
1589.13711	1.30556
1587.20854	1.27361
1585.27998	1.24420
1583.35142	1.21665
1581.42285	1.19148
1579.49429	1.17061
1577.56572	1.15296
1575.63716	1.13060
1573.70859	1.10861
1571.78003	1.09423
1569.85146	1.08056
1567.92290	1.06441
1565.99434	1.05140
1564.06577	1.04189
1562.13721	1.03529
1560.20864	1.03274
1558.28008	1.02992
1556.35151	1.02214
1554.42295	1.01517
1552.49438	1.00939
1550.56582	1.00378
1548.63726	0.99717
1546.70869	0.99051
1544.78013	0.98404
1542.85156	0.97668
1540.92300	0.96469
1538.99443	0.94048
1537.06587	0.91984
1535.13730	0.90722
1533.20874	0.89236
1531.28018	0.87529
1529.35161	0.86285
1527.42305	0.85277
1525.49448	0.84286
1523.56592	0.83444
1521.63735	0.82638
1519.70879	0.81644
1517.78022	0.80722
1515.85166	0.79684
1513.92310	0.78554
1511.99453	0.77668
1510.06597	0.77082
1508.13740	0.76722
1506.20884	0.75739
1504.28027	0.74305
1502.35171	0.73450
1500.42314	0.72918
1498.49458	0.72512
1496.56602	0.71989
1494.63745	0.71300
1492.70889	0.70795
1490.78032	0.70572
1488.85176	0.70330
1486.92319	0.69806
1484.99463	0.69247
1483.06606	0.68868
1481.13750	0.68644
1479.20894	0.68493
1477.28037	0.68454
1475.35181	0.68573
1473.42324	0.68733
1471.49468	0.68570
1469.56611	0.68113
1467.63755	0.67776
1465.70898	0.67624
1463.78042	0.67481
1461.85186	0.67314
1459.92329	0.67323
1457.99473	0.67534
1456.06616	0.67450
1454.13760	0.66906
1452.20903	0.66435
1450.28047	0.66091
1448.35190	0.65827
1446.42334	0.65543
1444.49478	0.65219
1442.56621	0.64934
1440.63765	0.64707
1438.70908	0.64560
1436.78052	0.64429
1434.85195	0.64139
1432.92339	0.63807
1430.99482	0.63598
1429.06626	0.63457
1427.13770	0.63333
1425.20913	0.63296
1423.28057	0.63328
1421.35200	0.63359
1419.42344	0.63422
1417.49487	0.63377
1415.56631	0.63113
1413.63774	0.62869
1411.70918	0.62760
1409.78062	0.62743
1407.85205	0.62762
1405.92349	0.62823
1403.99492	0.62845
1402.06636	0.62777
1400.13779	0.62735
1398.20923	0.62702
1396.28066	0.62563
1394.35210	0.62257
1392.42354	0.61823
1390.49497	0.61444
1388.56641	0.61176
1386.63784	0.60880
1384.70928	0.60484
1382.78071	0.60105
1380.85215	0.59814
1378.92358	0.59588
1376.99502	0.59417
1375.06646	0.59323
1373.13789	0.59221
1371.20933	0.59072
1369.28076	0.58966
1367.35220	0.58874
1365.42363	0.58779
1363.49507	0.58738
1361.56650	0.58655
1359.63794	0.58457
1357.70937	0.58273
1355.78081	0.58141
1353.85225	0.58028
1351.92368	0.57928
1349.99512	0.57848
1348.06655	0.57759
1346.13799	0.57657
1344.20942	0.57579
1342.28086	0.57559
1340.35229	0.57587
1338.42373	0.57552
1336.49517	0.57402
1334.56660	0.57244
1332.63804	0.57149
1330.70947	0.57110
1328.78091	0.57102
1326.85234	0.57108
1324.92378	0.57119
1322.99521	0.57143
1321.06665	0.57181
1319.13809	0.57214
1317.20952	0.57210
1315.28096	0.57179
1313.35239	0.57135
1311.42383	0.57054
1309.49526	0.56949
1307.56670	0.56852
1305.63813	0.56771
1303.70957	0.56697
1301.78101	0.56618
1299.85244	0.56531
1297.92388	0.56446
1295.99531	0.56351
1294.06675	0.56245
1292.13818	0.56157
1290.20962	0.56081
1288.28105	0.55986
1286.35249	0.55879
1284.42393	0.55777
1282.49536	0.55678
1280.56680	0.55577
1278.63823	0.55468
1276.70967	0.55368
1274.78110	0.55295
1272.85254	0.55242
1270.92397	0.55184
1268.99541	0.55123
1267.06685	0.55072
1265.13828	0.55015
1263.20972	0.54939
1261.28115	0.54863
1259.35259	0.54803
1257.42402	0.54746
1255.49546	0.54694
1253.56689	0.54662
1251.63833	0.54651
1249.70977	0.54653
1247.78120	0.54655
1245.85264	0.54633
1243.92407	0.54582
1241.99551	0.54509
1240.06694	0.54417
1238.13838	0.54303
1236.20981	0.54167
1234.28125	0.54013
1232.35269	0.53856
1230.42412	0.53707
1228.49556	0.53565
1226.56699	0.53423
1224.63843	0.53286
1222.70986	0.53164
1220.78130	0.53046
1218.85273	0.52924
1216.92417	0.52814
1214.99561	0.52732
1213.06704	0.52661
1211.13848	0.52602
1209.20991	0.52552
1207.28135	0.52495
1205.35278	0.52429
1203.42422	0.52359
1201.49565	0.52278
1199.56709	0.52194
1197.63853	0.52125
1195.70996	0.52074
1193.78140	0.52033
1191.85283	0.51991
1189.92427	0.51945
1187.99570	0.51912
1186.06714	0.51898
1184.13857	0.51892
1182.21001	0.51907
1180.28145	0.51963
1178.35288	0.52039
1176.42432	0.52124
1174.49575	0.52235
1172.56719	0.52348
1170.63862	0.52416
1168.71006	0.52441
1166.78149	0.52460
1164.85293	0.52496
1162.92437	0.52532
1160.99580	0.52541
1159.06724	0.52520
1157.13867	0.52479
1155.21011	0.52407
1153.28154	0.52283
1151.35298	0.52119
1149.42441	0.51921
1147.49585	0.51685
1145.56729	0.51422
1143.63872	0.51156
1141.71016	0.50907
1139.78159	0.50697
1137.85303	0.50548
1135.92446	0.50449
1133.99590	0.50370
1132.06733	0.50286
1130.13877	0.50194
1128.21021	0.50109
1126.28164	0.50033
1124.35308	0.49963
1122.42451	0.49905
1120.49595	0.49867
1118.56738	0.49853
1116.63882	0.49859
1114.71025	0.49890
1112.78169	0.49938
1110.85312	0.49998
1108.92456	0.50083
1106.99600	0.50171
1105.06743	0.50243
1103.13887	0.50326
1101.21030	0.50451
1099.28174	0.50611
1097.35317	0.50804
1095.42461	0.51061
1093.49604	0.51395
1091.56748	0.51836
1089.63892	0.52390
1087.71035	0.53033
1085.78179	0.53786
1083.85322	0.54609
1081.92466	0.55360
1079.99609	0.55924
1078.06753	0.56234
1076.13896	0.56242
1074.21040	0.55947
1072.28184	0.55398
1070.35327	0.54703
1068.42471	0.53984
1066.49614	0.53301
1064.56758	0.52678
1062.63901	0.52129
1060.71045	0.51650
1058.78188	0.51240
1056.85332	0.50896
1054.92476	0.50594
1052.99619	0.50324
1051.06763	0.50103
1049.13906	0.49956
1047.21050	0.49876
1045.28193	0.49832
1043.35337	0.49814
1041.42480	0.49808
1039.49624	0.49793
1037.56768	0.49780
1035.63911	0.49758
1033.71055	0.49697
1031.78198	0.49619
1029.85342	0.49531
1027.92485	0.49417
1025.99629	0.49305
1024.06772	0.49226
1022.13916	0.49193
1020.21060	0.49205
1018.28203	0.49237
1016.35347	0.49271
1014.42490	0.49301
1012.49634	0.49330
1010.56777	0.49364
1008.63921	0.49406
1006.71064	0.49463
1004.78208	0.49564
1002.85352	0.49744
1000.92495	0.50002
998.99639	0.50320
997.06782	0.50695
995.13926	0.51108
993.21069	0.51523
991.28213	0.51890
989.35356	0.52138
987.42500	0.52232
985.49644	0.52242
983.56787	0.52264
981.63931	0.52321
979.71074	0.52410
977.78218	0.52542
975.85361	0.52740
973.92505	0.53015
971.99648	0.53337
970.06792	0.53678
968.13936	0.54045
966.21079	0.54430
964.28223	0.54826
962.35366	0.55271
960.42510	0.55781
958.49653	0.56323
956.56797	0.56874
954.63940	0.57440
952.71084	0.58042
950.78228	0.58683
948.85371	0.59332
946.92515	0.59979
944.99658	0.60611
943.06802	0.61225
941.13945	0.61880
939.21089	0.62561
937.28232	0.63174
935.35376	0.63702
933.42520	0.64195
931.49663	0.64722
929.56807	0.65282
927.63950	0.65847
925.71094	0.66453
923.78237	0.67060
921.85381	0.67629
919.92524	0.68244
917.99668	0.68929
916.06812	0.69657
914.13955	0.70412
912.21099	0.71166
910.28242	0.71904
908.35386	0.72632
906.42529	0.73447
904.49673	0.74412
902.56816	0.75384
900.63960	0.76319
898.71104	0.77325
896.78247	0.78363
894.85391	0.79288
892.92534	0.80139
890.99678	0.81038
889.06821	0.81986
887.13965	0.83077
885.21108	0.84346
883.28252	0.85591
881.35396	0.86684
879.42539	0.87688
877.49683	0.88764
875.56826	0.90009
873.63970	0.91255
871.71113	0.92351
869.78257	0.93442
867.85400	0.94603
865.92544	0.95749
863.99687	0.96954
862.06831	0.98230
860.13975	0.99412
858.21118	1.00457
856.28262	1.01422
854.35405	1.02359
852.42549	1.03354
850.49692	1.04538
848.56836	1.05930
846.63979	1.07468
844.71123	1.09057
842.78267	1.10364
840.85410	1.11165
838.92554	1.11647
836.99697	1.12423
835.06841	1.13998
833.13984	1.15860
831.21128	1.17227
829.28271	1.18436
827.35415	1.20126
825.42559	1.21762
823.49702	1.22905
821.56846	1.23966
819.63989	1.24852
817.71133	1.25932
815.78276	1.27760
813.85420	1.29471
811.92563	1.30994
809.99707	1.33324
808.06851	1.35786
806.13994	1.37795
804.21138	1.40252
802.28281	1.42935
800.35425	1.43926
798.42568	1.42838
796.49712	1.42831
794.56855	1.46594
792.63999	1.51100
790.71143	1.51171
788.78286	1.47926
786.85430	1.45849
784.92573	1.47833
782.99717	1.49032
781.06860	1.51271
779.14004	1.57988
777.21147	1.60280
775.28291	1.64239
773.35435	1.84875
771.42578	1.85625
769.49722	1.52956
767.56865	1.35739
765.64009	1.27318
763.71152	1.20496
761.78296	1.20684
759.85439	1.31361
757.92583	1.35160
755.99727	1.25236
754.06870	1.19605
752.14014	1.19033
750.21157	1.21978
748.28301	1.28694
746.35444	1.28175
744.42588	1.14124
742.49731	1.01921
740.56875	0.98930
738.64019	1.03452
736.71162	0.97433
734.78306	0.88264
732.85449	0.90496
730.92593	0.79379
728.99736	0.58584
727.06880	0.52002
725.14023	0.49280
723.21167	0.37381
721.28311	0.17586
719.35454	0.00346
717.42598	-0.07764
715.49741	-0.12844
713.56885	-0.15765
711.64028	-0.12832
709.71172	-0.07544
707.78315	0.01037
705.85459	0.10438
703.92603	0.15878
701.99746	0.16803
700.06890	0.15848
698.14033	0.13690
696.21177	0.07503
694.28320	0.05642
692.35464	0.14955
690.42607	0.27608
688.49751	0.27726
686.56895	0.19127
684.64038	0.13923
682.71182	0.10228
680.78325	0.03785
678.85469	0.02851
676.92612	0.13170
674.99756	0.26980
673.06899	0.34762
671.14043	0.33264
669.21187	0.28238
667.28330	0.22957
665.35474	0.18892
663.42617	0.17029
661.49761	0.14979
659.56904	0.10702
657.64048	0.06613
655.71191	0.07985
653.78335	0.18165
651.85479	0.30673
649.92622	0.29209
647.99766	0.21927
646.06909	0.17211
644.14053	0.13437
642.21196	0.09930
640.28340	0.08459
638.35483	0.10967
636.42627	0.21420
634.49771	0.32125
632.56914	0.30062
630.64058	0.29526
628.71201	0.37344
626.78345	0.31983
624.85488	0.26352
622.92632	0.32188
620.99775	0.36134
619.06919	0.26217
617.14062	0.14469
615.21206	0.09426
613.28350	0.10541
611.35493	0.16232
609.42637	0.21182
607.49780	0.25244
605.56924	0.32376
603.64067	0.37788
601.71211	0.35982
599.78354	0.35771
597.85498	0.32349
595.92642	0.19105
593.99785	0.11609
592.06929	0.16526
590.14072	0.22927
588.21216	0.21962
586.28359	0.17611
584.35503	0.14182
582.42646	0.13426
580.49790	0.16619
578.56934	0.21274
576.64077	0.22319
574.71221	0.18102
572.78364	0.16217
570.85508	0.16512
568.92651	0.12152
566.99795	0.08607
565.06938	0.09288
563.14082	0.09358
561.21226	0.12724
559.28369	0.19037
557.35513	0.21630
555.42656	0.22841
553.49800	0.26727
551.56943	0.29625
549.64087	0.26123
547.71230	0.21183
545.78374	0.21572
543.85518	0.25925
541.92661	0.29618
539.99805	0.24837
538.06948	0.14110
536.14092	0.08738
534.21235	0.11667
532.28379	0.17854
530.35522	0.16677
528.42666	0.13277
526.49810	0.14824
524.56953	0.16125
522.64097	0.13145
520.71240	0.12032
518.78384	0.10892
516.85527	0.07515
514.92671	0.09019
512.99814	0.18880
511.06958	0.26353
509.14102	0.23122
507.21245	0.18076
505.28389	0.14752
503.35532	0.13125
501.42676	0.15872
499.49819	0.19546
