3997.91411	0.05610
3995.98555	0.05673
3994.05698	0.05739
3992.12842	0.05794
3990.19985	0.05842
3988.27129	0.05848
3986.34272	0.05805
3984.41416	0.05789
3982.48560	0.05845
3980.55703	0.05909
3978.62847	0.05936
3976.69990	0.05966
3974.77134	0.06040
3972.84277	0.06128
3970.91421	0.06162
3968.98564	0.06136
3967.05708	0.06098
3965.12852	0.06097
3963.19995	0.06146
3961.27139	0.06182
3959.34282	0.06178
3957.41426	0.06205
3955.48569	0.06255
3953.55713	0.06251
3951.62856	0.06240
3949.70000	0.06277
3947.77144	0.06304
3945.84287	0.06291
3943.91431	0.06330
3941.98574	0.06423
3940.05718	0.06405
3938.12861	0.06282
3936.20005	0.06215
3934.27148	0.06267
3932.34292	0.06410
3930.41436	0.06535
3928.48579	0.06501
3926.55723	0.06415
3924.62866	0.06438
3922.70010	0.06459
3920.77153	0.06401
3918.84297	0.06393
3916.91440	0.06452
3914.98584	0.06431
3913.05728	0.06273
3911.12871	0.06117
3909.20015	0.06080
3907.27158	0.06200
3905.34302	0.06506
3903.41445	0.06897
3901.48589	0.07044
3899.55732	0.06881
3897.62876	0.06628
3895.70020	0.06452
3893.77163	0.06461
3891.84307	0.06620
3889.91450	0.06669
3887.98594	0.06526
3886.05737	0.06497
3884.12881	0.06640
3882.20024	0.06756
3880.27168	0.06820
3878.34312	0.06768
3876.41455	0.06666
3874.48599	0.06755
3872.55742	0.06980
3870.62886	0.07171
3868.70029	0.07254
3866.77173	0.07195
3864.84316	0.07207
3862.91460	0.07263
3860.98604	0.07127
3859.05747	0.06970
3857.12891	0.07014
3855.20034	0.07311
3853.27178	0.07862
3851.34321	0.08065
3849.41465	0.07603
3847.48608	0.07194
3845.55752	0.07079
3843.62896	0.07252
3841.70039	0.07598
3839.77183	0.07964
3837.84326	0.08234
3835.91470	0.08232
3833.98613	0.08034
3832.05757	0.07873
3830.12900	0.07809
3828.20044	0.07823
3826.27187	0.07931
3824.34331	0.08075
3822.41475	0.08289
3820.48618	0.08667
3818.55762	0.08862
3816.62905	0.08831
3814.70049	0.08773
3812.77192	0.08586
3810.84336	0.08441
3808.91479	0.08526
3806.98623	0.08827
3805.05767	0.09135
3803.12910	0.09393
3801.20054	0.09763
3799.27197	0.09951
3797.34341	0.09828
3795.41484	0.09669
3793.48628	0.09503
3791.55771	0.09429
3789.62915	0.09509
3787.70059	0.09688
3785.77202	0.09953
3783.84346	0.10214
3781.91489	0.10355
3779.98633	0.10520
3778.05776	0.10753
3776.12920	0.10822
3774.20063	0.10826
3772.27207	0.10985
3770.34351	0.11322
3768.41494	0.11697
3766.48638	0.11948
3764.55781	0.12103
3762.62925	0.12199
3760.70068	0.12396
3758.77212	0.12822
3756.84355	0.13239
3754.91499	0.13479
3752.98643	0.13793
3751.05786	0.14412
3749.12930	0.15041
3747.20073	0.15229
3745.27217	0.15385
3743.34360	0.15754
3741.41504	0.15986
3739.48647	0.16110
3737.55791	0.16458
3735.62935	0.17142
3733.70078	0.17843
3731.77222	0.18116
3729.84365	0.18192
3727.91509	0.18416
3725.98652	0.18969
3724.05796	0.19743
3722.12939	0.20479
3720.20083	0.21160
3718.27227	0.21813
3716.34370	0.22493
3714.41514	0.23304
3712.48657	0.24465
3710.55801	0.26059
3708.62944	0.27395
3706.70088	0.28220
3704.77231	0.29134
3702.84375	0.30467
3700.91519	0.32254
3698.98662	0.34104
3697.05806	0.35844
3695.12949	0.37764
3693.20093	0.39863
3691.27236	0.42254
3689.34380	0.45384
3687.41523	0.48932
3685.48667	0.51764
3683.55811	0.54197
3681.62954	0.56998
3679.70098	0.60342
3677.77241	0.63963
3675.84385	0.68218
3673.91528	0.73673
3671.98672	0.77998
3670.05815	0.81915
3668.12959	0.87240
3666.20103	0.91928
3664.27246	0.95791
3662.34390	1.00043
3660.41533	1.04804
3658.48677	1.09604
3656.55820	1.14715
3654.62964	1.20345
3652.70107	1.25060
3650.77251	1.29324
3648.84395	1.35311
3646.91538	1.42248
3644.98682	1.46971
3643.05825	1.50621
3641.12969	1.54551
3639.20112	1.58972
3637.27256	1.63426
3635.34399	1.67774
3633.41543	1.72168
3631.48687	1.76359
3629.55830	1.80676
3627.62974	1.86156
3625.70117	1.91031
3623.77261	1.94254
3621.84404	1.97501
3619.91548	2.01473
3617.98691	2.06197
3616.05835	2.10498
3614.12979	2.14155
3612.20122	2.18205
3610.27266	2.22326
3608.34409	2.26361
3606.41553	2.30452
3604.48696	2.34189
3602.55840	2.37630
3600.62983	2.41477
3598.70127	2.45765
3596.77271	2.49906
3594.84414	2.53874
3592.91558	2.57833
3590.98701	2.61605
3589.05845	2.65282
3587.12988	2.69772
3585.20132	2.74588
3583.27275	2.78557
3581.34419	2.82265
3579.41562	2.86257
3577.48706	2.90400
3575.55850	2.94508
3573.62993	2.98746
3571.70137	3.03106
3569.77280	3.07537
3567.84424	3.12210
3565.91567	3.17552
3563.98711	3.22420
3562.05854	3.26215
3560.12998	3.30056
3558.20142	3.34387
3556.27285	3.38942
3554.34429	3.43412
3552.41572	3.48175
3550.48716	3.53108
3548.55859	3.57574
3546.63003	3.61891
3544.70146	3.66667
3542.77290	3.71459
3540.84434	3.75962
3538.91577	3.80596
3536.98721	3.85361
3535.05864	3.90251
3533.13008	3.95123
3531.20151	3.99983
3529.27295	4.04995
3527.34438	4.09880
3525.41582	4.14219
3523.48726	4.18540
3521.55869	4.23355
3519.63013	4.28127
3517.70156	4.32868
3515.77300	4.37749
3513.84443	4.42546
3511.91587	4.47362
3509.98730	4.52410
3508.05874	4.57400
3506.13018	4.62148
3504.20161	4.66771
3502.27305	4.71255
3500.34448	4.75778
3498.41592	4.80386
3496.48735	4.85198
3494.55879	4.90269
3492.63022	4.95271
3490.70166	5.00038
3488.77310	5.04569
3486.84453	5.09219
3484.91597	5.14200
3482.98740	5.18771
3481.05884	5.22629
3479.13027	5.26519
3477.20171	5.30982
3475.27314	5.36101
3473.34458	5.41906
3471.41602	5.47572
3469.48745	5.52482
3467.55889	5.57447
3465.63032	5.62698
3463.70176	5.67583
3461.77319	5.72052
3459.84463	5.77474
3457.91606	5.84013
3455.98750	5.90004
3454.05894	5.94581
3452.13037	5.98832
3450.20181	6.04289
3448.27324	6.10327
3446.34468	6.16552
3444.41611	6.22508
3442.48755	6.26705
3440.55898	6.28982
3438.63042	6.30705
3436.70186	6.33962
3434.77329	6.40402
3432.84473	6.48229
3430.91616	6.54067
3428.98760	6.58272
3427.05903	6.62417
3425.13047	6.68128
3423.20190	6.75067
3421.27334	6.80974
3419.34478	6.84623
3417.41621	6.87793
3415.48765	6.92166
3413.55908	6.96323
3411.63052	7.00907
3409.70195	7.05773
3407.77339	7.08985
3405.84482	7.09935
3403.91626	7.11627
3401.98770	7.15991
3400.05913	7.20904
3398.13057	7.26226
3396.20200	7.33900
3394.27344	7.43449
3392.34487	7.50887
3390.41631	7.55316
3388.48774	7.55774
3386.55918	7.53405
3384.63062	7.54819
3382.70205	7.61475
3380.77349	7.66016
3378.84492	7.66327
3376.91636	7.68055
3374.98779	7.68996
3373.05923	7.68654
3371.13066	7.73551
3369.20210	7.83870
3367.27354	7.90567
3365.34497	7.90988
3363.41641	7.89401
3361.48784	7.88557
3359.55928	7.93665
3357.63071	8.04183
3355.70215	8.09525
3353.77358	8.04105
3351.84502	7.98936
3349.91646	7.98409
3347.98789	7.97018
3346.05933	7.94106
3344.13076	7.94553
3342.20220	8.00501
3340.27363	8.07016
3338.34507	8.10322
3336.41650	8.12630
3334.48794	8.16400
3332.55937	8.15000
3330.63081	8.09669
3328.70225	8.10062
3326.77368	8.17250
3324.84512	8.23470
3322.91655	8.23132
3320.98799	8.21968
3319.05942	8.22275
3317.13086	8.22550
3315.20229	8.22401
3313.27373	8.22611
3311.34517	8.23598
3309.41660	8.28870
3307.48804	8.34896
3305.55947	8.30530
3303.63091	8.22563
3301.70234	8.20295
3299.77378	8.23909
3297.84521	8.30014
3295.91665	8.36588
3293.98809	8.37515
3292.05952	8.28754
3290.13096	8.20902
3288.20239	8.23490
3286.27383	8.32634
3284.34526	8.33024
3282.41670	8.23104
3280.48813	8.14765
3278.55957	8.12671
3276.63101	8.18940
3274.70244	8.32261
3272.77388	8.38770
3270.84531	8.35058
3268.91675	8.30483
3266.98818	8.24764
3265.05962	8.20690
3263.13105	8.22118
3261.20249	8.23743
3259.27393	8.20046
3257.34536	8.17302
3255.41680	8.17536
3253.48823	8.17009
3251.55967	8.18256
3249.63110	8.20215
3247.70254	8.19040
3245.77397	8.16676
3243.84541	8.16081
3241.91685	8.18775
3239.98828	8.26229
3238.05972	8.30243
3236.13115	8.29103
3234.20259	8.30021
3232.27402	8.27207
3230.34546	8.19790
3228.41689	8.17728
3226.48833	8.21527
3224.55977	8.22407
3222.63120	8.22492
3220.70264	8.23982
3218.77407	8.20928
3216.84551	8.13057
3214.91694	8.03851
3212.98838	7.99696
3211.05981	8.02496
3209.13125	8.04880
3207.20269	7.99148
3205.27412	7.87444
3203.34556	7.77784
3201.41699	7.72490
3199.48843	7.69530
3197.55986	7.68930
3195.63130	7.68714
3193.70273	7.66608
3191.77417	7.64691
3189.84561	7.61628
3187.91704	7.56259
3185.98848	7.50342
3184.05991	7.43288
3182.13135	7.36491
3180.20278	7.31815
3178.27422	7.27739
3176.34565	7.22356
3174.41709	7.15022
3172.48853	7.07425
3170.55996	7.01343
3168.63140	6.96643
3166.70283	6.90748
3164.77427	6.81666
3162.84570	6.73273
3160.91714	6.68132
3158.98857	6.63191
3157.06001	6.55922
3155.13145	6.47643
3153.20288	6.40848
3151.27432	6.35806
3149.34575	6.30712
3147.41719	6.23727
3145.48862	6.15253
3143.56006	6.07116
3141.63149	5.99716
3139.70293	5.92122
3137.77437	5.84710
3135.84580	5.78694
3133.91724	5.73067
3131.98867	5.66398
3130.06011	5.59573
3128.13154	5.52670
3126.20298	5.44751
3124.27441	5.37004
3122.34585	5.30139
3120.41729	5.22964
3118.48872	5.15184
3116.56016	5.07405
3114.63159	4.99848
3112.70303	4.92665
3110.77446	4.86023
3108.84590	4.79839
3106.91733	4.73857
3104.98877	4.67630
3103.06021	4.60902
3101.13164	4.53701
3099.20308	4.46272
3097.27451	4.39309
3095.34595	4.32962
3093.41738	4.26584
3091.48882	4.20028
3089.56025	4.13428
3087.63169	4.06794
3085.70312	4.00395
3083.77456	3.94328
3081.84600	3.88297
3079.91743	3.82039
3077.98887	3.75700
3076.06030	3.69511
3074.13174	3.63536
3072.20317	3.57787
3070.27461	3.52084
3068.34604	3.46355
3066.41748	3.40681
3064.48892	3.35015
3062.56035	3.29431
3060.63179	3.24067
3058.70322	3.18772
3056.77466	3.13402
3054.84609	3.08146
3052.91753	3.03098
3050.98896	2.98023
3049.06040	2.92824
3047.13184	2.87696
3045.20327	2.82736
3043.27471	2.77903
3041.34614	2.73176
3039.41758	2.68514
3037.48901	2.63895
3035.56045	2.59389
3033.63188	2.55005
3031.70332	2.50580
3029.77476	2.46092
3027.84619	2.41765
3025.91763	2.37581
3023.98906	2.33339
3022.06050	2.29122
3020.13193	2.25052
3018.20337	2.21056
3016.27480	2.17120
3014.34624	2.13299
3012.41768	2.09558
3010.48911	2.05869
3008.56055	2.02250
3006.63198	1.98654
3004.70342	1.95058
3002.77485	1.91519
3000.84629	1.88064
2998.91772	1.84678
2996.98916	1.81350
2995.06060	1.78110
2993.13203	1.74942
2991.20347	1.71795
2989.27490	1.68693
2987.34634	1.65655
2985.41777	1.62686
2983.48921	1.59770
2981.56064	1.56876
2979.63208	1.54032
2977.70352	1.51243
2975.77495	1.48463
2973.84639	1.45699
2971.91782	1.43018
2969.98926	1.40445
2968.06069	1.37910
2966.13213	1.35363
2964.20356	1.32819
2962.27500	1.30302
2960.34644	1.27855
2958.41787	1.25516
2956.48931	1.23242
2954.56074	1.20935
2952.63218	1.18626
2950.70361	1.16396
2948.77505	1.14205
2946.84648	1.12018
2944.91792	1.09866
2942.98936	1.07762
2941.06079	1.05698
2939.13223	1.03665
2937.20366	1.01654
2935.27510	0.99682
2933.34653	0.97780
2931.41797	0.95929
2929.48940	0.94078
2927.56084	0.92265
2925.63228	0.90520
2923.70371	0.88834
2921.77515	0.87209
2919.84658	0.85614
2917.91802	0.84037
2915.98945	0.82491
2914.06089	0.80984
2912.13232	0.79538
2910.20376	0.78128
2908.27520	0.76702
2906.34663	0.75301
2904.41807	0.73960
2902.48950	0.72646
2900.56094	0.71370
2898.63237	0.70149
2896.70381	0.68961
2894.77524	0.67785
2892.84668	0.66614
2890.91812	0.65467
2888.98955	0.64355
2887.06099	0.63269
2885.13242	0.62205
2883.20386	0.61166
2881.27529	0.60148
2879.34673	0.59140
2877.41816	0.58135
2875.48960	0.57120
2873.56104	0.56099
2871.63247	0.55079
2869.70391	0.54067
2867.77534	0.53083
2865.84678	0.52120
2863.91821	0.51146
2861.98965	0.50158
2860.06108	0.49202
2858.13252	0.48314
2856.20396	0.47475
2854.27539	0.46666
2852.34683	0.45884
2850.41826	0.45113
2848.48970	0.44356
2846.56113	0.43630
2844.63257	0.42931
2842.70400	0.42288
2840.77544	0.41715
2838.84687	0.41167
2836.91831	0.40628
2834.98975	0.40091
2833.06118	0.39552
2831.13262	0.39016
2829.20405	0.38482
2827.27549	0.37933
2825.34692	0.37367
2823.41836	0.36809
2821.48979	0.36269
2819.56123	0.35712
2817.63267	0.35147
2815.70410	0.34610
2813.77554	0.34101
2811.84697	0.33601
2809.91841	0.33096
2807.98984	0.32587
2806.06128	0.32101
2804.13271	0.31638
2802.20415	0.31177
2800.27559	0.30726
2798.34702	0.30294
2796.41846	0.29860
2794.48989	0.29425
2792.56133	0.29005
2790.63276	0.28588
2788.70420	0.28168
2786.77563	0.27764
2784.84707	0.27374
2782.91851	0.26979
2780.98994	0.26592
2779.06138	0.26246
2777.13281	0.25923
2775.20425	0.25583
2773.27568	0.25228
2771.34712	0.24868
2769.41855	0.24512
2767.48999	0.24176
2765.56143	0.23877
2763.63286	0.23603
2761.70430	0.23316
2759.77573	0.23014
2757.84717	0.22713
2755.91860	0.22413
2753.99004	0.22119
2752.06147	0.21839
2750.13291	0.21570
2748.20435	0.21318
2746.27578	0.21076
2744.34722	0.20831
2742.41865	0.20587
2740.49009	0.20349
2738.56152	0.20119
2736.63296	0.19900
2734.70439	0.19679
2732.77583	0.19452
2730.84727	0.19221
2728.91870	0.18992
2726.99014	0.18778
2725.06157	0.18582
2723.13301	0.18394
2721.20444	0.18210
2719.27588	0.18023
2717.34731	0.17837
2715.41875	0.17669
2713.49019	0.17514
2711.56162	0.17355
2709.63306	0.17190
2707.70449	0.17024
2705.77593	0.16869
2703.84736	0.16732
2701.91880	0.16598
2699.99023	0.16462
2698.06167	0.16331
2696.13311	0.16199
2694.20454	0.16063
2692.27598	0.15934
2690.34741	0.15816
2688.41885	0.15703
2686.49028	0.15588
2684.56172	0.15472
2682.63315	0.15356
2680.70459	0.15247
2678.77603	0.15155
2676.84746	0.15073
2674.91890	0.14982
2672.99033	0.14875
2671.06177	0.14777
2669.13320	0.14707
2667.20464	0.14642
2665.27607	0.14559
2663.34751	0.14464
2661.41895	0.14372
2659.49038	0.14289
2657.56182	0.14227
2655.63325	0.14184
2653.70469	0.14139
2651.77612	0.14084
2649.84756	0.14023
2647.91899	0.13955
2645.99043	0.13890
2644.06187	0.13845
2642.13330	0.13820
2640.20474	0.13790
2638.27617	0.13740
2636.34761	0.13694
2634.41904	0.13669
2632.49048	0.13647
2630.56191	0.13616
2628.63335	0.13586
2626.70479	0.13562
2624.77622	0.13536
2622.84766	0.13514
2620.91909	0.13499
2618.99053	0.13486
2617.06196	0.13477
2615.13340	0.13463
2613.20483	0.13438
2611.27627	0.13420
2609.34771	0.13426
2607.41914	0.13436
2605.49058	0.13439
2603.56201	0.13443
2601.63345	0.13451
2599.70488	0.13455
2597.77632	0.13461
2595.84775	0.13482
2593.91919	0.13509
2591.99062	0.13537
2590.06206	0.13572
2588.13350	0.13605
2586.20493	0.13624
2584.27637	0.13641
2582.34780	0.13669
2580.41924	0.13694
2578.49067	0.13714
2576.56211	0.13750
2574.63354	0.13792
2572.70498	0.13829
2570.77642	0.13869
2568.84785	0.13900
2566.91929	0.13934
2564.99072	0.13992
2563.06216	0.14055
2561.13359	0.14097
2559.20503	0.14140
2557.27646	0.14201
2555.34790	0.14254
2553.41934	0.14295
2551.49077	0.14348
2549.56221	0.14417
2547.63364	0.14493
2545.70508	0.14564
2543.77651	0.14623
2541.84795	0.14674
2539.91938	0.14736
2537.99082	0.14810
2536.06226	0.14882
2534.13369	0.14956
2532.20513	0.15030
2530.27656	0.15099
2528.34800	0.15164
2526.41943	0.15230
2524.49087	0.15312
2522.56230	0.15414
2520.63374	0.15511
2518.70518	0.15589
2516.77661	0.15662
2514.84805	0.15744
2512.91948	0.15821
2510.99092	0.15892
2509.06235	0.15974
2507.13379	0.16069
2505.20522	0.16165
2503.27666	0.16257
2501.34810	0.16350
2499.41953	0.16446
2497.49097	0.16538
2495.56240	0.16617
2493.63384	0.16686
2491.70527	0.16757
2489.77671	0.16845
2487.84814	0.16946
2485.91958	0.17037
2483.99102	0.17119
2482.06245	0.17212
2480.13389	0.17320
2478.20532	0.17424
2476.27676	0.17518
2474.34819	0.17605
2472.41963	0.17691
2470.49106	0.17786
2468.56250	0.17884
2466.63394	0.17980
2464.70537	0.18086
2462.77681	0.18197
2460.84824	0.18305
2458.91968	0.18406
2456.99111	0.18500
2455.06255	0.18599
2453.13398	0.18715
2451.20542	0.18830
2449.27686	0.18921
2447.34829	0.19001
2445.41973	0.19094
2443.49116	0.19199
2441.56260	0.19304
2439.63403	0.19411
2437.70547	0.19517
2435.77690	0.19615
2433.84834	0.19708
2431.91978	0.19811
2429.99121	0.19923
2428.06265	0.20036
2426.13408	0.20159
2424.20552	0.20290
2422.27695	0.20408
2420.34839	0.20513
2418.41982	0.20621
2416.49126	0.20732
2414.56270	0.20849
2412.63413	0.20968
2410.70557	0.21077
2408.77700	0.21190
2406.84844	0.21324
2404.91987	0.21462
2402.99131	0.21586
2401.06274	0.21696
2399.13418	0.21801
2397.20562	0.21915
2395.27705	0.22041
2393.34849	0.22172
2391.41992	0.22306
2389.49136	0.22435
2387.56279	0.22561
2385.63423	0.22678
2383.70566	0.22773
2381.77710	0.22850
2379.84854	0.22918
2377.91997	0.22971
2375.99141	0.23013
2374.06284	0.23067
2372.13428	0.23123
2370.20571	0.23160
2368.27715	0.23178
2366.34858	0.23189
2364.42002	0.23247
2362.49146	0.23348
2360.56289	0.23378
2358.63433	0.23422
2356.70576	0.23682
2354.77720	0.24074
2352.84863	0.24452
2350.92007	0.24766
2348.99150	0.24957
2347.06294	0.25026
2345.13437	0.25044
2343.20581	0.25123
2341.27725	0.25309
2339.34868	0.25510
2337.42012	0.25675
2335.49155	0.25838
2333.56299	0.26010
2331.63442	0.26198
2329.70586	0.26412
2327.77729	0.26623
2325.84873	0.26797
2323.92017	0.26963
2321.99160	0.27174
2320.06304	0.27428
2318.13447	0.27685
2316.20591	0.27919
2314.27734	0.28128
2312.34878	0.28327
2310.42021	0.28530
2308.49165	0.28725
2306.56309	0.28905
2304.63452	0.29096
2302.70596	0.29312
2300.77739	0.29540
2298.84883	0.29753
2296.92026	0.29940
2294.99170	0.30119
2293.06313	0.30306
2291.13457	0.30507
2289.20601	0.30725
2287.27744	0.30952
2285.34888	0.31169
2283.42031	0.31372
2281.49175	0.31570
2279.56318	0.31769
2277.63462	0.31965
2275.70605	0.32159
2273.77749	0.32361
2271.84893	0.32568
2269.92036	0.32774
2267.99180	0.32985
2266.06323	0.33206
2264.13467	0.33425
2262.20610	0.33633
2260.27754	0.33845
2258.34897	0.34068
2256.42041	0.34293
2254.49185	0.34512
2252.56328	0.34729
2250.63472	0.34953
2248.70615	0.35169
2246.77759	0.35377
2244.84902	0.35593
2242.92046	0.35818
2240.99189	0.36044
2239.06333	0.36277
2237.13477	0.36507
2235.20620	0.36733
2233.27764	0.36966
2231.34907	0.37192
2229.42051	0.37403
2227.49194	0.37618
2225.56338	0.37843
2223.63481	0.38055
2221.70625	0.38257
2219.77769	0.38474
2217.84912	0.38707
2215.92056	0.38933
2213.99199	0.39145
2212.06343	0.39360
2210.13486	0.39577
2208.20630	0.39791
2206.27773	0.39998
2204.34917	0.40198
2202.42061	0.40406
2200.49204	0.40624
2198.56348	0.40833
2196.63491	0.41025
2194.70635	0.41215
2192.77778	0.41398
2190.84922	0.41580
2188.92065	0.41778
2186.99209	0.41981
2185.06353	0.42171
2183.13496	0.42338
2181.20640	0.42496
2179.27783	0.42657
2177.34927	0.42819
2175.42070	0.42975
2173.49214	0.43122
2171.56357	0.43268
2169.63501	0.43422
2167.70645	0.43568
2165.77788	0.43696
2163.84932	0.43827
2161.92075	0.43965
2159.99219	0.44089
2158.06362	0.44190
2156.13506	0.44270
2154.20649	0.44340
2152.27793	0.44415
2150.34937	0.44496
2148.42080	0.44577
2146.49224	0.44654
2144.56367	0.44715
2142.63511	0.44762
2140.70654	0.44806
2138.77798	0.44842
2136.84941	0.44867
2134.92085	0.44885
2132.99229	0.44896
2131.06372	0.44903
2129.13516	0.44903
2127.20659	0.44886
2125.27803	0.44861
2123.34946	0.44831
2121.42090	0.44788
2119.49233	0.44726
2117.56377	0.44653
2115.63521	0.44589
2113.70664	0.44534
2111.77808	0.44463
2109.84951	0.44368
2107.92095	0.44263
2105.99238	0.44163
2104.06382	0.44067
2102.13525	0.43966
2100.20669	0.43851
2098.27812	0.43720
2096.34956	0.43580
2094.42100	0.43431
2092.49243	0.43270
2090.56387	0.43100
2088.63530	0.42932
2086.70674	0.42770
2084.77817	0.42603
2082.84961	0.42423
2080.92104	0.42228
2078.99248	0.42026
2077.06392	0.41825
2075.13535	0.41620
2073.20679	0.41406
2071.27822	0.41183
2069.34966	0.40960
2067.42109	0.40742
2065.49253	0.40524
2063.56396	0.40294
2061.63540	0.40058
2059.70684	0.39821
2057.77827	0.39577
2055.84971	0.39331
2053.92114	0.39086
2051.99258	0.38841
2050.06401	0.38594
2048.13545	0.38344
2046.20688	0.38093
2044.27832	0.37844
2042.34976	0.37589
2040.42119	0.37321
2038.49263	0.37041
2036.56406	0.36762
2034.63550	0.36492
2032.70693	0.36225
2030.77837	0.35951
2028.84980	0.35667
2026.92124	0.35384
2024.99268	0.35114
2023.06411	0.34853
2021.13555	0.34589
2019.20698	0.34336
2017.27842	0.34089
2015.34985	0.33807
2013.42129	0.33509
2011.49272	0.33229
2009.56416	0.32962
2007.63560	0.32696
2005.70703	0.32430
2003.77847	0.32162
2001.84990	0.31894
1999.92134	0.31634
1997.99277	0.31376
1996.06421	0.31122
1994.13564	0.30891
1992.20708	0.30671
1990.27852	0.30425
1988.34995	0.30162
1986.42139	0.29902
1984.49282	0.29654
1982.56426	0.29423
1980.63569	0.29191
1978.70713	0.28951
1976.77856	0.28713
1974.85000	0.28486
1972.92144	0.28270
1970.99287	0.28069
1969.06431	0.27895
1967.13574	0.27727
1965.20718	0.27517
1963.27861	0.27283
1961.35005	0.27070
1959.42148	0.26878
1957.49292	0.26695
1955.56436	0.26515
1953.63579	0.26330
1951.70723	0.26143
1949.77866	0.25970
1947.85010	0.25817
1945.92153	0.25695
1943.99297	0.25610
1942.06440	0.25499
1940.13584	0.25309
1938.20728	0.25109
1936.27871	0.24956
1934.35015	0.24828
1932.42158	0.24700
1930.49302	0.24570
1928.56445	0.24446
1926.63589	0.24338
1924.70732	0.24273
1922.77876	0.24229
1920.85020	0.24148
1918.92163	0.24050
1916.99307	0.23949
1915.06450	0.23822
1913.13594	0.23708
1911.20737	0.23643
1909.27881	0.23601
1907.35024	0.23531
1905.42168	0.23438
1903.49312	0.23359
1901.56455	0.23296
1899.63599	0.23234
1897.70742	0.23188
1895.77886	0.23168
1893.85029	0.23151
1891.92173	0.23130
1889.99316	0.23134
1888.06460	0.23110
1886.13604	0.23045
1884.20747	0.22990
1882.27891	0.22955
1880.35034	0.22941
1878.42178	0.22940
1876.49321	0.22937
1874.56465	0.22931
1872.63608	0.22960
1870.70752	0.23062
1868.77896	0.23204
1866.85039	0.23226
1864.92183	0.23131
1862.99326	0.23071
1861.06470	0.23081
1859.13613	0.23122
1857.20757	0.23159
1855.27900	0.23190
1853.35044	0.23223
1851.42187	0.23278
1849.49331	0.23365
1847.56475	0.23479
1845.63618	0.23620
1843.70762	0.23754
1841.77905	0.23783
1839.85049	0.23769
1837.92192	0.23829
1835.99336	0.23918
1834.06479	0.24002
1832.13623	0.24129
1830.20767	0.24344
1828.27910	0.24528
1826.35054	0.24612
1824.42197	0.24709
1822.49341	0.24789
1820.56484	0.24862
1818.63628	0.24981
1816.70771	0.25147
1814.77915	0.25314
1812.85059	0.25512
1810.92202	0.25760
1808.99346	0.25977
1807.06489	0.26141
1805.13633	0.26313
1803.20776	0.26553
1801.27920	0.26847
1799.35063	0.27144
1797.42207	0.27381
1795.49351	0.27626
1793.56494	0.27962
1791.63638	0.28373
1789.70781	0.28660
1787.77925	0.28831
1785.85068	0.29113
1783.92212	0.29499
1781.99355	0.29922
1780.06499	0.30356
1778.13643	0.30771
1776.20786	0.31173
1774.27930	0.31669
1772.35073	0.32354
1770.42217	0.32992
1768.49360	0.33430
1766.56504	0.33854
1764.63647	0.34348
1762.70791	0.34964
1760.77935	0.35740
1758.85078	0.36427
1756.92222	0.37113
1754.99365	0.37872
1753.06509	0.38597
1751.13652	0.39519
1749.20796	0.40655
1747.27939	0.41681
1745.35083	0.42534
1743.42227	0.43452
1741.49370	0.44498
1739.56514	0.45751
1737.63657	0.47012
1735.70801	0.48150
1733.77944	0.49855
1731.85088	0.51776
1729.92231	0.53215
1727.99375	0.54682
1726.06519	0.56317
1724.13662	0.58169
1722.20806	0.60190
1720.27949	0.62089
1718.35093	0.64383
1716.42236	0.67698
1714.49380	0.70675
1712.56523	0.73002
1710.63667	0.75294
1708.70811	0.77833
1706.77954	0.80782
1704.85098	0.84284
1702.92241	0.87368
1700.99385	0.90434
1699.06528	0.94999
1697.13672	0.99126
1695.20815	1.03244
1693.27959	1.07208
1691.35103	1.10432
1689.42246	1.14216
1687.49390	1.18234
1685.56533	1.22119
1683.63677	1.27999
1681.70820	1.33936
1679.77964	1.37700
1677.85107	1.41368
1675.92251	1.45651
1673.99395	1.50929
1672.06538	1.55618
1670.13682	1.60254
1668.20825	1.66151
1666.27969	1.70759
1664.35112	1.74668
1662.42256	1.79636
1660.49399	1.85145
1658.56543	1.89432
1656.63687	1.93012
1654.70830	1.96435
1652.77974	2.02003
1650.85117	2.07449
1648.92261	2.09614
1646.99404	2.12398
1645.06548	2.15616
1643.13691	2.17761
1641.20835	2.18964
1639.27979	2.19960
1637.35122	2.20638
1635.42266	2.20868
1633.49409	2.20542
1631.56553	2.19552
1629.63696	2.18222
1627.70840	2.15901
1625.77983	2.13010
1623.85127	2.09179
1621.92271	2.04448
1619.99414	2.00277
1618.06558	1.96264
1616.13701	1.90414
1614.20845	1.84123
1612.27988	1.79195
1610.35132	1.74168
1608.42275	1.68781
1606.49419	1.63431
1604.56562	1.58476
1602.63706	1.53634
1600.70850	1.48811
1598.77993	1.44377
1596.85137	1.40272
1594.92280	1.36294
1592.99424	1.32443
1591.06567	1.28922
1589.13711	1.25607
1587.20854	1.22471
1585.27998	1.19527
1583.35142	1.16747
1581.42285	1.14200
1579.49429	1.12040
1577.56572	1.10134
1575.63716	1.07729
1573.70859	1.05440
1571.78003	1.03914
1569.85146	1.02385
1567.92290	1.00650
1565.99434	0.99241
1564.06577	0.98066
1562.13721	0.97132
1560.20864	0.96492
1558.28008	0.95469
1556.35151	0.94304
1554.42295	0.93509
1552.49438	0.92735
1550.56582	0.91941
1548.63726	0.91080
1546.70869	0.90260
1544.78013	0.89471
1542.85156	0.88634
1540.92300	0.87589
1538.99443	0.85836
1537.06587	0.84374
1535.13730	0.83471
1533.20874	0.82415
1531.28018	0.81196
1529.35161	0.80278
1527.42305	0.79489
1525.49448	0.78669
1523.56592	0.77941
1521.63735	0.77251
1519.70879	0.76471
1517.78022	0.75752
1515.85166	0.74924
1513.92310	0.74062
1511.99453	0.73424
1510.06597	0.73000
1508.13740	0.72688
1506.20884	0.71891
1504.28027	0.70874
1502.35171	0.70299
1500.42314	0.69920
1498.49458	0.69589
1496.56602	0.69142
1494.63745	0.68581
1492.70889	0.68156
1490.78032	0.67910
1488.85176	0.67629
1486.92319	0.67162
1484.99463	0.66690
1483.06606	0.66337
1481.13750	0.66057
1479.20894	0.65803
1477.28037	0.65611
1475.35181	0.65503
1473.42324	0.65424
1471.49468	0.65126
1469.56611	0.64671
1467.63755	0.64346
1465.70898	0.64143
1463.78042	0.63923
1461.85186	0.63716
1459.92329	0.63657
1457.99473	0.63712
1456.06616	0.63555
1454.13760	0.63162
1452.20903	0.62868
1450.28047	0.62669
1448.35190	0.62496
1446.42334	0.62276
1444.49478	0.62042
1442.56621	0.61847
1440.63765	0.61684
1438.70908	0.61564
1436.78052	0.61454
1434.85195	0.61277
1432.92339	0.61081
1430.99482	0.60924
1429.06626	0.60774
1427.13770	0.60630
1425.20913	0.60534
1423.28057	0.60466
1421.35200	0.60398
1419.42344	0.60362
1417.49487	0.60277
1415.56631	0.60066
1413.63774	0.59862
1411.70918	0.59735
1409.78062	0.59669
1407.85205	0.59643
1405.92349	0.59648
1403.99492	0.59624
1402.06636	0.59544
1400.13779	0.59474
1398.20923	0.59400
1396.28066	0.59270
1394.35210	0.59039
1392.42354	0.58729
1390.49497	0.58473
1388.56641	0.58307
1386.63784	0.58121
1384.70928	0.57840
1382.78071	0.57552
1380.85215	0.57322
1378.92358	0.57155
1376.99502	0.57043
1375.06646	0.56971
1373.13789	0.56862
1371.20933	0.56696
1369.28076	0.56557
1367.35220	0.56448
1365.42363	0.56357
1363.49507	0.56304
1361.56650	0.56233
1359.63794	0.56094
1357.70937	0.55956
1355.78081	0.55855
1353.85225	0.55771
1351.92368	0.55693
1349.99512	0.55622
1348.06655	0.55547
1346.13799	0.55467
1344.20942	0.55395
1342.28086	0.55349
1340.35229	0.55327
1338.42373	0.55265
1336.49517	0.55137
1334.56660	0.55020
1332.63804	0.54957
1330.70947	0.54924
1328.78091	0.54882
1326.85234	0.54831
1324.92378	0.54789
1322.99521	0.54758
1321.06665	0.54738
1319.13809	0.54711
1317.20952	0.54654
1315.28096	0.54584
1313.35239	0.54513
1311.42383	0.54431
1309.49526	0.54352
1307.56670	0.54293
1305.63813	0.54240
1303.70957	0.54175
1301.78101	0.54095
1299.85244	0.54016
1297.92388	0.53951
1295.99531	0.53884
1294.06675	0.53810
1292.13818	0.53731
1290.20962	0.53643
1288.28105	0.53568
1286.35249	0.53508
1284.42393	0.53438
1282.49536	0.53368
1280.56680	0.53316
1278.63823	0.53265
1276.70967	0.53197
1274.78110	0.53127
1272.85254	0.53077
1270.92397	0.53036
1268.99541	0.52977
1267.06685	0.52911
1265.13828	0.52855
1263.20972	0.52805
1261.28115	0.52762
1259.35259	0.52729
1257.42402	0.52686
1255.49546	0.52645
1253.56689	0.52621
1251.63833	0.52603
1249.70977	0.52587
1247.78120	0.52577
1245.85264	0.52570
1243.92407	0.52547
1241.99551	0.52499
1240.06694	0.52430
1238.13838	0.52351
1236.20981	0.52263
1234.28125	0.52170
1232.35269	0.52076
1230.42412	0.51973
1228.49556	0.51866
1226.56699	0.51770
1224.63843	0.51692
1222.70986	0.51631
1220.78130	0.51571
1218.85273	0.51494
1216.92417	0.51415
1214.99561	0.51349
1213.06704	0.51290
1211.13848	0.51229
1209.20991	0.51174
1207.28135	0.51122
1205.35278	0.51058
1203.42422	0.50994
1201.49565	0.50946
1199.56709	0.50899
1197.63853	0.50844
1195.70996	0.50797
1193.78140	0.50766
1191.85283	0.50736
1189.92427	0.50693
1187.99570	0.50645
1186.06714	0.50617
1184.13857	0.50612
1182.21001	0.50617
1180.28145	0.50636
1178.35288	0.50679
1176.42432	0.50737
1174.49575	0.50799
1172.56719	0.50853
1170.63862	0.50876
1168.71006	0.50875
1166.78149	0.50876
1164.85293	0.50878
1162.92437	0.50863
1160.99580	0.50832
1159.06724	0.50781
1157.13867	0.50695
1155.21011	0.50585
1153.28154	0.50478
1151.35298	0.50353
1149.42441	0.50173
1147.49585	0.49950
1145.56729	0.49716
1143.63872	0.49484
1141.71016	0.49247
1139.78159	0.49020
1137.85303	0.48818
1135.92446	0.48626
1133.99590	0.48442
1132.06733	0.48278
1130.13877	0.48147
1128.21021	0.48031
1126.28164	0.47911
1124.35308	0.47806
1122.42451	0.47737
1120.49595	0.47689
1118.56738	0.47637
1116.63882	0.47590
1114.71025	0.47572
1112.78169	0.47591
1110.85312	0.47646
1108.92456	0.47712
1106.99600	0.47779
1105.06743	0.47894
1103.13887	0.48073
1101.21030	0.48278
1099.28174	0.48504
1097.35317	0.48761
1095.42461	0.49051
1093.49604	0.49384
1091.56748	0.49769
1089.63892	0.50227
1087.71035	0.50785
1085.78179	0.51416
1083.85322	0.52072
1081.92466	0.52703
1079.99609	0.53232
1078.06753	0.53576
1076.13896	0.53678
1074.21040	0.53522
1072.28184	0.53118
1070.35327	0.52524
1068.42471	0.51861
1066.49614	0.51221
1064.56758	0.50610
1062.63901	0.50023
1060.71045	0.49502
1058.78188	0.49057
1056.85332	0.48661
1054.92476	0.48318
1052.99619	0.48019
1051.06763	0.47730
1049.13906	0.47470
1047.21050	0.47280
1045.28193	0.47142
1043.35337	0.47013
1041.42480	0.46894
1039.49624	0.46810
1037.56768	0.46764
1035.63911	0.46741
1033.71055	0.46729
1031.78198	0.46734
1029.85342	0.46753
1027.92485	0.46783
1025.99629	0.46828
1024.06772	0.46889
1022.13916	0.46952
1020.21060	0.47007
1018.28203	0.47062
1016.35347	0.47152
1014.42490	0.47281
1012.49634	0.47425
1010.56777	0.47574
1008.63921	0.47731
1006.71064	0.47905
1004.78208	0.48114
1002.85352	0.48362
1000.92495	0.48622
998.99639	0.48906
997.06782	0.49259
995.13926	0.49674
993.21069	0.50088
991.28213	0.50440
989.35356	0.50693
987.42500	0.50849
985.49644	0.50945
983.56787	0.51035
981.63931	0.51153
979.71074	0.51312
977.78218	0.51511
975.85361	0.51747
973.92505	0.52023
971.99648	0.52343
970.06792	0.52690
968.13936	0.53061
966.21079	0.53456
964.28223	0.53878
962.35366	0.54356
960.42510	0.54897
958.49653	0.55479
956.56797	0.56064
954.63940	0.56631
952.71084	0.57217
950.78228	0.57853
948.85371	0.58501
946.92515	0.59119
944.99658	0.59726
943.06802	0.60362
941.13945	0.60993
939.21089	0.61546
937.28232	0.62052
935.35376	0.62588
933.42520	0.63156
931.49663	0.63707
929.56807	0.64255
927.63950	0.64831
925.71094	0.65417
923.78237	0.66047
921.85381	0.66763
919.92524	0.67465
917.99668	0.68099
916.06812	0.68765
914.13955	0.69468
912.21099	0.70190
910.28242	0.71013
908.35386	0.71933
906.42529	0.72840
904.49673	0.73708
902.56816	0.74567
900.63960	0.75363
898.71104	0.76175
896.78247	0.77158
894.85391	0.78215
892.92534	0.79226
890.99678	0.80172
889.06821	0.81141
887.13965	0.82266
885.21108	0.83476
883.28252	0.84688
881.35396	0.85884
879.42539	0.86933
877.49683	0.87923
875.56826	0.89159
873.63970	0.90538
871.71113	0.91753
869.78257	0.92765
867.85400	0.93693
865.92544	0.94748
863.99687	0.95991
862.06831	0.97251
860.13975	0.98402
858.21118	0.99528
856.28262	1.00663
854.35405	1.01637
852.42549	1.02423
850.49692	1.03313
848.56836	1.04485
846.63979	1.05794
844.71123	1.07157
842.78267	1.08433
840.85410	1.09466
838.92554	1.10445
836.99697	1.11633
835.06841	1.12934
833.13984	1.14116
831.21128	1.15343
829.28271	1.16572
827.35415	1.17478
825.42559	1.18214
823.49702	1.19006
821.56846	1.20305
819.63989	1.22587
817.71133	1.24493
815.78276	1.24237
813.85420	1.22881
811.92563	1.22502
809.99707	1.23470
808.06851	1.25072
806.13994	1.27318
804.21138	1.29808
802.28281	1.30977
800.35425	1.31391
798.42568	1.32668
796.49712	1.33473
794.56855	1.33133
792.63999	1.33015
790.71143	1.33015
788.78286	1.34111
786.85430	1.35464
784.92573	1.35026
782.99717	1.35578
781.06860	1.37582
779.14004	1.37078
777.21147	1.35176
775.28291	1.35410
773.35435	1.34976
771.42578	1.33998
769.49722	1.34112
767.56865	1.32876
765.64009	1.35933
763.71152	1.41699
761.78296	1.39566
759.85439	1.34434
757.92583	1.30606
755.99727	1.31705
754.06870	1.38613
752.14014	1.39347
750.21157	1.33793
748.28301	1.37710
746.35444	1.43727
744.42588	1.28451
742.49731	1.09853
740.56875	0.99340
738.64019	0.89367
736.71162	0.75076
734.78306	0.63200
732.85449	0.56175
730.92593	0.47523
728.99736	0.35951
727.06880	0.33026
725.14023	0.40364
723.21167	0.34965
721.28311	0.11922
719.35454	-0.10499
717.42598	-0.29097
715.49741	-0.39987
713.56885	-0.27743
711.64028	0.03016
709.71172	0.05702
707.78315	-0.04722
705.85459	-0.07968
703.92603	0.03727
701.99746	0.13170
700.06890	0.15351
698.14033	0.20455
696.21177	0.37271
694.28320	0.56932
692.35464	0.53195
690.42607	0.40932
688.49751	0.33150
686.56895	0.29849
684.64038	0.36364
682.71182	0.50290
680.78325	0.50255
678.85469	0.41657
676.92612	0.36820
674.99756	0.34252
673.06899	0.30568
671.14043	0.22760
669.21187	0.15308
667.28330	0.11425
665.35474	0.10775
663.42617	0.13142
661.49761	0.20405
659.56904	0.35395
657.64048	0.54960
655.71191	0.55571
653.78335	0.39374
651.85479	0.27501
649.92622	0.23439
647.99766	0.20223
646.06909	0.17096
644.14053	0.19359
642.21196	0.29407
640.28340	0.38578
638.35483	0.36811
636.42627	0.34127
634.49771	0.36066
632.56914	0.32520
630.64058	0.26880
628.71201	0.29519
626.78345	0.37990
624.85488	0.36344
622.92632	0.23573
620.99775	0.18572
619.06919	0.20598
617.14062	0.20655
615.21206	0.19295
613.28350	0.22281
611.35493	0.29617
609.42637	0.35572
607.49780	0.32876
605.56924	0.29955
603.64067	0.29972
601.71211	0.27813
599.78354	0.24286
597.85498	0.21322
595.92642	0.19579
593.99785	0.18330
592.06929	0.16339
590.14072	0.16797
588.21216	0.22393
586.28359	0.31346
584.35503	0.40421
582.42646	0.39615
580.49790	0.31052
578.56934	0.28014
576.64077	0.28104
574.71221	0.28398
572.78364	0.31128
570.85508	0.26068
568.92651	0.18497
566.99795	0.18997
565.06938	0.21642
563.14082	0.19085
561.21226	0.14894
559.28369	0.17104
557.35513	0.25126
555.42656	0.28266
553.49800	0.27697
551.56943	0.25975
549.64087	0.15373
547.71230	0.08744
545.78374	0.13377
543.85518	0.19286
541.92661	0.25588
539.99805	0.28874
538.06948	0.22182
536.14092	0.18432
534.21235	0.20897
532.28379	0.21553
530.35522	0.19709
528.42666	0.18492
526.49810	0.18229
524.56953	0.20312
522.64097	0.27731
520.71240	0.31709
518.78384	0.23797
516.85527	0.19075
514.92671	0.20775
512.99814	0.18751
511.06958	0.13950
509.14102	0.14063
507.21245	0.18172
505.28389	0.19996
503.35532	0.17814
501.42676	0.17727
499.49819	0.21112
