3997.91411	0.06793
3995.98555	0.06822
3994.05698	0.06873
3992.12842	0.06912
3990.19985	0.06896
3988.27129	0.06851
3986.34272	0.06841
3984.41416	0.06895
3982.48560	0.06989
3980.55703	0.07075
3978.62847	0.07113
3976.69990	0.07130
3974.77134	0.07193
3972.84277	0.07277
3970.91421	0.07311
3968.98564	0.07274
3967.05708	0.07185
3965.12852	0.07141
3963.19995	0.07218
3961.27139	0.07325
3959.34282	0.07373
3957.41426	0.07378
3955.48569	0.07352
3953.55713	0.07330
3951.62856	0.07399
3949.70000	0.07549
3947.77144	0.07636
3945.84287	0.07584
3943.91431	0.07554
3941.98574	0.07617
3940.05718	0.07582
3938.12861	0.07456
3936.20005	0.07409
3934.27148	0.07493
3932.34292	0.07690
3930.41436	0.07830
3928.48579	0.07725
3926.55723	0.07578
3924.62866	0.07635
3922.70010	0.07722
3920.77153	0.07677
3918.84297	0.07692
3916.91440	0.07782
3914.98584	0.07710
3913.05728	0.07499
3911.12871	0.07341
3909.20015	0.07292
3907.27158	0.07404
3905.34302	0.07746
3903.41445	0.08187
3901.48589	0.08415
3899.55732	0.08371
3897.62876	0.08158
3895.70020	0.07878
3893.77163	0.07767
3891.84307	0.07915
3889.91450	0.08015
3887.98594	0.07901
3886.05737	0.07951
3884.12881	0.08180
3882.20024	0.08228
3880.27168	0.08185
3878.34312	0.08083
3876.41455	0.07918
3874.48599	0.08002
3872.55742	0.08347
3870.62886	0.08666
3868.70029	0.08768
3866.77173	0.08622
3864.84316	0.08570
3862.91460	0.08657
3860.98604	0.08535
3859.05747	0.08306
3857.12891	0.08303
3855.20034	0.08624
3853.27178	0.09273
3851.34321	0.09564
3849.41465	0.09034
3847.48608	0.08523
3845.55752	0.08364
3843.62896	0.08565
3841.70039	0.08993
3839.77183	0.09473
3837.84326	0.09855
3835.91470	0.09852
3833.98613	0.09556
3832.05757	0.09322
3830.12900	0.09206
3828.20044	0.09187
3826.27187	0.09299
3824.34331	0.09453
3822.41475	0.09706
3820.48618	0.10195
3818.55762	0.10439
3816.62905	0.10350
3814.70049	0.10197
3812.77192	0.09877
3810.84336	0.09624
3808.91479	0.09680
3806.98623	0.10073
3805.05767	0.10506
3803.12910	0.10770
3801.20054	0.11121
3799.27197	0.11287
3797.34341	0.11128
3795.41484	0.11000
3793.48628	0.10835
3791.55771	0.10682
3789.62915	0.10700
3787.70059	0.10868
3785.77202	0.11135
3783.84346	0.11395
3781.91489	0.11558
3779.98633	0.11762
3778.05776	0.11996
3776.12920	0.12037
3774.20063	0.12033
3772.27207	0.12201
3770.34351	0.12579
3768.41494	0.13015
3766.48638	0.13286
3764.55781	0.13432
3762.62925	0.13517
3760.70068	0.13714
3758.77212	0.14162
3756.84355	0.14597
3754.91499	0.14840
3752.98643	0.15221
3751.05786	0.16048
3749.12930	0.16896
3747.20073	0.17088
3745.27217	0.17187
3743.34360	0.17556
3741.41504	0.17816
3739.48647	0.18014
3737.55791	0.18545
3735.62935	0.19619
3733.70078	0.20787
3731.77222	0.21165
3729.84365	0.21107
3727.91509	0.21291
3725.98652	0.21909
3724.05796	0.22692
3722.12939	0.23280
3720.20083	0.23667
3718.27227	0.23985
3716.34370	0.24391
3714.41514	0.25059
3712.48657	0.26301
3710.55801	0.28190
3708.62944	0.29770
3706.70088	0.30688
3704.77231	0.31632
3702.84375	0.32978
3700.91519	0.34769
3698.98662	0.36593
3697.05806	0.38259
3695.12949	0.40081
3693.20093	0.42116
3691.27236	0.44499
3689.34380	0.47617
3687.41523	0.51065
3685.48667	0.53762
3683.55811	0.56089
3681.62954	0.58808
3679.70098	0.62098
3677.77241	0.65749
3675.84385	0.70188
3673.91528	0.75828
3671.98672	0.80047
3670.05815	0.83774
3668.12959	0.88983
3666.20103	0.93584
3664.27246	0.97418
3662.34390	1.01699
3660.41533	1.06479
3658.48677	1.11327
3656.55820	1.16559
3654.62964	1.22266
3652.70107	1.26970
3650.77251	1.31262
3648.84395	1.37485
3646.91538	1.44678
3644.98682	1.49284
3643.05825	1.52766
3641.12969	1.56658
3639.20112	1.61068
3637.27256	1.65528
3635.34399	1.70006
3633.41543	1.74622
3631.48687	1.79013
3629.55830	1.83572
3627.62974	1.89351
3625.70117	1.94215
3623.77261	1.97226
3621.84404	2.00301
3619.91548	2.04159
3617.98691	2.08857
3616.05835	2.13171
3614.12979	2.16702
3612.20122	2.20408
3610.27266	2.24213
3608.34409	2.28312
3606.41553	2.32706
3604.48696	2.36532
3602.55840	2.39966
3600.62983	2.43937
3598.70127	2.48169
3596.77271	2.52099
3594.84414	2.56224
3592.91558	2.60531
3590.98701	2.64290
3589.05845	2.67635
3587.12988	2.71778
3585.20132	2.76408
3583.27275	2.80308
3581.34419	2.83914
3579.41562	2.87839
3577.48706	2.92168
3575.55850	2.96610
3573.62993	3.00969
3571.70137	3.04949
3569.77280	3.08716
3567.84424	3.13054
3565.91567	3.18645
3563.98711	3.23854
3562.05854	3.27697
3560.12998	3.31392
3558.20142	3.35454
3556.27285	3.39788
3554.34429	3.44244
3552.41572	3.49030
3550.48716	3.53889
3548.55859	3.58372
3546.63003	3.62772
3544.70146	3.67533
3542.77290	3.72413
3540.84434	3.77011
3538.91577	3.81440
3536.98721	3.85947
3535.05864	3.90584
3533.13008	3.94949
3531.20151	3.99263
3529.27295	4.03996
3527.34438	4.09065
3525.41582	4.14166
3523.48726	4.19376
3521.55869	4.24376
3519.63013	4.28538
3517.70156	4.32632
3515.77300	4.37221
3513.84443	4.41934
3511.91587	4.46721
3509.98730	4.52066
3508.05874	4.57758
3506.13018	4.62748
3504.20161	4.67192
3502.27305	4.72064
3500.34448	4.77044
3498.41592	4.81309
3496.48735	4.85342
3494.55879	4.89790
3492.63022	4.94613
3490.70166	4.99654
3488.77310	5.04675
3486.84453	5.09469
3484.91597	5.14419
3482.98740	5.19502
3481.05884	5.24277
3479.13027	5.28674
3477.20171	5.33094
3475.27314	5.38184
3473.34458	5.43552
3471.41602	5.48334
3469.48745	5.52603
3467.55889	5.56871
3465.63032	5.61912
3463.70176	5.67715
3461.77319	5.73093
3459.84463	5.78297
3457.91606	5.83834
3455.98750	5.88646
3454.05894	5.92308
3452.13037	5.96949
3450.20181	6.03461
3448.27324	6.09141
3446.34468	6.13691
3444.41611	6.18720
3442.48755	6.23733
3440.55898	6.27644
3438.63042	6.31600
3436.70186	6.36738
3434.77329	6.41912
3432.84473	6.46817
3430.91616	6.51134
3428.98760	6.55705
3427.05903	6.62379
3425.13047	6.69083
3423.20190	6.73078
3421.27334	6.76757
3419.34478	6.81874
3417.41621	6.87031
3415.48765	6.92027
3413.55908	6.98309
3411.63052	7.05738
3409.70195	7.12018
3407.77339	7.18181
3405.84482	7.24040
3403.91626	7.26903
3401.98770	7.26464
3400.05913	7.26497
3398.13057	7.30147
3396.20200	7.36427
3394.27344	7.41491
3392.34487	7.42347
3390.41631	7.43771
3388.48774	7.48107
3386.55918	7.54934
3384.63062	7.62099
3382.70205	7.63716
3380.77349	7.60835
3378.84492	7.60044
3376.91636	7.64021
3374.98779	7.71286
3373.05923	7.80705
3371.13066	7.86576
3369.20210	7.85475
3367.27354	7.82626
3365.34497	7.85267
3363.41641	7.91706
3361.48784	7.93684
3359.55928	7.89823
3357.63071	7.86075
3355.70215	7.90805
3353.77358	8.00991
3351.84502	8.06783
3349.91646	8.04179
3347.98789	7.98757
3346.05933	7.97475
3344.13076	7.99728
3342.20220	8.00850
3340.27363	7.98231
3338.34507	7.92831
3336.41650	7.87828
3334.48794	7.92523
3332.55937	8.04241
3330.63081	8.10443
3328.70225	8.11587
3326.77368	8.11907
3324.84512	8.10802
3322.91655	8.10300
3320.98799	8.10022
3319.05942	8.04690
3317.13086	8.01461
3315.20229	8.07160
3313.27373	8.16644
3311.34517	8.19403
3309.41660	8.15884
3307.48804	8.16464
3305.55947	8.20807
3303.63091	8.21252
3301.70234	8.17156
3299.77378	8.16050
3297.84521	8.15320
3295.91665	8.13151
3293.98809	8.15915
3292.05952	8.22188
3290.13096	8.26100
3288.20239	8.25516
3286.27383	8.17912
3284.34526	8.05705
3282.41670	8.01578
3280.48813	8.07475
3278.55957	8.15681
3276.63101	8.19161
3274.70244	8.17294
3272.77388	8.15199
3270.84531	8.15467
3268.91675	8.19759
3266.98818	8.25521
3265.05962	8.31202
3263.13105	8.30617
3261.20249	8.20754
3259.27393	8.18939
3257.34536	8.26940
3255.41680	8.25096
3253.48823	8.20169
3251.55967	8.24072
3249.63110	8.26821
3247.70254	8.29218
3245.77397	8.32486
3243.84541	8.30198
3241.91685	8.28966
3239.98828	8.27916
3238.05972	8.18953
3236.13115	8.09796
3234.20259	8.05870
3232.27402	8.03384
3230.34546	8.03944
3228.41689	8.09892
3226.48833	8.13864
3224.55977	8.08353
3222.63120	8.00863
3220.70264	7.98627
3218.77407	7.99346
3216.84551	7.99241
3214.91694	7.95710
3212.98838	7.89633
3211.05981	7.84623
3209.13125	7.81843
3207.20269	7.81220
3205.27412	7.80902
3203.34556	7.80177
3201.41699	7.83075
3199.48843	7.85350
3197.55986	7.79411
3195.63130	7.70675
3193.70273	7.63882
3191.77417	7.56625
3189.84561	7.46800
3187.91704	7.34342
3185.98848	7.25596
3184.05991	7.27098
3182.13135	7.31144
3180.20278	7.27396
3178.27422	7.21386
3176.34565	7.16440
3174.41709	7.08285
3172.48853	7.00215
3170.55996	6.95409
3168.63140	6.90321
3166.70283	6.83748
3164.77427	6.77619
3162.84570	6.70699
3160.91714	6.63930
3158.98857	6.60272
3157.06001	6.55231
3155.13145	6.46594
3153.20288	6.38171
3151.27432	6.30651
3149.34575	6.24352
3147.41719	6.18486
3145.48862	6.10648
3143.56006	6.02366
3141.63149	5.95419
3139.70293	5.88676
3137.77437	5.82230
3135.84580	5.76154
3133.91724	5.69551
3131.98867	5.62117
3130.06011	5.53842
3128.13154	5.45516
3126.20298	5.38322
3124.27441	5.32377
3122.34585	5.26140
3120.41729	5.18684
3118.48872	5.10914
3116.56016	5.03649
3114.63159	4.96404
3112.70303	4.88994
3110.77446	4.82166
3108.84590	4.75810
3106.91733	4.69311
3104.98877	4.62601
3103.06021	4.56013
3101.13164	4.49352
3099.20308	4.42206
3097.27451	4.35014
3095.34595	4.28294
3093.41738	4.21894
3091.48882	4.15463
3089.56025	4.08975
3087.63169	4.02470
3085.70312	3.96008
3083.77456	3.89664
3081.84600	3.83393
3079.91743	3.77236
3077.98887	3.71270
3076.06030	3.65465
3074.13174	3.59574
3072.20317	3.53534
3070.27461	3.47705
3068.34604	3.42166
3066.41748	3.36666
3064.48892	3.31070
3062.56035	3.25387
3060.63179	3.19822
3058.70322	3.14564
3056.77466	3.09512
3054.84609	3.04393
3052.91753	2.99199
3050.98896	2.94122
3049.06040	2.89121
3047.13184	2.84159
3045.20327	2.79303
3043.27471	2.74543
3041.34614	2.69853
3039.41758	2.65197
3037.48901	2.60541
3035.56045	2.55952
3033.63188	2.51503
3031.70332	2.47125
3029.77476	2.42778
3027.84619	2.38501
3025.91763	2.34290
3023.98906	2.30149
3022.06050	2.26100
3020.13193	2.22141
3018.20337	2.18257
3016.27480	2.14428
3014.34624	2.10661
3012.41768	2.06953
3010.48911	2.03262
3008.56055	1.99600
3006.63198	1.96014
3004.70342	1.92482
3002.77485	1.88977
3000.84629	1.85565
2998.91772	1.82283
2996.98916	1.79071
2995.06060	1.75854
2993.13203	1.72641
2991.20347	1.69515
2989.27490	1.66457
2987.34634	1.63384
2985.41777	1.60353
2983.48921	1.57440
2981.56064	1.54587
2979.63208	1.51739
2977.70352	1.48938
2975.77495	1.46204
2973.84639	1.43496
2971.91782	1.40827
2969.98926	1.38251
2968.06069	1.35755
2966.13213	1.33288
2964.20356	1.30833
2962.27500	1.28410
2960.34644	1.26092
2958.41787	1.23896
2956.48931	1.21692
2954.56074	1.19428
2952.63218	1.17179
2950.70361	1.14998
2948.77505	1.12887
2946.84648	1.10804
2944.91792	1.08717
2942.98936	1.06667
2941.06079	1.04715
2939.13223	1.02880
2937.20366	1.01148
2935.27510	0.99475
2933.34653	0.97839
2931.41797	0.96273
2929.48940	0.94762
2927.56084	0.93242
2925.63228	0.91708
2923.70371	0.90168
2921.77515	0.88560
2919.84658	0.86842
2917.91802	0.85024
2915.98945	0.83201
2914.06089	0.81470
2912.13232	0.79818
2910.20376	0.78233
2908.27520	0.76727
2906.34663	0.75293
2904.41807	0.73906
2902.48950	0.72537
2900.56094	0.71190
2898.63237	0.69884
2896.70381	0.68613
2894.77524	0.67371
2892.84668	0.66166
2890.91812	0.64980
2888.98955	0.63814
2887.06099	0.62682
2885.13242	0.61581
2883.20386	0.60530
2881.27529	0.59528
2879.34673	0.58521
2877.41816	0.57495
2875.48960	0.56494
2873.56104	0.55546
2871.63247	0.54613
2869.70391	0.53680
2867.77534	0.52783
2865.84678	0.51914
2863.91821	0.51061
2861.98965	0.50252
2860.06108	0.49502
2858.13252	0.48809
2856.20396	0.48158
2854.27539	0.47512
2852.34683	0.46802
2850.41826	0.45968
2848.48970	0.45042
2846.56113	0.44119
2844.63257	0.43268
2842.70400	0.42499
2840.77544	0.41793
2838.84687	0.41134
2836.91831	0.40513
2834.98975	0.39919
2833.06118	0.39332
2831.13262	0.38735
2829.20405	0.38146
2827.27549	0.37588
2825.34692	0.37041
2823.41836	0.36489
2821.48979	0.35933
2819.56123	0.35382
2817.63267	0.34837
2815.70410	0.34304
2813.77554	0.33793
2811.84697	0.33308
2809.91841	0.32825
2807.98984	0.32322
2806.06128	0.31808
2804.13271	0.31314
2802.20415	0.30861
2800.27559	0.30436
2798.34702	0.30026
2796.41846	0.29623
2794.48989	0.29203
2792.56133	0.28764
2790.63276	0.28345
2788.70420	0.27958
2786.77563	0.27586
2784.84707	0.27220
2782.91851	0.26848
2780.98994	0.26472
2779.06138	0.26108
2777.13281	0.25749
2775.20425	0.25399
2773.27568	0.25070
2771.34712	0.24753
2769.41855	0.24443
2767.48999	0.24130
2765.56143	0.23807
2763.63286	0.23484
2761.70430	0.23173
2759.77573	0.22878
2757.84717	0.22606
2755.91860	0.22357
2753.99004	0.22110
2752.06147	0.21854
2750.13291	0.21588
2748.20435	0.21318
2746.27578	0.21059
2744.34722	0.20808
2742.41865	0.20562
2740.49009	0.20341
2738.56152	0.20141
2736.63296	0.19938
2734.70439	0.19722
2732.77583	0.19502
2730.84727	0.19288
2728.91870	0.19086
2726.99014	0.18894
2725.06157	0.18706
2723.13301	0.18515
2721.20444	0.18325
2719.27588	0.18147
2717.34731	0.17984
2715.41875	0.17822
2713.49019	0.17660
2711.56162	0.17511
2709.63306	0.17364
2707.70449	0.17207
2705.77593	0.17049
2703.84736	0.16888
2701.91880	0.16736
2699.99023	0.16603
2698.06167	0.16477
2696.13311	0.16346
2694.20454	0.16216
2692.27598	0.16091
2690.34741	0.15968
2688.41885	0.15864
2686.49028	0.15774
2684.56172	0.15678
2682.63315	0.15589
2680.70459	0.15505
2678.77603	0.15399
2676.84746	0.15275
2674.91890	0.15165
2672.99033	0.15078
2671.06177	0.15000
2669.13320	0.14921
2667.20464	0.14844
2665.27607	0.14768
2663.34751	0.14696
2661.41895	0.14623
2659.49038	0.14547
2657.56182	0.14472
2655.63325	0.14409
2653.70469	0.14363
2651.77612	0.14322
2649.84756	0.14272
2647.91899	0.14211
2645.99043	0.14157
2644.06187	0.14117
2642.13330	0.14071
2640.20474	0.14019
2638.27617	0.13989
2636.34761	0.13973
2634.41904	0.13942
2632.49048	0.13904
2630.56191	0.13878
2628.63335	0.13857
2626.70479	0.13834
2624.77622	0.13809
2622.84766	0.13783
2620.91909	0.13764
2618.99053	0.13760
2617.06196	0.13763
2615.13340	0.13761
2613.20483	0.13763
2611.27627	0.13775
2609.34771	0.13779
2607.41914	0.13768
2605.49058	0.13760
2603.56201	0.13766
2601.63345	0.13783
2599.70488	0.13800
2597.77632	0.13815
2595.84775	0.13828
2593.91919	0.13838
2591.99062	0.13846
2590.06206	0.13861
2588.13350	0.13889
2586.20493	0.13926
2584.27637	0.13959
2582.34780	0.13987
2580.41924	0.14018
2578.49067	0.14051
2576.56211	0.14084
2574.63354	0.14127
2572.70498	0.14180
2570.77642	0.14227
2568.84785	0.14262
2566.91929	0.14295
2564.99072	0.14335
2563.06216	0.14391
2561.13359	0.14457
2559.20503	0.14517
2557.27646	0.14563
2555.34790	0.14604
2553.41934	0.14656
2551.49077	0.14712
2549.56221	0.14757
2547.63364	0.14808
2545.70508	0.14878
2543.77651	0.14961
2541.84795	0.15046
2539.91938	0.15120
2537.99082	0.15181
2536.06226	0.15238
2534.13369	0.15297
2532.20513	0.15366
2530.27656	0.15449
2528.34800	0.15535
2526.41943	0.15619
2524.49087	0.15703
2522.56230	0.15780
2520.63374	0.15844
2518.70518	0.15916
2516.77661	0.16005
2514.84805	0.16101
2512.91948	0.16189
2510.99092	0.16269
2509.06235	0.16344
2507.13379	0.16430
2505.20522	0.16532
2503.27666	0.16630
2501.34810	0.16705
2499.41953	0.16780
2497.49097	0.16872
2495.56240	0.16966
2493.63384	0.17058
2491.70527	0.17150
2489.77671	0.17234
2487.84814	0.17319
2485.91958	0.17425
2483.99102	0.17538
2482.06245	0.17637
2480.13389	0.17729
2478.20532	0.17829
2476.27676	0.17929
2474.34819	0.18015
2472.41963	0.18101
2470.49106	0.18204
2468.56250	0.18313
2466.63394	0.18407
2464.70537	0.18492
2462.77681	0.18585
2460.84824	0.18683
2458.91968	0.18773
2456.99111	0.18858
2455.06255	0.18963
2453.13398	0.19081
2451.20542	0.19186
2449.27686	0.19274
2447.34829	0.19368
2445.41973	0.19469
2443.49116	0.19567
2441.56260	0.19677
2439.63403	0.19805
2437.70547	0.19926
2435.77690	0.20030
2433.84834	0.20126
2431.91978	0.20223
2429.99121	0.20333
2428.06265	0.20450
2426.13408	0.20559
2424.20552	0.20665
2422.27695	0.20777
2420.34839	0.20895
2418.41982	0.21021
2416.49126	0.21151
2414.56270	0.21275
2412.63413	0.21379
2410.70557	0.21481
2408.77700	0.21604
2406.84844	0.21734
2404.91987	0.21856
2402.99131	0.21979
2401.06274	0.22113
2399.13418	0.22245
2397.20562	0.22359
2395.27705	0.22465
2393.34849	0.22587
2391.41992	0.22737
2389.49136	0.22921
2387.56279	0.23179
2385.63423	0.23571
2383.70566	0.24156
2381.77710	0.24969
2379.84854	0.25968
2377.91997	0.27089
2375.99141	0.28338
2374.06284	0.29773
2372.13428	0.31382
2370.20571	0.33094
2368.27715	0.34850
2366.34858	0.36545
2364.42002	0.38031
2362.49146	0.39184
2360.56289	0.39892
2358.63433	0.40008
2356.70576	0.39404
2354.77720	0.38118
2352.84863	0.36445
2350.92007	0.34748
2348.99150	0.33685
2347.06294	0.33760
2345.13437	0.34994
2343.20581	0.36575
2341.27725	0.37371
2339.34868	0.37409
2337.42012	0.37225
2335.49155	0.37098
2333.56299	0.37010
2331.63442	0.36944
2329.70586	0.36853
2327.77729	0.36648
2325.84873	0.36308
2323.92017	0.35906
2321.99160	0.35479
2320.06304	0.34962
2318.13447	0.34366
2316.20591	0.33841
2314.27734	0.33523
2312.34878	0.33395
2310.42021	0.33283
2308.49165	0.33045
2306.56309	0.32716
2304.63452	0.32413
2302.70596	0.32223
2300.77739	0.32133
2298.84883	0.32083
2296.92026	0.32049
2294.99170	0.32022
2293.06313	0.31996
2291.13457	0.31972
2289.20601	0.31959
2287.27744	0.31962
2285.34888	0.31981
2283.42031	0.32056
2281.49175	0.32226
2279.56318	0.32465
2277.63462	0.32707
2275.70605	0.32933
2273.77749	0.33156
2271.84893	0.33369
2269.92036	0.33568
2267.99180	0.33769
2266.06323	0.33974
2264.13467	0.34161
2262.20610	0.34332
2260.27754	0.34509
2258.34897	0.34692
2256.42041	0.34873
2254.49185	0.35057
2252.56328	0.35247
2250.63472	0.35427
2248.70615	0.35596
2246.77759	0.35770
2244.84902	0.35962
2242.92046	0.36171
2240.99189	0.36389
2239.06333	0.36601
2237.13477	0.36806
2235.20620	0.37022
2233.27764	0.37244
2231.34907	0.37462
2229.42051	0.37685
2227.49194	0.37915
2225.56338	0.38132
2223.63481	0.38343
2221.70625	0.38560
2219.77769	0.38767
2217.84912	0.38968
2215.92056	0.39184
2213.99199	0.39402
2212.06343	0.39611
2210.13486	0.39821
2208.20630	0.40042
2206.27773	0.40262
2204.34917	0.40462
2202.42061	0.40651
2200.49204	0.40846
2198.56348	0.41052
2196.63491	0.41263
2194.70635	0.41466
2192.77778	0.41661
2190.84922	0.41854
2188.92065	0.42038
2186.99209	0.42223
2185.06353	0.42419
2183.13496	0.42600
2181.20640	0.42754
2179.27783	0.42907
2177.34927	0.43070
2175.42070	0.43226
2173.49214	0.43375
2171.56357	0.43525
2169.63501	0.43665
2167.70645	0.43794
2165.77788	0.43918
2163.84932	0.44039
2161.92075	0.44160
2159.99219	0.44282
2158.06362	0.44400
2156.13506	0.44509
2154.20649	0.44604
2152.27793	0.44691
2150.34937	0.44771
2148.42080	0.44844
2146.49224	0.44916
2144.56367	0.44981
2142.63511	0.45032
2140.70654	0.45071
2138.77798	0.45100
2136.84941	0.45113
2134.92085	0.45115
2132.99229	0.45114
2131.06372	0.45113
2129.13516	0.45117
2127.20659	0.45116
2125.27803	0.45090
2123.34946	0.45050
2121.42090	0.45015
2119.49233	0.44976
2117.56377	0.44944
2115.63521	0.44905
2113.70664	0.44835
2111.77808	0.44753
2109.84951	0.44664
2107.92095	0.44557
2105.99238	0.44448
2104.06382	0.44348
2102.13525	0.44244
2100.20669	0.44131
2098.27812	0.44000
2096.34956	0.43861
2094.42100	0.43728
2092.49243	0.43593
2090.56387	0.43446
2088.63530	0.43290
2086.70674	0.43124
2084.77817	0.42952
2082.84961	0.42778
2080.92104	0.42600
2078.99248	0.42418
2077.06392	0.42228
2075.13535	0.42027
2073.20679	0.41818
2071.27822	0.41597
2069.34966	0.41368
2067.42109	0.41150
2065.49253	0.40950
2063.56396	0.40742
2061.63540	0.40508
2059.70684	0.40256
2057.77827	0.40008
2055.84971	0.39765
2053.92114	0.39516
2051.99258	0.39264
2050.06401	0.39014
2048.13545	0.38770
2046.20688	0.38530
2044.27832	0.38286
2042.34976	0.38043
2040.42119	0.37788
2038.49263	0.37508
2036.56406	0.37215
2034.63550	0.36931
2032.70693	0.36660
2030.77837	0.36400
2028.84980	0.36138
2026.92124	0.35868
2024.99268	0.35596
2023.06411	0.35335
2021.13555	0.35083
2019.20698	0.34835
2017.27842	0.34591
2015.34985	0.34319
2013.42129	0.34014
2011.49272	0.33722
2009.56416	0.33458
2007.63560	0.33196
2005.70703	0.32920
2003.77847	0.32644
2001.84990	0.32383
1999.92134	0.32136
1997.99277	0.31884
1996.06421	0.31633
1994.13564	0.31420
1992.20708	0.31225
1990.27852	0.30980
1988.34995	0.30700
1986.42139	0.30428
1984.49282	0.30166
1982.56426	0.29915
1980.63569	0.29672
1978.70713	0.29444
1976.77856	0.29230
1974.85000	0.29011
1972.92144	0.28781
1970.99287	0.28569
1969.06431	0.28401
1967.13574	0.28246
1965.20718	0.28035
1963.27861	0.27793
1961.35005	0.27580
1959.42148	0.27385
1957.49292	0.27197
1955.56436	0.27025
1953.63579	0.26856
1951.70723	0.26676
1949.77866	0.26501
1947.85010	0.26342
1945.92153	0.26214
1943.99297	0.26119
1942.06440	0.26001
1940.13584	0.25804
1938.20728	0.25599
1936.27871	0.25442
1934.35015	0.25311
1932.42158	0.25191
1930.49302	0.25071
1928.56445	0.24947
1926.63589	0.24840
1924.70732	0.24786
1922.77876	0.24756
1920.85020	0.24676
1918.92163	0.24576
1916.99307	0.24461
1915.06450	0.24296
1913.13594	0.24165
1911.20737	0.24128
1909.27881	0.24114
1907.35024	0.24041
1905.42168	0.23926
1903.49312	0.23832
1901.56455	0.23764
1899.63599	0.23704
1897.70742	0.23666
1895.77886	0.23652
1893.85029	0.23627
1891.92173	0.23595
1889.99316	0.23601
1888.06460	0.23577
1886.13604	0.23495
1884.20747	0.23425
1882.27891	0.23382
1880.35034	0.23364
1878.42178	0.23366
1876.49321	0.23370
1874.56465	0.23369
1872.63608	0.23407
1870.70752	0.23541
1868.77896	0.23741
1866.85039	0.23780
1864.92183	0.23637
1862.99326	0.23532
1861.06470	0.23526
1859.13613	0.23572
1857.20757	0.23603
1855.27900	0.23618
1853.35044	0.23643
1851.42187	0.23698
1849.49331	0.23789
1847.56475	0.23923
1845.63618	0.24105
1843.70762	0.24270
1841.77905	0.24283
1839.85049	0.24231
1837.92192	0.24266
1835.99336	0.24346
1834.06479	0.24429
1832.13623	0.24573
1830.20767	0.24817
1828.27910	0.24997
1826.35054	0.25062
1824.42197	0.25157
1822.49341	0.25233
1820.56484	0.25291
1818.63628	0.25403
1816.70771	0.25562
1814.77915	0.25725
1812.85059	0.25935
1810.92202	0.26196
1808.99346	0.26402
1807.06489	0.26543
1805.13633	0.26704
1803.20776	0.26956
1801.27920	0.27277
1799.35063	0.27590
1797.42207	0.27839
1795.49351	0.28097
1793.56494	0.28443
1791.63638	0.28847
1789.70781	0.29094
1787.77925	0.29228
1785.85068	0.29502
1783.92212	0.29899
1781.99355	0.30330
1780.06499	0.30770
1778.13643	0.31192
1776.20786	0.31609
1774.27930	0.32136
1772.35073	0.32848
1770.42217	0.33474
1768.49360	0.33884
1766.56504	0.34288
1764.63647	0.34767
1762.70791	0.35387
1760.77935	0.36182
1758.85078	0.36896
1756.92222	0.37620
1754.99365	0.38398
1753.06509	0.39132
1751.13652	0.40112
1749.20796	0.41336
1747.27939	0.42398
1745.35083	0.43250
1743.42227	0.44160
1741.49370	0.45187
1739.56514	0.46398
1737.63657	0.47603
1735.70801	0.48732
1733.77944	0.50502
1731.85088	0.52436
1729.92231	0.53813
1727.99375	0.55226
1726.06519	0.56818
1724.13662	0.58638
1722.20806	0.60640
1720.27949	0.62545
1718.35093	0.64900
1716.42236	0.68299
1714.49380	0.71244
1712.56523	0.73460
1710.63667	0.75668
1708.70811	0.78184
1706.77954	0.81137
1704.85098	0.84618
1702.92241	0.87674
1700.99385	0.90738
1699.06528	0.95288
1697.13672	0.99341
1695.20815	1.03304
1693.27959	1.07096
1691.35103	1.10226
1689.42246	1.13931
1687.49390	1.17825
1685.56533	1.21594
1683.63677	1.27355
1681.70820	1.33094
1679.77964	1.36652
1677.85107	1.40143
1675.92251	1.44303
1673.99395	1.49457
1672.06538	1.53976
1670.13682	1.58364
1668.20825	1.63853
1666.27969	1.68088
1664.35112	1.71662
1662.42256	1.76147
1660.49399	1.81084
1658.56543	1.84871
1656.63687	1.88028
1654.70830	1.91287
1652.77974	1.96958
1650.85117	2.02294
1648.92261	2.04425
1646.99404	2.07442
1645.06548	2.10947
1643.13691	2.13302
1641.20835	2.14887
1639.27979	2.16314
1637.35122	2.17404
1635.42266	2.17856
1633.49409	2.17328
1631.56553	2.16221
1629.63696	2.14992
1627.70840	2.12898
1625.77983	2.10306
1623.85127	2.06986
1621.92271	2.02802
1619.99414	1.98810
1618.06558	1.94783
1616.13701	1.89051
1614.20845	1.83034
1612.27988	1.78396
1610.35132	1.73674
1608.42275	1.68546
1606.49419	1.63324
1604.56562	1.58410
1602.63706	1.53673
1600.70850	1.49080
1598.77993	1.44840
1596.85137	1.40773
1594.92280	1.36790
1592.99424	1.32956
1591.06567	1.29415
1589.13711	1.26009
1587.20854	1.22743
1585.27998	1.19675
1583.35142	1.16778
1581.42285	1.14090
1579.49429	1.11778
1577.56572	1.09736
1575.63716	1.07109
1573.70859	1.04545
1571.78003	1.02819
1569.85146	1.01031
1567.92290	0.98873
1565.99434	0.97061
1564.06577	0.95558
1562.13721	0.94378
1560.20864	0.93537
1558.28008	0.91868
1556.35151	0.89792
1554.42295	0.88397
1552.49438	0.87143
1550.56582	0.85992
1548.63726	0.84862
1546.70869	0.83908
1544.78013	0.83189
1542.85156	0.82578
1540.92300	0.81844
1538.99443	0.80472
1537.06587	0.79270
1535.13730	0.78588
1533.20874	0.77862
1531.28018	0.76961
1529.35161	0.76263
1527.42305	0.75723
1525.49448	0.75226
1523.56592	0.74800
1521.63735	0.74314
1519.70879	0.73595
1517.78022	0.72926
1515.85166	0.72269
1513.92310	0.71612
1511.99453	0.71162
1510.06597	0.70944
1508.13740	0.70907
1506.20884	0.70454
1504.28027	0.69520
1502.35171	0.68950
1500.42314	0.68638
1498.49458	0.68416
1496.56602	0.68104
1494.63745	0.67676
1492.70889	0.67365
1490.78032	0.67257
1488.85176	0.67131
1486.92319	0.66754
1484.99463	0.66315
1483.06606	0.65982
1481.13750	0.65728
1479.20894	0.65506
1477.28037	0.65370
1475.35181	0.65344
1473.42324	0.65301
1471.49468	0.64976
1469.56611	0.64506
1467.63755	0.64195
1465.70898	0.64021
1463.78042	0.63797
1461.85186	0.63534
1459.92329	0.63429
1457.99473	0.63456
1456.06616	0.63194
1454.13760	0.62641
1452.20903	0.62227
1450.28047	0.61936
1448.35190	0.61705
1446.42334	0.61453
1444.49478	0.61178
1442.56621	0.60946
1440.63765	0.60775
1438.70908	0.60686
1436.78052	0.60650
1434.85195	0.60520
1432.92339	0.60316
1430.99482	0.60160
1429.06626	0.60013
1427.13770	0.59847
1425.20913	0.59735
1423.28057	0.59655
1421.35200	0.59564
1419.42344	0.59509
1417.49487	0.59384
1415.56631	0.59103
1413.63774	0.58837
1411.70918	0.58641
1409.78062	0.58476
1407.85205	0.58328
1405.92349	0.58210
1403.99492	0.58067
1402.06636	0.57910
1400.13779	0.57829
1398.20923	0.57783
1396.28066	0.57692
1394.35210	0.57536
1392.42354	0.57313
1390.49497	0.57118
1388.56641	0.57018
1386.63784	0.56929
1384.70928	0.56756
1382.78071	0.56574
1380.85215	0.56454
1378.92358	0.56386
1376.99502	0.56341
1375.06646	0.56301
1373.13789	0.56198
1371.20933	0.56047
1369.28076	0.55942
1367.35220	0.55853
1365.42363	0.55765
1363.49507	0.55733
1361.56650	0.55675
1359.63794	0.55515
1357.70937	0.55369
1355.78081	0.55287
1353.85225	0.55214
1351.92368	0.55115
1349.99512	0.55017
1348.06655	0.54935
1346.13799	0.54853
1344.20942	0.54776
1342.28086	0.54739
1340.35229	0.54746
1338.42373	0.54693
1336.49517	0.54530
1334.56660	0.54357
1332.63804	0.54237
1330.70947	0.54154
1328.78091	0.54077
1326.85234	0.54002
1324.92378	0.53939
1322.99521	0.53892
1321.06665	0.53865
1319.13809	0.53832
1317.20952	0.53751
1315.28096	0.53658
1313.35239	0.53583
1311.42383	0.53488
1309.49526	0.53380
1307.56670	0.53290
1305.63813	0.53205
1303.70957	0.53124
1301.78101	0.53048
1299.85244	0.52967
1297.92388	0.52891
1295.99531	0.52824
1294.06675	0.52756
1292.13818	0.52689
1290.20962	0.52624
1288.28105	0.52565
1286.35249	0.52513
1284.42393	0.52461
1282.49536	0.52414
1280.56680	0.52385
1278.63823	0.52355
1276.70967	0.52306
1274.78110	0.52251
1272.85254	0.52213
1270.92397	0.52181
1268.99541	0.52147
1267.06685	0.52120
1265.13828	0.52083
1263.20972	0.52020
1261.28115	0.51957
1259.35259	0.51914
1257.42402	0.51885
1255.49546	0.51864
1253.56689	0.51846
1251.63833	0.51819
1249.70977	0.51787
1247.78120	0.51761
1245.85264	0.51745
1243.92407	0.51720
1241.99551	0.51670
1240.06694	0.51614
1238.13838	0.51571
1236.20981	0.51532
1234.28125	0.51482
1232.35269	0.51429
1230.42412	0.51379
1228.49556	0.51334
1226.56699	0.51290
1224.63843	0.51235
1222.70986	0.51171
1220.78130	0.51113
1218.85273	0.51062
1216.92417	0.51012
1214.99561	0.50955
1213.06704	0.50886
1211.13848	0.50820
1209.20991	0.50763
1207.28135	0.50710
1205.35278	0.50666
1203.42422	0.50616
1201.49565	0.50547
1199.56709	0.50482
1197.63853	0.50450
1195.70996	0.50428
1193.78140	0.50395
1191.85283	0.50362
1189.92427	0.50341
1187.99570	0.50333
1186.06714	0.50323
1184.13857	0.50301
1182.21001	0.50294
1180.28145	0.50317
1178.35288	0.50350
1176.42432	0.50391
1174.49575	0.50436
1172.56719	0.50476
1170.63862	0.50509
1168.71006	0.50537
1166.78149	0.50560
1164.85293	0.50566
1162.92437	0.50552
1160.99580	0.50531
1159.06724	0.50503
1157.13867	0.50444
1155.21011	0.50350
1153.28154	0.50225
1151.35298	0.50078
1149.42441	0.49912
1147.49585	0.49711
1145.56729	0.49483
1143.63872	0.49262
1141.71016	0.49057
1139.78159	0.48855
1137.85303	0.48639
1135.92446	0.48415
1133.99590	0.48228
1132.06733	0.48094
1130.13877	0.47971
1128.21021	0.47830
1126.28164	0.47702
1124.35308	0.47594
1122.42451	0.47481
1120.49595	0.47368
1118.56738	0.47276
1116.63882	0.47211
1114.71025	0.47157
1112.78169	0.47111
1110.85312	0.47119
1108.92456	0.47192
1106.99600	0.47277
1105.06743	0.47357
1103.13887	0.47471
1101.21030	0.47639
1099.28174	0.47858
1097.35317	0.48115
1095.42461	0.48399
1093.49604	0.48715
1091.56748	0.49107
1089.63892	0.49600
1087.71035	0.50153
1085.78179	0.50730
1083.85322	0.51321
1081.92466	0.51902
1079.99609	0.52424
1078.06753	0.52807
1076.13896	0.52952
1074.21040	0.52808
1072.28184	0.52398
1070.35327	0.51794
1068.42471	0.51122
1066.49614	0.50492
1064.56758	0.49915
1062.63901	0.49361
1060.71045	0.48850
1058.78188	0.48417
1056.85332	0.48055
1054.92476	0.47738
1052.99619	0.47468
1051.06763	0.47257
1049.13906	0.47078
1047.21050	0.46916
1045.28193	0.46793
1043.35337	0.46711
1041.42480	0.46630
1039.49624	0.46545
1037.56768	0.46505
1035.63911	0.46498
1033.71055	0.46473
1031.78198	0.46446
1029.85342	0.46450
1027.92485	0.46479
1025.99629	0.46523
1024.06772	0.46591
1022.13916	0.46692
1020.21060	0.46808
1018.28203	0.46922
1016.35347	0.47047
1014.42490	0.47179
1012.49634	0.47306
1010.56777	0.47441
1008.63921	0.47599
1006.71064	0.47769
1004.78208	0.47949
1002.85352	0.48162
1000.92495	0.48420
998.99639	0.48715
997.06782	0.49045
995.13926	0.49414
993.21069	0.49801
991.28213	0.50161
989.35356	0.50460
987.42500	0.50672
985.49644	0.50801
983.56787	0.50904
981.63931	0.51030
979.71074	0.51183
977.78218	0.51374
975.85361	0.51625
973.92505	0.51926
971.99648	0.52235
970.06792	0.52557
968.13936	0.52942
966.21079	0.53381
964.28223	0.53823
962.35366	0.54270
960.42510	0.54760
958.49653	0.55312
956.56797	0.55903
954.63940	0.56515
952.71084	0.57132
950.78228	0.57727
948.85371	0.58317
946.92515	0.58942
944.99658	0.59601
943.06802	0.60261
941.13945	0.60862
939.21089	0.61358
937.28232	0.61815
935.35376	0.62342
933.42520	0.62936
931.49663	0.63539
929.56807	0.64130
927.63950	0.64689
925.71094	0.65234
923.78237	0.65820
921.85381	0.66453
919.92524	0.67111
917.99668	0.67788
916.06812	0.68454
914.13955	0.69147
912.21099	0.69923
910.28242	0.70711
908.35386	0.71485
906.42529	0.72325
904.49673	0.73219
902.56816	0.74126
900.63960	0.75036
898.71104	0.75922
896.78247	0.76871
894.85391	0.77924
892.92534	0.78921
890.99678	0.79846
889.06821	0.80890
887.13965	0.82014
885.21108	0.83072
883.28252	0.84163
881.35396	0.85301
879.42539	0.86392
877.49683	0.87498
875.56826	0.88655
873.63970	0.89767
871.71113	0.90775
869.78257	0.91841
867.85400	0.93071
865.92544	0.94294
863.99687	0.95456
862.06831	0.96621
860.13975	0.97708
858.21118	0.98779
856.28262	0.99937
854.35405	1.01123
852.42549	1.02234
850.49692	1.03163
848.56836	1.04072
846.63979	1.05154
844.71123	1.06369
842.78267	1.07737
840.85410	1.09122
838.92554	1.10256
836.99697	1.11122
835.06841	1.12061
833.13984	1.13412
831.21128	1.14932
829.28271	1.16309
827.35415	1.17361
825.42559	1.17899
823.49702	1.18627
821.56846	1.20029
819.63989	1.21475
817.71133	1.22426
815.78276	1.22940
813.85420	1.23469
811.92563	1.24498
809.99707	1.25859
808.06851	1.26758
806.13994	1.27014
804.21138	1.26863
802.28281	1.26955
800.35425	1.27996
798.42568	1.29932
796.49712	1.29341
794.56855	1.26850
792.63999	1.23617
790.71143	1.19604
788.78286	1.15773
786.85430	1.11814
784.92573	1.07833
782.99717	1.04761
781.06860	1.02423
779.14004	0.99852
777.21147	0.96563
775.28291	0.92859
773.35435	0.90370
771.42578	0.89718
769.49722	0.90054
767.56865	0.89863
765.64009	0.87249
763.71152	0.82470
761.78296	0.78529
759.85439	0.75845
757.92583	0.72208
755.99727	0.68656
754.06870	0.66498
752.14014	0.64484
750.21157	0.62117
748.28301	0.59296
746.35444	0.55902
744.42588	0.50892
742.49731	0.44783
740.56875	0.39596
738.64019	0.33986
736.71162	0.27992
734.78306	0.23764
732.85449	0.18866
730.92593	0.11847
728.99736	0.06210
727.06880	0.02112
725.14023	-0.05186
723.21167	-0.16602
721.28311	-0.31029
719.35454	-0.43459
717.42598	-0.47551
715.49741	-0.49653
713.56885	-0.56004
711.64028	-0.64199
709.71172	-0.69843
707.78315	-0.62927
705.85459	-0.51143
703.92603	-0.42972
701.99746	-0.37464
700.06890	-0.34136
698.14033	-0.35638
696.21177	-0.38209
694.28320	-0.33490
692.35464	-0.25560
690.42607	-0.21571
688.49751	-0.23064
686.56895	-0.26159
684.64038	-0.28714
682.71182	-0.31414
680.78325	-0.34933
678.85469	-0.36104
676.92612	-0.33749
674.99756	-0.32266
673.06899	-0.30439
671.14043	-0.26187
669.21187	-0.23144
667.28330	-0.23087
665.35474	-0.23541
663.42617	-0.24323
661.49761	-0.28190
659.56904	-0.32884
657.64048	-0.34569
655.71191	-0.34105
653.78335	-0.32999
651.85479	-0.30240
649.92622	-0.25581
647.99766	-0.23096
646.06909	-0.25412
644.14053	-0.26964
642.21196	-0.23817
640.28340	-0.23408
638.35483	-0.26206
636.42627	-0.26241
634.49771	-0.26029
632.56914	-0.29990
630.64058	-0.34163
628.71201	-0.34432
626.78345	-0.31235
624.85488	-0.25187
622.92632	-0.20421
620.99775	-0.20819
619.06919	-0.24223
617.14062	-0.25873
615.21206	-0.26255
613.28350	-0.27626
611.35493	-0.27196
609.42637	-0.24472
607.49780	-0.22077
605.56924	-0.22300
603.64067	-0.26118
601.71211	-0.28117
599.78354	-0.26543
597.85498	-0.27102
595.92642	-0.30007
593.99785	-0.29548
592.06929	-0.25252
590.14072	-0.22964
588.21216	-0.21953
586.28359	-0.19986
584.35503	-0.20375
582.42646	-0.22727
580.49790	-0.23346
578.56934	-0.21989
576.64077	-0.20399
574.71221	-0.20822
572.78364	-0.20410
570.85508	-0.17799
568.92651	-0.18779
566.99795	-0.22053
565.06938	-0.23041
563.14082	-0.23985
561.21226	-0.22587
559.28369	-0.19627
557.35513	-0.19805
555.42656	-0.21632
553.49800	-0.22187
551.56943	-0.22415
549.64087	-0.23395
547.71230	-0.21628
545.78374	-0.17302
543.85518	-0.13982
541.92661	-0.13374
539.99805	-0.16220
538.06948	-0.19600
536.14092	-0.20199
534.21235	-0.19136
532.28379	-0.17003
530.35522	-0.14795
528.42666	-0.14719
526.49810	-0.17701
524.56953	-0.20852
522.64097	-0.20540
520.71240	-0.18299
518.78384	-0.17940
516.85527	-0.19740
514.92671	-0.20339
512.99814	-0.18358
511.06958	-0.17077
509.14102	-0.16407
507.21245	-0.14596
505.28389	-0.14766
503.35532	-0.18138
501.42676	-0.19027
499.49819	-0.16763
