3997.91411	0.06869
3995.98555	0.06860
3994.05698	0.06854
3992.12842	0.06900
3990.19985	0.06953
3988.27129	0.06965
3986.34272	0.06963
3984.41416	0.07006
3982.48560	0.07091
3980.55703	0.07132
3978.62847	0.07123
3976.69990	0.07140
3974.77134	0.07192
3972.84277	0.07232
3970.91421	0.07233
3968.98564	0.07210
3967.05708	0.07194
3965.12852	0.07195
3963.19995	0.07229
3961.27139	0.07274
3959.34282	0.07302
3957.41426	0.07318
3955.48569	0.07313
3953.55713	0.07294
3951.62856	0.07323
3949.70000	0.07395
3947.77144	0.07438
3945.84287	0.07426
3943.91431	0.07428
3941.98574	0.07477
3940.05718	0.07467
3938.12861	0.07380
3936.20005	0.07324
3934.27148	0.07346
3932.34292	0.07421
3930.41436	0.07465
3928.48579	0.07409
3926.55723	0.07344
3924.62866	0.07374
3922.70010	0.07406
3920.77153	0.07371
3918.84297	0.07385
3916.91440	0.07458
3914.98584	0.07436
3913.05728	0.07314
3911.12871	0.07228
3909.20015	0.07212
3907.27158	0.07265
3905.34302	0.07405
3903.41445	0.07579
3901.48589	0.07661
3899.55732	0.07639
3897.62876	0.07550
3895.70020	0.07442
3893.77163	0.07421
3891.84307	0.07507
3889.91450	0.07563
3887.98594	0.07517
3886.05737	0.07516
3884.12881	0.07557
3882.20024	0.07527
3880.27168	0.07513
3878.34312	0.07537
3876.41455	0.07517
3874.48599	0.07540
3872.55742	0.07642
3870.62886	0.07753
3868.70029	0.07826
3866.77173	0.07822
3864.84316	0.07834
3862.91460	0.07913
3860.98604	0.07935
3859.05747	0.07853
3857.12891	0.07780
3855.20034	0.07847
3853.27178	0.08124
3851.34321	0.08356
3849.41465	0.08245
3847.48608	0.08061
3845.55752	0.07979
3843.62896	0.08054
3841.70039	0.08250
3839.77183	0.08496
3837.84326	0.08737
3835.91470	0.08814
3833.98613	0.08716
3832.05757	0.08609
3830.12900	0.08579
3828.20044	0.08636
3826.27187	0.08739
3824.34331	0.08828
3822.41475	0.08974
3820.48618	0.09251
3818.55762	0.09389
3816.62905	0.09362
3814.70049	0.09346
3812.77192	0.09303
3810.84336	0.09289
3808.91479	0.09377
3806.98623	0.09597
3805.05767	0.09842
3803.12910	0.09995
3801.20054	0.10175
3799.27197	0.10307
3797.34341	0.10304
3795.41484	0.10313
3793.48628	0.10308
3791.55771	0.10316
3789.62915	0.10425
3787.70059	0.10595
3785.77202	0.10781
3783.84346	0.10964
3781.91489	0.11115
3779.98633	0.11283
3778.05776	0.11472
3776.12920	0.11598
3774.20063	0.11700
3772.27207	0.11844
3770.34351	0.12081
3768.41494	0.12370
3766.48638	0.12575
3764.55781	0.12724
3762.62925	0.12855
3760.70068	0.13055
3758.77212	0.13414
3756.84355	0.13754
3754.91499	0.13965
3752.98643	0.14244
3751.05786	0.14742
3749.12930	0.15280
3747.20073	0.15521
3745.27217	0.15701
3743.34360	0.16111
3741.41504	0.16515
3739.48647	0.16792
3737.55791	0.17223
3735.62935	0.17963
3733.70078	0.18773
3731.77222	0.19269
3729.84365	0.19571
3727.91509	0.19928
3725.98652	0.20502
3724.05796	0.21183
3722.12939	0.21778
3720.20083	0.22318
3718.27227	0.22825
3716.34370	0.23365
3714.41514	0.24052
3712.48657	0.25091
3710.55801	0.26645
3708.62944	0.28183
3706.70088	0.29305
3704.77231	0.30378
3702.84375	0.31697
3700.91519	0.33423
3698.98662	0.35289
3697.05806	0.37013
3695.12949	0.38830
3693.20093	0.40815
3691.27236	0.43016
3689.34380	0.45806
3687.41523	0.49156
3685.48667	0.52114
3683.55811	0.54697
3681.62954	0.57521
3679.70098	0.60761
3677.77241	0.64186
3675.84385	0.68230
3673.91528	0.73568
3671.98672	0.77882
3670.05815	0.81760
3668.12959	0.87052
3666.20103	0.91842
3664.27246	0.95865
3662.34390	1.00182
3660.41533	1.04886
3658.48677	1.09649
3656.55820	1.14784
3654.62964	1.20400
3652.70107	1.25017
3650.77251	1.29079
3648.84395	1.34867
3646.91538	1.41940
3644.98682	1.46950
3643.05825	1.50756
3641.12969	1.54768
3639.20112	1.59302
3637.27256	1.63919
3635.34399	1.68393
3633.41543	1.72807
3631.48687	1.76908
3629.55830	1.81093
3627.62974	1.86558
3625.70117	1.91604
3623.77261	1.95022
3621.84404	1.98333
3619.91548	2.02183
3617.98691	2.06854
3616.05835	2.11270
3614.12979	2.14934
3612.20122	2.18877
3610.27266	2.22857
3608.34409	2.26823
3606.41553	2.31085
3604.48696	2.35060
3602.55840	2.38591
3600.62983	2.42377
3598.70127	2.46413
3596.77271	2.50332
3594.84414	2.54451
3592.91558	2.58777
3590.98701	2.62761
3589.05845	2.66429
3587.12988	2.70838
3585.20132	2.75671
3583.27275	2.79635
3581.34419	2.83231
3579.41562	2.87197
3577.48706	2.91517
3575.55850	2.95829
3573.62993	3.00204
3571.70137	3.04531
3569.77280	3.08653
3567.84424	3.12985
3565.91567	3.18141
3563.98711	3.22997
3562.05854	3.27001
3560.12998	3.31056
3558.20142	3.35426
3556.27285	3.40027
3554.34429	3.44560
3552.41572	3.49041
3550.48716	3.53563
3548.55859	3.58156
3546.63003	3.62877
3544.70146	3.67771
3542.77290	3.72562
3540.84434	3.77092
3538.91577	3.81596
3536.98721	3.86129
3535.05864	3.90879
3533.13008	3.95604
3531.20151	4.00062
3529.27295	4.04597
3527.34438	4.09702
3525.41582	4.15092
3523.48726	4.20114
3521.55869	4.24868
3519.63013	4.29469
3517.70156	4.33910
3515.77300	4.38385
3513.84443	4.43246
3511.91587	4.48439
3509.98730	4.53499
3508.05874	4.57999
3506.13018	4.62042
3504.20161	4.66367
3502.27305	4.71348
3500.34448	4.76428
3498.41592	4.81038
3496.48735	4.85488
3494.55879	4.90436
3492.63022	4.95874
3490.70166	5.01057
3488.77310	5.05688
3486.84453	5.10187
3484.91597	5.15008
3482.98740	5.19829
3481.05884	5.24304
3479.13027	5.28997
3477.20171	5.34313
3475.27314	5.39499
3473.34458	5.44068
3471.41602	5.48678
3469.48745	5.53407
3467.55889	5.58074
3465.63032	5.63438
3463.70176	5.69438
3461.77319	5.74602
3459.84463	5.79080
3457.91606	5.83981
3455.98750	5.89537
3454.05894	5.95133
3452.13037	5.99643
3450.20181	6.03269
3448.27324	6.07470
3446.34468	6.12956
3444.41611	6.18742
3442.48755	6.25005
3440.55898	6.31007
3438.63042	6.35058
3436.70186	6.38283
3434.77329	6.42375
3432.84473	6.47409
3430.91616	6.51924
3428.98760	6.56442
3427.05903	6.62608
3425.13047	6.69139
3423.20190	6.73396
3421.27334	6.77375
3419.34478	6.83944
3417.41621	6.90717
3415.48765	6.92606
3413.55908	6.90750
3411.63052	6.94173
3409.70195	7.02505
3407.77339	7.06824
3405.84482	7.07780
3403.91626	7.11668
3401.98770	7.16522
3400.05913	7.19765
3398.13057	7.24590
3396.20200	7.30856
3394.27344	7.36589
3392.34487	7.43146
3390.41631	7.50060
3388.48774	7.52338
3386.55918	7.52610
3384.63062	7.55401
3382.70205	7.60036
3380.77349	7.64484
3378.84492	7.67856
3376.91636	7.70249
3374.98779	7.69139
3373.05923	7.65894
3371.13066	7.64394
3369.20210	7.68716
3367.27354	7.76133
3365.34497	7.79545
3363.41641	7.79036
3361.48784	7.78629
3359.55928	7.78860
3357.63071	7.80209
3355.70215	7.88025
3353.77358	7.98218
3351.84502	8.03160
3349.91646	8.03222
3347.98789	8.02219
3346.05933	7.99531
3344.13076	7.92747
3342.20220	7.86753
3340.27363	7.87114
3338.34507	7.93810
3336.41650	7.98085
3334.48794	7.99015
3332.55937	8.02598
3330.63081	8.03381
3328.70225	7.96458
3326.77368	7.97375
3324.84512	8.16280
3322.91655	8.34476
3320.98799	8.31284
3319.05942	8.16757
3317.13086	8.13612
3315.20229	8.20472
3313.27373	8.22933
3311.34517	8.20086
3309.41660	8.15290
3307.48804	8.13027
3305.55947	8.17526
3303.63091	8.21710
3301.70234	8.09844
3299.77378	7.94533
3297.84521	7.94511
3295.91665	8.05052
3293.98809	8.16586
3292.05952	8.24554
3290.13096	8.23955
3288.20239	8.16036
3286.27383	8.09964
3284.34526	8.08876
3282.41670	8.09550
3280.48813	8.10394
3278.55957	8.10610
3276.63101	8.10917
3274.70244	8.15395
3272.77388	8.20821
3270.84531	8.21545
3268.91675	8.17297
3266.98818	8.08787
3265.05962	8.02962
3263.13105	8.04982
3261.20249	8.15040
3259.27393	8.30069
3257.34536	8.42490
3255.41680	8.44971
3253.48823	8.35024
3251.55967	8.21281
3249.63110	8.15554
3247.70254	8.18661
3245.77397	8.23683
3243.84541	8.23058
3241.91685	8.14416
3239.98828	8.03997
3238.05972	7.95567
3236.13115	7.92100
3234.20259	7.94324
3232.27402	7.98375
3230.34546	8.05031
3228.41689	8.14369
3226.48833	8.23535
3224.55977	8.27014
3222.63120	8.19462
3220.70264	8.08404
3218.77407	7.97494
3216.84551	7.85310
3214.91694	7.79967
3212.98838	7.84550
3211.05981	7.93304
3209.13125	7.98249
3207.20269	7.95563
3205.27412	7.90130
3203.34556	7.83290
3201.41699	7.75581
3199.48843	7.69097
3197.55986	7.62629
3195.63130	7.55025
3193.70273	7.47304
3191.77417	7.41553
3189.84561	7.36780
3187.91704	7.32545
3185.98848	7.32760
3184.05991	7.34799
3182.13135	7.30135
3180.20278	7.21059
3178.27422	7.13166
3176.34565	7.06381
3174.41709	7.00799
3172.48853	6.96523
3170.55996	6.92096
3168.63140	6.87364
3166.70283	6.82214
3164.77427	6.74984
3162.84570	6.68093
3160.91714	6.63375
3158.98857	6.57409
3157.06001	6.49343
3155.13145	6.41698
3153.20288	6.35223
3151.27432	6.29243
3149.34575	6.24060
3147.41719	6.19694
3145.48862	6.14689
3143.56006	6.07866
3141.63149	5.99141
3139.70293	5.90206
3137.77437	5.82604
3135.84580	5.75488
3133.91724	5.68257
3131.98867	5.61500
3130.06011	5.55135
3128.13154	5.48201
3126.20298	5.40714
3124.27441	5.33693
3122.34585	5.27286
3120.41729	5.20818
3118.48872	5.13513
3116.56016	5.05887
3114.63159	4.99036
3112.70303	4.92541
3110.77446	4.85594
3108.84590	4.78344
3106.91733	4.71092
3104.98877	4.63975
3103.06021	4.57512
3101.13164	4.51679
3099.20308	4.45550
3097.27451	4.38860
3095.34595	4.32203
3093.41738	4.25731
3091.48882	4.19300
3089.56025	4.13023
3087.63169	4.06857
3085.70312	4.00731
3083.77456	3.94740
3081.84600	3.88870
3079.91743	3.82991
3077.98887	3.77071
3076.06030	3.71219
3074.13174	3.65554
3072.20317	3.59940
3070.27461	3.54224
3068.34604	3.48618
3066.41748	3.43239
3064.48892	3.37920
3062.56035	3.32538
3060.63179	3.27191
3058.70322	3.21989
3056.77466	3.16832
3054.84609	3.11593
3052.91753	3.06307
3050.98896	3.01074
3049.06040	2.95985
3047.13184	2.91072
3045.20327	2.86196
3043.27471	2.81356
3041.34614	2.76675
3039.41758	2.72044
3037.48901	2.67424
3035.56045	2.62944
3033.63188	2.58559
3031.70332	2.54153
3029.77476	2.49774
3027.84619	2.45510
3025.91763	2.41308
3023.98906	2.37074
3022.06050	2.32836
3020.13193	2.28734
3018.20337	2.24867
3016.27480	2.21152
3014.34624	2.17384
3012.41768	2.13523
3010.48911	2.09699
3008.56055	2.05986
3006.63198	2.02395
3004.70342	1.98909
3002.77485	1.95495
3000.84629	1.92130
2998.91772	1.88801
2996.98916	1.85542
2995.06060	1.82399
2993.13203	1.79347
2991.20347	1.76350
2989.27490	1.73422
2987.34634	1.70552
2985.41777	1.67703
2983.48921	1.64905
2981.56064	1.62191
2979.63208	1.59512
2977.70352	1.56858
2975.77495	1.54274
2973.84639	1.51765
2971.91782	1.49327
2969.98926	1.46956
2968.06069	1.44616
2966.13213	1.42257
2964.20356	1.39871
2962.27500	1.37513
2960.34644	1.35199
2958.41787	1.32924
2956.48931	1.30654
2954.56074	1.28320
2952.63218	1.25979
2950.70361	1.23743
2948.77505	1.21593
2946.84648	1.19463
2944.91792	1.17342
2942.98936	1.15265
2941.06079	1.13272
2939.13223	1.11352
2937.20366	1.09480
2935.27510	1.07627
2933.34653	1.05760
2931.41797	1.03874
2929.48940	1.01988
2927.56084	1.00113
2925.63228	0.98265
2923.70371	0.96488
2921.77515	0.94791
2919.84658	0.93126
2917.91802	0.91484
2915.98945	0.89852
2914.06089	0.88202
2912.13232	0.86561
2910.20376	0.85000
2908.27520	0.83529
2906.34663	0.82095
2904.41807	0.80687
2902.48950	0.79314
2900.56094	0.77961
2898.63237	0.76654
2896.70381	0.75403
2894.77524	0.74152
2892.84668	0.72904
2890.91812	0.71724
2888.98955	0.70607
2887.06099	0.69507
2885.13242	0.68431
2883.20386	0.67409
2881.27529	0.66442
2879.34673	0.65501
2877.41816	0.64545
2875.48960	0.63563
2873.56104	0.62561
2871.63247	0.61508
2869.70391	0.60406
2867.77534	0.59305
2865.84678	0.58205
2863.91821	0.57092
2861.98965	0.56000
2860.06108	0.54955
2858.13252	0.53967
2856.20396	0.53032
2854.27539	0.52137
2852.34683	0.51264
2850.41826	0.50398
2848.48970	0.49551
2846.56113	0.48744
2844.63257	0.47981
2842.70400	0.47247
2840.77544	0.46555
2838.84687	0.45924
2836.91831	0.45315
2834.98975	0.44702
2833.06118	0.44106
2831.13262	0.43515
2829.20405	0.42917
2827.27549	0.42326
2825.34692	0.41738
2823.41836	0.41140
2821.48979	0.40550
2819.56123	0.39979
2817.63267	0.39409
2815.70410	0.38834
2813.77554	0.38270
2811.84697	0.37719
2809.91841	0.37176
2807.98984	0.36651
2806.06128	0.36140
2804.13271	0.35630
2802.20415	0.35124
2800.27559	0.34632
2798.34702	0.34152
2796.41846	0.33671
2794.48989	0.33188
2792.56133	0.32706
2790.63276	0.32242
2788.70420	0.31809
2786.77563	0.31382
2784.84707	0.30956
2782.91851	0.30547
2780.98994	0.30142
2779.06138	0.29740
2777.13281	0.29346
2775.20425	0.28958
2773.27568	0.28585
2771.34712	0.28236
2769.41855	0.27889
2767.48999	0.27517
2765.56143	0.27138
2763.63286	0.26792
2761.70430	0.26466
2759.77573	0.26132
2757.84717	0.25800
2755.91860	0.25496
2753.99004	0.25208
2752.06147	0.24916
2750.13291	0.24616
2748.20435	0.24316
2746.27578	0.24026
2744.34722	0.23746
2742.41865	0.23477
2740.49009	0.23226
2738.56152	0.22990
2736.63296	0.22747
2734.70439	0.22488
2732.77583	0.22237
2730.84727	0.22017
2728.91870	0.21807
2726.99014	0.21581
2725.06157	0.21344
2723.13301	0.21112
2721.20444	0.20891
2719.27588	0.20687
2717.34731	0.20502
2715.41875	0.20324
2713.49019	0.20136
2711.56162	0.19949
2709.63306	0.19777
2707.70449	0.19614
2705.77593	0.19444
2703.84736	0.19266
2701.91880	0.19093
2699.99023	0.18930
2698.06167	0.18777
2696.13311	0.18640
2694.20454	0.18508
2692.27598	0.18366
2690.34741	0.18224
2688.41885	0.18101
2686.49028	0.17988
2684.56172	0.17863
2682.63315	0.17738
2680.70459	0.17624
2678.77603	0.17512
2676.84746	0.17394
2674.91890	0.17275
2672.99033	0.17163
2671.06177	0.17048
2669.13320	0.16923
2667.20464	0.16815
2665.27607	0.16735
2663.34751	0.16650
2661.41895	0.16549
2659.49038	0.16453
2657.56182	0.16377
2655.63325	0.16313
2653.70469	0.16242
2651.77612	0.16165
2649.84756	0.16095
2647.91899	0.16026
2645.99043	0.15952
2644.06187	0.15881
2642.13330	0.15813
2640.20474	0.15747
2638.27617	0.15696
2636.34761	0.15662
2634.41904	0.15614
2632.49048	0.15551
2630.56191	0.15496
2628.63335	0.15454
2626.70479	0.15419
2624.77622	0.15386
2622.84766	0.15360
2620.91909	0.15333
2618.99053	0.15302
2617.06196	0.15270
2615.13340	0.15238
2613.20483	0.15213
2611.27627	0.15200
2609.34771	0.15184
2607.41914	0.15164
2605.49058	0.15149
2603.56201	0.15135
2601.63345	0.15131
2599.70488	0.15136
2597.77632	0.15136
2595.84775	0.15131
2593.91919	0.15135
2591.99062	0.15146
2590.06206	0.15152
2588.13350	0.15166
2586.20493	0.15195
2584.27637	0.15222
2582.34780	0.15232
2580.41924	0.15235
2578.49067	0.15238
2576.56211	0.15254
2574.63354	0.15292
2572.70498	0.15340
2570.77642	0.15377
2568.84785	0.15400
2566.91929	0.15423
2564.99072	0.15453
2563.06216	0.15483
2561.13359	0.15512
2559.20503	0.15548
2557.27646	0.15588
2555.34790	0.15629
2553.41934	0.15674
2551.49077	0.15719
2549.56221	0.15758
2547.63364	0.15800
2545.70508	0.15848
2543.77651	0.15912
2541.84795	0.15986
2539.91938	0.16048
2537.99082	0.16107
2536.06226	0.16174
2534.13369	0.16229
2532.20513	0.16278
2530.27656	0.16348
2528.34800	0.16426
2526.41943	0.16495
2524.49087	0.16565
2522.56230	0.16636
2520.63374	0.16702
2518.70518	0.16765
2516.77661	0.16826
2514.84805	0.16894
2512.91948	0.16981
2510.99092	0.17068
2509.06235	0.17137
2507.13379	0.17206
2505.20522	0.17301
2503.27666	0.17393
2501.34810	0.17456
2499.41953	0.17513
2497.49097	0.17588
2495.56240	0.17676
2493.63384	0.17762
2491.70527	0.17831
2489.77671	0.17893
2487.84814	0.17973
2485.91958	0.18072
2483.99102	0.18165
2482.06245	0.18240
2480.13389	0.18312
2478.20532	0.18397
2476.27676	0.18491
2474.34819	0.18588
2472.41963	0.18675
2470.49106	0.18750
2468.56250	0.18827
2466.63394	0.18909
2464.70537	0.19003
2462.77681	0.19103
2460.84824	0.19189
2458.91968	0.19260
2456.99111	0.19325
2455.06255	0.19402
2453.13398	0.19501
2451.20542	0.19606
2449.27686	0.19700
2447.34829	0.19789
2445.41973	0.19883
2443.49116	0.19982
2441.56260	0.20081
2439.63403	0.20187
2437.70547	0.20294
2435.77690	0.20395
2433.84834	0.20493
2431.91978	0.20584
2429.99121	0.20679
2428.06265	0.20784
2426.13408	0.20892
2424.20552	0.21003
2422.27695	0.21115
2420.34839	0.21225
2418.41982	0.21326
2416.49126	0.21426
2414.56270	0.21534
2412.63413	0.21647
2410.70557	0.21763
2408.77700	0.21882
2406.84844	0.21998
2404.91987	0.22109
2402.99131	0.22223
2401.06274	0.22345
2399.13418	0.22466
2397.20562	0.22577
2395.27705	0.22684
2393.34849	0.22804
2391.41992	0.22938
2389.49136	0.23084
2387.56279	0.23279
2385.63423	0.23576
2383.70566	0.24011
2381.77710	0.24579
2379.84854	0.25241
2377.91997	0.25966
2375.99141	0.26770
2374.06284	0.27688
2372.13428	0.28719
2370.20571	0.29799
2368.27715	0.30864
2366.34858	0.31907
2364.42002	0.32870
2362.49146	0.33641
2360.56289	0.34199
2358.63433	0.34431
2356.70576	0.34108
2354.77720	0.33316
2352.84863	0.32373
2350.92007	0.31461
2348.99150	0.30877
2347.06294	0.30922
2345.13437	0.31672
2343.20581	0.32684
2341.27725	0.33257
2339.34868	0.33360
2337.42012	0.33307
2335.49155	0.33293
2333.56299	0.33312
2331.63442	0.33356
2329.70586	0.33362
2327.77729	0.33264
2325.84873	0.33117
2323.92017	0.32971
2321.99160	0.32773
2320.06304	0.32492
2318.13447	0.32191
2316.20591	0.31941
2314.27734	0.31811
2312.34878	0.31799
2310.42021	0.31789
2308.49165	0.31695
2306.56309	0.31548
2304.63452	0.31419
2302.70596	0.31367
2300.77739	0.31394
2298.84883	0.31445
2296.92026	0.31488
2294.99170	0.31531
2293.06313	0.31585
2291.13457	0.31640
2289.20601	0.31703
2287.27744	0.31782
2285.34888	0.31860
2283.42031	0.31957
2281.49175	0.32128
2279.56318	0.32365
2277.63462	0.32597
2275.70605	0.32807
2273.77749	0.33018
2271.84893	0.33223
2269.92036	0.33410
2267.99180	0.33595
2266.06323	0.33790
2264.13467	0.33992
2262.20610	0.34193
2260.27754	0.34391
2258.34897	0.34577
2256.42041	0.34754
2254.49185	0.34945
2252.56328	0.35151
2250.63472	0.35349
2248.70615	0.35538
2246.77759	0.35728
2244.84902	0.35922
2242.92046	0.36128
2240.99189	0.36346
2239.06333	0.36560
2237.13477	0.36772
2235.20620	0.36987
2233.27764	0.37197
2231.34907	0.37409
2229.42051	0.37625
2227.49194	0.37843
2225.56338	0.38067
2223.63481	0.38292
2221.70625	0.38509
2219.77769	0.38722
2217.84912	0.38936
2215.92056	0.39158
2213.99199	0.39378
2212.06343	0.39590
2210.13486	0.39800
2208.20630	0.40010
2206.27773	0.40214
2204.34917	0.40414
2202.42061	0.40614
2200.49204	0.40815
2198.56348	0.41019
2196.63491	0.41218
2194.70635	0.41404
2192.77778	0.41588
2190.84922	0.41779
2188.92065	0.41965
2186.99209	0.42145
2185.06353	0.42331
2183.13496	0.42519
2181.20640	0.42691
2179.27783	0.42851
2177.34927	0.43006
2175.42070	0.43156
2173.49214	0.43307
2171.56357	0.43462
2169.63501	0.43600
2167.70645	0.43721
2165.77788	0.43852
2163.84932	0.43985
2161.92075	0.44098
2159.99219	0.44199
2158.06362	0.44301
2156.13506	0.44406
2154.20649	0.44505
2152.27793	0.44592
2150.34937	0.44672
2148.42080	0.44743
2146.49224	0.44806
2144.56367	0.44858
2142.63511	0.44895
2140.70654	0.44938
2138.77798	0.44989
2136.84941	0.45018
2134.92085	0.45023
2132.99229	0.45024
2131.06372	0.45024
2129.13516	0.45014
2127.20659	0.44996
2125.27803	0.44976
2123.34946	0.44948
2121.42090	0.44903
2119.49233	0.44841
2117.56377	0.44782
2115.63521	0.44731
2113.70664	0.44667
2111.77808	0.44588
2109.84951	0.44501
2107.92095	0.44402
2105.99238	0.44297
2104.06382	0.44201
2102.13525	0.44098
2100.20669	0.43981
2098.27812	0.43850
2096.34956	0.43707
2094.42100	0.43561
2092.49243	0.43412
2090.56387	0.43252
2088.63530	0.43077
2086.70674	0.42895
2084.77817	0.42723
2082.84961	0.42565
2080.92104	0.42395
2078.99248	0.42201
2077.06392	0.41998
2075.13535	0.41788
2073.20679	0.41578
2071.27822	0.41370
2069.34966	0.41154
2067.42109	0.40929
2065.49253	0.40704
2063.56396	0.40478
2061.63540	0.40248
2059.70684	0.40014
2057.77827	0.39775
2055.84971	0.39528
2053.92114	0.39276
2051.99258	0.39026
2050.06401	0.38775
2048.13545	0.38517
2046.20688	0.38254
2044.27832	0.38005
2042.34976	0.37764
2040.42119	0.37507
2038.49263	0.37231
2036.56406	0.36952
2034.63550	0.36678
2032.70693	0.36402
2030.77837	0.36123
2028.84980	0.35848
2026.92124	0.35584
2024.99268	0.35324
2023.06411	0.35061
2021.13555	0.34798
2019.20698	0.34545
2017.27842	0.34288
2015.34985	0.34006
2013.42129	0.33711
2011.49272	0.33428
2009.56416	0.33167
2007.63560	0.32911
2005.70703	0.32649
2003.77847	0.32385
2001.84990	0.32122
1999.92134	0.31857
1997.99277	0.31593
1996.06421	0.31341
1994.13564	0.31112
1992.20708	0.30887
1990.27852	0.30635
1988.34995	0.30376
1986.42139	0.30125
1984.49282	0.29881
1982.56426	0.29643
1980.63569	0.29410
1978.70713	0.29184
1976.77856	0.28963
1974.85000	0.28741
1972.92144	0.28515
1970.99287	0.28294
1969.06431	0.28093
1967.13574	0.27905
1965.20718	0.27704
1963.27861	0.27492
1961.35005	0.27291
1959.42148	0.27103
1957.49292	0.26925
1955.56436	0.26754
1953.63579	0.26582
1951.70723	0.26402
1949.77866	0.26225
1947.85010	0.26057
1945.92153	0.25908
1943.99297	0.25783
1942.06440	0.25652
1940.13584	0.25491
1938.20728	0.25331
1936.27871	0.25192
1934.35015	0.25061
1932.42158	0.24934
1930.49302	0.24807
1928.56445	0.24680
1926.63589	0.24565
1924.70732	0.24477
1922.77876	0.24405
1920.85020	0.24322
1918.92163	0.24234
1916.99307	0.24136
1915.06450	0.24017
1913.13594	0.23912
1911.20737	0.23850
1909.27881	0.23805
1907.35024	0.23740
1905.42168	0.23655
1903.49312	0.23583
1901.56455	0.23528
1899.63599	0.23476
1897.70742	0.23427
1895.77886	0.23386
1893.85029	0.23348
1891.92173	0.23309
1889.99316	0.23287
1888.06460	0.23260
1886.13604	0.23221
1884.20747	0.23186
1882.27891	0.23157
1880.35034	0.23143
1878.42178	0.23138
1876.49321	0.23135
1874.56465	0.23128
1872.63608	0.23141
1870.70752	0.23198
1868.77896	0.23287
1866.85039	0.23316
1864.92183	0.23271
1862.99326	0.23243
1861.06470	0.23255
1859.13613	0.23289
1857.20757	0.23321
1855.27900	0.23356
1853.35044	0.23394
1851.42187	0.23439
1849.49331	0.23503
1847.56475	0.23592
1845.63618	0.23704
1843.70762	0.23820
1841.77905	0.23884
1839.85049	0.23905
1837.92192	0.23959
1835.99336	0.24038
1834.06479	0.24131
1832.13623	0.24248
1830.20767	0.24412
1828.27910	0.24565
1826.35054	0.24661
1824.42197	0.24781
1822.49341	0.24897
1820.56484	0.24998
1818.63628	0.25118
1816.70771	0.25272
1814.77915	0.25436
1812.85059	0.25622
1810.92202	0.25830
1808.99346	0.26021
1807.06489	0.26197
1805.13633	0.26385
1803.20776	0.26613
1801.27920	0.26878
1799.35063	0.27167
1797.42207	0.27418
1795.49351	0.27659
1793.56494	0.27953
1791.63638	0.28319
1789.70781	0.28634
1787.77925	0.28863
1785.85068	0.29158
1783.92212	0.29524
1781.99355	0.29922
1780.06499	0.30337
1778.13643	0.30756
1776.20786	0.31163
1774.27930	0.31620
1772.35073	0.32221
1770.42217	0.32827
1768.49360	0.33315
1766.56504	0.33796
1764.63647	0.34305
1762.70791	0.34881
1760.77935	0.35625
1758.85078	0.36332
1756.92222	0.37040
1754.99365	0.37797
1753.06509	0.38484
1751.13652	0.39324
1749.20796	0.40386
1747.27939	0.41420
1745.35083	0.42318
1743.42227	0.43260
1741.49370	0.44302
1739.56514	0.45545
1737.63657	0.46788
1735.70801	0.47878
1733.77944	0.49509
1731.85088	0.51422
1729.92231	0.52915
1727.99375	0.54445
1726.06519	0.56111
1724.13662	0.57945
1722.20806	0.59931
1720.27949	0.61773
1718.35093	0.63941
1716.42236	0.67122
1714.49380	0.70112
1712.56523	0.72518
1710.63667	0.74877
1708.70811	0.77455
1706.77954	0.80409
1704.85098	0.83940
1702.92241	0.87086
1700.99385	0.90204
1699.06528	0.94873
1697.13672	0.99183
1695.20815	1.03603
1693.27959	1.07923
1691.35103	1.11437
1689.42246	1.15531
1687.49390	1.19880
1685.56533	1.24069
1683.63677	1.30507
1681.70820	1.37249
1679.77964	1.41613
1677.85107	1.45773
1675.92251	1.50567
1673.99395	1.56518
1672.06538	1.61852
1670.13682	1.67069
1668.20825	1.73801
1666.27969	1.79362
1664.35112	1.84174
1662.42256	1.90239
1660.49399	1.97197
1658.56543	2.02763
1656.63687	2.07245
1654.70830	2.11329
1652.77974	2.17516
1650.85117	2.22918
1648.92261	2.24565
1646.99404	2.26899
1645.06548	2.29806
1643.13691	2.31851
1641.20835	2.32932
1639.27979	2.33851
1637.35122	2.34482
1635.42266	2.34498
1633.49409	2.33645
1631.56553	2.32173
1629.63696	2.30378
1627.70840	2.27416
1625.77983	2.24054
1623.85127	2.19970
1621.92271	2.14866
1619.99414	2.10136
1618.06558	2.05475
1616.13701	1.98848
1614.20845	1.92058
1612.27988	1.86891
1610.35132	1.81579
1608.42275	1.75930
1606.49419	1.70403
1604.56562	1.65264
1602.63706	1.60301
1600.70850	1.55525
1598.77993	1.51156
1596.85137	1.47027
1594.92280	1.42995
1592.99424	1.39075
1591.06567	1.35484
1589.13711	1.32144
1587.20854	1.29051
1585.27998	1.26199
1583.35142	1.23526
1581.42285	1.21094
1579.49429	1.19047
1577.56572	1.17242
1575.63716	1.15103
1573.70859	1.13230
1571.78003	1.12018
1569.85146	1.10839
1567.92290	1.09569
1565.99434	1.08591
1564.06577	1.07883
1562.13721	1.07424
1560.20864	1.07270
1558.28008	1.07345
1556.35151	1.07332
1554.42295	1.07239
1552.49438	1.07176
1550.56582	1.07021
1548.63726	1.06658
1546.70869	1.06094
1544.78013	1.05284
1542.85156	1.04152
1540.92300	1.02427
1538.99443	0.99677
1537.06587	0.97572
1535.13730	0.96151
1533.20874	0.94311
1531.28018	0.92306
1529.35161	0.90833
1527.42305	0.89475
1525.49448	0.88080
1523.56592	0.86916
1521.63735	0.85831
1519.70879	0.84681
1517.78022	0.83677
1515.85166	0.82529
1513.92310	0.81322
1511.99453	0.80287
1510.06597	0.79385
1508.13740	0.78543
1506.20884	0.77168
1504.28027	0.75863
1502.35171	0.75126
1500.42314	0.74543
1498.49458	0.73971
1496.56602	0.73278
1494.63745	0.72529
1492.70889	0.71955
1490.78032	0.71514
1488.85176	0.71040
1486.92319	0.70543
1484.99463	0.70124
1483.06606	0.69813
1481.13750	0.69586
1479.20894	0.69438
1477.28037	0.69399
1475.35181	0.69459
1473.42324	0.69557
1471.49468	0.69548
1469.56611	0.69381
1467.63755	0.69177
1465.70898	0.69014
1463.78042	0.68891
1461.85186	0.68808
1459.92329	0.68800
1457.99473	0.68855
1456.06616	0.68765
1454.13760	0.68459
1452.20903	0.68152
1450.28047	0.67858
1448.35190	0.67564
1446.42334	0.67246
1444.49478	0.66932
1442.56621	0.66653
1440.63765	0.66398
1438.70908	0.66161
1436.78052	0.65859
1434.85195	0.65463
1432.92339	0.65140
1430.99482	0.64946
1429.06626	0.64842
1427.13770	0.64799
1425.20913	0.64814
1423.28057	0.64873
1421.35200	0.64917
1419.42344	0.64950
1417.49487	0.64941
1415.56631	0.64828
1413.63774	0.64706
1411.70918	0.64653
1409.78062	0.64675
1407.85205	0.64743
1405.92349	0.64855
1403.99492	0.64951
1402.06636	0.64945
1400.13779	0.64884
1398.20923	0.64776
1396.28066	0.64560
1394.35210	0.64208
1392.42354	0.63796
1390.49497	0.63428
1388.56641	0.63079
1386.63784	0.62663
1384.70928	0.62193
1382.78071	0.61739
1380.85215	0.61330
1378.92358	0.60996
1376.99502	0.60748
1375.06646	0.60583
1373.13789	0.60471
1371.20933	0.60398
1369.28076	0.60350
1367.35220	0.60264
1365.42363	0.60128
1363.49507	0.59992
1361.56650	0.59850
1359.63794	0.59665
1357.70937	0.59479
1355.78081	0.59332
1353.85225	0.59220
1351.92368	0.59124
1349.99512	0.59039
1348.06655	0.58960
1346.13799	0.58869
1344.20942	0.58775
1342.28086	0.58707
1340.35229	0.58673
1338.42373	0.58627
1336.49517	0.58530
1334.56660	0.58436
1332.63804	0.58399
1330.70947	0.58401
1328.78091	0.58414
1326.85234	0.58445
1324.92378	0.58506
1322.99521	0.58587
1321.06665	0.58668
1319.13809	0.58739
1317.20952	0.58776
1315.28096	0.58771
1313.35239	0.58739
1311.42383	0.58688
1309.49526	0.58616
1307.56670	0.58535
1305.63813	0.58457
1303.70957	0.58378
1301.78101	0.58287
1299.85244	0.58181
1297.92388	0.58066
1295.99531	0.57948
1294.06675	0.57829
1292.13818	0.57715
1290.20962	0.57602
1288.28105	0.57486
1286.35249	0.57367
1284.42393	0.57244
1282.49536	0.57121
1280.56680	0.57004
1278.63823	0.56885
1276.70967	0.56762
1274.78110	0.56646
1272.85254	0.56549
1270.92397	0.56477
1268.99541	0.56425
1267.06685	0.56375
1265.13828	0.56298
1263.20972	0.56210
1261.28115	0.56128
1259.35259	0.56048
1257.42402	0.55974
1255.49546	0.55928
1253.56689	0.55916
1251.63833	0.55922
1249.70977	0.55928
1247.78120	0.55921
1245.85264	0.55898
1243.92407	0.55840
1241.99551	0.55741
1240.06694	0.55613
1238.13838	0.55467
1236.20981	0.55294
1234.28125	0.55091
1232.35269	0.54872
1230.42412	0.54666
1228.49556	0.54483
1226.56699	0.54303
1224.63843	0.54114
1222.70986	0.53923
1220.78130	0.53749
1218.85273	0.53606
1216.92417	0.53489
1214.99561	0.53390
1213.06704	0.53298
1211.13848	0.53224
1209.20991	0.53169
1207.28135	0.53114
1205.35278	0.53040
1203.42422	0.52956
1201.49565	0.52872
1199.56709	0.52795
1197.63853	0.52726
1195.70996	0.52655
1193.78140	0.52586
1191.85283	0.52529
1189.92427	0.52480
1187.99570	0.52437
1186.06714	0.52411
1184.13857	0.52414
1182.21001	0.52455
1180.28145	0.52546
1178.35288	0.52670
1176.42432	0.52800
1174.49575	0.52931
1172.56719	0.53048
1170.63862	0.53125
1168.71006	0.53169
1166.78149	0.53213
1164.85293	0.53268
1162.92437	0.53321
1160.99580	0.53357
1159.06724	0.53366
1157.13867	0.53336
1155.21011	0.53264
1153.28154	0.53149
1151.35298	0.52982
1149.42441	0.52754
1147.49585	0.52474
1145.56729	0.52178
1143.63872	0.51900
1141.71016	0.51648
1139.78159	0.51441
1137.85303	0.51312
1135.92446	0.51247
1133.99590	0.51201
1132.06733	0.51193
1130.13877	0.51236
1128.21021	0.51273
1126.28164	0.51263
1124.35308	0.51229
1122.42451	0.51195
1120.49595	0.51173
1118.56738	0.51181
1116.63882	0.51237
1114.71025	0.51314
1112.78169	0.51368
1110.85312	0.51422
1108.92456	0.51525
1106.99600	0.51663
1105.06743	0.51765
1103.13887	0.51803
1101.21030	0.51842
1099.28174	0.51946
1097.35317	0.52128
1095.42461	0.52396
1093.49604	0.52755
1091.56748	0.53217
1089.63892	0.53822
1087.71035	0.54578
1085.78179	0.55443
1083.85322	0.56345
1081.92466	0.57143
1079.99609	0.57703
1078.06753	0.57967
1076.13896	0.57906
1074.21040	0.57533
1072.28184	0.56924
1070.35327	0.56202
1068.42471	0.55485
1066.49614	0.54825
1064.56758	0.54211
1062.63901	0.53648
1060.71045	0.53151
1058.78188	0.52727
1056.85332	0.52370
1054.92476	0.52057
1052.99619	0.51774
1051.06763	0.51546
1049.13906	0.51391
1047.21050	0.51312
1045.28193	0.51312
1043.35337	0.51357
1041.42480	0.51403
1039.49624	0.51431
1037.56768	0.51444
1035.63911	0.51431
1033.71055	0.51369
1031.78198	0.51252
1029.85342	0.51094
1027.92485	0.50899
1025.99629	0.50682
1024.06772	0.50495
1022.13916	0.50386
1020.21060	0.50341
1018.28203	0.50319
1016.35347	0.50287
1014.42490	0.50225
1012.49634	0.50152
1010.56777	0.50109
1008.63921	0.50101
1006.71064	0.50116
1004.78208	0.50177
1002.85352	0.50312
1000.92495	0.50536
998.99639	0.50857
997.06782	0.51272
995.13926	0.51718
993.21069	0.52121
991.28213	0.52444
989.35356	0.52648
987.42500	0.52718
985.49644	0.52711
983.56787	0.52680
981.63931	0.52661
979.71074	0.52692
977.78218	0.52790
975.85361	0.52982
973.92505	0.53249
971.99648	0.53532
970.06792	0.53825
968.13936	0.54158
966.21079	0.54542
964.28223	0.54967
962.35366	0.55413
960.42510	0.55878
958.49653	0.56398
956.56797	0.56975
954.63940	0.57574
952.71084	0.58180
950.78228	0.58791
948.85371	0.59419
946.92515	0.60065
944.99658	0.60694
943.06802	0.61283
941.13945	0.61848
939.21089	0.62418
937.28232	0.63011
935.35376	0.63611
933.42520	0.64170
931.49663	0.64693
929.56807	0.65249
927.63950	0.65833
925.71094	0.66428
923.78237	0.67023
921.85381	0.67595
919.92524	0.68205
917.99668	0.68916
916.06812	0.69663
914.13955	0.70376
912.21099	0.71145
910.28242	0.71976
908.35386	0.72749
906.42529	0.73518
904.49673	0.74367
902.56816	0.75261
900.63960	0.76167
898.71104	0.77126
896.78247	0.78149
894.85391	0.79134
892.92534	0.80046
890.99678	0.80891
889.06821	0.81794
887.13965	0.82904
885.21108	0.84026
883.28252	0.85067
881.35396	0.86257
879.42539	0.87615
877.49683	0.88856
875.56826	0.89855
873.63970	0.90763
871.71113	0.91741
869.78257	0.92815
867.85400	0.93976
865.92544	0.95273
863.99687	0.96598
862.06831	0.97681
860.13975	0.98602
858.21118	0.99712
856.28262	1.01055
854.35405	1.02368
852.42549	1.03507
850.49692	1.04636
848.56836	1.05780
846.63979	1.06813
844.71123	1.07923
842.78267	1.09263
840.85410	1.10623
838.92554	1.11767
836.99697	1.12771
835.06841	1.13703
833.13984	1.14707
831.21128	1.16084
829.28271	1.17405
827.35415	1.18129
825.42559	1.18690
823.49702	1.19552
821.56846	1.20583
819.63989	1.21934
817.71133	1.23488
815.78276	1.24359
813.85420	1.24888
811.92563	1.26402
809.99707	1.28808
808.06851	1.31183
806.13994	1.33214
804.21138	1.33848
802.28281	1.33385
800.35425	1.34314
798.42568	1.36850
796.49712	1.39543
794.56855	1.42293
792.63999	1.43420
790.71143	1.40105
788.78286	1.34544
786.85430	1.31056
784.92573	1.33042
782.99717	1.41168
781.06860	1.49778
779.14004	1.51194
777.21147	1.49488
775.28291	1.53465
773.35435	1.62072
771.42578	1.61465
769.49722	1.52957
767.56865	1.52205
765.64009	1.47228
763.71152	1.32365
761.78296	1.25778
759.85439	1.33719
757.92583	1.45773
755.99727	1.34965
754.06870	1.21415
752.14014	1.19261
750.21157	1.22451
748.28301	1.26223
746.35444	1.27348
744.42588	1.16249
742.49731	1.04284
740.56875	1.04553
738.64019	1.07814
736.71162	0.87536
734.78306	0.67229
732.85449	0.58045
730.92593	0.56023
728.99736	0.59140
727.06880	0.62887
725.14023	0.53823
723.21167	0.32970
721.28311	0.15985
719.35454	0.06551
717.42598	0.00417
715.49741	-0.00092
713.56885	0.03576
711.64028	0.00120
709.71172	-0.09949
707.78315	-0.04231
705.85459	0.05366
703.92603	0.05696
701.99746	0.08588
700.06890	0.18629
698.14033	0.25485
696.21177	0.26307
694.28320	0.38266
692.35464	0.61117
690.42607	0.57114
688.49751	0.37836
686.56895	0.35212
684.64038	0.42880
682.71182	0.32691
680.78325	0.15979
678.85469	0.12068
676.92612	0.17349
674.99756	0.23719
673.06899	0.31135
671.14043	0.41594
669.21187	0.60228
667.28330	1.13335
665.35474	1.39691
663.42617	0.51858
661.49761	0.21253
659.56904	0.08600
657.64048	0.14050
655.71191	0.25508
653.78335	0.23623
651.85479	0.22335
649.92622	0.32451
647.99766	0.53646
646.06909	0.62804
644.14053	0.40525
642.21196	0.33993
640.28340	0.37860
638.35483	0.38999
636.42627	0.44160
634.49771	0.49897
632.56914	0.36747
630.64058	0.22852
628.71201	0.17786
626.78345	0.21205
624.85488	0.31352
622.92632	0.40589
620.99775	0.43969
619.06919	0.40403
617.14062	0.37103
615.21206	0.31953
613.28350	0.23059
611.35493	0.21960
609.42637	0.31127
607.49780	0.41863
605.56924	0.42522
603.64067	0.33732
601.71211	0.28526
599.78354	0.27738
597.85498	0.23868
595.92642	0.20986
593.99785	0.22872
592.06929	0.23239
590.14072	0.24075
588.21216	0.30622
586.28359	0.37659
584.35503	0.39482
582.42646	0.35358
580.49790	0.24400
578.56934	0.22029
576.64077	0.29870
574.71221	0.40010
572.78364	0.41804
570.85508	0.29687
568.92651	0.19000
566.99795	0.15629
565.06938	0.16637
563.14082	0.14749
561.21226	0.14943
559.28369	0.19576
557.35513	0.25108
555.42656	0.30900
553.49800	0.33632
551.56943	0.30592
549.64087	0.23673
547.71230	0.22945
545.78374	0.31837
543.85518	0.39034
541.92661	0.32204
539.99805	0.22377
538.06948	0.20666
536.14092	0.27619
534.21235	0.34378
532.28379	0.43674
530.35522	0.58730
528.42666	0.50600
526.49810	0.35493
524.56953	0.32078
522.64097	0.37499
520.71240	0.41039
518.78384	0.35069
516.85527	0.25707
514.92671	0.22638
512.99814	0.29543
511.06958	0.39455
509.14102	0.37229
507.21245	0.28824
505.28389	0.24673
503.35532	0.20820
501.42676	0.18230
499.49819	0.21976
