3997.91411	0.06244
3995.98555	0.06241
3994.05698	0.06240
3992.12842	0.06290
3990.19985	0.06379
3988.27129	0.06422
3986.34272	0.06397
3984.41416	0.06396
3982.48560	0.06456
3980.55703	0.06506
3978.62847	0.06526
3976.69990	0.06580
3974.77134	0.06650
3972.84277	0.06655
3970.91421	0.06633
3968.98564	0.06675
3967.05708	0.06734
3965.12852	0.06738
3963.19995	0.06723
3961.27139	0.06740
3959.34282	0.06781
3957.41426	0.06825
3955.48569	0.06851
3953.55713	0.06862
3951.62856	0.06912
3949.70000	0.07010
3947.77144	0.07072
3945.84287	0.07058
3943.91431	0.07063
3941.98574	0.07091
3940.05718	0.07020
3938.12861	0.06902
3936.20005	0.06849
3934.27148	0.06899
3932.34292	0.07070
3930.41436	0.07207
3928.48579	0.07124
3926.55723	0.06994
3924.62866	0.07019
3922.70010	0.07062
3920.77153	0.07026
3918.84297	0.07044
3916.91440	0.07108
3914.98584	0.07074
3913.05728	0.06929
3911.12871	0.06817
3909.20015	0.06811
3907.27158	0.06917
3905.34302	0.07188
3903.41445	0.07571
3901.48589	0.07764
3899.55732	0.07687
3897.62876	0.07453
3895.70020	0.07175
3893.77163	0.07080
3891.84307	0.07205
3889.91450	0.07262
3887.98594	0.07171
3886.05737	0.07239
3884.12881	0.07449
3882.20024	0.07524
3880.27168	0.07528
3878.34312	0.07439
3876.41455	0.07274
3874.48599	0.07314
3872.55742	0.07552
3870.62886	0.07793
3868.70029	0.07894
3866.77173	0.07777
3864.84316	0.07768
3862.91460	0.07923
3860.98604	0.07871
3859.05747	0.07691
3857.12891	0.07677
3855.20034	0.07889
3853.27178	0.08346
3851.34321	0.08590
3849.41465	0.08203
3847.48608	0.07799
3845.55752	0.07697
3843.62896	0.07919
3841.70039	0.08300
3839.77183	0.08675
3837.84326	0.08983
3835.91470	0.09004
3833.98613	0.08765
3832.05757	0.08565
3830.12900	0.08491
3828.20044	0.08497
3826.27187	0.08590
3824.34331	0.08738
3822.41475	0.08975
3820.48618	0.09381
3818.55762	0.09574
3816.62905	0.09513
3814.70049	0.09436
3812.77192	0.09211
3810.84336	0.09007
3808.91479	0.09069
3806.98623	0.09403
3805.05767	0.09725
3803.12910	0.09949
3801.20054	0.10312
3799.27197	0.10532
3797.34341	0.10437
3795.41484	0.10348
3793.48628	0.10262
3791.55771	0.10188
3789.62915	0.10207
3787.70059	0.10340
3785.77202	0.10611
3783.84346	0.10902
3781.91489	0.11064
3779.98633	0.11242
3778.05776	0.11473
3776.12920	0.11521
3774.20063	0.11495
3772.27207	0.11630
3770.34351	0.11975
3768.41494	0.12382
3766.48638	0.12636
3764.55781	0.12782
3762.62925	0.12885
3760.70068	0.13097
3758.77212	0.13531
3756.84355	0.13907
3754.91499	0.14122
3752.98643	0.14511
3751.05786	0.15238
3749.12930	0.15889
3747.20073	0.16034
3745.27217	0.16157
3743.34360	0.16511
3741.41504	0.16744
3739.48647	0.16853
3737.55791	0.17179
3735.62935	0.17930
3733.70078	0.18771
3731.77222	0.19008
3729.84365	0.18960
3727.91509	0.19152
3725.98652	0.19706
3724.05796	0.20473
3722.12939	0.21226
3720.20083	0.21900
3718.27227	0.22527
3716.34370	0.23210
3714.41514	0.24019
3712.48657	0.25135
3710.55801	0.26703
3708.62944	0.28095
3706.70088	0.28992
3704.77231	0.29934
3702.84375	0.31265
3700.91519	0.33047
3698.98662	0.34859
3697.05806	0.36510
3695.12949	0.38373
3693.20093	0.40491
3691.27236	0.42889
3689.34380	0.45968
3687.41523	0.49456
3685.48667	0.52282
3683.55811	0.54752
3681.62954	0.57564
3679.70098	0.60889
3677.77241	0.64499
3675.84385	0.68752
3673.91528	0.74195
3671.98672	0.78456
3670.05815	0.82325
3668.12959	0.87667
3666.20103	0.92333
3664.27246	0.96169
3662.34390	1.00450
3660.41533	1.05215
3658.48677	1.09971
3656.55820	1.15077
3654.62964	1.20784
3652.70107	1.25577
3650.77251	1.29876
3648.84395	1.35907
3646.91538	1.42851
3644.98682	1.47524
3643.05825	1.51157
3641.12969	1.55110
3639.20112	1.59563
3637.27256	1.64042
3635.34399	1.68400
3633.41543	1.72792
3631.48687	1.76957
3629.55830	1.81274
3627.62974	1.86897
3625.70117	1.91838
3623.77261	1.95007
3621.84404	1.98223
3619.91548	2.02150
3617.98691	2.06933
3616.05835	2.11474
3614.12979	2.15279
3612.20122	2.19233
3610.27266	2.23147
3608.34409	2.27172
3606.41553	2.31468
3604.48696	2.35288
3602.55840	2.38643
3600.62983	2.42458
3598.70127	2.46791
3596.77271	2.50957
3594.84414	2.55046
3592.91558	2.59190
3590.98701	2.62960
3589.05845	2.66544
3587.12988	2.71094
3585.20132	2.76074
3583.27275	2.80116
3581.34419	2.83805
3579.41562	2.87762
3577.48706	2.91993
3575.55850	2.96349
3573.62993	3.00777
3571.70137	3.05048
3569.77280	3.09208
3567.84424	3.13787
3565.91567	3.19258
3563.98711	3.24059
3562.05854	3.27707
3560.12998	3.31594
3558.20142	3.36135
3556.27285	3.40942
3554.34429	3.45457
3552.41572	3.49836
3550.48716	3.54264
3548.55859	3.58768
3546.63003	3.63602
3544.70146	3.68766
3542.77290	3.73704
3540.84434	3.78310
3538.91577	3.82916
3536.98721	3.87494
3535.05864	3.92135
3533.13008	3.96778
3531.20151	4.01431
3529.27295	4.06030
3527.34438	4.10568
3525.41582	4.15322
3523.48726	4.20526
3521.55869	4.26017
3519.63013	4.30934
3517.70156	4.35276
3515.77300	4.39843
3513.84443	4.44816
3511.91587	4.49785
3509.98730	4.54588
3508.05874	4.59323
3506.13018	4.64195
3504.20161	4.69189
3502.27305	4.73901
3500.34448	4.78361
3498.41592	4.83204
3496.48735	4.88653
3494.55879	4.94121
3492.63022	4.99429
3490.70166	5.04418
3488.77310	5.08675
3486.84453	5.12987
3484.91597	5.17846
3482.98740	5.22833
3481.05884	5.27917
3479.13027	5.32765
3477.20171	5.37554
3475.27314	5.42632
3473.34458	5.47296
3471.41602	5.51269
3469.48745	5.55033
3467.55889	5.59121
3465.63032	5.64069
3463.70176	5.69984
3461.77319	5.75841
3459.84463	5.80817
3457.91606	5.85335
3455.98750	5.90387
3454.05894	5.95810
3452.13037	6.00405
3450.20181	6.04516
3448.27324	6.09659
3446.34468	6.15537
3444.41611	6.20356
3442.48755	6.25003
3440.55898	6.29987
3438.63042	6.34435
3436.70186	6.38582
3434.77329	6.43199
3432.84473	6.49061
3430.91616	6.55199
3428.98760	6.60275
3427.05903	6.64567
3425.13047	6.69228
3423.20190	6.74367
3421.27334	6.79532
3419.34478	6.83037
3417.41621	6.85925
3415.48765	6.90873
3413.55908	6.96160
3411.63052	7.00996
3409.70195	7.06662
3407.77339	7.13286
3405.84482	7.18463
3403.91626	7.22013
3401.98770	7.25732
3400.05913	7.31171
3398.13057	7.38107
3396.20200	7.43052
3394.27344	7.45229
3392.34487	7.46616
3390.41631	7.50188
3388.48774	7.55151
3386.55918	7.60396
3384.63062	7.65556
3382.70205	7.68730
3380.77349	7.69504
3378.84492	7.71051
3376.91636	7.77020
3374.98779	7.85201
3373.05923	7.91191
3371.13066	7.90055
3369.20210	7.87175
3367.27354	7.88439
3365.34497	7.91326
3363.41641	7.94810
3361.48784	7.96156
3359.55928	7.94478
3357.63071	7.95114
3355.70215	8.01591
3353.77358	8.07019
3351.84502	8.08008
3349.91646	8.09136
3347.98789	8.08777
3346.05933	8.02794
3344.13076	7.97103
3342.20220	8.00212
3340.27363	8.09645
3338.34507	8.15084
3336.41650	8.14251
3334.48794	8.17821
3332.55937	8.24444
3330.63081	8.26055
3328.70225	8.22660
3326.77368	8.19458
3324.84512	8.23702
3322.91655	8.32639
3320.98799	8.38420
3319.05942	8.38380
3317.13086	8.35151
3315.20229	8.29984
3313.27373	8.24060
3311.34517	8.18705
3309.41660	8.14484
3307.48804	8.13837
3305.55947	8.20744
3303.63091	8.30977
3301.70234	8.30767
3299.77378	8.23717
3297.84521	8.24381
3295.91665	8.35707
3293.98809	8.44490
3292.05952	8.40526
3290.13096	8.32029
3288.20239	8.29934
3286.27383	8.32441
3284.34526	8.28797
3282.41670	8.21523
3280.48813	8.17148
3278.55957	8.19159
3276.63101	8.25787
3274.70244	8.31565
3272.77388	8.32659
3270.84531	8.27683
3268.91675	8.24483
3266.98818	8.26312
3265.05962	8.29826
3263.13105	8.32911
3261.20249	8.34744
3259.27393	8.35724
3257.34536	8.37508
3255.41680	8.36928
3253.48823	8.32113
3251.55967	8.27489
3249.63110	8.27591
3247.70254	8.32964
3245.77397	8.30954
3243.84541	8.21302
3241.91685	8.18297
3239.98828	8.24097
3238.05972	8.32877
3236.13115	8.36521
3234.20259	8.35030
3232.27402	8.33321
3230.34546	8.30723
3228.41689	8.27122
3226.48833	8.25059
3224.55977	8.24286
3222.63120	8.23867
3220.70264	8.22602
3218.77407	8.18978
3216.84551	8.13582
3214.91694	8.03824
3212.98838	7.94923
3211.05981	7.97906
3209.13125	8.08608
3207.20269	8.12398
3205.27412	8.04998
3203.34556	7.94597
3201.41699	7.88610
3199.48843	7.85204
3197.55986	7.77939
3195.63130	7.70686
3193.70273	7.68547
3191.77417	7.65774
3189.84561	7.62574
3187.91704	7.62999
3185.98848	7.60909
3184.05991	7.51392
3182.13135	7.39573
3180.20278	7.31319
3178.27422	7.25291
3176.34565	7.18163
3174.41709	7.10949
3172.48853	7.04425
3170.55996	6.98499
3168.63140	6.95206
3166.70283	6.91606
3164.77427	6.83107
3162.84570	6.72720
3160.91714	6.64117
3158.98857	6.58175
3157.06001	6.53411
3155.13145	6.48528
3153.20288	6.43849
3151.27432	6.38058
3149.34575	6.30348
3147.41719	6.21372
3145.48862	6.12321
3143.56006	6.04698
3141.63149	5.97935
3139.70293	5.90895
3137.77437	5.84203
3135.84580	5.78040
3133.91724	5.71576
3131.98867	5.64366
3130.06011	5.56814
3128.13154	5.49365
3126.20298	5.41941
3124.27441	5.34965
3122.34585	5.28589
3120.41729	5.21448
3118.48872	5.13484
3116.56016	5.06376
3114.63159	4.99667
3112.70303	4.92361
3110.77446	4.84984
3108.84590	4.78145
3106.91733	4.71996
3104.98877	4.65717
3103.06021	4.58647
3101.13164	4.51328
3099.20308	4.44477
3097.27451	4.37916
3095.34595	4.31338
3093.41738	4.24951
3091.48882	4.18671
3089.56025	4.12392
3087.63169	4.06134
3085.70312	3.99872
3083.77456	3.93865
3081.84600	3.88148
3079.91743	3.82333
3077.98887	3.76411
3076.06030	3.70592
3074.13174	3.64878
3072.20317	3.59268
3070.27461	3.53596
3068.34604	3.47821
3066.41748	3.42179
3064.48892	3.36717
3062.56035	3.31338
3060.63179	3.26034
3058.70322	3.20742
3056.77466	3.15475
3054.84609	3.10362
3052.91753	3.05352
3050.98896	3.00362
3049.06040	2.95373
3047.13184	2.90393
3045.20327	2.85534
3043.27471	2.80834
3041.34614	2.76219
3039.41758	2.71655
3037.48901	2.67055
3035.56045	2.62395
3033.63188	2.57853
3031.70332	2.53462
3029.77476	2.49147
3027.84619	2.44950
3025.91763	2.40812
3023.98906	2.36638
3022.06050	2.32468
3020.13193	2.28333
3018.20337	2.24243
3016.27480	2.20246
3014.34624	2.16391
3012.41768	2.12672
3010.48911	2.09011
3008.56055	2.05380
3006.63198	2.01847
3004.70342	1.98383
3002.77485	1.94892
3000.84629	1.91459
2998.91772	1.88149
2996.98916	1.84925
2995.06060	1.81820
2993.13203	1.78809
2991.20347	1.75813
2989.27490	1.72822
2987.34634	1.69902
2985.41777	1.67124
2983.48921	1.64420
2981.56064	1.61697
2979.63208	1.59019
2977.70352	1.56450
2975.77495	1.53917
2973.84639	1.51398
2971.91782	1.48980
2969.98926	1.46645
2968.06069	1.44278
2966.13213	1.41865
2964.20356	1.39521
2962.27500	1.37251
2960.34644	1.34935
2958.41787	1.32572
2956.48931	1.30220
2954.56074	1.27877
2952.63218	1.25548
2950.70361	1.23248
2948.77505	1.21003
2946.84648	1.18854
2944.91792	1.16759
2942.98936	1.14643
2941.06079	1.12573
2939.13223	1.10581
2937.20366	1.08584
2935.27510	1.06534
2933.34653	1.04429
2931.41797	1.02330
2929.48940	1.00330
2927.56084	0.98421
2925.63228	0.96545
2923.70371	0.94729
2921.77515	0.92979
2919.84658	0.91285
2917.91802	0.89694
2915.98945	0.88179
2914.06089	0.86657
2912.13232	0.85145
2910.20376	0.83657
2908.27520	0.82166
2906.34663	0.80705
2904.41807	0.79273
2902.48950	0.77860
2900.56094	0.76521
2898.63237	0.75249
2896.70381	0.73973
2894.77524	0.72697
2892.84668	0.71481
2890.91812	0.70335
2888.98955	0.69241
2887.06099	0.68190
2885.13242	0.67165
2883.20386	0.66173
2881.27529	0.65219
2879.34673	0.64281
2877.41816	0.63348
2875.48960	0.62406
2873.56104	0.61421
2871.63247	0.60389
2869.70391	0.59312
2867.77534	0.58185
2865.84678	0.57014
2863.91821	0.55811
2861.98965	0.54621
2860.06108	0.53482
2858.13252	0.52390
2856.20396	0.51355
2854.27539	0.50409
2852.34683	0.49550
2850.41826	0.48754
2848.48970	0.47990
2846.56113	0.47268
2844.63257	0.46617
2842.70400	0.46015
2840.77544	0.45443
2838.84687	0.44885
2836.91831	0.44308
2834.98975	0.43717
2833.06118	0.43146
2831.13262	0.42577
2829.20405	0.41994
2827.27549	0.41428
2825.34692	0.40880
2823.41836	0.40306
2821.48979	0.39697
2819.56123	0.39106
2817.63267	0.38560
2815.70410	0.38023
2813.77554	0.37481
2811.84697	0.36951
2809.91841	0.36424
2807.98984	0.35893
2806.06128	0.35377
2804.13271	0.34878
2802.20415	0.34373
2800.27559	0.33871
2798.34702	0.33397
2796.41846	0.32930
2794.48989	0.32455
2792.56133	0.31989
2790.63276	0.31543
2788.70420	0.31118
2786.77563	0.30709
2784.84707	0.30296
2782.91851	0.29877
2780.98994	0.29460
2779.06138	0.29048
2777.13281	0.28657
2775.20425	0.28290
2773.27568	0.27926
2771.34712	0.27565
2769.41855	0.27216
2767.48999	0.26874
2765.56143	0.26528
2763.63286	0.26177
2761.70430	0.25839
2759.77573	0.25521
2757.84717	0.25216
2755.91860	0.24918
2753.99004	0.24619
2752.06147	0.24321
2750.13291	0.24030
2748.20435	0.23745
2746.27578	0.23465
2744.34722	0.23185
2742.41865	0.22907
2740.49009	0.22634
2738.56152	0.22372
2736.63296	0.22125
2734.70439	0.21884
2732.77583	0.21634
2730.84727	0.21380
2728.91870	0.21141
2726.99014	0.20918
2725.06157	0.20705
2723.13301	0.20497
2721.20444	0.20304
2719.27588	0.20128
2717.34731	0.19946
2715.41875	0.19749
2713.49019	0.19555
2711.56162	0.19370
2709.63306	0.19192
2707.70449	0.19022
2705.77593	0.18861
2703.84736	0.18715
2701.91880	0.18580
2699.99023	0.18440
2698.06167	0.18284
2696.13311	0.18127
2694.20454	0.17986
2692.27598	0.17858
2690.34741	0.17730
2688.41885	0.17607
2686.49028	0.17488
2684.56172	0.17367
2682.63315	0.17253
2680.70459	0.17140
2678.77603	0.17020
2676.84746	0.16908
2674.91890	0.16813
2672.99033	0.16720
2671.06177	0.16625
2669.13320	0.16527
2667.20464	0.16431
2665.27607	0.16344
2663.34751	0.16255
2661.41895	0.16170
2659.49038	0.16099
2657.56182	0.16030
2655.63325	0.15955
2653.70469	0.15879
2651.77612	0.15806
2649.84756	0.15735
2647.91899	0.15664
2645.99043	0.15594
2644.06187	0.15537
2642.13330	0.15494
2640.20474	0.15452
2638.27617	0.15413
2636.34761	0.15375
2634.41904	0.15332
2632.49048	0.15292
2630.56191	0.15264
2628.63335	0.15240
2626.70479	0.15201
2624.77622	0.15145
2622.84766	0.15093
2620.91909	0.15060
2618.99053	0.15046
2617.06196	0.15051
2615.13340	0.15055
2613.20483	0.15031
2611.27627	0.14997
2609.34771	0.14981
2607.41914	0.14975
2605.49058	0.14968
2603.56201	0.14954
2601.63345	0.14933
2599.70488	0.14915
2597.77632	0.14909
2595.84775	0.14913
2593.91919	0.14924
2591.99062	0.14945
2590.06206	0.14975
2588.13350	0.14993
2586.20493	0.14995
2584.27637	0.14997
2582.34780	0.15011
2580.41924	0.15040
2578.49067	0.15070
2576.56211	0.15097
2574.63354	0.15127
2572.70498	0.15159
2570.77642	0.15184
2568.84785	0.15209
2566.91929	0.15249
2564.99072	0.15299
2563.06216	0.15341
2561.13359	0.15373
2559.20503	0.15406
2557.27646	0.15454
2555.34790	0.15514
2553.41934	0.15567
2551.49077	0.15609
2549.56221	0.15651
2547.63364	0.15690
2545.70508	0.15727
2543.77651	0.15773
2541.84795	0.15830
2539.91938	0.15893
2537.99082	0.15974
2536.06226	0.16067
2534.13369	0.16136
2532.20513	0.16183
2530.27656	0.16236
2528.34800	0.16297
2526.41943	0.16359
2524.49087	0.16421
2522.56230	0.16492
2520.63374	0.16575
2518.70518	0.16654
2516.77661	0.16729
2514.84805	0.16800
2512.91948	0.16862
2510.99092	0.16936
2509.06235	0.17033
2507.13379	0.17126
2505.20522	0.17206
2503.27666	0.17282
2501.34810	0.17358
2499.41953	0.17437
2497.49097	0.17505
2495.56240	0.17573
2493.63384	0.17661
2491.70527	0.17755
2489.77671	0.17837
2487.84814	0.17905
2485.91958	0.17975
2483.99102	0.18072
2482.06245	0.18178
2480.13389	0.18271
2478.20532	0.18349
2476.27676	0.18423
2474.34819	0.18501
2472.41963	0.18588
2470.49106	0.18682
2468.56250	0.18782
2466.63394	0.18884
2464.70537	0.18973
2462.77681	0.19043
2460.84824	0.19115
2458.91968	0.19202
2456.99111	0.19299
2455.06255	0.19398
2453.13398	0.19503
2451.20542	0.19601
2449.27686	0.19686
2447.34829	0.19770
2445.41973	0.19861
2443.49116	0.19961
2441.56260	0.20075
2439.63403	0.20192
2437.70547	0.20295
2435.77690	0.20386
2433.84834	0.20488
2431.91978	0.20601
2429.99121	0.20709
2428.06265	0.20811
2426.13408	0.20918
2424.20552	0.21025
2422.27695	0.21119
2420.34839	0.21204
2418.41982	0.21308
2416.49126	0.21434
2414.56270	0.21556
2412.63413	0.21672
2410.70557	0.21792
2408.77700	0.21916
2406.84844	0.22026
2404.91987	0.22129
2402.99131	0.22240
2401.06274	0.22357
2399.13418	0.22479
2397.20562	0.22607
2395.27705	0.22736
2393.34849	0.22857
2391.41992	0.22972
2389.49136	0.23088
2387.56279	0.23223
2385.63423	0.23363
2383.70566	0.23480
2381.77710	0.23580
2379.84854	0.23677
2377.91997	0.23767
2375.99141	0.23859
2374.06284	0.23964
2372.13428	0.24057
2370.20571	0.24111
2368.27715	0.24166
2366.34858	0.24301
2364.42002	0.24461
2362.49146	0.24547
2360.56289	0.24604
2358.63433	0.24721
2356.70576	0.24965
2354.77720	0.25289
2352.84863	0.25578
2350.92007	0.25776
2348.99150	0.25890
2347.06294	0.25965
2345.13437	0.26070
2343.20581	0.26224
2341.27725	0.26366
2339.34868	0.26477
2337.42012	0.26604
2335.49155	0.26794
2333.56299	0.27007
2331.63442	0.27186
2329.70586	0.27367
2327.77729	0.27579
2325.84873	0.27765
2323.92017	0.27922
2321.99160	0.28108
2320.06304	0.28345
2318.13447	0.28596
2316.20591	0.28810
2314.27734	0.28982
2312.34878	0.29137
2310.42021	0.29310
2308.49165	0.29500
2306.56309	0.29683
2304.63452	0.29857
2302.70596	0.30026
2300.77739	0.30195
2298.84883	0.30373
2296.92026	0.30564
2294.99170	0.30758
2293.06313	0.30950
2291.13457	0.31148
2289.20601	0.31350
2287.27744	0.31539
2285.34888	0.31725
2283.42031	0.31920
2281.49175	0.32105
2279.56318	0.32285
2277.63462	0.32482
2275.70605	0.32690
2273.77749	0.32892
2271.84893	0.33098
2269.92036	0.33315
2267.99180	0.33530
2266.06323	0.33739
2264.13467	0.33942
2262.20610	0.34140
2260.27754	0.34342
2258.34897	0.34559
2256.42041	0.34784
2254.49185	0.35005
2252.56328	0.35222
2250.63472	0.35435
2248.70615	0.35641
2246.77759	0.35848
2244.84902	0.36061
2242.92046	0.36283
2240.99189	0.36509
2239.06333	0.36735
2237.13477	0.36966
2235.20620	0.37194
2233.27764	0.37409
2231.34907	0.37615
2229.42051	0.37830
2227.49194	0.38051
2225.56338	0.38269
2223.63481	0.38493
2221.70625	0.38719
2219.77769	0.38932
2217.84912	0.39132
2215.92056	0.39333
2213.99199	0.39543
2212.06343	0.39761
2210.13486	0.39981
2208.20630	0.40197
2206.27773	0.40409
2204.34917	0.40613
2202.42061	0.40808
2200.49204	0.40997
2198.56348	0.41184
2196.63491	0.41382
2194.70635	0.41593
2192.77778	0.41790
2190.84922	0.41968
2188.92065	0.42139
2186.99209	0.42313
2185.06353	0.42496
2183.13496	0.42677
2181.20640	0.42848
2179.27783	0.43005
2177.34927	0.43153
2175.42070	0.43303
2173.49214	0.43452
2171.56357	0.43600
2169.63501	0.43750
2167.70645	0.43900
2165.77788	0.44040
2163.84932	0.44164
2161.92075	0.44281
2159.99219	0.44398
2158.06362	0.44498
2156.13506	0.44579
2154.20649	0.44652
2152.27793	0.44732
2150.34937	0.44824
2148.42080	0.44903
2146.49224	0.44963
2144.56367	0.45023
2142.63511	0.45088
2140.70654	0.45143
2138.77798	0.45174
2136.84941	0.45181
2134.92085	0.45176
2132.99229	0.45174
2131.06372	0.45170
2129.13516	0.45150
2127.20659	0.45116
2125.27803	0.45081
2123.34946	0.45049
2121.42090	0.45014
2119.49233	0.44970
2117.56377	0.44927
2115.63521	0.44882
2113.70664	0.44814
2111.77808	0.44723
2109.84951	0.44632
2107.92095	0.44548
2105.99238	0.44456
2104.06382	0.44352
2102.13525	0.44232
2100.20669	0.44093
2098.27812	0.43954
2096.34956	0.43822
2094.42100	0.43679
2092.49243	0.43526
2090.56387	0.43372
2088.63530	0.43209
2086.70674	0.43033
2084.77817	0.42851
2082.84961	0.42665
2080.92104	0.42474
2078.99248	0.42281
2077.06392	0.42087
2075.13535	0.41890
2073.20679	0.41684
2071.27822	0.41469
2069.34966	0.41260
2067.42109	0.41053
2065.49253	0.40831
2063.56396	0.40592
2061.63540	0.40358
2059.70684	0.40133
2057.77827	0.39896
2055.84971	0.39638
2053.92114	0.39370
2051.99258	0.39110
2050.06401	0.38858
2048.13545	0.38606
2046.20688	0.38352
2044.27832	0.38104
2042.34976	0.37857
2040.42119	0.37599
2038.49263	0.37328
2036.56406	0.37052
2034.63550	0.36777
2032.70693	0.36504
2030.77837	0.36238
2028.84980	0.35975
2026.92124	0.35706
2024.99268	0.35429
2023.06411	0.35162
2021.13555	0.34905
2019.20698	0.34649
2017.27842	0.34392
2015.34985	0.34116
2013.42129	0.33822
2011.49272	0.33535
2009.56416	0.33267
2007.63560	0.33006
2005.70703	0.32744
2003.77847	0.32484
2001.84990	0.32228
1999.92134	0.31970
1997.99277	0.31706
1996.06421	0.31456
1994.13564	0.31246
1992.20708	0.31052
1990.27852	0.30809
1988.34995	0.30522
1986.42139	0.30236
1984.49282	0.29972
1982.56426	0.29731
1980.63569	0.29504
1978.70713	0.29287
1976.77856	0.29067
1974.85000	0.28843
1972.92144	0.28625
1970.99287	0.28414
1969.06431	0.28229
1967.13574	0.28062
1965.20718	0.27859
1963.27861	0.27631
1961.35005	0.27425
1959.42148	0.27237
1957.49292	0.27056
1955.56436	0.26880
1953.63579	0.26703
1951.70723	0.26525
1949.77866	0.26361
1947.85010	0.26216
1945.92153	0.26090
1943.99297	0.25987
1942.06440	0.25866
1940.13584	0.25674
1938.20728	0.25473
1936.27871	0.25319
1934.35015	0.25190
1932.42158	0.25066
1930.49302	0.24949
1928.56445	0.24839
1926.63589	0.24733
1924.70732	0.24660
1922.77876	0.24606
1920.85020	0.24511
1918.92163	0.24404
1916.99307	0.24307
1915.06450	0.24189
1913.13594	0.24082
1911.20737	0.24028
1909.27881	0.23987
1907.35024	0.23908
1905.42168	0.23802
1903.49312	0.23718
1901.56455	0.23658
1899.63599	0.23604
1897.70742	0.23566
1895.77886	0.23553
1893.85029	0.23531
1891.92173	0.23493
1889.99316	0.23489
1888.06460	0.23471
1886.13604	0.23410
1884.20747	0.23361
1882.27891	0.23336
1880.35034	0.23324
1878.42178	0.23309
1876.49321	0.23294
1874.56465	0.23294
1872.63608	0.23323
1870.70752	0.23411
1868.77896	0.23562
1866.85039	0.23606
1864.92183	0.23501
1862.99326	0.23420
1861.06470	0.23419
1859.13613	0.23453
1857.20757	0.23477
1855.27900	0.23503
1853.35044	0.23547
1851.42187	0.23609
1849.49331	0.23695
1847.56475	0.23819
1845.63618	0.23975
1843.70762	0.24113
1841.77905	0.24140
1839.85049	0.24115
1837.92192	0.24170
1835.99336	0.24267
1834.06479	0.24352
1832.13623	0.24480
1830.20767	0.24699
1828.27910	0.24878
1826.35054	0.24959
1824.42197	0.25053
1822.49341	0.25122
1820.56484	0.25183
1818.63628	0.25296
1816.70771	0.25455
1814.77915	0.25624
1812.85059	0.25830
1810.92202	0.26076
1808.99346	0.26281
1807.06489	0.26443
1805.13633	0.26622
1803.20776	0.26871
1801.27920	0.27170
1799.35063	0.27463
1797.42207	0.27696
1795.49351	0.27944
1793.56494	0.28279
1791.63638	0.28681
1789.70781	0.28958
1787.77925	0.29125
1785.85068	0.29399
1783.92212	0.29771
1781.99355	0.30184
1780.06499	0.30628
1778.13643	0.31052
1776.20786	0.31444
1774.27930	0.31925
1772.35073	0.32587
1770.42217	0.33202
1768.49360	0.33644
1766.56504	0.34077
1764.63647	0.34559
1762.70791	0.35153
1760.77935	0.35921
1758.85078	0.36614
1756.92222	0.37298
1754.99365	0.38024
1753.06509	0.38705
1751.13652	0.39609
1749.20796	0.40755
1747.27939	0.41780
1745.35083	0.42613
1743.42227	0.43509
1741.49370	0.44529
1739.56514	0.45751
1737.63657	0.46977
1735.70801	0.48109
1733.77944	0.49852
1731.85088	0.51781
1729.92231	0.53187
1727.99375	0.54634
1726.06519	0.56251
1724.13662	0.58077
1722.20806	0.60077
1720.27949	0.61964
1718.35093	0.64261
1716.42236	0.67568
1714.49380	0.70498
1712.56523	0.72786
1710.63667	0.75077
1708.70811	0.77647
1706.77954	0.80634
1704.85098	0.84191
1702.92241	0.87340
1700.99385	0.90511
1699.06528	0.95285
1697.13672	0.99624
1695.20815	1.03966
1693.27959	1.08200
1691.35103	1.11732
1689.42246	1.15939
1687.49390	1.20428
1685.56533	1.24837
1683.63677	1.31663
1681.70820	1.38576
1679.77964	1.42868
1677.85107	1.46993
1675.92251	1.51851
1673.99395	1.57975
1672.06538	1.63542
1670.13682	1.69067
1668.20825	1.76136
1666.27969	1.81897
1664.35112	1.86992
1662.42256	1.93573
1660.49399	2.00955
1658.56543	2.06708
1656.63687	2.11497
1654.70830	2.16019
1652.77974	2.22709
1650.85117	2.28516
1648.92261	2.30378
1646.99404	2.32899
1645.06548	2.35471
1643.13691	2.37000
1641.20835	2.37863
1639.27979	2.38661
1637.35122	2.38950
1635.42266	2.38555
1633.49409	2.37514
1631.56553	2.35864
1629.63696	2.33975
1627.70840	2.31093
1625.77983	2.27758
1623.85127	2.23339
1621.92271	2.17670
1619.99414	2.12609
1618.06558	2.07900
1616.13701	2.01307
1614.20845	1.94469
1612.27988	1.89147
1610.35132	1.83616
1608.42275	1.77731
1606.49419	1.71982
1604.56562	1.66660
1602.63706	1.61547
1600.70850	1.56658
1598.77993	1.52223
1596.85137	1.48048
1594.92280	1.43952
1592.99424	1.40001
1591.06567	1.36427
1589.13711	1.33096
1587.20854	1.30018
1585.27998	1.27230
1583.35142	1.24651
1581.42285	1.22313
1579.49429	1.20411
1577.56572	1.18861
1575.63716	1.17034
1573.70859	1.15343
1571.78003	1.14271
1569.85146	1.13345
1567.92290	1.12400
1565.99434	1.11718
1564.06577	1.11299
1562.13721	1.11091
1560.20864	1.11300
1558.28008	1.12242
1556.35151	1.12877
1554.42295	1.13116
1552.49438	1.13457
1550.56582	1.13667
1548.63726	1.13573
1546.70869	1.13187
1544.78013	1.12513
1542.85156	1.11455
1540.92300	1.09599
1538.99443	1.06358
1537.06587	1.03774
1535.13730	1.02031
1533.20874	0.99819
1531.28018	0.97410
1529.35161	0.95654
1527.42305	0.94090
1525.49448	0.92493
1523.56592	0.91143
1521.63735	0.89897
1519.70879	0.88568
1517.78022	0.87411
1515.85166	0.86079
1513.92310	0.84621
1511.99453	0.83374
1510.06597	0.82366
1508.13740	0.81493
1506.20884	0.79891
1504.28027	0.78193
1502.35171	0.77222
1500.42314	0.76495
1498.49458	0.75816
1496.56602	0.75002
1494.63745	0.74094
1492.70889	0.73403
1490.78032	0.72913
1488.85176	0.72369
1486.92319	0.71719
1484.99463	0.71148
1483.06606	0.70734
1481.13750	0.70437
1479.20894	0.70241
1477.28037	0.70201
1475.35181	0.70316
1473.42324	0.70474
1471.49468	0.70416
1469.56611	0.70110
1467.63755	0.69830
1465.70898	0.69665
1463.78042	0.69535
1461.85186	0.69443
1459.92329	0.69505
1457.99473	0.69745
1456.06616	0.69796
1454.13760	0.69418
1452.20903	0.69032
1450.28047	0.68721
1448.35190	0.68447
1446.42334	0.68143
1444.49478	0.67819
1442.56621	0.67513
1440.63765	0.67221
1438.70908	0.66957
1436.78052	0.66626
1434.85195	0.66170
1432.92339	0.65797
1430.99482	0.65586
1429.06626	0.65483
1427.13770	0.65453
1425.20913	0.65525
1423.28057	0.65674
1421.35200	0.65813
1419.42344	0.65945
1417.49487	0.65963
1415.56631	0.65800
1413.63774	0.65676
1411.70918	0.65685
1409.78062	0.65815
1407.85205	0.66019
1405.92349	0.66276
1403.99492	0.66504
1402.06636	0.66593
1400.13779	0.66591
1398.20923	0.66514
1396.28066	0.66311
1394.35210	0.65909
1392.42354	0.65348
1390.49497	0.64828
1388.56641	0.64366
1386.63784	0.63821
1384.70928	0.63193
1382.78071	0.62597
1380.85215	0.62064
1378.92358	0.61627
1376.99502	0.61317
1375.06646	0.61108
1373.13789	0.60926
1371.20933	0.60765
1369.28076	0.60661
1367.35220	0.60551
1365.42363	0.60403
1363.49507	0.60270
1361.56650	0.60129
1359.63794	0.59933
1357.70937	0.59752
1355.78081	0.59626
1353.85225	0.59535
1351.92368	0.59457
1349.99512	0.59391
1348.06655	0.59320
1346.13799	0.59234
1344.20942	0.59155
1342.28086	0.59126
1340.35229	0.59152
1338.42373	0.59154
1336.49517	0.59086
1334.56660	0.59013
1332.63804	0.58988
1330.70947	0.59014
1328.78091	0.59071
1326.85234	0.59156
1324.92378	0.59269
1322.99521	0.59394
1321.06665	0.59522
1319.13809	0.59633
1317.20952	0.59683
1315.28096	0.59677
1313.35239	0.59659
1311.42383	0.59632
1309.49526	0.59582
1307.56670	0.59523
1305.63813	0.59476
1303.70957	0.59438
1301.78101	0.59374
1299.85244	0.59279
1297.92388	0.59186
1295.99531	0.59092
1294.06675	0.58983
1292.13818	0.58862
1290.20962	0.58724
1288.28105	0.58570
1286.35249	0.58414
1284.42393	0.58270
1282.49536	0.58128
1280.56680	0.57978
1278.63823	0.57834
1276.70967	0.57703
1274.78110	0.57580
1272.85254	0.57485
1270.92397	0.57408
1268.99541	0.57308
1267.06685	0.57197
1265.13828	0.57105
1263.20972	0.57029
1261.28115	0.56952
1259.35259	0.56867
1257.42402	0.56785
1255.49546	0.56729
1253.56689	0.56707
1251.63833	0.56709
1249.70977	0.56732
1247.78120	0.56761
1245.85264	0.56765
1243.92407	0.56729
1241.99551	0.56642
1240.06694	0.56503
1238.13838	0.56314
1236.20981	0.56077
1234.28125	0.55813
1232.35269	0.55551
1230.42412	0.55309
1228.49556	0.55092
1226.56699	0.54907
1224.63843	0.54734
1222.70986	0.54539
1220.78130	0.54357
1218.85273	0.54216
1216.92417	0.54085
1214.99561	0.53961
1213.06704	0.53867
1211.13848	0.53801
1209.20991	0.53734
1207.28135	0.53655
1205.35278	0.53572
1203.42422	0.53492
1201.49565	0.53409
1199.56709	0.53322
1197.63853	0.53240
1195.70996	0.53168
1193.78140	0.53106
1191.85283	0.53063
1189.92427	0.53030
1187.99570	0.52992
1186.06714	0.52979
1184.13857	0.53014
1182.21001	0.53091
1180.28145	0.53199
1178.35288	0.53339
1176.42432	0.53491
1174.49575	0.53610
1172.56719	0.53673
1170.63862	0.53693
1168.71006	0.53680
1166.78149	0.53643
1164.85293	0.53596
1162.92437	0.53543
1160.99580	0.53492
1159.06724	0.53426
1157.13867	0.53315
1155.21011	0.53166
1153.28154	0.53004
1151.35298	0.52811
1149.42441	0.52575
1147.49585	0.52311
1145.56729	0.52024
1143.63872	0.51726
1141.71016	0.51452
1139.78159	0.51244
1137.85303	0.51109
1135.92446	0.51021
1133.99590	0.50957
1132.06733	0.50910
1130.13877	0.50878
1128.21021	0.50850
1126.28164	0.50810
1124.35308	0.50759
1122.42451	0.50698
1120.49595	0.50646
1118.56738	0.50627
1116.63882	0.50630
1114.71025	0.50637
1112.78169	0.50663
1110.85312	0.50707
1108.92456	0.50762
1106.99600	0.50850
1105.06743	0.50965
1103.13887	0.51087
1101.21030	0.51232
1099.28174	0.51429
1097.35317	0.51688
1095.42461	0.51994
1093.49604	0.52340
1091.56748	0.52736
1089.63892	0.53204
1087.71035	0.53757
1085.78179	0.54376
1083.85322	0.55011
1081.92466	0.55578
1079.99609	0.56027
1078.06753	0.56322
1076.13896	0.56387
1074.21040	0.56186
1072.28184	0.55753
1070.35327	0.55159
1068.42471	0.54498
1066.49614	0.53842
1064.56758	0.53208
1062.63901	0.52613
1060.71045	0.52079
1058.78188	0.51608
1056.85332	0.51201
1054.92476	0.50841
1052.99619	0.50502
1051.06763	0.50198
1049.13906	0.49967
1047.21050	0.49788
1045.28193	0.49616
1043.35337	0.49453
1041.42480	0.49306
1039.49624	0.49168
1037.56768	0.49054
1035.63911	0.48976
1033.71055	0.48938
1031.78198	0.48932
1029.85342	0.48927
1027.92485	0.48884
1025.99629	0.48809
1024.06772	0.48763
1022.13916	0.48773
1020.21060	0.48816
1018.28203	0.48885
1016.35347	0.48976
1014.42490	0.49061
1012.49634	0.49130
1010.56777	0.49218
1008.63921	0.49345
1006.71064	0.49486
1004.78208	0.49638
1002.85352	0.49849
1000.92495	0.50138
998.99639	0.50478
997.06782	0.50850
995.13926	0.51258
993.21069	0.51680
991.28213	0.52047
989.35356	0.52313
987.42500	0.52489
985.49644	0.52605
983.56787	0.52669
981.63931	0.52711
979.71074	0.52805
977.78218	0.52967
975.85361	0.53165
973.92505	0.53406
971.99648	0.53704
970.06792	0.54039
968.13936	0.54403
966.21079	0.54796
964.28223	0.55217
962.35366	0.55680
960.42510	0.56194
958.49653	0.56759
956.56797	0.57341
954.63940	0.57917
952.71084	0.58516
950.78228	0.59156
948.85371	0.59799
946.92515	0.60423
944.99658	0.61030
943.06802	0.61621
941.13945	0.62228
939.21089	0.62862
937.28232	0.63473
935.35376	0.64032
933.42520	0.64563
931.49663	0.65106
929.56807	0.65681
927.63950	0.66258
925.71094	0.66852
923.78237	0.67497
921.85381	0.68136
919.92524	0.68752
917.99668	0.69444
916.06812	0.70261
914.13955	0.71089
912.21099	0.71762
910.28242	0.72349
908.35386	0.73047
906.42529	0.73903
904.49673	0.74852
902.56816	0.75807
900.63960	0.76746
898.71104	0.77754
896.78247	0.78802
894.85391	0.79761
892.92534	0.80715
890.99678	0.81765
889.06821	0.82866
887.13965	0.83982
885.21108	0.85096
883.28252	0.86194
881.35396	0.87260
879.42539	0.88320
877.49683	0.89398
875.56826	0.90563
873.63970	0.91804
871.71113	0.92970
869.78257	0.94018
867.85400	0.95023
865.92544	0.96036
863.99687	0.97130
862.06831	0.98464
860.13975	0.99888
858.21118	1.01117
856.28262	1.02245
854.35405	1.03344
852.42549	1.04325
850.49692	1.05300
848.56836	1.06478
846.63979	1.07855
844.71123	1.09215
842.78267	1.10466
840.85410	1.11738
838.92554	1.13001
836.99697	1.14092
835.06841	1.14927
833.13984	1.15815
831.21128	1.17277
829.28271	1.18969
827.35415	1.20266
825.42559	1.21368
823.49702	1.22513
821.56846	1.23475
819.63989	1.24179
817.71133	1.24470
815.78276	1.24442
813.85420	1.24956
811.92563	1.27018
809.99707	1.30857
808.06851	1.34404
806.13994	1.35587
804.21138	1.35592
802.28281	1.35288
800.35425	1.34583
798.42568	1.35419
796.49712	1.38254
794.56855	1.41104
792.63999	1.44137
790.71143	1.47857
788.78286	1.54029
786.85430	1.61844
784.92573	1.60726
782.99717	1.54388
781.06860	1.53370
779.14004	1.57195
777.21147	1.62829
775.28291	1.70669
773.35435	1.69856
771.42578	1.52034
769.49722	1.39306
767.56865	1.42087
765.64009	1.57290
763.71152	1.62213
761.78296	1.45107
759.85439	1.33739
757.92583	1.29291
755.99727	1.31527
754.06870	1.48856
752.14014	1.68999
750.21157	1.49111
748.28301	1.28059
746.35444	1.14013
744.42588	1.07705
742.49731	1.13023
740.56875	1.32814
738.64019	1.64037
736.71162	1.20043
734.78306	0.87656
732.85449	0.83750
730.92593	1.18730
728.99736	4.37398
727.06880	4.36241
725.14023	0.92316
723.21167	0.60963
721.28311	0.48724
719.35454	0.35272
717.42598	0.33863
715.49741	0.46843
713.56885	0.48344
711.64028	0.35852
709.71172	0.32292
707.78315	0.40708
705.85459	0.52794
703.92603	0.35934
701.99746	0.14875
700.06890	0.14187
698.14033	0.27586
696.21177	0.29503
694.28320	0.22149
692.35464	0.23107
690.42607	0.32056
688.49751	0.42900
686.56895	0.54628
684.64038	0.65065
682.71182	0.50435
680.78325	0.45451
678.85469	0.59227
676.92612	0.53895
674.99756	0.33112
673.06899	0.26085
671.14043	0.26906
669.21187	0.26886
667.28330	0.26171
665.35474	0.30907
663.42617	0.40956
661.49761	0.39914
659.56904	0.27929
657.64048	0.25889
655.71191	0.34345
653.78335	0.35929
651.85479	0.30482
649.92622	0.29389
647.99766	0.30429
646.06909	0.33159
644.14053	0.41485
642.21196	0.50502
640.28340	0.39568
638.35483	0.22777
636.42627	0.16512
634.49771	0.18055
632.56914	0.20570
630.64058	0.21457
628.71201	0.29772
626.78345	0.42970
624.85488	0.42772
622.92632	0.35710
620.99775	0.30692
619.06919	0.25259
617.14062	0.26762
615.21206	0.35931
613.28350	0.39208
611.35493	0.32530
609.42637	0.30520
607.49780	0.34795
605.56924	0.36742
603.64067	0.28273
601.71211	0.19812
599.78354	0.23118
597.85498	0.34137
595.92642	0.27448
593.99785	0.14969
592.06929	0.12875
590.14072	0.18293
588.21216	0.16881
586.28359	0.11215
584.35503	0.14977
582.42646	0.25792
580.49790	0.34403
578.56934	0.37148
576.64077	0.29869
574.71221	0.20329
572.78364	0.17471
570.85508	0.21868
568.92651	0.27448
566.99795	0.29210
565.06938	0.26324
563.14082	0.20175
561.21226	0.17611
559.28369	0.19446
557.35513	0.18843
555.42656	0.19209
553.49800	0.31065
551.56943	0.39737
549.64087	0.38686
547.71230	0.37521
545.78374	0.30959
543.85518	0.24382
541.92661	0.23044
539.99805	0.20043
538.06948	0.17092
536.14092	0.20279
534.21235	0.22742
532.28379	0.17159
530.35522	0.13243
528.42666	0.19863
526.49810	0.25382
524.56953	0.18408
522.64097	0.13791
520.71240	0.17340
518.78384	0.25136
516.85527	0.28116
514.92671	0.27211
512.99814	0.23865
511.06958	0.21377
509.14102	0.22557
507.21245	0.23797
505.28389	0.23862
503.35532	0.25648
501.42676	0.26015
499.49819	0.21334
