3997.91411	0.06366
3995.98555	0.06418
3994.05698	0.06463
3992.12842	0.06501
3990.19985	0.06538
3988.27129	0.06543
3986.34272	0.06543
3984.41416	0.06597
3982.48560	0.06653
3980.55703	0.06655
3978.62847	0.06651
3976.69990	0.06691
3974.77134	0.06747
3972.84277	0.06774
3970.91421	0.06792
3968.98564	0.06818
3967.05708	0.06817
3965.12852	0.06798
3963.19995	0.06814
3961.27139	0.06851
3959.34282	0.06871
3957.41426	0.06904
3955.48569	0.06948
3953.55713	0.06952
3951.62856	0.06953
3949.70000	0.07009
3947.77144	0.07047
3945.84287	0.07012
3943.91431	0.06995
3941.98574	0.07013
3940.05718	0.06980
3938.12861	0.06916
3936.20005	0.06891
3934.27148	0.06922
3932.34292	0.06985
3930.41436	0.07029
3928.48579	0.07019
3926.55723	0.07000
3924.62866	0.07017
3922.70010	0.07009
3920.77153	0.06970
3918.84297	0.06969
3916.91440	0.06989
3914.98584	0.06939
3913.05728	0.06833
3911.12871	0.06777
3909.20015	0.06782
3907.27158	0.06825
3905.34302	0.06962
3903.41445	0.07170
3901.48589	0.07266
3899.55732	0.07190
3897.62876	0.07047
3895.70020	0.06939
3893.77163	0.06961
3891.84307	0.07110
3889.91450	0.07179
3887.98594	0.07088
3886.05737	0.07061
3884.12881	0.07111
3882.20024	0.07112
3880.27168	0.07127
3878.34312	0.07150
3876.41455	0.07158
3874.48599	0.07235
3872.55742	0.07359
3870.62886	0.07455
3868.70029	0.07481
3866.77173	0.07452
3864.84316	0.07507
3862.91460	0.07588
3860.98604	0.07514
3859.05747	0.07400
3857.12891	0.07423
3855.20034	0.07626
3853.27178	0.07973
3851.34321	0.08081
3849.41465	0.07820
3847.48608	0.07611
3845.55752	0.07572
3843.62896	0.07708
3841.70039	0.07948
3839.77183	0.08190
3837.84326	0.08371
3835.91470	0.08370
3833.98613	0.08252
3832.05757	0.08190
3830.12900	0.08215
3828.20044	0.08274
3826.27187	0.08362
3824.34331	0.08485
3822.41475	0.08657
3820.48618	0.08882
3818.55762	0.08975
3816.62905	0.08966
3814.70049	0.08959
3812.77192	0.08895
3810.84336	0.08871
3808.91479	0.08979
3806.98623	0.09203
3805.05767	0.09405
3803.12910	0.09581
3801.20054	0.09849
3799.27197	0.10012
3797.34341	0.09987
3795.41484	0.09960
3793.48628	0.09942
3791.55771	0.09967
3789.62915	0.10053
3787.70059	0.10172
3785.77202	0.10362
3783.84346	0.10588
3781.91489	0.10753
3779.98633	0.10911
3778.05776	0.11071
3776.12920	0.11162
3774.20063	0.11284
3772.27207	0.11518
3770.34351	0.11836
3768.41494	0.12135
3766.48638	0.12329
3764.55781	0.12467
3762.62925	0.12569
3760.70068	0.12746
3758.77212	0.13087
3756.84355	0.13425
3754.91499	0.13655
3752.98643	0.13949
3751.05786	0.14467
3749.12930	0.14992
3747.20073	0.15200
3745.27217	0.15403
3743.34360	0.15745
3741.41504	0.15974
3739.48647	0.16175
3737.55791	0.16570
3735.62935	0.17205
3733.70078	0.17857
3731.77222	0.18236
3729.84365	0.18513
3727.91509	0.18908
3725.98652	0.19525
3724.05796	0.20259
3722.12939	0.20911
3720.20083	0.21515
3718.27227	0.22146
3716.34370	0.22850
3714.41514	0.23650
3712.48657	0.24678
3710.55801	0.26104
3708.62944	0.27518
3706.70088	0.28576
3704.77231	0.29618
3702.84375	0.30920
3700.91519	0.32607
3698.98662	0.34435
3697.05806	0.36199
3695.12949	0.38110
3693.20093	0.40170
3691.27236	0.42458
3689.34380	0.45382
3687.41523	0.48797
3685.48667	0.51738
3683.55811	0.54330
3681.62954	0.57170
3679.70098	0.60415
3677.77241	0.63836
3675.84385	0.67818
3673.91528	0.73117
3671.98672	0.77516
3670.05815	0.81445
3668.12959	0.86739
3666.20103	0.91565
3664.27246	0.95630
3662.34390	1.00013
3660.41533	1.04790
3658.48677	1.09534
3656.55820	1.14538
3654.62964	1.20058
3652.70107	1.24747
3650.77251	1.28938
3648.84395	1.34727
3646.91538	1.41657
3644.98682	1.46618
3643.05825	1.50444
3641.12969	1.54443
3639.20112	1.58857
3637.27256	1.63282
3635.34399	1.67639
3633.41543	1.72028
3631.48687	1.76125
3629.55830	1.80329
3627.62974	1.85806
3625.70117	1.90813
3623.77261	1.94215
3621.84404	1.97548
3619.91548	2.01411
3617.98691	2.06060
3616.05835	2.10481
3614.12979	2.14133
3612.20122	2.17936
3610.27266	2.21767
3608.34409	2.25707
3606.41553	2.29952
3604.48696	2.33914
3602.55840	2.37568
3600.62983	2.41503
3598.70127	2.45587
3596.77271	2.49586
3594.84414	2.53778
3592.91558	2.57984
3590.98701	2.61817
3589.05845	2.65497
3587.12988	2.69913
3585.20132	2.74625
3583.27275	2.78647
3581.34419	2.82436
3579.41562	2.86433
3577.48706	2.90682
3575.55850	2.95074
3573.62993	2.99569
3571.70137	3.03807
3569.77280	3.07677
3567.84424	3.11875
3565.91567	3.17248
3563.98711	3.22305
3562.05854	3.26253
3560.12998	3.30349
3558.20142	3.34823
3556.27285	3.39317
3554.34429	3.43722
3552.41572	3.48259
3550.48716	3.52860
3548.55859	3.57447
3546.63003	3.62234
3544.70146	3.67390
3542.77290	3.72415
3540.84434	3.76904
3538.91577	3.81291
3536.98721	3.85998
3535.05864	3.91027
3533.13008	3.95770
3531.20151	4.00133
3529.27295	4.04566
3527.34438	4.09391
3525.41582	4.14235
3523.48726	4.18848
3521.55869	4.23587
3519.63013	4.28221
3517.70156	4.32790
3515.77300	4.37590
3513.84443	4.42479
3511.91587	4.47343
3509.98730	4.52471
3508.05874	4.57752
3506.13018	4.62573
3504.20161	4.66902
3502.27305	4.71517
3500.34448	4.77108
3498.41592	4.82815
3496.48735	4.87765
3494.55879	4.92350
3492.63022	4.96738
3490.70166	5.00668
3488.77310	5.04981
3486.84453	5.10590
3484.91597	5.16636
3482.98740	5.21395
3481.05884	5.24678
3479.13027	5.28289
3477.20171	5.33407
3475.27314	5.39509
3473.34458	5.45707
3471.41602	5.51141
3469.48745	5.55963
3467.55889	5.60284
3465.63032	5.63338
3463.70176	5.67020
3461.77319	5.73574
3459.84463	5.80920
3457.91606	5.85942
3455.98750	5.89699
3454.05894	5.94172
3452.13037	5.98539
3450.20181	6.02183
3448.27324	6.06223
3446.34468	6.10986
3444.41611	6.15551
3442.48755	6.20664
3440.55898	6.26255
3438.63042	6.31515
3436.70186	6.36899
3434.77329	6.42422
3432.84473	6.47529
3430.91616	6.51414
3428.98760	6.55798
3427.05903	6.62510
3425.13047	6.69418
3423.20190	6.74874
3421.27334	6.81293
3419.34478	6.87444
3417.41621	6.91402
3415.48765	6.95796
3413.55908	7.00026
3411.63052	7.04462
3409.70195	7.10946
3407.77339	7.16593
3405.84482	7.19549
3403.91626	7.22823
3401.98770	7.25460
3400.05913	7.28670
3398.13057	7.33815
3396.20200	7.35053
3394.27344	7.34697
3392.34487	7.37663
3390.41631	7.44014
3388.48774	7.53659
3386.55918	7.65068
3384.63062	7.72952
3382.70205	7.75104
3380.77349	7.75584
3378.84492	7.75004
3376.91636	7.71166
3374.98779	7.68079
3373.05923	7.71969
3371.13066	7.79369
3369.20210	7.85101
3367.27354	7.89781
3365.34497	7.97741
3363.41641	8.07094
3361.48784	8.10752
3359.55928	8.09674
3357.63071	8.06484
3355.70215	8.03363
3353.77358	8.03259
3351.84502	8.08050
3349.91646	8.08498
3347.98789	8.00425
3346.05933	7.97615
3344.13076	8.04352
3342.20220	8.06045
3340.27363	7.97471
3338.34507	7.92273
3336.41650	7.92813
3334.48794	7.95542
3332.55937	8.00941
3330.63081	8.09489
3328.70225	8.15621
3326.77368	8.17321
3324.84512	8.22793
3322.91655	8.29733
3320.98799	8.29105
3319.05942	8.23561
3317.13086	8.25289
3315.20229	8.31907
3313.27373	8.28872
3311.34517	8.18220
3309.41660	8.15225
3307.48804	8.23279
3305.55947	8.32868
3303.63091	8.38890
3301.70234	8.40532
3299.77378	8.35237
3297.84521	8.24648
3295.91665	8.15738
3293.98809	8.11800
3292.05952	8.16340
3290.13096	8.24508
3288.20239	8.28156
3286.27383	8.31938
3284.34526	8.32730
3282.41670	8.29953
3280.48813	8.30771
3278.55957	8.32807
3276.63101	8.29476
3274.70244	8.22666
3272.77388	8.18495
3270.84531	8.20455
3268.91675	8.30606
3266.98818	8.47007
3265.05962	8.56536
3263.13105	8.42381
3261.20249	8.24114
3259.27393	8.23761
3257.34536	8.33117
3255.41680	8.38778
3253.48823	8.38429
3251.55967	8.31960
3249.63110	8.26172
3247.70254	8.25226
3245.77397	8.27248
3243.84541	8.34796
3241.91685	8.43867
3239.98828	8.46837
3238.05972	8.38998
3236.13115	8.25924
3234.20259	8.19786
3232.27402	8.21626
3230.34546	8.27051
3228.41689	8.28907
3226.48833	8.25397
3224.55977	8.18916
3222.63120	8.10067
3220.70264	8.05726
3218.77407	8.07188
3216.84551	8.09671
3214.91694	8.10531
3212.98838	8.05696
3211.05981	7.97262
3209.13125	7.88665
3207.20269	7.81716
3205.27412	7.80733
3203.34556	7.83970
3201.41699	7.86759
3199.48843	7.86096
3197.55986	7.82145
3195.63130	7.76801
3193.70273	7.68981
3191.77417	7.60093
3189.84561	7.52873
3187.91704	7.48801
3185.98848	7.48342
3184.05991	7.45939
3182.13135	7.36020
3180.20278	7.24805
3178.27422	7.20689
3176.34565	7.21397
3174.41709	7.18218
3172.48853	7.10422
3170.55996	7.02806
3168.63140	6.95680
3166.70283	6.88642
3164.77427	6.83249
3162.84570	6.78198
3160.91714	6.71144
3158.98857	6.63927
3157.06001	6.57849
3155.13145	6.51160
3153.20288	6.43233
3151.27432	6.35331
3149.34575	6.27589
3147.41719	6.19894
3145.48862	6.14119
3143.56006	6.10181
3141.63149	6.04842
3139.70293	5.96543
3137.77437	5.87662
3135.84580	5.80564
3133.91724	5.74474
3131.98867	5.67393
3130.06011	5.59491
3128.13154	5.52199
3126.20298	5.45033
3124.27441	5.37200
3122.34585	5.29330
3120.41729	5.22304
3118.48872	5.15963
3116.56016	5.09077
3114.63159	5.01485
3112.70303	4.94449
3110.77446	4.88013
3108.84590	4.81108
3106.91733	4.73729
3104.98877	4.66620
3103.06021	4.59940
3101.13164	4.53165
3099.20308	4.46447
3097.27451	4.40398
3095.34595	4.34390
3093.41738	4.27890
3091.48882	4.21460
3089.56025	4.15206
3087.63169	4.08893
3085.70312	4.02630
3083.77456	3.96523
3081.84600	3.90546
3079.91743	3.84446
3077.98887	3.78177
3076.06030	3.72092
3074.13174	3.66288
3072.20317	3.60676
3070.27461	3.55293
3068.34604	3.49921
3066.41748	3.44152
3064.48892	3.38175
3062.56035	3.32591
3060.63179	3.27410
3058.70322	3.22169
3056.77466	3.16786
3054.84609	3.11455
3052.91753	3.06264
3050.98896	3.01251
3049.06040	2.96387
3047.13184	2.91561
3045.20327	2.86666
3043.27471	2.81740
3041.34614	2.76871
3039.41758	2.72102
3037.48901	2.67469
3035.56045	2.62957
3033.63188	2.58520
3031.70332	2.54064
3029.77476	2.49589
3027.84619	2.45247
3025.91763	2.41065
3023.98906	2.36923
3022.06050	2.32780
3020.13193	2.28693
3018.20337	2.24699
3016.27480	2.20774
3014.34624	2.16895
3012.41768	2.13121
3010.48911	2.09451
3008.56055	2.05807
3006.63198	2.02185
3004.70342	1.98625
3002.77485	1.95131
3000.84629	1.91702
2998.91772	1.88354
2996.98916	1.85079
2995.06060	1.81874
2993.13203	1.78763
2991.20347	1.75730
2989.27490	1.72727
2987.34634	1.69780
2985.41777	1.66918
2983.48921	1.64097
2981.56064	1.61301
2979.63208	1.58567
2977.70352	1.55915
2975.77495	1.53331
2973.84639	1.50773
2971.91782	1.48216
2969.98926	1.45715
2968.06069	1.43295
2966.13213	1.40907
2964.20356	1.38542
2962.27500	1.36172
2960.34644	1.33780
2958.41787	1.31412
2956.48931	1.29076
2954.56074	1.26780
2952.63218	1.24516
2950.70361	1.22221
2948.77505	1.19934
2946.84648	1.17746
2944.91792	1.15632
2942.98936	1.13539
2941.06079	1.11500
2939.13223	1.09547
2937.20366	1.07625
2935.27510	1.05663
2933.34653	1.03697
2931.41797	1.01800
2929.48940	0.99963
2927.56084	0.98132
2925.63228	0.96288
2923.70371	0.94484
2921.77515	0.92786
2919.84658	0.91173
2917.91802	0.89559
2915.98945	0.87878
2914.06089	0.86155
2912.13232	0.84508
2910.20376	0.83001
2908.27520	0.81567
2906.34663	0.80127
2904.41807	0.78700
2902.48950	0.77346
2900.56094	0.76043
2898.63237	0.74735
2896.70381	0.73454
2894.77524	0.72224
2892.84668	0.71005
2890.91812	0.69805
2888.98955	0.68676
2887.06099	0.67607
2885.13242	0.66557
2883.20386	0.65541
2881.27529	0.64571
2879.34673	0.63606
2877.41816	0.62643
2875.48960	0.61684
2873.56104	0.60685
2871.63247	0.59631
2869.70391	0.58564
2867.77534	0.57510
2865.84678	0.56451
2863.91821	0.55365
2861.98965	0.54265
2860.06108	0.53205
2858.13252	0.52234
2856.20396	0.51329
2854.27539	0.50444
2852.34683	0.49570
2850.41826	0.48736
2848.48970	0.47950
2846.56113	0.47178
2844.63257	0.46410
2842.70400	0.45681
2840.77544	0.45005
2838.84687	0.44392
2836.91831	0.43831
2834.98975	0.43255
2833.06118	0.42649
2831.13262	0.42063
2829.20405	0.41500
2827.27549	0.40922
2825.34692	0.40326
2823.41836	0.39750
2821.48979	0.39199
2819.56123	0.38632
2817.63267	0.38043
2815.70410	0.37471
2813.77554	0.36931
2811.84697	0.36407
2809.91841	0.35888
2807.98984	0.35374
2806.06128	0.34863
2804.13271	0.34359
2802.20415	0.33861
2800.27559	0.33378
2798.34702	0.32912
2796.41846	0.32457
2794.48989	0.32015
2792.56133	0.31584
2790.63276	0.31156
2788.70420	0.30715
2786.77563	0.30265
2784.84707	0.29837
2782.91851	0.29432
2780.98994	0.29034
2779.06138	0.28652
2777.13281	0.28287
2775.20425	0.27922
2773.27568	0.27551
2771.34712	0.27181
2769.41855	0.26821
2767.48999	0.26468
2765.56143	0.26133
2763.63286	0.25817
2761.70430	0.25494
2759.77573	0.25164
2757.84717	0.24849
2755.91860	0.24544
2753.99004	0.24242
2752.06147	0.23949
2750.13291	0.23665
2748.20435	0.23380
2746.27578	0.23093
2744.34722	0.22814
2742.41865	0.22559
2740.49009	0.22316
2738.56152	0.22072
2736.63296	0.21834
2734.70439	0.21602
2732.77583	0.21357
2730.84727	0.21097
2728.91870	0.20857
2726.99014	0.20641
2725.06157	0.20431
2723.13301	0.20227
2721.20444	0.20031
2719.27588	0.19836
2717.34731	0.19643
2715.41875	0.19464
2713.49019	0.19297
2711.56162	0.19130
2709.63306	0.18955
2707.70449	0.18774
2705.77593	0.18596
2703.84736	0.18432
2701.91880	0.18292
2699.99023	0.18172
2698.06167	0.18047
2696.13311	0.17896
2694.20454	0.17732
2692.27598	0.17587
2690.34741	0.17474
2688.41885	0.17373
2686.49028	0.17260
2684.56172	0.17134
2682.63315	0.16999
2680.70459	0.16869
2678.77603	0.16763
2676.84746	0.16665
2674.91890	0.16556
2672.99033	0.16452
2671.06177	0.16364
2669.13320	0.16276
2667.20464	0.16177
2665.27607	0.16069
2663.34751	0.15962
2661.41895	0.15868
2659.49038	0.15785
2657.56182	0.15711
2655.63325	0.15642
2653.70469	0.15570
2651.77612	0.15501
2649.84756	0.15449
2647.91899	0.15394
2645.99043	0.15329
2644.06187	0.15276
2642.13330	0.15243
2640.20474	0.15212
2638.27617	0.15167
2636.34761	0.15116
2634.41904	0.15070
2632.49048	0.15027
2630.56191	0.14982
2628.63335	0.14938
2626.70479	0.14905
2624.77622	0.14878
2622.84766	0.14848
2620.91909	0.14819
2618.99053	0.14792
2617.06196	0.14764
2615.13340	0.14737
2613.20483	0.14710
2611.27627	0.14690
2609.34771	0.14685
2607.41914	0.14680
2605.49058	0.14673
2603.56201	0.14669
2601.63345	0.14674
2599.70488	0.14679
2597.77632	0.14677
2595.84775	0.14679
2593.91919	0.14691
2591.99062	0.14706
2590.06206	0.14721
2588.13350	0.14736
2586.20493	0.14757
2584.27637	0.14786
2582.34780	0.14809
2580.41924	0.14817
2578.49067	0.14829
2576.56211	0.14861
2574.63354	0.14896
2572.70498	0.14917
2570.77642	0.14938
2568.84785	0.14964
2566.91929	0.14996
2564.99072	0.15042
2563.06216	0.15095
2561.13359	0.15145
2559.20503	0.15199
2557.27646	0.15252
2555.34790	0.15284
2553.41934	0.15305
2551.49077	0.15349
2549.56221	0.15422
2547.63364	0.15501
2545.70508	0.15570
2543.77651	0.15616
2541.84795	0.15645
2539.91938	0.15696
2537.99082	0.15778
2536.06226	0.15862
2534.13369	0.15929
2532.20513	0.15983
2530.27656	0.16038
2528.34800	0.16097
2526.41943	0.16170
2524.49087	0.16252
2522.56230	0.16338
2520.63374	0.16426
2518.70518	0.16500
2516.77661	0.16570
2514.84805	0.16646
2512.91948	0.16711
2510.99092	0.16776
2509.06235	0.16853
2507.13379	0.16934
2505.20522	0.17022
2503.27666	0.17110
2501.34810	0.17182
2499.41953	0.17247
2497.49097	0.17323
2495.56240	0.17405
2493.63384	0.17488
2491.70527	0.17576
2489.77671	0.17660
2487.84814	0.17733
2485.91958	0.17810
2483.99102	0.17905
2482.06245	0.18009
2480.13389	0.18111
2478.20532	0.18202
2476.27676	0.18281
2474.34819	0.18363
2472.41963	0.18456
2470.49106	0.18550
2468.56250	0.18627
2466.63394	0.18692
2464.70537	0.18774
2462.77681	0.18873
2460.84824	0.18982
2458.91968	0.19099
2456.99111	0.19211
2455.06255	0.19306
2453.13398	0.19395
2451.20542	0.19492
2449.27686	0.19591
2447.34829	0.19687
2445.41973	0.19773
2443.49116	0.19853
2441.56260	0.19944
2439.63403	0.20057
2437.70547	0.20168
2435.77690	0.20260
2433.84834	0.20337
2431.91978	0.20422
2429.99121	0.20532
2428.06265	0.20656
2426.13408	0.20774
2424.20552	0.20887
2422.27695	0.21001
2420.34839	0.21114
2418.41982	0.21221
2416.49126	0.21327
2414.56270	0.21438
2412.63413	0.21548
2410.70557	0.21658
2408.77700	0.21775
2406.84844	0.21893
2404.91987	0.22004
2402.99131	0.22113
2401.06274	0.22223
2399.13418	0.22336
2397.20562	0.22461
2395.27705	0.22597
2393.34849	0.22729
2391.41992	0.22850
2389.49136	0.22972
2387.56279	0.23113
2385.63423	0.23288
2383.70566	0.23511
2381.77710	0.23784
2379.84854	0.24090
2377.91997	0.24405
2375.99141	0.24728
2374.06284	0.25078
2372.13428	0.25451
2370.20571	0.25835
2368.27715	0.26238
2366.34858	0.26648
2364.42002	0.27022
2362.49146	0.27347
2360.56289	0.27608
2358.63433	0.27748
2356.70576	0.27790
2354.77720	0.27757
2352.84863	0.27610
2350.92007	0.27416
2348.99150	0.27329
2347.06294	0.27426
2345.13437	0.27709
2343.20581	0.28068
2341.27725	0.28343
2339.34868	0.28541
2337.42012	0.28689
2335.49155	0.28791
2333.56299	0.28868
2331.63442	0.28984
2329.70586	0.29166
2327.77729	0.29311
2325.84873	0.29351
2323.92017	0.29372
2321.99160	0.29445
2320.06304	0.29533
2318.13447	0.29599
2316.20591	0.29655
2314.27734	0.29738
2312.34878	0.29854
2310.42021	0.29978
2308.49165	0.30084
2306.56309	0.30168
2304.63452	0.30257
2302.70596	0.30369
2300.77739	0.30498
2298.84883	0.30627
2296.92026	0.30759
2294.99170	0.30907
2293.06313	0.31061
2291.13457	0.31206
2289.20601	0.31359
2287.27744	0.31524
2285.34888	0.31689
2283.42031	0.31864
2281.49175	0.32060
2279.56318	0.32264
2277.63462	0.32463
2275.70605	0.32661
2273.77749	0.32858
2271.84893	0.33063
2269.92036	0.33281
2267.99180	0.33493
2266.06323	0.33691
2264.13467	0.33886
2262.20610	0.34089
2260.27754	0.34297
2258.34897	0.34502
2256.42041	0.34707
2254.49185	0.34920
2252.56328	0.35132
2250.63472	0.35341
2248.70615	0.35546
2246.77759	0.35751
2244.84902	0.35966
2242.92046	0.36186
2240.99189	0.36402
2239.06333	0.36625
2237.13477	0.36857
2235.20620	0.37084
2233.27764	0.37306
2231.34907	0.37527
2229.42051	0.37740
2227.49194	0.37952
2225.56338	0.38176
2223.63481	0.38400
2221.70625	0.38613
2219.77769	0.38828
2217.84912	0.39053
2215.92056	0.39276
2213.99199	0.39486
2212.06343	0.39690
2210.13486	0.39895
2208.20630	0.40103
2206.27773	0.40308
2204.34917	0.40502
2202.42061	0.40707
2200.49204	0.40934
2198.56348	0.41154
2196.63491	0.41347
2194.70635	0.41532
2192.77778	0.41718
2190.84922	0.41903
2188.92065	0.42095
2186.99209	0.42281
2185.06353	0.42450
2183.13496	0.42612
2181.20640	0.42777
2179.27783	0.42947
2177.34927	0.43114
2175.42070	0.43273
2173.49214	0.43422
2171.56357	0.43556
2169.63501	0.43686
2167.70645	0.43826
2165.77788	0.43972
2163.84932	0.44108
2161.92075	0.44224
2159.99219	0.44337
2158.06362	0.44450
2156.13506	0.44547
2154.20649	0.44622
2152.27793	0.44693
2150.34937	0.44765
2148.42080	0.44834
2146.49224	0.44904
2144.56367	0.44962
2142.63511	0.45009
2140.70654	0.45050
2138.77798	0.45083
2136.84941	0.45109
2134.92085	0.45130
2132.99229	0.45146
2131.06372	0.45154
2129.13516	0.45143
2127.20659	0.45115
2125.27803	0.45083
2123.34946	0.45043
2121.42090	0.44993
2119.49233	0.44944
2117.56377	0.44889
2115.63521	0.44825
2113.70664	0.44763
2111.77808	0.44693
2109.84951	0.44607
2107.92095	0.44508
2105.99238	0.44397
2104.06382	0.44279
2102.13525	0.44159
2100.20669	0.44039
2098.27812	0.43920
2096.34956	0.43788
2094.42100	0.43636
2092.49243	0.43475
2090.56387	0.43312
2088.63530	0.43150
2086.70674	0.42988
2084.77817	0.42816
2082.84961	0.42636
2080.92104	0.42443
2078.99248	0.42238
2077.06392	0.42030
2075.13535	0.41828
2073.20679	0.41630
2071.27822	0.41423
2069.34966	0.41203
2067.42109	0.40971
2065.49253	0.40735
2063.56396	0.40498
2061.63540	0.40259
2059.70684	0.40019
2057.77827	0.39776
2055.84971	0.39537
2053.92114	0.39294
2051.99258	0.39044
2050.06401	0.38795
2048.13545	0.38549
2046.20688	0.38295
2044.27832	0.38032
2042.34976	0.37763
2040.42119	0.37492
2038.49263	0.37220
2036.56406	0.36944
2034.63550	0.36664
2032.70693	0.36389
2030.77837	0.36125
2028.84980	0.35860
2026.92124	0.35585
2024.99268	0.35303
2023.06411	0.35028
2021.13555	0.34762
2019.20698	0.34500
2017.27842	0.34233
2015.34985	0.33950
2013.42129	0.33669
2011.49272	0.33404
2009.56416	0.33143
2007.63560	0.32876
2005.70703	0.32610
2003.77847	0.32346
2001.84990	0.32082
1999.92134	0.31822
1997.99277	0.31558
1996.06421	0.31295
1994.13564	0.31050
1992.20708	0.30814
1990.27852	0.30565
1988.34995	0.30316
1986.42139	0.30071
1984.49282	0.29823
1982.56426	0.29577
1980.63569	0.29337
1978.70713	0.29107
1976.77856	0.28882
1974.85000	0.28664
1972.92144	0.28453
1970.99287	0.28245
1969.06431	0.28053
1967.13574	0.27872
1965.20718	0.27669
1963.27861	0.27453
1961.35005	0.27251
1959.42148	0.27058
1957.49292	0.26873
1955.56436	0.26694
1953.63579	0.26518
1951.70723	0.26341
1949.77866	0.26170
1947.85010	0.26015
1945.92153	0.25883
1943.99297	0.25768
1942.06440	0.25631
1940.13584	0.25446
1938.20728	0.25263
1936.27871	0.25116
1934.35015	0.24987
1932.42158	0.24864
1930.49302	0.24745
1928.56445	0.24629
1926.63589	0.24517
1924.70732	0.24429
1922.77876	0.24357
1920.85020	0.24268
1918.92163	0.24181
1916.99307	0.24093
1915.06450	0.23981
1913.13594	0.23873
1911.20737	0.23803
1909.27881	0.23747
1907.35024	0.23677
1905.42168	0.23591
1903.49312	0.23512
1901.56455	0.23450
1899.63599	0.23396
1897.70742	0.23352
1895.77886	0.23323
1893.85029	0.23300
1891.92173	0.23273
1889.99316	0.23256
1888.06460	0.23224
1886.13604	0.23179
1884.20747	0.23152
1882.27891	0.23135
1880.35034	0.23119
1878.42178	0.23104
1876.49321	0.23098
1874.56465	0.23097
1872.63608	0.23116
1870.70752	0.23176
1868.77896	0.23261
1866.85039	0.23283
1864.92183	0.23241
1862.99326	0.23218
1861.06470	0.23229
1859.13613	0.23262
1857.20757	0.23293
1855.27900	0.23327
1853.35044	0.23366
1851.42187	0.23421
1849.49331	0.23492
1847.56475	0.23579
1845.63618	0.23686
1843.70762	0.23800
1841.77905	0.23860
1839.85049	0.23887
1837.92192	0.23961
1835.99336	0.24052
1834.06479	0.24135
1832.13623	0.24240
1830.20767	0.24408
1828.27910	0.24575
1826.35054	0.24678
1824.42197	0.24781
1822.49341	0.24877
1820.56484	0.24981
1818.63628	0.25113
1816.70771	0.25273
1814.77915	0.25437
1812.85059	0.25627
1810.92202	0.25852
1808.99346	0.26064
1807.06489	0.26244
1805.13633	0.26423
1803.20776	0.26646
1801.27920	0.26907
1799.35063	0.27193
1797.42207	0.27446
1795.49351	0.27694
1793.56494	0.27997
1791.63638	0.28370
1789.70781	0.28679
1787.77925	0.28898
1785.85068	0.29193
1783.92212	0.29563
1781.99355	0.29960
1780.06499	0.30383
1778.13643	0.30813
1776.20786	0.31220
1774.27930	0.31678
1772.35073	0.32300
1770.42217	0.32926
1768.49360	0.33405
1766.56504	0.33867
1764.63647	0.34373
1762.70791	0.34963
1760.77935	0.35717
1758.85078	0.36420
1756.92222	0.37123
1754.99365	0.37889
1753.06509	0.38598
1751.13652	0.39459
1749.20796	0.40527
1747.27939	0.41549
1745.35083	0.42439
1743.42227	0.43390
1741.49370	0.44443
1739.56514	0.45677
1737.63657	0.46916
1735.70801	0.48019
1733.77944	0.49650
1731.85088	0.51556
1729.92231	0.53061
1727.99375	0.54592
1726.06519	0.56251
1724.13662	0.58083
1722.20806	0.60071
1720.27949	0.61926
1718.35093	0.64126
1716.42236	0.67347
1714.49380	0.70355
1712.56523	0.72762
1710.63667	0.75107
1708.70811	0.77655
1706.77954	0.80581
1704.85098	0.84084
1702.92241	0.87211
1700.99385	0.90311
1699.06528	0.94911
1697.13672	0.99142
1695.20815	1.03487
1693.27959	1.07738
1691.35103	1.11217
1689.42246	1.15270
1687.49390	1.19547
1685.56533	1.23674
1683.63677	1.30045
1681.70820	1.36649
1679.77964	1.40860
1677.85107	1.44883
1675.92251	1.49573
1673.99395	1.55422
1672.06538	1.60638
1670.13682	1.65724
1668.20825	1.72303
1666.27969	1.77710
1664.35112	1.82332
1662.42256	1.88130
1660.49399	1.94766
1658.56543	2.00060
1656.63687	2.04383
1654.70830	2.08393
1652.77974	2.14435
1650.85117	2.19956
1648.92261	2.22068
1646.99404	2.24764
1645.06548	2.27548
1643.13691	2.29385
1641.20835	2.30402
1639.27979	2.31213
1637.35122	2.31724
1635.42266	2.31796
1633.49409	2.31016
1631.56553	2.29467
1629.63696	2.27691
1627.70840	2.24925
1625.77983	2.21640
1623.85127	2.17389
1621.92271	2.12131
1619.99414	2.07499
1618.06558	2.03067
1616.13701	1.96642
1614.20845	1.89985
1612.27988	1.84998
1610.35132	1.79836
1608.42275	1.74134
1606.49419	1.68489
1604.56562	1.63362
1602.63706	1.58453
1600.70850	1.53644
1598.77993	1.49190
1596.85137	1.45004
1594.92280	1.40965
1592.99424	1.37081
1591.06567	1.33505
1589.13711	1.30145
1587.20854	1.27049
1585.27998	1.24236
1583.35142	1.21638
1581.42285	1.19258
1579.49429	1.17205
1577.56572	1.15394
1575.63716	1.13273
1573.70859	1.11393
1571.78003	1.10168
1569.85146	1.08976
1567.92290	1.07704
1565.99434	1.06767
1564.06577	1.06071
1562.13721	1.05550
1560.20864	1.05314
1558.28008	1.05296
1556.35151	1.05215
1554.42295	1.05123
1552.49438	1.05089
1550.56582	1.04922
1548.63726	1.04509
1546.70869	1.03925
1544.78013	1.03136
1542.85156	1.02050
1540.92300	1.00398
1538.99443	0.97753
1537.06587	0.95753
1535.13730	0.94399
1533.20874	0.92612
1531.28018	0.90672
1529.35161	0.89278
1527.42305	0.87995
1525.49448	0.86656
1523.56592	0.85546
1521.63735	0.84535
1519.70879	0.83460
1517.78022	0.82490
1515.85166	0.81366
1513.92310	0.80194
1511.99453	0.79210
1510.06597	0.78377
1508.13740	0.77612
1506.20884	0.76324
1504.28027	0.75071
1502.35171	0.74349
1500.42314	0.73764
1498.49458	0.73198
1496.56602	0.72529
1494.63745	0.71787
1492.70889	0.71213
1490.78032	0.70780
1488.85176	0.70295
1486.92319	0.69758
1484.99463	0.69305
1483.06606	0.68973
1481.13750	0.68713
1479.20894	0.68510
1477.28037	0.68410
1475.35181	0.68406
1473.42324	0.68422
1471.49468	0.68284
1469.56611	0.68024
1467.63755	0.67801
1465.70898	0.67619
1463.78042	0.67443
1461.85186	0.67331
1459.92329	0.67340
1457.99473	0.67422
1456.06616	0.67334
1454.13760	0.67023
1452.20903	0.66732
1450.28047	0.66466
1448.35190	0.66200
1446.42334	0.65916
1444.49478	0.65659
1442.56621	0.65437
1440.63765	0.65209
1438.70908	0.64973
1436.78052	0.64686
1434.85195	0.64351
1432.92339	0.64082
1430.99482	0.63890
1429.06626	0.63749
1427.13770	0.63666
1425.20913	0.63657
1423.28057	0.63706
1421.35200	0.63753
1419.42344	0.63786
1417.49487	0.63756
1415.56631	0.63628
1413.63774	0.63514
1411.70918	0.63474
1409.78062	0.63510
1407.85205	0.63615
1405.92349	0.63763
1403.99492	0.63871
1402.06636	0.63877
1400.13779	0.63827
1398.20923	0.63726
1396.28066	0.63526
1394.35210	0.63182
1392.42354	0.62749
1390.49497	0.62358
1388.56641	0.62003
1386.63784	0.61598
1384.70928	0.61151
1382.78071	0.60730
1380.85215	0.60333
1378.92358	0.59974
1376.99502	0.59705
1375.06646	0.59542
1373.13789	0.59423
1371.20933	0.59306
1369.28076	0.59198
1367.35220	0.59075
1365.42363	0.58943
1363.49507	0.58835
1361.56650	0.58726
1359.63794	0.58582
1357.70937	0.58432
1355.78081	0.58297
1353.85225	0.58189
1351.92368	0.58117
1349.99512	0.58065
1348.06655	0.58000
1346.13799	0.57915
1344.20942	0.57835
1342.28086	0.57776
1340.35229	0.57743
1338.42373	0.57698
1336.49517	0.57616
1334.56660	0.57537
1332.63804	0.57494
1330.70947	0.57488
1328.78091	0.57513
1326.85234	0.57554
1324.92378	0.57601
1322.99521	0.57654
1321.06665	0.57711
1319.13809	0.57760
1317.20952	0.57776
1315.28096	0.57756
1313.35239	0.57716
1311.42383	0.57660
1309.49526	0.57601
1307.56670	0.57543
1305.63813	0.57478
1303.70957	0.57414
1301.78101	0.57351
1299.85244	0.57275
1297.92388	0.57177
1295.99531	0.57064
1294.06675	0.56969
1292.13818	0.56895
1290.20962	0.56804
1288.28105	0.56689
1286.35249	0.56567
1284.42393	0.56444
1282.49536	0.56326
1280.56680	0.56217
1278.63823	0.56110
1276.70967	0.55999
1274.78110	0.55890
1272.85254	0.55799
1270.92397	0.55722
1268.99541	0.55646
1267.06685	0.55579
1265.13828	0.55511
1263.20972	0.55438
1261.28115	0.55363
1259.35259	0.55294
1257.42402	0.55233
1255.49546	0.55191
1253.56689	0.55174
1251.63833	0.55177
1249.70977	0.55189
1247.78120	0.55194
1245.85264	0.55182
1243.92407	0.55136
1241.99551	0.55050
1240.06694	0.54937
1238.13838	0.54800
1236.20981	0.54628
1234.28125	0.54430
1232.35269	0.54228
1230.42412	0.54039
1228.49556	0.53872
1226.56699	0.53721
1224.63843	0.53569
1222.70986	0.53425
1220.78130	0.53296
1218.85273	0.53166
1216.92417	0.53049
1214.99561	0.52965
1213.06704	0.52899
1211.13848	0.52820
1209.20991	0.52723
1207.28135	0.52637
1205.35278	0.52576
1203.42422	0.52516
1201.49565	0.52436
1199.56709	0.52348
1197.63853	0.52273
1195.70996	0.52223
1193.78140	0.52194
1191.85283	0.52163
1189.92427	0.52118
1187.99570	0.52078
1186.06714	0.52062
1184.13857	0.52075
1182.21001	0.52111
1180.28145	0.52175
1178.35288	0.52274
1176.42432	0.52395
1174.49575	0.52518
1172.56719	0.52608
1170.63862	0.52634
1168.71006	0.52620
1166.78149	0.52608
1164.85293	0.52603
1162.92437	0.52590
1160.99580	0.52562
1159.06724	0.52519
1157.13867	0.52457
1155.21011	0.52360
1153.28154	0.52219
1151.35298	0.52032
1149.42441	0.51810
1147.49585	0.51572
1145.56729	0.51330
1143.63872	0.51094
1141.71016	0.50866
1139.78159	0.50660
1137.85303	0.50496
1135.92446	0.50372
1133.99590	0.50267
1132.06733	0.50180
1130.13877	0.50115
1128.21021	0.50050
1126.28164	0.49968
1124.35308	0.49889
1122.42451	0.49836
1120.49595	0.49811
1118.56738	0.49795
1116.63882	0.49785
1114.71025	0.49791
1112.78169	0.49824
1110.85312	0.49870
1108.92456	0.49904
1106.99600	0.49950
1105.06743	0.50051
1103.13887	0.50212
1101.21030	0.50396
1099.28174	0.50594
1097.35317	0.50831
1095.42461	0.51115
1093.49604	0.51443
1091.56748	0.51836
1089.63892	0.52317
1087.71035	0.52918
1085.78179	0.53615
1083.85322	0.54317
1081.92466	0.54984
1079.99609	0.55569
1078.06753	0.55925
1076.13896	0.55946
1074.21040	0.55673
1072.28184	0.55191
1070.35327	0.54579
1068.42471	0.53910
1066.49614	0.53244
1064.56758	0.52619
1062.63901	0.52041
1060.71045	0.51521
1058.78188	0.51075
1056.85332	0.50681
1054.92476	0.50318
1052.99619	0.49991
1051.06763	0.49707
1049.13906	0.49471
1047.21050	0.49294
1045.28193	0.49173
1043.35337	0.49077
1041.42480	0.48985
1039.49624	0.48911
1037.56768	0.48869
1035.63911	0.48844
1033.71055	0.48807
1031.78198	0.48750
1029.85342	0.48684
1027.92485	0.48627
1025.99629	0.48597
1024.06772	0.48592
1022.13916	0.48596
1020.21060	0.48596
1018.28203	0.48608
1016.35347	0.48649
1014.42490	0.48707
1012.49634	0.48776
1010.56777	0.48861
1008.63921	0.48966
1006.71064	0.49106
1004.78208	0.49280
1002.85352	0.49481
1000.92495	0.49731
998.99639	0.50043
997.06782	0.50420
995.13926	0.50840
993.21069	0.51248
991.28213	0.51582
989.35356	0.51818
987.42500	0.51955
985.49644	0.52006
983.56787	0.52029
981.63931	0.52081
979.71074	0.52191
977.78218	0.52372
975.85361	0.52604
973.92505	0.52868
971.99648	0.53172
970.06792	0.53508
968.13936	0.53861
966.21079	0.54242
964.28223	0.54672
962.35366	0.55157
960.42510	0.55665
958.49653	0.56178
956.56797	0.56726
954.63940	0.57320
952.71084	0.57920
950.78228	0.58527
948.85371	0.59179
946.92515	0.59850
944.99658	0.60472
943.06802	0.61064
941.13945	0.61672
939.21089	0.62269
937.28232	0.62836
935.35376	0.63403
933.42520	0.63959
931.49663	0.64475
929.56807	0.65005
927.63950	0.65583
925.71094	0.66172
923.78237	0.66785
921.85381	0.67440
919.92524	0.68076
917.99668	0.68697
916.06812	0.69386
914.13955	0.70159
912.21099	0.71002
910.28242	0.71911
908.35386	0.72824
906.42529	0.73684
904.49673	0.74506
902.56816	0.75326
900.63960	0.76152
898.71104	0.77041
896.78247	0.78057
894.85391	0.79168
892.92534	0.80304
890.99678	0.81397
889.06821	0.82402
887.13965	0.83329
885.21108	0.84310
883.28252	0.85386
881.35396	0.86468
879.42539	0.87580
877.49683	0.88724
875.56826	0.89871
873.63970	0.91049
871.71113	0.92256
869.78257	0.93364
867.85400	0.94316
865.92544	0.95373
863.99687	0.96709
862.06831	0.98082
860.13975	0.99186
858.21118	1.00204
856.28262	1.01413
854.35405	1.02627
852.42549	1.03769
850.49692	1.05002
848.56836	1.06167
846.63979	1.07225
844.71123	1.08490
842.78267	1.09855
840.85410	1.11077
838.92554	1.12342
836.99697	1.13583
835.06841	1.14539
833.13984	1.15576
831.21128	1.17021
829.28271	1.18683
827.35415	1.20396
825.42559	1.21780
823.49702	1.22687
821.56846	1.23425
819.63989	1.24131
817.71133	1.24847
815.78276	1.25530
813.85420	1.26153
811.92563	1.26954
809.99707	1.28304
808.06851	1.30086
806.13994	1.31534
804.21138	1.31646
802.28281	1.31183
800.35425	1.33406
798.42568	1.40168
796.49712	1.48635
794.56855	1.53622
792.63999	1.52794
790.71143	1.48616
788.78286	1.45315
786.85430	1.44804
784.92573	1.46776
782.99717	1.46234
781.06860	1.42680
779.14004	1.44012
777.21147	1.53525
775.28291	1.65840
773.35435	1.67920
771.42578	1.60361
769.49722	1.47503
767.56865	1.40471
765.64009	1.41563
763.71152	1.46136
761.78296	1.57531
759.85439	1.59068
757.92583	1.40781
755.99727	1.28515
754.06870	1.24237
752.14014	1.25726
750.21157	1.26308
748.28301	1.28859
746.35444	1.42178
744.42588	1.40893
742.49731	1.15379
740.56875	0.97853
738.64019	0.90645
736.71162	0.88075
734.78306	0.86987
732.85449	0.90633
730.92593	0.90013
728.99736	0.67535
727.06880	0.44560
725.14023	0.31252
723.21167	0.25280
721.28311	0.21280
719.35454	0.19950
717.42598	0.13011
715.49741	-0.15806
713.56885	-0.26592
711.64028	-0.09619
709.71172	-0.01631
707.78315	0.02165
705.85459	0.13126
703.92603	0.28813
701.99746	0.32278
700.06890	0.37539
698.14033	0.66302
696.21177	2.53085
694.28320	0.92745
692.35464	0.62434
690.42607	0.53728
688.49751	0.44450
686.56895	0.37115
684.64038	0.39845
682.71182	0.56532
680.78325	0.72513
678.85469	0.61971
676.92612	0.51241
674.99756	0.49680
673.06899	0.55346
671.14043	0.54381
669.21187	0.43326
667.28330	0.33192
665.35474	0.30092
663.42617	0.31137
661.49761	0.33530
659.56904	0.39557
657.64048	0.39927
655.71191	0.34829
653.78335	0.33889
651.85479	0.33144
649.92622	0.26809
647.99766	0.24004
646.06909	0.24298
644.14053	0.27518
642.21196	0.42625
640.28340	0.67002
638.35483	0.62433
636.42627	0.45840
634.49771	0.37687
632.56914	0.37140
630.64058	0.42063
628.71201	0.48083
626.78345	0.43628
624.85488	0.31159
622.92632	0.25335
620.99775	0.26918
619.06919	0.27068
617.14062	0.26841
615.21206	0.39393
613.28350	0.70066
611.35493	0.63581
609.42637	0.41503
607.49780	0.37363
605.56924	0.39777
603.64067	0.40088
601.71211	0.37268
599.78354	0.36621
597.85498	0.35546
595.92642	0.28217
593.99785	0.23777
592.06929	0.32098
590.14072	0.51738
588.21216	0.47843
586.28359	0.33328
584.35503	0.27899
582.42646	0.25853
580.49790	0.21115
578.56934	0.20892
576.64077	0.28926
574.71221	0.36629
572.78364	0.33101
570.85508	0.26872
568.92651	0.25305
566.99795	0.28711
565.06938	0.35379
563.14082	0.39356
561.21226	0.40702
559.28369	0.44347
557.35513	0.36670
555.42656	0.23361
553.49800	0.17066
551.56943	0.16103
549.64087	0.16184
547.71230	0.22434
545.78374	0.33208
543.85518	0.33064
541.92661	0.29274
539.99805	0.31686
538.06948	0.40923
536.14092	0.60211
534.21235	0.86771
532.28379	0.55067
530.35522	0.34712
528.42666	0.25525
526.49810	0.20069
524.56953	0.17877
522.64097	0.20676
520.71240	0.24328
518.78384	0.22931
516.85527	0.23041
514.92671	0.32930
512.99814	0.42781
511.06958	0.38327
509.14102	0.32165
507.21245	0.28171
505.28389	0.28850
503.35532	0.31921
501.42676	0.30238
499.49819	0.29330
