3997.91411	0.07318
3995.98555	0.07376
3994.05698	0.07429
3992.12842	0.07459
3990.19985	0.07463
3988.27129	0.07463
3986.34272	0.07467
3984.41416	0.07493
3982.48560	0.07532
3980.55703	0.07550
3978.62847	0.07564
3976.69990	0.07603
3974.77134	0.07670
3972.84277	0.07744
3970.91421	0.07786
3968.98564	0.07787
3967.05708	0.07745
3965.12852	0.07689
3963.19995	0.07700
3961.27139	0.07755
3959.34282	0.07779
3957.41426	0.07780
3955.48569	0.07780
3953.55713	0.07770
3951.62856	0.07757
3949.70000	0.07787
3947.77144	0.07860
3945.84287	0.07913
3943.91431	0.07940
3941.98574	0.07945
3940.05718	0.07898
3938.12861	0.07846
3936.20005	0.07825
3934.27148	0.07823
3932.34292	0.07859
3930.41436	0.07924
3928.48579	0.07938
3926.55723	0.07902
3924.62866	0.07888
3922.70010	0.07876
3920.77153	0.07851
3918.84297	0.07861
3916.91440	0.07898
3914.98584	0.07874
3913.05728	0.07749
3911.12871	0.07629
3909.20015	0.07616
3907.27158	0.07708
3905.34302	0.07876
3903.41445	0.08067
3901.48589	0.08185
3899.55732	0.08220
3897.62876	0.08150
3895.70020	0.08000
3893.77163	0.07919
3891.84307	0.07955
3889.91450	0.07978
3887.98594	0.07926
3886.05737	0.07961
3884.12881	0.08093
3882.20024	0.08167
3880.27168	0.08200
3878.34312	0.08141
3876.41455	0.08004
3874.48599	0.08022
3872.55742	0.08201
3870.62886	0.08351
3868.70029	0.08403
3866.77173	0.08344
3864.84316	0.08345
3862.91460	0.08451
3860.98604	0.08413
3859.05747	0.08289
3857.12891	0.08295
3855.20034	0.08462
3853.27178	0.08792
3851.34321	0.08979
3849.41465	0.08746
3847.48608	0.08514
3845.55752	0.08468
3843.62896	0.08592
3841.70039	0.08798
3839.77183	0.09035
3837.84326	0.09264
3835.91470	0.09348
3833.98613	0.09298
3832.05757	0.09229
3830.12900	0.09166
3828.20044	0.09153
3826.27187	0.09247
3824.34331	0.09383
3822.41475	0.09544
3820.48618	0.09836
3818.55762	0.10011
3816.62905	0.09988
3814.70049	0.09956
3812.77192	0.09845
3810.84336	0.09752
3808.91479	0.09852
3806.98623	0.10138
3805.05767	0.10390
3803.12910	0.10541
3801.20054	0.10780
3799.27197	0.10946
3797.34341	0.10908
3795.41484	0.10868
3793.48628	0.10839
3791.55771	0.10840
3789.62915	0.10918
3787.70059	0.11061
3785.77202	0.11267
3783.84346	0.11477
3781.91489	0.11621
3779.98633	0.11782
3778.05776	0.11985
3776.12920	0.12083
3774.20063	0.12132
3772.27207	0.12281
3770.34351	0.12567
3768.41494	0.12882
3766.48638	0.13069
3764.55781	0.13205
3762.62925	0.13384
3760.70068	0.13635
3758.77212	0.13994
3756.84355	0.14325
3754.91499	0.14530
3752.98643	0.14812
3751.05786	0.15390
3749.12930	0.16016
3747.20073	0.16224
3745.27217	0.16370
3743.34360	0.16750
3741.41504	0.17119
3739.48647	0.17422
3737.55791	0.17907
3735.62935	0.18700
3733.70078	0.19544
3731.77222	0.20027
3729.84365	0.20311
3727.91509	0.20675
3725.98652	0.21268
3724.05796	0.21967
3722.12939	0.22577
3720.20083	0.23130
3718.27227	0.23632
3716.34370	0.24130
3714.41514	0.24758
3712.48657	0.25789
3710.55801	0.27417
3708.62944	0.29022
3706.70088	0.30146
3704.77231	0.31186
3702.84375	0.32483
3700.91519	0.34228
3698.98662	0.36123
3697.05806	0.37874
3695.12949	0.39723
3693.20093	0.41718
3691.27236	0.43946
3689.34380	0.46842
3687.41523	0.50282
3685.48667	0.53200
3683.55811	0.55694
3681.62954	0.58413
3679.70098	0.61589
3677.77241	0.65092
3675.84385	0.69281
3673.91528	0.74647
3671.98672	0.78872
3670.05815	0.82711
3668.12959	0.88116
3666.20103	0.92996
3664.27246	0.96997
3662.34390	1.01304
3660.41533	1.06008
3658.48677	1.10723
3656.55820	1.15794
3654.62964	1.21385
3652.70107	1.26052
3650.77251	1.30227
3648.84395	1.36144
3646.91538	1.43276
3644.98682	1.48279
3643.05825	1.52061
3641.12969	1.56060
3639.20112	1.60577
3637.27256	1.65105
3635.34399	1.69442
3633.41543	1.73816
3631.48687	1.78075
3629.55830	1.82544
3627.62974	1.88237
3625.70117	1.93285
3623.77261	1.96613
3621.84404	1.99846
3619.91548	2.03591
3617.98691	2.08127
3616.05835	2.12448
3614.12979	2.16010
3612.20122	2.19822
3610.27266	2.23772
3608.34409	2.27822
3606.41553	2.32069
3604.48696	2.35948
3602.55840	2.39510
3600.62983	2.43445
3598.70127	2.47654
3596.77271	2.51684
3594.84414	2.55777
3592.91558	2.59937
3590.98701	2.63719
3589.05845	2.67276
3587.12988	2.71653
3585.20132	2.76470
3583.27275	2.80497
3581.34419	2.84246
3579.41562	2.88333
3577.48706	2.92614
3575.55850	2.96771
3573.62993	3.00939
3571.70137	3.04987
3569.77280	3.08852
3567.84424	3.13110
3565.91567	3.18511
3563.98711	3.23702
3562.05854	3.27754
3560.12998	3.31794
3558.20142	3.36369
3556.27285	3.41162
3554.34429	3.45633
3552.41572	3.50041
3550.48716	3.54632
3548.55859	3.59190
3546.63003	3.63802
3544.70146	3.68697
3542.77290	3.73483
3540.84434	3.77912
3538.91577	3.82234
3536.98721	3.86682
3535.05864	3.91582
3533.13008	3.96520
3531.20151	4.01281
3529.27295	4.06293
3527.34438	4.11578
3525.41582	4.16525
3523.48726	4.21109
3521.55869	4.25755
3519.63013	4.30202
3517.70156	4.34676
3515.77300	4.39595
3513.84443	4.44698
3511.91587	4.49564
3509.98730	4.54284
3508.05874	4.59024
3506.13018	4.63626
3504.20161	4.68300
3502.27305	4.73486
3500.34448	4.78808
3498.41592	4.83618
3496.48735	4.88189
3494.55879	4.92795
3492.63022	4.97496
3490.70166	5.02493
3488.77310	5.07524
3486.84453	5.12087
3484.91597	5.16803
3482.98740	5.22497
3481.05884	5.28261
3479.13027	5.33056
3477.20171	5.37591
3475.27314	5.42023
3473.34458	5.46014
3471.41602	5.50204
3469.48745	5.54598
3467.55889	5.59321
3465.63032	5.64975
3463.70176	5.70612
3461.77319	5.75361
3459.84463	5.80011
3457.91606	5.84600
3455.98750	5.89175
3454.05894	5.94177
3452.13037	5.99538
3450.20181	6.05215
3448.27324	6.11245
3446.34468	6.18123
3444.41611	6.24060
3442.48755	6.27516
3440.55898	6.30453
3438.63042	6.35525
3436.70186	6.42035
3434.77329	6.47020
3432.84473	6.50155
3430.91616	6.53409
3428.98760	6.59292
3427.05903	6.65963
3425.13047	6.71227
3423.20190	6.78104
3421.27334	6.86327
3419.34478	6.91163
3417.41621	6.93250
3415.48765	6.95373
3413.55908	6.97874
3411.63052	7.02670
3409.70195	7.11076
3407.77339	7.20192
3405.84482	7.23429
3403.91626	7.23789
3401.98770	7.26248
3400.05913	7.27798
3398.13057	7.31003
3396.20200	7.39052
3394.27344	7.46076
3392.34487	7.46477
3390.41631	7.46678
3388.48774	7.54311
3386.55918	7.66779
3384.63062	7.73598
3382.70205	7.72351
3380.77349	7.70559
3378.84492	7.72653
3376.91636	7.78788
3374.98779	7.85135
3373.05923	7.89832
3371.13066	7.90991
3369.20210	7.87875
3367.27354	7.83574
3365.34497	7.84892
3363.41641	7.93557
3361.48784	8.01827
3359.55928	8.07198
3357.63071	8.11106
3355.70215	8.09983
3353.77358	8.02384
3351.84502	7.97325
3349.91646	8.00937
3347.98789	8.10664
3346.05933	8.16892
3344.13076	8.16154
3342.20220	8.13800
3340.27363	8.12142
3338.34507	8.12842
3336.41650	8.10708
3334.48794	8.09371
3332.55937	8.13647
3330.63081	8.16471
3328.70225	8.17131
3326.77368	8.17088
3324.84512	8.16474
3322.91655	8.18282
3320.98799	8.18900
3319.05942	8.17201
3317.13086	8.19418
3315.20229	8.20403
3313.27373	8.20949
3311.34517	8.27455
3309.41660	8.34924
3307.48804	8.35312
3305.55947	8.28089
3303.63091	8.26562
3301.70234	8.32135
3299.77378	8.29677
3297.84521	8.21562
3295.91665	8.21793
3293.98809	8.25817
3292.05952	8.27781
3290.13096	8.30912
3288.20239	8.32229
3286.27383	8.28948
3284.34526	8.25369
3282.41670	8.29206
3280.48813	8.36139
3278.55957	8.37463
3276.63101	8.35931
3274.70244	8.33032
3272.77388	8.27353
3270.84531	8.26822
3268.91675	8.34994
3266.98818	8.41325
3265.05962	8.40782
3263.13105	8.38939
3261.20249	8.43800
3259.27393	8.52370
3257.34536	8.57774
3255.41680	8.63482
3253.48823	8.66122
3251.55967	8.59697
3249.63110	8.44277
3247.70254	8.24507
3245.77397	8.12103
3243.84541	8.13387
3241.91685	8.22061
3239.98828	8.26177
3238.05972	8.21865
3236.13115	8.19524
3234.20259	8.22413
3232.27402	8.23709
3230.34546	8.22595
3228.41689	8.17909
3226.48833	8.11971
3224.55977	8.14067
3222.63120	8.21734
3220.70264	8.21019
3218.77407	8.14988
3216.84551	8.14993
3214.91694	8.18542
3212.98838	8.17496
3211.05981	8.06123
3209.13125	7.89400
3207.20269	7.80486
3205.27412	7.82262
3203.34556	7.84711
3201.41699	7.82819
3199.48843	7.77446
3197.55986	7.68369
3195.63130	7.62433
3193.70273	7.63748
3191.77417	7.64893
3189.84561	7.56422
3187.91704	7.42283
3185.98848	7.36238
3184.05991	7.39075
3182.13135	7.38569
3180.20278	7.32124
3178.27422	7.25121
3176.34565	7.18769
3174.41709	7.13646
3172.48853	7.08990
3170.55996	7.02693
3168.63140	6.96977
3166.70283	6.93043
3164.77427	6.87235
3162.84570	6.78812
3160.91714	6.71530
3158.98857	6.65806
3157.06001	6.57397
3155.13145	6.47025
3153.20288	6.38461
3151.27432	6.31883
3149.34575	6.26021
3147.41719	6.19462
3145.48862	6.12628
3143.56006	6.06352
3141.63149	5.99564
3139.70293	5.92224
3137.77437	5.84125
3135.84580	5.75236
3133.91724	5.68573
3131.98867	5.64270
3130.06011	5.58784
3128.13154	5.50986
3126.20298	5.42067
3124.27441	5.33721
3122.34585	5.26723
3120.41729	5.20402
3118.48872	5.13750
3116.56016	5.06697
3114.63159	4.99760
3112.70303	4.93018
3110.77446	4.86304
3108.84590	4.79298
3106.91733	4.72060
3104.98877	4.65143
3103.06021	4.58648
3101.13164	4.52050
3099.20308	4.45121
3097.27451	4.38154
3095.34595	4.31414
3093.41738	4.24866
3091.48882	4.18384
3089.56025	4.12138
3087.63169	4.06182
3085.70312	4.00158
3083.77456	3.93964
3081.84600	3.87997
3079.91743	3.82259
3077.98887	3.76446
3076.06030	3.70687
3074.13174	3.65023
3072.20317	3.59213
3070.27461	3.53360
3068.34604	3.47663
3066.41748	3.42103
3064.48892	3.36663
3062.56035	3.31241
3060.63179	3.25846
3058.70322	3.20555
3056.77466	3.15365
3054.84609	3.10229
3052.91753	3.04980
3050.98896	2.99785
3049.06040	2.94906
3047.13184	2.90127
3045.20327	2.85191
3043.27471	2.80232
3041.34614	2.75441
3039.41758	2.70793
3037.48901	2.66248
3035.56045	2.61777
3033.63188	2.57333
3031.70332	2.52916
3029.77476	2.48551
3027.84619	2.44241
3025.91763	2.39987
3023.98906	2.35803
3022.06050	2.31705
3020.13193	2.27698
3018.20337	2.23745
3016.27480	2.19842
3014.34624	2.15981
3012.41768	2.12175
3010.48911	2.08490
3008.56055	2.04897
3006.63198	2.01316
3004.70342	1.97761
3002.77485	1.94301
3000.84629	1.90918
2998.91772	1.87582
2996.98916	1.84351
2995.06060	1.81229
2993.13203	1.78153
2991.20347	1.75105
2989.27490	1.72125
2987.34634	1.69219
2985.41777	1.66352
2983.48921	1.63514
2981.56064	1.60716
2979.63208	1.57976
2977.70352	1.55318
2975.77495	1.52712
2973.84639	1.50115
2971.91782	1.47529
2969.98926	1.44946
2968.06069	1.42400
2966.13213	1.39943
2964.20356	1.37523
2962.27500	1.35111
2960.34644	1.32746
2958.41787	1.30424
2956.48931	1.28078
2954.56074	1.25724
2952.63218	1.23418
2950.70361	1.21159
2948.77505	1.18962
2946.84648	1.16797
2944.91792	1.14616
2942.98936	1.12474
2941.06079	1.10399
2939.13223	1.08361
2937.20366	1.06341
2935.27510	1.04319
2933.34653	1.02309
2931.41797	1.00326
2929.48940	0.98372
2927.56084	0.96478
2925.63228	0.94609
2923.70371	0.92795
2921.77515	0.91123
2919.84658	0.89573
2917.91802	0.88090
2915.98945	0.86648
2914.06089	0.85176
2912.13232	0.83634
2910.20376	0.82140
2908.27520	0.80756
2906.34663	0.79403
2904.41807	0.78034
2902.48950	0.76680
2900.56094	0.75375
2898.63237	0.74116
2896.70381	0.72886
2894.77524	0.71679
2892.84668	0.70493
2890.91812	0.69346
2888.98955	0.68262
2887.06099	0.67204
2885.13242	0.66168
2883.20386	0.65171
2881.27529	0.64162
2879.34673	0.63141
2877.41816	0.62152
2875.48960	0.61194
2873.56104	0.60226
2871.63247	0.59213
2869.70391	0.58154
2867.77534	0.57066
2865.84678	0.55965
2863.91821	0.54863
2861.98965	0.53765
2860.06108	0.52683
2858.13252	0.51647
2856.20396	0.50670
2854.27539	0.49778
2852.34683	0.48966
2850.41826	0.48189
2848.48970	0.47454
2846.56113	0.46768
2844.63257	0.46103
2842.70400	0.45477
2840.77544	0.44921
2838.84687	0.44404
2836.91831	0.43874
2834.98975	0.43316
2833.06118	0.42747
2831.13262	0.42176
2829.20405	0.41602
2827.27549	0.41023
2825.34692	0.40442
2823.41836	0.39873
2821.48979	0.39312
2819.56123	0.38751
2817.63267	0.38194
2815.70410	0.37630
2813.77554	0.37067
2811.84697	0.36535
2809.91841	0.36042
2807.98984	0.35552
2806.06128	0.35042
2804.13271	0.34537
2802.20415	0.34054
2800.27559	0.33595
2798.34702	0.33141
2796.41846	0.32680
2794.48989	0.32225
2792.56133	0.31787
2790.63276	0.31363
2788.70420	0.30949
2786.77563	0.30534
2784.84707	0.30113
2782.91851	0.29697
2780.98994	0.29297
2779.06138	0.28923
2777.13281	0.28559
2775.20425	0.28193
2773.27568	0.27834
2771.34712	0.27479
2769.41855	0.27129
2767.48999	0.26779
2765.56143	0.26423
2763.63286	0.26079
2761.70430	0.25766
2759.77573	0.25468
2757.84717	0.25163
2755.91860	0.24845
2753.99004	0.24522
2752.06147	0.24211
2750.13291	0.23926
2748.20435	0.23667
2746.27578	0.23416
2744.34722	0.23153
2742.41865	0.22873
2740.49009	0.22595
2738.56152	0.22341
2736.63296	0.22108
2734.70439	0.21876
2732.77583	0.21645
2730.84727	0.21431
2728.91870	0.21226
2726.99014	0.21017
2725.06157	0.20789
2723.13301	0.20547
2721.20444	0.20327
2719.27588	0.20142
2717.34731	0.19964
2715.41875	0.19778
2713.49019	0.19592
2711.56162	0.19419
2709.63306	0.19260
2707.70449	0.19091
2705.77593	0.18924
2703.84736	0.18780
2701.91880	0.18651
2699.99023	0.18513
2698.06167	0.18368
2696.13311	0.18226
2694.20454	0.18080
2692.27598	0.17927
2690.34741	0.17785
2688.41885	0.17661
2686.49028	0.17551
2684.56172	0.17444
2682.63315	0.17342
2680.70459	0.17244
2678.77603	0.17142
2676.84746	0.17031
2674.91890	0.16914
2672.99033	0.16796
2671.06177	0.16683
2669.13320	0.16579
2667.20464	0.16491
2665.27607	0.16414
2663.34751	0.16334
2661.41895	0.16248
2659.49038	0.16171
2657.56182	0.16113
2655.63325	0.16056
2653.70469	0.15983
2651.77612	0.15898
2649.84756	0.15823
2647.91899	0.15769
2645.99043	0.15724
2644.06187	0.15678
2642.13330	0.15619
2640.20474	0.15549
2638.27617	0.15496
2636.34761	0.15463
2634.41904	0.15428
2632.49048	0.15386
2630.56191	0.15345
2628.63335	0.15308
2626.70479	0.15277
2624.77622	0.15243
2622.84766	0.15208
2620.91909	0.15184
2618.99053	0.15176
2617.06196	0.15171
2615.13340	0.15155
2613.20483	0.15130
2611.27627	0.15107
2609.34771	0.15092
2607.41914	0.15079
2605.49058	0.15065
2603.56201	0.15054
2601.63345	0.15048
2599.70488	0.15048
2597.77632	0.15056
2595.84775	0.15072
2593.91919	0.15094
2591.99062	0.15107
2590.06206	0.15103
2588.13350	0.15103
2586.20493	0.15115
2584.27637	0.15128
2582.34780	0.15148
2580.41924	0.15182
2578.49067	0.15216
2576.56211	0.15238
2574.63354	0.15259
2572.70498	0.15290
2570.77642	0.15334
2568.84785	0.15377
2566.91929	0.15403
2564.99072	0.15426
2563.06216	0.15470
2561.13359	0.15528
2559.20503	0.15577
2557.27646	0.15617
2555.34790	0.15664
2553.41934	0.15714
2551.49077	0.15757
2549.56221	0.15804
2547.63364	0.15865
2545.70508	0.15930
2543.77651	0.15978
2541.84795	0.16013
2539.91938	0.16057
2537.99082	0.16120
2536.06226	0.16200
2534.13369	0.16284
2532.20513	0.16350
2530.27656	0.16411
2528.34800	0.16491
2526.41943	0.16578
2524.49087	0.16652
2522.56230	0.16720
2520.63374	0.16782
2518.70518	0.16839
2516.77661	0.16905
2514.84805	0.16979
2512.91948	0.17063
2510.99092	0.17154
2509.06235	0.17233
2507.13379	0.17303
2505.20522	0.17377
2503.27666	0.17458
2501.34810	0.17544
2499.41953	0.17627
2497.49097	0.17700
2495.56240	0.17774
2493.63384	0.17860
2491.70527	0.17949
2489.77671	0.18027
2487.84814	0.18107
2485.91958	0.18199
2483.99102	0.18287
2482.06245	0.18368
2480.13389	0.18454
2478.20532	0.18547
2476.27676	0.18631
2474.34819	0.18708
2472.41963	0.18797
2470.49106	0.18903
2468.56250	0.19011
2466.63394	0.19103
2464.70537	0.19185
2462.77681	0.19265
2460.84824	0.19342
2458.91968	0.19418
2456.99111	0.19503
2455.06255	0.19607
2453.13398	0.19725
2451.20542	0.19838
2449.27686	0.19933
2447.34829	0.20020
2445.41973	0.20116
2443.49116	0.20216
2441.56260	0.20316
2439.63403	0.20417
2437.70547	0.20524
2435.77690	0.20636
2433.84834	0.20735
2431.91978	0.20824
2429.99121	0.20926
2428.06265	0.21033
2426.13408	0.21134
2424.20552	0.21242
2422.27695	0.21352
2420.34839	0.21448
2418.41982	0.21548
2416.49126	0.21669
2414.56270	0.21804
2412.63413	0.21923
2410.70557	0.22023
2408.77700	0.22131
2406.84844	0.22244
2404.91987	0.22349
2402.99131	0.22455
2401.06274	0.22570
2399.13418	0.22698
2397.20562	0.22838
2395.27705	0.22972
2393.34849	0.23091
2391.41992	0.23210
2389.49136	0.23350
2387.56279	0.23543
2385.63423	0.23837
2383.70566	0.24276
2381.77710	0.24882
2379.84854	0.25629
2377.91997	0.26485
2375.99141	0.27465
2374.06284	0.28607
2372.13428	0.29895
2370.20571	0.31249
2368.27715	0.32563
2366.34858	0.33810
2364.42002	0.35023
2362.49146	0.36014
2360.56289	0.36541
2358.63433	0.36650
2356.70576	0.36303
2354.77720	0.35393
2352.84863	0.34131
2350.92007	0.32810
2348.99150	0.31965
2347.06294	0.31997
2345.13437	0.32947
2343.20581	0.34231
2341.27725	0.34915
2339.34868	0.35001
2337.42012	0.34948
2335.49155	0.34926
2333.56299	0.34882
2331.63442	0.34833
2329.70586	0.34767
2327.77729	0.34606
2325.84873	0.34350
2323.92017	0.34056
2321.99160	0.33729
2320.06304	0.33361
2318.13447	0.32994
2316.20591	0.32682
2314.27734	0.32473
2312.34878	0.32383
2310.42021	0.32328
2308.49165	0.32210
2306.56309	0.32028
2304.63452	0.31867
2302.70596	0.31797
2300.77739	0.31807
2298.84883	0.31848
2296.92026	0.31887
2294.99170	0.31911
2293.06313	0.31937
2291.13457	0.31983
2289.20601	0.32032
2287.27744	0.32084
2285.34888	0.32157
2283.42031	0.32265
2281.49175	0.32430
2279.56318	0.32651
2277.63462	0.32890
2275.70605	0.33123
2273.77749	0.33343
2271.84893	0.33547
2269.92036	0.33743
2267.99180	0.33941
2266.06323	0.34137
2264.13467	0.34324
2262.20610	0.34514
2260.27754	0.34717
2258.34897	0.34909
2256.42041	0.35078
2254.49185	0.35256
2252.56328	0.35460
2250.63472	0.35665
2248.70615	0.35862
2246.77759	0.36064
2244.84902	0.36267
2242.92046	0.36468
2240.99189	0.36673
2239.06333	0.36879
2237.13477	0.37094
2235.20620	0.37314
2233.27764	0.37525
2231.34907	0.37733
2229.42051	0.37959
2227.49194	0.38178
2225.56338	0.38379
2223.63481	0.38590
2221.70625	0.38819
2219.77769	0.39043
2217.84912	0.39255
2215.92056	0.39461
2213.99199	0.39670
2212.06343	0.39888
2210.13486	0.40103
2208.20630	0.40313
2206.27773	0.40529
2204.34917	0.40740
2202.42061	0.40934
2200.49204	0.41119
2198.56348	0.41311
2196.63491	0.41514
2194.70635	0.41719
2192.77778	0.41912
2190.84922	0.42098
2188.92065	0.42285
2186.99209	0.42468
2185.06353	0.42648
2183.13496	0.42820
2181.20640	0.42978
2179.27783	0.43123
2177.34927	0.43277
2175.42070	0.43445
2173.49214	0.43614
2171.56357	0.43767
2169.63501	0.43903
2167.70645	0.44032
2165.77788	0.44159
2163.84932	0.44284
2161.92075	0.44404
2159.99219	0.44517
2158.06362	0.44622
2156.13506	0.44722
2154.20649	0.44815
2152.27793	0.44897
2150.34937	0.44974
2148.42080	0.45039
2146.49224	0.45093
2144.56367	0.45153
2142.63511	0.45213
2140.70654	0.45260
2138.77798	0.45294
2136.84941	0.45308
2134.92085	0.45311
2132.99229	0.45317
2131.06372	0.45321
2129.13516	0.45324
2127.20659	0.45326
2125.27803	0.45320
2123.34946	0.45294
2121.42090	0.45243
2119.49233	0.45178
2117.56377	0.45115
2115.63521	0.45050
2113.70664	0.44977
2111.77808	0.44904
2109.84951	0.44831
2107.92095	0.44748
2105.99238	0.44655
2104.06382	0.44550
2102.13525	0.44428
2100.20669	0.44296
2098.27812	0.44158
2096.34956	0.44023
2094.42100	0.43879
2092.49243	0.43722
2090.56387	0.43573
2088.63530	0.43432
2086.70674	0.43273
2084.77817	0.43093
2082.84961	0.42911
2080.92104	0.42728
2078.99248	0.42535
2077.06392	0.42329
2075.13535	0.42112
2073.20679	0.41897
2071.27822	0.41684
2069.34966	0.41468
2067.42109	0.41243
2065.49253	0.41028
2063.56396	0.40822
2061.63540	0.40597
2059.70684	0.40352
2057.77827	0.40107
2055.84971	0.39855
2053.92114	0.39590
2051.99258	0.39336
2050.06401	0.39094
2048.13545	0.38845
2046.20688	0.38586
2044.27832	0.38329
2042.34976	0.38072
2040.42119	0.37814
2038.49263	0.37551
2036.56406	0.37277
2034.63550	0.36997
2032.70693	0.36719
2030.77837	0.36447
2028.84980	0.36178
2026.92124	0.35913
2024.99268	0.35650
2023.06411	0.35379
2021.13555	0.35104
2019.20698	0.34839
2017.27842	0.34584
2015.34985	0.34323
2013.42129	0.34049
2011.49272	0.33765
2009.56416	0.33484
2007.63560	0.33207
2005.70703	0.32933
2003.77847	0.32667
2001.84990	0.32408
1999.92134	0.32152
1997.99277	0.31894
1996.06421	0.31645
1994.13564	0.31414
1992.20708	0.31185
1990.27852	0.30930
1988.34995	0.30670
1986.42139	0.30428
1984.49282	0.30195
1982.56426	0.29956
1980.63569	0.29711
1978.70713	0.29477
1976.77856	0.29259
1974.85000	0.29040
1972.92144	0.28816
1970.99287	0.28599
1969.06431	0.28395
1967.13574	0.28197
1965.20718	0.27996
1963.27861	0.27792
1961.35005	0.27587
1959.42148	0.27391
1957.49292	0.27212
1955.56436	0.27037
1953.63579	0.26860
1951.70723	0.26684
1949.77866	0.26516
1947.85010	0.26365
1945.92153	0.26225
1943.99297	0.26084
1942.06440	0.25928
1940.13584	0.25756
1938.20728	0.25595
1936.27871	0.25454
1934.35015	0.25331
1932.42158	0.25219
1930.49302	0.25098
1928.56445	0.24975
1926.63589	0.24862
1924.70732	0.24772
1922.77876	0.24691
1920.85020	0.24595
1918.92163	0.24507
1916.99307	0.24421
1915.06450	0.24308
1913.13594	0.24196
1911.20737	0.24124
1909.27881	0.24067
1907.35024	0.23991
1905.42168	0.23899
1903.49312	0.23822
1901.56455	0.23764
1899.63599	0.23716
1897.70742	0.23679
1895.77886	0.23648
1893.85029	0.23617
1891.92173	0.23589
1889.99316	0.23571
1888.06460	0.23532
1886.13604	0.23477
1884.20747	0.23443
1882.27891	0.23428
1880.35034	0.23419
1878.42178	0.23403
1876.49321	0.23385
1874.56465	0.23378
1872.63608	0.23403
1870.70752	0.23470
1868.77896	0.23571
1866.85039	0.23602
1864.92183	0.23545
1862.99326	0.23503
1861.06470	0.23505
1859.13613	0.23533
1857.20757	0.23567
1855.27900	0.23609
1853.35044	0.23656
1851.42187	0.23714
1849.49331	0.23786
1847.56475	0.23872
1845.63618	0.23977
1843.70762	0.24095
1841.77905	0.24156
1839.85049	0.24172
1837.92192	0.24233
1835.99336	0.24322
1834.06479	0.24407
1832.13623	0.24511
1830.20767	0.24681
1828.27910	0.24841
1826.35054	0.24927
1824.42197	0.25030
1822.49341	0.25139
1820.56484	0.25250
1818.63628	0.25385
1816.70771	0.25543
1814.77915	0.25700
1812.85059	0.25886
1810.92202	0.26111
1808.99346	0.26313
1807.06489	0.26482
1805.13633	0.26656
1803.20776	0.26873
1801.27920	0.27138
1799.35063	0.27431
1797.42207	0.27684
1795.49351	0.27926
1793.56494	0.28227
1791.63638	0.28602
1789.70781	0.28912
1787.77925	0.29125
1785.85068	0.29409
1783.92212	0.29774
1781.99355	0.30175
1780.06499	0.30597
1778.13643	0.31018
1776.20786	0.31420
1774.27930	0.31882
1772.35073	0.32508
1770.42217	0.33129
1768.49360	0.33610
1766.56504	0.34085
1764.63647	0.34593
1762.70791	0.35170
1760.77935	0.35902
1758.85078	0.36587
1756.92222	0.37278
1754.99365	0.38033
1753.06509	0.38728
1751.13652	0.39582
1749.20796	0.40666
1747.27939	0.41698
1745.35083	0.42570
1743.42227	0.43505
1741.49370	0.44566
1739.56514	0.45805
1737.63657	0.47023
1735.70801	0.48113
1733.77944	0.49780
1731.85088	0.51719
1729.92231	0.53211
1727.99375	0.54733
1726.06519	0.56392
1724.13662	0.58226
1722.20806	0.60208
1720.27949	0.62055
1718.35093	0.64261
1716.42236	0.67462
1714.49380	0.70431
1712.56523	0.72856
1710.63667	0.75249
1708.70811	0.77825
1706.77954	0.80732
1704.85098	0.84213
1702.92241	0.87361
1700.99385	0.90506
1699.06528	0.95146
1697.13672	0.99388
1695.20815	1.03746
1693.27959	1.08001
1691.35103	1.11450
1689.42246	1.15453
1687.49390	1.19689
1685.56533	1.23779
1683.63677	1.30061
1681.70820	1.36574
1679.77964	1.40757
1677.85107	1.44767
1675.92251	1.49421
1673.99395	1.55186
1672.06538	1.60312
1670.13682	1.65336
1668.20825	1.71830
1666.27969	1.77144
1664.35112	1.81835
1662.42256	1.87875
1660.49399	1.94578
1658.56543	1.99757
1656.63687	2.04010
1654.70830	2.07878
1652.77974	2.13636
1650.85117	2.19107
1648.92261	2.21317
1646.99404	2.24235
1645.06548	2.27138
1643.13691	2.28779
1641.20835	2.29779
1639.27979	2.30904
1637.35122	2.31837
1635.42266	2.32018
1633.49409	2.30958
1631.56553	2.29247
1629.63696	2.27372
1627.70840	2.24470
1625.77983	2.21119
1623.85127	2.16900
1621.92271	2.11662
1619.99414	2.07007
1618.06558	2.02545
1616.13701	1.96135
1614.20845	1.89494
1612.27988	1.84418
1610.35132	1.79183
1608.42275	1.73578
1606.49419	1.68050
1604.56562	1.62911
1602.63706	1.57997
1600.70850	1.53286
1598.77993	1.48916
1596.85137	1.44727
1594.92280	1.40674
1592.99424	1.36826
1591.06567	1.33302
1589.13711	1.29971
1587.20854	1.26892
1585.27998	1.24089
1583.35142	1.21471
1581.42285	1.19072
1579.49429	1.17066
1577.56572	1.15335
1575.63716	1.13205
1573.70859	1.11244
1571.78003	1.09972
1569.85146	1.08758
1567.92290	1.07451
1565.99434	1.06440
1564.06577	1.05656
1562.13721	1.05071
1560.20864	1.04799
1558.28008	1.04736
1556.35151	1.04591
1554.42295	1.04383
1552.49438	1.04184
1550.56582	1.03881
1548.63726	1.03371
1546.70869	1.02721
1544.78013	1.01933
1542.85156	1.00949
1540.92300	0.99514
1538.99443	0.97049
1537.06587	0.95020
1535.13730	0.93621
1533.20874	0.91870
1531.28018	0.90012
1529.35161	0.88681
1527.42305	0.87478
1525.49448	0.86232
1523.56592	0.85163
1521.63735	0.84128
1519.70879	0.83019
1517.78022	0.82093
1515.85166	0.81050
1513.92310	0.79909
1511.99453	0.78932
1510.06597	0.78118
1508.13740	0.77392
1506.20884	0.76157
1504.28027	0.74901
1502.35171	0.74179
1500.42314	0.73613
1498.49458	0.73051
1496.56602	0.72384
1494.63745	0.71669
1492.70889	0.71110
1490.78032	0.70666
1488.85176	0.70141
1486.92319	0.69566
1484.99463	0.69094
1483.06606	0.68740
1481.13750	0.68458
1479.20894	0.68229
1477.28037	0.68088
1475.35181	0.68042
1473.42324	0.68041
1471.49468	0.67880
1469.56611	0.67549
1467.63755	0.67261
1465.70898	0.67069
1463.78042	0.66906
1461.85186	0.66765
1459.92329	0.66725
1457.99473	0.66805
1456.06616	0.66799
1454.13760	0.66525
1452.20903	0.66223
1450.28047	0.65965
1448.35190	0.65743
1446.42334	0.65501
1444.49478	0.65241
1442.56621	0.65004
1440.63765	0.64781
1438.70908	0.64570
1436.78052	0.64324
1434.85195	0.63998
1432.92339	0.63709
1430.99482	0.63516
1429.06626	0.63401
1427.13770	0.63364
1425.20913	0.63392
1423.28057	0.63437
1421.35200	0.63456
1419.42344	0.63480
1417.49487	0.63478
1415.56631	0.63371
1413.63774	0.63251
1411.70918	0.63200
1409.78062	0.63228
1407.85205	0.63304
1405.92349	0.63417
1403.99492	0.63523
1402.06636	0.63546
1400.13779	0.63485
1398.20923	0.63356
1396.28066	0.63167
1394.35210	0.62876
1392.42354	0.62481
1390.49497	0.62098
1388.56641	0.61755
1386.63784	0.61364
1384.70928	0.60908
1382.78071	0.60465
1380.85215	0.60072
1378.92358	0.59748
1376.99502	0.59499
1375.06646	0.59322
1373.13789	0.59186
1371.20933	0.59075
1369.28076	0.58993
1367.35220	0.58896
1365.42363	0.58769
1363.49507	0.58649
1361.56650	0.58520
1359.63794	0.58373
1357.70937	0.58244
1355.78081	0.58137
1353.85225	0.58041
1351.92368	0.57954
1349.99512	0.57877
1348.06655	0.57809
1346.13799	0.57737
1344.20942	0.57655
1342.28086	0.57592
1340.35229	0.57561
1338.42373	0.57519
1336.49517	0.57454
1334.56660	0.57393
1332.63804	0.57350
1330.70947	0.57337
1328.78091	0.57354
1326.85234	0.57391
1324.92378	0.57440
1322.99521	0.57495
1321.06665	0.57545
1319.13809	0.57584
1317.20952	0.57598
1315.28096	0.57580
1313.35239	0.57538
1311.42383	0.57479
1309.49526	0.57411
1307.56670	0.57355
1305.63813	0.57307
1303.70957	0.57250
1301.78101	0.57175
1299.85244	0.57074
1297.92388	0.56963
1295.99531	0.56862
1294.06675	0.56766
1292.13818	0.56664
1290.20962	0.56559
1288.28105	0.56450
1286.35249	0.56330
1284.42393	0.56212
1282.49536	0.56108
1280.56680	0.56014
1278.63823	0.55916
1276.70967	0.55810
1274.78110	0.55703
1272.85254	0.55615
1270.92397	0.55554
1268.99541	0.55501
1267.06685	0.55443
1265.13828	0.55378
1263.20972	0.55304
1261.28115	0.55230
1259.35259	0.55162
1257.42402	0.55101
1255.49546	0.55061
1253.56689	0.55041
1251.63833	0.55032
1249.70977	0.55036
1247.78120	0.55030
1245.85264	0.55000
1243.92407	0.54961
1241.99551	0.54899
1240.06694	0.54795
1238.13838	0.54658
1236.20981	0.54501
1234.28125	0.54328
1232.35269	0.54150
1230.42412	0.53972
1228.49556	0.53805
1226.56699	0.53656
1224.63843	0.53515
1222.70986	0.53378
1220.78130	0.53251
1218.85273	0.53130
1216.92417	0.53025
1214.99561	0.52936
1213.06704	0.52844
1211.13848	0.52771
1209.20991	0.52724
1207.28135	0.52664
1205.35278	0.52576
1203.42422	0.52474
1201.49565	0.52378
1199.56709	0.52304
1197.63853	0.52249
1195.70996	0.52200
1193.78140	0.52158
1191.85283	0.52129
1189.92427	0.52104
1187.99570	0.52077
1186.06714	0.52065
1184.13857	0.52072
1182.21001	0.52093
1180.28145	0.52148
1178.35288	0.52242
1176.42432	0.52349
1174.49575	0.52444
1172.56719	0.52511
1170.63862	0.52539
1168.71006	0.52531
1166.78149	0.52508
1164.85293	0.52485
1162.92437	0.52456
1160.99580	0.52406
1159.06724	0.52339
1157.13867	0.52275
1155.21011	0.52192
1153.28154	0.52060
1151.35298	0.51896
1149.42441	0.51712
1147.49585	0.51501
1145.56729	0.51270
1143.63872	0.51036
1141.71016	0.50810
1139.78159	0.50595
1137.85303	0.50408
1135.92446	0.50273
1133.99590	0.50191
1132.06733	0.50129
1130.13877	0.50061
1128.21021	0.49984
1126.28164	0.49918
1124.35308	0.49862
1122.42451	0.49785
1120.49595	0.49692
1118.56738	0.49622
1116.63882	0.49578
1114.71025	0.49573
1112.78169	0.49614
1110.85312	0.49665
1108.92456	0.49709
1106.99600	0.49768
1105.06743	0.49872
1103.13887	0.50030
1101.21030	0.50217
1099.28174	0.50431
1097.35317	0.50691
1095.42461	0.50988
1093.49604	0.51323
1091.56748	0.51722
1089.63892	0.52185
1087.71035	0.52712
1085.78179	0.53323
1083.85322	0.54002
1081.92466	0.54645
1079.99609	0.55140
1078.06753	0.55451
1076.13896	0.55545
1074.21040	0.55351
1072.28184	0.54892
1070.35327	0.54283
1068.42471	0.53622
1066.49614	0.52969
1064.56758	0.52367
1062.63901	0.51833
1060.71045	0.51342
1058.78188	0.50865
1056.85332	0.50418
1054.92476	0.50046
1052.99619	0.49758
1051.06763	0.49515
1049.13906	0.49288
1047.21050	0.49096
1045.28193	0.48948
1043.35337	0.48818
1041.42480	0.48692
1039.49624	0.48572
1037.56768	0.48484
1035.63911	0.48430
1033.71055	0.48374
1031.78198	0.48323
1029.85342	0.48300
1027.92485	0.48300
1025.99629	0.48301
1024.06772	0.48296
1022.13916	0.48301
1020.21060	0.48339
1018.28203	0.48402
1016.35347	0.48468
1014.42490	0.48543
1012.49634	0.48645
1010.56777	0.48771
1008.63921	0.48902
1006.71064	0.49038
1004.78208	0.49207
1002.85352	0.49426
1000.92495	0.49701
998.99639	0.50038
997.06782	0.50413
995.13926	0.50809
993.21069	0.51205
991.28213	0.51547
989.35356	0.51788
987.42500	0.51929
985.49644	0.52010
983.56787	0.52072
981.63931	0.52151
979.71074	0.52282
977.78218	0.52457
975.85361	0.52651
973.92505	0.52882
971.99648	0.53182
970.06792	0.53551
968.13936	0.53950
966.21079	0.54362
964.28223	0.54783
962.35366	0.55222
960.42510	0.55719
958.49653	0.56261
956.56797	0.56807
954.63940	0.57378
952.71084	0.58001
950.78228	0.58645
948.85371	0.59269
946.92515	0.59878
944.99658	0.60490
943.06802	0.61110
941.13945	0.61716
939.21089	0.62287
937.28232	0.62848
935.35376	0.63397
933.42520	0.63910
931.49663	0.64436
929.56807	0.65047
927.63950	0.65716
925.71094	0.66375
923.78237	0.66992
921.85381	0.67569
919.92524	0.68131
917.99668	0.68744
916.06812	0.69468
914.13955	0.70268
912.21099	0.71114
910.28242	0.72025
908.35386	0.72877
906.42529	0.73587
904.49673	0.74372
902.56816	0.75331
900.63960	0.76277
898.71104	0.77204
896.78247	0.78203
894.85391	0.79190
892.92534	0.80066
890.99678	0.80915
889.06821	0.81967
887.13965	0.83206
885.21108	0.84387
883.28252	0.85478
881.35396	0.86605
879.42539	0.87815
877.49683	0.89041
875.56826	0.90212
873.63970	0.91291
871.71113	0.92279
869.78257	0.93201
867.85400	0.94227
865.92544	0.95572
863.99687	0.97008
862.06831	0.98147
860.13975	0.99166
858.21118	1.00392
856.28262	1.01674
854.35405	1.02856
852.42549	1.04012
850.49692	1.05044
848.56836	1.05859
846.63979	1.06781
844.71123	1.08091
842.78267	1.09531
840.85410	1.10824
838.92554	1.12039
836.99697	1.13274
835.06841	1.14476
833.13984	1.15616
831.21128	1.16813
829.28271	1.18274
827.35415	1.19973
825.42559	1.21383
823.49702	1.22424
821.56846	1.23948
819.63989	1.25983
817.71133	1.27060
815.78276	1.27389
813.85420	1.28252
811.92563	1.29522
809.99707	1.31244
808.06851	1.32690
806.13994	1.33270
804.21138	1.34727
802.28281	1.37471
800.35425	1.39723
798.42568	1.41392
796.49712	1.42903
794.56855	1.45698
792.63999	1.52186
790.71143	1.56267
788.78286	1.53678
786.85430	1.52773
784.92573	1.58316
782.99717	1.65814
781.06860	1.72962
779.14004	1.85279
777.21147	1.78493
775.28291	1.54217
773.35435	1.46518
771.42578	1.63564
769.49722	2.14479
767.56865	2.19549
765.64009	1.82717
763.71152	1.71538
761.78296	1.68717
759.85439	1.66864
757.92583	1.50126
755.99727	1.31937
754.06870	1.24126
752.14014	1.19379
750.21157	1.15296
748.28301	1.14426
746.35444	1.10228
744.42588	1.06360
742.49731	1.08438
740.56875	1.03900
738.64019	0.91082
736.71162	0.83662
734.78306	0.87857
732.85449	0.96049
730.92593	0.80118
728.99736	0.56290
727.06880	0.44538
725.14023	0.33455
723.21167	0.15726
721.28311	0.00253
719.35454	-0.05387
717.42598	0.03662
715.49741	0.11734
713.56885	0.12584
711.64028	0.06409
709.71172	0.02629
707.78315	0.03548
705.85459	0.01468
703.92603	0.10056
701.99746	0.26255
700.06890	0.24417
698.14033	0.15953
696.21177	0.19530
694.28320	0.24720
692.35464	0.20517
690.42607	0.21384
688.49751	0.28813
686.56895	0.33495
684.64038	0.30474
682.71182	0.26962
680.78325	0.31064
678.85469	0.38524
676.92612	0.35646
674.99756	0.25263
673.06899	0.23402
671.14043	0.25516
669.21187	0.25430
667.28330	0.23377
665.35474	0.24388
663.42617	0.31307
661.49761	0.44500
659.56904	0.54867
657.64048	0.38353
655.71191	0.18985
653.78335	0.09751
651.85479	0.13840
649.92622	0.22950
647.99766	0.25408
646.06909	0.22017
644.14053	0.26348
642.21196	0.40458
640.28340	0.48050
638.35483	0.32353
636.42627	0.21710
634.49771	0.20231
632.56914	0.17357
630.64058	0.09882
628.71201	0.07610
626.78345	0.14056
624.85488	0.23466
622.92632	0.22800
620.99775	0.16782
619.06919	0.17331
617.14062	0.21748
615.21206	0.21373
613.28350	0.20152
611.35493	0.22339
609.42637	0.22968
607.49780	0.18258
605.56924	0.13224
603.64067	0.12122
601.71211	0.14087
599.78354	0.17133
597.85498	0.18699
595.92642	0.17913
593.99785	0.19619
592.06929	0.20794
590.14072	0.14254
588.21216	0.09916
586.28359	0.13413
584.35503	0.16448
582.42646	0.16609
580.49790	0.16828
578.56934	0.14298
576.64077	0.12447
574.71221	0.19216
572.78364	0.31065
570.85508	0.36275
568.92651	0.34338
566.99795	0.27585
565.06938	0.18005
563.14082	0.13931
561.21226	0.14514
559.28369	0.13291
557.35513	0.10674
555.42656	0.11454
553.49800	0.15345
551.56943	0.19072
549.64087	0.20955
547.71230	0.21366
545.78374	0.17886
543.85518	0.14275
541.92661	0.16627
539.99805	0.20721
538.06948	0.17648
536.14092	0.16714
534.21235	0.22273
532.28379	0.24694
530.35522	0.19732
528.42666	0.13314
526.49810	0.10737
524.56953	0.13112
522.64097	0.16810
520.71240	0.17286
518.78384	0.16177
516.85527	0.15353
514.92671	0.13598
512.99814	0.14086
511.06958	0.17176
509.14102	0.18122
507.21245	0.14454
505.28389	0.12155
503.35532	0.14819
501.42676	0.20863
499.49819	0.23807
