3997.91411	0.06210
3995.98555	0.06222
3994.05698	0.06237
3992.12842	0.06280
3990.19985	0.06349
3988.27129	0.06375
3986.34272	0.06347
3984.41416	0.06343
3982.48560	0.06388
3980.55703	0.06432
3978.62847	0.06460
3976.69990	0.06501
3974.77134	0.06546
3972.84277	0.06565
3970.91421	0.06585
3968.98564	0.06640
3967.05708	0.06668
3965.12852	0.06640
3963.19995	0.06627
3961.27139	0.06675
3959.34282	0.06741
3957.41426	0.06761
3955.48569	0.06731
3953.55713	0.06712
3951.62856	0.06780
3949.70000	0.06913
3947.77144	0.06988
3945.84287	0.06968
3943.91431	0.06970
3941.98574	0.06980
3940.05718	0.06875
3938.12861	0.06744
3936.20005	0.06711
3934.27148	0.06796
3932.34292	0.06974
3930.41436	0.07086
3928.48579	0.06995
3926.55723	0.06872
3924.62866	0.06915
3922.70010	0.07006
3920.77153	0.06980
3918.84297	0.06958
3916.91440	0.07022
3914.98584	0.07006
3913.05728	0.06849
3911.12871	0.06713
3909.20015	0.06691
3907.27158	0.06790
3905.34302	0.07049
3903.41445	0.07417
3901.48589	0.07634
3899.55732	0.07575
3897.62876	0.07324
3895.70020	0.07067
3893.77163	0.07009
3891.84307	0.07124
3889.91450	0.07156
3887.98594	0.07068
3886.05737	0.07135
3884.12881	0.07318
3882.20024	0.07366
3880.27168	0.07348
3878.34312	0.07265
3876.41455	0.07149
3874.48599	0.07214
3872.55742	0.07402
3870.62886	0.07566
3868.70029	0.07634
3866.77173	0.07544
3864.84316	0.07568
3862.91460	0.07722
3860.98604	0.07682
3859.05747	0.07561
3857.12891	0.07607
3855.20034	0.07840
3853.27178	0.08228
3851.34321	0.08408
3849.41465	0.08116
3847.48608	0.07796
3845.55752	0.07661
3843.62896	0.07766
3841.70039	0.08067
3839.77183	0.08417
3837.84326	0.08695
3835.91470	0.08729
3833.98613	0.08560
3832.05757	0.08424
3830.12900	0.08372
3828.20044	0.08369
3826.27187	0.08450
3824.34331	0.08617
3822.41475	0.08896
3820.48618	0.09287
3818.55762	0.09407
3816.62905	0.09313
3814.70049	0.09236
3812.77192	0.09041
3810.84336	0.08899
3808.91479	0.09006
3806.98623	0.09312
3805.05767	0.09580
3803.12910	0.09774
3801.20054	0.10089
3799.27197	0.10307
3797.34341	0.10280
3795.41484	0.10230
3793.48628	0.10165
3791.55771	0.10113
3789.62915	0.10146
3787.70059	0.10282
3785.77202	0.10543
3783.84346	0.10828
3781.91489	0.10981
3779.98633	0.11110
3778.05776	0.11308
3776.12920	0.11406
3774.20063	0.11440
3772.27207	0.11586
3770.34351	0.11895
3768.41494	0.12260
3766.48638	0.12517
3764.55781	0.12685
3762.62925	0.12801
3760.70068	0.13010
3758.77212	0.13405
3756.84355	0.13748
3754.91499	0.13948
3752.98643	0.14292
3751.05786	0.14958
3749.12930	0.15611
3747.20073	0.15781
3745.27217	0.15869
3743.34360	0.16174
3741.41504	0.16454
3739.48647	0.16653
3737.55791	0.17020
3735.62935	0.17726
3733.70078	0.18502
3731.77222	0.18806
3729.84365	0.18887
3727.91509	0.19152
3725.98652	0.19716
3724.05796	0.20452
3722.12939	0.21168
3720.20083	0.21833
3718.27227	0.22471
3716.34370	0.23163
3714.41514	0.23975
3712.48657	0.25070
3710.55801	0.26598
3708.62944	0.28023
3706.70088	0.29034
3704.77231	0.30067
3702.84375	0.31408
3700.91519	0.33149
3698.98662	0.34956
3697.05806	0.36644
3695.12949	0.38537
3693.20093	0.40667
3691.27236	0.43063
3689.34380	0.46091
3687.41523	0.49527
3685.48667	0.52385
3683.55811	0.54897
3681.62954	0.57717
3679.70098	0.61032
3677.77241	0.64641
3675.84385	0.68890
3673.91528	0.74267
3671.98672	0.78475
3670.05815	0.82342
3668.12959	0.87688
3666.20103	0.92395
3664.27246	0.96302
3662.34390	1.00665
3660.41533	1.05515
3658.48677	1.10286
3656.55820	1.15297
3654.62964	1.20894
3652.70107	1.25663
3650.77251	1.29923
3648.84395	1.35806
3646.91538	1.42704
3644.98682	1.47521
3643.05825	1.51237
3641.12969	1.55161
3639.20112	1.59619
3637.27256	1.64182
3635.34399	1.68582
3633.41543	1.72991
3631.48687	1.77231
3629.55830	1.81615
3627.62974	1.87139
3625.70117	1.91974
3623.77261	1.95162
3621.84404	1.98382
3619.91548	2.02290
3617.98691	2.07083
3616.05835	2.11505
3614.12979	2.15104
3612.20122	2.19038
3610.27266	2.22985
3608.34409	2.26898
3606.41553	2.31105
3604.48696	2.34934
3602.55840	2.38379
3600.62983	2.42259
3598.70127	2.46448
3596.77271	2.50415
3594.84414	2.54487
3592.91558	2.58734
3590.98701	2.62582
3589.05845	2.66212
3587.12988	2.70779
3585.20132	2.75616
3583.27275	2.79444
3581.34419	2.83121
3579.41562	2.87245
3577.48706	2.91487
3575.55850	2.95673
3573.62993	3.00109
3571.70137	3.04468
3569.77280	3.08544
3567.84424	3.12977
3565.91567	3.18353
3563.98711	3.23209
3562.05854	3.27138
3560.12998	3.31423
3558.20142	3.36089
3556.27285	3.40555
3554.34429	3.44735
3552.41572	3.49222
3550.48716	3.54008
3548.55859	3.58565
3546.63003	3.63061
3544.70146	3.67880
3542.77290	3.72717
3540.84434	3.77319
3538.91577	3.81862
3536.98721	3.86420
3535.05864	3.91134
3533.13008	3.95897
3531.20151	4.00584
3529.27295	4.05341
3527.34438	4.10506
3525.41582	4.15602
3523.48726	4.20273
3521.55869	4.24893
3519.63013	4.29331
3517.70156	4.33734
3515.77300	4.38437
3513.84443	4.43683
3511.91587	4.49096
3509.98730	4.54077
3508.05874	4.58876
3506.13018	4.63703
3504.20161	4.68213
3502.27305	4.72557
3500.34448	4.77223
3498.41592	4.81906
3496.48735	4.86451
3494.55879	4.91235
3492.63022	4.96492
3490.70166	5.02058
3488.77310	5.07358
3486.84453	5.12130
3484.91597	5.16664
3482.98740	5.20876
3481.05884	5.24805
3479.13027	5.29278
3477.20171	5.34829
3475.27314	5.40875
3473.34458	5.46684
3471.41602	5.51914
3469.48745	5.56006
3467.55889	5.59603
3465.63032	5.64417
3463.70176	5.70306
3461.77319	5.75945
3459.84463	5.81464
3457.91606	5.86826
3455.98750	5.91452
3454.05894	5.95825
3452.13037	6.00828
3450.20181	6.06072
3448.27324	6.10775
3446.34468	6.15748
3444.41611	6.20876
3442.48755	6.25529
3440.55898	6.30113
3438.63042	6.35396
3436.70186	6.41406
3434.77329	6.47566
3432.84473	6.52849
3430.91616	6.56110
3428.98760	6.59051
3427.05903	6.63412
3425.13047	6.69261
3423.20190	6.75199
3421.27334	6.81065
3419.34478	6.87858
3417.41621	6.95491
3415.48765	7.03196
3413.55908	7.08871
3411.63052	7.12875
3409.70195	7.14264
3407.77339	7.12314
3405.84482	7.12676
3403.91626	7.18701
3401.98770	7.25492
3400.05913	7.29227
3398.13057	7.31960
3396.20200	7.37106
3394.27344	7.45305
3392.34487	7.52716
3390.41631	7.56810
3388.48774	7.57258
3386.55918	7.58782
3384.63062	7.64246
3382.70205	7.69015
3380.77349	7.69797
3378.84492	7.70521
3376.91636	7.73918
3374.98779	7.76511
3373.05923	7.77832
3371.13066	7.77461
3369.20210	7.77674
3367.27354	7.81851
3365.34497	7.89132
3363.41641	7.96078
3361.48784	8.00418
3359.55928	8.02809
3357.63071	8.03428
3355.70215	8.05170
3353.77358	8.07697
3351.84502	8.09783
3349.91646	8.10843
3347.98789	8.12361
3346.05933	8.15179
3344.13076	8.15297
3342.20220	8.12994
3340.27363	8.12947
3338.34507	8.15631
3336.41650	8.16081
3334.48794	8.15758
3332.55937	8.13290
3330.63081	8.08626
3328.70225	8.09384
3326.77368	8.14925
3324.84512	8.17213
3322.91655	8.14175
3320.98799	8.11246
3319.05942	8.10920
3317.13086	8.12159
3315.20229	8.14857
3313.27373	8.19839
3311.34517	8.18103
3309.41660	8.14673
3307.48804	8.23397
3305.55947	8.30576
3303.63091	8.23637
3301.70234	8.13086
3299.77378	8.10403
3297.84521	8.16650
3295.91665	8.25604
3293.98809	8.31146
3292.05952	8.34873
3290.13096	8.35426
3288.20239	8.27401
3286.27383	8.20609
3284.34526	8.20406
3282.41670	8.24625
3280.48813	8.32993
3278.55957	8.38247
3276.63101	8.32284
3274.70244	8.22819
3272.77388	8.19794
3270.84531	8.22305
3268.91675	8.27298
3266.98818	8.37784
3265.05962	8.50876
3263.13105	8.50093
3261.20249	8.37677
3259.27393	8.30112
3257.34536	8.29736
3255.41680	8.27891
3253.48823	8.29381
3251.55967	8.39516
3249.63110	8.37674
3247.70254	8.24276
3245.77397	8.18050
3243.84541	8.18956
3241.91685	8.20810
3239.98828	8.20789
3238.05972	8.25235
3236.13115	8.36346
3234.20259	8.39682
3232.27402	8.32584
3230.34546	8.27283
3228.41689	8.21879
3226.48833	8.12801
3224.55977	8.07414
3222.63120	8.07050
3220.70264	8.06210
3218.77407	8.08097
3216.84551	8.13549
3214.91694	8.12446
3212.98838	8.07543
3211.05981	8.09798
3209.13125	8.13197
3207.20269	8.08746
3205.27412	7.98695
3203.34556	7.87344
3201.41699	7.82260
3199.48843	7.81532
3197.55986	7.76973
3195.63130	7.73444
3193.70273	7.73954
3191.77417	7.71926
3189.84561	7.66252
3187.91704	7.60757
3185.98848	7.52658
3184.05991	7.42065
3182.13135	7.36677
3180.20278	7.34742
3178.27422	7.29938
3176.34565	7.23208
3174.41709	7.15917
3172.48853	7.10362
3170.55996	7.07692
3168.63140	7.03098
3166.70283	6.94388
3164.77427	6.85102
3162.84570	6.77420
3160.91714	6.70970
3158.98857	6.64672
3157.06001	6.57778
3155.13145	6.51647
3153.20288	6.46499
3151.27432	6.40254
3149.34575	6.32633
3147.41719	6.24757
3145.48862	6.17212
3143.56006	6.10627
3141.63149	6.04255
3139.70293	5.96247
3137.77437	5.87770
3135.84580	5.80246
3133.91724	5.73076
3131.98867	5.66396
3130.06011	5.59953
3128.13154	5.53030
3126.20298	5.45801
3124.27441	5.38356
3122.34585	5.30807
3120.41729	5.23315
3118.48872	5.15487
3116.56016	5.07699
3114.63159	5.00791
3112.70303	4.94224
3110.77446	4.87303
3108.84590	4.80330
3106.91733	4.73277
3104.98877	4.66188
3103.06021	4.59673
3101.13164	4.53317
3099.20308	4.46444
3097.27451	4.39434
3095.34595	4.32650
3093.41738	4.26021
3091.48882	4.19514
3089.56025	4.13018
3087.63169	4.06602
3085.70312	4.00384
3083.77456	3.94066
3081.84600	3.87660
3079.91743	3.81389
3077.98887	3.75204
3076.06030	3.69065
3074.13174	3.63172
3072.20317	3.57608
3070.27461	3.52012
3068.34604	3.46264
3066.41748	3.40499
3064.48892	3.34722
3062.56035	3.29127
3060.63179	3.23769
3058.70322	3.18304
3056.77466	3.12699
3054.84609	3.07330
3052.91753	3.02278
3050.98896	2.97307
3049.06040	2.92336
3047.13184	2.87395
3045.20327	2.82390
3043.27471	2.77372
3041.34614	2.72556
3039.41758	2.67918
3037.48901	2.63310
3035.56045	2.58813
3033.63188	2.54460
3031.70332	2.50054
3029.77476	2.45565
3027.84619	2.41169
3025.91763	2.36923
3023.98906	2.32743
3022.06050	2.28572
3020.13193	2.24475
3018.20337	2.20515
3016.27480	2.16638
3014.34624	2.12802
3012.41768	2.09034
3010.48911	2.05348
3008.56055	2.01743
3006.63198	1.98168
3004.70342	1.94573
3002.77485	1.90995
3000.84629	1.87509
2998.91772	1.84118
2996.98916	1.80809
2995.06060	1.77592
2993.13203	1.74428
2991.20347	1.71270
2989.27490	1.68120
2987.34634	1.65022
2985.41777	1.62029
2983.48921	1.59117
2981.56064	1.56232
2979.63208	1.53353
2977.70352	1.50492
2975.77495	1.47711
2973.84639	1.45034
2971.91782	1.42372
2969.98926	1.39666
2968.06069	1.36965
2966.13213	1.34358
2964.20356	1.31856
2962.27500	1.29398
2960.34644	1.26976
2958.41787	1.24633
2956.48931	1.22368
2954.56074	1.20142
2952.63218	1.17934
2950.70361	1.15724
2948.77505	1.13520
2946.84648	1.11403
2944.91792	1.09367
2942.98936	1.07328
2941.06079	1.05276
2939.13223	1.03247
2937.20366	1.01252
2935.27510	0.99293
2933.34653	0.97356
2931.41797	0.95434
2929.48940	0.93570
2927.56084	0.91783
2925.63228	0.90025
2923.70371	0.88313
2921.77515	0.86726
2919.84658	0.85265
2917.91802	0.83836
2915.98945	0.82380
2914.06089	0.80953
2912.13232	0.79585
2910.20376	0.78215
2908.27520	0.76832
2906.34663	0.75509
2904.41807	0.74238
2902.48950	0.72958
2900.56094	0.71691
2898.63237	0.70488
2896.70381	0.69322
2894.77524	0.68173
2892.84668	0.67058
2890.91812	0.65956
2888.98955	0.64837
2887.06099	0.63721
2885.13242	0.62647
2883.20386	0.61609
2881.27529	0.60571
2879.34673	0.59528
2877.41816	0.58505
2875.48960	0.57496
2873.56104	0.56489
2871.63247	0.55501
2869.70391	0.54524
2867.77534	0.53549
2865.84678	0.52594
2863.91821	0.51650
2861.98965	0.50672
2860.06108	0.49664
2858.13252	0.48692
2856.20396	0.47780
2854.27539	0.46920
2852.34683	0.46139
2850.41826	0.45435
2848.48970	0.44757
2846.56113	0.44091
2844.63257	0.43454
2842.70400	0.42844
2840.77544	0.42259
2838.84687	0.41701
2836.91831	0.41156
2834.98975	0.40603
2833.06118	0.40045
2831.13262	0.39499
2829.20405	0.38956
2827.27549	0.38399
2825.34692	0.37824
2823.41836	0.37243
2821.48979	0.36674
2819.56123	0.36118
2817.63267	0.35581
2815.70410	0.35062
2813.77554	0.34549
2811.84697	0.34052
2809.91841	0.33566
2807.98984	0.33067
2806.06128	0.32559
2804.13271	0.32067
2802.20415	0.31601
2800.27559	0.31146
2798.34702	0.30691
2796.41846	0.30246
2794.48989	0.29807
2792.56133	0.29372
2790.63276	0.28965
2788.70420	0.28584
2786.77563	0.28193
2784.84707	0.27785
2782.91851	0.27388
2780.98994	0.27017
2779.06138	0.26660
2777.13281	0.26308
2775.20425	0.25957
2773.27568	0.25606
2771.34712	0.25260
2769.41855	0.24930
2767.48999	0.24622
2765.56143	0.24311
2763.63286	0.23983
2761.70430	0.23664
2759.77573	0.23373
2757.84717	0.23105
2755.91860	0.22848
2753.99004	0.22582
2752.06147	0.22304
2750.13291	0.22029
2748.20435	0.21771
2746.27578	0.21524
2744.34722	0.21274
2742.41865	0.21022
2740.49009	0.20769
2738.56152	0.20513
2736.63296	0.20276
2734.70439	0.20065
2732.77583	0.19852
2730.84727	0.19632
2728.91870	0.19432
2726.99014	0.19250
2725.06157	0.19061
2723.13301	0.18870
2721.20444	0.18692
2719.27588	0.18524
2717.34731	0.18347
2715.41875	0.18161
2713.49019	0.17981
2711.56162	0.17809
2709.63306	0.17654
2707.70449	0.17513
2705.77593	0.17361
2703.84736	0.17205
2701.91880	0.17073
2699.99023	0.16948
2698.06167	0.16804
2696.13311	0.16646
2694.20454	0.16495
2692.27598	0.16369
2690.34741	0.16261
2688.41885	0.16156
2686.49028	0.16047
2684.56172	0.15934
2682.63315	0.15829
2680.70459	0.15728
2678.77603	0.15615
2676.84746	0.15499
2674.91890	0.15400
2672.99033	0.15305
2671.06177	0.15206
2669.13320	0.15109
2667.20464	0.15023
2665.27607	0.14944
2663.34751	0.14859
2661.41895	0.14787
2659.49038	0.14724
2657.56182	0.14648
2655.63325	0.14564
2653.70469	0.14488
2651.77612	0.14422
2649.84756	0.14375
2647.91899	0.14330
2645.99043	0.14272
2644.06187	0.14220
2642.13330	0.14189
2640.20474	0.14162
2638.27617	0.14124
2636.34761	0.14072
2634.41904	0.14025
2632.49048	0.13995
2630.56191	0.13972
2628.63335	0.13946
2626.70479	0.13912
2624.77622	0.13874
2622.84766	0.13848
2620.91909	0.13835
2618.99053	0.13826
2617.06196	0.13826
2615.13340	0.13838
2613.20483	0.13839
2611.27627	0.13820
2609.34771	0.13799
2607.41914	0.13795
2605.49058	0.13801
2603.56201	0.13803
2601.63345	0.13806
2599.70488	0.13815
2597.77632	0.13825
2595.84775	0.13836
2593.91919	0.13844
2591.99062	0.13848
2590.06206	0.13859
2588.13350	0.13885
2586.20493	0.13914
2584.27637	0.13937
2582.34780	0.13968
2580.41924	0.14020
2578.49067	0.14066
2576.56211	0.14096
2574.63354	0.14127
2572.70498	0.14168
2570.77642	0.14212
2568.84785	0.14253
2566.91929	0.14291
2564.99072	0.14337
2563.06216	0.14396
2561.13359	0.14455
2559.20503	0.14504
2557.27646	0.14555
2555.34790	0.14608
2553.41934	0.14658
2551.49077	0.14707
2549.56221	0.14764
2547.63364	0.14824
2545.70508	0.14880
2543.77651	0.14944
2541.84795	0.15021
2539.91938	0.15094
2537.99082	0.15165
2536.06226	0.15241
2534.13369	0.15307
2532.20513	0.15360
2530.27656	0.15423
2528.34800	0.15510
2526.41943	0.15592
2524.49087	0.15657
2522.56230	0.15731
2520.63374	0.15814
2518.70518	0.15893
2516.77661	0.15979
2514.84805	0.16070
2512.91948	0.16154
2510.99092	0.16244
2509.06235	0.16339
2507.13379	0.16422
2505.20522	0.16505
2503.27666	0.16595
2501.34810	0.16680
2499.41953	0.16755
2497.49097	0.16821
2495.56240	0.16900
2493.63384	0.17007
2491.70527	0.17110
2489.77671	0.17194
2487.84814	0.17278
2485.91958	0.17364
2483.99102	0.17456
2482.06245	0.17563
2480.13389	0.17668
2478.20532	0.17755
2476.27676	0.17840
2474.34819	0.17935
2472.41963	0.18033
2470.49106	0.18123
2468.56250	0.18214
2466.63394	0.18318
2464.70537	0.18420
2462.77681	0.18512
2460.84824	0.18600
2458.91968	0.18691
2456.99111	0.18790
2455.06255	0.18902
2453.13398	0.19019
2451.20542	0.19125
2449.27686	0.19214
2447.34829	0.19300
2445.41973	0.19388
2443.49116	0.19482
2441.56260	0.19596
2439.63403	0.19723
2437.70547	0.19850
2435.77690	0.19968
2433.84834	0.20076
2431.91978	0.20177
2429.99121	0.20274
2428.06265	0.20371
2426.13408	0.20483
2424.20552	0.20604
2422.27695	0.20712
2420.34839	0.20810
2418.41982	0.20929
2416.49126	0.21064
2414.56270	0.21185
2412.63413	0.21295
2410.70557	0.21415
2408.77700	0.21541
2406.84844	0.21653
2404.91987	0.21753
2402.99131	0.21853
2401.06274	0.21963
2399.13418	0.22095
2397.20562	0.22245
2395.27705	0.22396
2393.34849	0.22531
2391.41992	0.22654
2389.49136	0.22781
2387.56279	0.22918
2385.63423	0.23056
2383.70566	0.23210
2381.77710	0.23396
2379.84854	0.23594
2377.91997	0.23781
2375.99141	0.23970
2374.06284	0.24187
2372.13428	0.24428
2370.20571	0.24682
2368.27715	0.24964
2366.34858	0.25278
2364.42002	0.25541
2362.49146	0.25695
2360.56289	0.25778
2358.63433	0.25863
2356.70576	0.26013
2354.77720	0.26205
2352.84863	0.26335
2350.92007	0.26363
2348.99150	0.26365
2347.06294	0.26435
2345.13437	0.26638
2343.20581	0.26923
2341.27725	0.27131
2339.34868	0.27256
2337.42012	0.27383
2335.49155	0.27544
2333.56299	0.27718
2331.63442	0.27879
2329.70586	0.28012
2327.77729	0.28148
2325.84873	0.28289
2323.92017	0.28413
2321.99160	0.28542
2320.06304	0.28698
2318.13447	0.28866
2316.20591	0.29024
2314.27734	0.29164
2312.34878	0.29289
2310.42021	0.29424
2308.49165	0.29574
2306.56309	0.29724
2304.63452	0.29868
2302.70596	0.30012
2300.77739	0.30166
2298.84883	0.30325
2296.92026	0.30485
2294.99170	0.30661
2293.06313	0.30844
2291.13457	0.31020
2289.20601	0.31199
2287.27744	0.31383
2285.34888	0.31562
2283.42031	0.31737
2281.49175	0.31909
2279.56318	0.32090
2277.63462	0.32290
2275.70605	0.32513
2273.77749	0.32741
2271.84893	0.32955
2269.92036	0.33168
2267.99180	0.33378
2266.06323	0.33580
2264.13467	0.33785
2262.20610	0.33991
2260.27754	0.34192
2258.34897	0.34404
2256.42041	0.34625
2254.49185	0.34831
2252.56328	0.35033
2250.63472	0.35251
2248.70615	0.35469
2246.77759	0.35681
2244.84902	0.35905
2242.92046	0.36131
2240.99189	0.36352
2239.06333	0.36577
2237.13477	0.36808
2235.20620	0.37026
2233.27764	0.37233
2231.34907	0.37449
2229.42051	0.37672
2227.49194	0.37893
2225.56338	0.38112
2223.63481	0.38336
2221.70625	0.38567
2219.77769	0.38792
2217.84912	0.39002
2215.92056	0.39208
2213.99199	0.39419
2212.06343	0.39632
2210.13486	0.39850
2208.20630	0.40072
2206.27773	0.40281
2204.34917	0.40477
2202.42061	0.40687
2200.49204	0.40906
2198.56348	0.41108
2196.63491	0.41300
2194.70635	0.41505
2192.77778	0.41711
2190.84922	0.41894
2188.92065	0.42063
2186.99209	0.42234
2185.06353	0.42412
2183.13496	0.42592
2181.20640	0.42769
2179.27783	0.42934
2177.34927	0.43080
2175.42070	0.43218
2173.49214	0.43369
2171.56357	0.43530
2169.63501	0.43686
2167.70645	0.43829
2165.77788	0.43956
2163.84932	0.44079
2161.92075	0.44208
2159.99219	0.44329
2158.06362	0.44431
2156.13506	0.44523
2154.20649	0.44606
2152.27793	0.44682
2150.34937	0.44762
2148.42080	0.44841
2146.49224	0.44913
2144.56367	0.44979
2142.63511	0.45042
2140.70654	0.45092
2138.77798	0.45119
2136.84941	0.45131
2134.92085	0.45139
2132.99229	0.45142
2131.06372	0.45145
2129.13516	0.45144
2127.20659	0.45127
2125.27803	0.45096
2123.34946	0.45058
2121.42090	0.45022
2119.49233	0.44986
2117.56377	0.44940
2115.63521	0.44884
2113.70664	0.44819
2111.77808	0.44741
2109.84951	0.44654
2107.92095	0.44556
2105.99238	0.44445
2104.06382	0.44333
2102.13525	0.44217
2100.20669	0.44091
2098.27812	0.43963
2096.34956	0.43833
2094.42100	0.43692
2092.49243	0.43541
2090.56387	0.43392
2088.63530	0.43241
2086.70674	0.43076
2084.77817	0.42899
2082.84961	0.42715
2080.92104	0.42514
2078.99248	0.42299
2077.06392	0.42091
2075.13535	0.41905
2073.20679	0.41716
2071.27822	0.41504
2069.34966	0.41287
2067.42109	0.41085
2065.49253	0.40882
2063.56396	0.40656
2061.63540	0.40413
2059.70684	0.40166
2057.77827	0.39918
2055.84971	0.39669
2053.92114	0.39417
2051.99258	0.39163
2050.06401	0.38906
2048.13545	0.38654
2046.20688	0.38407
2044.27832	0.38163
2042.34976	0.37916
2040.42119	0.37647
2038.49263	0.37360
2036.56406	0.37079
2034.63550	0.36808
2032.70693	0.36536
2030.77837	0.36264
2028.84980	0.35992
2026.92124	0.35727
2024.99268	0.35469
2023.06411	0.35212
2021.13555	0.34954
2019.20698	0.34702
2017.27842	0.34448
2015.34985	0.34162
2013.42129	0.33855
2011.49272	0.33566
2009.56416	0.33293
2007.63560	0.33018
2005.70703	0.32752
2003.77847	0.32499
2001.84990	0.32255
1999.92134	0.32006
1997.99277	0.31743
1996.06421	0.31486
1994.13564	0.31262
1992.20708	0.31048
1990.27852	0.30795
1988.34995	0.30520
1986.42139	0.30255
1984.49282	0.30004
1982.56426	0.29759
1980.63569	0.29520
1978.70713	0.29300
1976.77856	0.29084
1974.85000	0.28855
1972.92144	0.28626
1970.99287	0.28417
1969.06431	0.28236
1967.13574	0.28063
1965.20718	0.27851
1963.27861	0.27621
1961.35005	0.27411
1959.42148	0.27213
1957.49292	0.27028
1955.56436	0.26858
1953.63579	0.26687
1951.70723	0.26509
1949.77866	0.26335
1947.85010	0.26179
1945.92153	0.26048
1943.99297	0.25936
1942.06440	0.25806
1940.13584	0.25630
1938.20728	0.25455
1936.27871	0.25309
1934.35015	0.25174
1932.42158	0.25043
1930.49302	0.24920
1928.56445	0.24809
1926.63589	0.24711
1924.70732	0.24647
1922.77876	0.24596
1920.85020	0.24502
1918.92163	0.24397
1916.99307	0.24291
1915.06450	0.24156
1913.13594	0.24038
1911.20737	0.23974
1909.27881	0.23931
1907.35024	0.23863
1905.42168	0.23773
1903.49312	0.23692
1901.56455	0.23625
1899.63599	0.23563
1897.70742	0.23523
1895.77886	0.23504
1893.85029	0.23477
1891.92173	0.23451
1889.99316	0.23454
1888.06460	0.23427
1886.13604	0.23358
1884.20747	0.23310
1882.27891	0.23291
1880.35034	0.23286
1878.42178	0.23281
1876.49321	0.23278
1874.56465	0.23275
1872.63608	0.23294
1870.70752	0.23377
1868.77896	0.23519
1866.85039	0.23557
1864.92183	0.23460
1862.99326	0.23391
1861.06470	0.23399
1859.13613	0.23440
1857.20757	0.23475
1855.27900	0.23505
1853.35044	0.23539
1851.42187	0.23595
1849.49331	0.23682
1847.56475	0.23792
1845.63618	0.23919
1843.70762	0.24040
1841.77905	0.24075
1839.85049	0.24072
1837.92192	0.24140
1835.99336	0.24235
1834.06479	0.24321
1832.13623	0.24445
1830.20767	0.24645
1828.27910	0.24818
1826.35054	0.24914
1824.42197	0.25023
1822.49341	0.25099
1820.56484	0.25167
1818.63628	0.25282
1816.70771	0.25439
1814.77915	0.25607
1812.85059	0.25814
1810.92202	0.26056
1808.99346	0.26257
1807.06489	0.26423
1805.13633	0.26609
1803.20776	0.26855
1801.27920	0.27147
1799.35063	0.27446
1797.42207	0.27693
1795.49351	0.27936
1793.56494	0.28248
1791.63638	0.28634
1789.70781	0.28930
1787.77925	0.29128
1785.85068	0.29417
1783.92212	0.29790
1781.99355	0.30202
1780.06499	0.30641
1778.13643	0.31062
1776.20786	0.31465
1774.27930	0.31954
1772.35073	0.32618
1770.42217	0.33240
1768.49360	0.33693
1766.56504	0.34141
1764.63647	0.34640
1762.70791	0.35244
1760.77935	0.36009
1758.85078	0.36700
1756.92222	0.37391
1754.99365	0.38138
1753.06509	0.38832
1751.13652	0.39725
1749.20796	0.40858
1747.27939	0.41891
1745.35083	0.42745
1743.42227	0.43666
1741.49370	0.44715
1739.56514	0.45957
1737.63657	0.47195
1735.70801	0.48319
1733.77944	0.50045
1731.85088	0.52010
1729.92231	0.53465
1727.99375	0.54940
1726.06519	0.56581
1724.13662	0.58424
1722.20806	0.60420
1720.27949	0.62294
1718.35093	0.64568
1716.42236	0.67859
1714.49380	0.70810
1712.56523	0.73133
1710.63667	0.75445
1708.70811	0.78002
1706.77954	0.80951
1704.85098	0.84455
1702.92241	0.87553
1700.99385	0.90608
1699.06528	0.95084
1697.13672	0.99117
1695.20815	1.03196
1693.27959	1.07145
1691.35103	1.10335
1689.42246	1.14052
1687.49390	1.17984
1685.56533	1.21801
1683.63677	1.27621
1681.70820	1.33493
1679.77964	1.37192
1677.85107	1.40776
1675.92251	1.44938
1673.99395	1.50079
1672.06538	1.54676
1670.13682	1.59167
1668.20825	1.64860
1666.27969	1.69376
1664.35112	1.73124
1662.42256	1.77702
1660.49399	1.82781
1658.56543	1.86834
1656.63687	1.90349
1654.70830	1.93859
1652.77974	1.99475
1650.85117	2.04707
1648.92261	2.06796
1646.99404	2.09656
1645.06548	2.12985
1643.13691	2.15247
1641.20835	2.16662
1639.27979	2.17867
1637.35122	2.18789
1635.42266	2.19398
1633.49409	2.19245
1631.56553	2.18244
1629.63696	2.16867
1627.70840	2.14492
1625.77983	2.11817
1623.85127	2.08537
1621.92271	2.04205
1619.99414	2.00030
1618.06558	1.95882
1616.13701	1.89985
1614.20845	1.83839
1612.27988	1.79100
1610.35132	1.74246
1608.42275	1.69016
1606.49419	1.63764
1604.56562	1.58861
1602.63706	1.54160
1600.70850	1.49563
1598.77993	1.45248
1596.85137	1.41110
1594.92280	1.37041
1592.99424	1.33080
1591.06567	1.29432
1589.13711	1.25979
1587.20854	1.22711
1585.27998	1.19648
1583.35142	1.16734
1581.42285	1.14025
1579.49429	1.11711
1577.56572	1.09644
1575.63716	1.07012
1573.70859	1.04526
1571.78003	1.02867
1569.85146	1.01161
1567.92290	0.99183
1565.99434	0.97567
1564.06577	0.96213
1562.13721	0.95115
1560.20864	0.94281
1558.28008	0.92833
1556.35151	0.91215
1554.42295	0.90092
1552.49438	0.89039
1550.56582	0.88070
1548.63726	0.87089
1546.70869	0.86182
1544.78013	0.85394
1542.85156	0.84651
1540.92300	0.83767
1538.99443	0.82305
1537.06587	0.81084
1535.13730	0.80319
1533.20874	0.79444
1531.28018	0.78443
1529.35161	0.77689
1527.42305	0.77057
1525.49448	0.76413
1523.56592	0.75819
1521.63735	0.75224
1519.70879	0.74524
1517.78022	0.73883
1515.85166	0.73198
1513.92310	0.72516
1511.99453	0.72035
1510.06597	0.71740
1508.13740	0.71547
1506.20884	0.70952
1504.28027	0.70096
1502.35171	0.69586
1500.42314	0.69253
1498.49458	0.68983
1496.56602	0.68648
1494.63745	0.68222
1492.70889	0.67903
1490.78032	0.67742
1488.85176	0.67536
1486.92319	0.67159
1484.99463	0.66797
1483.06606	0.66539
1481.13750	0.66337
1479.20894	0.66148
1477.28037	0.66009
1475.35181	0.65930
1473.42324	0.65838
1471.49468	0.65541
1469.56611	0.65123
1467.63755	0.64817
1465.70898	0.64625
1463.78042	0.64428
1461.85186	0.64222
1459.92329	0.64122
1457.99473	0.64105
1456.06616	0.63886
1454.13760	0.63475
1452.20903	0.63160
1450.28047	0.62932
1448.35190	0.62731
1446.42334	0.62484
1444.49478	0.62232
1442.56621	0.62036
1440.63765	0.61875
1438.70908	0.61756
1436.78052	0.61656
1434.85195	0.61484
1432.92339	0.61279
1430.99482	0.61112
1429.06626	0.60953
1427.13770	0.60779
1425.20913	0.60630
1423.28057	0.60514
1421.35200	0.60428
1419.42344	0.60370
1417.49487	0.60224
1415.56631	0.59961
1413.63774	0.59722
1411.70918	0.59553
1409.78062	0.59436
1407.85205	0.59352
1405.92349	0.59286
1403.99492	0.59181
1402.06636	0.59040
1400.13779	0.58934
1398.20923	0.58848
1396.28066	0.58726
1394.35210	0.58545
1392.42354	0.58326
1390.49497	0.58151
1388.56641	0.58034
1386.63784	0.57891
1384.70928	0.57680
1382.78071	0.57490
1380.85215	0.57367
1378.92358	0.57293
1376.99502	0.57250
1375.06646	0.57223
1373.13789	0.57154
1371.20933	0.57033
1369.28076	0.56931
1367.35220	0.56848
1365.42363	0.56765
1363.49507	0.56700
1361.56650	0.56620
1359.63794	0.56488
1357.70937	0.56354
1355.78081	0.56246
1353.85225	0.56145
1351.92368	0.56036
1349.99512	0.55923
1348.06655	0.55812
1346.13799	0.55709
1344.20942	0.55629
1342.28086	0.55580
1340.35229	0.55553
1338.42373	0.55487
1336.49517	0.55356
1334.56660	0.55225
1332.63804	0.55126
1330.70947	0.55041
1328.78091	0.54954
1326.85234	0.54881
1324.92378	0.54830
1322.99521	0.54788
1321.06665	0.54748
1319.13809	0.54709
1317.20952	0.54648
1315.28096	0.54562
1313.35239	0.54467
1311.42383	0.54358
1309.49526	0.54245
1307.56670	0.54153
1305.63813	0.54081
1303.70957	0.54007
1301.78101	0.53925
1299.85244	0.53852
1297.92388	0.53787
1295.99531	0.53716
1294.06675	0.53645
1292.13818	0.53576
1290.20962	0.53511
1288.28105	0.53466
1286.35249	0.53418
1284.42393	0.53355
1282.49536	0.53289
1280.56680	0.53225
1278.63823	0.53160
1276.70967	0.53101
1274.78110	0.53053
1272.85254	0.53010
1270.92397	0.52965
1268.99541	0.52917
1267.06685	0.52867
1265.13828	0.52819
1263.20972	0.52780
1261.28115	0.52751
1259.35259	0.52716
1257.42402	0.52681
1255.49546	0.52656
1253.56689	0.52622
1251.63833	0.52578
1249.70977	0.52556
1247.78120	0.52555
1245.85264	0.52541
1243.92407	0.52508
1241.99551	0.52462
1240.06694	0.52397
1238.13838	0.52317
1236.20981	0.52239
1234.28125	0.52171
1232.35269	0.52099
1230.42412	0.52020
1228.49556	0.51944
1226.56699	0.51873
1224.63843	0.51797
1222.70986	0.51713
1220.78130	0.51634
1218.85273	0.51565
1216.92417	0.51502
1214.99561	0.51444
1213.06704	0.51389
1211.13848	0.51332
1209.20991	0.51269
1207.28135	0.51215
1205.35278	0.51175
1203.42422	0.51127
1201.49565	0.51062
1199.56709	0.51002
1197.63853	0.50958
1195.70996	0.50907
1193.78140	0.50847
1191.85283	0.50793
1189.92427	0.50750
1187.99570	0.50718
1186.06714	0.50697
1184.13857	0.50685
1182.21001	0.50680
1180.28145	0.50698
1178.35288	0.50751
1176.42432	0.50827
1174.49575	0.50906
1172.56719	0.50985
1170.63862	0.51069
1168.71006	0.51158
1166.78149	0.51237
1164.85293	0.51304
1162.92437	0.51368
1160.99580	0.51417
1159.06724	0.51442
1157.13867	0.51443
1155.21011	0.51398
1153.28154	0.51293
1151.35298	0.51128
1149.42441	0.50907
1147.49585	0.50651
1145.56729	0.50376
1143.63872	0.50086
1141.71016	0.49798
1139.78159	0.49547
1137.85303	0.49344
1135.92446	0.49182
1133.99590	0.49047
1132.06733	0.48936
1130.13877	0.48849
1128.21021	0.48773
1126.28164	0.48698
1124.35308	0.48636
1122.42451	0.48592
1120.49595	0.48564
1118.56738	0.48557
1116.63882	0.48587
1114.71025	0.48663
1112.78169	0.48763
1110.85312	0.48855
1108.92456	0.48952
1106.99600	0.49073
1105.06743	0.49196
1103.13887	0.49306
1101.21030	0.49425
1099.28174	0.49579
1097.35317	0.49792
1095.42461	0.50069
1093.49604	0.50421
1091.56748	0.50873
1089.63892	0.51444
1087.71035	0.52138
1085.78179	0.52948
1083.85322	0.53807
1081.92466	0.54593
1079.99609	0.55192
1078.06753	0.55527
1076.13896	0.55562
1074.21040	0.55296
1072.28184	0.54789
1070.35327	0.54132
1068.42471	0.53409
1066.49614	0.52708
1064.56758	0.52091
1062.63901	0.51557
1060.71045	0.51090
1058.78188	0.50676
1056.85332	0.50302
1054.92476	0.49976
1052.99619	0.49703
1051.06763	0.49482
1049.13906	0.49330
1047.21050	0.49244
1045.28193	0.49206
1043.35337	0.49217
1041.42480	0.49263
1039.49624	0.49310
1037.56768	0.49345
1035.63911	0.49360
1033.71055	0.49332
1031.78198	0.49262
1029.85342	0.49166
1027.92485	0.49053
1025.99629	0.48940
1024.06772	0.48865
1022.13916	0.48838
1020.21060	0.48828
1018.28203	0.48819
1016.35347	0.48823
1014.42490	0.48852
1012.49634	0.48887
1010.56777	0.48915
1008.63921	0.48962
1006.71064	0.49042
1004.78208	0.49152
1002.85352	0.49320
1000.92495	0.49563
998.99639	0.49867
997.06782	0.50234
995.13926	0.50644
993.21069	0.51051
991.28213	0.51400
989.35356	0.51627
987.42500	0.51715
985.49644	0.51732
983.56787	0.51753
981.63931	0.51794
979.71074	0.51884
977.78218	0.52058
975.85361	0.52301
973.92505	0.52567
971.99648	0.52832
970.06792	0.53130
968.13936	0.53486
966.21079	0.53876
964.28223	0.54295
962.35366	0.54760
960.42510	0.55266
958.49653	0.55810
956.56797	0.56389
954.63940	0.56975
952.71084	0.57573
950.78228	0.58218
948.85371	0.58868
946.92515	0.59477
944.99658	0.60072
943.06802	0.60669
941.13945	0.61270
939.21089	0.61890
937.28232	0.62491
935.35376	0.63025
933.42520	0.63552
931.49663	0.64128
929.56807	0.64701
927.63950	0.65260
925.71094	0.65865
923.78237	0.66516
921.85381	0.67190
919.92524	0.67898
917.99668	0.68614
916.06812	0.69300
914.13955	0.69948
912.21099	0.70614
910.28242	0.71389
908.35386	0.72259
906.42529	0.73158
904.49673	0.74060
902.56816	0.74965
900.63960	0.75839
898.71104	0.76632
896.78247	0.77467
894.85391	0.78460
892.92534	0.79565
890.99678	0.80769
889.06821	0.81904
887.13965	0.82814
885.21108	0.83807
883.28252	0.85077
881.35396	0.86309
879.42539	0.87338
877.49683	0.88381
875.56826	0.89471
873.63970	0.90465
871.71113	0.91498
869.78257	0.92645
867.85400	0.93794
865.92544	0.94985
863.99687	0.96134
862.06831	0.97201
860.13975	0.98406
858.21118	0.99718
856.28262	1.00919
854.35405	1.02048
852.42549	1.03234
850.49692	1.04522
848.56836	1.05834
846.63979	1.06996
844.71123	1.07992
842.78267	1.08998
840.85410	1.10153
838.92554	1.11393
836.99697	1.12620
835.06841	1.13787
833.13984	1.14809
831.21128	1.15568
829.28271	1.16308
827.35415	1.17626
825.42559	1.19382
823.49702	1.20659
821.56846	1.21264
819.63989	1.22557
817.71133	1.24860
815.78276	1.26406
813.85420	1.26680
811.92563	1.26235
809.99707	1.25674
808.06851	1.26233
806.13994	1.28135
804.21138	1.30257
802.28281	1.32010
800.35425	1.34003
798.42568	1.35922
796.49712	1.36302
794.56855	1.37678
792.63999	1.41985
790.71143	1.41775
788.78286	1.34494
786.85430	1.29356
784.92573	1.32194
782.99717	1.41677
781.06860	1.49725
779.14004	1.52404
777.21147	1.53102
775.28291	1.56800
773.35435	1.66738
771.42578	1.75516
769.49722	1.68314
767.56865	1.54579
765.64009	1.50780
763.71152	1.58420
761.78296	1.62360
759.85439	1.57710
757.92583	1.46864
755.99727	1.42482
754.06870	1.57082
752.14014	1.70071
750.21157	1.64820
748.28301	1.63030
746.35444	1.41631
744.42588	1.18609
742.49731	1.14428
740.56875	1.27817
738.64019	1.43725
736.71162	1.44128
734.78306	1.29422
732.85449	1.07536
730.92593	0.83325
728.99736	0.67963
727.06880	0.63129
725.14023	0.58982
723.21167	0.52196
721.28311	0.46742
719.35454	0.34984
717.42598	0.24513
715.49741	0.22455
713.56885	0.21889
711.64028	0.26194
709.71172	0.34326
707.78315	0.40740
705.85459	0.55052
703.92603	0.97473
701.99746	4.21198
700.06890	0.56085
698.14033	0.28586
696.21177	0.25040
694.28320	0.33040
692.35464	0.45160
690.42607	0.64405
688.49751	0.74237
686.56895	0.51021
684.64038	0.36075
682.71182	0.30458
680.78325	0.27743
678.85469	0.30983
676.92612	0.40309
674.99756	0.47892
673.06899	0.38820
671.14043	0.28591
669.21187	0.26883
667.28330	0.32483
665.35474	0.36343
663.42617	0.36416
661.49761	0.33387
659.56904	0.23872
657.64048	0.21400
655.71191	0.30306
653.78335	0.37493
651.85479	0.32147
649.92622	0.23781
647.99766	0.30041
646.06909	0.51110
644.14053	0.65072
642.21196	0.58615
640.28340	0.58058
638.35483	0.82262
636.42627	1.00685
634.49771	0.63644
632.56914	0.47138
630.64058	0.38625
628.71201	0.35253
626.78345	0.37617
624.85488	0.39466
622.92632	0.36897
620.99775	0.31338
619.06919	0.29239
617.14062	0.28355
615.21206	0.24401
613.28350	0.24951
611.35493	0.31005
609.42637	0.23654
607.49780	0.14661
605.56924	0.18163
603.64067	0.30671
601.71211	0.33194
599.78354	0.22738
597.85498	0.16215
595.92642	0.17033
593.99785	0.18447
592.06929	0.17764
590.14072	0.20544
588.21216	0.28590
586.28359	0.38570
584.35503	0.36878
582.42646	0.28657
580.49790	0.27068
578.56934	0.29254
576.64077	0.33798
574.71221	0.38655
572.78364	0.37380
570.85508	0.35423
568.92651	0.31296
566.99795	0.23501
565.06938	0.18406
563.14082	0.19619
561.21226	0.26490
559.28369	0.34071
557.35513	0.29597
555.42656	0.17297
553.49800	0.17027
551.56943	0.21816
549.64087	0.23275
547.71230	0.24450
545.78374	0.26289
543.85518	0.24527
541.92661	0.20529
539.99805	0.19091
538.06948	0.22115
536.14092	0.25281
534.21235	0.21997
532.28379	0.16177
530.35522	0.16220
528.42666	0.23141
526.49810	0.28150
524.56953	0.24756
522.64097	0.14629
520.71240	0.07568
518.78384	0.10669
516.85527	0.22319
514.92671	0.27899
512.99814	0.29717
511.06958	0.51641
509.14102	3.05485
507.21245	0.90036
505.28389	0.34219
503.35532	0.23447
501.42676	0.21861
499.49819	0.23098
