3997.91411	0.06361
3995.98555	0.06418
3994.05698	0.06464
3992.12842	0.06496
3990.19985	0.06531
3988.27129	0.06568
3986.34272	0.06592
3984.41416	0.06614
3982.48560	0.06654
3980.55703	0.06688
3978.62847	0.06690
3976.69990	0.06695
3974.77134	0.06728
3972.84277	0.06771
3970.91421	0.06794
3968.98564	0.06788
3967.05708	0.06779
3965.12852	0.06792
3963.19995	0.06825
3961.27139	0.06838
3959.34282	0.06826
3957.41426	0.06829
3955.48569	0.06854
3953.55713	0.06873
3951.62856	0.06883
3949.70000	0.06899
3947.77144	0.06915
3945.84287	0.06920
3943.91431	0.06941
3941.98574	0.06989
3940.05718	0.06987
3938.12861	0.06919
3936.20005	0.06881
3934.27148	0.06929
3932.34292	0.07029
3930.41436	0.07089
3928.48579	0.07024
3926.55723	0.06917
3924.62866	0.06908
3922.70010	0.06956
3920.77153	0.06962
3918.84297	0.06959
3916.91440	0.06990
3914.98584	0.06965
3913.05728	0.06845
3911.12871	0.06758
3909.20015	0.06755
3907.27158	0.06786
3905.34302	0.06877
3903.41445	0.07059
3901.48589	0.07176
3899.55732	0.07100
3897.62876	0.06940
3895.70020	0.06856
3893.77163	0.06896
3891.84307	0.06989
3889.91450	0.07013
3887.98594	0.06959
3886.05737	0.06945
3884.12881	0.06967
3882.20024	0.06972
3880.27168	0.07001
3878.34312	0.07026
3876.41455	0.07040
3874.48599	0.07130
3872.55742	0.07263
3870.62886	0.07336
3868.70029	0.07332
3866.77173	0.07301
3864.84316	0.07317
3862.91460	0.07336
3860.98604	0.07309
3859.05747	0.07293
3857.12891	0.07341
3855.20034	0.07481
3853.27178	0.07731
3851.34321	0.07848
3849.41465	0.07658
3847.48608	0.07493
3845.55752	0.07476
3843.62896	0.07589
3841.70039	0.07784
3839.77183	0.07996
3837.84326	0.08153
3835.91470	0.08174
3833.98613	0.08114
3832.05757	0.08081
3830.12900	0.08104
3828.20044	0.08152
3826.27187	0.08203
3824.34331	0.08254
3822.41475	0.08363
3820.48618	0.08602
3818.55762	0.08777
3816.62905	0.08834
3814.70049	0.08899
3812.77192	0.08885
3810.84336	0.08844
3808.91479	0.08895
3806.98623	0.09072
3805.05767	0.09284
3803.12910	0.09461
3801.20054	0.09673
3799.27197	0.09799
3797.34341	0.09792
3795.41484	0.09803
3793.48628	0.09817
3791.55771	0.09865
3789.62915	0.09997
3787.70059	0.10171
3785.77202	0.10356
3783.84346	0.10521
3781.91489	0.10633
3779.98633	0.10768
3778.05776	0.10967
3776.12920	0.11128
3774.20063	0.11263
3772.27207	0.11443
3770.34351	0.11688
3768.41494	0.11959
3766.48638	0.12168
3764.55781	0.12323
3762.62925	0.12445
3760.70068	0.12620
3758.77212	0.12928
3756.84355	0.13267
3754.91499	0.13524
3752.98643	0.13802
3751.05786	0.14240
3749.12930	0.14701
3747.20073	0.14925
3745.27217	0.15102
3743.34360	0.15388
3741.41504	0.15646
3739.48647	0.15872
3737.55791	0.16226
3735.62935	0.16775
3733.70078	0.17337
3731.77222	0.17679
3729.84365	0.17967
3727.91509	0.18366
3725.98652	0.18957
3724.05796	0.19652
3722.12939	0.20307
3720.20083	0.20992
3718.27227	0.21739
3716.34370	0.22520
3714.41514	0.23320
3712.48657	0.24270
3710.55801	0.25595
3708.62944	0.26981
3706.70088	0.28065
3704.77231	0.29117
3702.84375	0.30433
3700.91519	0.32164
3698.98662	0.34030
3697.05806	0.35818
3695.12949	0.37744
3693.20093	0.39780
3691.27236	0.41969
3689.34380	0.44797
3687.41523	0.48285
3685.48667	0.51338
3683.55811	0.53953
3681.62954	0.56766
3679.70098	0.59954
3677.77241	0.63327
3675.84385	0.67300
3673.91528	0.72638
3671.98672	0.77078
3670.05815	0.81019
3668.12959	0.86304
3666.20103	0.91107
3664.27246	0.95167
3662.34390	0.99548
3660.41533	1.04276
3658.48677	1.08950
3656.55820	1.13945
3654.62964	1.19528
3652.70107	1.24227
3650.77251	1.28311
3648.84395	1.33937
3646.91538	1.40843
3644.98682	1.45889
3643.05825	1.49721
3641.12969	1.53698
3639.20112	1.58166
3637.27256	1.62672
3635.34399	1.67012
3633.41543	1.71342
3631.48687	1.75457
3629.55830	1.79674
3627.62974	1.85120
3625.70117	1.90186
3623.77261	1.93607
3621.84404	1.96843
3619.91548	2.00620
3617.98691	2.05292
3616.05835	2.09765
3614.12979	2.13451
3612.20122	2.17323
3610.27266	2.21252
3608.34409	2.25310
3606.41553	2.29640
3604.48696	2.33500
3602.55840	2.36879
3600.62983	2.40679
3598.70127	2.44925
3596.77271	2.48969
3594.84414	2.53009
3592.91558	2.57218
3590.98701	2.61099
3589.05845	2.64696
3587.12988	2.69078
3585.20132	2.73935
3583.27275	2.78070
3581.34419	2.81927
3579.41562	2.86043
3577.48706	2.90315
3575.55850	2.94512
3573.62993	2.98761
3571.70137	3.03020
3569.77280	3.07165
3567.84424	3.11560
3565.91567	3.16911
3563.98711	3.21897
3562.05854	3.25910
3560.12998	3.30087
3558.20142	3.34494
3556.27285	3.38902
3554.34429	3.43345
3552.41572	3.48060
3550.48716	3.52874
3548.55859	3.57531
3546.63003	3.62093
3544.70146	3.66630
3542.77290	3.71036
3540.84434	3.75493
3538.91577	3.80293
3536.98721	3.85220
3535.05864	3.90100
3533.13008	3.94827
3531.20151	3.99700
3529.27295	4.04714
3527.34438	4.09443
3525.41582	4.13950
3523.48726	4.18598
3521.55869	4.23325
3519.63013	4.27925
3517.70156	4.32879
3515.77300	4.38040
3513.84443	4.42703
3511.91587	4.47022
3509.98730	4.51870
3508.05874	4.57246
3506.13018	4.61956
3504.20161	4.66013
3502.27305	4.70727
3500.34448	4.76335
3498.41592	4.81641
3496.48735	4.86462
3494.55879	4.91544
3492.63022	4.96390
3490.70166	5.00402
3488.77310	5.04582
3486.84453	5.09589
3484.91597	5.14795
3482.98740	5.19643
3481.05884	5.24142
3479.13027	5.28630
3477.20171	5.33632
3475.27314	5.38936
3473.34458	5.43951
3471.41602	5.48304
3469.48745	5.52465
3467.55889	5.57870
3465.63032	5.63987
3463.70176	5.69302
3461.77319	5.73901
3459.84463	5.78326
3457.91606	5.83057
3455.98750	5.88503
3454.05894	5.93960
3452.13037	5.98805
3450.20181	6.03191
3448.27324	6.07098
3446.34468	6.11201
3444.41611	6.16057
3442.48755	6.21830
3440.55898	6.28005
3438.63042	6.34738
3436.70186	6.41093
3434.77329	6.45448
3432.84473	6.50246
3430.91616	6.55796
3428.98760	6.59259
3427.05903	6.61635
3425.13047	6.66281
3423.20190	6.71850
3421.27334	6.75757
3419.34478	6.79613
3417.41621	6.85266
3415.48765	6.91728
3413.55908	6.97108
3411.63052	7.00745
3409.70195	7.03133
3407.77339	7.06873
3405.84482	7.11677
3403.91626	7.15180
3401.98770	7.16221
3400.05913	7.16013
3398.13057	7.18969
3396.20200	7.27306
3394.27344	7.37176
3392.34487	7.42855
3390.41631	7.45329
3388.48774	7.47821
3386.55918	7.53074
3384.63062	7.59889
3382.70205	7.65259
3380.77349	7.69287
3378.84492	7.72574
3376.91636	7.73847
3374.98779	7.69712
3373.05923	7.67122
3371.13066	7.72327
3369.20210	7.78197
3367.27354	7.78775
3365.34497	7.80270
3363.41641	7.84177
3361.48784	7.88369
3359.55928	7.95378
3357.63071	8.02369
3355.70215	8.07080
3353.77358	8.09133
3351.84502	8.09839
3349.91646	8.08374
3347.98789	8.06713
3346.05933	8.06475
3344.13076	8.01544
3342.20220	7.96001
3340.27363	7.96945
3338.34507	8.02127
3336.41650	8.05402
3334.48794	8.05995
3332.55937	8.07282
3330.63081	8.10112
3328.70225	8.10920
3326.77368	8.11065
3324.84512	8.12148
3322.91655	8.11051
3320.98799	8.11072
3319.05942	8.11931
3317.13086	8.11248
3315.20229	8.11005
3313.27373	8.12952
3311.34517	8.12795
3309.41660	8.08370
3307.48804	8.07290
3305.55947	8.11939
3303.63091	8.15874
3301.70234	8.17099
3299.77378	8.17384
3297.84521	8.11463
3295.91665	8.04501
3293.98809	8.05303
3292.05952	8.11094
3290.13096	8.18117
3288.20239	8.26154
3286.27383	8.31344
3284.34526	8.30229
3282.41670	8.25414
3280.48813	8.17469
3278.55957	8.12768
3276.63101	8.15559
3274.70244	8.24007
3272.77388	8.30599
3270.84531	8.26533
3268.91675	8.21786
3266.98818	8.23311
3265.05962	8.25353
3263.13105	8.22080
3261.20249	8.16523
3259.27393	8.17831
3257.34536	8.21220
3255.41680	8.15497
3253.48823	8.08264
3251.55967	8.08596
3249.63110	8.16933
3247.70254	8.23492
3245.77397	8.17016
3243.84541	8.08864
3241.91685	8.06816
3239.98828	8.07256
3238.05972	8.06995
3236.13115	8.07058
3234.20259	8.10464
3232.27402	8.14075
3230.34546	8.18513
3228.41689	8.23164
3226.48833	8.18121
3224.55977	8.05391
3222.63120	8.00466
3220.70264	8.06693
3218.77407	8.13645
3216.84551	8.11691
3214.91694	8.04699
3212.98838	8.02508
3211.05981	7.98311
3209.13125	7.85678
3207.20269	7.76638
3205.27412	7.75223
3203.34556	7.73143
3201.41699	7.70095
3199.48843	7.69629
3197.55986	7.66828
3195.63130	7.61649
3193.70273	7.60271
3191.77417	7.60537
3189.84561	7.56787
3187.91704	7.46957
3185.98848	7.35305
3184.05991	7.30028
3182.13135	7.30879
3180.20278	7.29863
3178.27422	7.23350
3176.34565	7.16127
3174.41709	7.11673
3172.48853	7.06768
3170.55996	6.99952
3168.63140	6.93403
3166.70283	6.87330
3164.77427	6.80849
3162.84570	6.75582
3160.91714	6.71602
3158.98857	6.65572
3157.06001	6.58189
3155.13145	6.52046
3153.20288	6.45331
3151.27432	6.36080
3149.34575	6.26045
3147.41719	6.17735
3145.48862	6.11567
3143.56006	6.06268
3141.63149	6.00048
3139.70293	5.92516
3137.77437	5.85144
3135.84580	5.78893
3133.91724	5.73121
3131.98867	5.66652
3130.06011	5.59971
3128.13154	5.53609
3126.20298	5.46677
3124.27441	5.38818
3122.34585	5.30475
3120.41729	5.22459
3118.48872	5.15033
3116.56016	5.08383
3114.63159	5.02352
3112.70303	4.95806
3110.77446	4.88722
3108.84590	4.81897
3106.91733	4.75369
3104.98877	4.68584
3103.06021	4.61421
3101.13164	4.54450
3099.20308	4.47923
3097.27451	4.41461
3095.34595	4.34749
3093.41738	4.27985
3091.48882	4.21424
3089.56025	4.15062
3087.63169	4.08980
3085.70312	4.03167
3083.77456	3.97320
3081.84600	3.91359
3079.91743	3.85438
3077.98887	3.79571
3076.06030	3.73575
3074.13174	3.67401
3072.20317	3.61462
3070.27461	3.55931
3068.34604	3.50462
3066.41748	3.44938
3064.48892	3.39370
3062.56035	3.33740
3060.63179	3.28180
3058.70322	3.22697
3056.77466	3.17302
3054.84609	3.12078
3052.91753	3.07007
3050.98896	3.02042
3049.06040	2.97078
3047.13184	2.92031
3045.20327	2.86997
3043.27471	2.82073
3041.34614	2.77232
3039.41758	2.72547
3037.48901	2.68058
3035.56045	2.63577
3033.63188	2.59045
3031.70332	2.54557
3029.77476	2.50113
3027.84619	2.45731
3025.91763	2.41473
3023.98906	2.37315
3022.06050	2.33216
3020.13193	2.29177
3018.20337	2.25202
3016.27480	2.21261
3014.34624	2.17360
3012.41768	2.13533
3010.48911	2.09783
3008.56055	2.06095
3006.63198	2.02472
3004.70342	1.98955
3002.77485	1.95517
3000.84629	1.92099
2998.91772	1.88738
2996.98916	1.85504
2995.06060	1.82357
2993.13203	1.79197
2991.20347	1.76083
2989.27490	1.73099
2987.34634	1.70155
2985.41777	1.67211
2983.48921	1.64332
2981.56064	1.61561
2979.63208	1.58891
2977.70352	1.56246
2975.77495	1.53584
2973.84639	1.50943
2971.91782	1.48358
2969.98926	1.45859
2968.06069	1.43438
2966.13213	1.41036
2964.20356	1.38606
2962.27500	1.36165
2960.34644	1.33793
2958.41787	1.31525
2956.48931	1.29290
2954.56074	1.27001
2952.63218	1.24695
2950.70361	1.22454
2948.77505	1.20267
2946.84648	1.18108
2944.91792	1.15974
2942.98936	1.13894
2941.06079	1.11920
2939.13223	1.09994
2937.20366	1.08050
2935.27510	1.06130
2933.34653	1.04237
2931.41797	1.02322
2929.48940	1.00408
2927.56084	0.98554
2925.63228	0.96785
2923.70371	0.95116
2921.77515	0.93506
2919.84658	0.91887
2917.91802	0.90258
2915.98945	0.88612
2914.06089	0.86940
2912.13232	0.85336
2910.20376	0.83856
2908.27520	0.82422
2906.34663	0.80969
2904.41807	0.79522
2902.48950	0.78126
2900.56094	0.76775
2898.63237	0.75459
2896.70381	0.74203
2894.77524	0.72986
2892.84668	0.71788
2890.91812	0.70638
2888.98955	0.69530
2887.06099	0.68439
2885.13242	0.67365
2883.20386	0.66325
2881.27529	0.65340
2879.34673	0.64378
2877.41816	0.63383
2875.48960	0.62364
2873.56104	0.61344
2871.63247	0.60305
2869.70391	0.59247
2867.77534	0.58184
2865.84678	0.57129
2863.91821	0.56087
2861.98965	0.55033
2860.06108	0.53983
2858.13252	0.52978
2856.20396	0.52036
2854.27539	0.51153
2852.34683	0.50314
2850.41826	0.49508
2848.48970	0.48711
2846.56113	0.47891
2844.63257	0.47086
2842.70400	0.46350
2840.77544	0.45666
2838.84687	0.45014
2836.91831	0.44407
2834.98975	0.43810
2833.06118	0.43205
2831.13262	0.42609
2829.20405	0.42023
2827.27549	0.41440
2825.34692	0.40849
2823.41836	0.40256
2821.48979	0.39680
2819.56123	0.39111
2817.63267	0.38543
2815.70410	0.37986
2813.77554	0.37433
2811.84697	0.36875
2809.91841	0.36335
2807.98984	0.35820
2806.06128	0.35308
2804.13271	0.34794
2802.20415	0.34287
2800.27559	0.33802
2798.34702	0.33339
2796.41846	0.32878
2794.48989	0.32407
2792.56133	0.31938
2790.63276	0.31488
2788.70420	0.31052
2786.77563	0.30618
2784.84707	0.30190
2782.91851	0.29772
2780.98994	0.29371
2779.06138	0.28985
2777.13281	0.28599
2775.20425	0.28218
2773.27568	0.27853
2771.34712	0.27500
2769.41855	0.27151
2767.48999	0.26795
2765.56143	0.26448
2763.63286	0.26130
2761.70430	0.25818
2759.77573	0.25497
2757.84717	0.25171
2755.91860	0.24854
2753.99004	0.24552
2752.06147	0.24252
2750.13291	0.23956
2748.20435	0.23671
2746.27578	0.23386
2744.34722	0.23107
2742.41865	0.22855
2740.49009	0.22615
2738.56152	0.22373
2736.63296	0.22139
2734.70439	0.21908
2732.77583	0.21659
2730.84727	0.21399
2728.91870	0.21159
2726.99014	0.20945
2725.06157	0.20742
2723.13301	0.20541
2721.20444	0.20343
2719.27588	0.20143
2717.34731	0.19945
2715.41875	0.19764
2713.49019	0.19592
2711.56162	0.19414
2709.63306	0.19235
2707.70449	0.19064
2705.77593	0.18901
2703.84736	0.18746
2701.91880	0.18593
2699.99023	0.18451
2698.06167	0.18316
2696.13311	0.18168
2694.20454	0.18015
2692.27598	0.17876
2690.34741	0.17745
2688.41885	0.17615
2686.49028	0.17488
2684.56172	0.17362
2682.63315	0.17229
2680.70459	0.17090
2678.77603	0.16968
2676.84746	0.16862
2674.91890	0.16755
2672.99033	0.16651
2671.06177	0.16557
2669.13320	0.16459
2667.20464	0.16356
2665.27607	0.16252
2663.34751	0.16144
2661.41895	0.16037
2659.49038	0.15942
2657.56182	0.15869
2655.63325	0.15811
2653.70469	0.15748
2651.77612	0.15677
2649.84756	0.15614
2647.91899	0.15551
2645.99043	0.15476
2644.06187	0.15407
2642.13330	0.15362
2640.20474	0.15324
2638.27617	0.15260
2636.34761	0.15185
2634.41904	0.15130
2632.49048	0.15096
2630.56191	0.15059
2628.63335	0.15018
2626.70479	0.14980
2624.77622	0.14941
2622.84766	0.14900
2620.91909	0.14868
2618.99053	0.14848
2617.06196	0.14822
2615.13340	0.14791
2613.20483	0.14762
2611.27627	0.14747
2609.34771	0.14750
2607.41914	0.14751
2605.49058	0.14742
2603.56201	0.14728
2601.63345	0.14724
2599.70488	0.14731
2597.77632	0.14732
2595.84775	0.14732
2593.91919	0.14749
2591.99062	0.14772
2590.06206	0.14790
2588.13350	0.14809
2586.20493	0.14817
2584.27637	0.14825
2582.34780	0.14849
2580.41924	0.14880
2578.49067	0.14904
2576.56211	0.14926
2574.63354	0.14947
2572.70498	0.14968
2570.77642	0.14994
2568.84785	0.15024
2566.91929	0.15058
2564.99072	0.15100
2563.06216	0.15146
2561.13359	0.15195
2559.20503	0.15245
2557.27646	0.15281
2555.34790	0.15304
2553.41934	0.15333
2551.49077	0.15380
2549.56221	0.15449
2547.63364	0.15528
2545.70508	0.15598
2543.77651	0.15651
2541.84795	0.15695
2539.91938	0.15754
2537.99082	0.15824
2536.06226	0.15888
2534.13369	0.15943
2532.20513	0.15993
2530.27656	0.16043
2528.34800	0.16102
2526.41943	0.16184
2524.49087	0.16278
2522.56230	0.16363
2520.63374	0.16434
2518.70518	0.16493
2516.77661	0.16553
2514.84805	0.16632
2512.91948	0.16723
2510.99092	0.16813
2509.06235	0.16896
2507.13379	0.16971
2505.20522	0.17041
2503.27666	0.17108
2501.34810	0.17177
2499.41953	0.17258
2497.49097	0.17347
2495.56240	0.17433
2493.63384	0.17520
2491.70527	0.17602
2489.77671	0.17667
2487.84814	0.17733
2485.91958	0.17820
2483.99102	0.17919
2482.06245	0.18011
2480.13389	0.18093
2478.20532	0.18176
2476.27676	0.18266
2474.34819	0.18360
2472.41963	0.18456
2470.49106	0.18554
2468.56250	0.18646
2466.63394	0.18721
2464.70537	0.18790
2462.77681	0.18873
2460.84824	0.18977
2458.91968	0.19086
2456.99111	0.19183
2455.06255	0.19272
2453.13398	0.19362
2451.20542	0.19461
2449.27686	0.19562
2447.34829	0.19656
2445.41973	0.19744
2443.49116	0.19832
2441.56260	0.19916
2439.63403	0.20008
2437.70547	0.20109
2435.77690	0.20213
2433.84834	0.20312
2431.91978	0.20406
2429.99121	0.20513
2428.06265	0.20633
2426.13408	0.20757
2424.20552	0.20870
2422.27695	0.20969
2420.34839	0.21066
2418.41982	0.21173
2416.49126	0.21291
2414.56270	0.21413
2412.63413	0.21530
2410.70557	0.21640
2408.77700	0.21743
2406.84844	0.21846
2404.91987	0.21959
2402.99131	0.22074
2401.06274	0.22189
2399.13418	0.22309
2397.20562	0.22428
2395.27705	0.22547
2393.34849	0.22675
2391.41992	0.22801
2389.49136	0.22922
2387.56279	0.23033
2385.63423	0.23122
2383.70566	0.23188
2381.77710	0.23233
2379.84854	0.23266
2377.91997	0.23283
2375.99141	0.23265
2374.06284	0.23203
2372.13428	0.23111
2370.20571	0.23043
2368.27715	0.22999
2366.34858	0.22936
2364.42002	0.22894
2362.49146	0.22941
2360.56289	0.23026
2358.63433	0.23127
2356.70576	0.23345
2354.77720	0.23721
2352.84863	0.24199
2350.92007	0.24653
2348.99150	0.24932
2347.06294	0.25005
2345.13437	0.24955
2343.20581	0.24938
2341.27725	0.25054
2339.34868	0.25232
2337.42012	0.25426
2335.49155	0.25650
2333.56299	0.25863
2331.63442	0.26065
2329.70586	0.26289
2327.77729	0.26507
2325.84873	0.26709
2323.92017	0.26930
2321.99160	0.27189
2320.06304	0.27481
2318.13447	0.27779
2316.20591	0.28039
2314.27734	0.28252
2312.34878	0.28462
2310.42021	0.28702
2308.49165	0.28937
2306.56309	0.29153
2304.63452	0.29374
2302.70596	0.29588
2300.77739	0.29788
2298.84883	0.29997
2296.92026	0.30216
2294.99170	0.30425
2293.06313	0.30627
2291.13457	0.30840
2289.20601	0.31064
2287.27744	0.31284
2285.34888	0.31499
2283.42031	0.31717
2281.49175	0.31924
2279.56318	0.32109
2277.63462	0.32291
2275.70605	0.32486
2273.77749	0.32684
2271.84893	0.32876
2269.92036	0.33074
2267.99180	0.33286
2266.06323	0.33507
2264.13467	0.33724
2262.20610	0.33940
2260.27754	0.34160
2258.34897	0.34379
2256.42041	0.34596
2254.49185	0.34806
2252.56328	0.35014
2250.63472	0.35232
2248.70615	0.35458
2246.77759	0.35689
2244.84902	0.35912
2242.92046	0.36122
2240.99189	0.36341
2239.06333	0.36571
2237.13477	0.36789
2235.20620	0.36999
2233.27764	0.37222
2231.34907	0.37448
2229.42051	0.37663
2227.49194	0.37876
2225.56338	0.38103
2223.63481	0.38322
2221.70625	0.38526
2219.77769	0.38750
2217.84912	0.38989
2215.92056	0.39214
2213.99199	0.39431
2212.06343	0.39650
2210.13486	0.39857
2208.20630	0.40050
2206.27773	0.40242
2204.34917	0.40443
2202.42061	0.40656
2200.49204	0.40872
2198.56348	0.41078
2196.63491	0.41275
2194.70635	0.41463
2192.77778	0.41641
2190.84922	0.41825
2188.92065	0.42021
2186.99209	0.42216
2185.06353	0.42399
2183.13496	0.42570
2181.20640	0.42743
2179.27783	0.42922
2177.34927	0.43093
2175.42070	0.43245
2173.49214	0.43384
2171.56357	0.43517
2169.63501	0.43656
2167.70645	0.43794
2165.77788	0.43921
2163.84932	0.44044
2161.92075	0.44171
2159.99219	0.44292
2158.06362	0.44396
2156.13506	0.44486
2154.20649	0.44563
2152.27793	0.44634
2150.34937	0.44711
2148.42080	0.44791
2146.49224	0.44868
2144.56367	0.44928
2142.63511	0.44976
2140.70654	0.45021
2138.77798	0.45056
2136.84941	0.45074
2134.92085	0.45079
2132.99229	0.45077
2131.06372	0.45069
2129.13516	0.45062
2127.20659	0.45056
2125.27803	0.45039
2123.34946	0.45006
2121.42090	0.44961
2119.49233	0.44898
2117.56377	0.44827
2115.63521	0.44764
2113.70664	0.44705
2111.77808	0.44628
2109.84951	0.44535
2107.92095	0.44446
2105.99238	0.44355
2104.06382	0.44244
2102.13525	0.44111
2100.20669	0.43971
2098.27812	0.43835
2096.34956	0.43702
2094.42100	0.43567
2092.49243	0.43420
2090.56387	0.43256
2088.63530	0.43086
2086.70674	0.42924
2084.77817	0.42759
2082.84961	0.42574
2080.92104	0.42373
2078.99248	0.42168
2077.06392	0.41963
2075.13535	0.41758
2073.20679	0.41553
2071.27822	0.41339
2069.34966	0.41113
2067.42109	0.40885
2065.49253	0.40652
2063.56396	0.40415
2061.63540	0.40190
2059.70684	0.39969
2057.77827	0.39734
2055.84971	0.39488
2053.92114	0.39235
2051.99258	0.38976
2050.06401	0.38709
2048.13545	0.38450
2046.20688	0.38205
2044.27832	0.37960
2042.34976	0.37700
2040.42119	0.37431
2038.49263	0.37166
2036.56406	0.36903
2034.63550	0.36632
2032.70693	0.36352
2030.77837	0.36074
2028.84980	0.35800
2026.92124	0.35530
2024.99268	0.35259
2023.06411	0.34984
2021.13555	0.34704
2019.20698	0.34433
2017.27842	0.34171
2015.34985	0.33902
2013.42129	0.33621
2011.49272	0.33344
2009.56416	0.33078
2007.63560	0.32817
2005.70703	0.32551
2003.77847	0.32275
2001.84990	0.32000
1999.92134	0.31736
1997.99277	0.31475
1996.06421	0.31220
1994.13564	0.30981
1992.20708	0.30745
1990.27852	0.30493
1988.34995	0.30241
1986.42139	0.30000
1984.49282	0.29764
1982.56426	0.29532
1980.63569	0.29298
1978.70713	0.29061
1976.77856	0.28829
1974.85000	0.28610
1972.92144	0.28398
1970.99287	0.28190
1969.06431	0.27992
1967.13574	0.27798
1965.20718	0.27590
1963.27861	0.27378
1961.35005	0.27179
1959.42148	0.26987
1957.49292	0.26799
1955.56436	0.26620
1953.63579	0.26448
1951.70723	0.26281
1949.77866	0.26119
1947.85010	0.25957
1945.92153	0.25805
1943.99297	0.25673
1942.06440	0.25538
1940.13584	0.25369
1938.20728	0.25193
1936.27871	0.25050
1934.35015	0.24932
1932.42158	0.24816
1930.49302	0.24693
1928.56445	0.24571
1926.63589	0.24457
1924.70732	0.24364
1922.77876	0.24280
1920.85020	0.24186
1918.92163	0.24097
1916.99307	0.24010
1915.06450	0.23910
1913.13594	0.23811
1911.20737	0.23733
1909.27881	0.23672
1907.35024	0.23610
1905.42168	0.23532
1903.49312	0.23459
1901.56455	0.23406
1899.63599	0.23357
1897.70742	0.23313
1895.77886	0.23282
1893.85029	0.23254
1891.92173	0.23224
1889.99316	0.23201
1888.06460	0.23159
1886.13604	0.23110
1884.20747	0.23084
1882.27891	0.23074
1880.35034	0.23070
1878.42178	0.23061
1876.49321	0.23049
1874.56465	0.23037
1872.63608	0.23043
1870.70752	0.23083
1868.77896	0.23154
1866.85039	0.23180
1864.92183	0.23157
1862.99326	0.23155
1861.06470	0.23178
1859.13613	0.23209
1857.20757	0.23234
1855.27900	0.23266
1853.35044	0.23306
1851.42187	0.23356
1849.49331	0.23421
1847.56475	0.23502
1845.63618	0.23608
1843.70762	0.23726
1841.77905	0.23796
1839.85049	0.23830
1837.92192	0.23905
1835.99336	0.23995
1834.06479	0.24074
1832.13623	0.24171
1830.20767	0.24328
1828.27910	0.24492
1826.35054	0.24597
1824.42197	0.24708
1822.49341	0.24814
1820.56484	0.24918
1818.63628	0.25052
1816.70771	0.25217
1814.77915	0.25379
1812.85059	0.25556
1810.92202	0.25767
1808.99346	0.25973
1807.06489	0.26163
1805.13633	0.26356
1803.20776	0.26586
1801.27920	0.26851
1799.35063	0.27131
1797.42207	0.27369
1795.49351	0.27604
1793.56494	0.27899
1791.63638	0.28278
1789.70781	0.28611
1787.77925	0.28847
1785.85068	0.29145
1783.92212	0.29513
1781.99355	0.29908
1780.06499	0.30326
1778.13643	0.30750
1776.20786	0.31144
1774.27930	0.31583
1772.35073	0.32193
1770.42217	0.32827
1768.49360	0.33327
1766.56504	0.33810
1764.63647	0.34326
1762.70791	0.34909
1760.77935	0.35647
1758.85078	0.36340
1756.92222	0.37043
1754.99365	0.37809
1753.06509	0.38503
1751.13652	0.39337
1749.20796	0.40403
1747.27939	0.41445
1745.35083	0.42344
1743.42227	0.43291
1741.49370	0.44338
1739.56514	0.45570
1737.63657	0.46814
1735.70801	0.47907
1733.77944	0.49532
1731.85088	0.51477
1729.92231	0.53013
1727.99375	0.54557
1726.06519	0.56225
1724.13662	0.58063
1722.20806	0.60047
1720.27949	0.61869
1718.35093	0.64008
1716.42236	0.67192
1714.49380	0.70219
1712.56523	0.72665
1710.63667	0.75050
1708.70811	0.77619
1706.77954	0.80524
1704.85098	0.83990
1702.92241	0.87100
1700.99385	0.90198
1699.06528	0.94807
1697.13672	0.99055
1695.20815	1.03416
1693.27959	1.07651
1691.35103	1.11070
1689.42246	1.15051
1687.49390	1.19294
1685.56533	1.23429
1683.63677	1.29773
1681.70820	1.36290
1679.77964	1.40486
1677.85107	1.44534
1675.92251	1.49119
1673.99395	1.54718
1672.06538	1.59773
1670.13682	1.64768
1668.20825	1.71291
1666.27969	1.76733
1664.35112	1.81404
1662.42256	1.87124
1660.49399	1.93369
1658.56543	1.98202
1656.63687	2.02284
1654.70830	2.06293
1652.77974	2.12457
1650.85117	2.17872
1648.92261	2.19748
1646.99404	2.22335
1645.06548	2.25230
1643.13691	2.27060
1641.20835	2.28114
1639.27979	2.29138
1637.35122	2.29781
1635.42266	2.29763
1633.49409	2.29215
1631.56553	2.28075
1629.63696	2.26381
1627.70840	2.23432
1625.77983	2.20112
1623.85127	2.16120
1621.92271	2.11249
1619.99414	2.06833
1618.06558	2.02436
1616.13701	1.96102
1614.20845	1.89581
1612.27988	1.84594
1610.35132	1.79401
1608.42275	1.73776
1606.49419	1.68273
1604.56562	1.63279
1602.63706	1.58516
1600.70850	1.53857
1598.77993	1.49526
1596.85137	1.45427
1594.92280	1.41442
1592.99424	1.37609
1591.06567	1.34090
1589.13711	1.30738
1587.20854	1.27580
1585.27998	1.24672
1583.35142	1.21966
1581.42285	1.19497
1579.49429	1.17393
1577.56572	1.15489
1575.63716	1.13158
1573.70859	1.11125
1571.78003	1.09841
1569.85146	1.08551
1567.92290	1.07107
1565.99434	1.05976
1564.06577	1.05085
1562.13721	1.04398
1560.20864	1.03955
1558.28008	1.03518
1556.35151	1.03156
1554.42295	1.02905
1552.49438	1.02647
1550.56582	1.02286
1548.63726	1.01732
1546.70869	1.01022
1544.78013	1.00135
1542.85156	0.99037
1540.92300	0.97523
1538.99443	0.95110
1537.06587	0.93223
1535.13730	0.91952
1533.20874	0.90348
1531.28018	0.88626
1529.35161	0.87366
1527.42305	0.86186
1525.49448	0.84945
1523.56592	0.83883
1521.63735	0.82892
1519.70879	0.81868
1517.78022	0.80966
1515.85166	0.79936
1513.92310	0.78895
1511.99453	0.78021
1510.06597	0.77236
1508.13740	0.76467
1506.20884	0.75258
1504.28027	0.74183
1502.35171	0.73588
1500.42314	0.73087
1498.49458	0.72564
1496.56602	0.71952
1494.63745	0.71318
1492.70889	0.70831
1490.78032	0.70462
1488.85176	0.70066
1486.92319	0.69641
1484.99463	0.69286
1483.06606	0.69029
1481.13750	0.68832
1479.20894	0.68679
1477.28037	0.68607
1475.35181	0.68615
1473.42324	0.68643
1471.49468	0.68562
1469.56611	0.68361
1467.63755	0.68158
1465.70898	0.67982
1463.78042	0.67805
1461.85186	0.67677
1459.92329	0.67643
1457.99473	0.67663
1456.06616	0.67551
1454.13760	0.67256
1452.20903	0.66952
1450.28047	0.66661
1448.35190	0.66382
1446.42334	0.66091
1444.49478	0.65814
1442.56621	0.65576
1440.63765	0.65348
1438.70908	0.65118
1436.78052	0.64842
1434.85195	0.64524
1432.92339	0.64267
1430.99482	0.64093
1429.06626	0.63977
1427.13770	0.63911
1425.20913	0.63890
1423.28057	0.63889
1421.35200	0.63876
1419.42344	0.63869
1417.49487	0.63831
1415.56631	0.63703
1413.63774	0.63574
1411.70918	0.63499
1409.78062	0.63474
1407.85205	0.63491
1405.92349	0.63549
1403.99492	0.63598
1402.06636	0.63566
1400.13779	0.63468
1398.20923	0.63317
1396.28066	0.63107
1394.35210	0.62810
1392.42354	0.62454
1390.49497	0.62129
1388.56641	0.61826
1386.63784	0.61471
1384.70928	0.61079
1382.78071	0.60711
1380.85215	0.60381
1378.92358	0.60111
1376.99502	0.59915
1375.06646	0.59781
1373.13789	0.59686
1371.20933	0.59607
1369.28076	0.59532
1367.35220	0.59442
1365.42363	0.59339
1363.49507	0.59224
1361.56650	0.59079
1359.63794	0.58921
1357.70937	0.58782
1355.78081	0.58658
1353.85225	0.58538
1351.92368	0.58432
1349.99512	0.58352
1348.06655	0.58274
1346.13799	0.58173
1344.20942	0.58068
1342.28086	0.57991
1340.35229	0.57943
1338.42373	0.57880
1336.49517	0.57776
1334.56660	0.57678
1332.63804	0.57621
1330.70947	0.57596
1328.78091	0.57592
1326.85234	0.57610
1324.92378	0.57654
1322.99521	0.57710
1321.06665	0.57753
1319.13809	0.57776
1317.20952	0.57774
1315.28096	0.57754
1313.35239	0.57709
1311.42383	0.57627
1309.49526	0.57529
1307.56670	0.57440
1305.63813	0.57353
1303.70957	0.57262
1301.78101	0.57173
1299.85244	0.57077
1297.92388	0.56969
1295.99531	0.56871
1294.06675	0.56774
1292.13818	0.56662
1290.20962	0.56554
1288.28105	0.56455
1286.35249	0.56344
1284.42393	0.56223
1282.49536	0.56112
1280.56680	0.56014
1278.63823	0.55916
1276.70967	0.55819
1274.78110	0.55736
1272.85254	0.55665
1270.92397	0.55590
1268.99541	0.55513
1267.06685	0.55448
1265.13828	0.55398
1263.20972	0.55342
1261.28115	0.55276
1259.35259	0.55207
1257.42402	0.55134
1255.49546	0.55074
1253.56689	0.55042
1251.63833	0.55031
1249.70977	0.55041
1247.78120	0.55050
1245.85264	0.55020
1243.92407	0.54946
1241.99551	0.54859
1240.06694	0.54757
1238.13838	0.54624
1236.20981	0.54471
1234.28125	0.54311
1232.35269	0.54141
1230.42412	0.53966
1228.49556	0.53787
1226.56699	0.53609
1224.63843	0.53459
1222.70986	0.53335
1220.78130	0.53204
1218.85273	0.53069
1216.92417	0.52947
1214.99561	0.52846
1213.06704	0.52769
1211.13848	0.52710
1209.20991	0.52649
1207.28135	0.52577
1205.35278	0.52503
1203.42422	0.52441
1201.49565	0.52392
1199.56709	0.52332
1197.63853	0.52254
1195.70996	0.52176
1193.78140	0.52103
1191.85283	0.52038
1189.92427	0.52002
1187.99570	0.51983
1186.06714	0.51959
1184.13857	0.51956
1182.21001	0.51994
1180.28145	0.52064
1178.35288	0.52160
1176.42432	0.52279
1174.49575	0.52412
1172.56719	0.52534
1170.63862	0.52612
1168.71006	0.52661
1166.78149	0.52734
1164.85293	0.52826
1162.92437	0.52897
1160.99580	0.52933
1159.06724	0.52935
1157.13867	0.52903
1155.21011	0.52847
1153.28154	0.52754
1151.35298	0.52598
1149.42441	0.52374
1147.49585	0.52112
1145.56729	0.51829
1143.63872	0.51535
1141.71016	0.51282
1139.78159	0.51098
1137.85303	0.50957
1135.92446	0.50853
1133.99590	0.50792
1132.06733	0.50753
1130.13877	0.50734
1128.21021	0.50738
1126.28164	0.50733
1124.35308	0.50701
1122.42451	0.50677
1120.49595	0.50677
1118.56738	0.50684
1116.63882	0.50701
1114.71025	0.50744
1112.78169	0.50809
1110.85312	0.50901
1108.92456	0.51013
1106.99600	0.51107
1105.06743	0.51170
1103.13887	0.51237
1101.21030	0.51333
1099.28174	0.51461
1097.35317	0.51636
1095.42461	0.51886
1093.49604	0.52239
1091.56748	0.52712
1089.63892	0.53334
1087.71035	0.54114
1085.78179	0.55006
1083.85322	0.55924
1081.92466	0.56744
1079.99609	0.57322
1078.06753	0.57577
1076.13896	0.57525
1074.21040	0.57201
1072.28184	0.56650
1070.35327	0.55950
1068.42471	0.55202
1066.49614	0.54497
1064.56758	0.53869
1062.63901	0.53314
1060.71045	0.52838
1058.78188	0.52438
1056.85332	0.52085
1054.92476	0.51752
1052.99619	0.51450
1051.06763	0.51219
1049.13906	0.51084
1047.21050	0.51039
1045.28193	0.51040
1043.35337	0.51069
1041.42480	0.51132
1039.49624	0.51195
1037.56768	0.51200
1035.63911	0.51163
1033.71055	0.51111
1031.78198	0.51016
1029.85342	0.50870
1027.92485	0.50694
1025.99629	0.50499
1024.06772	0.50328
1022.13916	0.50222
1020.21060	0.50161
1018.28203	0.50125
1016.35347	0.50098
1014.42490	0.50051
1012.49634	0.49979
1010.56777	0.49920
1008.63921	0.49906
1006.71064	0.49928
1004.78208	0.49988
1002.85352	0.50121
1000.92495	0.50346
998.99639	0.50657
997.06782	0.51053
995.13926	0.51508
993.21069	0.51949
991.28213	0.52281
989.35356	0.52452
987.42500	0.52497
985.49644	0.52472
983.56787	0.52421
981.63931	0.52399
979.71074	0.52449
977.78218	0.52576
975.85361	0.52766
973.92505	0.53005
971.99648	0.53295
970.06792	0.53625
968.13936	0.53970
966.21079	0.54343
964.28223	0.54769
962.35366	0.55235
960.42510	0.55718
958.49653	0.56222
956.56797	0.56758
954.63940	0.57336
952.71084	0.57954
950.78228	0.58584
948.85371	0.59211
946.92515	0.59839
944.99658	0.60478
943.06802	0.61135
941.13945	0.61766
939.21089	0.62326
937.28232	0.62856
935.35376	0.63407
933.42520	0.63966
931.49663	0.64491
929.56807	0.64984
927.63950	0.65516
925.71094	0.66113
923.78237	0.66760
921.85381	0.67456
919.92524	0.68178
917.99668	0.68880
916.06812	0.69560
914.13955	0.70287
912.21099	0.71048
910.28242	0.71782
908.35386	0.72550
906.42529	0.73389
904.49673	0.74316
902.56816	0.75289
900.63960	0.76185
898.71104	0.77087
896.78247	0.78128
894.85391	0.79213
892.92534	0.80192
890.99678	0.81110
889.06821	0.82091
887.13965	0.83115
885.21108	0.84179
883.28252	0.85243
881.35396	0.86239
879.42539	0.87250
877.49683	0.88313
875.56826	0.89462
873.63970	0.90674
871.71113	0.91865
869.78257	0.93053
867.85400	0.94288
865.92544	0.95520
863.99687	0.96616
862.06831	0.97681
860.13975	0.98846
858.21118	0.99932
856.28262	1.00891
854.35405	1.02011
852.42549	1.03341
850.49692	1.04601
848.56836	1.05775
846.63979	1.06965
844.71123	1.08095
842.78267	1.09188
840.85410	1.10335
838.92554	1.11546
836.99697	1.12806
835.06841	1.13819
833.13984	1.14421
831.21128	1.15195
829.28271	1.16721
827.35415	1.18477
825.42559	1.19456
823.49702	1.19959
821.56846	1.20499
819.63989	1.21229
817.71133	1.22670
815.78276	1.24440
813.85420	1.26467
811.92563	1.29108
809.99707	1.29932
808.06851	1.28231
806.13994	1.28198
804.21138	1.30070
802.28281	1.30049
800.35425	1.29578
798.42568	1.31783
796.49712	1.34896
794.56855	1.37657
792.63999	1.40815
790.71143	1.41773
788.78286	1.39210
786.85430	1.38882
784.92573	1.45368
782.99717	1.48180
781.06860	1.39170
779.14004	1.32841
777.21147	1.34669
775.28291	1.40515
773.35435	1.44838
771.42578	1.48789
769.49722	1.47624
767.56865	1.36838
765.64009	1.27686
763.71152	1.29521
761.78296	1.54192
759.85439	2.10941
757.92583	1.55028
755.99727	1.35402
754.06870	1.57948
752.14014	2.69443
750.21157	1.69808
748.28301	1.34706
746.35444	1.19150
744.42588	1.14529
742.49731	1.22313
740.56875	1.27829
738.64019	1.15689
736.71162	1.00016
734.78306	0.83707
732.85449	0.70510
730.92593	0.65764
728.99736	0.82424
727.06880	4.36241
725.14023	4.35084
723.21167	1.11306
721.28311	0.41772
719.35454	0.20346
717.42598	0.15683
715.49741	0.08750
713.56885	0.00588
711.64028	0.14730
709.71172	0.18635
707.78315	0.15508
705.85459	0.19790
703.92603	0.37188
701.99746	0.53804
700.06890	0.65678
698.14033	0.72418
696.21177	0.72884
694.28320	0.51222
692.35464	0.33823
690.42607	0.36010
688.49751	0.51236
686.56895	0.50102
684.64038	0.36764
682.71182	0.33699
680.78325	0.40943
678.85469	0.50488
676.92612	0.48892
674.99756	0.40441
673.06899	0.37575
671.14043	0.43204
669.21187	0.48488
667.28330	0.39166
665.35474	0.23697
663.42617	0.20865
661.49761	0.25305
659.56904	0.25602
657.64048	0.24745
655.71191	0.26055
653.78335	0.27177
651.85479	0.31146
649.92622	0.38224
647.99766	0.42112
646.06909	0.40448
644.14053	0.33391
642.21196	0.30877
640.28340	0.36883
638.35483	0.41112
636.42627	0.35068
634.49771	0.30754
632.56914	0.38051
630.64058	0.39994
628.71201	0.30363
626.78345	0.30968
624.85488	0.49178
622.92632	0.59728
620.99775	0.41242
619.06919	0.33533
617.14062	0.37552
615.21206	0.45256
613.28350	0.43966
611.35493	0.37288
609.42637	0.37760
607.49780	0.42841
605.56924	0.41916
603.64067	0.38672
601.71211	0.42278
599.78354	0.53544
597.85498	0.60141
595.92642	0.45067
593.99785	0.35169
592.06929	0.39158
590.14072	0.54848
588.21216	0.64658
586.28359	0.53910
584.35503	0.45746
582.42646	0.39232
580.49790	0.32676
578.56934	0.30766
576.64077	0.29139
574.71221	0.24775
572.78364	0.20324
570.85508	0.17727
568.92651	0.18994
566.99795	0.23759
565.06938	0.27431
563.14082	0.22874
561.21226	0.17273
559.28369	0.22044
557.35513	0.28708
555.42656	0.25601
553.49800	0.28534
551.56943	0.39065
549.64087	0.31589
547.71230	0.18799
545.78374	0.18447
543.85518	0.22995
541.92661	0.30873
539.99805	0.38787
538.06948	0.35261
536.14092	0.27664
534.21235	0.25786
532.28379	0.29244
530.35522	0.34474
528.42666	0.36439
526.49810	0.34257
524.56953	0.31524
522.64097	0.26037
520.71240	0.20591
518.78384	0.22659
516.85527	0.40711
514.92671	0.97445
512.99814	0.90751
511.06958	0.51995
509.14102	0.34631
507.21245	0.26969
505.28389	0.26933
503.35532	0.28441
501.42676	0.27994
499.49819	0.31127
