3997.91411	0.06220
3995.98555	0.06235
3994.05698	0.06262
3992.12842	0.06310
3990.19985	0.06387
3988.27129	0.06430
3986.34272	0.06392
3984.41416	0.06359
3982.48560	0.06400
3980.55703	0.06466
3978.62847	0.06505
3976.69990	0.06533
3974.77134	0.06585
3972.84277	0.06624
3970.91421	0.06638
3968.98564	0.06676
3967.05708	0.06709
3965.12852	0.06701
3963.19995	0.06709
3961.27139	0.06753
3959.34282	0.06780
3957.41426	0.06778
3955.48569	0.06778
3953.55713	0.06787
3951.62856	0.06839
3949.70000	0.06967
3947.77144	0.07066
3945.84287	0.07054
3943.91431	0.07045
3941.98574	0.07065
3940.05718	0.06987
3938.12861	0.06873
3936.20005	0.06856
3934.27148	0.06943
3932.34292	0.07100
3930.41436	0.07206
3928.48579	0.07128
3926.55723	0.07013
3924.62866	0.07049
3922.70010	0.07113
3920.77153	0.07088
3918.84297	0.07094
3916.91440	0.07127
3914.98584	0.07053
3913.05728	0.06895
3911.12871	0.06792
3909.20015	0.06798
3907.27158	0.06920
3905.34302	0.07203
3903.41445	0.07594
3901.48589	0.07845
3899.55732	0.07821
3897.62876	0.07555
3895.70020	0.07235
3893.77163	0.07139
3891.84307	0.07278
3889.91450	0.07339
3887.98594	0.07249
3886.05737	0.07314
3884.12881	0.07482
3882.20024	0.07528
3880.27168	0.07563
3878.34312	0.07507
3876.41455	0.07343
3874.48599	0.07370
3872.55742	0.07590
3870.62886	0.07817
3868.70029	0.07913
3866.77173	0.07793
3864.84316	0.07775
3862.91460	0.07899
3860.98604	0.07821
3859.05747	0.07667
3857.12891	0.07715
3855.20034	0.08003
3853.27178	0.08518
3851.34321	0.08757
3849.41465	0.08343
3847.48608	0.07905
3845.55752	0.07742
3843.62896	0.07883
3841.70039	0.08221
3839.77183	0.08599
3837.84326	0.08903
3835.91470	0.08961
3833.98613	0.08808
3832.05757	0.08641
3830.12900	0.08516
3828.20044	0.08479
3826.27187	0.08587
3824.34331	0.08775
3822.41475	0.09061
3820.48618	0.09482
3818.55762	0.09618
3816.62905	0.09546
3814.70049	0.09478
3812.77192	0.09208
3810.84336	0.08983
3808.91479	0.09069
3806.98623	0.09432
3805.05767	0.09774
3803.12910	0.10011
3801.20054	0.10373
3799.27197	0.10571
3797.34341	0.10452
3795.41484	0.10325
3793.48628	0.10196
3791.55771	0.10114
3789.62915	0.10151
3787.70059	0.10285
3785.77202	0.10544
3783.84346	0.10847
3781.91489	0.11042
3779.98633	0.11223
3778.05776	0.11421
3776.12920	0.11465
3774.20063	0.11481
3772.27207	0.11660
3770.34351	0.12018
3768.41494	0.12401
3766.48638	0.12634
3764.55781	0.12783
3762.62925	0.12898
3760.70068	0.13117
3758.77212	0.13542
3756.84355	0.13921
3754.91499	0.14135
3752.98643	0.14477
3751.05786	0.15161
3749.12930	0.15874
3747.20073	0.16119
3745.27217	0.16278
3743.34360	0.16607
3741.41504	0.16813
3739.48647	0.16950
3737.55791	0.17359
3735.62935	0.18214
3733.70078	0.19096
3731.77222	0.19316
3729.84365	0.19259
3727.91509	0.19439
3725.98652	0.19979
3724.05796	0.20753
3722.12939	0.21517
3720.20083	0.22150
3718.27227	0.22670
3716.34370	0.23246
3714.41514	0.24028
3712.48657	0.25217
3710.55801	0.26870
3708.62944	0.28252
3706.70088	0.29124
3704.77231	0.30061
3702.84375	0.31362
3700.91519	0.33106
3698.98662	0.34932
3697.05806	0.36616
3695.12949	0.38485
3693.20093	0.40614
3691.27236	0.43049
3689.34380	0.46119
3687.41523	0.49509
3685.48667	0.52228
3683.55811	0.54625
3681.62954	0.57390
3679.70098	0.60682
3677.77241	0.64291
3675.84385	0.68583
3673.91528	0.74024
3671.98672	0.78279
3670.05815	0.82175
3668.12959	0.87483
3666.20103	0.92102
3664.27246	0.95932
3662.34390	1.00220
3660.41533	1.05017
3658.48677	1.09814
3656.55820	1.14907
3654.62964	1.20525
3652.70107	1.25267
3650.77251	1.29591
3648.84395	1.35635
3646.91538	1.42586
3644.98682	1.47291
3643.05825	1.50907
3641.12969	1.54838
3639.20112	1.59302
3637.27256	1.63791
3635.34399	1.68140
3633.41543	1.72532
3631.48687	1.76779
3629.55830	1.81269
3627.62974	1.86968
3625.70117	1.91847
3623.77261	1.94979
3621.84404	1.98177
3619.91548	2.02116
3617.98691	2.06918
3616.05835	2.11396
3614.12979	2.15126
3612.20122	2.19121
3610.27266	2.23101
3608.34409	2.26989
3606.41553	2.31033
3604.48696	2.34883
3602.55840	2.38558
3600.62983	2.42589
3598.70127	2.46845
3596.77271	2.50898
3594.84414	2.54883
3592.91558	2.58857
3590.98701	2.62628
3589.05845	2.66355
3587.12988	2.70923
3585.20132	2.75811
3583.27275	2.79863
3581.34419	2.83688
3579.41562	2.87773
3577.48706	2.92006
3575.55850	2.96297
3573.62993	3.00594
3571.70137	3.04626
3569.77280	3.08673
3567.84424	3.13362
3565.91567	3.19023
3563.98711	3.24055
3562.05854	3.27850
3560.12998	3.31760
3558.20142	3.36219
3556.27285	3.40843
3554.34429	3.45289
3552.41572	3.49712
3550.48716	3.54169
3548.55859	3.58718
3546.63003	3.63455
3544.70146	3.68321
3542.77290	3.72987
3540.84434	3.77502
3538.91577	3.82231
3536.98721	3.87114
3535.05864	3.92124
3533.13008	3.97042
3531.20151	4.01850
3529.27295	4.06764
3527.34438	4.11801
3525.41582	4.16573
3523.48726	4.20974
3521.55869	4.25505
3519.63013	4.30218
3517.70156	4.35048
3515.77300	4.39975
3513.84443	4.45085
3511.91587	4.50196
3509.98730	4.54775
3508.05874	4.58967
3506.13018	4.63515
3504.20161	4.68653
3502.27305	4.73903
3500.34448	4.78727
3498.41592	4.83278
3496.48735	4.87945
3494.55879	4.92603
3492.63022	4.97249
3490.70166	5.02182
3488.77310	5.07343
3486.84453	5.12429
3484.91597	5.17284
3482.98740	5.21804
3481.05884	5.26208
3479.13027	5.30926
3477.20171	5.35862
3475.27314	5.40744
3473.34458	5.46132
3471.41602	5.52006
3469.48745	5.57155
3467.55889	5.61290
3465.63032	5.65024
3463.70176	5.69993
3461.77319	5.76895
3459.84463	5.83143
3457.91606	5.87273
3455.98750	5.91485
3454.05894	5.96298
3452.13037	6.00754
3450.20181	6.05088
3448.27324	6.09561
3446.34468	6.15157
3444.41611	6.21246
3442.48755	6.26112
3440.55898	6.30143
3438.63042	6.34860
3436.70186	6.40581
3434.77329	6.47177
3432.84473	6.53750
3430.91616	6.57618
3428.98760	6.60369
3427.05903	6.65473
3425.13047	6.72330
3423.20190	6.78386
3421.27334	6.82811
3419.34478	6.85023
3417.41621	6.87661
3415.48765	6.94017
3413.55908	6.99531
3411.63052	7.01159
3409.70195	7.04476
3407.77339	7.13077
3405.84482	7.20968
3403.91626	7.24777
3401.98770	7.27805
3400.05913	7.32773
3398.13057	7.40349
3396.20200	7.46727
3394.27344	7.47581
3392.34487	7.43523
3390.41631	7.42735
3388.48774	7.48411
3386.55918	7.54738
3384.63062	7.57664
3382.70205	7.60842
3380.77349	7.66835
3378.84492	7.72548
3376.91636	7.76162
3374.98779	7.78746
3373.05923	7.85414
3371.13066	7.92539
3369.20210	7.92848
3367.27354	7.88675
3365.34497	7.86143
3363.41641	7.89264
3361.48784	7.96971
3359.55928	8.02544
3357.63071	8.00357
3355.70215	7.99398
3353.77358	8.03215
3351.84502	8.06391
3349.91646	8.09712
3347.98789	8.13480
3346.05933	8.16597
3344.13076	8.19857
3342.20220	8.19953
3340.27363	8.17039
3338.34507	8.18008
3336.41650	8.19216
3334.48794	8.16072
3332.55937	8.11391
3330.63081	8.11204
3328.70225	8.18946
3326.77368	8.27897
3324.84512	8.29758
3322.91655	8.24253
3320.98799	8.16697
3319.05942	8.14322
3317.13086	8.19235
3315.20229	8.19198
3313.27373	8.10415
3311.34517	8.04060
3309.41660	8.04358
3307.48804	8.12484
3305.55947	8.25577
3303.63091	8.31913
3301.70234	8.31101
3299.77378	8.31555
3297.84521	8.27008
3295.91665	8.20117
3293.98809	8.20998
3292.05952	8.23326
3290.13096	8.20554
3288.20239	8.20382
3286.27383	8.25548
3284.34526	8.29612
3282.41670	8.35671
3280.48813	8.46474
3278.55957	8.51645
3276.63101	8.46238
3274.70244	8.41087
3272.77388	8.40719
3270.84531	8.43624
3268.91675	8.45447
3266.98818	8.41836
3265.05962	8.40732
3263.13105	8.44694
3261.20249	8.49593
3259.27393	8.51295
3257.34536	8.46104
3255.41680	8.35451
3253.48823	8.24404
3251.55967	8.16843
3249.63110	8.11185
3247.70254	8.08748
3245.77397	8.11415
3243.84541	8.12297
3241.91685	8.10239
3239.98828	8.18207
3238.05972	8.38248
3236.13115	8.49175
3234.20259	8.41008
3232.27402	8.33365
3230.34546	8.28158
3228.41689	8.16741
3226.48833	8.09599
3224.55977	8.11366
3222.63120	8.14704
3220.70264	8.11534
3218.77407	8.01254
3216.84551	7.95918
3214.91694	8.00820
3212.98838	8.09430
3211.05981	8.14717
3209.13125	8.10503
3207.20269	7.97092
3205.27412	7.81805
3203.34556	7.71224
3201.41699	7.70758
3199.48843	7.76157
3197.55986	7.78289
3195.63130	7.75334
3193.70273	7.68169
3191.77417	7.61313
3189.84561	7.58432
3187.91704	7.56099
3185.98848	7.50076
3184.05991	7.41160
3182.13135	7.32461
3180.20278	7.24375
3178.27422	7.18354
3176.34565	7.14805
3174.41709	7.08815
3172.48853	7.01653
3170.55996	6.99094
3168.63140	6.97866
3166.70283	6.90026
3164.77427	6.78714
3162.84570	6.72033
3160.91714	6.68770
3158.98857	6.64019
3157.06001	6.56503
3155.13145	6.47517
3153.20288	6.39201
3151.27432	6.33316
3149.34575	6.28338
3147.41719	6.20940
3145.48862	6.12686
3143.56006	6.06757
3141.63149	6.01586
3139.70293	5.94278
3137.77437	5.85879
3135.84580	5.78235
3133.91724	5.71057
3131.98867	5.63686
3130.06011	5.56110
3128.13154	5.48955
3126.20298	5.42713
3124.27441	5.36716
3122.34585	5.29696
3120.41729	5.22005
3118.48872	5.14904
3116.56016	5.08271
3114.63159	5.01009
3112.70303	4.93295
3110.77446	4.86239
3108.84590	4.79757
3106.91733	4.73123
3104.98877	4.66192
3103.06021	4.59491
3101.13164	4.53002
3099.20308	4.46307
3097.27451	4.39662
3095.34595	4.33301
3093.41738	4.27094
3091.48882	4.20660
3089.56025	4.14005
3087.63169	4.07671
3085.70312	4.01570
3083.77456	3.95393
3081.84600	3.89364
3079.91743	3.83483
3077.98887	3.77651
3076.06030	3.72000
3074.13174	3.66384
3072.20317	3.60593
3070.27461	3.54801
3068.34604	3.49214
3066.41748	3.43691
3064.48892	3.38054
3062.56035	3.32481
3060.63179	3.27249
3058.70322	3.22114
3056.77466	3.16743
3054.84609	3.11420
3052.91753	3.06321
3050.98896	3.01280
3049.06040	2.96348
3047.13184	2.91508
3045.20327	2.86607
3043.27471	2.81766
3041.34614	2.77088
3039.41758	2.72490
3037.48901	2.67931
3035.56045	2.63364
3033.63188	2.58853
3031.70332	2.54504
3029.77476	2.50184
3027.84619	2.45804
3025.91763	2.41511
3023.98906	2.37324
3022.06050	2.33201
3020.13193	2.29159
3018.20337	2.25122
3016.27480	2.21072
3014.34624	2.17155
3012.41768	2.13444
3010.48911	2.09829
3008.56055	2.06194
3006.63198	2.02573
3004.70342	1.99030
3002.77485	1.95591
3000.84629	1.92254
2998.91772	1.88949
2996.98916	1.85660
2995.06060	1.82462
2993.13203	1.79416
2991.20347	1.76487
2989.27490	1.73565
2987.34634	1.70619
2985.41777	1.67748
2983.48921	1.64985
2981.56064	1.62275
2979.63208	1.59611
2977.70352	1.56997
2975.77495	1.54423
2973.84639	1.51910
2971.91782	1.49470
2969.98926	1.47070
2968.06069	1.44683
2966.13213	1.42311
2964.20356	1.39962
2962.27500	1.37632
2960.34644	1.35302
2958.41787	1.32990
2956.48931	1.30718
2954.56074	1.28427
2952.63218	1.26086
2950.70361	1.23785
2948.77505	1.21578
2946.84648	1.19428
2944.91792	1.17312
2942.98936	1.15244
2941.06079	1.13204
2939.13223	1.11167
2937.20366	1.09168
2935.27510	1.07195
2933.34653	1.05202
2931.41797	1.03167
2929.48940	1.01125
2927.56084	0.99167
2925.63228	0.97324
2923.70371	0.95558
2921.77515	0.93851
2919.84658	0.92219
2917.91802	0.90654
2915.98945	0.89105
2914.06089	0.87550
2912.13232	0.86022
2910.20376	0.84520
2908.27520	0.83014
2906.34663	0.81544
2904.41807	0.80130
2902.48950	0.78747
2900.56094	0.77409
2898.63237	0.76129
2896.70381	0.74888
2894.77524	0.73649
2892.84668	0.72399
2890.91812	0.71209
2888.98955	0.70118
2887.06099	0.69065
2885.13242	0.68038
2883.20386	0.67053
2881.27529	0.66078
2879.34673	0.65103
2877.41816	0.64142
2875.48960	0.63176
2873.56104	0.62184
2871.63247	0.61160
2869.70391	0.60086
2867.77534	0.58960
2865.84678	0.57801
2863.91821	0.56623
2861.98965	0.55458
2860.06108	0.54326
2858.13252	0.53243
2856.20396	0.52227
2854.27539	0.51263
2852.34683	0.50335
2850.41826	0.49493
2848.48970	0.48740
2846.56113	0.48025
2844.63257	0.47357
2842.70400	0.46732
2840.77544	0.46122
2838.84687	0.45517
2836.91831	0.44911
2834.98975	0.44317
2833.06118	0.43749
2831.13262	0.43187
2829.20405	0.42605
2827.27549	0.42010
2825.34692	0.41428
2823.41836	0.40850
2821.48979	0.40260
2819.56123	0.39670
2817.63267	0.39099
2815.70410	0.38533
2813.77554	0.37959
2811.84697	0.37402
2809.91841	0.36876
2807.98984	0.36353
2806.06128	0.35828
2804.13271	0.35317
2802.20415	0.34823
2800.27559	0.34336
2798.34702	0.33855
2796.41846	0.33385
2794.48989	0.32914
2792.56133	0.32441
2790.63276	0.31984
2788.70420	0.31551
2786.77563	0.31132
2784.84707	0.30713
2782.91851	0.30299
2780.98994	0.29897
2779.06138	0.29491
2777.13281	0.29087
2775.20425	0.28697
2773.27568	0.28312
2771.34712	0.27929
2769.41855	0.27564
2767.48999	0.27227
2765.56143	0.26896
2763.63286	0.26548
2761.70430	0.26197
2759.77573	0.25865
2757.84717	0.25549
2755.91860	0.25242
2753.99004	0.24955
2752.06147	0.24677
2750.13291	0.24382
2748.20435	0.24085
2746.27578	0.23808
2744.34722	0.23529
2742.41865	0.23244
2740.49009	0.22969
2738.56152	0.22704
2736.63296	0.22449
2734.70439	0.22203
2732.77583	0.21949
2730.84727	0.21692
2728.91870	0.21464
2726.99014	0.21255
2725.06157	0.21047
2723.13301	0.20841
2721.20444	0.20635
2719.27588	0.20428
2717.34731	0.20228
2715.41875	0.20031
2713.49019	0.19835
2711.56162	0.19652
2709.63306	0.19485
2707.70449	0.19323
2705.77593	0.19165
2703.84736	0.19018
2701.91880	0.18885
2699.99023	0.18743
2698.06167	0.18576
2696.13311	0.18412
2694.20454	0.18268
2692.27598	0.18140
2690.34741	0.18011
2688.41885	0.17878
2686.49028	0.17750
2684.56172	0.17632
2682.63315	0.17524
2680.70459	0.17407
2678.77603	0.17279
2676.84746	0.17168
2674.91890	0.17069
2672.99033	0.16958
2671.06177	0.16843
2669.13320	0.16732
2667.20464	0.16622
2665.27607	0.16517
2663.34751	0.16418
2661.41895	0.16337
2659.49038	0.16275
2657.56182	0.16204
2655.63325	0.16111
2653.70469	0.16023
2651.77612	0.15955
2649.84756	0.15891
2647.91899	0.15820
2645.99043	0.15752
2644.06187	0.15698
2642.13330	0.15652
2640.20474	0.15606
2638.27617	0.15558
2636.34761	0.15514
2634.41904	0.15472
2632.49048	0.15418
2630.56191	0.15358
2628.63335	0.15311
2626.70479	0.15276
2624.77622	0.15236
2622.84766	0.15199
2620.91909	0.15176
2618.99053	0.15155
2617.06196	0.15140
2615.13340	0.15135
2613.20483	0.15121
2611.27627	0.15096
2609.34771	0.15065
2607.41914	0.15041
2605.49058	0.15031
2603.56201	0.15025
2601.63345	0.15009
2599.70488	0.14990
2597.77632	0.14988
2595.84775	0.14997
2593.91919	0.15006
2591.99062	0.15014
2590.06206	0.15023
2588.13350	0.15038
2586.20493	0.15058
2584.27637	0.15075
2582.34780	0.15091
2580.41924	0.15122
2578.49067	0.15158
2576.56211	0.15186
2574.63354	0.15209
2572.70498	0.15234
2570.77642	0.15262
2568.84785	0.15286
2566.91929	0.15312
2564.99072	0.15353
2563.06216	0.15407
2561.13359	0.15456
2559.20503	0.15494
2557.27646	0.15530
2555.34790	0.15577
2553.41934	0.15634
2551.49077	0.15690
2549.56221	0.15736
2547.63364	0.15771
2545.70508	0.15809
2543.77651	0.15861
2541.84795	0.15931
2539.91938	0.15993
2537.99082	0.16037
2536.06226	0.16094
2534.13369	0.16163
2532.20513	0.16219
2530.27656	0.16273
2528.34800	0.16341
2526.41943	0.16417
2524.49087	0.16487
2522.56230	0.16562
2520.63374	0.16644
2518.70518	0.16717
2516.77661	0.16785
2514.84805	0.16853
2512.91948	0.16929
2510.99092	0.17018
2509.06235	0.17105
2507.13379	0.17181
2505.20522	0.17255
2503.27666	0.17323
2501.34810	0.17395
2499.41953	0.17477
2497.49097	0.17549
2495.56240	0.17617
2493.63384	0.17708
2491.70527	0.17800
2489.77671	0.17868
2487.84814	0.17935
2485.91958	0.18013
2483.99102	0.18102
2482.06245	0.18203
2480.13389	0.18310
2478.20532	0.18407
2476.27676	0.18479
2474.34819	0.18538
2472.41963	0.18607
2470.49106	0.18694
2468.56250	0.18792
2466.63394	0.18892
2464.70537	0.18986
2462.77681	0.19072
2460.84824	0.19156
2458.91968	0.19249
2456.99111	0.19349
2455.06255	0.19443
2453.13398	0.19527
2451.20542	0.19612
2449.27686	0.19706
2447.34829	0.19800
2445.41973	0.19879
2443.49116	0.19960
2441.56260	0.20072
2439.63403	0.20199
2437.70547	0.20311
2435.77690	0.20410
2433.84834	0.20502
2431.91978	0.20599
2429.99121	0.20712
2428.06265	0.20829
2426.13408	0.20936
2424.20552	0.21033
2422.27695	0.21126
2420.34839	0.21219
2418.41982	0.21328
2416.49126	0.21451
2414.56270	0.21572
2412.63413	0.21680
2410.70557	0.21790
2408.77700	0.21912
2406.84844	0.22028
2404.91987	0.22133
2402.99131	0.22236
2401.06274	0.22340
2399.13418	0.22456
2397.20562	0.22597
2395.27705	0.22748
2393.34849	0.22880
2391.41992	0.22995
2389.49136	0.23120
2387.56279	0.23271
2385.63423	0.23452
2383.70566	0.23671
2381.77710	0.23945
2379.84854	0.24259
2377.91997	0.24598
2375.99141	0.24973
2374.06284	0.25394
2372.13428	0.25865
2370.20571	0.26345
2368.27715	0.26817
2366.34858	0.27352
2364.42002	0.27873
2362.49146	0.28167
2360.56289	0.28309
2358.63433	0.28477
2356.70576	0.28535
2354.77720	0.28410
2352.84863	0.28216
2350.92007	0.27980
2348.99150	0.27807
2347.06294	0.27850
2345.13437	0.28211
2343.20581	0.28765
2341.27725	0.29137
2339.34868	0.29241
2337.42012	0.29262
2335.49155	0.29359
2333.56299	0.29527
2331.63442	0.29666
2329.70586	0.29723
2327.77729	0.29744
2325.84873	0.29767
2323.92017	0.29822
2321.99160	0.29908
2320.06304	0.29980
2318.13447	0.30022
2316.20591	0.30047
2314.27734	0.30086
2312.34878	0.30168
2310.42021	0.30271
2308.49165	0.30354
2306.56309	0.30424
2304.63452	0.30510
2302.70596	0.30614
2300.77739	0.30724
2298.84883	0.30840
2296.92026	0.30963
2294.99170	0.31098
2293.06313	0.31238
2291.13457	0.31377
2289.20601	0.31524
2287.27744	0.31672
2285.34888	0.31813
2283.42031	0.31962
2281.49175	0.32135
2279.56318	0.32337
2277.63462	0.32550
2275.70605	0.32760
2273.77749	0.32975
2271.84893	0.33192
2269.92036	0.33396
2267.99180	0.33595
2266.06323	0.33802
2264.13467	0.34010
2262.20610	0.34213
2260.27754	0.34413
2258.34897	0.34612
2256.42041	0.34814
2254.49185	0.35024
2252.56328	0.35246
2250.63472	0.35467
2248.70615	0.35671
2246.77759	0.35876
2244.84902	0.36091
2242.92046	0.36305
2240.99189	0.36516
2239.06333	0.36737
2237.13477	0.36962
2235.20620	0.37176
2233.27764	0.37386
2231.34907	0.37602
2229.42051	0.37822
2227.49194	0.38040
2225.56338	0.38256
2223.63481	0.38476
2221.70625	0.38693
2219.77769	0.38894
2217.84912	0.39095
2215.92056	0.39315
2213.99199	0.39541
2212.06343	0.39761
2210.13486	0.39974
2208.20630	0.40186
2206.27773	0.40389
2204.34917	0.40586
2202.42061	0.40794
2200.49204	0.41007
2198.56348	0.41210
2196.63491	0.41399
2194.70635	0.41585
2192.77778	0.41773
2190.84922	0.41958
2188.92065	0.42136
2186.99209	0.42314
2185.06353	0.42496
2183.13496	0.42678
2181.20640	0.42855
2179.27783	0.43020
2177.34927	0.43168
2175.42070	0.43312
2173.49214	0.43455
2171.56357	0.43593
2169.63501	0.43733
2167.70645	0.43884
2165.77788	0.44030
2163.84932	0.44166
2161.92075	0.44291
2159.99219	0.44396
2158.06362	0.44491
2156.13506	0.44579
2154.20649	0.44649
2152.27793	0.44718
2150.34937	0.44806
2148.42080	0.44898
2146.49224	0.44972
2144.56367	0.45028
2142.63511	0.45073
2140.70654	0.45108
2138.77798	0.45139
2136.84941	0.45166
2134.92085	0.45177
2132.99229	0.45170
2131.06372	0.45162
2129.13516	0.45153
2127.20659	0.45136
2125.27803	0.45112
2123.34946	0.45079
2121.42090	0.45034
2119.49233	0.44985
2117.56377	0.44943
2115.63521	0.44893
2113.70664	0.44822
2111.77808	0.44737
2109.84951	0.44646
2107.92095	0.44549
2105.99238	0.44447
2104.06382	0.44343
2102.13525	0.44224
2100.20669	0.44084
2098.27812	0.43943
2096.34956	0.43812
2094.42100	0.43677
2092.49243	0.43524
2090.56387	0.43362
2088.63530	0.43197
2086.70674	0.43021
2084.77817	0.42838
2082.84961	0.42659
2080.92104	0.42476
2078.99248	0.42280
2077.06392	0.42077
2075.13535	0.41876
2073.20679	0.41681
2071.27822	0.41484
2069.34966	0.41275
2067.42109	0.41053
2065.49253	0.40821
2063.56396	0.40579
2061.63540	0.40345
2059.70684	0.40116
2057.77827	0.39871
2055.84971	0.39617
2053.92114	0.39363
2051.99258	0.39106
2050.06401	0.38851
2048.13545	0.38603
2046.20688	0.38357
2044.27832	0.38104
2042.34976	0.37846
2040.42119	0.37583
2038.49263	0.37307
2036.56406	0.37023
2034.63550	0.36746
2032.70693	0.36478
2030.77837	0.36213
2028.84980	0.35944
2026.92124	0.35672
2024.99268	0.35402
2023.06411	0.35139
2021.13555	0.34881
2019.20698	0.34629
2017.27842	0.34377
2015.34985	0.34095
2013.42129	0.33795
2011.49272	0.33515
2009.56416	0.33253
2007.63560	0.32982
2005.70703	0.32707
2003.77847	0.32444
2001.84990	0.32188
1999.92134	0.31931
1997.99277	0.31670
1996.06421	0.31422
1994.13564	0.31209
1992.20708	0.31009
1990.27852	0.30765
1988.34995	0.30485
1986.42139	0.30216
1984.49282	0.29970
1982.56426	0.29733
1980.63569	0.29494
1978.70713	0.29266
1976.77856	0.29044
1974.85000	0.28818
1972.92144	0.28598
1970.99287	0.28396
1969.06431	0.28218
1967.13574	0.28043
1965.20718	0.27831
1963.27861	0.27601
1961.35005	0.27399
1959.42148	0.27218
1957.49292	0.27040
1955.56436	0.26859
1953.63579	0.26673
1951.70723	0.26492
1949.77866	0.26333
1947.85010	0.26196
1945.92153	0.26076
1943.99297	0.25969
1942.06440	0.25837
1940.13584	0.25645
1938.20728	0.25450
1936.27871	0.25299
1934.35015	0.25166
1932.42158	0.25035
1930.49302	0.24911
1928.56445	0.24803
1926.63589	0.24713
1924.70732	0.24661
1922.77876	0.24613
1920.85020	0.24509
1918.92163	0.24396
1916.99307	0.24294
1915.06450	0.24166
1913.13594	0.24051
1911.20737	0.23997
1909.27881	0.23970
1907.35024	0.23906
1905.42168	0.23807
1903.49312	0.23721
1901.56455	0.23653
1899.63599	0.23597
1897.70742	0.23570
1895.77886	0.23560
1893.85029	0.23528
1891.92173	0.23486
1889.99316	0.23486
1888.06460	0.23469
1886.13604	0.23404
1884.20747	0.23352
1882.27891	0.23320
1880.35034	0.23302
1878.42178	0.23293
1876.49321	0.23287
1874.56465	0.23287
1872.63608	0.23320
1870.70752	0.23424
1868.77896	0.23585
1866.85039	0.23616
1864.92183	0.23495
1862.99326	0.23414
1861.06470	0.23423
1859.13613	0.23465
1857.20757	0.23487
1855.27900	0.23507
1853.35044	0.23541
1851.42187	0.23597
1849.49331	0.23688
1847.56475	0.23820
1845.63618	0.23979
1843.70762	0.24115
1841.77905	0.24134
1839.85049	0.24104
1837.92192	0.24157
1835.99336	0.24258
1834.06479	0.24356
1832.13623	0.24492
1830.20767	0.24707
1828.27910	0.24874
1826.35054	0.24948
1824.42197	0.25049
1822.49341	0.25130
1820.56484	0.25201
1818.63628	0.25321
1816.70771	0.25481
1814.77915	0.25643
1812.85059	0.25841
1810.92202	0.26083
1808.99346	0.26288
1807.06489	0.26447
1805.13633	0.26624
1803.20776	0.26873
1801.27920	0.27176
1799.35063	0.27474
1797.42207	0.27708
1795.49351	0.27955
1793.56494	0.28298
1791.63638	0.28708
1789.70781	0.28967
1787.77925	0.29118
1785.85068	0.29397
1783.92212	0.29775
1781.99355	0.30184
1780.06499	0.30623
1778.13643	0.31047
1776.20786	0.31446
1774.27930	0.31945
1772.35073	0.32631
1770.42217	0.33248
1768.49360	0.33666
1766.56504	0.34083
1764.63647	0.34565
1762.70791	0.35163
1760.77935	0.35934
1758.85078	0.36627
1756.92222	0.37303
1754.99365	0.38026
1753.06509	0.38712
1751.13652	0.39614
1749.20796	0.40752
1747.27939	0.41766
1745.35083	0.42592
1743.42227	0.43497
1741.49370	0.44551
1739.56514	0.45800
1737.63657	0.47015
1735.70801	0.48127
1733.77944	0.49880
1731.85088	0.51824
1729.92231	0.53220
1727.99375	0.54646
1726.06519	0.56251
1724.13662	0.58072
1722.20806	0.60061
1720.27949	0.61938
1718.35093	0.64231
1716.42236	0.67557
1714.49380	0.70518
1712.56523	0.72816
1710.63667	0.75110
1708.70811	0.77687
1706.77954	0.80692
1704.85098	0.84265
1702.92241	0.87411
1700.99385	0.90576
1699.06528	0.95338
1697.13672	0.99654
1695.20815	1.03950
1693.27959	1.08096
1691.35103	1.11551
1689.42246	1.15728
1687.49390	1.20237
1685.56533	1.24651
1683.63677	1.31285
1681.70820	1.37912
1679.77964	1.42114
1677.85107	1.46224
1675.92251	1.51036
1673.99395	1.57038
1672.06538	1.62475
1670.13682	1.67903
1668.20825	1.74882
1666.27969	1.80508
1664.35112	1.85339
1662.42256	1.91508
1660.49399	1.98587
1658.56543	2.04326
1656.63687	2.09105
1654.70830	2.13467
1652.77974	2.19947
1650.85117	2.25793
1648.92261	2.27763
1646.99404	2.30241
1645.06548	2.32734
1643.13691	2.34320
1641.20835	2.35266
1639.27979	2.36203
1637.35122	2.36732
1635.42266	2.36247
1633.49409	2.34905
1631.56553	2.33376
1629.63696	2.31661
1627.70840	2.28652
1625.77983	2.25068
1623.85127	2.20732
1621.92271	2.15457
1619.99414	2.10716
1618.06558	2.06140
1616.13701	1.99512
1614.20845	1.92569
1612.27988	1.87280
1610.35132	1.81897
1608.42275	1.76115
1606.49419	1.70443
1604.56562	1.65243
1602.63706	1.60187
1600.70850	1.55232
1598.77993	1.50742
1596.85137	1.46611
1594.92280	1.42595
1592.99424	1.38691
1591.06567	1.35177
1589.13711	1.31941
1587.20854	1.28931
1585.27998	1.26187
1583.35142	1.23669
1581.42285	1.21411
1579.49429	1.19557
1577.56572	1.17998
1575.63716	1.16115
1573.70859	1.14366
1571.78003	1.13283
1569.85146	1.12352
1567.92290	1.11315
1565.99434	1.10520
1564.06577	1.10037
1562.13721	1.09802
1560.20864	1.09973
1558.28008	1.10764
1556.35151	1.11227
1554.42295	1.11312
1552.49438	1.11457
1550.56582	1.11505
1548.63726	1.11309
1546.70869	1.10867
1544.78013	1.10184
1542.85156	1.09204
1540.92300	1.07560
1538.99443	1.04454
1537.06587	1.01851
1535.13730	1.00149
1533.20874	0.98035
1531.28018	0.95704
1529.35161	0.94008
1527.42305	0.92511
1525.49448	0.91009
1523.56592	0.89793
1521.63735	0.88692
1519.70879	0.87442
1517.78022	0.86288
1515.85166	0.84946
1513.92310	0.83512
1511.99453	0.82329
1510.06597	0.81397
1508.13740	0.80594
1506.20884	0.79058
1504.28027	0.77406
1502.35171	0.76476
1500.42314	0.75796
1498.49458	0.75161
1496.56602	0.74385
1494.63745	0.73524
1492.70889	0.72880
1490.78032	0.72429
1488.85176	0.71907
1486.92319	0.71255
1484.99463	0.70673
1483.06606	0.70262
1481.13750	0.69982
1479.20894	0.69785
1477.28037	0.69709
1475.35181	0.69783
1473.42324	0.69931
1471.49468	0.69893
1469.56611	0.69614
1467.63755	0.69350
1465.70898	0.69210
1463.78042	0.69135
1461.85186	0.69091
1459.92329	0.69175
1457.99473	0.69416
1456.06616	0.69467
1454.13760	0.69123
1452.20903	0.68776
1450.28047	0.68490
1448.35190	0.68232
1446.42334	0.67939
1444.49478	0.67632
1442.56621	0.67353
1440.63765	0.67097
1438.70908	0.66889
1436.78052	0.66641
1434.85195	0.66244
1432.92339	0.65878
1430.99482	0.65670
1429.06626	0.65574
1427.13770	0.65545
1425.20913	0.65619
1423.28057	0.65766
1421.35200	0.65890
1419.42344	0.66023
1417.49487	0.66048
1415.56631	0.65851
1413.63774	0.65681
1411.70918	0.65666
1409.78062	0.65770
1407.85205	0.65931
1405.92349	0.66132
1403.99492	0.66301
1402.06636	0.66342
1400.13779	0.66320
1398.20923	0.66252
1396.28066	0.66060
1394.35210	0.65664
1392.42354	0.65141
1390.49497	0.64676
1388.56641	0.64255
1386.63784	0.63746
1384.70928	0.63165
1382.78071	0.62619
1380.85215	0.62134
1378.92358	0.61744
1376.99502	0.61478
1375.06646	0.61314
1373.13789	0.61168
1371.20933	0.61034
1369.28076	0.60957
1367.35220	0.60876
1365.42363	0.60762
1363.49507	0.60665
1361.56650	0.60533
1359.63794	0.60317
1357.70937	0.60107
1355.78081	0.59952
1353.85225	0.59844
1351.92368	0.59759
1349.99512	0.59689
1348.06655	0.59617
1346.13799	0.59527
1344.20942	0.59437
1342.28086	0.59379
1340.35229	0.59372
1338.42373	0.59352
1336.49517	0.59253
1334.56660	0.59142
1332.63804	0.59099
1330.70947	0.59129
1328.78091	0.59194
1326.85234	0.59276
1324.92378	0.59366
1322.99521	0.59463
1321.06665	0.59565
1319.13809	0.59661
1317.20952	0.59715
1315.28096	0.59725
1313.35239	0.59708
1311.42383	0.59649
1309.49526	0.59558
1307.56670	0.59478
1305.63813	0.59413
1303.70957	0.59349
1301.78101	0.59283
1299.85244	0.59206
1297.92388	0.59103
1295.99531	0.58979
1294.06675	0.58857
1292.13818	0.58731
1290.20962	0.58602
1288.28105	0.58478
1286.35249	0.58347
1284.42393	0.58202
1282.49536	0.58054
1280.56680	0.57911
1278.63823	0.57760
1276.70967	0.57605
1274.78110	0.57479
1272.85254	0.57393
1270.92397	0.57316
1268.99541	0.57223
1267.06685	0.57132
1265.13828	0.57057
1263.20972	0.56984
1261.28115	0.56900
1259.35259	0.56810
1257.42402	0.56738
1255.49546	0.56698
1253.56689	0.56678
1251.63833	0.56674
1249.70977	0.56685
1247.78120	0.56682
1245.85264	0.56644
1243.92407	0.56588
1241.99551	0.56517
1240.06694	0.56403
1238.13838	0.56222
1236.20981	0.55988
1234.28125	0.55744
1232.35269	0.55507
1230.42412	0.55275
1228.49556	0.55056
1226.56699	0.54850
1224.63843	0.54656
1222.70986	0.54472
1220.78130	0.54298
1218.85273	0.54137
1216.92417	0.53986
1214.99561	0.53869
1213.06704	0.53797
1211.13848	0.53736
1209.20991	0.53660
1207.28135	0.53586
1205.35278	0.53512
1203.42422	0.53431
1201.49565	0.53337
1199.56709	0.53239
1197.63853	0.53148
1195.70996	0.53072
1193.78140	0.53009
1191.85283	0.52957
1189.92427	0.52920
1187.99570	0.52891
1186.06714	0.52866
1184.13857	0.52857
1182.21001	0.52889
1180.28145	0.52982
1178.35288	0.53128
1176.42432	0.53289
1174.49575	0.53424
1172.56719	0.53513
1170.63862	0.53559
1168.71006	0.53571
1166.78149	0.53575
1164.85293	0.53588
1162.92437	0.53600
1160.99580	0.53593
1159.06724	0.53562
1157.13867	0.53504
1155.21011	0.53425
1153.28154	0.53314
1151.35298	0.53142
1149.42441	0.52900
1147.49585	0.52600
1145.56729	0.52274
1143.63872	0.51960
1141.71016	0.51688
1139.78159	0.51494
1137.85303	0.51381
1135.92446	0.51327
1133.99590	0.51313
1132.06733	0.51336
1130.13877	0.51381
1128.21021	0.51411
1126.28164	0.51396
1124.35308	0.51354
1122.42451	0.51331
1120.49595	0.51344
1118.56738	0.51384
1116.63882	0.51431
1114.71025	0.51491
1112.78169	0.51575
1110.85312	0.51663
1108.92456	0.51750
1106.99600	0.51843
1105.06743	0.51937
1103.13887	0.52035
1101.21030	0.52138
1099.28174	0.52262
1097.35317	0.52448
1095.42461	0.52707
1093.49604	0.53035
1091.56748	0.53474
1089.63892	0.54060
1087.71035	0.54775
1085.78179	0.55590
1083.85322	0.56435
1081.92466	0.57186
1079.99609	0.57730
1078.06753	0.58007
1076.13896	0.57987
1074.21040	0.57653
1072.28184	0.57059
1070.35327	0.56335
1068.42471	0.55610
1066.49614	0.54945
1064.56758	0.54340
1062.63901	0.53794
1060.71045	0.53311
1058.78188	0.52876
1056.85332	0.52479
1054.92476	0.52126
1052.99619	0.51828
1051.06763	0.51600
1049.13906	0.51437
1047.21050	0.51318
1045.28193	0.51260
1043.35337	0.51266
1041.42480	0.51284
1039.49624	0.51274
1037.56768	0.51239
1035.63911	0.51191
1033.71055	0.51121
1031.78198	0.51009
1029.85342	0.50855
1027.92485	0.50682
1025.99629	0.50505
1024.06772	0.50360
1022.13916	0.50272
1020.21060	0.50233
1018.28203	0.50231
1016.35347	0.50231
1014.42490	0.50205
1012.49634	0.50162
1010.56777	0.50141
1008.63921	0.50162
1006.71064	0.50231
1004.78208	0.50333
1002.85352	0.50473
1000.92495	0.50709
998.99639	0.51062
997.06782	0.51478
995.13926	0.51907
993.21069	0.52326
991.28213	0.52680
989.35356	0.52907
987.42500	0.52995
985.49644	0.52990
983.56787	0.52964
981.63931	0.52980
979.71074	0.53066
977.78218	0.53211
975.85361	0.53389
973.92505	0.53594
971.99648	0.53849
970.06792	0.54159
968.13936	0.54510
966.21079	0.54892
964.28223	0.55316
962.35366	0.55792
960.42510	0.56299
958.49653	0.56824
956.56797	0.57376
954.63940	0.57941
952.71084	0.58508
950.78228	0.59095
948.85371	0.59713
946.92515	0.60372
944.99658	0.61035
943.06802	0.61630
941.13945	0.62173
939.21089	0.62767
937.28232	0.63444
935.35376	0.64106
933.42520	0.64677
931.49663	0.65164
929.56807	0.65637
927.63950	0.66188
925.71094	0.66823
923.78237	0.67477
921.85381	0.68130
919.92524	0.68815
917.99668	0.69532
916.06812	0.70234
914.13955	0.70890
912.21099	0.71561
910.28242	0.72359
908.35386	0.73272
906.42529	0.74195
904.49673	0.75105
902.56816	0.75989
900.63960	0.76798
898.71104	0.77656
896.78247	0.78699
894.85391	0.79772
892.92534	0.80752
890.99678	0.81696
889.06821	0.82686
887.13965	0.83845
885.21108	0.85100
883.28252	0.86272
881.35396	0.87361
879.42539	0.88353
877.49683	0.89340
875.56826	0.90470
873.63970	0.91596
871.71113	0.92670
869.78257	0.93811
867.85400	0.95027
865.92544	0.96292
863.99687	0.97493
862.06831	0.98631
860.13975	0.99776
858.21118	1.00963
856.28262	1.02262
854.35405	1.03602
852.42549	1.04835
850.49692	1.05899
848.56836	1.06860
846.63979	1.07899
844.71123	1.09105
842.78267	1.10327
840.85410	1.11458
838.92554	1.12651
836.99697	1.14009
835.06841	1.15264
833.13984	1.16261
831.21128	1.17266
829.28271	1.18415
827.35415	1.19661
825.42559	1.20929
823.49702	1.22209
821.56846	1.23417
819.63989	1.24369
817.71133	1.25606
815.78276	1.27830
813.85420	1.30075
811.92563	1.30974
809.99707	1.31538
808.06851	1.32910
806.13994	1.33839
804.21138	1.33336
802.28281	1.33462
800.35425	1.35777
798.42568	1.38626
796.49712	1.40491
794.56855	1.43702
792.63999	1.48734
790.71143	1.51084
788.78286	1.49552
786.85430	1.45807
784.92573	1.44569
782.99717	1.48739
781.06860	1.54177
779.14004	1.56383
777.21147	1.59563
775.28291	1.70231
773.35435	1.78226
771.42578	1.73857
769.49722	1.77933
767.56865	1.92367
765.64009	1.79715
763.71152	1.62580
761.78296	1.60601
759.85439	1.55576
757.92583	1.46741
755.99727	1.42337
754.06870	1.38847
752.14014	1.45411
750.21157	1.75023
748.28301	1.54187
746.35444	1.15746
744.42588	1.01907
742.49731	1.11205
740.56875	4.44341
738.64019	4.43184
736.71162	4.42027
734.78306	4.40870
732.85449	1.46567
730.92593	0.94050
728.99736	0.76418
727.06880	0.78966
725.14023	0.87464
723.21167	0.82620
721.28311	0.70763
719.35454	0.56442
717.42598	0.49361
715.49741	0.40170
713.56885	0.27982
711.64028	0.27069
709.71172	0.37740
707.78315	0.49535
705.85459	0.47410
703.92603	0.35028
701.99746	0.30527
700.06890	0.35041
698.14033	0.36974
696.21177	0.36901
694.28320	0.37744
692.35464	0.46425
690.42607	0.69458
688.49751	0.76850
686.56895	0.70284
684.64038	0.72664
682.71182	0.55990
680.78325	0.37652
678.85469	0.26641
676.92612	0.21222
674.99756	0.32093
673.06899	0.74854
671.14043	0.51786
669.21187	0.30569
667.28330	0.33998
665.35474	0.50759
663.42617	0.47786
661.49761	0.33262
659.56904	0.23933
657.64048	0.12750
655.71191	0.08035
653.78335	0.10953
651.85479	0.17444
649.92622	0.20746
647.99766	0.21582
646.06909	0.25749
644.14053	0.27936
642.21196	0.23994
640.28340	0.18046
638.35483	0.20794
636.42627	0.32613
634.49771	0.35823
632.56914	0.28718
630.64058	0.29400
628.71201	0.31107
626.78345	0.25041
624.85488	0.23511
622.92632	0.36298
620.99775	0.49736
619.06919	0.32953
617.14062	0.20974
615.21206	0.21473
613.28350	0.33906
611.35493	0.50011
609.42637	0.55830
607.49780	0.44987
605.56924	0.30781
603.64067	0.24804
601.71211	0.30321
599.78354	0.43205
597.85498	0.47407
595.92642	0.37208
593.99785	0.29366
592.06929	0.27406
590.14072	0.24886
588.21216	0.20519
586.28359	0.21658
584.35503	0.28978
582.42646	0.35852
580.49790	0.41820
578.56934	0.46235
576.64077	0.43757
574.71221	0.42815
572.78364	0.45172
570.85508	0.35632
568.92651	0.29714
566.99795	0.27445
565.06938	0.23362
563.14082	0.22190
561.21226	0.23958
559.28369	0.21834
557.35513	0.16600
555.42656	0.17947
553.49800	0.26877
551.56943	0.25464
549.64087	0.18448
547.71230	0.19798
545.78374	0.30663
543.85518	0.45818
541.92661	0.49871
539.99805	0.45150
538.06948	0.61262
536.14092	3.21685
534.21235	3.20527
532.28379	0.56006
530.35522	0.24395
528.42666	0.22648
526.49810	0.29968
524.56953	0.27893
522.64097	0.23886
520.71240	0.26918
518.78384	0.37911
516.85527	0.54842
514.92671	0.57013
512.99814	0.47236
511.06958	0.37776
509.14102	0.27036
507.21245	0.19538
505.28389	0.17301
503.35532	0.16549
501.42676	0.13528
499.49819	0.13193
