3997.91411	0.05853
3995.98555	0.05948
3994.05698	0.06014
3992.12842	0.06042
3990.19985	0.06090
3988.27129	0.06135
3986.34272	0.06149
3984.41416	0.06168
3982.48560	0.06200
3980.55703	0.06210
3978.62847	0.06210
3976.69990	0.06251
3974.77134	0.06315
3972.84277	0.06345
3970.91421	0.06349
3968.98564	0.06360
3967.05708	0.06358
3965.12852	0.06341
3963.19995	0.06371
3961.27139	0.06439
3959.34282	0.06460
3957.41426	0.06449
3955.48569	0.06476
3953.55713	0.06523
3951.62856	0.06593
3949.70000	0.06705
3947.77144	0.06757
3945.84287	0.06706
3943.91431	0.06727
3941.98574	0.06840
3940.05718	0.06811
3938.12861	0.06646
3936.20005	0.06562
3934.27148	0.06645
3932.34292	0.06828
3930.41436	0.06931
3928.48579	0.06851
3926.55723	0.06763
3924.62866	0.06814
3922.70010	0.06863
3920.77153	0.06823
3918.84297	0.06838
3916.91440	0.06914
3914.98584	0.06841
3913.05728	0.06597
3911.12871	0.06427
3909.20015	0.06421
3907.27158	0.06549
3905.34302	0.06874
3903.41445	0.07315
3901.48589	0.07528
3899.55732	0.07428
3897.62876	0.07152
3895.70020	0.06869
3893.77163	0.06816
3891.84307	0.07013
3889.91450	0.07125
3887.98594	0.06992
3886.05737	0.06977
3884.12881	0.07155
3882.20024	0.07266
3880.27168	0.07311
3878.34312	0.07244
3876.41455	0.07119
3874.48599	0.07212
3872.55742	0.07462
3870.62886	0.07674
3868.70029	0.07776
3866.77173	0.07721
3864.84316	0.07736
3862.91460	0.07783
3860.98604	0.07574
3859.05747	0.07361
3857.12891	0.07427
3855.20034	0.07792
3853.27178	0.08441
3851.34321	0.08689
3849.41465	0.08134
3847.48608	0.07631
3845.55752	0.07499
3843.62896	0.07714
3841.70039	0.08112
3839.77183	0.08550
3837.84326	0.08885
3835.91470	0.08864
3833.98613	0.08594
3832.05757	0.08364
3830.12900	0.08240
3828.20044	0.08244
3826.27187	0.08380
3824.34331	0.08554
3822.41475	0.08832
3820.48618	0.09306
3818.55762	0.09482
3816.62905	0.09352
3814.70049	0.09208
3812.77192	0.08944
3810.84336	0.08745
3808.91479	0.08842
3806.98623	0.09244
3805.05767	0.09639
3803.12910	0.09895
3801.20054	0.10252
3799.27197	0.10397
3797.34341	0.10221
3795.41484	0.10071
3793.48628	0.09918
3791.55771	0.09823
3789.62915	0.09861
3787.70059	0.10001
3785.77202	0.10268
3783.84346	0.10559
3781.91489	0.10716
3779.98633	0.10872
3778.05776	0.11080
3776.12920	0.11139
3774.20063	0.11149
3772.27207	0.11331
3770.34351	0.11744
3768.41494	0.12195
3766.48638	0.12459
3764.55781	0.12617
3762.62925	0.12695
3760.70068	0.12878
3758.77212	0.13348
3756.84355	0.13789
3754.91499	0.14002
3752.98643	0.14361
3751.05786	0.15155
3749.12930	0.15935
3747.20073	0.16110
3745.27217	0.16227
3743.34360	0.16553
3741.41504	0.16730
3739.48647	0.16890
3737.55791	0.17422
3735.62935	0.18425
3733.70078	0.19345
3731.77222	0.19572
3729.84365	0.19590
3727.91509	0.19863
3725.98652	0.20478
3724.05796	0.21215
3722.12939	0.21825
3720.20083	0.22331
3718.27227	0.22758
3716.34370	0.23214
3714.41514	0.23898
3712.48657	0.25097
3710.55801	0.26893
3708.62944	0.28392
3706.70088	0.29254
3704.77231	0.30174
3702.84375	0.31510
3700.91519	0.33267
3698.98662	0.35037
3697.05806	0.36672
3695.12949	0.38507
3693.20093	0.40586
3691.27236	0.43017
3689.34380	0.46156
3687.41523	0.49569
3685.48667	0.52223
3683.55811	0.54538
3681.62954	0.57254
3679.70098	0.60552
3677.77241	0.64205
3675.84385	0.68574
3673.91528	0.74070
3671.98672	0.78271
3670.05815	0.82072
3668.12959	0.87276
3666.20103	0.91812
3664.27246	0.95619
3662.34390	0.99883
3660.41533	1.04587
3658.48677	1.09313
3656.55820	1.14463
3654.62964	1.20186
3652.70107	1.24972
3650.77251	1.29323
3648.84395	1.35386
3646.91538	1.42324
3644.98682	1.47030
3643.05825	1.50623
3641.12969	1.54477
3639.20112	1.58917
3637.27256	1.63507
3635.34399	1.67957
3633.41543	1.72379
3631.48687	1.76632
3629.55830	1.81107
3627.62974	1.86852
3625.70117	1.91807
3623.77261	1.94904
3621.84404	1.98044
3619.91548	2.01943
3617.98691	2.06692
3616.05835	2.11152
3614.12979	2.14884
3612.20122	2.18881
3610.27266	2.22877
3608.34409	2.26756
3606.41553	2.30811
3604.48696	2.34665
3602.55840	2.38249
3600.62983	2.42163
3598.70127	2.46354
3596.77271	2.50437
3594.84414	2.54589
3592.91558	2.58708
3590.98701	2.62503
3589.05845	2.66252
3587.12988	2.70792
3585.20132	2.75497
3583.27275	2.79292
3581.34419	2.82933
3579.41562	2.87048
3577.48706	2.91391
3575.55850	2.95628
3573.62993	2.99888
3571.70137	3.04103
3569.77280	3.08283
3567.84424	3.12839
3565.91567	3.18253
3563.98711	3.23229
3562.05854	3.27174
3560.12998	3.31140
3558.20142	3.35532
3556.27285	3.40239
3554.34429	3.44886
3552.41572	3.49499
3550.48716	3.53981
3548.55859	3.58320
3546.63003	3.63028
3544.70146	3.68192
3542.77290	3.73072
3540.84434	3.77433
3538.91577	3.81721
3536.98721	3.86252
3535.05864	3.91248
3533.13008	3.96256
3531.20151	4.00931
3529.27295	4.05455
3527.34438	4.10357
3525.41582	4.15741
3523.48726	4.20824
3521.55869	4.25547
3519.63013	4.30433
3517.70156	4.35407
3515.77300	4.39953
3513.84443	4.43998
3511.91587	4.47921
3509.98730	4.52411
3508.05874	4.57831
3506.13018	4.63210
3504.20161	4.67839
3502.27305	4.72550
3500.34448	4.77620
3498.41592	4.82627
3496.48735	4.87908
3494.55879	4.93276
3492.63022	4.98193
3490.70166	5.02786
3488.77310	5.07446
3486.84453	5.12303
3484.91597	5.17071
3482.98740	5.21782
3481.05884	5.26816
3479.13027	5.31608
3477.20171	5.36133
3475.27314	5.41307
3473.34458	5.46725
3471.41602	5.51511
3469.48745	5.55528
3467.55889	5.59314
3465.63032	5.63699
3463.70176	5.68909
3461.77319	5.74370
3459.84463	5.79701
3457.91606	5.85109
3455.98750	5.90791
3454.05894	5.96130
3452.13037	6.01486
3450.20181	6.07735
3448.27324	6.13525
3446.34468	6.17988
3444.41611	6.22059
3442.48755	6.26245
3440.55898	6.29972
3438.63042	6.34903
3436.70186	6.41816
3434.77329	6.47841
3432.84473	6.51841
3430.91616	6.55781
3428.98760	6.61287
3427.05903	6.66659
3425.13047	6.71041
3423.20190	6.75128
3421.27334	6.80998
3419.34478	6.90096
3417.41621	6.97851
3415.48765	7.00571
3413.55908	7.02107
3411.63052	7.05949
3409.70195	7.10802
3407.77339	7.16889
3405.84482	7.21809
3403.91626	7.23450
3401.98770	7.24657
3400.05913	7.27748
3398.13057	7.31749
3396.20200	7.35259
3394.27344	7.40122
3392.34487	7.45991
3390.41631	7.53102
3388.48774	7.58995
3386.55918	7.60901
3384.63062	7.61189
3382.70205	7.63892
3380.77349	7.71341
3378.84492	7.78123
3376.91636	7.77804
3374.98779	7.72263
3373.05923	7.71489
3371.13066	7.78005
3369.20210	7.85182
3367.27354	7.87363
3365.34497	7.83256
3363.41641	7.77596
3361.48784	7.77959
3359.55928	7.86135
3357.63071	7.93647
3355.70215	7.97139
3353.77358	7.99610
3351.84502	7.99679
3349.91646	7.99845
3347.98789	8.06460
3346.05933	8.15761
3344.13076	8.22873
3342.20220	8.28536
3340.27363	8.29519
3338.34507	8.25656
3336.41650	8.18765
3334.48794	8.14967
3332.55937	8.16759
3330.63081	8.18361
3328.70225	8.18482
3326.77368	8.22373
3324.84512	8.26305
3322.91655	8.21409
3320.98799	8.16668
3319.05942	8.20756
3317.13086	8.28004
3315.20229	8.28320
3313.27373	8.23931
3311.34517	8.21551
3309.41660	8.22984
3307.48804	8.30121
3305.55947	8.34113
3303.63091	8.25273
3301.70234	8.15754
3299.77378	8.18681
3297.84521	8.26046
3295.91665	8.24013
3293.98809	8.17457
3292.05952	8.17812
3290.13096	8.24206
3288.20239	8.32378
3286.27383	8.38641
3284.34526	8.40322
3282.41670	8.43605
3280.48813	8.47405
3278.55957	8.45646
3276.63101	8.40167
3274.70244	8.40915
3272.77388	8.46467
3270.84531	8.42778
3268.91675	8.35147
3266.98818	8.36832
3265.05962	8.48667
3263.13105	8.56971
3261.20249	8.53929
3259.27393	8.49240
3257.34536	8.45234
3255.41680	8.39062
3253.48823	8.36379
3251.55967	8.39678
3249.63110	8.46213
3247.70254	8.50741
3245.77397	8.45138
3243.84541	8.33661
3241.91685	8.26266
3239.98828	8.28996
3238.05972	8.37196
3236.13115	8.38528
3234.20259	8.34328
3232.27402	8.30656
3230.34546	8.29120
3228.41689	8.30150
3226.48833	8.30928
3224.55977	8.31753
3222.63120	8.30646
3220.70264	8.22932
3218.77407	8.16149
3216.84551	8.12246
3214.91694	8.05597
3212.98838	8.02933
3211.05981	8.05427
3209.13125	7.99204
3207.20269	7.85999
3205.27412	7.80486
3203.34556	7.83487
3201.41699	7.87192
3199.48843	7.85974
3197.55986	7.81378
3195.63130	7.78994
3193.70273	7.77791
3191.77417	7.72259
3189.84561	7.64853
3187.91704	7.61495
3185.98848	7.58801
3184.05991	7.51582
3182.13135	7.41472
3180.20278	7.32578
3178.27422	7.26311
3176.34565	7.20346
3174.41709	7.14984
3172.48853	7.11900
3170.55996	7.07620
3168.63140	7.00073
3166.70283	6.92043
3164.77427	6.84079
3162.84570	6.74703
3160.91714	6.66180
3158.98857	6.61104
3157.06001	6.56692
3155.13145	6.50929
3153.20288	6.45210
3151.27432	6.39497
3149.34575	6.32907
3147.41719	6.25334
3145.48862	6.17329
3143.56006	6.09487
3141.63149	6.01755
3139.70293	5.93726
3137.77437	5.86292
3135.84580	5.80426
3133.91724	5.74223
3131.98867	5.65848
3130.06011	5.57355
3128.13154	5.50375
3126.20298	5.44120
3124.27441	5.37985
3122.34585	5.31147
3120.41729	5.23666
3118.48872	5.16626
3116.56016	5.09665
3114.63159	5.01979
3112.70303	4.94118
3110.77446	4.86895
3108.84590	4.80400
3106.91733	4.74131
3104.98877	4.67664
3103.06021	4.61240
3101.13164	4.54749
3099.20308	4.48055
3097.27451	4.41394
3095.34595	4.34696
3093.41738	4.28080
3091.48882	4.21585
3089.56025	4.14940
3087.63169	4.08215
3085.70312	4.01808
3083.77456	3.95886
3081.84600	3.90120
3079.91743	3.84212
3077.98887	3.78175
3076.06030	3.72126
3074.13174	3.66402
3072.20317	3.60943
3070.27461	3.55261
3068.34604	3.49473
3066.41748	3.43846
3064.48892	3.38307
3062.56035	3.32868
3060.63179	3.27538
3058.70322	3.22181
3056.77466	3.16884
3054.84609	3.11794
3052.91753	3.06698
3050.98896	3.01510
3049.06040	2.96456
3047.13184	2.91537
3045.20327	2.86563
3043.27471	2.81621
3041.34614	2.76877
3039.41758	2.72280
3037.48901	2.67756
3035.56045	2.63298
3033.63188	2.58928
3031.70332	2.54606
3029.77476	2.50250
3027.84619	2.45888
3025.91763	2.41583
3023.98906	2.37373
3022.06050	2.33256
3020.13193	2.29181
3018.20337	2.25138
3016.27480	2.21102
3014.34624	2.17088
3012.41768	2.13246
3010.48911	2.09571
3008.56055	2.05916
3006.63198	2.02314
3004.70342	1.98820
3002.77485	1.95360
3000.84629	1.91918
2998.91772	1.88553
2996.98916	1.85320
2995.06060	1.82215
2993.13203	1.79142
2991.20347	1.76115
2989.27490	1.73198
2987.34634	1.70330
2985.41777	1.67511
2983.48921	1.64744
2981.56064	1.61984
2979.63208	1.59275
2977.70352	1.56647
2975.77495	1.54085
2973.84639	1.51570
2971.91782	1.49080
2969.98926	1.46644
2968.06069	1.44273
2966.13213	1.41914
2964.20356	1.39545
2962.27500	1.37204
2960.34644	1.34905
2958.41787	1.32622
2956.48931	1.30324
2954.56074	1.27975
2952.63218	1.25564
2950.70361	1.23158
2948.77505	1.20881
2946.84648	1.18756
2944.91792	1.16662
2942.98936	1.14551
2941.06079	1.12526
2939.13223	1.10593
2937.20366	1.08638
2935.27510	1.06651
2933.34653	1.04713
2931.41797	1.02826
2929.48940	1.00930
2927.56084	0.99017
2925.63228	0.97145
2923.70371	0.95379
2921.77515	0.93698
2919.84658	0.92003
2917.91802	0.90314
2915.98945	0.88693
2914.06089	0.87079
2912.13232	0.85465
2910.20376	0.83918
2908.27520	0.82434
2906.34663	0.80951
2904.41807	0.79470
2902.48950	0.78058
2900.56094	0.76717
2898.63237	0.75415
2896.70381	0.74134
2894.77524	0.72869
2892.84668	0.71639
2890.91812	0.70471
2888.98955	0.69368
2887.06099	0.68289
2885.13242	0.67219
2883.20386	0.66207
2881.27529	0.65256
2879.34673	0.64318
2877.41816	0.63378
2875.48960	0.62430
2873.56104	0.61440
2871.63247	0.60399
2869.70391	0.59327
2867.77534	0.58221
2865.84678	0.57078
2863.91821	0.55925
2861.98965	0.54780
2860.06108	0.53675
2858.13252	0.52659
2856.20396	0.51722
2854.27539	0.50819
2852.34683	0.49930
2850.41826	0.49061
2848.48970	0.48223
2846.56113	0.47446
2844.63257	0.46730
2842.70400	0.46032
2840.77544	0.45363
2838.84687	0.44761
2836.91831	0.44196
2834.98975	0.43625
2833.06118	0.43054
2831.13262	0.42489
2829.20405	0.41917
2827.27549	0.41340
2825.34692	0.40765
2823.41836	0.40190
2821.48979	0.39618
2819.56123	0.39039
2817.63267	0.38456
2815.70410	0.37894
2813.77554	0.37344
2811.84697	0.36793
2809.91841	0.36256
2807.98984	0.35734
2806.06128	0.35226
2804.13271	0.34725
2802.20415	0.34228
2800.27559	0.33744
2798.34702	0.33271
2796.41846	0.32800
2794.48989	0.32335
2792.56133	0.31890
2790.63276	0.31456
2788.70420	0.31014
2786.77563	0.30570
2784.84707	0.30144
2782.91851	0.29735
2780.98994	0.29330
2779.06138	0.28925
2777.13281	0.28533
2775.20425	0.28167
2773.27568	0.27806
2771.34712	0.27422
2769.41855	0.27036
2767.48999	0.26678
2765.56143	0.26350
2763.63286	0.26031
2761.70430	0.25708
2759.77573	0.25386
2757.84717	0.25065
2755.91860	0.24748
2753.99004	0.24438
2752.06147	0.24128
2750.13291	0.23828
2748.20435	0.23549
2746.27578	0.23274
2744.34722	0.22990
2742.41865	0.22709
2740.49009	0.22446
2738.56152	0.22201
2736.63296	0.21972
2734.70439	0.21746
2732.77583	0.21508
2730.84727	0.21267
2728.91870	0.21031
2726.99014	0.20789
2725.06157	0.20554
2723.13301	0.20343
2721.20444	0.20145
2719.27588	0.19944
2717.34731	0.19751
2715.41875	0.19576
2713.49019	0.19409
2711.56162	0.19236
2709.63306	0.19055
2707.70449	0.18874
2705.77593	0.18706
2703.84736	0.18557
2701.91880	0.18418
2699.99023	0.18278
2698.06167	0.18124
2696.13311	0.17971
2694.20454	0.17830
2692.27598	0.17696
2690.34741	0.17574
2688.41885	0.17456
2686.49028	0.17325
2684.56172	0.17184
2682.63315	0.17050
2680.70459	0.16926
2678.77603	0.16814
2676.84746	0.16715
2674.91890	0.16621
2672.99033	0.16520
2671.06177	0.16414
2669.13320	0.16305
2667.20464	0.16202
2665.27607	0.16106
2663.34751	0.16017
2661.41895	0.15934
2659.49038	0.15857
2657.56182	0.15780
2655.63325	0.15709
2653.70469	0.15644
2651.77612	0.15578
2649.84756	0.15514
2647.91899	0.15449
2645.99043	0.15381
2644.06187	0.15323
2642.13330	0.15283
2640.20474	0.15243
2638.27617	0.15186
2636.34761	0.15121
2634.41904	0.15063
2632.49048	0.15017
2630.56191	0.14979
2628.63335	0.14946
2626.70479	0.14920
2624.77622	0.14889
2622.84766	0.14854
2620.91909	0.14824
2618.99053	0.14788
2617.06196	0.14749
2615.13340	0.14719
2613.20483	0.14687
2611.27627	0.14664
2609.34771	0.14669
2607.41914	0.14678
2605.49058	0.14673
2603.56201	0.14674
2601.63345	0.14686
2599.70488	0.14686
2597.77632	0.14669
2595.84775	0.14663
2593.91919	0.14671
2591.99062	0.14684
2590.06206	0.14701
2588.13350	0.14713
2586.20493	0.14726
2584.27637	0.14751
2582.34780	0.14775
2580.41924	0.14790
2578.49067	0.14809
2576.56211	0.14837
2574.63354	0.14859
2572.70498	0.14882
2570.77642	0.14916
2568.84785	0.14945
2566.91929	0.14970
2564.99072	0.15007
2563.06216	0.15045
2561.13359	0.15082
2559.20503	0.15131
2557.27646	0.15186
2555.34790	0.15230
2553.41934	0.15264
2551.49077	0.15310
2549.56221	0.15371
2547.63364	0.15446
2545.70508	0.15524
2543.77651	0.15587
2541.84795	0.15637
2539.91938	0.15684
2537.99082	0.15736
2536.06226	0.15797
2534.13369	0.15861
2532.20513	0.15922
2530.27656	0.15979
2528.34800	0.16036
2526.41943	0.16102
2524.49087	0.16175
2522.56230	0.16254
2520.63374	0.16340
2518.70518	0.16408
2516.77661	0.16459
2514.84805	0.16520
2512.91948	0.16605
2510.99092	0.16704
2509.06235	0.16794
2507.13379	0.16867
2505.20522	0.16948
2503.27666	0.17035
2501.34810	0.17112
2499.41953	0.17197
2497.49097	0.17295
2495.56240	0.17382
2493.63384	0.17449
2491.70527	0.17504
2489.77671	0.17571
2487.84814	0.17658
2485.91958	0.17752
2483.99102	0.17843
2482.06245	0.17936
2480.13389	0.18031
2478.20532	0.18122
2476.27676	0.18210
2474.34819	0.18298
2472.41963	0.18383
2470.49106	0.18467
2468.56250	0.18538
2466.63394	0.18597
2464.70537	0.18680
2462.77681	0.18795
2460.84824	0.18916
2458.91968	0.19020
2456.99111	0.19104
2455.06255	0.19192
2453.13398	0.19301
2451.20542	0.19414
2449.27686	0.19511
2447.34829	0.19590
2445.41973	0.19664
2443.49116	0.19745
2441.56260	0.19837
2439.63403	0.19933
2437.70547	0.20028
2435.77690	0.20124
2433.84834	0.20225
2431.91978	0.20332
2429.99121	0.20449
2428.06265	0.20572
2426.13408	0.20685
2424.20552	0.20787
2422.27695	0.20887
2420.34839	0.20984
2418.41982	0.21088
2416.49126	0.21211
2414.56270	0.21334
2412.63413	0.21437
2410.70557	0.21533
2408.77700	0.21643
2406.84844	0.21768
2404.91987	0.21893
2402.99131	0.22005
2401.06274	0.22120
2399.13418	0.22241
2397.20562	0.22364
2395.27705	0.22490
2393.34849	0.22619
2391.41992	0.22754
2389.49136	0.22901
2387.56279	0.23085
2385.63423	0.23353
2383.70566	0.23744
2381.77710	0.24273
2379.84854	0.24930
2377.91997	0.25688
2375.99141	0.26541
2374.06284	0.27521
2372.13428	0.28629
2370.20571	0.29817
2368.27715	0.31010
2366.34858	0.32115
2364.42002	0.33047
2362.49146	0.33780
2360.56289	0.34286
2358.63433	0.34453
2356.70576	0.34174
2354.77720	0.33457
2352.84863	0.32457
2350.92007	0.31388
2348.99150	0.30703
2347.06294	0.30754
2345.13437	0.31590
2343.20581	0.32734
2341.27725	0.33422
2339.34868	0.33578
2337.42012	0.33523
2335.49155	0.33445
2333.56299	0.33339
2331.63442	0.33281
2329.70586	0.33321
2327.77729	0.33322
2325.84873	0.33165
2323.92017	0.32917
2321.99160	0.32661
2320.06304	0.32366
2318.13447	0.32031
2316.20591	0.31766
2314.27734	0.31634
2312.34878	0.31592
2310.42021	0.31570
2308.49165	0.31504
2306.56309	0.31377
2304.63452	0.31255
2302.70596	0.31213
2300.77739	0.31247
2298.84883	0.31300
2296.92026	0.31356
2294.99170	0.31416
2293.06313	0.31473
2291.13457	0.31525
2289.20601	0.31593
2287.27744	0.31685
2285.34888	0.31786
2283.42031	0.31909
2281.49175	0.32081
2279.56318	0.32299
2277.63462	0.32534
2275.70605	0.32765
2273.77749	0.32986
2271.84893	0.33195
2269.92036	0.33391
2267.99180	0.33584
2266.06323	0.33782
2264.13467	0.33976
2262.20610	0.34172
2260.27754	0.34372
2258.34897	0.34556
2256.42041	0.34732
2254.49185	0.34923
2252.56328	0.35128
2250.63472	0.35332
2248.70615	0.35525
2246.77759	0.35723
2244.84902	0.35935
2242.92046	0.36144
2240.99189	0.36352
2239.06333	0.36566
2237.13477	0.36777
2235.20620	0.36987
2233.27764	0.37203
2231.34907	0.37427
2229.42051	0.37654
2227.49194	0.37881
2225.56338	0.38108
2223.63481	0.38321
2221.70625	0.38520
2219.77769	0.38733
2217.84912	0.38967
2215.92056	0.39195
2213.99199	0.39405
2212.06343	0.39611
2210.13486	0.39820
2208.20630	0.40025
2206.27773	0.40222
2204.34917	0.40419
2202.42061	0.40629
2200.49204	0.40850
2198.56348	0.41069
2196.63491	0.41272
2194.70635	0.41446
2192.77778	0.41600
2190.84922	0.41776
2188.92065	0.41978
2186.99209	0.42176
2185.06353	0.42354
2183.13496	0.42519
2181.20640	0.42680
2179.27783	0.42841
2177.34927	0.43003
2175.42070	0.43166
2173.49214	0.43325
2171.56357	0.43475
2169.63501	0.43616
2167.70645	0.43750
2165.77788	0.43880
2163.84932	0.44009
2161.92075	0.44133
2159.99219	0.44239
2158.06362	0.44332
2156.13506	0.44420
2154.20649	0.44502
2152.27793	0.44581
2150.34937	0.44659
2148.42080	0.44730
2146.49224	0.44799
2144.56367	0.44868
2142.63511	0.44925
2140.70654	0.44957
2138.77798	0.44976
2136.84941	0.44997
2134.92085	0.45021
2132.99229	0.45043
2131.06372	0.45050
2129.13516	0.45034
2127.20659	0.44998
2125.27803	0.44965
2123.34946	0.44935
2121.42090	0.44890
2119.49233	0.44831
2117.56377	0.44781
2115.63521	0.44735
2113.70664	0.44667
2111.77808	0.44580
2109.84951	0.44488
2107.92095	0.44398
2105.99238	0.44304
2104.06382	0.44194
2102.13525	0.44063
2100.20669	0.43925
2098.27812	0.43790
2096.34956	0.43665
2094.42100	0.43537
2092.49243	0.43387
2090.56387	0.43223
2088.63530	0.43058
2086.70674	0.42896
2084.77817	0.42726
2082.84961	0.42538
2080.92104	0.42332
2078.99248	0.42124
2077.06392	0.41929
2075.13535	0.41737
2073.20679	0.41533
2071.27822	0.41310
2069.34966	0.41074
2067.42109	0.40849
2065.49253	0.40639
2063.56396	0.40413
2061.63540	0.40164
2059.70684	0.39906
2057.77827	0.39652
2055.84971	0.39413
2053.92114	0.39180
2051.99258	0.38937
2050.06401	0.38682
2048.13545	0.38428
2046.20688	0.38176
2044.27832	0.37923
2042.34976	0.37670
2040.42119	0.37410
2038.49263	0.37135
2036.56406	0.36859
2034.63550	0.36588
2032.70693	0.36315
2030.77837	0.36042
2028.84980	0.35775
2026.92124	0.35507
2024.99268	0.35228
2023.06411	0.34953
2021.13555	0.34686
2019.20698	0.34431
2017.27842	0.34184
2015.34985	0.33914
2013.42129	0.33619
2011.49272	0.33335
2009.56416	0.33071
2007.63560	0.32813
2005.70703	0.32548
2003.77847	0.32270
2001.84990	0.31993
1999.92134	0.31731
1997.99277	0.31475
1996.06421	0.31227
1994.13564	0.31008
1992.20708	0.30804
1990.27852	0.30562
1988.34995	0.30288
1986.42139	0.30019
1984.49282	0.29766
1982.56426	0.29525
1980.63569	0.29289
1978.70713	0.29054
1976.77856	0.28826
1974.85000	0.28607
1972.92144	0.28393
1970.99287	0.28189
1969.06431	0.28019
1967.13574	0.27861
1965.20718	0.27657
1963.27861	0.27430
1961.35005	0.27222
1959.42148	0.27017
1957.49292	0.26817
1955.56436	0.26638
1953.63579	0.26467
1951.70723	0.26291
1949.77866	0.26125
1947.85010	0.25981
1945.92153	0.25860
1943.99297	0.25764
1942.06440	0.25649
1940.13584	0.25454
1938.20728	0.25247
1936.27871	0.25094
1934.35015	0.24971
1932.42158	0.24854
1930.49302	0.24733
1928.56445	0.24610
1926.63589	0.24504
1924.70732	0.24443
1922.77876	0.24398
1920.85020	0.24311
1918.92163	0.24216
1916.99307	0.24116
1915.06450	0.23980
1913.13594	0.23864
1911.20737	0.23813
1909.27881	0.23783
1907.35024	0.23714
1905.42168	0.23614
1903.49312	0.23524
1901.56455	0.23452
1899.63599	0.23390
1897.70742	0.23350
1895.77886	0.23343
1893.85029	0.23337
1891.92173	0.23317
1889.99316	0.23318
1888.06460	0.23288
1886.13604	0.23216
1884.20747	0.23167
1882.27891	0.23144
1880.35034	0.23126
1878.42178	0.23109
1876.49321	0.23103
1874.56465	0.23100
1872.63608	0.23125
1870.70752	0.23239
1868.77896	0.23419
1866.85039	0.23455
1864.92183	0.23340
1862.99326	0.23256
1861.06470	0.23248
1859.13613	0.23279
1857.20757	0.23305
1855.27900	0.23333
1853.35044	0.23374
1851.42187	0.23437
1849.49331	0.23530
1847.56475	0.23663
1845.63618	0.23838
1843.70762	0.23991
1841.77905	0.23995
1839.85049	0.23949
1837.92192	0.24003
1835.99336	0.24102
1834.06479	0.24192
1832.13623	0.24332
1830.20767	0.24569
1828.27910	0.24748
1826.35054	0.24813
1824.42197	0.24905
1822.49341	0.24978
1820.56484	0.25039
1818.63628	0.25153
1816.70771	0.25318
1814.77915	0.25494
1812.85059	0.25712
1810.92202	0.25970
1808.99346	0.26175
1807.06489	0.26321
1805.13633	0.26482
1803.20776	0.26731
1801.27920	0.27050
1799.35063	0.27360
1797.42207	0.27597
1795.49351	0.27845
1793.56494	0.28188
1791.63638	0.28593
1789.70781	0.28851
1787.77925	0.28995
1785.85068	0.29268
1783.92212	0.29655
1781.99355	0.30078
1780.06499	0.30513
1778.13643	0.30929
1776.20786	0.31333
1774.27930	0.31849
1772.35073	0.32568
1770.42217	0.33206
1768.49360	0.33600
1766.56504	0.33980
1764.63647	0.34453
1762.70791	0.35070
1760.77935	0.35852
1758.85078	0.36544
1756.92222	0.37231
1754.99365	0.37971
1753.06509	0.38672
1751.13652	0.39600
1749.20796	0.40768
1747.27939	0.41798
1745.35083	0.42636
1743.42227	0.43547
1741.49370	0.44581
1739.56514	0.45803
1737.63657	0.47019
1735.70801	0.48134
1733.77944	0.49861
1731.85088	0.51800
1729.92231	0.53224
1727.99375	0.54663
1726.06519	0.56260
1724.13662	0.58075
1722.20806	0.60076
1720.27949	0.61985
1718.35093	0.64337
1716.42236	0.67711
1714.49380	0.70639
1712.56523	0.72894
1710.63667	0.75165
1708.70811	0.77736
1706.77954	0.80754
1704.85098	0.84336
1702.92241	0.87474
1700.99385	0.90640
1699.06528	0.95405
1697.13672	0.99725
1695.20815	1.04050
1693.27959	1.08213
1691.35103	1.11652
1689.42246	1.15797
1687.49390	1.20274
1685.56533	1.24650
1683.63677	1.31261
1681.70820	1.37881
1679.77964	1.42037
1677.85107	1.46111
1675.92251	1.50934
1673.99395	1.56938
1672.06538	1.62295
1670.13682	1.67606
1668.20825	1.74456
1666.27969	1.79992
1664.35112	1.84861
1662.42256	1.91242
1660.49399	1.98463
1658.56543	2.03994
1656.63687	2.08475
1654.70830	2.12708
1652.77974	2.19097
1650.85117	2.24779
1648.92261	2.26733
1646.99404	2.29297
1645.06548	2.31861
1643.13691	2.33335
1641.20835	2.34127
1639.27979	2.35003
1637.35122	2.35632
1635.42266	2.35572
1633.49409	2.34643
1631.56553	2.33052
1629.63696	2.31137
1627.70840	2.28139
1625.77983	2.24698
1623.85127	2.20305
1621.92271	2.14756
1619.99414	2.09779
1618.06558	2.05087
1616.13701	1.98496
1614.20845	1.91662
1612.27988	1.86387
1610.35132	1.80950
1608.42275	1.75114
1606.49419	1.69405
1604.56562	1.64230
1602.63706	1.59295
1600.70850	1.54451
1598.77993	1.49976
1596.85137	1.45816
1594.92280	1.41810
1592.99424	1.37942
1591.06567	1.34399
1589.13711	1.31111
1587.20854	1.28099
1585.27998	1.25351
1583.35142	1.22800
1581.42285	1.20509
1579.49429	1.18642
1577.56572	1.17103
1575.63716	1.15253
1573.70859	1.13497
1571.78003	1.12379
1569.85146	1.11405
1567.92290	1.10347
1565.99434	1.09557
1564.06577	1.09066
1562.13721	1.08803
1560.20864	1.08949
1558.28008	1.09694
1556.35151	1.10073
1554.42295	1.10095
1552.49438	1.10203
1550.56582	1.10245
1548.63726	1.10015
1546.70869	1.09500
1544.78013	1.08781
1542.85156	1.07852
1540.92300	1.06267
1538.99443	1.03165
1537.06587	1.00619
1535.13730	0.99006
1533.20874	0.97016
1531.28018	0.94794
1529.35161	0.93154
1527.42305	0.91724
1525.49448	0.90292
1523.56592	0.89078
1521.63735	0.87928
1519.70879	0.86676
1517.78022	0.85557
1515.85166	0.84228
1513.92310	0.82789
1511.99453	0.81606
1510.06597	0.80704
1508.13740	0.79993
1506.20884	0.78569
1504.28027	0.76912
1502.35171	0.75960
1500.42314	0.75279
1498.49458	0.74655
1496.56602	0.73890
1494.63745	0.73017
1492.70889	0.72381
1490.78032	0.71980
1488.85176	0.71482
1486.92319	0.70772
1484.99463	0.70142
1483.06606	0.69732
1481.13750	0.69466
1479.20894	0.69270
1477.28037	0.69199
1475.35181	0.69293
1473.42324	0.69454
1471.49468	0.69368
1469.56611	0.69010
1467.63755	0.68713
1465.70898	0.68563
1463.78042	0.68453
1461.85186	0.68376
1459.92329	0.68461
1457.99473	0.68727
1456.06616	0.68783
1454.13760	0.68408
1452.20903	0.68039
1450.28047	0.67758
1448.35190	0.67516
1446.42334	0.67229
1444.49478	0.66918
1442.56621	0.66646
1440.63765	0.66421
1438.70908	0.66237
1436.78052	0.65995
1434.85195	0.65604
1432.92339	0.65254
1430.99482	0.65050
1429.06626	0.64939
1427.13770	0.64888
1425.20913	0.64932
1423.28057	0.65039
1421.35200	0.65144
1419.42344	0.65268
1417.49487	0.65288
1415.56631	0.65108
1413.63774	0.64951
1411.70918	0.64932
1409.78062	0.65026
1407.85205	0.65189
1405.92349	0.65417
1403.99492	0.65610
1402.06636	0.65664
1400.13779	0.65655
1398.20923	0.65579
1396.28066	0.65355
1394.35210	0.64948
1392.42354	0.64425
1390.49497	0.63958
1388.56641	0.63560
1386.63784	0.63097
1384.70928	0.62548
1382.78071	0.62012
1380.85215	0.61524
1378.92358	0.61114
1376.99502	0.60836
1375.06646	0.60692
1373.13789	0.60569
1371.20933	0.60414
1369.28076	0.60293
1367.35220	0.60185
1365.42363	0.60058
1363.49507	0.59947
1361.56650	0.59804
1359.63794	0.59598
1357.70937	0.59409
1355.78081	0.59261
1353.85225	0.59142
1351.92368	0.59059
1349.99512	0.59011
1348.06655	0.58959
1346.13799	0.58878
1344.20942	0.58799
1342.28086	0.58772
1340.35229	0.58806
1338.42373	0.58791
1336.49517	0.58674
1334.56660	0.58557
1332.63804	0.58500
1330.70947	0.58501
1328.78091	0.58548
1326.85234	0.58627
1324.92378	0.58718
1322.99521	0.58813
1321.06665	0.58907
1319.13809	0.58995
1317.20952	0.59041
1315.28096	0.59031
1313.35239	0.58993
1311.42383	0.58936
1309.49526	0.58858
1307.56670	0.58789
1305.63813	0.58743
1303.70957	0.58704
1301.78101	0.58651
1299.85244	0.58564
1297.92388	0.58439
1295.99531	0.58297
1294.06675	0.58168
1292.13818	0.58055
1290.20962	0.57933
1288.28105	0.57804
1286.35249	0.57684
1284.42393	0.57564
1282.49536	0.57427
1280.56680	0.57281
1278.63823	0.57138
1276.70967	0.57004
1274.78110	0.56898
1272.85254	0.56827
1270.92397	0.56757
1268.99541	0.56672
1267.06685	0.56597
1265.13828	0.56524
1263.20972	0.56433
1261.28115	0.56339
1259.35259	0.56261
1257.42402	0.56192
1255.49546	0.56139
1253.56689	0.56121
1251.63833	0.56140
1249.70977	0.56166
1247.78120	0.56166
1245.85264	0.56135
1243.92407	0.56081
1241.99551	0.55996
1240.06694	0.55869
1238.13838	0.55699
1236.20981	0.55489
1234.28125	0.55256
1232.35269	0.55032
1230.42412	0.54825
1228.49556	0.54614
1226.56699	0.54400
1224.63843	0.54210
1222.70986	0.54042
1220.78130	0.53891
1218.85273	0.53757
1216.92417	0.53636
1214.99561	0.53538
1213.06704	0.53465
1211.13848	0.53395
1209.20991	0.53319
1207.28135	0.53250
1205.35278	0.53179
1203.42422	0.53090
1201.49565	0.52985
1199.56709	0.52888
1197.63853	0.52814
1195.70996	0.52750
1193.78140	0.52690
1191.85283	0.52642
1189.92427	0.52600
1187.99570	0.52558
1186.06714	0.52537
1184.13857	0.52553
1182.21001	0.52598
1180.28145	0.52678
1178.35288	0.52792
1176.42432	0.52926
1174.49575	0.53065
1172.56719	0.53156
1170.63862	0.53163
1168.71006	0.53141
1166.78149	0.53144
1164.85293	0.53159
1162.92437	0.53160
1160.99580	0.53131
1159.06724	0.53067
1157.13867	0.52994
1155.21011	0.52911
1153.28154	0.52792
1151.35298	0.52621
1149.42441	0.52389
1147.49585	0.52099
1145.56729	0.51787
1143.63872	0.51499
1141.71016	0.51251
1139.78159	0.51055
1137.85303	0.50916
1135.92446	0.50833
1133.99590	0.50795
1132.06733	0.50776
1130.13877	0.50765
1128.21021	0.50755
1126.28164	0.50731
1124.35308	0.50704
1122.42451	0.50677
1120.49595	0.50635
1118.56738	0.50603
1116.63882	0.50622
1114.71025	0.50682
1112.78169	0.50752
1110.85312	0.50819
1108.92456	0.50878
1106.99600	0.50946
1105.06743	0.51049
1103.13887	0.51191
1101.21030	0.51340
1099.28174	0.51484
1097.35317	0.51676
1095.42461	0.51969
1093.49604	0.52351
1091.56748	0.52796
1089.63892	0.53313
1087.71035	0.53933
1085.78179	0.54661
1083.85322	0.55437
1081.92466	0.56156
1079.99609	0.56702
1078.06753	0.56980
1076.13896	0.56961
1074.21040	0.56678
1072.28184	0.56175
1070.35327	0.55507
1068.42471	0.54774
1066.49614	0.54076
1064.56758	0.53452
1062.63901	0.52902
1060.71045	0.52415
1058.78188	0.51992
1056.85332	0.51608
1054.92476	0.51244
1052.99619	0.50927
1051.06763	0.50672
1049.13906	0.50474
1047.21050	0.50329
1045.28193	0.50216
1043.35337	0.50126
1041.42480	0.50070
1039.49624	0.50034
1037.56768	0.49991
1035.63911	0.49933
1033.71055	0.49874
1031.78198	0.49816
1029.85342	0.49738
1027.92485	0.49639
1025.99629	0.49549
1024.06772	0.49481
1022.13916	0.49430
1020.21060	0.49399
1018.28203	0.49407
1016.35347	0.49450
1014.42490	0.49488
1012.49634	0.49500
1010.56777	0.49512
1008.63921	0.49552
1006.71064	0.49632
1004.78208	0.49758
1002.85352	0.49932
1000.92495	0.50167
998.99639	0.50489
997.06782	0.50895
995.13926	0.51329
993.21069	0.51740
991.28213	0.52087
989.35356	0.52329
987.42500	0.52458
985.49644	0.52512
983.56787	0.52533
981.63931	0.52555
979.71074	0.52613
977.78218	0.52744
975.85361	0.52945
973.92505	0.53185
971.99648	0.53459
970.06792	0.53790
968.13936	0.54172
966.21079	0.54574
964.28223	0.54993
962.35366	0.55458
960.42510	0.55979
958.49653	0.56534
956.56797	0.57075
954.63940	0.57608
952.71084	0.58203
950.78228	0.58860
948.85371	0.59511
946.92515	0.60146
944.99658	0.60771
943.06802	0.61365
941.13945	0.61968
939.21089	0.62597
937.28232	0.63177
935.35376	0.63711
933.42520	0.64285
931.49663	0.64902
929.56807	0.65492
927.63950	0.66049
925.71094	0.66641
923.78237	0.67300
921.85381	0.67974
919.92524	0.68616
917.99668	0.69229
916.06812	0.69870
914.13955	0.70610
912.21099	0.71446
910.28242	0.72260
908.35386	0.72989
906.42529	0.73766
904.49673	0.74681
902.56816	0.75630
900.63960	0.76569
898.71104	0.77572
896.78247	0.78574
894.85391	0.79487
892.92534	0.80411
890.99678	0.81433
889.06821	0.82486
887.13965	0.83628
885.21108	0.84917
883.28252	0.86171
881.35396	0.87309
879.42539	0.88425
877.49683	0.89528
875.56826	0.90567
873.63970	0.91623
871.71113	0.92805
869.78257	0.94014
867.85400	0.95160
865.92544	0.96291
863.99687	0.97398
862.06831	0.98461
860.13975	0.99568
858.21118	1.00786
856.28262	1.02004
854.35405	1.03092
852.42549	1.04075
850.49692	1.05131
848.56836	1.06403
846.63979	1.07824
844.71123	1.09217
842.78267	1.10428
840.85410	1.11576
838.92554	1.12827
836.99697	1.13977
835.06841	1.15034
833.13984	1.16351
831.21128	1.17710
829.28271	1.18973
827.35415	1.20470
825.42559	1.21902
823.49702	1.23109
821.56846	1.24207
819.63989	1.25101
817.71133	1.26440
815.78276	1.28788
813.85420	1.30780
811.92563	1.31170
809.99707	1.31530
808.06851	1.33402
806.13994	1.35696
804.21138	1.36818
802.28281	1.38516
800.35425	1.39869
798.42568	1.37830
796.49712	1.37531
794.56855	1.41746
792.63999	1.44769
790.71143	1.44077
788.78286	1.43499
786.85430	1.44242
784.92573	1.45242
782.99717	1.44692
781.06860	1.41534
779.14004	1.39062
777.21147	1.39096
775.28291	1.41868
773.35435	1.47180
771.42578	1.52943
769.49722	1.57746
767.56865	1.57581
765.64009	1.44369
763.71152	1.37644
761.78296	1.47059
759.85439	1.63359
757.92583	1.53233
755.99727	1.31937
754.06870	1.26028
752.14014	1.36228
750.21157	1.36036
748.28301	1.17201
746.35444	1.08585
744.42588	1.01135
742.49731	0.89565
740.56875	0.88915
738.64019	0.93546
736.71162	0.78172
734.78306	0.64522
732.85449	0.62535
730.92593	0.60415
728.99736	0.53573
727.06880	0.48972
725.14023	0.44777
723.21167	0.31617
721.28311	0.11436
719.35454	-0.05549
717.42598	-0.11816
715.49741	-0.12422
713.56885	-0.21560
711.64028	-0.13533
709.71172	-0.09053
707.78315	-0.06322
705.85459	0.07589
703.92603	0.30449
701.99746	0.39462
700.06890	0.35206
698.14033	0.30658
696.21177	0.36253
694.28320	0.47844
692.35464	0.51788
690.42607	0.45010
688.49751	0.40817
686.56895	0.35695
684.64038	0.30667
682.71182	0.36527
680.78325	0.53344
678.85469	0.59237
676.92612	0.47520
674.99756	0.37435
673.06899	0.32630
671.14043	0.24430
669.21187	0.13343
667.28330	0.08758
665.35474	0.13309
663.42617	0.21188
661.49761	0.27631
659.56904	0.34143
657.64048	0.43647
655.71191	0.49126
653.78335	0.43499
651.85479	0.35896
649.92622	0.30506
647.99766	0.31116
646.06909	0.33683
644.14053	0.26203
642.21196	0.16367
640.28340	0.17192
638.35483	0.27496
636.42627	0.36465
634.49771	0.33075
632.56914	0.30758
630.64058	0.34632
628.71201	0.35453
626.78345	0.35557
624.85488	0.36112
622.92632	0.34379
620.99775	0.38328
619.06919	0.41754
617.14062	0.38475
615.21206	0.36165
613.28350	0.32003
611.35493	0.28521
609.42637	0.33240
607.49780	0.42598
605.56924	0.35801
603.64067	0.20559
601.71211	0.13555
599.78354	0.14937
597.85498	0.20061
595.92642	0.25281
593.99785	0.28896
592.06929	0.31509
590.14072	0.32537
588.21216	0.29217
586.28359	0.23063
584.35503	0.19132
582.42646	0.21639
580.49790	0.25596
578.56934	0.26843
576.64077	0.28416
574.71221	0.29637
572.78364	0.30424
570.85508	0.29435
568.92651	0.29399
566.99795	0.31816
565.06938	0.27772
563.14082	0.18977
561.21226	0.14583
559.28369	0.18205
557.35513	0.25867
555.42656	0.31465
553.49800	0.35286
551.56943	0.30982
549.64087	0.21057
547.71230	0.17225
545.78374	0.20805
543.85518	0.26804
541.92661	0.30439
539.99805	0.23904
538.06948	0.17228
536.14092	0.17759
534.21235	0.22277
532.28379	0.25640
530.35522	0.25547
528.42666	0.23268
526.49810	0.22488
524.56953	0.23697
522.64097	0.26731
520.71240	0.35261
518.78384	0.57363
516.85527	0.61412
514.92671	0.40039
512.99814	0.34690
511.06958	0.29606
509.14102	0.20936
507.21245	0.21308
505.28389	0.31889
503.35532	0.39687
501.42676	0.31487
499.49819	0.25110
