3997.91411	0.05052
3995.98555	0.05103
3994.05698	0.05156
3992.12842	0.05182
3990.19985	0.05189
3988.27129	0.05198
3986.34272	0.05231
3984.41416	0.05274
3982.48560	0.05308
3980.55703	0.05343
3978.62847	0.05371
3976.69990	0.05382
3974.77134	0.05399
3972.84277	0.05439
3970.91421	0.05463
3968.98564	0.05461
3967.05708	0.05479
3965.12852	0.05489
3963.19995	0.05472
3961.27139	0.05478
3959.34282	0.05504
3957.41426	0.05509
3955.48569	0.05501
3953.55713	0.05505
3951.62856	0.05514
3949.70000	0.05525
3947.77144	0.05557
3945.84287	0.05602
3943.91431	0.05612
3941.98574	0.05590
3940.05718	0.05592
3938.12861	0.05622
3936.20005	0.05627
3934.27148	0.05614
3932.34292	0.05610
3930.41436	0.05611
3928.48579	0.05602
3926.55723	0.05563
3924.62866	0.05530
3922.70010	0.05533
3920.77153	0.05533
3918.84297	0.05510
3916.91440	0.05514
3914.98584	0.05574
3913.05728	0.05620
3911.12871	0.05615
3909.20015	0.05596
3907.27158	0.05582
3905.34302	0.05548
3903.41445	0.05497
3901.48589	0.05488
3899.55732	0.05552
3897.62876	0.05640
3895.70020	0.05673
3893.77163	0.05648
3891.84307	0.05613
3889.91450	0.05594
3887.98594	0.05577
3886.05737	0.05577
3884.12881	0.05590
3882.20024	0.05578
3880.27168	0.05576
3878.34312	0.05620
3876.41455	0.05667
3874.48599	0.05725
3872.55742	0.05785
3870.62886	0.05784
3868.70029	0.05792
3866.77173	0.05838
3864.84316	0.05832
3862.91460	0.05809
3860.98604	0.05860
3859.05747	0.05934
3857.12891	0.05955
3855.20034	0.05922
3853.27178	0.05890
3851.34321	0.05979
3849.41465	0.06123
3847.48608	0.06228
3845.55752	0.06293
3843.62896	0.06321
3841.70039	0.06366
3839.77183	0.06492
3837.84326	0.06657
3835.91470	0.06713
3833.98613	0.06677
3832.05757	0.06703
3830.12900	0.06795
3828.20044	0.06850
3826.27187	0.06882
3824.34331	0.06970
3822.41475	0.07097
3820.48618	0.07248
3818.55762	0.07363
3816.62905	0.07429
3814.70049	0.07528
3812.77192	0.07624
3810.84336	0.07701
3808.91479	0.07778
3806.98623	0.07848
3805.05767	0.07918
3803.12910	0.08002
3801.20054	0.08145
3799.27197	0.08354
3797.34341	0.08525
3795.41484	0.08667
3793.48628	0.08787
3791.55771	0.08915
3789.62915	0.09068
3787.70059	0.09191
3785.77202	0.09282
3783.84346	0.09380
3781.91489	0.09502
3779.98633	0.09676
3778.05776	0.09908
3776.12920	0.10092
3774.20063	0.10214
3772.27207	0.10350
3770.34351	0.10532
3768.41494	0.10728
3766.48638	0.10887
3764.55781	0.11096
3762.62925	0.11349
3760.70068	0.11573
3758.77212	0.11799
3756.84355	0.12045
3754.91499	0.12272
3752.98643	0.12463
3751.05786	0.12694
3749.12930	0.13076
3747.20073	0.13392
3745.27217	0.13628
3743.34360	0.14065
3741.41504	0.14565
3739.48647	0.14909
3737.55791	0.15228
3735.62935	0.15677
3733.70078	0.16338
3731.77222	0.17041
3729.84365	0.17642
3727.91509	0.18143
3725.98652	0.18670
3724.05796	0.19293
3722.12939	0.19942
3720.20083	0.20592
3718.27227	0.21234
3716.34370	0.21870
3714.41514	0.22516
3712.48657	0.23325
3710.55801	0.24625
3708.62944	0.26227
3706.70088	0.27574
3704.77231	0.28777
3702.84375	0.30107
3700.91519	0.31816
3698.98662	0.33704
3697.05806	0.35468
3695.12949	0.37321
3693.20093	0.39266
3691.27236	0.41261
3689.34380	0.43845
3687.41523	0.47356
3685.48667	0.50577
3683.55811	0.53233
3681.62954	0.55975
3679.70098	0.59073
3677.77241	0.62328
3675.84385	0.66133
3673.91528	0.71437
3671.98672	0.75812
3670.05815	0.79665
3668.12959	0.85160
3666.20103	0.90182
3664.27246	0.94274
3662.34390	0.98666
3660.41533	1.03406
3658.48677	1.07966
3656.55820	1.12746
3654.62964	1.18207
3652.70107	1.22800
3650.77251	1.26567
3648.84395	1.31803
3646.91538	1.38869
3644.98682	1.44279
3643.05825	1.48300
3641.12969	1.52326
3639.20112	1.56806
3637.27256	1.61326
3635.34399	1.65692
3633.41543	1.70029
3631.48687	1.73976
3629.55830	1.77806
3627.62974	1.83132
3625.70117	1.88471
3623.77261	1.91997
3621.84404	1.95198
3619.91548	1.98867
3617.98691	2.03409
3616.05835	2.07804
3614.12979	2.11470
3612.20122	2.15326
3610.27266	2.19189
3608.34409	2.23178
3606.41553	2.27534
3604.48696	2.31497
3602.55840	2.34970
3600.62983	2.38843
3598.70127	2.43139
3596.77271	2.47174
3594.84414	2.51111
3592.91558	2.55217
3590.98701	2.59032
3589.05845	2.62418
3587.12988	2.66597
3585.20132	2.71561
3583.27275	2.75798
3581.34419	2.79567
3579.41562	2.83565
3577.48706	2.87850
3575.55850	2.92237
3573.62993	2.96629
3571.70137	3.00602
3569.77280	3.04186
3567.84424	3.08189
3565.91567	3.13559
3563.98711	3.18804
3562.05854	3.22895
3560.12998	3.27003
3558.20142	3.31402
3556.27285	3.35858
3554.34429	3.40266
3552.41572	3.44875
3550.48716	3.49648
3548.55859	3.54174
3546.63003	3.58500
3544.70146	3.63407
3542.77290	3.68740
3540.84434	3.73548
3538.91577	3.78064
3536.98721	3.82801
3535.05864	3.87826
3533.13008	3.92568
3531.20151	3.96997
3529.27295	4.01719
3527.34438	4.06803
3525.41582	4.11486
3523.48726	4.15912
3521.55869	4.20909
3519.63013	4.25942
3517.70156	4.30819
3515.77300	4.35648
3513.84443	4.39987
3511.91587	4.44386
3509.98730	4.49734
3508.05874	4.54978
3506.13018	4.58932
3504.20161	4.62624
3502.27305	4.67006
3500.34448	4.71762
3498.41592	4.76549
3496.48735	4.81731
3494.55879	4.87234
3492.63022	4.91992
3490.70166	4.96084
3488.77310	5.00678
3486.84453	5.05490
3484.91597	5.10283
3482.98740	5.15340
3481.05884	5.19712
3479.13027	5.23814
3477.20171	5.29458
3475.27314	5.35973
3473.34458	5.41524
3471.41602	5.46031
3469.48745	5.50220
3467.55889	5.54785
3465.63032	5.60461
3463.70176	5.66233
3461.77319	5.70776
3459.84463	5.75174
3457.91606	5.79547
3455.98750	5.83547
3454.05894	5.88706
3452.13037	5.95535
3450.20181	6.01737
3448.27324	6.05479
3446.34468	6.08641
3444.41611	6.13278
3442.48755	6.19008
3440.55898	6.23563
3438.63042	6.26055
3436.70186	6.28643
3434.77329	6.33291
3432.84473	6.38822
3430.91616	6.43774
3428.98760	6.48737
3427.05903	6.53405
3425.13047	6.59409
3423.20190	6.66182
3421.27334	6.70596
3419.34478	6.73715
3417.41621	6.76972
3415.48765	6.79663
3413.55908	6.83958
3411.63052	6.91535
3409.70195	6.98302
3407.77339	7.02607
3405.84482	7.05589
3403.91626	7.09116
3401.98770	7.13968
3400.05913	7.19373
3398.13057	7.25416
3396.20200	7.31822
3394.27344	7.34732
3392.34487	7.31264
3390.41631	7.31200
3388.48774	7.39228
3386.55918	7.47360
3384.63062	7.47893
3382.70205	7.45025
3380.77349	7.46703
3378.84492	7.52590
3376.91636	7.58572
3374.98779	7.62566
3373.05923	7.68151
3371.13066	7.72876
3369.20210	7.74148
3367.27354	7.75862
3365.34497	7.79327
3363.41641	7.79360
3361.48784	7.74096
3359.55928	7.71561
3357.63071	7.75324
3355.70215	7.81571
3353.77358	7.82450
3351.84502	7.77890
3349.91646	7.72523
3347.98789	7.72529
3346.05933	7.81106
3344.13076	7.91477
3342.20220	7.99795
3340.27363	8.09327
3338.34507	8.16473
3336.41650	8.11252
3334.48794	8.04037
3332.55937	8.04137
3330.63081	8.03770
3328.70225	7.97761
3326.77368	7.91412
3324.84512	7.89749
3322.91655	7.92389
3320.98799	7.99295
3319.05942	8.05346
3317.13086	8.02633
3315.20229	7.91731
3313.27373	7.85080
3311.34517	7.86300
3309.41660	7.89332
3307.48804	7.91475
3305.55947	7.94117
3303.63091	8.01837
3301.70234	8.06225
3299.77378	8.00536
3297.84521	7.95431
3295.91665	7.94590
3293.98809	7.92679
3292.05952	7.91699
3290.13096	7.93960
3288.20239	7.97771
3286.27383	8.00155
3284.34526	7.96951
3282.41670	7.93311
3280.48813	7.95228
3278.55957	8.04876
3276.63101	8.14072
3274.70244	8.12315
3272.77388	8.04415
3270.84531	7.99216
3268.91675	8.00196
3266.98818	8.01700
3265.05962	8.00187
3263.13105	8.01408
3261.20249	8.09431
3259.27393	8.13429
3257.34536	8.08842
3255.41680	8.09956
3253.48823	8.15906
3251.55967	8.09362
3249.63110	7.95718
3247.70254	7.92193
3245.77397	7.94033
3243.84541	7.96580
3241.91685	8.04803
3239.98828	8.11119
3238.05972	8.07108
3236.13115	7.98111
3234.20259	7.88910
3232.27402	7.82382
3230.34546	7.82778
3228.41689	7.89929
3226.48833	7.98087
3224.55977	7.98063
3222.63120	7.89483
3220.70264	7.79767
3218.77407	7.76599
3216.84551	7.82036
3214.91694	7.85541
3212.98838	7.81312
3211.05981	7.72880
3209.13125	7.62793
3207.20269	7.56684
3205.27412	7.58669
3203.34556	7.65299
3201.41699	7.67306
3199.48843	7.64061
3197.55986	7.62979
3195.63130	7.60186
3193.70273	7.51887
3191.77417	7.44149
3189.84561	7.37809
3187.91704	7.33082
3185.98848	7.33783
3184.05991	7.33480
3182.13135	7.24449
3180.20278	7.14126
3178.27422	7.08866
3176.34565	7.05851
3174.41709	7.00333
3172.48853	6.94948
3170.55996	6.93741
3168.63140	6.90369
3166.70283	6.81796
3164.77427	6.74407
3162.84570	6.69291
3160.91714	6.64054
3158.98857	6.57477
3157.06001	6.49391
3155.13145	6.42893
3153.20288	6.38817
3151.27432	6.34641
3149.34575	6.28672
3147.41719	6.19785
3145.48862	6.09547
3143.56006	6.01024
3141.63149	5.94201
3139.70293	5.88338
3137.77437	5.83605
3135.84580	5.78536
3133.91724	5.72544
3131.98867	5.66155
3130.06011	5.59076
3128.13154	5.51305
3126.20298	5.43339
3124.27441	5.35812
3122.34585	5.28459
3120.41729	5.21536
3118.48872	5.15595
3116.56016	5.09632
3114.63159	5.03008
3112.70303	4.96363
3110.77446	4.89742
3108.84590	4.82686
3106.91733	4.75529
3104.98877	4.68423
3103.06021	4.61067
3101.13164	4.53655
3099.20308	4.46850
3097.27451	4.40626
3095.34595	4.34392
3093.41738	4.28337
3091.48882	4.22619
3089.56025	4.16661
3087.63169	4.10226
3085.70312	4.03703
3083.77456	3.97491
3081.84600	3.91589
3079.91743	3.85627
3077.98887	3.79454
3076.06030	3.73354
3074.13174	3.67641
3072.20317	3.62219
3070.27461	3.56648
3068.34604	3.51076
3066.41748	3.45801
3064.48892	3.40490
3062.56035	3.34981
3060.63179	3.29525
3058.70322	3.24240
3056.77466	3.19105
3054.84609	3.14094
3052.91753	3.09094
3050.98896	3.03972
3049.06040	2.98762
3047.13184	2.93643
3045.20327	2.88694
3043.27471	2.83868
3041.34614	2.79217
3039.41758	2.74797
3037.48901	2.70414
3035.56045	2.65856
3033.63188	2.61234
3031.70332	2.56759
3029.77476	2.52421
3027.84619	2.48101
3025.91763	2.43761
3023.98906	2.39471
3022.06050	2.35310
3020.13193	2.31273
3018.20337	2.27296
3016.27480	2.23349
3014.34624	2.19467
3012.41768	2.15636
3010.48911	2.11861
3008.56055	2.08216
3006.63198	2.04690
3004.70342	2.01217
3002.77485	1.97744
3000.84629	1.94275
2998.91772	1.90922
2996.98916	1.87726
2995.06060	1.84568
2993.13203	1.81439
2991.20347	1.78426
2989.27490	1.75488
2987.34634	1.72594
2985.41777	1.69773
2983.48921	1.67025
2981.56064	1.64365
2979.63208	1.61765
2977.70352	1.59142
2975.77495	1.56554
2973.84639	1.54079
2971.91782	1.51664
2969.98926	1.49333
2968.06069	1.47134
2966.13213	1.44965
2964.20356	1.42781
2962.27500	1.40590
2960.34644	1.38297
2958.41787	1.35897
2956.48931	1.33505
2954.56074	1.31169
2952.63218	1.28861
2950.70361	1.26541
2948.77505	1.24219
2946.84648	1.21980
2944.91792	1.19892
2942.98936	1.17910
2941.06079	1.15989
2939.13223	1.14124
2937.20366	1.12272
2935.27510	1.10465
2933.34653	1.08789
2931.41797	1.07197
2929.48940	1.05578
2927.56084	1.03892
2925.63228	1.02162
2923.70371	1.00384
2921.77515	0.98544
2919.84658	0.96683
2917.91802	0.94795
2915.98945	0.92826
2914.06089	0.90831
2912.13232	0.88915
2910.20376	0.87084
2908.27520	0.85332
2906.34663	0.83677
2904.41807	0.82095
2902.48950	0.80572
2900.56094	0.79108
2898.63237	0.77652
2896.70381	0.76211
2894.77524	0.74859
2892.84668	0.73601
2890.91812	0.72373
2888.98955	0.71150
2887.06099	0.69948
2885.13242	0.68798
2883.20386	0.67724
2881.27529	0.66719
2879.34673	0.65755
2877.41816	0.64827
2875.48960	0.63931
2873.56104	0.63013
2871.63247	0.62041
2869.70391	0.61000
2867.77534	0.59876
2865.84678	0.58730
2863.91821	0.57637
2861.98965	0.56605
2860.06108	0.55648
2858.13252	0.54798
2856.20396	0.54023
2854.27539	0.53234
2852.34683	0.52377
2850.41826	0.51445
2848.48970	0.50429
2846.56113	0.49359
2844.63257	0.48317
2842.70400	0.47385
2840.77544	0.46562
2838.84687	0.45813
2836.91831	0.45130
2834.98975	0.44477
2833.06118	0.43813
2831.13262	0.43162
2829.20405	0.42554
2827.27549	0.41961
2825.34692	0.41358
2823.41836	0.40754
2821.48979	0.40143
2819.56123	0.39512
2817.63267	0.38896
2815.70410	0.38327
2813.77554	0.37786
2811.84697	0.37244
2809.91841	0.36694
2807.98984	0.36140
2806.06128	0.35600
2804.13271	0.35092
2802.20415	0.34600
2800.27559	0.34096
2798.34702	0.33591
2796.41846	0.33104
2794.48989	0.32628
2792.56133	0.32161
2790.63276	0.31709
2788.70420	0.31261
2786.77563	0.30807
2784.84707	0.30369
2782.91851	0.29965
2780.98994	0.29569
2779.06138	0.29153
2777.13281	0.28741
2775.20425	0.28362
2773.27568	0.27998
2771.34712	0.27624
2769.41855	0.27251
2767.48999	0.26888
2765.56143	0.26524
2763.63286	0.26167
2761.70430	0.25833
2759.77573	0.25502
2757.84717	0.25173
2755.91860	0.24858
2753.99004	0.24550
2752.06147	0.24238
2750.13291	0.23925
2748.20435	0.23629
2746.27578	0.23349
2744.34722	0.23071
2742.41865	0.22795
2740.49009	0.22540
2738.56152	0.22299
2736.63296	0.22054
2734.70439	0.21811
2732.77583	0.21577
2730.84727	0.21338
2728.91870	0.21081
2726.99014	0.20827
2725.06157	0.20583
2723.13301	0.20360
2721.20444	0.20168
2719.27588	0.19979
2717.34731	0.19774
2715.41875	0.19575
2713.49019	0.19379
2711.56162	0.19176
2709.63306	0.18997
2707.70449	0.18847
2705.77593	0.18699
2703.84736	0.18545
2701.91880	0.18389
2699.99023	0.18234
2698.06167	0.18085
2696.13311	0.17944
2694.20454	0.17802
2692.27598	0.17663
2690.34741	0.17538
2688.41885	0.17417
2686.49028	0.17291
2684.56172	0.17174
2682.63315	0.17078
2680.70459	0.16984
2678.77603	0.16872
2676.84746	0.16750
2674.91890	0.16630
2672.99033	0.16523
2671.06177	0.16435
2669.13320	0.16336
2667.20464	0.16219
2665.27607	0.16112
2663.34751	0.16025
2661.41895	0.15947
2659.49038	0.15877
2657.56182	0.15807
2655.63325	0.15721
2653.70469	0.15629
2651.77612	0.15556
2649.84756	0.15502
2647.91899	0.15458
2645.99043	0.15402
2644.06187	0.15323
2642.13330	0.15247
2640.20474	0.15209
2638.27617	0.15195
2636.34761	0.15164
2634.41904	0.15113
2632.49048	0.15067
2630.56191	0.15040
2628.63335	0.15019
2626.70479	0.14978
2624.77622	0.14931
2622.84766	0.14897
2620.91909	0.14870
2618.99053	0.14854
2617.06196	0.14850
2615.13340	0.14837
2613.20483	0.14814
2611.27627	0.14798
2609.34771	0.14788
2607.41914	0.14775
2605.49058	0.14759
2603.56201	0.14747
2601.63345	0.14745
2599.70488	0.14755
2597.77632	0.14767
2595.84775	0.14772
2593.91919	0.14770
2591.99062	0.14758
2590.06206	0.14751
2588.13350	0.14760
2586.20493	0.14784
2584.27637	0.14819
2582.34780	0.14849
2580.41924	0.14872
2578.49067	0.14904
2576.56211	0.14946
2574.63354	0.14983
2572.70498	0.15007
2570.77642	0.15031
2568.84785	0.15062
2566.91929	0.15104
2564.99072	0.15154
2563.06216	0.15194
2561.13359	0.15214
2559.20503	0.15242
2557.27646	0.15294
2555.34790	0.15355
2553.41934	0.15415
2551.49077	0.15472
2549.56221	0.15521
2547.63364	0.15571
2545.70508	0.15620
2543.77651	0.15666
2541.84795	0.15727
2539.91938	0.15803
2537.99082	0.15868
2536.06226	0.15927
2534.13369	0.15994
2532.20513	0.16063
2530.27656	0.16135
2528.34800	0.16210
2526.41943	0.16288
2524.49087	0.16372
2522.56230	0.16460
2520.63374	0.16540
2518.70518	0.16600
2516.77661	0.16654
2514.84805	0.16724
2512.91948	0.16809
2510.99092	0.16893
2509.06235	0.16971
2507.13379	0.17045
2505.20522	0.17118
2503.27666	0.17195
2501.34810	0.17282
2499.41953	0.17373
2497.49097	0.17463
2495.56240	0.17538
2493.63384	0.17605
2491.70527	0.17693
2489.77671	0.17794
2487.84814	0.17878
2485.91958	0.17953
2483.99102	0.18040
2482.06245	0.18140
2480.13389	0.18238
2478.20532	0.18334
2476.27676	0.18431
2474.34819	0.18526
2472.41963	0.18609
2470.49106	0.18675
2468.56250	0.18748
2466.63394	0.18850
2464.70537	0.18958
2462.77681	0.19048
2460.84824	0.19130
2458.91968	0.19213
2456.99111	0.19308
2455.06255	0.19410
2453.13398	0.19513
2451.20542	0.19616
2449.27686	0.19720
2447.34829	0.19823
2445.41973	0.19926
2443.49116	0.20026
2441.56260	0.20115
2439.63403	0.20208
2437.70547	0.20322
2435.77690	0.20450
2433.84834	0.20571
2431.91978	0.20667
2429.99121	0.20752
2428.06265	0.20851
2426.13408	0.20961
2424.20552	0.21066
2422.27695	0.21173
2420.34839	0.21284
2418.41982	0.21389
2416.49126	0.21494
2414.56270	0.21613
2412.63413	0.21746
2410.70557	0.21877
2408.77700	0.21994
2406.84844	0.22105
2404.91987	0.22220
2402.99131	0.22337
2401.06274	0.22455
2399.13418	0.22574
2397.20562	0.22695
2395.27705	0.22814
2393.34849	0.22932
2391.41992	0.23061
2389.49136	0.23209
2387.56279	0.23398
2385.63423	0.23647
2383.70566	0.23969
2381.77710	0.24380
2379.84854	0.24875
2377.91997	0.25425
2375.99141	0.26040
2374.06284	0.26780
2372.13428	0.27646
2370.20571	0.28547
2368.27715	0.29441
2366.34858	0.30353
2364.42002	0.31184
2362.49146	0.31830
2360.56289	0.32271
2358.63433	0.32419
2356.70576	0.32200
2354.77720	0.31661
2352.84863	0.30927
2350.92007	0.30177
2348.99150	0.29746
2347.06294	0.29830
2345.13437	0.30464
2343.20581	0.31382
2341.27725	0.32010
2339.34868	0.32185
2337.42012	0.32151
2335.49155	0.32119
2333.56299	0.32100
2331.63442	0.32106
2329.70586	0.32134
2327.77729	0.32118
2325.84873	0.32033
2323.92017	0.31918
2321.99160	0.31782
2320.06304	0.31615
2318.13447	0.31452
2316.20591	0.31325
2314.27734	0.31272
2312.34878	0.31297
2310.42021	0.31330
2308.49165	0.31316
2306.56309	0.31262
2304.63452	0.31229
2302.70596	0.31272
2300.77739	0.31370
2298.84883	0.31469
2296.92026	0.31562
2294.99170	0.31672
2293.06313	0.31797
2291.13457	0.31908
2289.20601	0.32001
2287.27744	0.32100
2285.34888	0.32225
2283.42031	0.32377
2281.49175	0.32553
2279.56318	0.32764
2277.63462	0.33003
2275.70605	0.33245
2273.77749	0.33474
2271.84893	0.33689
2269.92036	0.33894
2267.99180	0.34098
2266.06323	0.34299
2264.13467	0.34493
2262.20610	0.34693
2260.27754	0.34899
2258.34897	0.35097
2256.42041	0.35294
2254.49185	0.35498
2252.56328	0.35704
2250.63472	0.35915
2248.70615	0.36134
2246.77759	0.36348
2244.84902	0.36556
2242.92046	0.36769
2240.99189	0.36986
2239.06333	0.37202
2237.13477	0.37417
2235.20620	0.37624
2233.27764	0.37839
2231.34907	0.38068
2229.42051	0.38300
2227.49194	0.38527
2225.56338	0.38747
2223.63481	0.38969
2221.70625	0.39191
2219.77769	0.39405
2217.84912	0.39611
2215.92056	0.39824
2213.99199	0.40046
2212.06343	0.40269
2210.13486	0.40487
2208.20630	0.40701
2206.27773	0.40917
2204.34917	0.41126
2202.42061	0.41323
2200.49204	0.41519
2198.56348	0.41721
2196.63491	0.41924
2194.70635	0.42123
2192.77778	0.42314
2190.84922	0.42492
2188.92065	0.42675
2186.99209	0.42857
2185.06353	0.43029
2183.13496	0.43204
2181.20640	0.43390
2179.27783	0.43570
2177.34927	0.43736
2175.42070	0.43886
2173.49214	0.44030
2171.56357	0.44175
2169.63501	0.44322
2167.70645	0.44462
2165.77788	0.44587
2163.84932	0.44699
2161.92075	0.44808
2159.99219	0.44919
2158.06362	0.45024
2156.13506	0.45123
2154.20649	0.45216
2152.27793	0.45299
2150.34937	0.45372
2148.42080	0.45431
2146.49224	0.45474
2144.56367	0.45521
2142.63511	0.45574
2140.70654	0.45614
2138.77798	0.45631
2136.84941	0.45630
2134.92085	0.45636
2132.99229	0.45660
2131.06372	0.45681
2129.13516	0.45675
2127.20659	0.45644
2125.27803	0.45601
2123.34946	0.45557
2121.42090	0.45518
2119.49233	0.45472
2117.56377	0.45409
2115.63521	0.45331
2113.70664	0.45253
2111.77808	0.45177
2109.84951	0.45089
2107.92095	0.44987
2105.99238	0.44867
2104.06382	0.44738
2102.13525	0.44615
2100.20669	0.44493
2098.27812	0.44354
2096.34956	0.44207
2094.42100	0.44067
2092.49243	0.43920
2090.56387	0.43753
2088.63530	0.43574
2086.70674	0.43398
2084.77817	0.43216
2082.84961	0.43021
2080.92104	0.42824
2078.99248	0.42623
2077.06392	0.42408
2075.13535	0.42185
2073.20679	0.41966
2071.27822	0.41754
2069.34966	0.41533
2067.42109	0.41290
2065.49253	0.41039
2063.56396	0.40801
2061.63540	0.40572
2059.70684	0.40333
2057.77827	0.40089
2055.84971	0.39849
2053.92114	0.39604
2051.99258	0.39346
2050.06401	0.39082
2048.13545	0.38822
2046.20688	0.38554
2044.27832	0.38282
2042.34976	0.38011
2040.42119	0.37737
2038.49263	0.37464
2036.56406	0.37194
2034.63550	0.36922
2032.70693	0.36643
2030.77837	0.36360
2028.84980	0.36076
2026.92124	0.35793
2024.99268	0.35516
2023.06411	0.35246
2021.13555	0.34973
2019.20698	0.34692
2017.27842	0.34412
2015.34985	0.34137
2013.42129	0.33863
2011.49272	0.33580
2009.56416	0.33296
2007.63560	0.33019
2005.70703	0.32749
2003.77847	0.32485
2001.84990	0.32224
1999.92134	0.31960
1997.99277	0.31694
1996.06421	0.31441
1994.13564	0.31194
1992.20708	0.30933
1990.27852	0.30665
1988.34995	0.30419
1986.42139	0.30195
1984.49282	0.29971
1982.56426	0.29735
1980.63569	0.29495
1978.70713	0.29263
1976.77856	0.29035
1974.85000	0.28805
1972.92144	0.28575
1970.99287	0.28354
1969.06431	0.28139
1967.13574	0.27925
1965.20718	0.27723
1963.27861	0.27540
1961.35005	0.27368
1959.42148	0.27191
1957.49292	0.27001
1955.56436	0.26811
1953.63579	0.26635
1951.70723	0.26461
1949.77866	0.26286
1947.85010	0.26114
1945.92153	0.25960
1943.99297	0.25819
1942.06440	0.25675
1940.13584	0.25524
1938.20728	0.25381
1936.27871	0.25246
1934.35015	0.25113
1932.42158	0.24983
1930.49302	0.24859
1928.56445	0.24743
1926.63589	0.24631
1924.70732	0.24523
1922.77876	0.24423
1920.85020	0.24323
1918.92163	0.24229
1916.99307	0.24146
1915.06450	0.24065
1913.13594	0.23981
1911.20737	0.23905
1909.27881	0.23833
1907.35024	0.23766
1905.42168	0.23705
1903.49312	0.23653
1901.56455	0.23604
1899.63599	0.23549
1897.70742	0.23496
1895.77886	0.23454
1893.85029	0.23420
1891.92173	0.23376
1889.99316	0.23341
1888.06460	0.23317
1886.13604	0.23301
1884.20747	0.23297
1882.27891	0.23291
1880.35034	0.23273
1878.42178	0.23254
1876.49321	0.23242
1874.56465	0.23232
1872.63608	0.23239
1870.70752	0.23252
1868.77896	0.23276
1866.85039	0.23307
1864.92183	0.23328
1862.99326	0.23345
1861.06470	0.23371
1859.13613	0.23408
1857.20757	0.23440
1855.27900	0.23478
1853.35044	0.23524
1851.42187	0.23578
1849.49331	0.23633
1847.56475	0.23687
1845.63618	0.23746
1843.70762	0.23837
1841.77905	0.23944
1839.85049	0.24015
1837.92192	0.24090
1835.99336	0.24174
1834.06479	0.24260
1832.13623	0.24344
1830.20767	0.24464
1828.27910	0.24615
1826.35054	0.24734
1824.42197	0.24864
1822.49341	0.25003
1820.56484	0.25141
1818.63628	0.25288
1816.70771	0.25455
1814.77915	0.25617
1812.85059	0.25778
1810.92202	0.25965
1808.99346	0.26176
1807.06489	0.26380
1805.13633	0.26572
1803.20776	0.26777
1801.27920	0.27004
1799.35063	0.27278
1797.42207	0.27548
1795.49351	0.27795
1793.56494	0.28062
1791.63638	0.28413
1789.70781	0.28788
1787.77925	0.29079
1785.85068	0.29392
1783.92212	0.29759
1781.99355	0.30149
1780.06499	0.30555
1778.13643	0.30980
1776.20786	0.31375
1774.27930	0.31779
1772.35073	0.32342
1770.42217	0.33007
1768.49360	0.33585
1766.56504	0.34128
1764.63647	0.34662
1762.70791	0.35232
1760.77935	0.35983
1758.85078	0.36718
1756.92222	0.37466
1754.99365	0.38294
1753.06509	0.39025
1751.13652	0.39860
1749.20796	0.40945
1747.27939	0.42039
1745.35083	0.42985
1743.42227	0.43965
1741.49370	0.45018
1739.56514	0.46225
1737.63657	0.47417
1735.70801	0.48424
1733.77944	0.49970
1731.85088	0.51942
1729.92231	0.53527
1727.99375	0.55116
1726.06519	0.56783
1724.13662	0.58580
1722.20806	0.60535
1720.27949	0.62322
1718.35093	0.64386
1716.42236	0.67579
1714.49380	0.70719
1712.56523	0.73222
1710.63667	0.75602
1708.70811	0.78121
1706.77954	0.80976
1704.85098	0.84460
1702.92241	0.87582
1700.99385	0.90580
1699.06528	0.95160
1697.13672	0.99536
1695.20815	1.04095
1693.27959	1.08471
1691.35103	1.11901
1689.42246	1.15893
1687.49390	1.20167
1685.56533	1.24184
1683.63677	1.30531
1681.70820	1.37439
1679.77964	1.41792
1677.85107	1.45886
1675.92251	1.50561
1673.99395	1.56421
1672.06538	1.61616
1670.13682	1.66662
1668.20825	1.73548
1666.27969	1.79166
1664.35112	1.83868
1662.42256	1.89980
1660.49399	1.97229
1658.56543	2.02812
1656.63687	2.07216
1654.70830	2.11040
1652.77974	2.16822
1650.85117	2.22672
1648.92261	2.24668
1646.99404	2.27268
1645.06548	2.30123
1643.13691	2.31915
1641.20835	2.32696
1639.27979	2.33504
1637.35122	2.33996
1635.42266	2.33735
1633.49409	2.32849
1631.56553	2.31395
1629.63696	2.29548
1627.70840	2.26476
1625.77983	2.23037
1623.85127	2.18651
1621.92271	2.13259
1619.99414	2.08583
1618.06558	2.04040
1616.13701	1.97397
1614.20845	1.90712
1612.27988	1.85749
1610.35132	1.80557
1608.42275	1.74953
1606.49419	1.69424
1604.56562	1.64296
1602.63706	1.59312
1600.70850	1.54454
1598.77993	1.50029
1596.85137	1.45886
1594.92280	1.41844
1592.99424	1.37982
1591.06567	1.34514
1589.13711	1.31294
1587.20854	1.28320
1585.27998	1.25617
1583.35142	1.23154
1581.42285	1.20949
1579.49429	1.19072
1577.56572	1.17382
1575.63716	1.15406
1573.70859	1.13814
1571.78003	1.12821
1569.85146	1.11820
1567.92290	1.10848
1565.99434	1.10248
1564.06577	1.09866
1562.13721	1.09591
1560.20864	1.09485
1558.28008	1.09888
1556.35151	1.10578
1554.42295	1.10968
1552.49438	1.11312
1550.56582	1.11453
1548.63726	1.11284
1546.70869	1.10803
1544.78013	1.09928
1542.85156	1.08610
1540.92300	1.06527
1538.99443	1.03501
1537.06587	1.01581
1535.13730	1.00171
1533.20874	0.98015
1531.28018	0.95774
1529.35161	0.94255
1527.42305	0.92781
1525.49448	0.91187
1523.56592	0.89800
1521.63735	0.88467
1519.70879	0.87217
1517.78022	0.86229
1515.85166	0.85050
1513.92310	0.83808
1511.99453	0.82687
1510.06597	0.81616
1508.13740	0.80532
1506.20884	0.78906
1504.28027	0.77656
1502.35171	0.76955
1500.42314	0.76273
1498.49458	0.75510
1496.56602	0.74648
1494.63745	0.73862
1492.70889	0.73260
1490.78032	0.72669
1488.85176	0.71964
1486.92319	0.71369
1484.99463	0.70941
1483.06606	0.70598
1481.13750	0.70307
1479.20894	0.70087
1477.28037	0.69956
1475.35181	0.69885
1473.42324	0.69853
1471.49468	0.69822
1469.56611	0.69729
1467.63755	0.69560
1465.70898	0.69361
1463.78042	0.69202
1461.85186	0.69127
1459.92329	0.69096
1457.99473	0.69088
1456.06616	0.69074
1454.13760	0.68933
1452.20903	0.68717
1450.28047	0.68468
1448.35190	0.68199
1446.42334	0.67929
1444.49478	0.67699
1442.56621	0.67478
1440.63765	0.67217
1438.70908	0.66896
1436.78052	0.66476
1434.85195	0.66059
1432.92339	0.65785
1430.99482	0.65599
1429.06626	0.65486
1427.13770	0.65461
1425.20913	0.65496
1423.28057	0.65577
1421.35200	0.65646
1419.42344	0.65672
1417.49487	0.65679
1415.56631	0.65650
1413.63774	0.65629
1411.70918	0.65674
1409.78062	0.65799
1407.85205	0.65968
1405.92349	0.66163
1403.99492	0.66355
1402.06636	0.66443
1400.13779	0.66405
1398.20923	0.66263
1396.28066	0.66020
1394.35210	0.65650
1392.42354	0.65202
1390.49497	0.64760
1388.56641	0.64298
1386.63784	0.63767
1384.70928	0.63216
1382.78071	0.62695
1380.85215	0.62201
1378.92358	0.61770
1376.99502	0.61430
1375.06646	0.61182
1373.13789	0.61009
1371.20933	0.60894
1369.28076	0.60802
1367.35220	0.60674
1365.42363	0.60496
1363.49507	0.60304
1361.56650	0.60131
1359.63794	0.59985
1357.70937	0.59857
1355.78081	0.59745
1353.85225	0.59660
1351.92368	0.59596
1349.99512	0.59542
1348.06655	0.59479
1346.13799	0.59397
1344.20942	0.59313
1342.28086	0.59236
1340.35229	0.59164
1338.42373	0.59109
1336.49517	0.59087
1334.56660	0.59080
1332.63804	0.59075
1330.70947	0.59089
1328.78091	0.59135
1326.85234	0.59202
1324.92378	0.59280
1322.99521	0.59370
1321.06665	0.59459
1319.13809	0.59538
1317.20952	0.59585
1315.28096	0.59598
1313.35239	0.59585
1311.42383	0.59545
1309.49526	0.59498
1307.56670	0.59463
1305.63813	0.59433
1303.70957	0.59403
1301.78101	0.59353
1299.85244	0.59266
1297.92388	0.59151
1295.99531	0.59032
1294.06675	0.58923
1292.13818	0.58806
1290.20962	0.58668
1288.28105	0.58523
1286.35249	0.58389
1284.42393	0.58263
1282.49536	0.58122
1280.56680	0.57966
1278.63823	0.57818
1276.70967	0.57689
1274.78110	0.57574
1272.85254	0.57484
1270.92397	0.57424
1268.99541	0.57372
1267.06685	0.57301
1265.13828	0.57207
1263.20972	0.57109
1261.28115	0.57025
1259.35259	0.56962
1257.42402	0.56914
1255.49546	0.56884
1253.56689	0.56867
1251.63833	0.56864
1249.70977	0.56880
1247.78120	0.56900
1245.85264	0.56896
1243.92407	0.56855
1241.99551	0.56777
1240.06694	0.56647
1238.13838	0.56465
1236.20981	0.56248
1234.28125	0.56016
1232.35269	0.55783
1230.42412	0.55559
1228.49556	0.55350
1226.56699	0.55147
1224.63843	0.54950
1222.70986	0.54772
1220.78130	0.54622
1218.85273	0.54485
1216.92417	0.54349
1214.99561	0.54222
1213.06704	0.54111
1211.13848	0.54021
1209.20991	0.53958
1207.28135	0.53898
1205.35278	0.53810
1203.42422	0.53704
1201.49565	0.53613
1199.56709	0.53541
1197.63853	0.53467
1195.70996	0.53395
1193.78140	0.53339
1191.85283	0.53296
1189.92427	0.53270
1187.99570	0.53259
1186.06714	0.53253
1184.13857	0.53263
1182.21001	0.53313
1180.28145	0.53409
1178.35288	0.53535
1176.42432	0.53667
1174.49575	0.53777
1172.56719	0.53837
1170.63862	0.53838
1168.71006	0.53805
1166.78149	0.53764
1164.85293	0.53719
1162.92437	0.53654
1160.99580	0.53562
1159.06724	0.53455
1157.13867	0.53349
1155.21011	0.53243
1153.28154	0.53116
1151.35298	0.52945
1149.42441	0.52717
1147.49585	0.52462
1145.56729	0.52213
1143.63872	0.51971
1141.71016	0.51737
1139.78159	0.51516
1137.85303	0.51318
1135.92446	0.51166
1133.99590	0.51057
1132.06733	0.50964
1130.13877	0.50878
1128.21021	0.50802
1126.28164	0.50718
1124.35308	0.50618
1122.42451	0.50525
1120.49595	0.50462
1118.56738	0.50431
1116.63882	0.50435
1114.71025	0.50467
1112.78169	0.50502
1110.85312	0.50535
1108.92456	0.50596
1106.99600	0.50688
1105.06743	0.50803
1103.13887	0.50943
1101.21030	0.51114
1099.28174	0.51324
1097.35317	0.51578
1095.42461	0.51883
1093.49604	0.52250
1091.56748	0.52682
1089.63892	0.53151
1087.71035	0.53643
1085.78179	0.54194
1083.85322	0.54822
1081.92466	0.55456
1079.99609	0.55974
1078.06753	0.56286
1076.13896	0.56351
1074.21040	0.56163
1072.28184	0.55732
1070.35327	0.55124
1068.42471	0.54443
1066.49614	0.53759
1064.56758	0.53121
1062.63901	0.52547
1060.71045	0.52028
1058.78188	0.51560
1056.85332	0.51142
1054.92476	0.50749
1052.99619	0.50383
1051.06763	0.50086
1049.13906	0.49852
1047.21050	0.49631
1045.28193	0.49415
1043.35337	0.49212
1041.42480	0.49019
1039.49624	0.48860
1037.56768	0.48758
1035.63911	0.48700
1033.71055	0.48670
1031.78198	0.48648
1029.85342	0.48628
1027.92485	0.48626
1025.99629	0.48643
1024.06772	0.48678
1022.13916	0.48733
1020.21060	0.48795
1018.28203	0.48855
1016.35347	0.48925
1014.42490	0.49017
1012.49634	0.49117
1010.56777	0.49221
1008.63921	0.49348
1006.71064	0.49503
1004.78208	0.49682
1002.85352	0.49901
1000.92495	0.50171
998.99639	0.50490
997.06782	0.50867
995.13926	0.51295
993.21069	0.51726
991.28213	0.52091
989.35356	0.52349
987.42500	0.52507
985.49644	0.52592
983.56787	0.52649
981.63931	0.52730
979.71074	0.52862
977.78218	0.53041
975.85361	0.53246
973.92505	0.53490
971.99648	0.53792
970.06792	0.54121
968.13936	0.54482
966.21079	0.54898
964.28223	0.55354
962.35366	0.55831
960.42510	0.56328
958.49653	0.56839
956.56797	0.57381
954.63940	0.57968
952.71084	0.58580
950.78228	0.59227
948.85371	0.59909
946.92515	0.60556
944.99658	0.61154
943.06802	0.61779
941.13945	0.62452
939.21089	0.63108
937.28232	0.63679
935.35376	0.64169
933.42520	0.64650
931.49663	0.65190
929.56807	0.65788
927.63950	0.66399
925.71094	0.67044
923.78237	0.67718
921.85381	0.68341
919.92524	0.68946
917.99668	0.69617
916.06812	0.70316
914.13955	0.70990
912.21099	0.71712
910.28242	0.72522
908.35386	0.73350
906.42529	0.74191
904.49673	0.75033
902.56816	0.75881
900.63960	0.76831
898.71104	0.77912
896.78247	0.79047
894.85391	0.80085
892.92534	0.81001
890.99678	0.81897
889.06821	0.82812
887.13965	0.83799
885.21108	0.84946
883.28252	0.86124
881.35396	0.87213
879.42539	0.88375
877.49683	0.89603
875.56826	0.90759
873.63970	0.91899
871.71113	0.93060
869.78257	0.94194
867.85400	0.95267
865.92544	0.96396
863.99687	0.97736
862.06831	0.99064
860.13975	1.00117
858.21118	1.01043
856.28262	1.01944
854.35405	1.02910
852.42549	1.04113
850.49692	1.05476
848.56836	1.06705
846.63979	1.07629
844.71123	1.08519
842.78267	1.09578
840.85410	1.10674
838.92554	1.11792
836.99697	1.13021
835.06841	1.14354
833.13984	1.15680
831.21128	1.16912
829.28271	1.18123
827.35415	1.19014
825.42559	1.19209
823.49702	1.19606
821.56846	1.20937
819.63989	1.22320
817.71133	1.22815
815.78276	1.23123
813.85420	1.24101
811.92563	1.25429
809.99707	1.27009
808.06851	1.28388
806.13994	1.28612
804.21138	1.27892
802.28281	1.27404
800.35425	1.28472
798.42568	1.31316
796.49712	1.33313
794.56855	1.32757
792.63999	1.33392
790.71143	1.36991
788.78286	1.39356
786.85430	1.36609
784.92573	1.33351
782.99717	1.35091
781.06860	1.39028
779.14004	1.37397
777.21147	1.32613
775.28291	1.32202
773.35435	1.33435
771.42578	1.29391
769.49722	1.23660
767.56865	1.21736
765.64009	1.22402
763.71152	1.19918
761.78296	1.14787
759.85439	1.16468
757.92583	1.31584
755.99727	1.57427
754.06870	1.55083
752.14014	1.24495
750.21157	1.05793
748.28301	1.01065
746.35444	1.04868
744.42588	1.07588
742.49731	1.01455
740.56875	0.91240
738.64019	0.86790
736.71162	0.89705
734.78306	0.91719
732.85449	0.87143
730.92593	0.73993
728.99736	0.58321
727.06880	0.51429
725.14023	0.59343
723.21167	0.70067
721.28311	0.46898
719.35454	0.29730
717.42598	0.28643
715.49741	0.17291
713.56885	-0.07863
711.64028	-0.28815
709.71172	-0.32842
707.78315	-0.13070
705.85459	-0.02189
703.92603	-0.00136
701.99746	-0.00739
700.06890	-0.03351
698.14033	-0.06748
696.21177	-0.06938
694.28320	-0.03762
692.35464	-0.01866
690.42607	0.01962
688.49751	0.06889
686.56895	0.03170
684.64038	-0.05141
682.71182	-0.02712
680.78325	0.08647
678.85469	0.21921
676.92612	0.28059
674.99756	0.30508
673.06899	0.28645
671.14043	0.21165
669.21187	0.12064
667.28330	0.04589
665.35474	0.04142
663.42617	0.16421
661.49761	0.32105
659.56904	0.29967
657.64048	0.17154
655.71191	0.05401
653.78335	0.07738
651.85479	0.20822
649.92622	0.21601
647.99766	0.13870
646.06909	0.09153
644.14053	0.13965
642.21196	0.19708
640.28340	0.14662
638.35483	0.09455
636.42627	0.09448
634.49771	0.11580
632.56914	0.12275
630.64058	0.18674
628.71201	0.24808
626.78345	0.15065
624.85488	0.06605
622.92632	0.01326
620.99775	-0.03007
619.06919	-0.02752
617.14062	0.05312
615.21206	0.11994
613.28350	0.11063
611.35493	0.09000
609.42637	0.10429
607.49780	0.11243
605.56924	0.09718
603.64067	0.08871
601.71211	0.11655
599.78354	0.20952
597.85498	0.37467
595.92642	0.37795
593.99785	0.21656
592.06929	0.11742
590.14072	0.06121
588.21216	0.05113
586.28359	0.09921
584.35503	0.06801
582.42646	-0.03879
580.49790	-0.05342
578.56934	0.01020
576.64077	0.07639
574.71221	0.12059
572.78364	0.14839
570.85508	0.17221
568.92651	0.17134
566.99795	0.14625
565.06938	0.15970
563.14082	0.19390
561.21226	0.19720
559.28369	0.13010
557.35513	0.03943
555.42656	0.04284
553.49800	0.16153
551.56943	0.23666
549.64087	0.21223
547.71230	0.16694
545.78374	0.12752
543.85518	0.12849
541.92661	0.15402
539.99805	0.17327
538.06948	0.22371
536.14092	0.21309
534.21235	0.11083
532.28379	0.10231
530.35522	0.18167
528.42666	0.27906
526.49810	0.36063
524.56953	0.30708
522.64097	0.22607
520.71240	0.23208
518.78384	0.37638
516.85527	0.60038
514.92671	0.41808
512.99814	0.19685
511.06958	0.08655
509.14102	0.06187
507.21245	0.10454
505.28389	0.15409
503.35532	0.18312
501.42676	0.19850
499.49819	0.18161
