3997.91411	0.07203
3995.98555	0.07235
3994.05698	0.07267
3992.12842	0.07299
3990.19985	0.07306
3988.27129	0.07291
3986.34272	0.07299
3984.41416	0.07339
3982.48560	0.07377
3980.55703	0.07409
3978.62847	0.07429
3976.69990	0.07434
3974.77134	0.07440
3972.84277	0.07457
3970.91421	0.07473
3968.98564	0.07481
3967.05708	0.07506
3965.12852	0.07538
3963.19995	0.07549
3961.27139	0.07561
3959.34282	0.07574
3957.41426	0.07582
3955.48569	0.07608
3953.55713	0.07636
3951.62856	0.07642
3949.70000	0.07649
3947.77144	0.07666
3945.84287	0.07666
3943.91431	0.07646
3941.98574	0.07635
3940.05718	0.07612
3938.12861	0.07579
3936.20005	0.07568
3934.27148	0.07557
3932.34292	0.07534
3930.41436	0.07544
3928.48579	0.07563
3926.55723	0.07539
3924.62866	0.07538
3922.70010	0.07584
3920.77153	0.07597
3918.84297	0.07573
3916.91440	0.07542
3914.98584	0.07502
3913.05728	0.07478
3911.12871	0.07496
3909.20015	0.07522
3907.27158	0.07527
3905.34302	0.07507
3903.41445	0.07454
3901.48589	0.07417
3899.55732	0.07456
3897.62876	0.07517
3895.70020	0.07532
3893.77163	0.07504
3891.84307	0.07483
3889.91450	0.07503
3887.98594	0.07516
3886.05737	0.07517
3884.12881	0.07533
3882.20024	0.07525
3880.27168	0.07524
3878.34312	0.07567
3876.41455	0.07606
3874.48599	0.07635
3872.55742	0.07655
3870.62886	0.07656
3868.70029	0.07680
3866.77173	0.07714
3864.84316	0.07736
3862.91460	0.07772
3860.98604	0.07798
3859.05747	0.07807
3857.12891	0.07833
3855.20034	0.07878
3853.27178	0.07934
3851.34321	0.08031
3849.41465	0.08081
3847.48608	0.08082
3845.55752	0.08076
3843.62896	0.08074
3841.70039	0.08104
3839.77183	0.08186
3837.84326	0.08301
3835.91470	0.08398
3833.98613	0.08465
3832.05757	0.08550
3830.12900	0.08635
3828.20044	0.08682
3826.27187	0.08713
3824.34331	0.08748
3822.41475	0.08821
3820.48618	0.08961
3818.55762	0.09034
3816.62905	0.09072
3814.70049	0.09226
3812.77192	0.09360
3810.84336	0.09408
3808.91479	0.09461
3806.98623	0.09553
3805.05767	0.09649
3803.12910	0.09703
3801.20054	0.09806
3799.27197	0.10002
3797.34341	0.10170
3795.41484	0.10332
3793.48628	0.10462
3791.55771	0.10546
3789.62915	0.10641
3787.70059	0.10745
3785.77202	0.10867
3783.84346	0.11046
3781.91489	0.11235
3779.98633	0.11407
3778.05776	0.11595
3776.12920	0.11747
3774.20063	0.11874
3772.27207	0.12027
3770.34351	0.12216
3768.41494	0.12439
3766.48638	0.12644
3764.55781	0.12843
3762.62925	0.13029
3760.70068	0.13195
3758.77212	0.13411
3756.84355	0.13657
3754.91499	0.13866
3752.98643	0.14082
3751.05786	0.14389
3749.12930	0.14751
3747.20073	0.14978
3745.27217	0.15220
3743.34360	0.15655
3741.41504	0.16035
3739.48647	0.16284
3737.55791	0.16570
3735.62935	0.16955
3733.70078	0.17474
3731.77222	0.18024
3729.84365	0.18489
3727.91509	0.18913
3725.98652	0.19418
3724.05796	0.20066
3722.12939	0.20817
3720.20083	0.21635
3718.27227	0.22469
3716.34370	0.23259
3714.41514	0.23942
3712.48657	0.24698
3710.55801	0.25950
3708.62944	0.27503
3706.70088	0.28778
3704.77231	0.29932
3702.84375	0.31241
3700.91519	0.32929
3698.98662	0.34773
3697.05806	0.36489
3695.12949	0.38332
3693.20093	0.40340
3691.27236	0.42507
3689.34380	0.45319
3687.41523	0.48847
3685.48667	0.51950
3683.55811	0.54661
3681.62954	0.57547
3679.70098	0.60666
3677.77241	0.63832
3675.84385	0.67629
3673.91528	0.73049
3671.98672	0.77502
3670.05815	0.81419
3668.12959	0.87009
3666.20103	0.92082
3664.27246	0.96185
3662.34390	1.00531
3660.41533	1.05203
3658.48677	1.09793
3656.55820	1.14710
3654.62964	1.20240
3652.70107	1.24791
3650.77251	1.28615
3648.84395	1.34102
3646.91538	1.41276
3644.98682	1.46504
3643.05825	1.50381
3641.12969	1.54357
3639.20112	1.58831
3637.27256	1.63336
3635.34399	1.67645
3633.41543	1.71902
3631.48687	1.75848
3629.55830	1.79889
3627.62974	1.85411
3625.70117	1.90566
3623.77261	1.93906
3621.84404	1.97029
3619.91548	2.00667
3617.98691	2.05265
3616.05835	2.09743
3614.12979	2.13474
3612.20122	2.17470
3610.27266	2.21457
3608.34409	2.25382
3606.41553	2.29665
3604.48696	2.33697
3602.55840	2.37151
3600.62983	2.40795
3598.70127	2.44828
3596.77271	2.48782
3594.84414	2.52777
3592.91558	2.56990
3590.98701	2.60952
3589.05845	2.64518
3587.12988	2.68810
3585.20132	2.73661
3583.27275	2.77711
3581.34419	2.81463
3579.41562	2.85567
3577.48706	2.89823
3575.55850	2.93991
3573.62993	2.98305
3571.70137	3.02501
3569.77280	3.06338
3567.84424	3.10362
3565.91567	3.15560
3563.98711	3.20764
3562.05854	3.25019
3560.12998	3.29307
3558.20142	3.33779
3556.27285	3.38160
3554.34429	3.42482
3552.41572	3.47183
3550.48716	3.52107
3548.55859	3.56762
3546.63003	3.61240
3544.70146	3.65827
3542.77290	3.70350
3540.84434	3.74763
3538.91577	3.79346
3536.98721	3.84028
3535.05864	3.88779
3533.13008	3.93549
3531.20151	3.98502
3529.27295	4.03545
3527.34438	4.08372
3525.41582	4.12980
3523.48726	4.17543
3521.55869	4.22292
3519.63013	4.27255
3517.70156	4.32228
3515.77300	4.36772
3513.84443	4.41018
3511.91587	4.45518
3509.98730	4.50515
3508.05874	4.55713
3506.13018	4.60796
3504.20161	4.65707
3502.27305	4.70405
3500.34448	4.74947
3498.41592	4.79385
3496.48735	4.84010
3494.55879	4.88805
3492.63022	4.93718
3490.70166	4.98766
3488.77310	5.03371
3486.84453	5.07628
3484.91597	5.12543
3482.98740	5.18038
3481.05884	5.23030
3479.13027	5.27525
3477.20171	5.32174
3475.27314	5.36292
3473.34458	5.40049
3471.41602	5.44984
3469.48745	5.50911
3467.55889	5.56486
3465.63032	5.61044
3463.70176	5.65379
3461.77319	5.70548
3459.84463	5.75953
3457.91606	5.80708
3455.98750	5.85060
3454.05894	5.89410
3452.13037	5.94214
3450.20181	5.99380
3448.27324	6.05431
3446.34468	6.12319
3444.41611	6.17497
3442.48755	6.20834
3440.55898	6.22999
3438.63042	6.25608
3436.70186	6.30463
3434.77329	6.36952
3432.84473	6.44265
3430.91616	6.51286
3428.98760	6.56843
3427.05903	6.61060
3425.13047	6.65580
3423.20190	6.69196
3421.27334	6.72091
3419.34478	6.76789
3417.41621	6.83543
3415.48765	6.89062
3413.55908	6.91393
3411.63052	6.95531
3409.70195	7.02887
3407.77339	7.11514
3405.84482	7.18479
3403.91626	7.21376
3401.98770	7.23338
3400.05913	7.27438
3398.13057	7.31224
3396.20200	7.33189
3394.27344	7.34484
3392.34487	7.35438
3390.41631	7.41148
3388.48774	7.49115
3386.55918	7.52320
3384.63062	7.50127
3382.70205	7.46678
3380.77349	7.45945
3378.84492	7.46413
3376.91636	7.50357
3374.98779	7.61111
3373.05923	7.71699
3371.13066	7.72136
3369.20210	7.69301
3367.27354	7.70931
3365.34497	7.78163
3363.41641	7.86322
3361.48784	7.87289
3359.55928	7.84441
3357.63071	7.83569
3355.70215	7.88844
3353.77358	7.93854
3351.84502	7.90787
3349.91646	7.85025
3347.98789	7.84055
3346.05933	7.86775
3344.13076	7.85009
3342.20220	7.79182
3340.27363	7.83500
3338.34507	8.05316
3336.41650	8.20257
3334.48794	8.12918
3332.55937	8.04090
3330.63081	8.01005
3328.70225	7.99488
3326.77368	7.98067
3324.84512	7.99044
3322.91655	8.06177
3320.98799	8.14635
3319.05942	8.14379
3317.13086	8.11984
3315.20229	8.13455
3313.27373	8.18822
3311.34517	8.24589
3309.41660	8.21486
3307.48804	8.14541
3305.55947	8.14351
3303.63091	8.17363
3301.70234	8.16744
3299.77378	8.15163
3297.84521	8.14389
3295.91665	8.15481
3293.98809	8.13424
3292.05952	8.12503
3290.13096	8.22290
3288.20239	8.27942
3286.27383	8.16843
3284.34526	8.01010
3282.41670	7.92239
3280.48813	7.89820
3278.55957	7.90503
3276.63101	7.93355
3274.70244	7.98691
3272.77388	8.04438
3270.84531	8.10251
3268.91675	8.21593
3266.98818	8.32702
3265.05962	8.33574
3263.13105	8.29533
3261.20249	8.27112
3259.27393	8.21129
3257.34536	8.16530
3255.41680	8.24633
3253.48823	8.38079
3251.55967	8.37995
3249.63110	8.26696
3247.70254	8.20646
3245.77397	8.20288
3243.84541	8.20982
3241.91685	8.27242
3239.98828	8.36103
3238.05972	8.35108
3236.13115	8.31914
3234.20259	8.32885
3232.27402	8.26357
3230.34546	8.14634
3228.41689	8.05112
3226.48833	7.97390
3224.55977	7.97365
3222.63120	8.06229
3220.70264	8.07265
3218.77407	7.99502
3216.84551	7.96885
3214.91694	7.98089
3212.98838	7.96972
3211.05981	7.91515
3209.13125	7.84880
3207.20269	7.81114
3205.27412	7.79898
3203.34556	7.77741
3201.41699	7.77077
3199.48843	7.81997
3197.55986	7.85391
3195.63130	7.76846
3193.70273	7.61765
3191.77417	7.52850
3189.84561	7.50601
3187.91704	7.50739
3185.98848	7.48818
3184.05991	7.42437
3182.13135	7.37004
3180.20278	7.31324
3178.27422	7.20378
3176.34565	7.07813
3174.41709	7.01927
3172.48853	7.04574
3170.55996	7.06278
3168.63140	7.00839
3166.70283	6.93619
3164.77427	6.88230
3162.84570	6.82371
3160.91714	6.75307
3158.98857	6.67304
3157.06001	6.58268
3155.13145	6.51269
3153.20288	6.46663
3151.27432	6.41552
3149.34575	6.35451
3147.41719	6.29334
3145.48862	6.22509
3143.56006	6.14605
3141.63149	6.06852
3139.70293	5.99587
3137.77437	5.92910
3135.84580	5.86108
3133.91724	5.78288
3131.98867	5.69939
3130.06011	5.62176
3128.13154	5.55351
3126.20298	5.48773
3124.27441	5.41867
3122.34585	5.34311
3120.41729	5.26671
3118.48872	5.19464
3116.56016	5.12676
3114.63159	5.05992
3112.70303	4.98798
3110.77446	4.91491
3108.84590	4.84690
3106.91733	4.78076
3104.98877	4.71385
3103.06021	4.64563
3101.13164	4.57364
3099.20308	4.50404
3097.27451	4.44116
3095.34595	4.37852
3093.41738	4.31436
3091.48882	4.25164
3089.56025	4.18842
3087.63169	4.12166
3085.70312	4.05549
3083.77456	3.99468
3081.84600	3.93659
3079.91743	3.87622
3077.98887	3.81253
3076.06030	3.74812
3074.13174	3.68697
3072.20317	3.63000
3070.27461	3.57388
3068.34604	3.51749
3066.41748	3.46037
3064.48892	3.40232
3062.56035	3.34650
3060.63179	3.29440
3058.70322	3.24266
3056.77466	3.18844
3054.84609	3.13360
3052.91753	3.08089
3050.98896	3.03021
3049.06040	2.97953
3047.13184	2.92883
3045.20327	2.87968
3043.27471	2.83196
3041.34614	2.78475
3039.41758	2.73788
3037.48901	2.69181
3035.56045	2.64621
3033.63188	2.60047
3031.70332	2.55487
3029.77476	2.51026
3027.84619	2.46701
3025.91763	2.42434
3023.98906	2.38221
3022.06050	2.34113
3020.13193	2.30075
3018.20337	2.26085
3016.27480	2.22171
3014.34624	2.18318
3012.41768	2.14470
3010.48911	2.10658
3008.56055	2.06965
3006.63198	2.03356
3004.70342	1.99755
3002.77485	1.96211
3000.84629	1.92781
2998.91772	1.89409
2996.98916	1.86090
2995.06060	1.82874
2993.13203	1.79679
2991.20347	1.76409
2989.27490	1.73170
2987.34634	1.70091
2985.41777	1.67125
2983.48921	1.64152
2981.56064	1.61186
2979.63208	1.58282
2977.70352	1.55402
2975.77495	1.52542
2973.84639	1.49719
2971.91782	1.46920
2969.98926	1.44178
2968.06069	1.41508
2966.13213	1.38899
2964.20356	1.36329
2962.27500	1.33808
2960.34644	1.31366
2958.41787	1.28966
2956.48931	1.26596
2954.56074	1.24316
2952.63218	1.22098
2950.70361	1.19882
2948.77505	1.17683
2946.84648	1.15518
2944.91792	1.13381
2942.98936	1.11256
2941.06079	1.09118
2939.13223	1.06988
2937.20366	1.04915
2935.27510	1.02933
2933.34653	1.01031
2931.41797	0.99166
2929.48940	0.97293
2927.56084	0.95423
2925.63228	0.93627
2923.70371	0.91940
2921.77515	0.90283
2919.84658	0.88644
2917.91802	0.87091
2915.98945	0.85599
2914.06089	0.84147
2912.13232	0.82728
2910.20376	0.81316
2908.27520	0.79947
2906.34663	0.78649
2904.41807	0.77379
2902.48950	0.76109
2900.56094	0.74847
2898.63237	0.73599
2896.70381	0.72395
2894.77524	0.71236
2892.84668	0.70089
2890.91812	0.68950
2888.98955	0.67826
2887.06099	0.66705
2885.13242	0.65584
2883.20386	0.64457
2881.27529	0.63350
2879.34673	0.62281
2877.41816	0.61217
2875.48960	0.60158
2873.56104	0.59138
2871.63247	0.58164
2869.70391	0.57194
2867.77534	0.56181
2865.84678	0.55143
2863.91821	0.54114
2861.98965	0.53114
2860.06108	0.52156
2858.13252	0.51221
2856.20396	0.50296
2854.27539	0.49399
2852.34683	0.48537
2850.41826	0.47726
2848.48970	0.46996
2846.56113	0.46334
2844.63257	0.45701
2842.70400	0.45107
2840.77544	0.44567
2838.84687	0.44031
2836.91831	0.43465
2834.98975	0.42881
2833.06118	0.42306
2831.13262	0.41725
2829.20405	0.41124
2827.27549	0.40536
2825.34692	0.39972
2823.41836	0.39397
2821.48979	0.38809
2819.56123	0.38243
2817.63267	0.37701
2815.70410	0.37160
2813.77554	0.36624
2811.84697	0.36107
2809.91841	0.35596
2807.98984	0.35085
2806.06128	0.34581
2804.13271	0.34084
2802.20415	0.33594
2800.27559	0.33120
2798.34702	0.32652
2796.41846	0.32182
2794.48989	0.31722
2792.56133	0.31282
2790.63276	0.30857
2788.70420	0.30431
2786.77563	0.30005
2784.84707	0.29594
2782.91851	0.29192
2780.98994	0.28800
2779.06138	0.28428
2777.13281	0.28066
2775.20425	0.27711
2773.27568	0.27366
2771.34712	0.27014
2769.41855	0.26662
2767.48999	0.26326
2765.56143	0.25991
2763.63286	0.25660
2761.70430	0.25353
2759.77573	0.25061
2757.84717	0.24766
2755.91860	0.24466
2753.99004	0.24167
2752.06147	0.23873
2750.13291	0.23587
2748.20435	0.23313
2746.27578	0.23042
2744.34722	0.22774
2742.41865	0.22525
2740.49009	0.22302
2738.56152	0.22091
2736.63296	0.21865
2734.70439	0.21615
2732.77583	0.21358
2730.84727	0.21126
2728.91870	0.20912
2726.99014	0.20705
2725.06157	0.20505
2723.13301	0.20311
2721.20444	0.20120
2719.27588	0.19933
2717.34731	0.19742
2715.41875	0.19552
2713.49019	0.19372
2711.56162	0.19190
2709.63306	0.19011
2707.70449	0.18849
2705.77593	0.18703
2703.84736	0.18561
2701.91880	0.18410
2699.99023	0.18254
2698.06167	0.18114
2696.13311	0.17984
2694.20454	0.17841
2692.27598	0.17686
2690.34741	0.17546
2688.41885	0.17433
2686.49028	0.17340
2684.56172	0.17248
2682.63315	0.17136
2680.70459	0.17019
2678.77603	0.16914
2676.84746	0.16805
2674.91890	0.16680
2672.99033	0.16555
2671.06177	0.16448
2669.13320	0.16348
2667.20464	0.16254
2665.27607	0.16171
2663.34751	0.16093
2661.41895	0.16012
2659.49038	0.15932
2657.56182	0.15860
2655.63325	0.15781
2653.70469	0.15705
2651.77612	0.15657
2649.84756	0.15627
2647.91899	0.15576
2645.99043	0.15504
2644.06187	0.15449
2642.13330	0.15405
2640.20474	0.15346
2638.27617	0.15286
2636.34761	0.15248
2634.41904	0.15215
2632.49048	0.15176
2630.56191	0.15144
2628.63335	0.15113
2626.70479	0.15075
2624.77622	0.15044
2622.84766	0.15026
2620.91909	0.15005
2618.99053	0.14986
2617.06196	0.14984
2615.13340	0.14987
2613.20483	0.14980
2611.27627	0.14968
2609.34771	0.14956
2607.41914	0.14940
2605.49058	0.14928
2603.56201	0.14927
2601.63345	0.14927
2599.70488	0.14923
2597.77632	0.14931
2595.84775	0.14957
2593.91919	0.14979
2591.99062	0.14987
2590.06206	0.14997
2588.13350	0.15022
2586.20493	0.15060
2584.27637	0.15096
2582.34780	0.15116
2580.41924	0.15134
2578.49067	0.15159
2576.56211	0.15183
2574.63354	0.15212
2572.70498	0.15261
2570.77642	0.15316
2568.84785	0.15364
2566.91929	0.15406
2564.99072	0.15449
2563.06216	0.15498
2561.13359	0.15551
2559.20503	0.15598
2557.27646	0.15642
2555.34790	0.15697
2553.41934	0.15763
2551.49077	0.15824
2549.56221	0.15879
2547.63364	0.15941
2545.70508	0.16011
2543.77651	0.16081
2541.84795	0.16139
2539.91938	0.16186
2537.99082	0.16243
2536.06226	0.16316
2534.13369	0.16396
2532.20513	0.16473
2530.27656	0.16546
2528.34800	0.16614
2526.41943	0.16673
2524.49087	0.16736
2522.56230	0.16815
2520.63374	0.16902
2518.70518	0.16994
2516.77661	0.17086
2514.84805	0.17171
2512.91948	0.17252
2510.99092	0.17337
2509.06235	0.17422
2507.13379	0.17497
2505.20522	0.17575
2503.27666	0.17667
2501.34810	0.17763
2499.41953	0.17852
2497.49097	0.17938
2495.56240	0.18018
2493.63384	0.18092
2491.70527	0.18177
2489.77671	0.18278
2487.84814	0.18374
2485.91958	0.18458
2483.99102	0.18543
2482.06245	0.18634
2480.13389	0.18728
2478.20532	0.18821
2476.27676	0.18913
2474.34819	0.19008
2472.41963	0.19105
2470.49106	0.19197
2468.56250	0.19282
2466.63394	0.19363
2464.70537	0.19455
2462.77681	0.19560
2460.84824	0.19667
2458.91968	0.19770
2456.99111	0.19877
2455.06255	0.19983
2453.13398	0.20080
2451.20542	0.20177
2449.27686	0.20279
2447.34829	0.20389
2445.41973	0.20506
2443.49116	0.20613
2441.56260	0.20700
2439.63403	0.20789
2437.70547	0.20898
2435.77690	0.21006
2433.84834	0.21105
2431.91978	0.21215
2429.99121	0.21336
2428.06265	0.21449
2426.13408	0.21551
2424.20552	0.21651
2422.27695	0.21755
2420.34839	0.21868
2418.41982	0.21987
2416.49126	0.22101
2414.56270	0.22219
2412.63413	0.22346
2410.70557	0.22467
2408.77700	0.22590
2406.84844	0.22721
2404.91987	0.22848
2402.99131	0.22969
2401.06274	0.23092
2399.13418	0.23217
2397.20562	0.23346
2395.27705	0.23467
2393.34849	0.23579
2391.41992	0.23697
2389.49136	0.23829
2387.56279	0.23958
2385.63423	0.24080
2383.70566	0.24202
2381.77710	0.24317
2379.84854	0.24424
2377.91997	0.24530
2375.99141	0.24631
2374.06284	0.24730
2372.13428	0.24849
2370.20571	0.24971
2368.27715	0.25058
2366.34858	0.25121
2364.42002	0.25216
2362.49146	0.25382
2360.56289	0.25584
2358.63433	0.25841
2356.70576	0.26124
2354.77720	0.26281
2352.84863	0.26407
2350.92007	0.26568
2348.99150	0.26672
2347.06294	0.26727
2345.13437	0.26835
2343.20581	0.27016
2341.27725	0.27146
2339.34868	0.27250
2337.42012	0.27433
2335.49155	0.27666
2333.56299	0.27855
2331.63442	0.28011
2329.70586	0.28213
2327.77729	0.28467
2325.84873	0.28699
2323.92017	0.28901
2321.99160	0.29109
2320.06304	0.29300
2318.13447	0.29440
2316.20591	0.29553
2314.27734	0.29712
2312.34878	0.29933
2310.42021	0.30146
2308.49165	0.30328
2306.56309	0.30513
2304.63452	0.30707
2302.70596	0.30896
2300.77739	0.31071
2298.84883	0.31246
2296.92026	0.31439
2294.99170	0.31641
2293.06313	0.31851
2291.13457	0.32052
2289.20601	0.32236
2287.27744	0.32433
2285.34888	0.32649
2283.42031	0.32861
2281.49175	0.33063
2279.56318	0.33262
2277.63462	0.33463
2275.70605	0.33665
2273.77749	0.33872
2271.84893	0.34089
2269.92036	0.34305
2267.99180	0.34515
2266.06323	0.34727
2264.13467	0.34941
2262.20610	0.35152
2260.27754	0.35366
2258.34897	0.35593
2256.42041	0.35820
2254.49185	0.36033
2252.56328	0.36239
2250.63472	0.36452
2248.70615	0.36680
2246.77759	0.36909
2244.84902	0.37129
2242.92046	0.37345
2240.99189	0.37560
2239.06333	0.37775
2237.13477	0.37993
2235.20620	0.38219
2233.27764	0.38456
2231.34907	0.38688
2229.42051	0.38913
2227.49194	0.39140
2225.56338	0.39372
2223.63481	0.39601
2221.70625	0.39824
2219.77769	0.40039
2217.84912	0.40250
2215.92056	0.40470
2213.99199	0.40696
2212.06343	0.40912
2210.13486	0.41120
2208.20630	0.41335
2206.27773	0.41554
2204.34917	0.41767
2202.42061	0.41980
2200.49204	0.42191
2198.56348	0.42396
2196.63491	0.42587
2194.70635	0.42772
2192.77778	0.42957
2190.84922	0.43142
2188.92065	0.43331
2186.99209	0.43529
2185.06353	0.43722
2183.13496	0.43897
2181.20640	0.44069
2179.27783	0.44252
2177.34927	0.44428
2175.42070	0.44582
2173.49214	0.44732
2171.56357	0.44885
2169.63501	0.45032
2167.70645	0.45169
2165.77788	0.45296
2163.84932	0.45415
2161.92075	0.45534
2159.99219	0.45655
2158.06362	0.45766
2156.13506	0.45865
2154.20649	0.45959
2152.27793	0.46049
2150.34937	0.46124
2148.42080	0.46179
2146.49224	0.46227
2144.56367	0.46269
2142.63511	0.46308
2140.70654	0.46349
2138.77798	0.46384
2136.84941	0.46403
2134.92085	0.46411
2132.99229	0.46418
2131.06372	0.46418
2129.13516	0.46411
2127.20659	0.46397
2125.27803	0.46370
2123.34946	0.46332
2121.42090	0.46287
2119.49233	0.46233
2117.56377	0.46177
2115.63521	0.46114
2113.70664	0.46028
2111.77808	0.45926
2109.84951	0.45832
2107.92095	0.45741
2105.99238	0.45631
2104.06382	0.45506
2102.13525	0.45378
2100.20669	0.45257
2098.27812	0.45135
2096.34956	0.45000
2094.42100	0.44849
2092.49243	0.44691
2090.56387	0.44532
2088.63530	0.44357
2086.70674	0.44168
2084.77817	0.43979
2082.84961	0.43792
2080.92104	0.43605
2078.99248	0.43417
2077.06392	0.43217
2075.13535	0.42995
2073.20679	0.42765
2071.27822	0.42542
2069.34966	0.42329
2067.42109	0.42116
2065.49253	0.41887
2063.56396	0.41632
2061.63540	0.41373
2059.70684	0.41122
2057.77827	0.40869
2055.84971	0.40615
2053.92114	0.40370
2051.99258	0.40131
2050.06401	0.39870
2048.13545	0.39586
2046.20688	0.39308
2044.27832	0.39039
2042.34976	0.38764
2040.42119	0.38486
2038.49263	0.38220
2036.56406	0.37960
2034.63550	0.37697
2032.70693	0.37417
2030.77837	0.37128
2028.84980	0.36845
2026.92124	0.36573
2024.99268	0.36308
2023.06411	0.36038
2021.13555	0.35757
2019.20698	0.35473
2017.27842	0.35192
2015.34985	0.34910
2013.42129	0.34630
2011.49272	0.34355
2009.56416	0.34082
2007.63560	0.33799
2005.70703	0.33516
2003.77847	0.33246
2001.84990	0.32983
1999.92134	0.32716
1997.99277	0.32447
1996.06421	0.32179
1994.13564	0.31914
1992.20708	0.31660
1990.27852	0.31413
1988.34995	0.31167
1986.42139	0.30916
1984.49282	0.30676
1982.56426	0.30451
1980.63569	0.30215
1978.70713	0.29970
1976.77856	0.29731
1974.85000	0.29504
1972.92144	0.29286
1970.99287	0.29070
1969.06431	0.28853
1967.13574	0.28644
1965.20718	0.28442
1963.27861	0.28239
1961.35005	0.28035
1959.42148	0.27840
1957.49292	0.27651
1955.56436	0.27465
1953.63579	0.27282
1951.70723	0.27101
1949.77866	0.26932
1947.85010	0.26776
1945.92153	0.26615
1943.99297	0.26449
1942.06440	0.26294
1940.13584	0.26155
1938.20728	0.26021
1936.27871	0.25886
1934.35015	0.25749
1932.42158	0.25614
1930.49302	0.25483
1928.56445	0.25368
1926.63589	0.25263
1924.70732	0.25155
1922.77876	0.25047
1920.85020	0.24950
1918.92163	0.24868
1916.99307	0.24782
1915.06450	0.24681
1913.13594	0.24582
1911.20737	0.24502
1909.27881	0.24438
1907.35024	0.24371
1905.42168	0.24290
1903.49312	0.24212
1901.56455	0.24152
1899.63599	0.24099
1897.70742	0.24051
1895.77886	0.24012
1893.85029	0.23983
1891.92173	0.23946
1889.99316	0.23910
1888.06460	0.23882
1886.13604	0.23861
1884.20747	0.23847
1882.27891	0.23835
1880.35034	0.23816
1878.42178	0.23802
1876.49321	0.23803
1874.56465	0.23802
1872.63608	0.23795
1870.70752	0.23793
1868.77896	0.23823
1866.85039	0.23867
1864.92183	0.23888
1862.99326	0.23907
1861.06470	0.23933
1859.13613	0.23959
1857.20757	0.23979
1855.27900	0.24014
1853.35044	0.24060
1851.42187	0.24110
1849.49331	0.24162
1847.56475	0.24215
1845.63618	0.24277
1843.70762	0.24369
1841.77905	0.24464
1839.85049	0.24532
1837.92192	0.24618
1835.99336	0.24710
1834.06479	0.24797
1832.13623	0.24881
1830.20767	0.24993
1828.27910	0.25126
1826.35054	0.25236
1824.42197	0.25372
1822.49341	0.25523
1820.56484	0.25663
1818.63628	0.25800
1816.70771	0.25957
1814.77915	0.26120
1812.85059	0.26289
1810.92202	0.26480
1808.99346	0.26686
1807.06489	0.26890
1805.13633	0.27081
1803.20776	0.27287
1801.27920	0.27529
1799.35063	0.27814
1797.42207	0.28068
1795.49351	0.28298
1793.56494	0.28565
1791.63638	0.28928
1789.70781	0.29299
1787.77925	0.29582
1785.85068	0.29897
1783.92212	0.30264
1781.99355	0.30649
1780.06499	0.31064
1778.13643	0.31495
1776.20786	0.31886
1774.27930	0.32289
1772.35073	0.32851
1770.42217	0.33494
1768.49360	0.34047
1766.56504	0.34588
1764.63647	0.35134
1762.70791	0.35717
1760.77935	0.36466
1758.85078	0.37178
1756.92222	0.37884
1754.99365	0.38656
1753.06509	0.39331
1751.13652	0.40102
1749.20796	0.41122
1747.27939	0.42185
1745.35083	0.43118
1743.42227	0.44077
1741.49370	0.45136
1739.56514	0.46397
1737.63657	0.47647
1735.70801	0.48698
1733.77944	0.50309
1731.85088	0.52337
1729.92231	0.53946
1727.99375	0.55553
1726.06519	0.57241
1724.13662	0.59076
1722.20806	0.61067
1720.27949	0.62866
1718.35093	0.64939
1716.42236	0.68168
1714.49380	0.71347
1712.56523	0.73857
1710.63667	0.76227
1708.70811	0.78745
1706.77954	0.81610
1704.85098	0.85072
1702.92241	0.88126
1700.99385	0.91021
1699.06528	0.95422
1697.13672	0.99560
1695.20815	1.03799
1693.27959	1.07842
1691.35103	1.10978
1689.42246	1.14564
1687.49390	1.18317
1685.56533	1.21810
1683.63677	1.27400
1681.70820	1.33448
1679.77964	1.37184
1677.85107	1.40665
1675.92251	1.44638
1673.99395	1.49632
1672.06538	1.54045
1670.13682	1.58280
1668.20825	1.63850
1666.27969	1.68212
1664.35112	1.71842
1662.42256	1.76380
1660.49399	1.81432
1658.56543	1.85296
1656.63687	1.88546
1654.70830	1.91553
1652.77974	1.96601
1650.85117	2.02026
1648.92261	2.04296
1646.99404	2.07445
1645.06548	2.11058
1643.13691	2.13328
1641.20835	2.14508
1639.27979	2.15522
1637.35122	2.16362
1635.42266	2.16897
1633.49409	2.16803
1631.56553	2.15873
1629.63696	2.14409
1627.70840	2.11958
1625.77983	2.09470
1623.85127	2.06305
1621.92271	2.02092
1619.99414	1.98235
1618.06558	1.94363
1616.13701	1.88514
1614.20845	1.82511
1612.27988	1.78084
1610.35132	1.73398
1608.42275	1.68177
1606.49419	1.62994
1604.56562	1.58284
1602.63706	1.53689
1600.70850	1.49073
1598.77993	1.44809
1596.85137	1.40843
1594.92280	1.36983
1592.99424	1.33235
1591.06567	1.29790
1589.13711	1.26489
1587.20854	1.23345
1585.27998	1.20415
1583.35142	1.17634
1581.42285	1.15013
1579.49429	1.12724
1577.56572	1.10643
1575.63716	1.08003
1573.70859	1.05656
1571.78003	1.04130
1569.85146	1.02395
1567.92290	1.00325
1565.99434	0.98697
1564.06577	0.97304
1562.13721	0.96107
1560.20864	0.95099
1558.28008	0.93348
1556.35151	0.91677
1554.42295	0.90634
1552.49438	0.89631
1550.56582	0.88637
1548.63726	0.87578
1546.70869	0.86639
1544.78013	0.85786
1542.85156	0.84880
1540.92300	0.83798
1538.99443	0.82340
1537.06587	0.81345
1535.13730	0.80668
1533.20874	0.79804
1531.28018	0.78927
1529.35161	0.78286
1527.42305	0.77635
1525.49448	0.76946
1523.56592	0.76328
1521.63735	0.75656
1519.70879	0.74956
1517.78022	0.74404
1515.85166	0.73814
1513.92310	0.73230
1511.99453	0.72757
1510.06597	0.72351
1508.13740	0.71950
1506.20884	0.71301
1504.28027	0.70740
1502.35171	0.70395
1500.42314	0.70073
1498.49458	0.69735
1496.56602	0.69356
1494.63745	0.68998
1492.70889	0.68722
1490.78032	0.68473
1488.85176	0.68160
1486.92319	0.67818
1484.99463	0.67538
1483.06606	0.67311
1481.13750	0.67083
1479.20894	0.66838
1477.28037	0.66591
1475.35181	0.66343
1473.42324	0.66092
1471.49468	0.65788
1469.56611	0.65498
1467.63755	0.65258
1465.70898	0.65043
1463.78042	0.64839
1461.85186	0.64652
1459.92329	0.64472
1457.99473	0.64249
1456.06616	0.63985
1454.13760	0.63786
1452.20903	0.63605
1450.28047	0.63393
1448.35190	0.63172
1446.42334	0.62978
1444.49478	0.62808
1442.56621	0.62644
1440.63765	0.62508
1438.70908	0.62403
1436.78052	0.62271
1434.85195	0.62098
1432.92339	0.61945
1430.99482	0.61821
1429.06626	0.61700
1427.13770	0.61578
1425.20913	0.61468
1423.28057	0.61361
1421.35200	0.61250
1419.42344	0.61141
1417.49487	0.61023
1415.56631	0.60871
1413.63774	0.60699
1411.70918	0.60531
1409.78062	0.60383
1407.85205	0.60244
1405.92349	0.60092
1403.99492	0.59940
1402.06636	0.59814
1400.13779	0.59697
1398.20923	0.59559
1396.28066	0.59400
1394.35210	0.59227
1392.42354	0.59058
1390.49497	0.58903
1388.56641	0.58751
1386.63784	0.58596
1384.70928	0.58437
1382.78071	0.58290
1380.85215	0.58162
1378.92358	0.58060
1376.99502	0.57980
1375.06646	0.57906
1373.13789	0.57818
1371.20933	0.57739
1369.28076	0.57687
1367.35220	0.57634
1365.42363	0.57547
1363.49507	0.57438
1361.56650	0.57326
1359.63794	0.57221
1357.70937	0.57130
1355.78081	0.57038
1353.85225	0.56938
1351.92368	0.56838
1349.99512	0.56742
1348.06655	0.56636
1346.13799	0.56525
1344.20942	0.56427
1342.28086	0.56336
1340.35229	0.56236
1338.42373	0.56128
1336.49517	0.56029
1334.56660	0.55947
1332.63804	0.55872
1330.70947	0.55800
1328.78091	0.55732
1326.85234	0.55665
1324.92378	0.55595
1322.99521	0.55524
1321.06665	0.55457
1319.13809	0.55394
1317.20952	0.55325
1315.28096	0.55238
1313.35239	0.55150
1311.42383	0.55074
1309.49526	0.54988
1307.56670	0.54887
1305.63813	0.54779
1303.70957	0.54661
1301.78101	0.54541
1299.85244	0.54439
1297.92388	0.54356
1295.99531	0.54277
1294.06675	0.54193
1292.13818	0.54106
1290.20962	0.54027
1288.28105	0.53956
1286.35249	0.53889
1284.42393	0.53829
1282.49536	0.53772
1280.56680	0.53721
1278.63823	0.53669
1276.70967	0.53608
1274.78110	0.53538
1272.85254	0.53475
1270.92397	0.53423
1268.99541	0.53375
1267.06685	0.53338
1265.13828	0.53320
1263.20972	0.53300
1261.28115	0.53259
1259.35259	0.53219
1257.42402	0.53201
1255.49546	0.53180
1253.56689	0.53143
1251.63833	0.53109
1249.70977	0.53101
1247.78120	0.53107
1245.85264	0.53093
1243.92407	0.53062
1241.99551	0.53022
1240.06694	0.52963
1238.13838	0.52897
1236.20981	0.52831
1234.28125	0.52754
1232.35269	0.52684
1230.42412	0.52630
1228.49556	0.52563
1226.56699	0.52476
1224.63843	0.52391
1222.70986	0.52303
1220.78130	0.52212
1218.85273	0.52130
1216.92417	0.52060
1214.99561	0.51995
1213.06704	0.51937
1211.13848	0.51879
1209.20991	0.51813
1207.28135	0.51750
1205.35278	0.51698
1203.42422	0.51646
1201.49565	0.51583
1199.56709	0.51523
1197.63853	0.51474
1195.70996	0.51412
1193.78140	0.51335
1191.85283	0.51261
1189.92427	0.51195
1187.99570	0.51143
1186.06714	0.51109
1184.13857	0.51087
1182.21001	0.51080
1180.28145	0.51098
1178.35288	0.51136
1176.42432	0.51178
1174.49575	0.51235
1172.56719	0.51304
1170.63862	0.51359
1168.71006	0.51408
1166.78149	0.51473
1164.85293	0.51539
1162.92437	0.51588
1160.99580	0.51622
1159.06724	0.51636
1157.13867	0.51620
1155.21011	0.51565
1153.28154	0.51457
1151.35298	0.51301
1149.42441	0.51115
1147.49585	0.50902
1145.56729	0.50665
1143.63872	0.50417
1141.71016	0.50164
1139.78159	0.49925
1137.85303	0.49740
1135.92446	0.49618
1133.99590	0.49523
1132.06733	0.49423
1130.13877	0.49313
1128.21021	0.49207
1126.28164	0.49111
1124.35308	0.49028
1122.42451	0.48959
1120.49595	0.48914
1118.56738	0.48900
1116.63882	0.48902
1114.71025	0.48922
1112.78169	0.48979
1110.85312	0.49046
1108.92456	0.49102
1106.99600	0.49174
1105.06743	0.49286
1103.13887	0.49421
1101.21030	0.49568
1099.28174	0.49745
1097.35317	0.49964
1095.42461	0.50243
1093.49604	0.50605
1091.56748	0.51045
1089.63892	0.51576
1087.71035	0.52227
1085.78179	0.52973
1083.85322	0.53745
1081.92466	0.54471
1079.99609	0.55040
1078.06753	0.55352
1076.13896	0.55400
1074.21040	0.55188
1072.28184	0.54718
1070.35327	0.54086
1068.42471	0.53417
1066.49614	0.52768
1064.56758	0.52163
1062.63901	0.51613
1060.71045	0.51119
1058.78188	0.50692
1056.85332	0.50354
1054.92476	0.50076
1052.99619	0.49812
1051.06763	0.49584
1049.13906	0.49434
1047.21050	0.49366
1045.28193	0.49353
1043.35337	0.49351
1041.42480	0.49322
1039.49624	0.49269
1037.56768	0.49232
1035.63911	0.49226
1033.71055	0.49219
1031.78198	0.49182
1029.85342	0.49110
1027.92485	0.49027
1025.99629	0.48961
1024.06772	0.48920
1022.13916	0.48910
1020.21060	0.48941
1018.28203	0.48977
1016.35347	0.48982
1014.42490	0.48983
1012.49634	0.49013
1010.56777	0.49075
1008.63921	0.49163
1006.71064	0.49266
1004.78208	0.49390
1002.85352	0.49578
1000.92495	0.49849
998.99639	0.50175
997.06782	0.50544
995.13926	0.50945
993.21069	0.51322
991.28213	0.51624
989.35356	0.51835
987.42500	0.51946
985.49644	0.51983
983.56787	0.52014
981.63931	0.52076
979.71074	0.52184
977.78218	0.52351
975.85361	0.52576
973.92505	0.52848
971.99648	0.53146
970.06792	0.53458
968.13936	0.53803
966.21079	0.54205
964.28223	0.54661
962.35366	0.55150
960.42510	0.55661
958.49653	0.56187
956.56797	0.56721
954.63940	0.57285
952.71084	0.57911
950.78228	0.58573
948.85371	0.59227
946.92515	0.59878
944.99658	0.60504
943.06802	0.61068
941.13945	0.61629
939.21089	0.62253
937.28232	0.62875
935.35376	0.63427
933.42520	0.63951
931.49663	0.64483
929.56807	0.65011
927.63950	0.65586
925.71094	0.66218
923.78237	0.66815
921.85381	0.67373
919.92524	0.67992
917.99668	0.68701
916.06812	0.69404
914.13955	0.70131
912.21099	0.71012
910.28242	0.71963
908.35386	0.72830
906.42529	0.73666
904.49673	0.74567
902.56816	0.75485
900.63960	0.76341
898.71104	0.77144
896.78247	0.78002
894.85391	0.78979
892.92534	0.80030
890.99678	0.81137
889.06821	0.82276
887.13965	0.83397
885.21108	0.84482
883.28252	0.85564
881.35396	0.86729
879.42539	0.87928
877.49683	0.89014
875.56826	0.90076
873.63970	0.91224
871.71113	0.92373
869.78257	0.93480
867.85400	0.94517
865.92544	0.95546
863.99687	0.96696
862.06831	0.97924
860.13975	0.99137
858.21118	1.00302
856.28262	1.01428
854.35405	1.02536
852.42549	1.03622
850.49692	1.04804
848.56836	1.06105
846.63979	1.07300
844.71123	1.08411
842.78267	1.09646
840.85410	1.10918
838.92554	1.11826
836.99697	1.12418
835.06841	1.13359
833.13984	1.14821
831.21128	1.16528
829.28271	1.18192
827.35415	1.19309
825.42559	1.20034
823.49702	1.21119
821.56846	1.22380
819.63989	1.23274
817.71133	1.24086
815.78276	1.24989
813.85420	1.25394
811.92563	1.25395
809.99707	1.25929
808.06851	1.27178
806.13994	1.28527
804.21138	1.30180
802.28281	1.32527
800.35425	1.33504
798.42568	1.33068
796.49712	1.34732
794.56855	1.39265
792.63999	1.43371
790.71143	1.43076
788.78286	1.39765
786.85430	1.37016
784.92573	1.38177
782.99717	1.43142
781.06860	1.44046
779.14004	1.39938
777.21147	1.39336
775.28291	1.44358
773.35435	1.52387
771.42578	1.58337
769.49722	1.61753
767.56865	1.64265
765.64009	1.60018
763.71152	1.61187
761.78296	1.81119
759.85439	2.12142
757.92583	4.54755
755.99727	4.53598
754.06870	4.52441
752.14014	1.68830
750.21157	1.43199
748.28301	1.40363
746.35444	1.55205
744.42588	4.46656
742.49731	4.45498
740.56875	2.14063
738.64019	1.25635
736.71162	1.00027
734.78306	1.00905
732.85449	1.43030
730.92593	2.15262
728.99736	1.73242
727.06880	1.24315
725.14023	0.74513
723.21167	0.46018
721.28311	0.31248
719.35454	0.27536
717.42598	0.24483
715.49741	0.16327
713.56885	0.16292
711.64028	0.19950
709.71172	0.17820
707.78315	0.12491
705.85459	0.14391
703.92603	0.16476
701.99746	0.08120
700.06890	0.01531
698.14033	0.04114
696.21177	0.22764
694.28320	0.41071
692.35464	0.43903
690.42607	0.38172
688.49751	0.29966
686.56895	0.33847
684.64038	0.71614
682.71182	0.76008
680.78325	0.43402
678.85469	0.28130
676.92612	0.28136
674.99756	0.38909
673.06899	0.41777
671.14043	0.32821
669.21187	0.24074
667.28330	0.20916
665.35474	0.29631
663.42617	0.75013
661.49761	3.96899
659.56904	0.72868
657.64048	0.53432
655.71191	0.36761
653.78335	0.24319
651.85479	0.22623
649.92622	0.24333
647.99766	0.23997
646.06909	0.26969
644.14053	0.37384
642.21196	0.46773
640.28340	0.45500
638.35483	0.50185
636.42627	0.47844
634.49771	0.30071
632.56914	0.22919
630.64058	0.27823
628.71201	0.29530
626.78345	0.26359
624.85488	0.22831
622.92632	0.18378
620.99775	0.16196
619.06919	0.15707
617.14062	0.21187
615.21206	0.41725
613.28350	0.83592
611.35493	0.82595
609.42637	0.37287
607.49780	0.19313
605.56924	0.14012
603.64067	0.21247
601.71211	0.37418
599.78354	0.41747
597.85498	0.42240
595.92642	0.43028
593.99785	0.44267
592.06929	0.54391
590.14072	0.74722
588.21216	0.53059
586.28359	0.30625
584.35503	0.32196
582.42646	0.42683
580.49790	0.40116
578.56934	0.32921
576.64077	0.35004
574.71221	0.44254
572.78364	0.42234
570.85508	0.27670
568.92651	0.20194
566.99795	0.21473
565.06938	0.24221
563.14082	0.22143
561.21226	0.19965
559.28369	0.20751
557.35513	0.20642
555.42656	0.17588
553.49800	0.20526
551.56943	0.33182
549.64087	0.39045
547.71230	0.33856
545.78374	0.27336
543.85518	0.19093
541.92661	0.17104
539.99805	0.20345
538.06948	0.22939
536.14092	0.29536
534.21235	0.39173
532.28379	0.30249
530.35522	0.19230
528.42666	0.18090
526.49810	0.25253
524.56953	0.30427
522.64097	0.27921
520.71240	0.19565
518.78384	0.13738
516.85527	0.14778
514.92671	0.24487
512.99814	0.46305
511.06958	0.87375
509.14102	0.65650
507.21245	0.35840
505.28389	0.26465
503.35532	0.26537
501.42676	0.25775
499.49819	0.19809
