3997.91411	0.06140
3995.98555	0.06191
3994.05698	0.06235
3992.12842	0.06270
3990.19985	0.06309
3988.27129	0.06334
3986.34272	0.06329
3984.41416	0.06332
3982.48560	0.06371
3980.55703	0.06402
3978.62847	0.06394
3976.69990	0.06375
3974.77134	0.06371
3972.84277	0.06403
3970.91421	0.06451
3968.98564	0.06470
3967.05708	0.06466
3965.12852	0.06458
3963.19995	0.06475
3961.27139	0.06538
3959.34282	0.06604
3957.41426	0.06617
3955.48569	0.06591
3953.55713	0.06557
3951.62856	0.06550
3949.70000	0.06597
3947.77144	0.06656
3945.84287	0.06653
3943.91431	0.06618
3941.98574	0.06614
3940.05718	0.06604
3938.12861	0.06570
3936.20005	0.06552
3934.27148	0.06592
3932.34292	0.06681
3930.41436	0.06724
3928.48579	0.06671
3926.55723	0.06614
3924.62866	0.06622
3922.70010	0.06647
3920.77153	0.06632
3918.84297	0.06610
3916.91440	0.06610
3914.98584	0.06589
3913.05728	0.06527
3911.12871	0.06514
3909.20015	0.06564
3907.27158	0.06618
3905.34302	0.06678
3903.41445	0.06755
3901.48589	0.06805
3899.55732	0.06811
3897.62876	0.06749
3895.70020	0.06644
3893.77163	0.06602
3891.84307	0.06655
3889.91450	0.06704
3887.98594	0.06680
3886.05737	0.06684
3884.12881	0.06739
3882.20024	0.06757
3880.27168	0.06748
3878.34312	0.06716
3876.41455	0.06682
3874.48599	0.06744
3872.55742	0.06877
3870.62886	0.06992
3868.70029	0.07048
3866.77173	0.06997
3864.84316	0.06978
3862.91460	0.07052
3860.98604	0.07035
3859.05747	0.06939
3857.12891	0.06949
3855.20034	0.07122
3853.27178	0.07418
3851.34321	0.07556
3849.41465	0.07367
3847.48608	0.07202
3845.55752	0.07187
3843.62896	0.07286
3841.70039	0.07436
3839.77183	0.07600
3837.84326	0.07777
3835.91470	0.07908
3833.98613	0.07944
3832.05757	0.07944
3830.12900	0.07940
3828.20044	0.07936
3826.27187	0.07968
3824.34331	0.08045
3822.41475	0.08193
3820.48618	0.08435
3818.55762	0.08533
3816.62905	0.08515
3814.70049	0.08575
3812.77192	0.08592
3810.84336	0.08577
3808.91479	0.08652
3806.98623	0.08812
3805.05767	0.08946
3803.12910	0.09055
3801.20054	0.09296
3799.27197	0.09547
3797.34341	0.09612
3795.41484	0.09656
3793.48628	0.09691
3791.55771	0.09705
3789.62915	0.09764
3787.70059	0.09874
3785.77202	0.10043
3783.84346	0.10264
3781.91489	0.10458
3779.98633	0.10634
3778.05776	0.10835
3776.12920	0.10972
3774.20063	0.11061
3772.27207	0.11197
3770.34351	0.11426
3768.41494	0.11713
3766.48638	0.11940
3764.55781	0.12137
3762.62925	0.12328
3760.70068	0.12528
3758.77212	0.12792
3756.84355	0.13053
3754.91499	0.13257
3752.98643	0.13509
3751.05786	0.13932
3749.12930	0.14415
3747.20073	0.14615
3745.27217	0.14745
3743.34360	0.15083
3741.41504	0.15432
3739.48647	0.15680
3737.55791	0.16003
3735.62935	0.16517
3733.70078	0.17188
3731.77222	0.17719
3729.84365	0.18065
3727.91509	0.18430
3725.98652	0.18963
3724.05796	0.19646
3722.12939	0.20379
3720.20083	0.21138
3718.27227	0.21881
3716.34370	0.22600
3714.41514	0.23335
3712.48657	0.24292
3710.55801	0.25727
3708.62944	0.27195
3706.70088	0.28286
3704.77231	0.29360
3702.84375	0.30696
3700.91519	0.32444
3698.98662	0.34310
3697.05806	0.36033
3695.12949	0.37886
3693.20093	0.39897
3691.27236	0.42112
3689.34380	0.45059
3687.41523	0.48692
3685.48667	0.51774
3683.55811	0.54387
3681.62954	0.57195
3679.70098	0.60376
3677.77241	0.63726
3675.84385	0.67707
3673.91528	0.73155
3671.98672	0.77516
3670.05815	0.81375
3668.12959	0.86875
3666.20103	0.91833
3664.27246	0.95853
3662.34390	1.00170
3660.41533	1.04891
3658.48677	1.09565
3656.55820	1.14551
3654.62964	1.20128
3652.70107	1.24741
3650.77251	1.28728
3648.84395	1.34480
3646.91538	1.41675
3644.98682	1.46671
3643.05825	1.50443
3641.12969	1.54403
3639.20112	1.58791
3637.27256	1.63229
3635.34399	1.67592
3633.41543	1.71904
3631.48687	1.75874
3629.55830	1.79902
3627.62974	1.85297
3625.70117	1.90378
3623.77261	1.93830
3621.84404	1.97151
3619.91548	2.00908
3617.98691	2.05525
3616.05835	2.10015
3614.12979	2.13693
3612.20122	2.17595
3610.27266	2.21562
3608.34409	2.25565
3606.41553	2.29864
3604.48696	2.33811
3602.55840	2.37275
3600.62983	2.41077
3598.70127	2.45201
3596.77271	2.49106
3594.84414	2.53125
3592.91558	2.57381
3590.98701	2.61329
3589.05845	2.64923
3587.12988	2.69262
3585.20132	2.74115
3583.27275	2.78158
3581.34419	2.81872
3579.41562	2.85821
3577.48706	2.89960
3575.55850	2.94247
3573.62993	2.98769
3571.70137	3.03083
3569.77280	3.06926
3567.84424	3.10876
3565.91567	3.16000
3563.98711	3.21202
3562.05854	3.25419
3560.12998	3.29544
3558.20142	3.33816
3556.27285	3.38030
3554.34429	3.42104
3552.41572	3.46526
3550.48716	3.51343
3548.55859	3.56014
3546.63003	3.60684
3544.70146	3.65917
3542.77290	3.71214
3540.84434	3.75817
3538.91577	3.79941
3536.98721	3.84048
3535.05864	3.88766
3533.13008	3.93909
3531.20151	3.98882
3529.27295	4.03820
3527.34438	4.09032
3525.41582	4.13812
3523.48726	4.17810
3521.55869	4.22177
3519.63013	4.27092
3517.70156	4.31788
3515.77300	4.36236
3513.84443	4.41010
3511.91587	4.46302
3509.98730	4.51747
3508.05874	4.56652
3506.13018	4.60898
3504.20161	4.65095
3502.27305	4.69614
3500.34448	4.74578
3498.41592	4.79674
3496.48735	4.84572
3494.55879	4.89401
3492.63022	4.94488
3490.70166	4.99592
3488.77310	5.04064
3486.84453	5.08330
3484.91597	5.13414
3482.98740	5.18921
3481.05884	5.23928
3479.13027	5.28189
3477.20171	5.32249
3475.27314	5.36955
3473.34458	5.42097
3471.41602	5.46853
3469.48745	5.51813
3467.55889	5.57634
3465.63032	5.63008
3463.70176	5.67389
3461.77319	5.71813
3459.84463	5.76750
3457.91606	5.82106
3455.98750	5.87322
3454.05894	5.91331
3452.13037	5.95690
3450.20181	6.02080
3448.27324	6.08477
3446.34468	6.13459
3444.41611	6.16989
3442.48755	6.19623
3440.55898	6.23197
3438.63042	6.29296
3436.70186	6.35223
3434.77329	6.39333
3432.84473	6.45358
3430.91616	6.53256
3428.98760	6.59356
3427.05903	6.63246
3425.13047	6.67880
3423.20190	6.73362
3421.27334	6.77296
3419.34478	6.79101
3417.41621	6.81737
3415.48765	6.87253
3413.55908	6.93080
3411.63052	6.96318
3409.70195	6.99184
3407.77339	7.05433
3405.84482	7.09715
3403.91626	7.09996
3401.98770	7.09944
3400.05913	7.11984
3398.13057	7.18357
3396.20200	7.27062
3394.27344	7.36873
3392.34487	7.44837
3390.41631	7.48866
3388.48774	7.51477
3386.55918	7.55810
3384.63062	7.59881
3382.70205	7.59318
3380.77349	7.57151
3378.84492	7.59289
3376.91636	7.64542
3374.98779	7.67193
3373.05923	7.69380
3371.13066	7.72415
3369.20210	7.74066
3367.27354	7.70041
3365.34497	7.63690
3363.41641	7.66854
3361.48784	7.77842
3359.55928	7.80106
3357.63071	7.72395
3355.70215	7.71993
3353.77358	7.80067
3351.84502	7.87931
3349.91646	7.89339
3347.98789	7.85986
3346.05933	7.85316
3344.13076	7.88759
3342.20220	7.92863
3340.27363	7.93344
3338.34507	7.92408
3336.41650	7.90595
3334.48794	7.91978
3332.55937	8.01311
3330.63081	8.12895
3328.70225	8.17290
3326.77368	8.14482
3324.84512	8.11969
3322.91655	8.11446
3320.98799	8.12971
3319.05942	8.10303
3317.13086	8.01088
3315.20229	7.98223
3313.27373	8.05577
3311.34517	8.06458
3309.41660	7.99395
3307.48804	7.97499
3305.55947	7.99847
3303.63091	8.03019
3301.70234	8.04390
3299.77378	8.10499
3297.84521	8.26561
3295.91665	8.35591
3293.98809	8.22382
3292.05952	8.02117
3290.13096	7.90429
3288.20239	7.92227
3286.27383	8.03421
3284.34526	8.07277
3282.41670	8.03496
3280.48813	8.04438
3278.55957	8.04484
3276.63101	7.98664
3274.70244	7.98287
3272.77388	8.03660
3270.84531	8.06603
3268.91675	8.07112
3266.98818	8.09534
3265.05962	8.20464
3263.13105	8.26562
3261.20249	8.18539
3259.27393	8.17366
3257.34536	8.24218
3255.41680	8.20030
3253.48823	8.10148
3251.55967	8.09852
3249.63110	8.16270
3247.70254	8.21859
3245.77397	8.26666
3243.84541	8.26236
3241.91685	8.14739
3239.98828	8.04253
3238.05972	8.00083
3236.13115	7.99274
3234.20259	8.07434
3232.27402	8.19663
3230.34546	8.16584
3228.41689	8.01098
3226.48833	7.91229
3224.55977	7.92010
3222.63120	8.02285
3220.70264	8.13755
3218.77407	8.12377
3216.84551	7.96834
3214.91694	7.80377
3212.98838	7.72146
3211.05981	7.66900
3209.13125	7.62869
3207.20269	7.67934
3205.27412	7.78400
3203.34556	7.81353
3201.41699	7.75876
3199.48843	7.68238
3197.55986	7.62047
3195.63130	7.60737
3193.70273	7.64503
3191.77417	7.65562
3189.84561	7.58449
3187.91704	7.48759
3185.98848	7.41339
3184.05991	7.36135
3182.13135	7.33771
3180.20278	7.34013
3178.27422	7.32700
3176.34565	7.26971
3174.41709	7.19104
3172.48853	7.09984
3170.55996	6.99829
3168.63140	6.94381
3166.70283	6.93329
3164.77427	6.89979
3162.84570	6.84909
3160.91714	6.78078
3158.98857	6.68256
3157.06001	6.58616
3155.13145	6.50568
3153.20288	6.44182
3151.27432	6.38616
3149.34575	6.31226
3147.41719	6.22425
3145.48862	6.14809
3143.56006	6.09003
3141.63149	6.04067
3139.70293	5.98508
3137.77437	5.92320
3135.84580	5.85636
3133.91724	5.77428
3131.98867	5.68746
3130.06011	5.62247
3128.13154	5.57358
3126.20298	5.51138
3124.27441	5.43143
3122.34585	5.34681
3120.41729	5.26816
3118.48872	5.19541
3116.56016	5.12312
3114.63159	5.05574
3112.70303	4.99487
3110.77446	4.93052
3108.84590	4.85748
3106.91733	4.78162
3104.98877	4.71104
3103.06021	4.64837
3101.13164	4.58597
3099.20308	4.51968
3097.27451	4.45335
3095.34595	4.38488
3093.41738	4.31258
3091.48882	4.24371
3089.56025	4.18161
3087.63169	4.12100
3085.70312	4.05890
3083.77456	3.99575
3081.84600	3.93316
3079.91743	3.87225
3077.98887	3.81146
3076.06030	3.74917
3074.13174	3.68679
3072.20317	3.62623
3070.27461	3.56611
3068.34604	3.50664
3066.41748	3.44985
3064.48892	3.39495
3062.56035	3.33932
3060.63179	3.28416
3058.70322	3.23226
3056.77466	3.18029
3054.84609	3.12599
3052.91753	3.07224
3050.98896	3.02027
3049.06040	2.96948
3047.13184	2.91970
3045.20327	2.87044
3043.27471	2.82148
3041.34614	2.77339
3039.41758	2.72613
3037.48901	2.67969
3035.56045	2.63385
3033.63188	2.58791
3031.70332	2.54214
3029.77476	2.49742
3027.84619	2.45385
3025.91763	2.41071
3023.98906	2.36858
3022.06050	2.32811
3020.13193	2.28825
3018.20337	2.24829
3016.27480	2.20797
3014.34624	2.16773
3012.41768	2.12871
3010.48911	2.09090
3008.56055	2.05365
3006.63198	2.01704
3004.70342	1.98142
3002.77485	1.94656
3000.84629	1.91178
2998.91772	1.87717
2996.98916	1.84375
2995.06060	1.81123
2993.13203	1.77868
2991.20347	1.74623
2989.27490	1.71416
2987.34634	1.68259
2985.41777	1.65126
2983.48921	1.62002
2981.56064	1.58924
2979.63208	1.55919
2977.70352	1.53004
2975.77495	1.50155
2973.84639	1.47322
2971.91782	1.44469
2969.98926	1.41552
2968.06069	1.38610
2966.13213	1.35742
2964.20356	1.32976
2962.27500	1.30295
2960.34644	1.27681
2958.41787	1.25135
2956.48931	1.22687
2954.56074	1.20350
2952.63218	1.18086
2950.70361	1.15876
2948.77505	1.13720
2946.84648	1.11540
2944.91792	1.09278
2942.98936	1.07009
2941.06079	1.04784
2939.13223	1.02543
2937.20366	1.00245
2935.27510	0.97906
2933.34653	0.95593
2931.41797	0.93376
2929.48940	0.91219
2927.56084	0.89101
2925.63228	0.87118
2923.70371	0.85332
2921.77515	0.83728
2919.84658	0.82278
2917.91802	0.80958
2915.98945	0.79741
2914.06089	0.78591
2912.13232	0.77474
2910.20376	0.76384
2908.27520	0.75309
2906.34663	0.74212
2904.41807	0.73088
2902.48950	0.71964
2900.56094	0.70848
2898.63237	0.69736
2896.70381	0.68644
2894.77524	0.67567
2892.84668	0.66488
2890.91812	0.65412
2888.98955	0.64331
2887.06099	0.63244
2885.13242	0.62194
2883.20386	0.61160
2881.27529	0.60085
2879.34673	0.58991
2877.41816	0.57903
2875.48960	0.56819
2873.56104	0.55757
2871.63247	0.54740
2869.70391	0.53745
2867.77534	0.52715
2865.84678	0.51662
2863.91821	0.50629
2861.98965	0.49593
2860.06108	0.48496
2858.13252	0.47346
2856.20396	0.46207
2854.27539	0.45168
2852.34683	0.44268
2850.41826	0.43509
2848.48970	0.42935
2846.56113	0.42567
2844.63257	0.42305
2842.70400	0.42019
2840.77544	0.41672
2838.84687	0.41280
2836.91831	0.40857
2834.98975	0.40413
2833.06118	0.39960
2831.13262	0.39474
2829.20405	0.38932
2827.27549	0.38372
2825.34692	0.37830
2823.41836	0.37293
2821.48979	0.36747
2819.56123	0.36209
2817.63267	0.35681
2815.70410	0.35148
2813.77554	0.34615
2811.84697	0.34102
2809.91841	0.33623
2807.98984	0.33155
2806.06128	0.32661
2804.13271	0.32153
2802.20415	0.31671
2800.27559	0.31227
2798.34702	0.30796
2796.41846	0.30358
2794.48989	0.29923
2792.56133	0.29506
2790.63276	0.29097
2788.70420	0.28676
2786.77563	0.28258
2784.84707	0.27870
2782.91851	0.27494
2780.98994	0.27115
2779.06138	0.26751
2777.13281	0.26398
2775.20425	0.26041
2773.27568	0.25681
2771.34712	0.25330
2769.41855	0.25003
2767.48999	0.24695
2765.56143	0.24372
2763.63286	0.24042
2761.70430	0.23745
2759.77573	0.23468
2757.84717	0.23181
2755.91860	0.22887
2753.99004	0.22602
2752.06147	0.22321
2750.13291	0.22037
2748.20435	0.21762
2746.27578	0.21504
2744.34722	0.21254
2742.41865	0.21017
2740.49009	0.20796
2738.56152	0.20573
2736.63296	0.20341
2734.70439	0.20106
2732.77583	0.19877
2730.84727	0.19662
2728.91870	0.19458
2726.99014	0.19260
2725.06157	0.19059
2723.13301	0.18855
2721.20444	0.18658
2719.27588	0.18475
2717.34731	0.18300
2715.41875	0.18129
2713.49019	0.17961
2711.56162	0.17791
2709.63306	0.17625
2707.70449	0.17472
2705.77593	0.17318
2703.84736	0.17162
2701.91880	0.17014
2699.99023	0.16875
2698.06167	0.16746
2696.13311	0.16618
2694.20454	0.16489
2692.27598	0.16358
2690.34741	0.16221
2688.41885	0.16094
2686.49028	0.15987
2684.56172	0.15891
2682.63315	0.15788
2680.70459	0.15677
2678.77603	0.15568
2676.84746	0.15464
2674.91890	0.15358
2672.99033	0.15245
2671.06177	0.15142
2669.13320	0.15062
2667.20464	0.14984
2665.27607	0.14900
2663.34751	0.14825
2661.41895	0.14763
2659.49038	0.14699
2657.56182	0.14631
2655.63325	0.14555
2653.70469	0.14481
2651.77612	0.14426
2649.84756	0.14384
2647.91899	0.14337
2645.99043	0.14285
2644.06187	0.14243
2642.13330	0.14207
2640.20474	0.14159
2638.27617	0.14114
2636.34761	0.14090
2634.41904	0.14073
2632.49048	0.14046
2630.56191	0.14006
2628.63335	0.13956
2626.70479	0.13914
2624.77622	0.13897
2622.84766	0.13890
2620.91909	0.13882
2618.99053	0.13884
2617.06196	0.13886
2615.13340	0.13874
2613.20483	0.13862
2611.27627	0.13861
2609.34771	0.13864
2607.41914	0.13861
2605.49058	0.13849
2603.56201	0.13843
2601.63345	0.13850
2599.70488	0.13860
2597.77632	0.13880
2595.84775	0.13910
2593.91919	0.13928
2591.99062	0.13938
2590.06206	0.13962
2588.13350	0.14002
2586.20493	0.14042
2584.27637	0.14072
2582.34780	0.14098
2580.41924	0.14126
2578.49067	0.14160
2576.56211	0.14201
2574.63354	0.14248
2572.70498	0.14291
2570.77642	0.14319
2568.84785	0.14346
2566.91929	0.14397
2564.99072	0.14460
2563.06216	0.14523
2561.13359	0.14580
2559.20503	0.14628
2557.27646	0.14676
2555.34790	0.14741
2553.41934	0.14816
2551.49077	0.14872
2549.56221	0.14919
2547.63364	0.14978
2545.70508	0.15047
2543.77651	0.15117
2541.84795	0.15191
2539.91938	0.15269
2537.99082	0.15348
2536.06226	0.15418
2534.13369	0.15483
2532.20513	0.15548
2530.27656	0.15619
2528.34800	0.15699
2526.41943	0.15780
2524.49087	0.15860
2522.56230	0.15943
2520.63374	0.16033
2518.70518	0.16122
2516.77661	0.16207
2514.84805	0.16286
2512.91948	0.16361
2510.99092	0.16440
2509.06235	0.16522
2507.13379	0.16599
2505.20522	0.16682
2503.27666	0.16785
2501.34810	0.16895
2499.41953	0.16991
2497.49097	0.17081
2495.56240	0.17166
2493.63384	0.17246
2491.70527	0.17336
2489.77671	0.17443
2487.84814	0.17551
2485.91958	0.17653
2483.99102	0.17754
2482.06245	0.17858
2480.13389	0.17962
2478.20532	0.18053
2476.27676	0.18136
2474.34819	0.18223
2472.41963	0.18311
2470.49106	0.18403
2468.56250	0.18506
2466.63394	0.18611
2464.70537	0.18712
2462.77681	0.18813
2460.84824	0.18912
2458.91968	0.19006
2456.99111	0.19110
2455.06255	0.19228
2453.13398	0.19345
2451.20542	0.19448
2449.27686	0.19541
2447.34829	0.19636
2445.41973	0.19741
2443.49116	0.19851
2441.56260	0.19954
2439.63403	0.20061
2437.70547	0.20185
2435.77690	0.20310
2433.84834	0.20421
2431.91978	0.20529
2429.99121	0.20634
2428.06265	0.20733
2426.13408	0.20836
2424.20552	0.20952
2422.27695	0.21068
2420.34839	0.21180
2418.41982	0.21299
2416.49126	0.21421
2414.56270	0.21539
2412.63413	0.21652
2410.70557	0.21763
2408.77700	0.21886
2406.84844	0.22020
2404.91987	0.22152
2402.99131	0.22283
2401.06274	0.22422
2399.13418	0.22552
2397.20562	0.22670
2395.27705	0.22786
2393.34849	0.22908
2391.41992	0.23039
2389.49136	0.23173
2387.56279	0.23294
2385.63423	0.23423
2383.70566	0.23586
2381.77710	0.23767
2379.84854	0.23949
2377.91997	0.24132
2375.99141	0.24307
2374.06284	0.24493
2372.13428	0.24710
2370.20571	0.24932
2368.27715	0.25130
2366.34858	0.25357
2364.42002	0.25642
2362.49146	0.25936
2360.56289	0.26110
2358.63433	0.26203
2356.70576	0.26380
2354.77720	0.26471
2352.84863	0.26487
2350.92007	0.26560
2348.99150	0.26611
2347.06294	0.26645
2345.13437	0.26761
2343.20581	0.27009
2341.27725	0.27301
2339.34868	0.27514
2337.42012	0.27671
2335.49155	0.27834
2333.56299	0.27995
2331.63442	0.28178
2329.70586	0.28375
2327.77729	0.28526
2325.84873	0.28614
2323.92017	0.28711
2321.99160	0.28879
2320.06304	0.29060
2318.13447	0.29212
2316.20591	0.29358
2314.27734	0.29519
2312.34878	0.29695
2310.42021	0.29869
2308.49165	0.30026
2306.56309	0.30172
2304.63452	0.30325
2302.70596	0.30486
2300.77739	0.30655
2298.84883	0.30836
2296.92026	0.31022
2294.99170	0.31203
2293.06313	0.31389
2291.13457	0.31579
2289.20601	0.31769
2287.27744	0.31960
2285.34888	0.32153
2283.42031	0.32352
2281.49175	0.32556
2279.56318	0.32752
2277.63462	0.32943
2275.70605	0.33142
2273.77749	0.33355
2271.84893	0.33580
2269.92036	0.33806
2267.99180	0.34020
2266.06323	0.34220
2264.13467	0.34428
2262.20610	0.34653
2260.27754	0.34880
2258.34897	0.35099
2256.42041	0.35312
2254.49185	0.35525
2252.56328	0.35747
2250.63472	0.35967
2248.70615	0.36182
2246.77759	0.36392
2244.84902	0.36602
2242.92046	0.36827
2240.99189	0.37067
2239.06333	0.37305
2237.13477	0.37533
2235.20620	0.37758
2233.27764	0.37988
2231.34907	0.38217
2229.42051	0.38438
2227.49194	0.38660
2225.56338	0.38887
2223.63481	0.39116
2221.70625	0.39343
2219.77769	0.39567
2217.84912	0.39788
2215.92056	0.40002
2213.99199	0.40215
2212.06343	0.40434
2210.13486	0.40652
2208.20630	0.40865
2206.27773	0.41082
2204.34917	0.41302
2202.42061	0.41510
2200.49204	0.41707
2198.56348	0.41910
2196.63491	0.42119
2194.70635	0.42317
2192.77778	0.42505
2190.84922	0.42697
2188.92065	0.42900
2186.99209	0.43095
2185.06353	0.43273
2183.13496	0.43452
2181.20640	0.43636
2179.27783	0.43810
2177.34927	0.43970
2175.42070	0.44121
2173.49214	0.44267
2171.56357	0.44407
2169.63501	0.44553
2167.70645	0.44699
2165.77788	0.44838
2163.84932	0.44981
2161.92075	0.45115
2159.99219	0.45224
2158.06362	0.45322
2156.13506	0.45418
2154.20649	0.45503
2152.27793	0.45581
2150.34937	0.45661
2148.42080	0.45737
2146.49224	0.45797
2144.56367	0.45841
2142.63511	0.45882
2140.70654	0.45922
2138.77798	0.45955
2136.84941	0.45980
2134.92085	0.45999
2132.99229	0.46001
2131.06372	0.45985
2129.13516	0.45975
2127.20659	0.45971
2125.27803	0.45949
2123.34946	0.45910
2121.42090	0.45870
2119.49233	0.45816
2117.56377	0.45747
2115.63521	0.45670
2113.70664	0.45586
2111.77808	0.45495
2109.84951	0.45399
2107.92095	0.45310
2105.99238	0.45222
2104.06382	0.45114
2102.13525	0.44982
2100.20669	0.44845
2098.27812	0.44705
2096.34956	0.44552
2094.42100	0.44396
2092.49243	0.44247
2090.56387	0.44095
2088.63530	0.43929
2086.70674	0.43750
2084.77817	0.43561
2082.84961	0.43368
2080.92104	0.43172
2078.99248	0.42976
2077.06392	0.42772
2075.13535	0.42555
2073.20679	0.42334
2071.27822	0.42111
2069.34966	0.41886
2067.42109	0.41664
2065.49253	0.41440
2063.56396	0.41199
2061.63540	0.40949
2059.70684	0.40694
2057.77827	0.40437
2055.84971	0.40178
2053.92114	0.39925
2051.99258	0.39675
2050.06401	0.39411
2048.13545	0.39136
2046.20688	0.38868
2044.27832	0.38604
2042.34976	0.38328
2040.42119	0.38044
2038.49263	0.37771
2036.56406	0.37513
2034.63550	0.37253
2032.70693	0.36969
2030.77837	0.36673
2028.84980	0.36394
2026.92124	0.36127
2024.99268	0.35845
2023.06411	0.35550
2021.13555	0.35260
2019.20698	0.34984
2017.27842	0.34717
2015.34985	0.34442
2013.42129	0.34163
2011.49272	0.33889
2009.56416	0.33619
2007.63560	0.33343
2005.70703	0.33066
2003.77847	0.32794
2001.84990	0.32523
1999.92134	0.32248
1997.99277	0.31978
1996.06421	0.31722
1994.13564	0.31474
1992.20708	0.31224
1990.27852	0.30964
1988.34995	0.30706
1986.42139	0.30450
1984.49282	0.30200
1982.56426	0.29963
1980.63569	0.29727
1978.70713	0.29487
1976.77856	0.29253
1974.85000	0.29025
1972.92144	0.28795
1970.99287	0.28570
1969.06431	0.28368
1967.13574	0.28185
1965.20718	0.27985
1963.27861	0.27769
1961.35005	0.27560
1959.42148	0.27362
1957.49292	0.27175
1955.56436	0.26990
1953.63579	0.26804
1951.70723	0.26621
1949.77866	0.26458
1947.85010	0.26308
1945.92153	0.26153
1943.99297	0.26003
1942.06440	0.25862
1940.13584	0.25709
1938.20728	0.25549
1936.27871	0.25400
1934.35015	0.25261
1932.42158	0.25129
1930.49302	0.25004
1928.56445	0.24896
1926.63589	0.24796
1924.70732	0.24701
1922.77876	0.24605
1920.85020	0.24500
1918.92163	0.24405
1916.99307	0.24312
1915.06450	0.24196
1913.13594	0.24088
1911.20737	0.24022
1909.27881	0.23972
1907.35024	0.23901
1905.42168	0.23817
1903.49312	0.23745
1901.56455	0.23688
1899.63599	0.23638
1897.70742	0.23599
1895.77886	0.23572
1893.85029	0.23538
1891.92173	0.23495
1889.99316	0.23470
1888.06460	0.23446
1886.13604	0.23409
1884.20747	0.23376
1882.27891	0.23349
1880.35034	0.23330
1878.42178	0.23323
1876.49321	0.23325
1874.56465	0.23322
1872.63608	0.23326
1870.70752	0.23360
1868.77896	0.23427
1866.85039	0.23455
1864.92183	0.23424
1862.99326	0.23410
1861.06470	0.23433
1859.13613	0.23474
1857.20757	0.23506
1855.27900	0.23540
1853.35044	0.23582
1851.42187	0.23634
1849.49331	0.23699
1847.56475	0.23776
1845.63618	0.23869
1843.70762	0.23977
1841.77905	0.24051
1839.85049	0.24089
1837.92192	0.24157
1835.99336	0.24241
1834.06479	0.24327
1832.13623	0.24437
1830.20767	0.24606
1828.27910	0.24774
1826.35054	0.24866
1824.42197	0.24966
1822.49341	0.25080
1820.56484	0.25195
1818.63628	0.25329
1816.70771	0.25496
1814.77915	0.25670
1812.85059	0.25849
1810.92202	0.26055
1808.99346	0.26271
1807.06489	0.26470
1805.13633	0.26652
1803.20776	0.26864
1801.27920	0.27126
1799.35063	0.27422
1797.42207	0.27682
1795.49351	0.27932
1793.56494	0.28226
1791.63638	0.28597
1789.70781	0.28928
1787.77925	0.29162
1785.85068	0.29462
1783.92212	0.29840
1781.99355	0.30242
1780.06499	0.30663
1778.13643	0.31092
1776.20786	0.31498
1774.27930	0.31948
1772.35073	0.32567
1770.42217	0.33217
1768.49360	0.33721
1766.56504	0.34213
1764.63647	0.34734
1762.70791	0.35318
1760.77935	0.36061
1758.85078	0.36741
1756.92222	0.37408
1754.99365	0.38126
1753.06509	0.38756
1751.13652	0.39524
1749.20796	0.40558
1747.27939	0.41583
1745.35083	0.42462
1743.42227	0.43401
1741.49370	0.44457
1739.56514	0.45727
1737.63657	0.47014
1735.70801	0.48147
1733.77944	0.49885
1731.85088	0.51967
1729.92231	0.53556
1727.99375	0.55149
1726.06519	0.56841
1724.13662	0.58706
1722.20806	0.60732
1720.27949	0.62566
1718.35093	0.64711
1716.42236	0.68024
1714.49380	0.71164
1712.56523	0.73591
1710.63667	0.75927
1708.70811	0.78455
1706.77954	0.81350
1704.85098	0.84839
1702.92241	0.87904
1700.99385	0.90800
1699.06528	0.95170
1697.13672	0.99241
1695.20815	1.03368
1693.27959	1.07251
1691.35103	1.10264
1689.42246	1.13761
1687.49390	1.17463
1685.56533	1.20975
1683.63677	1.26537
1681.70820	1.32378
1679.77964	1.35932
1677.85107	1.39264
1675.92251	1.43063
1673.99395	1.47843
1672.06538	1.52113
1670.13682	1.56270
1668.20825	1.61715
1666.27969	1.65899
1664.35112	1.69320
1662.42256	1.73679
1660.49399	1.78628
1658.56543	1.82306
1656.63687	1.85261
1654.70830	1.88082
1652.77974	1.93248
1650.85117	1.98864
1648.92261	2.01037
1646.99404	2.03830
1645.06548	2.07321
1643.13691	2.09832
1641.20835	2.11367
1639.27979	2.12763
1637.35122	2.13776
1635.42266	2.14250
1633.49409	2.14155
1631.56553	2.13283
1629.63696	2.11969
1627.70840	2.09654
1625.77983	2.07089
1623.85127	2.03870
1621.92271	1.99686
1619.99414	1.95790
1618.06558	1.91950
1616.13701	1.86267
1614.20845	1.80340
1612.27988	1.75910
1610.35132	1.71235
1608.42275	1.66024
1606.49419	1.60838
1604.56562	1.56078
1602.63706	1.51438
1600.70850	1.46867
1598.77993	1.42653
1596.85137	1.38656
1594.92280	1.34713
1592.99424	1.30876
1591.06567	1.27374
1589.13711	1.24040
1587.20854	1.20835
1585.27998	1.17815
1583.35142	1.14964
1581.42285	1.12337
1579.49429	1.10077
1577.56572	1.07962
1575.63716	1.05203
1573.70859	1.02778
1571.78003	1.01238
1569.85146	0.99510
1567.92290	0.97429
1565.99434	0.95760
1564.06577	0.94322
1562.13721	0.93088
1560.20864	0.92022
1558.28008	0.90133
1556.35151	0.88410
1554.42295	0.87350
1552.49438	0.86270
1550.56582	0.85204
1548.63726	0.84131
1546.70869	0.83219
1544.78013	0.82405
1542.85156	0.81514
1540.92300	0.80461
1538.99443	0.79187
1537.06587	0.78341
1535.13730	0.77769
1533.20874	0.77068
1531.28018	0.76315
1529.35161	0.75739
1527.42305	0.75189
1525.49448	0.74603
1523.56592	0.74065
1521.63735	0.73505
1519.70879	0.72880
1517.78022	0.72379
1515.85166	0.71864
1513.92310	0.71323
1511.99453	0.70867
1510.06597	0.70491
1508.13740	0.70210
1506.20884	0.69781
1504.28027	0.69252
1502.35171	0.68887
1500.42314	0.68592
1498.49458	0.68299
1496.56602	0.67949
1494.63745	0.67595
1492.70889	0.67320
1490.78032	0.67102
1488.85176	0.66848
1486.92319	0.66522
1484.99463	0.66193
1483.06606	0.65909
1481.13750	0.65644
1479.20894	0.65375
1477.28037	0.65122
1475.35181	0.64870
1473.42324	0.64563
1471.49468	0.64091
1469.56611	0.63629
1467.63755	0.63308
1465.70898	0.63056
1463.78042	0.62804
1461.85186	0.62585
1459.92329	0.62440
1457.99473	0.62311
1456.06616	0.62066
1454.13760	0.61787
1452.20903	0.61590
1450.28047	0.61430
1448.35190	0.61285
1446.42334	0.61124
1444.49478	0.60951
1442.56621	0.60802
1440.63765	0.60681
1438.70908	0.60581
1436.78052	0.60488
1434.85195	0.60382
1432.92339	0.60262
1430.99482	0.60154
1429.06626	0.60039
1427.13770	0.59901
1425.20913	0.59762
1423.28057	0.59620
1421.35200	0.59482
1419.42344	0.59359
1417.49487	0.59212
1415.56631	0.59038
1413.63774	0.58876
1411.70918	0.58731
1409.78062	0.58600
1407.85205	0.58469
1405.92349	0.58326
1403.99492	0.58172
1402.06636	0.58027
1400.13779	0.57915
1398.20923	0.57813
1396.28066	0.57693
1394.35210	0.57544
1392.42354	0.57375
1390.49497	0.57223
1388.56641	0.57106
1386.63784	0.56994
1384.70928	0.56854
1382.78071	0.56702
1380.85215	0.56568
1378.92358	0.56464
1376.99502	0.56389
1375.06646	0.56337
1373.13789	0.56271
1371.20933	0.56169
1369.28076	0.56076
1367.35220	0.55997
1365.42363	0.55915
1363.49507	0.55838
1361.56650	0.55751
1359.63794	0.55646
1357.70937	0.55553
1355.78081	0.55476
1353.85225	0.55392
1351.92368	0.55295
1349.99512	0.55204
1348.06655	0.55128
1346.13799	0.55048
1344.20942	0.54966
1342.28086	0.54888
1340.35229	0.54819
1338.42373	0.54743
1336.49517	0.54649
1334.56660	0.54556
1332.63804	0.54473
1330.70947	0.54388
1328.78091	0.54310
1326.85234	0.54228
1324.92378	0.54128
1322.99521	0.54038
1321.06665	0.53976
1319.13809	0.53926
1317.20952	0.53860
1315.28096	0.53777
1313.35239	0.53690
1311.42383	0.53599
1309.49526	0.53507
1307.56670	0.53421
1305.63813	0.53349
1303.70957	0.53280
1301.78101	0.53192
1299.85244	0.53090
1297.92388	0.53008
1295.99531	0.52938
1294.06675	0.52855
1292.13818	0.52777
1290.20962	0.52709
1288.28105	0.52648
1286.35249	0.52601
1284.42393	0.52559
1282.49536	0.52512
1280.56680	0.52473
1278.63823	0.52431
1276.70967	0.52374
1274.78110	0.52313
1272.85254	0.52257
1270.92397	0.52195
1268.99541	0.52139
1267.06685	0.52111
1265.13828	0.52097
1263.20972	0.52081
1261.28115	0.52054
1259.35259	0.52013
1257.42402	0.51973
1255.49546	0.51956
1253.56689	0.51956
1251.63833	0.51943
1249.70977	0.51921
1247.78120	0.51912
1245.85264	0.51900
1243.92407	0.51874
1241.99551	0.51844
1240.06694	0.51803
1238.13838	0.51761
1236.20981	0.51723
1234.28125	0.51675
1232.35269	0.51617
1230.42412	0.51559
1228.49556	0.51507
1226.56699	0.51454
1224.63843	0.51399
1222.70986	0.51347
1220.78130	0.51302
1218.85273	0.51249
1216.92417	0.51183
1214.99561	0.51117
1213.06704	0.51065
1211.13848	0.51011
1209.20991	0.50940
1207.28135	0.50864
1205.35278	0.50802
1203.42422	0.50760
1201.49565	0.50716
1199.56709	0.50662
1197.63853	0.50613
1195.70996	0.50564
1193.78140	0.50513
1191.85283	0.50473
1189.92427	0.50430
1187.99570	0.50382
1186.06714	0.50341
1184.13857	0.50316
1182.21001	0.50307
1180.28145	0.50318
1178.35288	0.50348
1176.42432	0.50387
1174.49575	0.50417
1172.56719	0.50431
1170.63862	0.50448
1168.71006	0.50480
1166.78149	0.50515
1164.85293	0.50545
1162.92437	0.50572
1160.99580	0.50585
1159.06724	0.50571
1157.13867	0.50525
1155.21011	0.50440
1153.28154	0.50318
1151.35298	0.50167
1149.42441	0.49995
1147.49585	0.49801
1145.56729	0.49589
1143.63872	0.49363
1141.71016	0.49133
1139.78159	0.48916
1137.85303	0.48703
1135.92446	0.48483
1133.99590	0.48279
1132.06733	0.48103
1130.13877	0.47939
1128.21021	0.47772
1126.28164	0.47612
1124.35308	0.47486
1122.42451	0.47397
1120.49595	0.47331
1118.56738	0.47301
1116.63882	0.47297
1114.71025	0.47299
1112.78169	0.47311
1110.85312	0.47339
1108.92456	0.47397
1106.99600	0.47482
1105.06743	0.47600
1103.13887	0.47766
1101.21030	0.47973
1099.28174	0.48209
1097.35317	0.48462
1095.42461	0.48725
1093.49604	0.49042
1091.56748	0.49448
1089.63892	0.49935
1087.71035	0.50502
1085.78179	0.51129
1083.85322	0.51773
1081.92466	0.52410
1079.99609	0.52978
1078.06753	0.53365
1076.13896	0.53491
1074.21040	0.53342
1072.28184	0.52963
1070.35327	0.52433
1068.42471	0.51818
1066.49614	0.51176
1064.56758	0.50571
1062.63901	0.50030
1060.71045	0.49533
1058.78188	0.49067
1056.85332	0.48667
1054.92476	0.48341
1052.99619	0.48047
1051.06763	0.47795
1049.13906	0.47608
1047.21050	0.47441
1045.28193	0.47267
1043.35337	0.47111
1041.42480	0.46988
1039.49624	0.46896
1037.56768	0.46840
1035.63911	0.46827
1033.71055	0.46846
1031.78198	0.46866
1029.85342	0.46868
1027.92485	0.46890
1025.99629	0.46968
1024.06772	0.47069
1022.13916	0.47150
1020.21060	0.47215
1018.28203	0.47286
1016.35347	0.47369
1014.42490	0.47469
1012.49634	0.47600
1010.56777	0.47766
1008.63921	0.47933
1006.71064	0.48090
1004.78208	0.48280
1002.85352	0.48527
1000.92495	0.48812
998.99639	0.49117
997.06782	0.49459
995.13926	0.49837
993.21069	0.50203
991.28213	0.50509
989.35356	0.50747
987.42500	0.50922
985.49644	0.51032
983.56787	0.51109
981.63931	0.51218
979.71074	0.51384
977.78218	0.51600
975.85361	0.51865
973.92505	0.52159
971.99648	0.52463
970.06792	0.52798
968.13936	0.53170
966.21079	0.53571
964.28223	0.54016
962.35366	0.54503
960.42510	0.55019
958.49653	0.55569
956.56797	0.56152
954.63940	0.56751
952.71084	0.57365
950.78228	0.58007
948.85371	0.58646
946.92515	0.59275
944.99658	0.59911
943.06802	0.60514
941.13945	0.61072
939.21089	0.61631
937.28232	0.62204
935.35376	0.62785
933.42520	0.63355
931.49663	0.63883
929.56807	0.64404
927.63950	0.64960
925.71094	0.65557
923.78237	0.66188
921.85381	0.66844
919.92524	0.67518
917.99668	0.68207
916.06812	0.68955
914.13955	0.69759
912.21099	0.70569
910.28242	0.71399
908.35386	0.72213
906.42529	0.72975
904.49673	0.73714
902.56816	0.74454
900.63960	0.75286
898.71104	0.76240
896.78247	0.77267
894.85391	0.78363
892.92534	0.79433
890.99678	0.80450
889.06821	0.81527
887.13965	0.82670
885.21108	0.83841
883.28252	0.84966
881.35396	0.85982
879.42539	0.87030
877.49683	0.88167
875.56826	0.89263
873.63970	0.90334
871.71113	0.91550
869.78257	0.92815
867.85400	0.93898
865.92544	0.94934
863.99687	0.96059
862.06831	0.97161
860.13975	0.98225
858.21118	0.99389
856.28262	1.00687
854.35405	1.01925
852.42549	1.02886
850.49692	1.03761
848.56836	1.04908
846.63979	1.06237
844.71123	1.07529
842.78267	1.08735
840.85410	1.09823
838.92554	1.10904
836.99697	1.12337
835.06841	1.13987
833.13984	1.15118
831.21128	1.15741
829.28271	1.16377
827.35415	1.17103
825.42559	1.18176
823.49702	1.19591
821.56846	1.20568
819.63989	1.21363
817.71133	1.22333
815.78276	1.22907
813.85420	1.23915
811.92563	1.25833
809.99707	1.26939
808.06851	1.27010
806.13994	1.27755
804.21138	1.29372
802.28281	1.31086
800.35425	1.32836
798.42568	1.34350
796.49712	1.33135
794.56855	1.30069
792.63999	1.30073
790.71143	1.33478
788.78286	1.36399
786.85430	1.34528
784.92573	1.31508
782.99717	1.33316
781.06860	1.33969
779.14004	1.27470
777.21147	1.21838
775.28291	1.21323
773.35435	1.22400
771.42578	1.22213
769.49722	1.24472
767.56865	1.30984
765.64009	1.33211
763.71152	1.30864
761.78296	1.30916
759.85439	1.29137
757.92583	1.28193
755.99727	1.34039
754.06870	1.37935
752.14014	1.29112
750.21157	1.21918
748.28301	1.25398
746.35444	1.27198
744.42588	1.09096
742.49731	0.93003
740.56875	0.89760
738.64019	0.90982
736.71162	0.85935
734.78306	0.78371
732.85449	0.73351
730.92593	0.75171
728.99736	0.72259
727.06880	0.57046
725.14023	0.49707
723.21167	0.42505
721.28311	0.19868
719.35454	0.07935
717.42598	0.08213
715.49741	0.03640
713.56885	0.04920
711.64028	0.12782
709.71172	0.26321
707.78315	0.51298
705.85459	0.38091
703.92603	0.09300
701.99746	-0.00230
700.06890	0.01000
698.14033	0.05979
696.21177	0.09244
694.28320	0.11349
692.35464	0.18157
690.42607	0.30740
688.49751	0.47284
686.56895	1.00498
684.64038	1.81295
682.71182	0.59499
680.78325	0.36125
678.85469	0.31391
676.92612	0.39165
674.99756	0.24540
673.06899	0.16048
671.14043	0.28013
669.21187	0.53936
667.28330	0.36056
665.35474	0.15000
663.42617	0.15959
661.49761	0.25406
659.56904	0.27317
657.64048	0.24107
655.71191	0.18217
653.78335	0.12019
651.85479	0.12455
649.92622	0.17710
647.99766	0.19162
646.06909	0.19236
644.14053	0.21979
642.21196	0.31040
640.28340	0.51117
638.35483	0.45818
636.42627	0.26623
634.49771	0.22762
632.56914	0.27603
630.64058	0.35078
628.71201	0.37598
626.78345	0.26655
624.85488	0.16141
622.92632	0.12072
620.99775	0.10652
619.06919	0.08820
617.14062	0.11208
615.21206	0.18385
613.28350	0.22294
611.35493	0.24170
609.42637	0.30631
607.49780	0.39792
605.56924	0.38768
603.64067	0.23308
601.71211	0.11167
599.78354	0.09673
597.85498	0.13186
595.92642	0.14852
593.99785	0.14253
592.06929	0.12018
590.14072	0.06877
588.21216	0.03156
586.28359	0.08679
584.35503	0.19503
582.42646	0.22694
580.49790	0.27916
578.56934	0.41419
576.64077	0.31705
574.71221	0.20020
572.78364	0.20398
570.85508	0.29011
568.92651	0.35565
566.99795	0.27122
565.06938	0.15105
563.14082	0.10408
561.21226	0.13392
559.28369	0.18845
557.35513	0.24957
555.42656	0.26233
553.49800	0.22934
551.56943	0.20568
549.64087	0.14888
547.71230	0.09490
545.78374	0.07149
543.85518	0.07481
541.92661	0.09630
539.99805	0.13736
538.06948	0.20600
536.14092	0.25194
534.21235	0.22655
532.28379	0.21061
530.35522	0.22713
528.42666	0.22954
526.49810	0.20352
524.56953	0.16882
522.64097	0.15950
520.71240	0.26131
518.78384	0.65141
516.85527	3.10113
514.92671	0.35572
512.99814	0.19236
511.06958	0.22228
509.14102	0.28918
507.21245	0.24429
505.28389	0.21314
503.35532	0.19621
501.42676	0.17479
499.49819	0.17875
