3997.91411	0.05774
3995.98555	0.05851
3994.05698	0.05920
3992.12842	0.05925
3990.19985	0.05901
3988.27129	0.05892
3986.34272	0.05913
3984.41416	0.05965
3982.48560	0.06021
3980.55703	0.06064
3978.62847	0.06080
3976.69990	0.06090
3974.77134	0.06132
3972.84277	0.06174
3970.91421	0.06174
3968.98564	0.06171
3967.05708	0.06200
3965.12852	0.06235
3963.19995	0.06267
3961.27139	0.06308
3959.34282	0.06341
3957.41426	0.06341
3955.48569	0.06320
3953.55713	0.06321
3951.62856	0.06355
3949.70000	0.06398
3947.77144	0.06418
3945.84287	0.06414
3943.91431	0.06417
3941.98574	0.06444
3940.05718	0.06479
3938.12861	0.06498
3936.20005	0.06489
3934.27148	0.06476
3932.34292	0.06475
3930.41436	0.06481
3928.48579	0.06466
3926.55723	0.06430
3924.62866	0.06428
3922.70010	0.06442
3920.77153	0.06426
3918.84297	0.06415
3916.91440	0.06417
3914.98584	0.06390
3913.05728	0.06346
3911.12871	0.06322
3909.20015	0.06320
3907.27158	0.06357
3905.34302	0.06456
3903.41445	0.06594
3901.48589	0.06658
3899.55732	0.06610
3897.62876	0.06545
3895.70020	0.06506
3893.77163	0.06503
3891.84307	0.06549
3889.91450	0.06574
3887.98594	0.06537
3886.05737	0.06540
3884.12881	0.06574
3882.20024	0.06564
3880.27168	0.06556
3878.34312	0.06542
3876.41455	0.06541
3874.48599	0.06634
3872.55742	0.06753
3870.62886	0.06812
3868.70029	0.06860
3866.77173	0.06871
3864.84316	0.06869
3862.91460	0.06878
3860.98604	0.06846
3859.05747	0.06831
3857.12891	0.06880
3855.20034	0.06968
3853.27178	0.07119
3851.34321	0.07274
3849.41465	0.07241
3847.48608	0.07167
3845.55752	0.07164
3843.62896	0.07228
3841.70039	0.07353
3839.77183	0.07574
3837.84326	0.07820
3835.91470	0.07878
3833.98613	0.07808
3832.05757	0.07795
3830.12900	0.07831
3828.20044	0.07852
3826.27187	0.07916
3824.34331	0.08052
3822.41475	0.08222
3820.48618	0.08431
3818.55762	0.08509
3816.62905	0.08465
3814.70049	0.08487
3812.77192	0.08516
3810.84336	0.08531
3808.91479	0.08631
3806.98623	0.08859
3805.05767	0.09091
3803.12910	0.09222
3801.20054	0.09360
3799.27197	0.09462
3797.34341	0.09507
3795.41484	0.09617
3793.48628	0.09715
3791.55771	0.09782
3789.62915	0.09893
3787.70059	0.10033
3785.77202	0.10191
3783.84346	0.10352
3781.91489	0.10478
3779.98633	0.10640
3778.05776	0.10877
3776.12920	0.11042
3774.20063	0.11134
3772.27207	0.11257
3770.34351	0.11455
3768.41494	0.11709
3766.48638	0.11926
3764.55781	0.12103
3762.62925	0.12268
3760.70068	0.12488
3758.77212	0.12819
3756.84355	0.13143
3754.91499	0.13369
3752.98643	0.13631
3751.05786	0.14107
3749.12930	0.14654
3747.20073	0.14879
3745.27217	0.15055
3743.34360	0.15413
3741.41504	0.15758
3739.48647	0.16080
3737.55791	0.16522
3735.62935	0.17158
3733.70078	0.17928
3731.77222	0.18502
3729.84365	0.18890
3727.91509	0.19285
3725.98652	0.19813
3724.05796	0.20454
3722.12939	0.21083
3720.20083	0.21691
3718.27227	0.22291
3716.34370	0.22903
3714.41514	0.23569
3712.48657	0.24483
3710.55801	0.25949
3708.62944	0.27584
3706.70088	0.28793
3704.77231	0.29865
3702.84375	0.31178
3700.91519	0.32952
3698.98662	0.34874
3697.05806	0.36603
3695.12949	0.38395
3693.20093	0.40344
3691.27236	0.42511
3689.34380	0.45354
3687.41523	0.48880
3685.48667	0.51916
3683.55811	0.54459
3681.62954	0.57205
3679.70098	0.60396
3677.77241	0.63804
3675.84385	0.67806
3673.91528	0.73209
3671.98672	0.77549
3670.05815	0.81390
3668.12959	0.86780
3666.20103	0.91661
3664.27246	0.95716
3662.34390	1.00082
3660.41533	1.04789
3658.48677	1.09390
3656.55820	1.14320
3654.62964	1.19943
3652.70107	1.24603
3650.77251	1.28487
3648.84395	1.34023
3646.91538	1.41210
3644.98682	1.46389
3643.05825	1.50266
3641.12969	1.54281
3639.20112	1.58760
3637.27256	1.63252
3635.34399	1.67575
3633.41543	1.71867
3631.48687	1.75881
3629.55830	1.80044
3627.62974	1.85747
3625.70117	1.90986
3623.77261	1.94317
3621.84404	1.97500
3619.91548	2.01226
3617.98691	2.05785
3616.05835	2.10140
3614.12979	2.13838
3612.20122	2.17885
3610.27266	2.21886
3608.34409	2.25849
3606.41553	2.30223
3604.48696	2.34253
3602.55840	2.37682
3600.62983	2.41405
3598.70127	2.45620
3596.77271	2.49765
3594.84414	2.53837
3592.91558	2.57970
3590.98701	2.61782
3589.05845	2.65205
3587.12988	2.69530
3585.20132	2.74645
3583.27275	2.78846
3581.34419	2.82556
3579.41562	2.86511
3577.48706	2.90691
3575.55850	2.95005
3573.62993	2.99501
3571.70137	3.03660
3569.77280	3.07331
3567.84424	3.11292
3565.91567	3.16675
3563.98711	3.22192
3562.05854	3.26503
3560.12998	3.30569
3558.20142	3.34831
3556.27285	3.39229
3554.34429	3.43659
3552.41572	3.48321
3550.48716	3.53020
3548.55859	3.57521
3546.63003	3.62241
3544.70146	3.67313
3542.77290	3.72182
3540.84434	3.76755
3538.91577	3.81391
3536.98721	3.86043
3535.05864	3.90619
3533.13008	3.95286
3531.20151	4.00382
3529.27295	4.05427
3527.34438	4.10087
3525.41582	4.14739
3523.48726	4.19418
3521.55869	4.24318
3519.63013	4.29493
3517.70156	4.34536
3515.77300	4.39095
3513.84443	4.43514
3511.91587	4.48320
3509.98730	4.53547
3508.05874	4.58688
3506.13018	4.63163
3504.20161	4.67447
3502.27305	4.72347
3500.34448	4.77350
3498.41592	4.81897
3496.48735	4.86546
3494.55879	4.91372
3492.63022	4.96383
3490.70166	5.01632
3488.77310	5.06410
3486.84453	5.10987
3484.91597	5.16242
3482.98740	5.21531
3481.05884	5.26426
3479.13027	5.31516
3477.20171	5.36482
3475.27314	5.40403
3473.34458	5.44090
3471.41602	5.49182
3469.48745	5.55291
3467.55889	5.60965
3465.63032	5.66221
3463.70176	5.71677
3461.77319	5.76636
3459.84463	5.81731
3457.91606	5.87427
3455.98750	5.92345
3454.05894	5.96415
3452.13037	6.00344
3450.20181	6.05103
3448.27324	6.11598
3446.34468	6.18613
3444.41611	6.23883
3442.48755	6.28142
3440.55898	6.32359
3438.63042	6.35898
3436.70186	6.39036
3434.77329	6.43967
3432.84473	6.50436
3430.91616	6.54991
3428.98760	6.57984
3427.05903	6.63020
3425.13047	6.71667
3423.20190	6.78786
3421.27334	6.81160
3419.34478	6.84522
3417.41621	6.92883
3415.48765	7.01243
3413.55908	7.04324
3411.63052	7.06427
3409.70195	7.11042
3407.77339	7.15079
3405.84482	7.16080
3403.91626	7.18724
3401.98770	7.24386
3400.05913	7.28234
3398.13057	7.30727
3396.20200	7.35814
3394.27344	7.42113
3392.34487	7.44901
3390.41631	7.45205
3388.48774	7.45463
3386.55918	7.49937
3384.63062	7.57836
3382.70205	7.64966
3380.77349	7.71704
3378.84492	7.73325
3376.91636	7.68983
3374.98779	7.69359
3373.05923	7.77124
3371.13066	7.81292
3369.20210	7.83326
3367.27354	7.89396
3365.34497	7.95852
3363.41641	7.96089
3361.48784	7.92885
3359.55928	7.99127
3357.63071	8.11256
3355.70215	8.13435
3353.77358	8.06460
3351.84502	8.04668
3349.91646	8.07150
3347.98789	8.08133
3346.05933	8.06029
3344.13076	8.01169
3342.20220	8.03586
3340.27363	8.11279
3338.34507	8.12565
3336.41650	8.14898
3334.48794	8.25623
3332.55937	8.29849
3330.63081	8.28173
3328.70225	8.31668
3326.77368	8.33327
3324.84512	8.25567
3322.91655	8.16493
3320.98799	8.16018
3319.05942	8.19024
3317.13086	8.21124
3315.20229	8.21028
3313.27373	8.21716
3311.34517	8.24191
3309.41660	8.17740
3307.48804	8.03957
3305.55947	8.02628
3303.63091	8.17766
3301.70234	8.28250
3299.77378	8.26192
3297.84521	8.23058
3295.91665	8.30951
3293.98809	8.38882
3292.05952	8.30188
3290.13096	8.23476
3288.20239	8.24480
3286.27383	8.26771
3284.34526	8.31895
3282.41670	8.35246
3280.48813	8.37641
3278.55957	8.43127
3276.63101	8.37696
3274.70244	8.25759
3272.77388	8.27445
3270.84531	8.38756
3268.91675	8.37617
3266.98818	8.23500
3265.05962	8.19039
3263.13105	8.22451
3261.20249	8.20480
3259.27393	8.15359
3257.34536	8.16129
3255.41680	8.26288
3253.48823	8.40707
3251.55967	8.47238
3249.63110	8.36678
3247.70254	8.25715
3245.77397	8.25064
3243.84541	8.24251
3241.91685	8.17753
3239.98828	8.12541
3238.05972	8.14844
3236.13115	8.23145
3234.20259	8.27778
3232.27402	8.23902
3230.34546	8.21698
3228.41689	8.24353
3226.48833	8.25691
3224.55977	8.25914
3222.63120	8.26666
3220.70264	8.29853
3218.77407	8.37368
3216.84551	8.39512
3214.91694	8.27827
3212.98838	8.13148
3211.05981	8.04425
3209.13125	7.96313
3207.20269	7.88985
3205.27412	7.90406
3203.34556	7.91935
3201.41699	7.84415
3199.48843	7.77918
3197.55986	7.72561
3195.63130	7.61868
3193.70273	7.55214
3191.77417	7.59327
3189.84561	7.65134
3187.91704	7.61984
3185.98848	7.53003
3184.05991	7.48323
3182.13135	7.48466
3180.20278	7.45120
3178.27422	7.36912
3176.34565	7.28393
3174.41709	7.21891
3172.48853	7.17385
3170.55996	7.12085
3168.63140	7.05885
3166.70283	7.00157
3164.77427	6.92139
3162.84570	6.82984
3160.91714	6.77643
3158.98857	6.73524
3157.06001	6.65462
3155.13145	6.55627
3153.20288	6.47501
3151.27432	6.42367
3149.34575	6.38926
3147.41719	6.34005
3145.48862	6.27136
3143.56006	6.19878
3141.63149	6.13313
3139.70293	6.06334
3137.77437	5.97650
3135.84580	5.88943
3133.91724	5.81442
3131.98867	5.73713
3130.06011	5.65770
3128.13154	5.58868
3126.20298	5.52475
3124.27441	5.45478
3122.34585	5.37559
3120.41729	5.29988
3118.48872	5.23610
3116.56016	5.17234
3114.63159	5.09684
3112.70303	5.01393
3110.77446	4.93869
3108.84590	4.87261
3106.91733	4.80287
3104.98877	4.73194
3103.06021	4.66732
3101.13164	4.60229
3099.20308	4.53695
3097.27451	4.47445
3095.34595	4.40881
3093.41738	4.34081
3091.48882	4.27585
3089.56025	4.21297
3087.63169	4.14997
3085.70312	4.08519
3083.77456	4.01660
3081.84600	3.94828
3079.91743	3.88551
3077.98887	3.82668
3076.06030	3.76781
3074.13174	3.70913
3072.20317	3.65114
3070.27461	3.59161
3068.34604	3.53200
3066.41748	3.47529
3064.48892	3.42174
3062.56035	3.36970
3060.63179	3.31634
3058.70322	3.26066
3056.77466	3.20447
3054.84609	3.15019
3052.91753	3.09830
3050.98896	3.04740
3049.06040	2.99595
3047.13184	2.94415
3045.20327	2.89373
3043.27471	2.84481
3041.34614	2.79622
3039.41758	2.74910
3037.48901	2.70386
3035.56045	2.65816
3033.63188	2.61198
3031.70332	2.56683
3029.77476	2.52273
3027.84619	2.47956
3025.91763	2.43711
3023.98906	2.39487
3022.06050	2.35281
3020.13193	2.31116
3018.20337	2.27037
3016.27480	2.23080
3014.34624	2.19213
3012.41768	2.15391
3010.48911	2.11560
3008.56055	2.07801
3006.63198	2.04233
3004.70342	2.00720
3002.77485	1.97174
3000.84629	1.93688
2998.91772	1.90292
2996.98916	1.87005
2995.06060	1.83827
2993.13203	1.80696
2991.20347	1.77577
2989.27490	1.74460
2987.34634	1.71393
2985.41777	1.68397
2983.48921	1.65439
2981.56064	1.62568
2979.63208	1.59810
2977.70352	1.57053
2975.77495	1.54260
2973.84639	1.51512
2971.91782	1.48859
2969.98926	1.46284
2968.06069	1.43736
2966.13213	1.41238
2964.20356	1.38843
2962.27500	1.36472
2960.34644	1.34034
2958.41787	1.31552
2956.48931	1.29111
2954.56074	1.26772
2952.63218	1.24518
2950.70361	1.22312
2948.77505	1.20138
2946.84648	1.18001
2944.91792	1.15914
2942.98936	1.13837
2941.06079	1.11772
2939.13223	1.09745
2937.20366	1.07731
2935.27510	1.05747
2933.34653	1.03808
2931.41797	1.01891
2929.48940	0.99990
2927.56084	0.98108
2925.63228	0.96294
2923.70371	0.94566
2921.77515	0.92886
2919.84658	0.91265
2917.91802	0.89710
2915.98945	0.88163
2914.06089	0.86567
2912.13232	0.84983
2910.20376	0.83475
2908.27520	0.82006
2906.34663	0.80556
2904.41807	0.79155
2902.48950	0.77822
2900.56094	0.76514
2898.63237	0.75205
2896.70381	0.73927
2894.77524	0.72708
2892.84668	0.71536
2890.91812	0.70377
2888.98955	0.69241
2887.06099	0.68145
2885.13242	0.67035
2883.20386	0.65869
2881.27529	0.64727
2879.34673	0.63690
2877.41816	0.62714
2875.48960	0.61724
2873.56104	0.60699
2871.63247	0.59658
2869.70391	0.58623
2867.77534	0.57577
2865.84678	0.56512
2863.91821	0.55468
2861.98965	0.54442
2860.06108	0.53414
2858.13252	0.52407
2856.20396	0.51463
2854.27539	0.50591
2852.34683	0.49749
2850.41826	0.48912
2848.48970	0.48100
2846.56113	0.47334
2844.63257	0.46619
2842.70400	0.45933
2840.77544	0.45268
2838.84687	0.44650
2836.91831	0.44076
2834.98975	0.43497
2833.06118	0.42892
2831.13262	0.42288
2829.20405	0.41690
2827.27549	0.41097
2825.34692	0.40515
2823.41836	0.39938
2821.48979	0.39353
2819.56123	0.38757
2817.63267	0.38158
2815.70410	0.37566
2813.77554	0.37014
2811.84697	0.36502
2809.91841	0.35983
2807.98984	0.35449
2806.06128	0.34919
2804.13271	0.34406
2802.20415	0.33925
2800.27559	0.33453
2798.34702	0.32970
2796.41846	0.32488
2794.48989	0.32027
2792.56133	0.31591
2790.63276	0.31160
2788.70420	0.30712
2786.77563	0.30273
2784.84707	0.29871
2782.91851	0.29480
2780.98994	0.29074
2779.06138	0.28662
2777.13281	0.28265
2775.20425	0.27889
2773.27568	0.27524
2771.34712	0.27162
2769.41855	0.26809
2767.48999	0.26465
2765.56143	0.26123
2763.63286	0.25795
2761.70430	0.25481
2759.77573	0.25166
2757.84717	0.24843
2755.91860	0.24524
2753.99004	0.24226
2752.06147	0.23937
2750.13291	0.23640
2748.20435	0.23349
2746.27578	0.23075
2744.34722	0.22806
2742.41865	0.22541
2740.49009	0.22299
2738.56152	0.22078
2736.63296	0.21858
2734.70439	0.21632
2732.77583	0.21396
2730.84727	0.21146
2728.91870	0.20901
2726.99014	0.20678
2725.06157	0.20456
2723.13301	0.20237
2721.20444	0.20045
2719.27588	0.19871
2717.34731	0.19694
2715.41875	0.19509
2713.49019	0.19316
2711.56162	0.19122
2709.63306	0.18948
2707.70449	0.18791
2705.77593	0.18637
2703.84736	0.18493
2701.91880	0.18356
2699.99023	0.18219
2698.06167	0.18076
2696.13311	0.17922
2694.20454	0.17760
2692.27598	0.17616
2690.34741	0.17495
2688.41885	0.17373
2686.49028	0.17242
2684.56172	0.17121
2682.63315	0.17009
2680.70459	0.16895
2678.77603	0.16781
2676.84746	0.16678
2674.91890	0.16572
2672.99033	0.16466
2671.06177	0.16372
2669.13320	0.16271
2667.20464	0.16156
2665.27607	0.16044
2663.34751	0.15947
2661.41895	0.15866
2659.49038	0.15786
2657.56182	0.15703
2655.63325	0.15623
2653.70469	0.15544
2651.77612	0.15468
2649.84756	0.15403
2647.91899	0.15356
2645.99043	0.15311
2644.06187	0.15250
2642.13330	0.15187
2640.20474	0.15148
2638.27617	0.15128
2636.34761	0.15098
2634.41904	0.15051
2632.49048	0.15006
2630.56191	0.14973
2628.63335	0.14936
2626.70479	0.14891
2624.77622	0.14852
2622.84766	0.14817
2620.91909	0.14781
2618.99053	0.14765
2617.06196	0.14764
2615.13340	0.14763
2613.20483	0.14755
2611.27627	0.14740
2609.34771	0.14726
2607.41914	0.14717
2605.49058	0.14725
2603.56201	0.14743
2601.63345	0.14752
2599.70488	0.14750
2597.77632	0.14742
2595.84775	0.14742
2593.91919	0.14754
2591.99062	0.14764
2590.06206	0.14768
2588.13350	0.14776
2586.20493	0.14794
2584.27637	0.14822
2582.34780	0.14851
2580.41924	0.14889
2578.49067	0.14936
2576.56211	0.14982
2574.63354	0.15023
2572.70498	0.15058
2570.77642	0.15094
2568.84785	0.15136
2566.91929	0.15178
2564.99072	0.15223
2563.06216	0.15270
2561.13359	0.15313
2559.20503	0.15358
2557.27646	0.15407
2555.34790	0.15459
2553.41934	0.15512
2551.49077	0.15567
2549.56221	0.15631
2547.63364	0.15698
2545.70508	0.15755
2543.77651	0.15806
2541.84795	0.15864
2539.91938	0.15933
2537.99082	0.16006
2536.06226	0.16080
2534.13369	0.16154
2532.20513	0.16225
2530.27656	0.16306
2528.34800	0.16401
2526.41943	0.16484
2524.49087	0.16555
2522.56230	0.16636
2520.63374	0.16718
2518.70518	0.16781
2516.77661	0.16839
2514.84805	0.16912
2512.91948	0.16992
2510.99092	0.17063
2509.06235	0.17139
2507.13379	0.17233
2505.20522	0.17331
2503.27666	0.17425
2501.34810	0.17516
2499.41953	0.17601
2497.49097	0.17679
2495.56240	0.17752
2493.63384	0.17835
2491.70527	0.17930
2489.77671	0.18021
2487.84814	0.18107
2485.91958	0.18202
2483.99102	0.18307
2482.06245	0.18400
2480.13389	0.18474
2478.20532	0.18560
2476.27676	0.18666
2474.34819	0.18768
2472.41963	0.18860
2470.49106	0.18955
2468.56250	0.19054
2466.63394	0.19150
2464.70537	0.19237
2462.77681	0.19325
2460.84824	0.19420
2458.91968	0.19510
2456.99111	0.19603
2455.06255	0.19706
2453.13398	0.19813
2451.20542	0.19923
2449.27686	0.20035
2447.34829	0.20144
2445.41973	0.20246
2443.49116	0.20342
2441.56260	0.20436
2439.63403	0.20532
2437.70547	0.20640
2435.77690	0.20757
2433.84834	0.20869
2431.91978	0.20978
2429.99121	0.21092
2428.06265	0.21200
2426.13408	0.21292
2424.20552	0.21385
2422.27695	0.21503
2420.34839	0.21632
2418.41982	0.21755
2416.49126	0.21875
2414.56270	0.21992
2412.63413	0.22104
2410.70557	0.22217
2408.77700	0.22339
2406.84844	0.22468
2404.91987	0.22592
2402.99131	0.22707
2401.06274	0.22817
2399.13418	0.22934
2397.20562	0.23058
2395.27705	0.23183
2393.34849	0.23312
2391.41992	0.23447
2389.49136	0.23603
2387.56279	0.23800
2385.63423	0.24057
2383.70566	0.24398
2381.77710	0.24855
2379.84854	0.25420
2377.91997	0.26047
2375.99141	0.26738
2374.06284	0.27565
2372.13428	0.28540
2370.20571	0.29579
2368.27715	0.30639
2366.34858	0.31733
2364.42002	0.32723
2362.49146	0.33429
2360.56289	0.33817
2358.63433	0.33880
2356.70576	0.33657
2354.77720	0.33081
2352.84863	0.32158
2350.92007	0.31192
2348.99150	0.30641
2347.06294	0.30731
2345.13437	0.31475
2343.20581	0.32465
2341.27725	0.33033
2339.34868	0.33186
2337.42012	0.33210
2335.49155	0.33201
2333.56299	0.33168
2331.63442	0.33209
2329.70586	0.33297
2327.77729	0.33274
2325.84873	0.33108
2323.92017	0.32882
2321.99160	0.32660
2320.06304	0.32454
2318.13447	0.32264
2316.20591	0.32107
2314.27734	0.32006
2312.34878	0.31977
2310.42021	0.31982
2308.49165	0.31958
2306.56309	0.31904
2304.63452	0.31868
2302.70596	0.31899
2300.77739	0.31990
2298.84883	0.32084
2296.92026	0.32163
2294.99170	0.32248
2293.06313	0.32341
2291.13457	0.32431
2289.20601	0.32522
2287.27744	0.32625
2285.34888	0.32745
2283.42031	0.32886
2281.49175	0.33064
2279.56318	0.33285
2277.63462	0.33521
2275.70605	0.33753
2273.77749	0.33978
2271.84893	0.34194
2269.92036	0.34396
2267.99180	0.34595
2266.06323	0.34800
2264.13467	0.35011
2262.20610	0.35221
2260.27754	0.35422
2258.34897	0.35617
2256.42041	0.35820
2254.49185	0.36029
2252.56328	0.36234
2250.63472	0.36442
2248.70615	0.36652
2246.77759	0.36857
2244.84902	0.37068
2242.92046	0.37281
2240.99189	0.37488
2239.06333	0.37704
2237.13477	0.37934
2235.20620	0.38166
2233.27764	0.38395
2231.34907	0.38624
2229.42051	0.38844
2227.49194	0.39057
2225.56338	0.39280
2223.63481	0.39508
2221.70625	0.39733
2219.77769	0.39952
2217.84912	0.40161
2215.92056	0.40372
2213.99199	0.40595
2212.06343	0.40819
2210.13486	0.41035
2208.20630	0.41253
2206.27773	0.41471
2204.34917	0.41683
2202.42061	0.41887
2200.49204	0.42089
2198.56348	0.42299
2196.63491	0.42502
2194.70635	0.42685
2192.77778	0.42867
2190.84922	0.43060
2188.92065	0.43264
2186.99209	0.43461
2185.06353	0.43638
2183.13496	0.43809
2181.20640	0.43983
2179.27783	0.44152
2177.34927	0.44315
2175.42070	0.44476
2173.49214	0.44629
2171.56357	0.44766
2169.63501	0.44893
2167.70645	0.45026
2165.77788	0.45166
2163.84932	0.45301
2161.92075	0.45416
2159.99219	0.45517
2158.06362	0.45624
2156.13506	0.45733
2154.20649	0.45829
2152.27793	0.45903
2150.34937	0.45965
2148.42080	0.46027
2146.49224	0.46075
2144.56367	0.46113
2142.63511	0.46163
2140.70654	0.46219
2138.77798	0.46260
2136.84941	0.46288
2134.92085	0.46314
2132.99229	0.46326
2131.06372	0.46322
2129.13516	0.46315
2127.20659	0.46298
2125.27803	0.46254
2123.34946	0.46195
2121.42090	0.46140
2119.49233	0.46089
2117.56377	0.46036
2115.63521	0.45967
2113.70664	0.45884
2111.77808	0.45795
2109.84951	0.45700
2107.92095	0.45606
2105.99238	0.45510
2104.06382	0.45395
2102.13525	0.45267
2100.20669	0.45141
2098.27812	0.45006
2096.34956	0.44856
2094.42100	0.44698
2092.49243	0.44536
2090.56387	0.44369
2088.63530	0.44191
2086.70674	0.44015
2084.77817	0.43835
2082.84961	0.43639
2080.92104	0.43434
2078.99248	0.43234
2077.06392	0.43032
2075.13535	0.42819
2073.20679	0.42600
2071.27822	0.42377
2069.34966	0.42152
2067.42109	0.41923
2065.49253	0.41696
2063.56396	0.41468
2061.63540	0.41231
2059.70684	0.40981
2057.77827	0.40731
2055.84971	0.40489
2053.92114	0.40235
2051.99258	0.39968
2050.06401	0.39710
2048.13545	0.39451
2046.20688	0.39173
2044.27832	0.38891
2042.34976	0.38621
2040.42119	0.38357
2038.49263	0.38089
2036.56406	0.37817
2034.63550	0.37535
2032.70693	0.37246
2030.77837	0.36962
2028.84980	0.36681
2026.92124	0.36399
2024.99268	0.36120
2023.06411	0.35842
2021.13555	0.35561
2019.20698	0.35288
2017.27842	0.35019
2015.34985	0.34743
2013.42129	0.34461
2011.49272	0.34182
2009.56416	0.33914
2007.63560	0.33643
2005.70703	0.33362
2003.77847	0.33087
2001.84990	0.32824
1999.92134	0.32559
1997.99277	0.32289
1996.06421	0.32031
1994.13564	0.31794
1992.20708	0.31552
1990.27852	0.31284
1988.34995	0.31013
1986.42139	0.30762
1984.49282	0.30523
1982.56426	0.30289
1980.63569	0.30057
1978.70713	0.29831
1976.77856	0.29604
1974.85000	0.29370
1972.92144	0.29133
1970.99287	0.28906
1969.06431	0.28700
1967.13574	0.28504
1965.20718	0.28305
1963.27861	0.28108
1961.35005	0.27918
1959.42148	0.27731
1957.49292	0.27543
1955.56436	0.27352
1953.63579	0.27167
1951.70723	0.26988
1949.77866	0.26816
1947.85010	0.26658
1945.92153	0.26516
1943.99297	0.26381
1942.06440	0.26233
1940.13584	0.26071
1938.20728	0.25916
1936.27871	0.25769
1934.35015	0.25628
1932.42158	0.25500
1930.49302	0.25383
1928.56445	0.25269
1926.63589	0.25159
1924.70732	0.25066
1922.77876	0.24979
1920.85020	0.24883
1918.92163	0.24784
1916.99307	0.24683
1915.06450	0.24580
1913.13594	0.24489
1911.20737	0.24417
1909.27881	0.24354
1907.35024	0.24294
1905.42168	0.24233
1903.49312	0.24176
1901.56455	0.24121
1899.63599	0.24063
1897.70742	0.24009
1895.77886	0.23965
1893.85029	0.23925
1891.92173	0.23889
1889.99316	0.23873
1888.06460	0.23856
1886.13604	0.23822
1884.20747	0.23790
1882.27891	0.23771
1880.35034	0.23758
1878.42178	0.23745
1876.49321	0.23733
1874.56465	0.23722
1872.63608	0.23730
1870.70752	0.23768
1868.77896	0.23840
1866.85039	0.23883
1864.92183	0.23868
1862.99326	0.23857
1861.06470	0.23875
1859.13613	0.23913
1857.20757	0.23941
1855.27900	0.23968
1853.35044	0.24007
1851.42187	0.24063
1849.49331	0.24133
1847.56475	0.24215
1845.63618	0.24312
1843.70762	0.24418
1841.77905	0.24492
1839.85049	0.24532
1837.92192	0.24600
1835.99336	0.24686
1834.06479	0.24777
1832.13623	0.24883
1830.20767	0.25038
1828.27910	0.25203
1826.35054	0.25316
1824.42197	0.25431
1822.49341	0.25543
1820.56484	0.25658
1818.63628	0.25793
1816.70771	0.25957
1814.77915	0.26127
1812.85059	0.26314
1810.92202	0.26532
1808.99346	0.26744
1807.06489	0.26928
1805.13633	0.27109
1803.20776	0.27323
1801.27920	0.27578
1799.35063	0.27873
1797.42207	0.28135
1795.49351	0.28374
1793.56494	0.28659
1791.63638	0.29036
1789.70781	0.29391
1787.77925	0.29653
1785.85068	0.29964
1783.92212	0.30341
1781.99355	0.30740
1780.06499	0.31157
1778.13643	0.31581
1776.20786	0.31978
1774.27930	0.32407
1772.35073	0.33012
1770.42217	0.33678
1768.49360	0.34204
1766.56504	0.34697
1764.63647	0.35214
1762.70791	0.35805
1760.77935	0.36568
1758.85078	0.37275
1756.92222	0.37974
1754.99365	0.38743
1753.06509	0.39433
1751.13652	0.40261
1749.20796	0.41351
1747.27939	0.42423
1745.35083	0.43336
1743.42227	0.44300
1741.49370	0.45367
1739.56514	0.46622
1737.63657	0.47878
1735.70801	0.48956
1733.77944	0.50604
1731.85088	0.52614
1729.92231	0.54183
1727.99375	0.55775
1726.06519	0.57459
1724.13662	0.59298
1722.20806	0.61315
1720.27949	0.63164
1718.35093	0.65295
1716.42236	0.68531
1714.49380	0.71655
1712.56523	0.74142
1710.63667	0.76521
1708.70811	0.79049
1706.77954	0.81918
1704.85098	0.85395
1702.92241	0.88488
1700.99385	0.91471
1699.06528	0.96040
1697.13672	1.00313
1695.20815	1.04610
1693.27959	1.08696
1691.35103	1.11930
1689.42246	1.15715
1687.49390	1.19748
1685.56533	1.23568
1683.63677	1.29590
1681.70820	1.35949
1679.77964	1.39877
1677.85107	1.43629
1675.92251	1.47948
1673.99395	1.53327
1672.06538	1.58046
1670.13682	1.62609
1668.20825	1.68746
1666.27969	1.73655
1664.35112	1.77750
1662.42256	1.82999
1660.49399	1.88993
1658.56543	1.93421
1656.63687	1.97026
1654.70830	2.00658
1652.77974	2.06629
1650.85117	2.12060
1648.92261	2.13905
1646.99404	2.16749
1645.06548	2.19976
1643.13691	2.21978
1641.20835	2.23020
1639.27979	2.24064
1637.35122	2.24904
1635.42266	2.25046
1633.49409	2.24286
1631.56553	2.23074
1629.63696	2.21614
1627.70840	2.18936
1625.77983	2.15864
1623.85127	2.12020
1621.92271	2.07254
1619.99414	2.03071
1618.06558	1.98983
1616.13701	1.92859
1614.20845	1.86518
1612.27988	1.81787
1610.35132	1.76871
1608.42275	1.71515
1606.49419	1.66241
1604.56562	1.61435
1602.63706	1.56718
1600.70850	1.51995
1598.77993	1.47642
1596.85137	1.43591
1594.92280	1.39647
1592.99424	1.35799
1591.06567	1.32291
1589.13711	1.29017
1587.20854	1.25945
1585.27998	1.23084
1583.35142	1.20380
1581.42285	1.17891
1579.49429	1.15780
1577.56572	1.13891
1575.63716	1.11523
1573.70859	1.09417
1571.78003	1.08060
1569.85146	1.06604
1567.92290	1.04932
1565.99434	1.03682
1564.06577	1.02714
1562.13721	1.01940
1560.20864	1.01370
1558.28008	1.00486
1556.35151	0.99657
1554.42295	0.99160
1552.49438	0.98662
1550.56582	0.98101
1548.63726	0.97421
1546.70869	0.96671
1544.78013	0.95798
1542.85156	0.94776
1540.92300	0.93438
1538.99443	0.91310
1537.06587	0.89760
1535.13730	0.88749
1533.20874	0.87394
1531.28018	0.85949
1529.35161	0.84959
1527.42305	0.84040
1525.49448	0.83009
1523.56592	0.82069
1521.63735	0.81182
1519.70879	0.80305
1517.78022	0.79570
1515.85166	0.78713
1513.92310	0.77817
1511.99453	0.77071
1510.06597	0.76422
1508.13740	0.75781
1506.20884	0.74747
1504.28027	0.73883
1502.35171	0.73399
1500.42314	0.72968
1498.49458	0.72507
1496.56602	0.71947
1494.63745	0.71377
1492.70889	0.70950
1490.78032	0.70601
1488.85176	0.70178
1486.92319	0.69725
1484.99463	0.69358
1483.06606	0.69073
1481.13750	0.68822
1479.20894	0.68596
1477.28037	0.68428
1475.35181	0.68317
1473.42324	0.68238
1471.49468	0.68067
1469.56611	0.67812
1467.63755	0.67588
1465.70898	0.67409
1463.78042	0.67256
1461.85186	0.67142
1459.92329	0.67084
1457.99473	0.67050
1456.06616	0.66900
1454.13760	0.66631
1452.20903	0.66376
1450.28047	0.66128
1448.35190	0.65882
1446.42334	0.65646
1444.49478	0.65451
1442.56621	0.65270
1440.63765	0.65071
1438.70908	0.64887
1436.78052	0.64695
1434.85195	0.64449
1432.92339	0.64221
1430.99482	0.64065
1429.06626	0.63965
1427.13770	0.63893
1425.20913	0.63848
1423.28057	0.63824
1421.35200	0.63789
1419.42344	0.63736
1417.49487	0.63634
1415.56631	0.63480
1413.63774	0.63341
1411.70918	0.63235
1409.78062	0.63170
1407.85205	0.63142
1405.92349	0.63146
1403.99492	0.63135
1402.06636	0.63051
1400.13779	0.62927
1398.20923	0.62787
1396.28066	0.62615
1394.35210	0.62373
1392.42354	0.62091
1390.49497	0.61833
1388.56641	0.61587
1386.63784	0.61303
1384.70928	0.60985
1382.78071	0.60690
1380.85215	0.60435
1378.92358	0.60220
1376.99502	0.60061
1375.06646	0.59963
1373.13789	0.59877
1371.20933	0.59782
1369.28076	0.59705
1367.35220	0.59627
1365.42363	0.59534
1363.49507	0.59422
1361.56650	0.59274
1359.63794	0.59124
1357.70937	0.59005
1355.78081	0.58883
1353.85225	0.58755
1351.92368	0.58649
1349.99512	0.58565
1348.06655	0.58479
1346.13799	0.58376
1344.20942	0.58266
1342.28086	0.58175
1340.35229	0.58098
1338.42373	0.58007
1336.49517	0.57910
1334.56660	0.57825
1332.63804	0.57751
1330.70947	0.57699
1328.78091	0.57674
1326.85234	0.57660
1324.92378	0.57661
1322.99521	0.57675
1321.06665	0.57685
1319.13809	0.57680
1317.20952	0.57648
1315.28096	0.57593
1313.35239	0.57524
1311.42383	0.57433
1309.49526	0.57333
1307.56670	0.57249
1305.63813	0.57179
1303.70957	0.57105
1301.78101	0.57016
1299.85244	0.56916
1297.92388	0.56819
1295.99531	0.56724
1294.06675	0.56622
1292.13818	0.56514
1290.20962	0.56410
1288.28105	0.56315
1286.35249	0.56223
1284.42393	0.56140
1282.49536	0.56061
1280.56680	0.55972
1278.63823	0.55869
1276.70967	0.55762
1274.78110	0.55665
1272.85254	0.55590
1270.92397	0.55527
1268.99541	0.55469
1267.06685	0.55415
1265.13828	0.55366
1263.20972	0.55328
1261.28115	0.55285
1259.35259	0.55227
1257.42402	0.55179
1255.49546	0.55158
1253.56689	0.55145
1251.63833	0.55126
1249.70977	0.55106
1247.78120	0.55080
1245.85264	0.55045
1243.92407	0.54997
1241.99551	0.54927
1240.06694	0.54845
1238.13838	0.54751
1236.20981	0.54626
1234.28125	0.54480
1232.35269	0.54337
1230.42412	0.54204
1228.49556	0.54072
1226.56699	0.53925
1224.63843	0.53778
1222.70986	0.53642
1220.78130	0.53519
1218.85273	0.53409
1216.92417	0.53313
1214.99561	0.53224
1213.06704	0.53148
1211.13848	0.53084
1209.20991	0.53028
1207.28135	0.52977
1205.35278	0.52917
1203.42422	0.52838
1201.49565	0.52757
1199.56709	0.52680
1197.63853	0.52592
1195.70996	0.52497
1193.78140	0.52426
1191.85283	0.52373
1189.92427	0.52316
1187.99570	0.52261
1186.06714	0.52234
1184.13857	0.52238
1182.21001	0.52257
1180.28145	0.52286
1178.35288	0.52346
1176.42432	0.52450
1174.49575	0.52572
1172.56719	0.52672
1170.63862	0.52739
1168.71006	0.52788
1166.78149	0.52833
1164.85293	0.52876
1162.92437	0.52918
1160.99580	0.52960
1159.06724	0.52986
1157.13867	0.52969
1155.21011	0.52899
1153.28154	0.52789
1151.35298	0.52641
1149.42441	0.52435
1147.49585	0.52184
1145.56729	0.51930
1143.63872	0.51678
1141.71016	0.51429
1139.78159	0.51215
1137.85303	0.51048
1135.92446	0.50921
1133.99590	0.50835
1132.06733	0.50779
1130.13877	0.50728
1128.21021	0.50670
1126.28164	0.50607
1124.35308	0.50542
1122.42451	0.50498
1120.49595	0.50505
1118.56738	0.50555
1116.63882	0.50613
1114.71025	0.50666
1112.78169	0.50719
1110.85312	0.50782
1108.92456	0.50862
1106.99600	0.50962
1105.06743	0.51068
1103.13887	0.51179
1101.21030	0.51301
1099.28174	0.51427
1097.35317	0.51588
1095.42461	0.51831
1093.49604	0.52186
1091.56748	0.52674
1089.63892	0.53306
1087.71035	0.54060
1085.78179	0.54900
1083.85322	0.55762
1081.92466	0.56518
1079.99609	0.57048
1078.06753	0.57303
1076.13896	0.57275
1074.21040	0.56972
1072.28184	0.56445
1070.35327	0.55797
1068.42471	0.55121
1066.49614	0.54446
1064.56758	0.53809
1062.63901	0.53266
1060.71045	0.52816
1058.78188	0.52412
1056.85332	0.52050
1054.92476	0.51738
1052.99619	0.51461
1051.06763	0.51234
1049.13906	0.51087
1047.21050	0.51005
1045.28193	0.50954
1043.35337	0.50942
1041.42480	0.50990
1039.49624	0.51074
1037.56768	0.51142
1035.63911	0.51165
1033.71055	0.51127
1031.78198	0.51007
1029.85342	0.50834
1027.92485	0.50671
1025.99629	0.50535
1024.06772	0.50426
1022.13916	0.50366
1020.21060	0.50347
1018.28203	0.50346
1016.35347	0.50336
1014.42490	0.50307
1012.49634	0.50283
1010.56777	0.50273
1008.63921	0.50278
1006.71064	0.50321
1004.78208	0.50410
1002.85352	0.50552
1000.92495	0.50781
998.99639	0.51113
997.06782	0.51523
995.13926	0.51967
993.21069	0.52383
991.28213	0.52696
989.35356	0.52880
987.42500	0.52950
985.49644	0.52953
983.56787	0.52946
981.63931	0.52962
979.71074	0.53020
977.78218	0.53149
975.85361	0.53359
973.92505	0.53609
971.99648	0.53886
970.06792	0.54214
968.13936	0.54584
966.21079	0.54972
964.28223	0.55399
962.35366	0.55897
960.42510	0.56431
958.49653	0.56952
956.56797	0.57486
954.63940	0.58075
952.71084	0.58705
950.78228	0.59340
948.85371	0.59971
946.92515	0.60607
944.99658	0.61231
943.06802	0.61825
941.13945	0.62396
939.21089	0.62969
937.28232	0.63549
935.35376	0.64132
933.42520	0.64721
931.49663	0.65312
929.56807	0.65905
927.63950	0.66509
925.71094	0.67125
923.78237	0.67768
921.85381	0.68411
919.92524	0.69006
917.99668	0.69639
916.06812	0.70384
914.13955	0.71146
912.21099	0.71908
910.28242	0.72745
908.35386	0.73637
906.42529	0.74483
904.49673	0.75266
902.56816	0.76121
900.63960	0.77070
898.71104	0.78032
896.78247	0.79080
894.85391	0.80171
892.92534	0.81164
890.99678	0.82138
889.06821	0.83183
887.13965	0.84247
885.21108	0.85359
883.28252	0.86558
881.35396	0.87723
879.42539	0.88831
877.49683	0.89964
875.56826	0.91074
873.63970	0.92198
871.71113	0.93394
869.78257	0.94563
867.85400	0.95742
865.92544	0.96962
863.99687	0.98033
862.06831	0.99054
860.13975	1.00280
858.21118	1.01522
856.28262	1.02538
854.35405	1.03518
852.42549	1.04662
850.49692	1.05894
848.56836	1.07024
846.63979	1.08105
844.71123	1.09383
842.78267	1.10674
840.85410	1.11733
838.92554	1.12721
836.99697	1.13871
835.06841	1.15317
833.13984	1.16850
831.21128	1.17927
829.28271	1.18726
827.35415	1.20168
825.42559	1.22010
823.49702	1.23182
821.56846	1.23896
819.63989	1.25122
817.71133	1.26728
815.78276	1.27857
813.85420	1.28995
811.92563	1.31169
809.99707	1.33913
808.06851	1.36269
806.13994	1.37161
804.21138	1.36077
802.28281	1.35775
800.35425	1.37434
798.42568	1.38701
796.49712	1.38764
794.56855	1.38817
792.63999	1.40606
790.71143	1.44022
788.78286	1.45632
786.85430	1.43007
784.92573	1.41528
782.99717	1.46125
781.06860	1.47646
779.14004	1.40265
777.21147	1.37803
775.28291	1.44615
773.35435	1.51700
771.42578	1.50632
769.49722	1.50096
767.56865	1.56450
765.64009	1.59449
763.71152	1.54828
761.78296	1.49256
759.85439	1.45486
757.92583	1.45735
755.99727	1.51283
754.06870	1.60415
752.14014	1.74732
750.21157	2.01760
748.28301	1.94295
746.35444	1.97506
744.42588	2.48233
742.49731	1.67859
740.56875	1.48092
738.64019	1.45166
736.71162	1.23090
734.78306	1.17784
732.85449	1.55713
730.92593	1.32261
728.99736	0.75979
727.06880	0.56582
725.14023	0.60290
723.21167	0.70286
721.28311	0.54587
719.35454	0.41829
717.42598	0.51992
715.49741	0.63430
713.56885	0.28137
711.64028	0.01693
709.71172	-0.03956
707.78315	0.18784
705.85459	1.19039
703.92603	4.22356
701.99746	4.21198
700.06890	4.20041
698.14033	0.24803
696.21177	0.09125
694.28320	0.04428
692.35464	0.01848
690.42607	0.03517
688.49751	0.07180
686.56895	0.13406
684.64038	0.38339
682.71182	0.64133
680.78325	0.31837
678.85469	0.18920
676.92612	0.30441
674.99756	0.36505
673.06899	0.21065
671.14043	0.15873
669.21187	0.20759
667.28330	0.18044
665.35474	0.10707
663.42617	0.12322
661.49761	0.24579
659.56904	0.31394
657.64048	0.30483
655.71191	0.23404
653.78335	0.16017
651.85479	0.18064
649.92622	0.26898
647.99766	0.32410
646.06909	0.37925
644.14053	0.49753
642.21196	0.48553
640.28340	0.41228
638.35483	0.34823
636.42627	0.24474
634.49771	0.16140
632.56914	0.15448
630.64058	0.28940
628.71201	0.76945
626.78345	3.76070
624.85488	0.70176
622.92632	0.33435
620.99775	0.21154
619.06919	0.25512
617.14062	0.33577
615.21206	0.30912
613.28350	0.24516
611.35493	0.18984
609.42637	0.18439
607.49780	0.25988
605.56924	0.35318
603.64067	0.33166
601.71211	0.26764
599.78354	0.23092
597.85498	0.22257
595.92642	0.25572
593.99785	0.31919
592.06929	0.35399
590.14072	0.35985
588.21216	0.40084
586.28359	0.49451
584.35503	0.55720
582.42646	0.45720
580.49790	0.30917
578.56934	0.23754
576.64077	0.26262
574.71221	0.39937
572.78364	0.40609
570.85508	0.25140
568.92651	0.14347
566.99795	0.11921
565.06938	0.19054
563.14082	0.29848
561.21226	0.35124
559.28369	0.39230
557.35513	0.43950
555.42656	0.32204
553.49800	0.20395
551.56943	0.16294
549.64087	0.18840
547.71230	0.24966
545.78374	0.30394
543.85518	0.50359
541.92661	3.25156
539.99805	0.61619
538.06948	0.34010
536.14092	0.26518
534.21235	0.23838
532.28379	0.24013
530.35522	0.23562
528.42666	0.22718
526.49810	0.21181
524.56953	0.19654
522.64097	0.19974
520.71240	0.24715
518.78384	0.37973
516.85527	0.55083
514.92671	0.50021
512.99814	0.35968
511.06958	0.29681
509.14102	0.32552
507.21245	0.48261
505.28389	0.62086
503.35532	0.38428
501.42676	0.26711
499.49819	0.27574
