3997.91411	0.06298
3995.98555	0.06342
3994.05698	0.06368
3992.12842	0.06422
3990.19985	0.06483
3988.27129	0.06520
3986.34272	0.06542
3984.41416	0.06542
3982.48560	0.06535
3980.55703	0.06554
3978.62847	0.06570
3976.69990	0.06553
3974.77134	0.06540
3972.84277	0.06570
3970.91421	0.06617
3968.98564	0.06644
3967.05708	0.06666
3965.12852	0.06677
3963.19995	0.06670
3961.27139	0.06704
3959.34282	0.06771
3957.41426	0.06797
3955.48569	0.06784
3953.55713	0.06753
3951.62856	0.06731
3949.70000	0.06751
3947.77144	0.06799
3945.84287	0.06816
3943.91431	0.06817
3941.98574	0.06844
3940.05718	0.06832
3938.12861	0.06769
3936.20005	0.06734
3934.27148	0.06758
3932.34292	0.06833
3930.41436	0.06897
3928.48579	0.06882
3926.55723	0.06851
3924.62866	0.06867
3922.70010	0.06864
3920.77153	0.06817
3918.84297	0.06803
3916.91440	0.06818
3914.98584	0.06761
3913.05728	0.06640
3911.12871	0.06587
3909.20015	0.06633
3907.27158	0.06721
3905.34302	0.06850
3903.41445	0.07009
3901.48589	0.07105
3899.55732	0.07093
3897.62876	0.06982
3895.70020	0.06854
3893.77163	0.06816
3891.84307	0.06863
3889.91450	0.06881
3887.98594	0.06828
3886.05737	0.06848
3884.12881	0.06960
3882.20024	0.07015
3880.27168	0.07005
3878.34312	0.06946
3876.41455	0.06884
3874.48599	0.06938
3872.55742	0.07090
3870.62886	0.07215
3868.70029	0.07260
3866.77173	0.07224
3864.84316	0.07241
3862.91460	0.07334
3860.98604	0.07313
3859.05747	0.07210
3857.12891	0.07222
3855.20034	0.07415
3853.27178	0.07764
3851.34321	0.07916
3849.41465	0.07671
3847.48608	0.07433
3845.55752	0.07368
3843.62896	0.07477
3841.70039	0.07678
3839.77183	0.07911
3837.84326	0.08108
3835.91470	0.08142
3833.98613	0.08082
3832.05757	0.08057
3830.12900	0.08082
3828.20044	0.08123
3826.27187	0.08187
3824.34331	0.08282
3822.41475	0.08458
3820.48618	0.08768
3818.55762	0.08902
3816.62905	0.08844
3814.70049	0.08833
3812.77192	0.08777
3810.84336	0.08721
3808.91479	0.08802
3806.98623	0.09011
3805.05767	0.09178
3803.12910	0.09306
3801.20054	0.09566
3799.27197	0.09759
3797.34341	0.09773
3795.41484	0.09805
3793.48628	0.09803
3791.55771	0.09786
3789.62915	0.09845
3787.70059	0.09967
3785.77202	0.10144
3783.84346	0.10368
3781.91489	0.10577
3779.98633	0.10790
3778.05776	0.11011
3776.12920	0.11104
3774.20063	0.11141
3772.27207	0.11280
3770.34351	0.11555
3768.41494	0.11888
3766.48638	0.12116
3764.55781	0.12279
3762.62925	0.12430
3760.70068	0.12613
3758.77212	0.12908
3756.84355	0.13217
3754.91499	0.13454
3752.98643	0.13769
3751.05786	0.14280
3749.12930	0.14771
3747.20073	0.14975
3745.27217	0.15180
3743.34360	0.15508
3741.41504	0.15773
3739.48647	0.15996
3737.55791	0.16345
3735.62935	0.16932
3733.70078	0.17627
3731.77222	0.18044
3729.84365	0.18252
3727.91509	0.18538
3725.98652	0.19081
3724.05796	0.19829
3722.12939	0.20584
3720.20083	0.21306
3718.27227	0.22017
3716.34370	0.22728
3714.41514	0.23446
3712.48657	0.24378
3710.55801	0.25820
3708.62944	0.27318
3706.70088	0.28394
3704.77231	0.29398
3702.84375	0.30670
3700.91519	0.32436
3698.98662	0.34353
3697.05806	0.36048
3695.12949	0.37830
3693.20093	0.39841
3691.27236	0.42128
3689.34380	0.45114
3687.41523	0.48693
3685.48667	0.51672
3683.55811	0.54220
3681.62954	0.57015
3679.70098	0.60198
3677.77241	0.63557
3675.84385	0.67561
3673.91528	0.72977
3671.98672	0.77242
3670.05815	0.81079
3668.12959	0.86570
3666.20103	0.91437
3664.27246	0.95383
3662.34390	0.99646
3660.41533	1.04292
3658.48677	1.08931
3656.55820	1.13948
3654.62964	1.19501
3652.70107	1.23978
3650.77251	1.27810
3648.84395	1.33456
3646.91538	1.40634
3644.98682	1.45599
3643.05825	1.49272
3641.12969	1.53120
3639.20112	1.57480
3637.27256	1.61880
3635.34399	1.66102
3633.41543	1.70363
3631.48687	1.74377
3629.55830	1.78410
3627.62974	1.83831
3625.70117	1.88860
3623.77261	1.92116
3621.84404	1.95249
3619.91548	1.98966
3617.98691	2.03606
3616.05835	2.08021
3614.12979	2.11580
3612.20122	2.15308
3610.27266	2.19110
3608.34409	2.23042
3606.41553	2.27326
3604.48696	2.31269
3602.55840	2.34675
3600.62983	2.38302
3598.70127	2.42300
3596.77271	2.46287
3594.84414	2.50395
3592.91558	2.54556
3590.98701	2.58284
3589.05845	2.61790
3587.12988	2.66254
3585.20132	2.71151
3583.27275	2.74994
3581.34419	2.78380
3579.41562	2.82134
3577.48706	2.86403
3575.55850	2.90817
3573.62993	2.95221
3571.70137	2.99350
3569.77280	3.03187
3567.84424	3.07471
3565.91567	3.13043
3563.98711	3.18267
3562.05854	3.22137
3560.12998	3.25896
3558.20142	3.30055
3556.27285	3.34519
3554.34429	3.38954
3552.41572	3.43437
3550.48716	3.48054
3548.55859	3.52547
3546.63003	3.57047
3544.70146	3.61945
3542.77290	3.66748
3540.84434	3.71195
3538.91577	3.75726
3536.98721	3.80287
3535.05864	3.84958
3533.13008	3.89827
3531.20151	3.94761
3529.27295	3.99571
3527.34438	4.04324
3525.41582	4.09066
3523.48726	4.13765
3521.55869	4.18543
3519.63013	4.23125
3517.70156	4.27405
3515.77300	4.31720
3513.84443	4.36503
3511.91587	4.41777
3509.98730	4.47258
3508.05874	4.52368
3506.13018	4.56859
3504.20161	4.61334
3502.27305	4.66190
3500.34448	4.70752
3498.41592	4.74569
3496.48735	4.78842
3494.55879	4.84202
3492.63022	4.89522
3490.70166	4.94031
3488.77310	4.98214
3486.84453	5.02841
3484.91597	5.08157
3482.98740	5.13265
3481.05884	5.17588
3479.13027	5.21658
3477.20171	5.25471
3475.27314	5.29637
3473.34458	5.35101
3471.41602	5.40317
3469.48745	5.44759
3467.55889	5.50288
3465.63032	5.56172
3463.70176	5.60812
3461.77319	5.65388
3459.84463	5.70907
3457.91606	5.76038
3455.98750	5.80665
3454.05894	5.86043
3452.13037	5.91870
3450.20181	5.97046
3448.27324	6.02249
3446.34468	6.09012
3444.41611	6.15294
3442.48755	6.19511
3440.55898	6.22519
3438.63042	6.24812
3436.70186	6.27497
3434.77329	6.31664
3432.84473	6.37395
3430.91616	6.43735
3428.98760	6.48924
3427.05903	6.53426
3425.13047	6.60047
3423.20190	6.66963
3421.27334	6.72627
3419.34478	6.77933
3417.41621	6.82013
3415.48765	6.84663
3413.55908	6.87342
3411.63052	6.92198
3409.70195	6.98222
3407.77339	7.04167
3405.84482	7.10632
3403.91626	7.17282
3401.98770	7.19733
3400.05913	7.19058
3398.13057	7.21806
3396.20200	7.28430
3394.27344	7.33806
3392.34487	7.33561
3390.41631	7.32909
3388.48774	7.35636
3386.55918	7.39729
3384.63062	7.43626
3382.70205	7.49883
3380.77349	7.58625
3378.84492	7.66231
3376.91636	7.71842
3374.98779	7.75409
3373.05923	7.80227
3371.13066	7.82410
3369.20210	7.81787
3367.27354	7.84081
3365.34497	7.88681
3363.41641	7.92173
3361.48784	7.91710
3359.55928	7.90671
3357.63071	7.93729
3355.70215	7.97248
3353.77358	7.91499
3351.84502	7.80819
3349.91646	7.75704
3347.98789	7.83536
3346.05933	7.98544
3344.13076	8.06024
3342.20220	8.07435
3340.27363	8.06259
3338.34507	8.02068
3336.41650	7.97794
3334.48794	7.99293
3332.55937	8.05477
3330.63081	8.12761
3328.70225	8.14372
3326.77368	8.07728
3324.84512	8.01772
3322.91655	7.98268
3320.98799	7.97531
3319.05942	8.01073
3317.13086	8.13110
3315.20229	8.24508
3313.27373	8.20088
3311.34517	8.13303
3309.41660	8.17488
3307.48804	8.23219
3305.55947	8.19044
3303.63091	8.10331
3301.70234	8.04803
3299.77378	8.07405
3297.84521	8.11898
3295.91665	8.12153
3293.98809	8.12953
3292.05952	8.19107
3290.13096	8.26612
3288.20239	8.21859
3286.27383	8.09093
3284.34526	8.00995
3282.41670	8.00429
3280.48813	8.03286
3278.55957	8.06438
3276.63101	8.09978
3274.70244	8.09969
3272.77388	8.07830
3270.84531	8.11378
3268.91675	8.18500
3266.98818	8.23814
3265.05962	8.24353
3263.13105	8.15521
3261.20249	8.07980
3259.27393	8.09374
3257.34536	8.10830
3255.41680	8.09976
3253.48823	8.11944
3251.55967	8.10768
3249.63110	8.03652
3247.70254	8.01316
3245.77397	8.09376
3243.84541	8.25571
3241.91685	8.43449
3239.98828	8.52955
3238.05972	8.43800
3236.13115	8.26092
3234.20259	8.17180
3232.27402	8.21985
3230.34546	8.33289
3228.41689	8.32685
3226.48833	8.17895
3224.55977	8.02947
3222.63120	7.98558
3220.70264	8.00000
3218.77407	7.94618
3216.84551	7.89160
3214.91694	7.90924
3212.98838	7.96893
3211.05981	8.02133
3209.13125	7.94944
3207.20269	7.79384
3205.27412	7.70699
3203.34556	7.70111
3201.41699	7.72299
3199.48843	7.68034
3197.55986	7.56366
3195.63130	7.50560
3193.70273	7.55288
3191.77417	7.62367
3189.84561	7.62011
3187.91704	7.53992
3185.98848	7.48042
3184.05991	7.45887
3182.13135	7.38494
3180.20278	7.27894
3178.27422	7.21830
3176.34565	7.16019
3174.41709	7.06728
3172.48853	7.01102
3170.55996	7.01031
3168.63140	6.99103
3166.70283	6.92614
3164.77427	6.85247
3162.84570	6.77952
3160.91714	6.69207
3158.98857	6.59662
3157.06001	6.49618
3155.13145	6.39719
3153.20288	6.33181
3151.27432	6.29627
3149.34575	6.24454
3147.41719	6.16324
3145.48862	6.08054
3143.56006	6.01304
3141.63149	5.95302
3139.70293	5.89386
3137.77437	5.83403
3135.84580	5.76853
3133.91724	5.69548
3131.98867	5.61129
3130.06011	5.52360
3128.13154	5.45167
3126.20298	5.39231
3124.27441	5.32952
3122.34585	5.26346
3120.41729	5.19642
3118.48872	5.12275
3116.56016	5.04775
3114.63159	4.97646
3112.70303	4.90064
3110.77446	4.81882
3108.84590	4.74485
3106.91733	4.68358
3104.98877	4.62233
3103.06021	4.55445
3101.13164	4.48341
3099.20308	4.41273
3097.27451	4.34186
3095.34595	4.27081
3093.41738	4.20356
3091.48882	4.13991
3089.56025	4.07646
3087.63169	4.01228
3085.70312	3.94725
3083.77456	3.88146
3081.84600	3.81709
3079.91743	3.75517
3077.98887	3.69457
3076.06030	3.63462
3074.13174	3.57546
3072.20317	3.51711
3070.27461	3.45891
3068.34604	3.40156
3066.41748	3.34553
3064.48892	3.28945
3062.56035	3.23318
3060.63179	3.17739
3058.70322	3.12232
3056.77466	3.06922
3054.84609	3.01771
3052.91753	2.96627
3050.98896	2.91565
3049.06040	2.86611
3047.13184	2.81670
3045.20327	2.76694
3043.27471	2.71727
3041.34614	2.66919
3039.41758	2.62272
3037.48901	2.57632
3035.56045	2.53066
3033.63188	2.48641
3031.70332	2.44153
3029.77476	2.39643
3027.84619	2.35364
3025.91763	2.31230
3023.98906	2.27064
3022.06050	2.22912
3020.13193	2.18831
3018.20337	2.14825
3016.27480	2.10918
3014.34624	2.07097
3012.41768	2.03330
3010.48911	1.99615
3008.56055	1.95998
3006.63198	1.92466
3004.70342	1.88964
3002.77485	1.85483
3000.84629	1.82041
2998.91772	1.78666
2996.98916	1.75381
2995.06060	1.72140
2993.13203	1.68903
2991.20347	1.65688
2989.27490	1.62510
2987.34634	1.59377
2985.41777	1.56327
2983.48921	1.53346
2981.56064	1.50386
2979.63208	1.47459
2977.70352	1.44585
2975.77495	1.41727
2973.84639	1.38868
2971.91782	1.36027
2969.98926	1.33222
2968.06069	1.30460
2966.13213	1.27745
2964.20356	1.25122
2962.27500	1.22607
2960.34644	1.20112
2958.41787	1.17632
2956.48931	1.15270
2954.56074	1.13056
2952.63218	1.10910
2950.70361	1.08778
2948.77505	1.06657
2946.84648	1.04524
2944.91792	1.02360
2942.98936	1.00176
2941.06079	0.97991
2939.13223	0.95810
2937.20366	0.93636
2935.27510	0.91473
2933.34653	0.89323
2931.41797	0.87220
2929.48940	0.85198
2927.56084	0.83258
2925.63228	0.81412
2923.70371	0.79693
2921.77515	0.78117
2919.84658	0.76690
2917.91802	0.75403
2915.98945	0.74214
2914.06089	0.73082
2912.13232	0.71962
2910.20376	0.70837
2908.27520	0.69714
2906.34663	0.68610
2904.41807	0.67527
2902.48950	0.66423
2900.56094	0.65307
2898.63237	0.64206
2896.70381	0.63095
2894.77524	0.61993
2892.84668	0.60938
2890.91812	0.59926
2888.98955	0.58931
2887.06099	0.57930
2885.13242	0.56921
2883.20386	0.55910
2881.27529	0.54899
2879.34673	0.53884
2877.41816	0.52834
2875.48960	0.51767
2873.56104	0.50755
2871.63247	0.49813
2869.70391	0.48894
2867.77534	0.47959
2865.84678	0.46992
2863.91821	0.46007
2861.98965	0.45017
2860.06108	0.44019
2858.13252	0.43024
2856.20396	0.42039
2854.27539	0.41098
2852.34683	0.40270
2850.41826	0.39577
2848.48970	0.39018
2846.56113	0.38590
2844.63257	0.38249
2842.70400	0.37940
2840.77544	0.37623
2838.84687	0.37253
2836.91831	0.36818
2834.98975	0.36354
2833.06118	0.35893
2831.13262	0.35420
2829.20405	0.34922
2827.27549	0.34423
2825.34692	0.33949
2823.41836	0.33475
2821.48979	0.32974
2819.56123	0.32475
2817.63267	0.31987
2815.70410	0.31486
2813.77554	0.30988
2811.84697	0.30518
2809.91841	0.30073
2807.98984	0.29635
2806.06128	0.29187
2804.13271	0.28738
2802.20415	0.28298
2800.27559	0.27875
2798.34702	0.27468
2796.41846	0.27062
2794.48989	0.26667
2792.56133	0.26286
2790.63276	0.25904
2788.70420	0.25525
2786.77563	0.25163
2784.84707	0.24817
2782.91851	0.24467
2780.98994	0.24120
2779.06138	0.23796
2777.13281	0.23485
2775.20425	0.23164
2773.27568	0.22831
2771.34712	0.22505
2769.41855	0.22208
2767.48999	0.21927
2765.56143	0.21647
2763.63286	0.21373
2761.70430	0.21108
2759.77573	0.20849
2757.84717	0.20582
2755.91860	0.20310
2753.99004	0.20050
2752.06147	0.19813
2750.13291	0.19584
2748.20435	0.19355
2746.27578	0.19127
2744.34722	0.18908
2742.41865	0.18698
2740.49009	0.18491
2738.56152	0.18287
2736.63296	0.18085
2734.70439	0.17879
2732.77583	0.17670
2730.84727	0.17467
2728.91870	0.17284
2726.99014	0.17127
2725.06157	0.16970
2723.13301	0.16794
2721.20444	0.16620
2719.27588	0.16469
2717.34731	0.16320
2715.41875	0.16161
2713.49019	0.16005
2711.56162	0.15849
2709.63306	0.15694
2707.70449	0.15557
2705.77593	0.15446
2703.84736	0.15342
2701.91880	0.15228
2699.99023	0.15102
2698.06167	0.14972
2696.13311	0.14841
2694.20454	0.14712
2692.27598	0.14595
2690.34741	0.14496
2688.41885	0.14409
2686.49028	0.14323
2684.56172	0.14235
2682.63315	0.14147
2680.70459	0.14060
2678.77603	0.13977
2676.84746	0.13898
2674.91890	0.13823
2672.99033	0.13739
2671.06177	0.13641
2669.13320	0.13553
2667.20464	0.13498
2665.27607	0.13449
2663.34751	0.13385
2661.41895	0.13324
2659.49038	0.13272
2657.56182	0.13221
2655.63325	0.13164
2653.70469	0.13111
2651.77612	0.13080
2649.84756	0.13056
2647.91899	0.13012
2645.99043	0.12965
2644.06187	0.12932
2642.13330	0.12903
2640.20474	0.12872
2638.27617	0.12837
2636.34761	0.12808
2634.41904	0.12792
2632.49048	0.12780
2630.56191	0.12760
2628.63335	0.12738
2626.70479	0.12719
2624.77622	0.12702
2622.84766	0.12684
2620.91909	0.12674
2618.99053	0.12679
2617.06196	0.12691
2615.13340	0.12700
2613.20483	0.12697
2611.27627	0.12692
2609.34771	0.12700
2607.41914	0.12714
2605.49058	0.12719
2603.56201	0.12723
2601.63345	0.12741
2599.70488	0.12762
2597.77632	0.12781
2595.84775	0.12804
2593.91919	0.12834
2591.99062	0.12862
2590.06206	0.12887
2588.13350	0.12914
2586.20493	0.12949
2584.27637	0.12992
2582.34780	0.13032
2580.41924	0.13067
2578.49067	0.13098
2576.56211	0.13132
2574.63354	0.13175
2572.70498	0.13223
2570.77642	0.13266
2568.84785	0.13305
2566.91929	0.13349
2564.99072	0.13402
2563.06216	0.13468
2561.13359	0.13539
2559.20503	0.13595
2557.27646	0.13641
2555.34790	0.13696
2553.41934	0.13764
2551.49077	0.13831
2549.56221	0.13887
2547.63364	0.13941
2545.70508	0.14006
2543.77651	0.14081
2541.84795	0.14152
2539.91938	0.14224
2537.99082	0.14293
2536.06226	0.14358
2534.13369	0.14433
2532.20513	0.14514
2530.27656	0.14591
2528.34800	0.14664
2526.41943	0.14733
2524.49087	0.14802
2522.56230	0.14880
2520.63374	0.14975
2518.70518	0.15071
2516.77661	0.15148
2514.84805	0.15217
2512.91948	0.15295
2510.99092	0.15388
2509.06235	0.15489
2507.13379	0.15582
2505.20522	0.15661
2503.27666	0.15740
2501.34810	0.15834
2499.41953	0.15937
2497.49097	0.16034
2495.56240	0.16124
2493.63384	0.16209
2491.70527	0.16295
2489.77671	0.16387
2487.84814	0.16486
2485.91958	0.16584
2483.99102	0.16680
2482.06245	0.16776
2480.13389	0.16871
2478.20532	0.16963
2476.27676	0.17056
2474.34819	0.17155
2472.41963	0.17254
2470.49106	0.17346
2468.56250	0.17437
2466.63394	0.17532
2464.70537	0.17629
2462.77681	0.17722
2460.84824	0.17823
2458.91968	0.17936
2456.99111	0.18046
2455.06255	0.18146
2453.13398	0.18243
2451.20542	0.18341
2449.27686	0.18450
2447.34829	0.18570
2445.41973	0.18693
2443.49116	0.18804
2441.56260	0.18899
2439.63403	0.18995
2437.70547	0.19114
2435.77690	0.19242
2433.84834	0.19354
2431.91978	0.19459
2429.99121	0.19572
2428.06265	0.19687
2426.13408	0.19805
2424.20552	0.19918
2422.27695	0.20024
2420.34839	0.20136
2418.41982	0.20255
2416.49126	0.20372
2414.56270	0.20486
2412.63413	0.20604
2410.70557	0.20730
2408.77700	0.20859
2406.84844	0.20979
2404.91987	0.21100
2402.99131	0.21240
2401.06274	0.21390
2399.13418	0.21527
2397.20562	0.21660
2395.27705	0.21805
2393.34849	0.21940
2391.41992	0.22059
2389.49136	0.22187
2387.56279	0.22324
2385.63423	0.22477
2383.70566	0.22658
2381.77710	0.22856
2379.84854	0.23085
2377.91997	0.23344
2375.99141	0.23580
2374.06284	0.23808
2372.13428	0.24084
2370.20571	0.24399
2368.27715	0.24752
2366.34858	0.25165
2364.42002	0.25559
2362.49146	0.25861
2360.56289	0.26080
2358.63433	0.26227
2356.70576	0.26297
2354.77720	0.26246
2352.84863	0.26153
2350.92007	0.26123
2348.99150	0.26156
2347.06294	0.26264
2345.13437	0.26511
2343.20581	0.26853
2341.27725	0.27088
2339.34868	0.27234
2337.42012	0.27441
2335.49155	0.27676
2333.56299	0.27801
2331.63442	0.27870
2329.70586	0.27975
2327.77729	0.28122
2325.84873	0.28285
2323.92017	0.28432
2321.99160	0.28546
2320.06304	0.28612
2318.13447	0.28660
2316.20591	0.28742
2314.27734	0.28879
2312.34878	0.29052
2310.42021	0.29213
2308.49165	0.29347
2306.56309	0.29481
2304.63452	0.29623
2302.70596	0.29776
2300.77739	0.29946
2298.84883	0.30116
2296.92026	0.30280
2294.99170	0.30448
2293.06313	0.30623
2291.13457	0.30804
2289.20601	0.30990
2287.27744	0.31175
2285.34888	0.31359
2283.42031	0.31553
2281.49175	0.31757
2279.56318	0.31960
2277.63462	0.32160
2275.70605	0.32363
2273.77749	0.32568
2271.84893	0.32783
2269.92036	0.33006
2267.99180	0.33229
2266.06323	0.33445
2264.13467	0.33662
2262.20610	0.33884
2260.27754	0.34101
2258.34897	0.34319
2256.42041	0.34540
2254.49185	0.34748
2252.56328	0.34951
2250.63472	0.35162
2248.70615	0.35384
2246.77759	0.35605
2244.84902	0.35820
2242.92046	0.36048
2240.99189	0.36288
2239.06333	0.36517
2237.13477	0.36739
2235.20620	0.36964
2233.27764	0.37200
2231.34907	0.37445
2229.42051	0.37681
2227.49194	0.37902
2225.56338	0.38128
2223.63481	0.38359
2221.70625	0.38571
2219.77769	0.38772
2217.84912	0.38988
2215.92056	0.39215
2213.99199	0.39442
2212.06343	0.39668
2210.13486	0.39895
2208.20630	0.40119
2206.27773	0.40329
2204.34917	0.40537
2202.42061	0.40757
2200.49204	0.40966
2198.56348	0.41157
2196.63491	0.41358
2194.70635	0.41568
2192.77778	0.41767
2190.84922	0.41958
2188.92065	0.42154
2186.99209	0.42352
2185.06353	0.42539
2183.13496	0.42718
2181.20640	0.42894
2179.27783	0.43060
2177.34927	0.43214
2175.42070	0.43368
2173.49214	0.43531
2171.56357	0.43690
2169.63501	0.43839
2167.70645	0.43985
2165.77788	0.44116
2163.84932	0.44228
2161.92075	0.44344
2159.99219	0.44466
2158.06362	0.44583
2156.13506	0.44689
2154.20649	0.44781
2152.27793	0.44861
2150.34937	0.44934
2148.42080	0.45005
2146.49224	0.45068
2144.56367	0.45125
2142.63511	0.45178
2140.70654	0.45225
2138.77798	0.45259
2136.84941	0.45282
2134.92085	0.45305
2132.99229	0.45314
2131.06372	0.45298
2129.13516	0.45273
2127.20659	0.45262
2125.27803	0.45251
2123.34946	0.45220
2121.42090	0.45175
2119.49233	0.45129
2117.56377	0.45077
2115.63521	0.45017
2113.70664	0.44950
2111.77808	0.44866
2109.84951	0.44773
2107.92095	0.44679
2105.99238	0.44572
2104.06382	0.44446
2102.13525	0.44314
2100.20669	0.44183
2098.27812	0.44049
2096.34956	0.43910
2094.42100	0.43763
2092.49243	0.43613
2090.56387	0.43460
2088.63530	0.43298
2086.70674	0.43125
2084.77817	0.42939
2082.84961	0.42748
2080.92104	0.42558
2078.99248	0.42364
2077.06392	0.42156
2075.13535	0.41935
2073.20679	0.41716
2071.27822	0.41501
2069.34966	0.41290
2067.42109	0.41074
2065.49253	0.40853
2063.56396	0.40626
2061.63540	0.40394
2059.70684	0.40149
2057.77827	0.39882
2055.84971	0.39613
2053.92114	0.39359
2051.99258	0.39109
2050.06401	0.38850
2048.13545	0.38591
2046.20688	0.38326
2044.27832	0.38057
2042.34976	0.37789
2040.42119	0.37521
2038.49263	0.37248
2036.56406	0.36977
2034.63550	0.36716
2032.70693	0.36453
2030.77837	0.36181
2028.84980	0.35904
2026.92124	0.35623
2024.99268	0.35337
2023.06411	0.35058
2021.13555	0.34787
2019.20698	0.34522
2017.27842	0.34262
2015.34985	0.33991
2013.42129	0.33705
2011.49272	0.33420
2009.56416	0.33144
2007.63560	0.32869
2005.70703	0.32594
2003.77847	0.32332
2001.84990	0.32080
1999.92134	0.31817
1997.99277	0.31540
1996.06421	0.31272
1994.13564	0.31030
1992.20708	0.30795
1990.27852	0.30539
1988.34995	0.30280
1986.42139	0.30031
1984.49282	0.29789
1982.56426	0.29551
1980.63569	0.29312
1978.70713	0.29078
1976.77856	0.28847
1974.85000	0.28618
1972.92144	0.28393
1970.99287	0.28175
1969.06431	0.27976
1967.13574	0.27785
1965.20718	0.27574
1963.27861	0.27359
1961.35005	0.27159
1959.42148	0.26965
1957.49292	0.26780
1955.56436	0.26603
1953.63579	0.26419
1951.70723	0.26235
1949.77866	0.26070
1947.85010	0.25921
1945.92153	0.25774
1943.99297	0.25632
1942.06440	0.25492
1940.13584	0.25331
1938.20728	0.25166
1936.27871	0.25021
1934.35015	0.24894
1932.42158	0.24779
1930.49302	0.24662
1928.56445	0.24547
1926.63589	0.24434
1924.70732	0.24337
1922.77876	0.24251
1920.85020	0.24155
1918.92163	0.24067
1916.99307	0.23982
1915.06450	0.23870
1913.13594	0.23764
1911.20737	0.23699
1909.27881	0.23646
1907.35024	0.23570
1905.42168	0.23478
1903.49312	0.23401
1901.56455	0.23339
1899.63599	0.23284
1897.70742	0.23245
1895.77886	0.23217
1893.85029	0.23183
1891.92173	0.23141
1889.99316	0.23121
1888.06460	0.23100
1886.13604	0.23058
1884.20747	0.23021
1882.27891	0.22996
1880.35034	0.22975
1878.42178	0.22965
1876.49321	0.22965
1874.56465	0.22965
1872.63608	0.22978
1870.70752	0.23022
1868.77896	0.23103
1866.85039	0.23138
1864.92183	0.23097
1862.99326	0.23067
1861.06470	0.23078
1859.13613	0.23114
1857.20757	0.23148
1855.27900	0.23183
1853.35044	0.23221
1851.42187	0.23270
1849.49331	0.23339
1847.56475	0.23426
1845.63618	0.23527
1843.70762	0.23634
1841.77905	0.23696
1839.85049	0.23723
1837.92192	0.23793
1835.99336	0.23884
1834.06479	0.23966
1832.13623	0.24066
1830.20767	0.24232
1828.27910	0.24397
1826.35054	0.24492
1824.42197	0.24605
1822.49341	0.24721
1820.56484	0.24828
1818.63628	0.24951
1816.70771	0.25099
1814.77915	0.25258
1812.85059	0.25445
1810.92202	0.25669
1808.99346	0.25886
1807.06489	0.26071
1805.13633	0.26251
1803.20776	0.26469
1801.27920	0.26736
1799.35063	0.27031
1797.42207	0.27283
1795.49351	0.27526
1793.56494	0.27831
1791.63638	0.28212
1789.70781	0.28529
1787.77925	0.28753
1785.85068	0.29054
1783.92212	0.29430
1781.99355	0.29827
1780.06499	0.30250
1778.13643	0.30681
1776.20786	0.31084
1774.27930	0.31526
1772.35073	0.32136
1770.42217	0.32780
1768.49360	0.33284
1766.56504	0.33764
1764.63647	0.34264
1762.70791	0.34834
1760.77935	0.35573
1758.85078	0.36253
1756.92222	0.36926
1754.99365	0.37659
1753.06509	0.38313
1751.13652	0.39115
1749.20796	0.40172
1747.27939	0.41191
1745.35083	0.42046
1743.42227	0.42960
1741.49370	0.44000
1739.56514	0.45260
1737.63657	0.46526
1735.70801	0.47619
1733.77944	0.49311
1731.85088	0.51364
1729.92231	0.52924
1727.99375	0.54470
1726.06519	0.56116
1724.13662	0.57943
1722.20806	0.59934
1720.27949	0.61751
1718.35093	0.63890
1716.42236	0.67162
1714.49380	0.70238
1712.56523	0.72617
1710.63667	0.74908
1708.70811	0.77390
1706.77954	0.80238
1704.85098	0.83680
1702.92241	0.86716
1700.99385	0.89597
1699.06528	0.93912
1697.13672	0.97886
1695.20815	1.01889
1693.27959	1.05645
1691.35103	1.08577
1689.42246	1.12028
1687.49390	1.15692
1685.56533	1.19132
1683.63677	1.24490
1681.70820	1.30086
1679.77964	1.33546
1677.85107	1.36867
1675.92251	1.40718
1673.99395	1.45533
1672.06538	1.49722
1670.13682	1.53691
1668.20825	1.58887
1666.27969	1.62931
1664.35112	1.66218
1662.42256	1.70323
1660.49399	1.75040
1658.56543	1.78716
1656.63687	1.81779
1654.70830	1.84673
1652.77974	1.89712
1650.85117	1.95074
1648.92261	1.97340
1646.99404	2.00499
1645.06548	2.04081
1643.13691	2.06378
1641.20835	2.07911
1639.27979	2.09420
1637.35122	2.10521
1635.42266	2.11029
1633.49409	2.10748
1631.56553	2.09737
1629.63696	2.08513
1627.70840	2.06404
1625.77983	2.03929
1623.85127	2.00753
1621.92271	1.96708
1619.99414	1.92975
1618.06558	1.89227
1616.13701	1.83630
1614.20845	1.77796
1612.27988	1.73369
1610.35132	1.68701
1608.42275	1.63631
1606.49419	1.58659
1604.56562	1.54027
1602.63706	1.49404
1600.70850	1.44771
1598.77993	1.40471
1596.85137	1.36460
1594.92280	1.32603
1592.99424	1.28863
1591.06567	1.25412
1589.13711	1.22126
1587.20854	1.18990
1585.27998	1.16014
1583.35142	1.13166
1581.42285	1.10532
1579.49429	1.08283
1577.56572	1.06235
1575.63716	1.03597
1573.70859	1.01214
1571.78003	0.99676
1569.85146	0.97981
1567.92290	0.95910
1565.99434	0.94216
1564.06577	0.92777
1562.13721	0.91585
1560.20864	0.90620
1558.28008	0.88805
1556.35151	0.86939
1554.42295	0.85797
1552.49438	0.84720
1550.56582	0.83671
1548.63726	0.82586
1546.70869	0.81647
1544.78013	0.80850
1542.85156	0.80076
1540.92300	0.79233
1538.99443	0.78019
1537.06587	0.77082
1535.13730	0.76469
1533.20874	0.75739
1531.28018	0.74961
1529.35161	0.74397
1527.42305	0.73884
1525.49448	0.73361
1523.56592	0.72899
1521.63735	0.72376
1519.70879	0.71711
1517.78022	0.71163
1515.85166	0.70625
1513.92310	0.70091
1511.99453	0.69683
1510.06597	0.69378
1508.13740	0.69156
1506.20884	0.68718
1504.28027	0.68149
1502.35171	0.67781
1500.42314	0.67500
1498.49458	0.67239
1496.56602	0.66937
1494.63745	0.66604
1492.70889	0.66344
1490.78032	0.66166
1488.85176	0.65933
1486.92319	0.65578
1484.99463	0.65232
1483.06606	0.64959
1481.13750	0.64710
1479.20894	0.64442
1477.28037	0.64188
1475.35181	0.63959
1473.42324	0.63690
1471.49468	0.63250
1469.56611	0.62797
1467.63755	0.62474
1465.70898	0.62219
1463.78042	0.61964
1461.85186	0.61747
1459.92329	0.61628
1457.99473	0.61528
1456.06616	0.61247
1454.13760	0.60932
1452.20903	0.60731
1450.28047	0.60570
1448.35190	0.60424
1446.42334	0.60247
1444.49478	0.60057
1442.56621	0.59922
1440.63765	0.59840
1438.70908	0.59785
1436.78052	0.59721
1434.85195	0.59593
1432.92339	0.59445
1430.99482	0.59328
1429.06626	0.59210
1427.13770	0.59078
1425.20913	0.58951
1423.28057	0.58818
1421.35200	0.58685
1419.42344	0.58563
1417.49487	0.58394
1415.56631	0.58187
1413.63774	0.58021
1411.70918	0.57881
1409.78062	0.57740
1407.85205	0.57615
1405.92349	0.57511
1403.99492	0.57381
1402.06636	0.57213
1400.13779	0.57066
1398.20923	0.56954
1396.28066	0.56850
1394.35210	0.56718
1392.42354	0.56554
1390.49497	0.56409
1388.56641	0.56300
1386.63784	0.56177
1384.70928	0.56021
1382.78071	0.55887
1380.85215	0.55797
1378.92358	0.55734
1376.99502	0.55679
1375.06646	0.55620
1373.13789	0.55528
1371.20933	0.55410
1369.28076	0.55304
1367.35220	0.55208
1365.42363	0.55127
1363.49507	0.55079
1361.56650	0.55025
1359.63794	0.54913
1357.70937	0.54796
1355.78081	0.54707
1353.85225	0.54630
1351.92368	0.54546
1349.99512	0.54452
1348.06655	0.54357
1346.13799	0.54268
1344.20942	0.54184
1342.28086	0.54112
1340.35229	0.54058
1338.42373	0.53992
1336.49517	0.53889
1334.56660	0.53779
1332.63804	0.53677
1330.70947	0.53577
1328.78091	0.53488
1326.85234	0.53408
1324.92378	0.53323
1322.99521	0.53232
1321.06665	0.53151
1319.13809	0.53083
1317.20952	0.53009
1315.28096	0.52918
1313.35239	0.52814
1311.42383	0.52705
1309.49526	0.52603
1307.56670	0.52517
1305.63813	0.52439
1303.70957	0.52343
1301.78101	0.52232
1299.85244	0.52132
1297.92388	0.52042
1295.99531	0.51948
1294.06675	0.51852
1292.13818	0.51766
1290.20962	0.51694
1288.28105	0.51633
1286.35249	0.51561
1284.42393	0.51482
1282.49536	0.51410
1280.56680	0.51339
1278.63823	0.51263
1276.70967	0.51193
1274.78110	0.51126
1272.85254	0.51055
1270.92397	0.50973
1268.99541	0.50879
1267.06685	0.50794
1265.13828	0.50720
1263.20972	0.50650
1261.28115	0.50591
1259.35259	0.50550
1257.42402	0.50511
1255.49546	0.50453
1253.56689	0.50388
1251.63833	0.50333
1249.70977	0.50288
1247.78120	0.50245
1245.85264	0.50196
1243.92407	0.50137
1241.99551	0.50069
1240.06694	0.49992
1238.13838	0.49914
1236.20981	0.49831
1234.28125	0.49752
1232.35269	0.49692
1230.42412	0.49630
1228.49556	0.49553
1226.56699	0.49481
1224.63843	0.49415
1222.70986	0.49338
1220.78130	0.49251
1218.85273	0.49161
1216.92417	0.49075
1214.99561	0.48995
1213.06704	0.48917
1211.13848	0.48839
1209.20991	0.48755
1207.28135	0.48664
1205.35278	0.48575
1203.42422	0.48496
1201.49565	0.48417
1199.56709	0.48323
1197.63853	0.48222
1195.70996	0.48127
1193.78140	0.48026
1191.85283	0.47914
1189.92427	0.47816
1187.99570	0.47730
1186.06714	0.47637
1184.13857	0.47528
1182.21001	0.47416
1180.28145	0.47312
1178.35288	0.47213
1176.42432	0.47121
1174.49575	0.47030
1172.56719	0.46940
1170.63862	0.46861
1168.71006	0.46785
1166.78149	0.46696
1164.85293	0.46606
1162.92437	0.46526
1160.99580	0.46440
1159.06724	0.46350
1157.13867	0.46276
1155.21011	0.46202
1153.28154	0.46121
1151.35298	0.46048
1149.42441	0.45982
1147.49585	0.45904
1145.56729	0.45818
1143.63872	0.45733
1141.71016	0.45639
1139.78159	0.45556
1137.85303	0.45500
1135.92446	0.45442
1133.99590	0.45355
1132.06733	0.45254
1130.13877	0.45163
1128.21021	0.45083
1126.28164	0.45003
1124.35308	0.44921
1122.42451	0.44840
1120.49595	0.44777
1118.56738	0.44727
1116.63882	0.44668
1114.71025	0.44614
1112.78169	0.44579
1110.85312	0.44551
1108.92456	0.44537
1106.99600	0.44534
1105.06743	0.44520
1103.13887	0.44493
1101.21030	0.44461
1099.28174	0.44423
1097.35317	0.44386
1095.42461	0.44353
1093.49604	0.44311
1091.56748	0.44259
1089.63892	0.44228
1087.71035	0.44229
1085.78179	0.44224
1083.85322	0.44190
1081.92466	0.44144
1079.99609	0.44115
1078.06753	0.44101
1076.13896	0.44079
1074.21040	0.44071
1072.28184	0.44088
1070.35327	0.44106
1068.42471	0.44133
1066.49614	0.44172
1064.56758	0.44198
1062.63901	0.44212
1060.71045	0.44240
1058.78188	0.44266
1056.85332	0.44279
1054.92476	0.44294
1052.99619	0.44307
1051.06763	0.44328
1049.13906	0.44376
1047.21050	0.44419
1045.28193	0.44440
1043.35337	0.44472
1041.42480	0.44520
1039.49624	0.44558
1037.56768	0.44605
1035.63911	0.44685
1033.71055	0.44779
1031.78198	0.44861
1029.85342	0.44941
1027.92485	0.45048
1025.99629	0.45171
1024.06772	0.45277
1022.13916	0.45374
1020.21060	0.45473
1018.28203	0.45589
1016.35347	0.45729
1014.42490	0.45875
1012.49634	0.46011
1010.56777	0.46145
1008.63921	0.46296
1006.71064	0.46472
1004.78208	0.46650
1002.85352	0.46828
1000.92495	0.47021
998.99639	0.47215
997.06782	0.47396
995.13926	0.47593
993.21069	0.47815
991.28213	0.48033
989.35356	0.48256
987.42500	0.48510
985.49644	0.48790
983.56787	0.49077
981.63931	0.49337
979.71074	0.49578
977.78218	0.49835
975.85361	0.50126
973.92505	0.50452
971.99648	0.50807
970.06792	0.51163
968.13936	0.51521
966.21079	0.51895
964.28223	0.52287
962.35366	0.52692
960.42510	0.53105
958.49653	0.53535
956.56797	0.53974
954.63940	0.54418
952.71084	0.54898
950.78228	0.55403
948.85371	0.55894
946.92515	0.56384
944.99658	0.56894
943.06802	0.57414
941.13945	0.57951
939.21089	0.58539
937.28232	0.59151
935.35376	0.59741
933.42520	0.60330
931.49663	0.60943
929.56807	0.61596
927.63950	0.62307
925.71094	0.63070
923.78237	0.63850
921.85381	0.64587
919.92524	0.65271
917.99668	0.65970
916.06812	0.66736
914.13955	0.67587
912.21099	0.68469
910.28242	0.69326
908.35386	0.70225
906.42529	0.71177
904.49673	0.72118
902.56816	0.73035
900.63960	0.73924
898.71104	0.74814
896.78247	0.75798
894.85391	0.76871
892.92534	0.77865
890.99678	0.78756
889.06821	0.79731
887.13965	0.80854
885.21108	0.82008
883.28252	0.83121
881.35396	0.84205
879.42539	0.85271
877.49683	0.86323
875.56826	0.87404
873.63970	0.88489
871.71113	0.89536
869.78257	0.90621
867.85400	0.91846
865.92544	0.93169
863.99687	0.94310
862.06831	0.95238
860.13975	0.96312
858.21118	0.97597
856.28262	0.98832
854.35405	0.99938
852.42549	1.00999
850.49692	1.02132
848.56836	1.03441
846.63979	1.04773
844.71123	1.05843
842.78267	1.06695
840.85410	1.07683
838.92554	1.08922
836.99697	1.10221
835.06841	1.11572
833.13984	1.12797
831.21128	1.13465
829.28271	1.14300
827.35415	1.16055
825.42559	1.17683
823.49702	1.18778
821.56846	1.20078
819.63989	1.21408
817.71133	1.22363
815.78276	1.22804
813.85420	1.23348
811.92563	1.25360
809.99707	1.28482
808.06851	1.30554
806.13994	1.30562
804.21138	1.29994
802.28281	1.31147
800.35425	1.33712
798.42568	1.35908
796.49712	1.38326
794.56855	1.42888
792.63999	1.48061
790.71143	1.48340
788.78286	1.44487
786.85430	1.43344
784.92573	1.48357
782.99717	1.53340
781.06860	1.51901
779.14004	1.50421
777.21147	1.54361
775.28291	1.61094
773.35435	1.60328
771.42578	1.59323
769.49722	1.71953
767.56865	1.93422
765.64009	1.97841
763.71152	2.09695
761.78296	2.37129
759.85439	1.86268
757.92583	1.50052
755.99727	1.34014
754.06870	1.28745
752.14014	1.30512
750.21157	1.40079
748.28301	1.48460
746.35444	1.36902
744.42588	1.24302
742.49731	1.15779
740.56875	1.08383
738.64019	1.06273
736.71162	1.05895
734.78306	1.10492
732.85449	1.31637
730.92593	1.66064
728.99736	1.09144
727.06880	0.66086
725.14023	0.49968
723.21167	0.47179
721.28311	0.29186
719.35454	0.04250
717.42598	-0.04579
715.49741	0.05079
713.56885	0.42000
711.64028	4.26984
709.71172	1.75321
707.78315	0.18018
705.85459	0.05077
703.92603	0.22227
701.99746	0.51713
700.06890	0.48206
698.14033	0.21500
696.21177	0.18524
694.28320	0.29168
692.35464	0.38499
690.42607	0.47567
688.49751	0.44941
686.56895	0.34907
684.64038	0.37212
682.71182	0.43423
680.78325	0.45209
678.85469	0.29226
676.92612	0.07411
674.99756	0.03218
673.06899	0.15617
671.14043	0.26776
669.21187	0.20076
667.28330	0.10838
665.35474	0.14842
663.42617	0.51927
661.49761	3.96899
659.56904	3.95741
657.64048	0.52437
655.71191	0.31063
653.78335	0.22003
651.85479	0.16554
649.92622	0.15254
647.99766	0.14756
646.06909	0.18281
644.14053	0.31179
642.21196	0.51608
640.28340	0.41598
638.35483	0.19173
636.42627	0.11033
634.49771	0.13600
632.56914	0.24955
630.64058	0.28943
628.71201	0.16430
626.78345	0.10791
624.85488	0.15608
622.92632	0.18675
620.99775	0.14832
619.06919	0.09059
617.14062	0.06284
615.21206	0.13780
613.28350	0.22513
611.35493	0.22288
609.42637	0.20259
607.49780	0.18436
605.56924	0.12348
603.64067	0.09775
601.71211	0.13000
599.78354	0.13189
597.85498	0.16535
595.92642	0.28646
593.99785	0.38884
592.06929	0.29877
590.14072	0.19844
588.21216	0.15082
586.28359	0.14209
584.35503	0.17887
582.42646	0.21160
580.49790	0.23137
578.56934	0.29185
576.64077	0.37405
574.71221	0.39131
572.78364	0.29766
570.85508	0.24635
568.92651	0.33235
566.99795	0.35456
565.06938	0.15568
563.14082	0.06502
561.21226	0.14479
559.28369	0.26458
557.35513	0.27176
555.42656	0.27046
553.49800	0.25227
551.56943	0.15398
549.64087	0.10992
547.71230	0.16204
545.78374	0.24289
543.85518	0.23367
541.92661	0.19239
539.99805	0.16440
538.06948	0.16457
536.14092	0.18179
534.21235	0.17379
532.28379	0.16537
530.35522	0.16838
528.42666	0.19195
526.49810	0.27708
524.56953	0.43025
522.64097	0.52182
520.71240	0.34879
518.78384	0.22698
516.85527	0.18138
514.92671	0.15527
512.99814	0.13850
511.06958	0.13181
509.14102	0.10137
507.21245	0.08882
505.28389	0.12488
503.35532	0.19006
501.42676	0.24532
499.49819	0.22765
