3997.91411	0.07461
3995.98555	0.07510
3994.05698	0.07538
3992.12842	0.07545
3990.19985	0.07567
3988.27129	0.07616
3986.34272	0.07659
3984.41416	0.07700
3982.48560	0.07751
3980.55703	0.07786
3978.62847	0.07796
3976.69990	0.07802
3974.77134	0.07816
3972.84277	0.07845
3970.91421	0.07876
3968.98564	0.07898
3967.05708	0.07906
3965.12852	0.07906
3963.19995	0.07925
3961.27139	0.07951
3959.34282	0.07943
3957.41426	0.07904
3955.48569	0.07878
3953.55713	0.07873
3951.62856	0.07857
3949.70000	0.07831
3947.77144	0.07843
3945.84287	0.07887
3943.91431	0.07905
3941.98574	0.07912
3940.05718	0.07910
3938.12861	0.07891
3936.20005	0.07893
3934.27148	0.07918
3932.34292	0.07929
3930.41436	0.07932
3928.48579	0.07927
3926.55723	0.07900
3924.62866	0.07881
3922.70010	0.07878
3920.77153	0.07856
3918.84297	0.07833
3916.91440	0.07849
3914.98584	0.07873
3913.05728	0.07856
3911.12871	0.07822
3909.20015	0.07812
3907.27158	0.07813
3905.34302	0.07798
3903.41445	0.07796
3901.48589	0.07821
3899.55732	0.07827
3897.62876	0.07844
3895.70020	0.07864
3893.77163	0.07840
3891.84307	0.07800
3889.91450	0.07786
3887.98594	0.07764
3886.05737	0.07735
3884.12881	0.07743
3882.20024	0.07765
3880.27168	0.07783
3878.34312	0.07828
3876.41455	0.07843
3874.48599	0.07806
3872.55742	0.07787
3870.62886	0.07801
3868.70029	0.07823
3866.77173	0.07856
3864.84316	0.07892
3862.91460	0.07957
3860.98604	0.08052
3859.05747	0.08109
3857.12891	0.08105
3855.20034	0.08097
3853.27178	0.08148
3851.34321	0.08233
3849.41465	0.08286
3847.48608	0.08347
3845.55752	0.08412
3843.62896	0.08444
3841.70039	0.08424
3839.77183	0.08388
3837.84326	0.08435
3835.91470	0.08569
3833.98613	0.08668
3832.05757	0.08752
3830.12900	0.08869
3828.20044	0.08958
3826.27187	0.09001
3824.34331	0.09037
3822.41475	0.09096
3820.48618	0.09225
3818.55762	0.09343
3816.62905	0.09402
3814.70049	0.09514
3812.77192	0.09642
3810.84336	0.09721
3808.91479	0.09781
3806.98623	0.09877
3805.05767	0.09997
3803.12910	0.10049
3801.20054	0.10132
3799.27197	0.10316
3797.34341	0.10458
3795.41484	0.10600
3793.48628	0.10745
3791.55771	0.10851
3789.62915	0.10966
3787.70059	0.11104
3785.77202	0.11255
3783.84346	0.11417
3781.91489	0.11568
3779.98633	0.11714
3778.05776	0.11879
3776.12920	0.12034
3774.20063	0.12191
3772.27207	0.12350
3770.34351	0.12503
3768.41494	0.12678
3766.48638	0.12858
3764.55781	0.13080
3762.62925	0.13324
3760.70068	0.13520
3758.77212	0.13733
3756.84355	0.13999
3754.91499	0.14216
3752.98643	0.14394
3751.05786	0.14638
3749.12930	0.14980
3747.20073	0.15241
3745.27217	0.15452
3743.34360	0.15837
3741.41504	0.16267
3739.48647	0.16529
3737.55791	0.16743
3735.62935	0.17128
3733.70078	0.17813
3731.77222	0.18483
3729.84365	0.18974
3727.91509	0.19392
3725.98652	0.19881
3724.05796	0.20497
3722.12939	0.21181
3720.20083	0.21911
3718.27227	0.22659
3716.34370	0.23393
3714.41514	0.24097
3712.48657	0.24923
3710.55801	0.26177
3708.62944	0.27695
3706.70088	0.28992
3704.77231	0.30146
3702.84375	0.31426
3700.91519	0.33118
3698.98662	0.35029
3697.05806	0.36818
3695.12949	0.38650
3693.20093	0.40550
3691.27236	0.42606
3689.34380	0.45392
3687.41523	0.48994
3685.48667	0.52143
3683.55811	0.54783
3681.62954	0.57583
3679.70098	0.60737
3677.77241	0.64039
3675.84385	0.67973
3673.91528	0.73404
3671.98672	0.77712
3670.05815	0.81472
3668.12959	0.86936
3666.20103	0.91974
3664.27246	0.96077
3662.34390	1.00437
3660.41533	1.05204
3658.48677	1.09898
3656.55820	1.14786
3654.62964	1.20245
3652.70107	1.24802
3650.77251	1.28625
3648.84395	1.34062
3646.91538	1.41226
3644.98682	1.46491
3643.05825	1.50456
3641.12969	1.54527
3639.20112	1.58998
3637.27256	1.63467
3635.34399	1.67818
3633.41543	1.72174
3631.48687	1.76217
3629.55830	1.80194
3627.62974	1.85503
3625.70117	1.90652
3623.77261	1.94149
3621.84404	1.97476
3619.91548	2.01301
3617.98691	2.05980
3616.05835	2.10423
3614.12979	2.14139
3612.20122	2.18184
3610.27266	2.22187
3608.34409	2.26131
3606.41553	2.30415
3604.48696	2.34365
3602.55840	2.37747
3600.62983	2.41380
3598.70127	2.45486
3596.77271	2.49581
3594.84414	2.53694
3592.91558	2.57981
3590.98701	2.62088
3589.05845	2.65836
3587.12988	2.70204
3585.20132	2.75070
3583.27275	2.79188
3581.34419	2.82981
3579.41562	2.87124
3577.48706	2.91582
3575.55850	2.95905
3573.62993	3.00105
3571.70137	3.04217
3569.77280	3.08116
3567.84424	3.12194
3565.91567	3.17504
3563.98711	3.22949
3562.05854	3.27197
3560.12998	3.31104
3558.20142	3.35404
3556.27285	3.40141
3554.34429	3.44705
3552.41572	3.49287
3550.48716	3.54185
3548.55859	3.58850
3546.63003	3.63238
3544.70146	3.67989
3542.77290	3.72974
3540.84434	3.77752
3538.91577	3.82461
3536.98721	3.87291
3535.05864	3.92349
3533.13008	3.97237
3531.20151	4.01859
3529.27295	4.06465
3527.34438	4.11324
3525.41582	4.16319
3523.48726	4.21159
3521.55869	4.26053
3519.63013	4.30935
3517.70156	4.35699
3515.77300	4.40519
3513.84443	4.45458
3511.91587	4.50216
3509.98730	4.54868
3508.05874	4.59577
3506.13018	4.64011
3504.20161	4.68265
3502.27305	4.73176
3500.34448	4.78840
3498.41592	4.84180
3496.48735	4.89037
3494.55879	4.93539
3492.63022	4.97841
3490.70166	5.02639
3488.77310	5.07896
3486.84453	5.13122
3484.91597	5.18013
3482.98740	5.22144
3481.05884	5.26297
3479.13027	5.31857
3477.20171	5.37895
3475.27314	5.42645
3473.34458	5.46428
3471.41602	5.50637
3469.48745	5.55883
3467.55889	5.61550
3465.63032	5.66709
3463.70176	5.71696
3461.77319	5.76641
3459.84463	5.81520
3457.91606	5.87015
3455.98750	5.92945
3454.05894	5.97930
3452.13037	6.01940
3450.20181	6.05641
3448.27324	6.08702
3446.34468	6.13121
3444.41611	6.19711
3442.48755	6.26079
3440.55898	6.31470
3438.63042	6.35588
3436.70186	6.38905
3434.77329	6.44455
3432.84473	6.51093
3430.91616	6.54769
3428.98760	6.57844
3427.05903	6.63199
3425.13047	6.69435
3423.20190	6.74471
3421.27334	6.79376
3419.34478	6.85235
3417.41621	6.90929
3415.48765	6.95253
3413.55908	6.98530
3411.63052	7.02328
3409.70195	7.06208
3407.77339	7.11835
3405.84482	7.19671
3403.91626	7.27480
3401.98770	7.32790
3400.05913	7.34691
3398.13057	7.34471
3396.20200	7.35360
3394.27344	7.40919
3392.34487	7.48136
3390.41631	7.52933
3388.48774	7.54321
3386.55918	7.57839
3384.63062	7.64221
3382.70205	7.66606
3380.77349	7.66813
3378.84492	7.68951
3376.91636	7.72688
3374.98779	7.78247
3373.05923	7.82562
3371.13066	7.79255
3369.20210	7.76680
3367.27354	7.79878
3365.34497	7.86209
3363.41641	7.94731
3361.48784	7.97991
3359.55928	7.95373
3357.63071	7.91331
3355.70215	7.87213
3353.77358	7.86741
3351.84502	7.93823
3349.91646	8.02137
3347.98789	8.04896
3346.05933	8.03566
3344.13076	8.02389
3342.20220	8.02857
3340.27363	8.02930
3338.34507	8.04517
3336.41650	8.03774
3334.48794	8.01736
3332.55937	8.05869
3330.63081	8.15479
3328.70225	8.21106
3326.77368	8.17792
3324.84512	8.12505
3322.91655	8.10515
3320.98799	8.11829
3319.05942	8.14690
3317.13086	8.22855
3315.20229	8.28924
3313.27373	8.23834
3311.34517	8.16475
3309.41660	8.12849
3307.48804	8.13474
3305.55947	8.13783
3303.63091	8.11478
3301.70234	8.13097
3299.77378	8.19499
3297.84521	8.20989
3295.91665	8.20315
3293.98809	8.28708
3292.05952	8.45966
3290.13096	8.59232
3288.20239	8.60524
3286.27383	8.53863
3284.34526	8.41799
3282.41670	8.32102
3280.48813	8.26924
3278.55957	8.24088
3276.63101	8.25806
3274.70244	8.35287
3272.77388	8.43728
3270.84531	8.43760
3268.91675	8.46094
3266.98818	8.47744
3265.05962	8.40683
3263.13105	8.30603
3261.20249	8.29233
3259.27393	8.34731
3257.34536	8.30811
3255.41680	8.19066
3253.48823	8.13137
3251.55967	8.13624
3249.63110	8.12963
3247.70254	8.18101
3245.77397	8.34587
3243.84541	8.38951
3241.91685	8.22107
3239.98828	8.07888
3238.05972	8.07061
3236.13115	8.16917
3234.20259	8.24177
3232.27402	8.20920
3230.34546	8.17460
3228.41689	8.19970
3226.48833	8.21203
3224.55977	8.13066
3222.63120	8.05035
3220.70264	8.06720
3218.77407	8.14168
3216.84551	8.21183
3214.91694	8.21010
3212.98838	8.12773
3211.05981	8.05891
3209.13125	8.00550
3207.20269	7.93548
3205.27412	7.91258
3203.34556	7.94977
3201.41699	7.91952
3199.48843	7.77423
3197.55986	7.66060
3195.63130	7.63475
3193.70273	7.63255
3191.77417	7.61578
3189.84561	7.60246
3187.91704	7.59935
3185.98848	7.55794
3184.05991	7.46654
3182.13135	7.38536
3180.20278	7.36881
3178.27422	7.36964
3176.34565	7.29495
3174.41709	7.17741
3172.48853	7.09544
3170.55996	7.04190
3168.63140	6.98923
3166.70283	6.92162
3164.77427	6.82729
3162.84570	6.75376
3160.91714	6.72124
3158.98857	6.69083
3157.06001	6.64129
3155.13145	6.56170
3153.20288	6.46653
3151.27432	6.39031
3149.34575	6.32882
3147.41719	6.25893
3145.48862	6.18585
3143.56006	6.12499
3141.63149	6.07635
3139.70293	6.02251
3137.77437	5.95577
3135.84580	5.88699
3133.91724	5.81972
3131.98867	5.75344
3130.06011	5.68385
3128.13154	5.60281
3126.20298	5.51899
3124.27441	5.44860
3122.34585	5.38890
3120.41729	5.32611
3118.48872	5.25495
3116.56016	5.17625
3114.63159	5.09639
3112.70303	5.02813
3110.77446	4.97022
3108.84590	4.90890
3106.91733	4.84145
3104.98877	4.77186
3103.06021	4.70193
3101.13164	4.63203
3099.20308	4.56221
3097.27451	4.49485
3095.34595	4.43034
3093.41738	4.36631
3091.48882	4.30360
3089.56025	4.24262
3087.63169	4.18151
3085.70312	4.12209
3083.77456	4.06427
3081.84600	4.00330
3079.91743	3.94091
3077.98887	3.88203
3076.06030	3.82454
3074.13174	3.76671
3072.20317	3.70986
3070.27461	3.65405
3068.34604	3.59939
3066.41748	3.54375
3064.48892	3.48609
3062.56035	3.42991
3060.63179	3.37583
3058.70322	3.32182
3056.77466	3.26837
3054.84609	3.21555
3052.91753	3.16357
3050.98896	3.11381
3049.06040	3.06410
3047.13184	3.01294
3045.20327	2.96321
3043.27471	2.91583
3041.34614	2.86862
3039.41758	2.82123
3037.48901	2.77453
3035.56045	2.72804
3033.63188	2.68201
3031.70332	2.63702
3029.77476	2.59287
3027.84619	2.54953
3025.91763	2.50662
3023.98906	2.46402
3022.06050	2.42198
3020.13193	2.38041
3018.20337	2.33926
3016.27480	2.29852
3014.34624	2.25874
3012.41768	2.22041
3010.48911	2.18255
3008.56055	2.14460
3006.63198	2.10773
3004.70342	2.07197
3002.77485	2.03626
3000.84629	2.00140
2998.91772	1.96820
2996.98916	1.93587
2995.06060	1.90384
2993.13203	1.87214
2991.20347	1.84112
2989.27490	1.81120
2987.34634	1.78209
2985.41777	1.75346
2983.48921	1.72537
2981.56064	1.69777
2979.63208	1.67102
2977.70352	1.64538
2975.77495	1.62007
2973.84639	1.59474
2971.91782	1.57016
2969.98926	1.54637
2968.06069	1.52265
2966.13213	1.49853
2964.20356	1.47419
2962.27500	1.45038
2960.34644	1.42697
2958.41787	1.40305
2956.48931	1.37858
2954.56074	1.35395
2952.63218	1.32942
2950.70361	1.30562
2948.77505	1.28305
2946.84648	1.26117
2944.91792	1.23930
2942.98936	1.21742
2941.06079	1.19604
2939.13223	1.17555
2937.20366	1.15577
2935.27510	1.13615
2933.34653	1.11619
2931.41797	1.09612
2929.48940	1.07647
2927.56084	1.05729
2925.63228	1.03808
2923.70371	1.01886
2921.77515	1.00045
2919.84658	0.98288
2917.91802	0.96519
2915.98945	0.94735
2914.06089	0.92997
2912.13232	0.91279
2910.20376	0.89585
2908.27520	0.88015
2906.34663	0.86543
2904.41807	0.85052
2902.48950	0.83549
2900.56094	0.82096
2898.63237	0.80708
2896.70381	0.79378
2894.77524	0.78078
2892.84668	0.76817
2890.91812	0.75609
2888.98955	0.74432
2887.06099	0.73270
2885.13242	0.72145
2883.20386	0.71090
2881.27529	0.70102
2879.34673	0.69147
2877.41816	0.68199
2875.48960	0.67245
2873.56104	0.66251
2871.63247	0.65184
2869.70391	0.64054
2867.77534	0.62883
2865.84678	0.61656
2863.91821	0.60395
2861.98965	0.59190
2860.06108	0.58080
2858.13252	0.57019
2856.20396	0.56006
2854.27539	0.55075
2852.34683	0.54193
2850.41826	0.53290
2848.48970	0.52348
2846.56113	0.51424
2844.63257	0.50606
2842.70400	0.49893
2840.77544	0.49222
2838.84687	0.48573
2836.91831	0.47949
2834.98975	0.47351
2833.06118	0.46783
2831.13262	0.46202
2829.20405	0.45580
2827.27549	0.44956
2825.34692	0.44344
2823.41836	0.43718
2821.48979	0.43091
2819.56123	0.42476
2817.63267	0.41870
2815.70410	0.41278
2813.77554	0.40705
2811.84697	0.40152
2809.91841	0.39619
2807.98984	0.39082
2806.06128	0.38538
2804.13271	0.38009
2802.20415	0.37488
2800.27559	0.36972
2798.34702	0.36459
2796.41846	0.35939
2794.48989	0.35429
2792.56133	0.34942
2790.63276	0.34474
2788.70420	0.34014
2786.77563	0.33558
2784.84707	0.33101
2782.91851	0.32650
2780.98994	0.32219
2779.06138	0.31814
2777.13281	0.31412
2775.20425	0.30993
2773.27568	0.30583
2771.34712	0.30197
2769.41855	0.29812
2767.48999	0.29428
2765.56143	0.29061
2763.63286	0.28715
2761.70430	0.28380
2759.77573	0.28043
2757.84717	0.27704
2755.91860	0.27362
2753.99004	0.27025
2752.06147	0.26703
2750.13291	0.26397
2748.20435	0.26110
2746.27578	0.25824
2744.34722	0.25535
2742.41865	0.25252
2740.49009	0.24969
2738.56152	0.24678
2736.63296	0.24390
2734.70439	0.24129
2732.77583	0.23888
2730.84727	0.23642
2728.91870	0.23391
2726.99014	0.23141
2725.06157	0.22899
2723.13301	0.22679
2721.20444	0.22468
2719.27588	0.22259
2717.34731	0.22058
2715.41875	0.21847
2713.49019	0.21635
2711.56162	0.21449
2709.63306	0.21281
2707.70449	0.21107
2705.77593	0.20923
2703.84736	0.20744
2701.91880	0.20590
2699.99023	0.20451
2698.06167	0.20303
2696.13311	0.20144
2694.20454	0.19990
2692.27598	0.19849
2690.34741	0.19710
2688.41885	0.19573
2686.49028	0.19445
2684.56172	0.19323
2682.63315	0.19212
2680.70459	0.19100
2678.77603	0.18962
2676.84746	0.18821
2674.91890	0.18711
2672.99033	0.18620
2671.06177	0.18522
2669.13320	0.18414
2667.20464	0.18298
2665.27607	0.18173
2663.34751	0.18061
2661.41895	0.17984
2659.49038	0.17916
2657.56182	0.17831
2655.63325	0.17739
2653.70469	0.17660
2651.77612	0.17583
2649.84756	0.17501
2647.91899	0.17425
2645.99043	0.17367
2644.06187	0.17319
2642.13330	0.17270
2640.20474	0.17216
2638.27617	0.17154
2636.34761	0.17087
2634.41904	0.17027
2632.49048	0.16979
2630.56191	0.16938
2628.63335	0.16902
2626.70479	0.16869
2624.77622	0.16832
2622.84766	0.16792
2620.91909	0.16755
2618.99053	0.16717
2617.06196	0.16671
2615.13340	0.16640
2613.20483	0.16625
2611.27627	0.16617
2609.34771	0.16611
2607.41914	0.16597
2605.49058	0.16575
2603.56201	0.16560
2601.63345	0.16558
2599.70488	0.16566
2597.77632	0.16570
2595.84775	0.16567
2593.91919	0.16562
2591.99062	0.16560
2590.06206	0.16565
2588.13350	0.16565
2586.20493	0.16564
2584.27637	0.16575
2582.34780	0.16600
2580.41924	0.16627
2578.49067	0.16648
2576.56211	0.16670
2574.63354	0.16694
2572.70498	0.16720
2570.77642	0.16743
2568.84785	0.16766
2566.91929	0.16800
2564.99072	0.16839
2563.06216	0.16876
2561.13359	0.16917
2559.20503	0.16960
2557.27646	0.16997
2555.34790	0.17036
2553.41934	0.17087
2551.49077	0.17141
2549.56221	0.17186
2547.63364	0.17226
2545.70508	0.17281
2543.77651	0.17348
2541.84795	0.17415
2539.91938	0.17479
2537.99082	0.17545
2536.06226	0.17606
2534.13369	0.17656
2532.20513	0.17711
2530.27656	0.17775
2528.34800	0.17831
2526.41943	0.17882
2524.49087	0.17954
2522.56230	0.18042
2520.63374	0.18116
2518.70518	0.18177
2516.77661	0.18239
2514.84805	0.18307
2512.91948	0.18386
2510.99092	0.18466
2509.06235	0.18539
2507.13379	0.18615
2505.20522	0.18697
2503.27666	0.18774
2501.34810	0.18846
2499.41953	0.18920
2497.49097	0.19004
2495.56240	0.19097
2493.63384	0.19190
2491.70527	0.19275
2489.77671	0.19356
2487.84814	0.19437
2485.91958	0.19514
2483.99102	0.19588
2482.06245	0.19666
2480.13389	0.19750
2478.20532	0.19838
2476.27676	0.19925
2474.34819	0.20012
2472.41963	0.20096
2470.49106	0.20176
2468.56250	0.20263
2466.63394	0.20360
2464.70537	0.20458
2462.77681	0.20541
2460.84824	0.20610
2458.91968	0.20695
2456.99111	0.20807
2455.06255	0.20911
2453.13398	0.20993
2451.20542	0.21078
2449.27686	0.21179
2447.34829	0.21284
2445.41973	0.21387
2443.49116	0.21480
2441.56260	0.21563
2439.63403	0.21653
2437.70547	0.21749
2435.77690	0.21845
2433.84834	0.21946
2431.91978	0.22054
2429.99121	0.22161
2428.06265	0.22275
2426.13408	0.22405
2424.20552	0.22527
2422.27695	0.22624
2420.34839	0.22713
2418.41982	0.22809
2416.49126	0.22911
2414.56270	0.23012
2412.63413	0.23115
2410.70557	0.23226
2408.77700	0.23352
2406.84844	0.23484
2404.91987	0.23607
2402.99131	0.23717
2401.06274	0.23830
2399.13418	0.23958
2397.20562	0.24080
2395.27705	0.24190
2393.34849	0.24307
2391.41992	0.24442
2389.49136	0.24572
2387.56279	0.24679
2385.63423	0.24786
2383.70566	0.24910
2381.77710	0.25049
2379.84854	0.25194
2377.91997	0.25345
2375.99141	0.25502
2374.06284	0.25656
2372.13428	0.25819
2370.20571	0.26023
2368.27715	0.26245
2366.34858	0.26427
2364.42002	0.26482
2362.49146	0.26449
2360.56289	0.26536
2358.63433	0.26770
2356.70576	0.27005
2354.77720	0.27189
2352.84863	0.27392
2350.92007	0.27564
2348.99150	0.27640
2347.06294	0.27695
2345.13437	0.27803
2343.20581	0.27945
2341.27725	0.28127
2339.34868	0.28381
2337.42012	0.28592
2335.49155	0.28743
2333.56299	0.28859
2331.63442	0.28980
2329.70586	0.29201
2327.77729	0.29482
2325.84873	0.29673
2323.92017	0.29781
2321.99160	0.29890
2320.06304	0.30052
2318.13447	0.30256
2316.20591	0.30433
2314.27734	0.30591
2312.34878	0.30773
2310.42021	0.30956
2308.49165	0.31114
2306.56309	0.31270
2304.63452	0.31445
2302.70596	0.31632
2300.77739	0.31818
2298.84883	0.31991
2296.92026	0.32161
2294.99170	0.32349
2293.06313	0.32549
2291.13457	0.32739
2289.20601	0.32923
2287.27744	0.33115
2285.34888	0.33312
2283.42031	0.33504
2281.49175	0.33695
2279.56318	0.33897
2277.63462	0.34100
2275.70605	0.34306
2273.77749	0.34519
2271.84893	0.34730
2269.92036	0.34937
2267.99180	0.35149
2266.06323	0.35356
2264.13467	0.35551
2262.20610	0.35750
2260.27754	0.35965
2258.34897	0.36196
2256.42041	0.36430
2254.49185	0.36645
2252.56328	0.36851
2250.63472	0.37070
2248.70615	0.37293
2246.77759	0.37505
2244.84902	0.37716
2242.92046	0.37940
2240.99189	0.38175
2239.06333	0.38407
2237.13477	0.38627
2235.20620	0.38845
2233.27764	0.39071
2231.34907	0.39295
2229.42051	0.39522
2227.49194	0.39753
2225.56338	0.39975
2223.63481	0.40198
2221.70625	0.40428
2219.77769	0.40658
2217.84912	0.40882
2215.92056	0.41102
2213.99199	0.41322
2212.06343	0.41535
2210.13486	0.41737
2208.20630	0.41934
2206.27773	0.42132
2204.34917	0.42338
2202.42061	0.42549
2200.49204	0.42754
2198.56348	0.42953
2196.63491	0.43162
2194.70635	0.43376
2192.77778	0.43571
2190.84922	0.43749
2188.92065	0.43927
2186.99209	0.44115
2185.06353	0.44306
2183.13496	0.44486
2181.20640	0.44648
2179.27783	0.44801
2177.34927	0.44953
2175.42070	0.45105
2173.49214	0.45261
2171.56357	0.45418
2169.63501	0.45566
2167.70645	0.45701
2165.77788	0.45820
2163.84932	0.45933
2161.92075	0.46052
2159.99219	0.46174
2158.06362	0.46279
2156.13506	0.46363
2154.20649	0.46440
2152.27793	0.46520
2150.34937	0.46596
2148.42080	0.46659
2146.49224	0.46715
2144.56367	0.46769
2142.63511	0.46813
2140.70654	0.46848
2138.77798	0.46878
2136.84941	0.46897
2134.92085	0.46905
2132.99229	0.46908
2131.06372	0.46904
2129.13516	0.46882
2127.20659	0.46852
2125.27803	0.46827
2123.34946	0.46784
2121.42090	0.46719
2119.49233	0.46660
2117.56377	0.46619
2115.63521	0.46567
2113.70664	0.46487
2111.77808	0.46386
2109.84951	0.46284
2107.92095	0.46191
2105.99238	0.46086
2104.06382	0.45955
2102.13525	0.45816
2100.20669	0.45683
2098.27812	0.45548
2096.34956	0.45405
2094.42100	0.45256
2092.49243	0.45089
2090.56387	0.44910
2088.63530	0.44730
2086.70674	0.44548
2084.77817	0.44356
2082.84961	0.44159
2080.92104	0.43966
2078.99248	0.43775
2077.06392	0.43573
2075.13535	0.43354
2073.20679	0.43132
2071.27822	0.42904
2069.34966	0.42666
2067.42109	0.42422
2065.49253	0.42181
2063.56396	0.41944
2061.63540	0.41707
2059.70684	0.41459
2057.77827	0.41207
2055.84971	0.40958
2053.92114	0.40710
2051.99258	0.40454
2050.06401	0.40187
2048.13545	0.39914
2046.20688	0.39639
2044.27832	0.39366
2042.34976	0.39092
2040.42119	0.38816
2038.49263	0.38540
2036.56406	0.38257
2034.63550	0.37967
2032.70693	0.37681
2030.77837	0.37406
2028.84980	0.37134
2026.92124	0.36858
2024.99268	0.36578
2023.06411	0.36298
2021.13555	0.36017
2019.20698	0.35734
2017.27842	0.35448
2015.34985	0.35159
2013.42129	0.34879
2011.49272	0.34604
2009.56416	0.34331
2007.63560	0.34058
2005.70703	0.33783
2003.77847	0.33507
2001.84990	0.33235
1999.92134	0.32970
1997.99277	0.32711
1996.06421	0.32450
1994.13564	0.32187
1992.20708	0.31927
1990.27852	0.31674
1988.34995	0.31432
1986.42139	0.31196
1984.49282	0.30958
1982.56426	0.30711
1980.63569	0.30461
1978.70713	0.30227
1976.77856	0.30003
1974.85000	0.29777
1972.92144	0.29546
1970.99287	0.29323
1969.06431	0.29113
1967.13574	0.28905
1965.20718	0.28696
1963.27861	0.28498
1961.35005	0.28305
1959.42148	0.28116
1957.49292	0.27933
1955.56436	0.27750
1953.63579	0.27575
1951.70723	0.27399
1949.77866	0.27230
1947.85010	0.27073
1945.92153	0.26913
1943.99297	0.26744
1942.06440	0.26576
1940.13584	0.26421
1938.20728	0.26287
1936.27871	0.26166
1934.35015	0.26040
1932.42158	0.25904
1930.49302	0.25765
1928.56445	0.25640
1926.63589	0.25524
1924.70732	0.25410
1922.77876	0.25305
1920.85020	0.25210
1918.92163	0.25121
1916.99307	0.25032
1915.06450	0.24947
1913.13594	0.24868
1911.20737	0.24794
1909.27881	0.24726
1907.35024	0.24661
1905.42168	0.24593
1903.49312	0.24525
1901.56455	0.24463
1899.63599	0.24409
1897.70742	0.24359
1895.77886	0.24309
1893.85029	0.24273
1891.92173	0.24245
1889.99316	0.24222
1888.06460	0.24199
1886.13604	0.24170
1884.20747	0.24139
1882.27891	0.24116
1880.35034	0.24106
1878.42178	0.24097
1876.49321	0.24088
1874.56465	0.24083
1872.63608	0.24086
1870.70752	0.24088
1868.77896	0.24109
1866.85039	0.24145
1864.92183	0.24163
1862.99326	0.24173
1861.06470	0.24186
1859.13613	0.24214
1857.20757	0.24253
1855.27900	0.24306
1853.35044	0.24361
1851.42187	0.24412
1849.49331	0.24459
1847.56475	0.24506
1845.63618	0.24561
1843.70762	0.24649
1841.77905	0.24750
1839.85049	0.24810
1837.92192	0.24874
1835.99336	0.24967
1834.06479	0.25073
1832.13623	0.25166
1830.20767	0.25278
1828.27910	0.25420
1826.35054	0.25542
1824.42197	0.25672
1822.49341	0.25804
1820.56484	0.25933
1818.63628	0.26073
1816.70771	0.26239
1814.77915	0.26403
1812.85059	0.26566
1810.92202	0.26747
1808.99346	0.26950
1807.06489	0.27158
1805.13633	0.27353
1803.20776	0.27557
1801.27920	0.27788
1799.35063	0.28063
1797.42207	0.28327
1795.49351	0.28567
1793.56494	0.28824
1791.63638	0.29180
1789.70781	0.29560
1787.77925	0.29839
1785.85068	0.30134
1783.92212	0.30481
1781.99355	0.30867
1780.06499	0.31290
1778.13643	0.31730
1776.20786	0.32124
1774.27930	0.32521
1772.35073	0.33073
1770.42217	0.33726
1768.49360	0.34288
1766.56504	0.34823
1764.63647	0.35354
1762.70791	0.35921
1760.77935	0.36661
1758.85078	0.37364
1756.92222	0.38062
1754.99365	0.38845
1753.06509	0.39543
1751.13652	0.40331
1749.20796	0.41355
1747.27939	0.42414
1745.35083	0.43342
1743.42227	0.44302
1741.49370	0.45358
1739.56514	0.46607
1737.63657	0.47846
1735.70801	0.48882
1733.77944	0.50460
1731.85088	0.52457
1729.92231	0.54067
1727.99375	0.55683
1726.06519	0.57370
1724.13662	0.59187
1722.20806	0.61156
1720.27949	0.62939
1718.35093	0.64994
1716.42236	0.68211
1714.49380	0.71408
1712.56523	0.73959
1710.63667	0.76366
1708.70811	0.78898
1706.77954	0.81757
1704.85098	0.85273
1702.92241	0.88452
1700.99385	0.91533
1699.06528	0.96234
1697.13672	1.00688
1695.20815	1.05339
1693.27959	1.09806
1691.35103	1.13324
1689.42246	1.17445
1687.49390	1.21855
1685.56533	1.26022
1683.63677	1.32762
1681.70820	1.40085
1679.77964	1.44555
1677.85107	1.48702
1675.92251	1.53527
1673.99395	1.59700
1672.06538	1.65198
1670.13682	1.70556
1668.20825	1.77774
1666.27969	1.83608
1664.35112	1.88624
1662.42256	1.95264
1660.49399	2.03099
1658.56543	2.09075
1656.63687	2.13732
1654.70830	2.17789
1652.77974	2.23873
1650.85117	2.29925
1648.92261	2.32071
1646.99404	2.34589
1645.06548	2.37101
1643.13691	2.39008
1641.20835	2.40016
1639.27979	2.40671
1637.35122	2.40596
1635.42266	2.39725
1633.49409	2.38684
1631.56553	2.37394
1629.63696	2.35800
1627.70840	2.32743
1625.77983	2.28990
1623.85127	2.24287
1621.92271	2.18703
1619.99414	2.13853
1618.06558	2.09040
1616.13701	2.02058
1614.20845	1.95210
1612.27988	1.90202
1610.35132	1.84898
1608.42275	1.79071
1606.49419	1.73337
1604.56562	1.68128
1602.63706	1.63147
1600.70850	1.58327
1598.77993	1.53891
1596.85137	1.49684
1594.92280	1.45611
1592.99424	1.41731
1591.06567	1.38229
1589.13711	1.35002
1587.20854	1.32063
1585.27998	1.29386
1583.35142	1.26906
1581.42285	1.24678
1579.49429	1.22809
1577.56572	1.21170
1575.63716	1.19261
1573.70859	1.17696
1571.78003	1.16735
1569.85146	1.15783
1567.92290	1.14833
1565.99434	1.14263
1564.06577	1.13979
1562.13721	1.13846
1560.20864	1.13926
1558.28008	1.14715
1556.35151	1.15684
1554.42295	1.16200
1552.49438	1.16704
1550.56582	1.16997
1548.63726	1.16949
1546.70869	1.16524
1544.78013	1.15650
1542.85156	1.14345
1540.92300	1.12306
1538.99443	1.08994
1537.06587	1.06623
1535.13730	1.04930
1533.20874	1.02545
1531.28018	1.00074
1529.35161	0.98355
1527.42305	0.96710
1525.49448	0.94988
1523.56592	0.93549
1521.63735	0.92181
1519.70879	0.90793
1517.78022	0.89635
1515.85166	0.88304
1513.92310	0.86937
1511.99453	0.85705
1510.06597	0.84515
1508.13740	0.83297
1506.20884	0.81448
1504.28027	0.80040
1502.35171	0.79292
1500.42314	0.78590
1498.49458	0.77804
1496.56602	0.76867
1494.63745	0.75964
1492.70889	0.75290
1490.78032	0.74667
1488.85176	0.73941
1486.92319	0.73342
1484.99463	0.72920
1483.06606	0.72578
1481.13750	0.72276
1479.20894	0.72047
1477.28037	0.71945
1475.35181	0.71943
1473.42324	0.71978
1471.49468	0.71974
1469.56611	0.71864
1467.63755	0.71666
1465.70898	0.71463
1463.78042	0.71350
1461.85186	0.71311
1459.92329	0.71280
1457.99473	0.71294
1456.06616	0.71352
1454.13760	0.71217
1452.20903	0.70954
1450.28047	0.70658
1448.35190	0.70366
1446.42334	0.70069
1444.49478	0.69782
1442.56621	0.69503
1440.63765	0.69205
1438.70908	0.68883
1436.78052	0.68463
1434.85195	0.67996
1432.92339	0.67682
1430.99482	0.67503
1429.06626	0.67425
1427.13770	0.67431
1425.20913	0.67499
1423.28057	0.67625
1421.35200	0.67750
1419.42344	0.67856
1417.49487	0.67921
1415.56631	0.67876
1413.63774	0.67820
1411.70918	0.67851
1409.78062	0.67996
1407.85205	0.68204
1405.92349	0.68439
1403.99492	0.68661
1402.06636	0.68762
1400.13779	0.68720
1398.20923	0.68563
1396.28066	0.68294
1394.35210	0.67876
1392.42354	0.67370
1390.49497	0.66879
1388.56641	0.66367
1386.63784	0.65769
1384.70928	0.65144
1382.78071	0.64551
1380.85215	0.63993
1378.92358	0.63505
1376.99502	0.63112
1375.06646	0.62820
1373.13789	0.62641
1371.20933	0.62554
1369.28076	0.62497
1367.35220	0.62402
1365.42363	0.62247
1363.49507	0.62056
1361.56650	0.61859
1359.63794	0.61691
1357.70937	0.61553
1355.78081	0.61424
1353.85225	0.61306
1351.92368	0.61215
1349.99512	0.61151
1348.06655	0.61103
1346.13799	0.61049
1344.20942	0.60974
1342.28086	0.60875
1340.35229	0.60783
1338.42373	0.60726
1336.49517	0.60699
1334.56660	0.60685
1332.63804	0.60692
1330.70947	0.60732
1328.78091	0.60815
1326.85234	0.60927
1324.92378	0.61037
1322.99521	0.61142
1321.06665	0.61244
1319.13809	0.61340
1317.20952	0.61415
1315.28096	0.61453
1313.35239	0.61450
1311.42383	0.61408
1309.49526	0.61342
1307.56670	0.61289
1305.63813	0.61265
1303.70957	0.61231
1301.78101	0.61149
1299.85244	0.61043
1297.92388	0.60932
1295.99531	0.60799
1294.06675	0.60644
1292.13818	0.60486
1290.20962	0.60322
1288.28105	0.60157
1286.35249	0.60016
1284.42393	0.59878
1282.49536	0.59718
1280.56680	0.59553
1278.63823	0.59397
1276.70967	0.59257
1274.78110	0.59129
1272.85254	0.59011
1270.92397	0.58927
1268.99541	0.58853
1267.06685	0.58755
1265.13828	0.58655
1263.20972	0.58572
1261.28115	0.58494
1259.35259	0.58420
1257.42402	0.58362
1255.49546	0.58326
1253.56689	0.58319
1251.63833	0.58342
1249.70977	0.58374
1247.78120	0.58389
1245.85264	0.58376
1243.92407	0.58328
1241.99551	0.58235
1240.06694	0.58092
1238.13838	0.57899
1236.20981	0.57653
1234.28125	0.57373
1232.35269	0.57090
1230.42412	0.56827
1228.49556	0.56592
1226.56699	0.56372
1224.63843	0.56153
1222.70986	0.55947
1220.78130	0.55773
1218.85273	0.55610
1216.92417	0.55451
1214.99561	0.55317
1213.06704	0.55210
1211.13848	0.55123
1209.20991	0.55051
1207.28135	0.54981
1205.35278	0.54895
1203.42422	0.54788
1201.49565	0.54676
1199.56709	0.54579
1197.63853	0.54494
1195.70996	0.54415
1193.78140	0.54355
1191.85283	0.54318
1189.92427	0.54286
1187.99570	0.54248
1186.06714	0.54220
1184.13857	0.54231
1182.21001	0.54290
1180.28145	0.54390
1178.35288	0.54532
1176.42432	0.54705
1174.49575	0.54854
1172.56719	0.54935
1170.63862	0.54946
1168.71006	0.54908
1166.78149	0.54852
1164.85293	0.54807
1162.92437	0.54759
1160.99580	0.54688
1159.06724	0.54609
1157.13867	0.54532
1155.21011	0.54431
1153.28154	0.54299
1151.35298	0.54130
1149.42441	0.53894
1147.49585	0.53611
1145.56729	0.53331
1143.63872	0.53061
1141.71016	0.52813
1139.78159	0.52624
1137.85303	0.52490
1135.92446	0.52382
1133.99590	0.52312
1132.06733	0.52290
1130.13877	0.52277
1128.21021	0.52243
1126.28164	0.52188
1124.35308	0.52110
1122.42451	0.52021
1120.49595	0.51953
1118.56738	0.51915
1116.63882	0.51902
1114.71025	0.51918
1112.78169	0.51956
1110.85312	0.52008
1108.92456	0.52074
1106.99600	0.52160
1105.06743	0.52269
1103.13887	0.52396
1101.21030	0.52561
1099.28174	0.52788
1097.35317	0.53049
1095.42461	0.53334
1093.49604	0.53663
1091.56748	0.54049
1089.63892	0.54515
1087.71035	0.55092
1085.78179	0.55753
1083.85322	0.56421
1081.92466	0.57023
1079.99609	0.57506
1078.06753	0.57792
1076.13896	0.57811
1074.21040	0.57566
1072.28184	0.57096
1070.35327	0.56475
1068.42471	0.55801
1066.49614	0.55129
1064.56758	0.54483
1062.63901	0.53900
1060.71045	0.53401
1058.78188	0.52977
1056.85332	0.52592
1054.92476	0.52224
1052.99619	0.51883
1051.06763	0.51579
1049.13906	0.51328
1047.21050	0.51129
1045.28193	0.50957
1043.35337	0.50785
1041.42480	0.50613
1039.49624	0.50487
1037.56768	0.50429
1035.63911	0.50386
1033.71055	0.50327
1031.78198	0.50267
1029.85342	0.50198
1027.92485	0.50123
1025.99629	0.50075
1024.06772	0.50067
1022.13916	0.50083
1020.21060	0.50107
1018.28203	0.50138
1016.35347	0.50181
1014.42490	0.50230
1012.49634	0.50276
1010.56777	0.50336
1008.63921	0.50418
1006.71064	0.50537
1004.78208	0.50698
1002.85352	0.50902
1000.92495	0.51165
998.99639	0.51489
997.06782	0.51863
995.13926	0.52288
993.21069	0.52726
991.28213	0.53075
989.35356	0.53288
987.42500	0.53424
985.49644	0.53519
983.56787	0.53575
981.63931	0.53623
979.71074	0.53708
977.78218	0.53862
975.85361	0.54066
973.92505	0.54296
971.99648	0.54570
970.06792	0.54892
968.13936	0.55243
966.21079	0.55631
964.28223	0.56067
962.35366	0.56535
960.42510	0.57031
958.49653	0.57565
956.56797	0.58113
954.63940	0.58667
952.71084	0.59270
950.78228	0.59938
948.85371	0.60624
946.92515	0.61287
944.99658	0.61917
943.06802	0.62513
941.13945	0.63088
939.21089	0.63680
937.28232	0.64315
935.35376	0.64962
933.42520	0.65554
931.49663	0.66086
929.56807	0.66601
927.63950	0.67150
925.71094	0.67781
923.78237	0.68459
921.85381	0.69109
919.92524	0.69770
917.99668	0.70487
916.06812	0.71179
914.13955	0.71877
912.21099	0.72698
910.28242	0.73559
908.35386	0.74353
906.42529	0.75136
904.49673	0.75972
902.56816	0.76872
900.63960	0.77816
898.71104	0.78787
896.78247	0.79762
894.85391	0.80726
892.92534	0.81753
890.99678	0.82849
889.06821	0.83892
887.13965	0.84857
885.21108	0.85882
883.28252	0.87029
881.35396	0.88222
879.42539	0.89427
877.49683	0.90594
875.56826	0.91732
873.63970	0.92906
871.71113	0.94032
869.78257	0.95109
867.85400	0.96290
865.92544	0.97579
863.99687	0.98821
862.06831	0.99947
860.13975	1.01047
858.21118	1.02232
856.28262	1.03487
854.35405	1.04686
852.42549	1.05858
850.49692	1.07222
848.56836	1.08675
846.63979	1.09842
844.71123	1.10742
842.78267	1.11674
840.85410	1.12747
838.92554	1.13937
836.99697	1.15146
835.06841	1.16146
833.13984	1.17139
831.21128	1.18417
829.28271	1.19581
827.35415	1.20382
825.42559	1.21362
823.49702	1.22997
821.56846	1.24760
819.63989	1.26142
817.71133	1.27540
815.78276	1.29585
813.85420	1.31671
811.92563	1.32170
809.99707	1.31939
808.06851	1.32950
806.13994	1.34869
804.21138	1.36552
802.28281	1.38240
800.35425	1.39668
798.42568	1.40388
796.49712	1.41967
794.56855	1.44028
792.63999	1.43539
790.71143	1.41530
788.78286	1.42774
786.85430	1.48314
784.92573	1.55138
782.99717	1.62124
781.06860	1.66090
779.14004	1.61020
777.21147	1.55616
775.28291	1.54048
773.35435	1.51646
771.42578	1.47704
769.49722	1.40919
767.56865	1.32848
765.64009	1.32752
763.71152	1.43825
761.78296	1.51978
759.85439	1.41930
757.92583	1.30801
755.99727	1.26778
754.06870	1.29024
752.14014	1.30149
750.21157	1.23838
748.28301	1.14536
746.35444	1.06048
744.42588	0.98680
742.49731	0.93523
740.56875	0.92707
738.64019	0.93905
736.71162	0.90466
734.78306	0.86655
732.85449	0.84947
730.92593	0.73963
728.99736	0.57966
727.06880	0.45236
725.14023	0.35509
723.21167	0.29294
721.28311	0.20217
719.35454	0.06819
717.42598	-0.03838
715.49741	-0.14296
713.56885	-0.13133
711.64028	0.12218
709.71172	0.34182
707.78315	0.40789
705.85459	0.54080
703.92603	0.82969
701.99746	0.65770
700.06890	0.41780
698.14033	0.31581
696.21177	0.28959
694.28320	0.24816
692.35464	0.15246
690.42607	0.09929
688.49751	0.13017
686.56895	0.19884
684.64038	0.25162
682.71182	0.26475
680.78325	0.28517
678.85469	0.31159
676.92612	0.32399
674.99756	0.28826
673.06899	0.21173
671.14043	0.22853
669.21187	0.38025
667.28330	0.45386
665.35474	0.25694
663.42617	0.18803
661.49761	0.33697
659.56904	0.62737
657.64048	0.44681
655.71191	0.24187
653.78335	0.23128
651.85479	0.29810
649.92622	0.29800
647.99766	0.26648
646.06909	0.31531
644.14053	0.39903
642.21196	0.28541
640.28340	0.15512
638.35483	0.14978
636.42627	0.29653
634.49771	0.46675
632.56914	0.48565
630.64058	0.52411
628.71201	0.66857
626.78345	0.64817
624.85488	0.40101
622.92632	0.30026
620.99775	0.40646
619.06919	0.68628
617.14062	0.70136
615.21206	0.51422
613.28350	0.39843
611.35493	0.30048
609.42637	0.28804
607.49780	0.36226
605.56924	0.32315
603.64067	0.17569
601.71211	0.09106
599.78354	0.11809
597.85498	0.23019
595.92642	0.36000
593.99785	0.37208
592.06929	0.29423
590.14072	0.23151
588.21216	0.20005
586.28359	0.21829
584.35503	0.27308
582.42646	0.28488
580.49790	0.24448
578.56934	0.25029
576.64077	0.26424
574.71221	0.24931
572.78364	0.24266
570.85508	0.25335
568.92651	0.25578
566.99795	0.26321
565.06938	0.29252
563.14082	0.31743
561.21226	0.26390
559.28369	0.19802
557.35513	0.19499
555.42656	0.24486
553.49800	0.33743
551.56943	0.42334
549.64087	0.35096
547.71230	0.27049
545.78374	0.27720
543.85518	0.29908
541.92661	0.29383
539.99805	0.27906
538.06948	0.24876
536.14092	0.24069
534.21235	0.28651
532.28379	0.35706
530.35522	0.37170
528.42666	0.32684
526.49810	0.27481
524.56953	0.22708
522.64097	0.18381
520.71240	0.16291
518.78384	0.18796
516.85527	0.20133
514.92671	0.19628
512.99814	0.23417
511.06958	0.29423
509.14102	0.29780
507.21245	0.24881
505.28389	0.22469
503.35532	0.25048
501.42676	0.32867
499.49819	0.41902
