3997.91411	0.07101
3995.98555	0.07173
3994.05698	0.07230
3992.12842	0.07244
3990.19985	0.07243
3988.27129	0.07273
3986.34272	0.07331
3984.41416	0.07379
3982.48560	0.07385
3980.55703	0.07359
3978.62847	0.07355
3976.69990	0.07396
3974.77134	0.07469
3972.84277	0.07537
3970.91421	0.07541
3968.98564	0.07494
3967.05708	0.07475
3965.12852	0.07497
3963.19995	0.07517
3961.27139	0.07543
3959.34282	0.07583
3957.41426	0.07595
3955.48569	0.07569
3953.55713	0.07537
3951.62856	0.07531
3949.70000	0.07548
3947.77144	0.07577
3945.84287	0.07586
3943.91431	0.07560
3941.98574	0.07565
3940.05718	0.07588
3938.12861	0.07583
3936.20005	0.07578
3934.27148	0.07590
3932.34292	0.07602
3930.41436	0.07590
3928.48579	0.07560
3926.55723	0.07547
3924.62866	0.07561
3922.70010	0.07545
3920.77153	0.07475
3918.84297	0.07445
3916.91440	0.07519
3914.98584	0.07587
3913.05728	0.07547
3911.12871	0.07456
3909.20015	0.07398
3907.27158	0.07403
3905.34302	0.07469
3903.41445	0.07576
3901.48589	0.07627
3899.55732	0.07571
3897.62876	0.07506
3895.70020	0.07484
3893.77163	0.07485
3891.84307	0.07504
3889.91450	0.07517
3887.98594	0.07477
3886.05737	0.07437
3884.12881	0.07444
3882.20024	0.07470
3880.27168	0.07525
3878.34312	0.07604
3876.41455	0.07605
3874.48599	0.07550
3872.55742	0.07554
3870.62886	0.07638
3868.70029	0.07671
3866.77173	0.07627
3864.84316	0.07609
3862.91460	0.07644
3860.98604	0.07709
3859.05747	0.07742
3857.12891	0.07730
3855.20034	0.07752
3853.27178	0.07873
3851.34321	0.07995
3849.41465	0.08013
3847.48608	0.08026
3845.55752	0.08048
3843.62896	0.08051
3841.70039	0.08052
3839.77183	0.08118
3837.84326	0.08269
3835.91470	0.08388
3833.98613	0.08424
3832.05757	0.08479
3830.12900	0.08550
3828.20044	0.08597
3826.27187	0.08680
3824.34331	0.08761
3822.41475	0.08791
3820.48618	0.08920
3818.55762	0.09118
3816.62905	0.09218
3814.70049	0.09289
3812.77192	0.09343
3810.84336	0.09392
3808.91479	0.09472
3806.98623	0.09598
3805.05767	0.09726
3803.12910	0.09789
3801.20054	0.09902
3799.27197	0.10099
3797.34341	0.10216
3795.41484	0.10321
3793.48628	0.10433
3791.55771	0.10499
3789.62915	0.10574
3787.70059	0.10703
3785.77202	0.10862
3783.84346	0.11036
3781.91489	0.11225
3779.98633	0.11416
3778.05776	0.11588
3776.12920	0.11706
3774.20063	0.11821
3772.27207	0.11985
3770.34351	0.12195
3768.41494	0.12404
3766.48638	0.12557
3764.55781	0.12733
3762.62925	0.12935
3760.70068	0.13122
3758.77212	0.13358
3756.84355	0.13626
3754.91499	0.13827
3752.98643	0.14014
3751.05786	0.14331
3749.12930	0.14748
3747.20073	0.14980
3745.27217	0.15153
3743.34360	0.15537
3741.41504	0.15965
3739.48647	0.16214
3737.55791	0.16418
3735.62935	0.16796
3733.70078	0.17502
3731.77222	0.18226
3729.84365	0.18734
3727.91509	0.19142
3725.98652	0.19627
3724.05796	0.20233
3722.12939	0.20889
3720.20083	0.21608
3718.27227	0.22366
3716.34370	0.23106
3714.41514	0.23808
3712.48657	0.24633
3710.55801	0.25913
3708.62944	0.27448
3706.70088	0.28704
3704.77231	0.29831
3702.84375	0.31133
3700.91519	0.32843
3698.98662	0.34743
3697.05806	0.36518
3695.12949	0.38363
3693.20093	0.40301
3691.27236	0.42371
3689.34380	0.45133
3687.41523	0.48707
3685.48667	0.51857
3683.55811	0.54532
3681.62954	0.57348
3679.70098	0.60488
3677.77241	0.63788
3675.84385	0.67710
3673.91528	0.73073
3671.98672	0.77370
3670.05815	0.81184
3668.12959	0.86673
3666.20103	0.91697
3664.27246	0.95799
3662.34390	1.00162
3660.41533	1.04895
3658.48677	1.09513
3656.55820	1.14379
3654.62964	1.19957
3652.70107	1.24640
3650.77251	1.28476
3648.84395	1.33910
3646.91538	1.41121
3644.98682	1.46379
3643.05825	1.50335
3641.12969	1.54415
3639.20112	1.58909
3637.27256	1.63402
3635.34399	1.67738
3633.41543	1.72082
3631.48687	1.76134
3629.55830	1.80144
3627.62974	1.85631
3625.70117	1.90983
3623.77261	1.94471
3621.84404	1.97636
3619.91548	2.01216
3617.98691	2.05681
3616.05835	2.10108
3614.12979	2.13855
3612.20122	2.17921
3610.27266	2.22070
3608.34409	2.26112
3606.41553	2.30310
3604.48696	2.34202
3602.55840	2.37717
3600.62983	2.41578
3598.70127	2.45835
3596.77271	2.49997
3594.84414	2.54179
3592.91558	2.58495
3590.98701	2.62413
3589.05845	2.65829
3587.12988	2.70183
3585.20132	2.75431
3583.27275	2.79627
3581.34419	2.83211
3579.41562	2.87199
3577.48706	2.91577
3575.55850	2.95973
3573.62993	3.00433
3571.70137	3.04796
3569.77280	3.08882
3567.84424	3.13118
3565.91567	3.18468
3563.98711	3.23613
3562.05854	3.27451
3560.12998	3.31412
3558.20142	3.36117
3556.27285	3.40856
3554.34429	3.45075
3552.41572	3.49563
3550.48716	3.54535
3548.55859	3.59179
3546.63003	3.63632
3544.70146	3.68526
3542.77290	3.73381
3540.84434	3.77886
3538.91577	3.82547
3536.98721	3.87525
3535.05864	3.92813
3533.13008	3.97892
3531.20151	4.02592
3529.27295	4.07265
3527.34438	4.12171
3525.41582	4.17216
3523.48726	4.22138
3521.55869	4.26740
3519.63013	4.31101
3517.70156	4.35721
3515.77300	4.40490
3513.84443	4.45457
3511.91587	4.50671
3509.98730	4.55727
3508.05874	4.60673
3506.13018	4.65471
3504.20161	4.69997
3502.27305	4.74611
3500.34448	4.79624
3498.41592	4.85041
3496.48735	4.90593
3494.55879	4.95489
3492.63022	4.99487
3490.70166	5.03408
3488.77310	5.07931
3486.84453	5.12766
3484.91597	5.17433
3482.98740	5.22233
3481.05884	5.27612
3479.13027	5.33038
3477.20171	5.37914
3475.27314	5.43053
3473.34458	5.48674
3471.41602	5.53417
3469.48745	5.57384
3467.55889	5.61509
3465.63032	5.65382
3463.70176	5.69652
3461.77319	5.75313
3459.84463	5.81164
3457.91606	5.86181
3455.98750	5.91381
3454.05894	5.96312
3452.13037	5.99581
3450.20181	6.02660
3448.27324	6.07797
3446.34468	6.14492
3444.41611	6.20222
3442.48755	6.24764
3440.55898	6.28672
3438.63042	6.32920
3436.70186	6.38418
3434.77329	6.43688
3432.84473	6.48630
3430.91616	6.55973
3428.98760	6.64251
3427.05903	6.67970
3425.13047	6.68827
3423.20190	6.70812
3421.27334	6.75996
3419.34478	6.85462
3417.41621	6.94925
3415.48765	6.98615
3413.55908	6.99327
3411.63052	7.02418
3409.70195	7.05704
3407.77339	7.08041
3405.84482	7.10816
3403.91626	7.16164
3401.98770	7.22335
3400.05913	7.25864
3398.13057	7.29821
3396.20200	7.38145
3394.27344	7.50346
3392.34487	7.57185
3390.41631	7.53951
3388.48774	7.49023
3386.55918	7.51146
3384.63062	7.57781
3382.70205	7.63581
3380.77349	7.70086
3378.84492	7.76284
3376.91636	7.81268
3374.98779	7.83120
3373.05923	7.77543
3371.13066	7.69838
3369.20210	7.69043
3367.27354	7.71723
3365.34497	7.77546
3363.41641	7.89605
3361.48784	7.97436
3359.55928	7.94614
3357.63071	7.90573
3355.70215	7.94434
3353.77358	8.01750
3351.84502	8.06255
3349.91646	8.07707
3347.98789	8.10267
3346.05933	8.12260
3344.13076	8.08863
3342.20220	8.04527
3340.27363	8.05004
3338.34507	8.12107
3336.41650	8.10711
3334.48794	7.96156
3332.55937	7.88652
3330.63081	7.95237
3328.70225	8.03903
3326.77368	8.07372
3324.84512	8.12086
3322.91655	8.15754
3320.98799	8.11448
3319.05942	8.05501
3317.13086	8.08991
3315.20229	8.19733
3313.27373	8.31323
3311.34517	8.41686
3309.41660	8.40847
3307.48804	8.24960
3305.55947	8.13389
3303.63091	8.15135
3301.70234	8.21527
3299.77378	8.27871
3297.84521	8.29459
3295.91665	8.26894
3293.98809	8.22355
3292.05952	8.16932
3290.13096	8.13788
3288.20239	8.10319
3286.27383	8.08266
3284.34526	8.15004
3282.41670	8.25348
3280.48813	8.17983
3278.55957	8.01197
3276.63101	7.97212
3274.70244	8.06735
3272.77388	8.20051
3270.84531	8.30494
3268.91675	8.30298
3266.98818	8.17011
3265.05962	8.11051
3263.13105	8.19529
3261.20249	8.29271
3259.27393	8.31153
3257.34536	8.27154
3255.41680	8.25672
3253.48823	8.27892
3251.55967	8.24680
3249.63110	8.14236
3247.70254	8.10210
3245.77397	8.20023
3243.84541	8.29791
3241.91685	8.25350
3239.98828	8.14743
3238.05972	8.05078
3236.13115	8.03560
3234.20259	8.17850
3232.27402	8.37373
3230.34546	8.38489
3228.41689	8.25221
3226.48833	8.18003
3224.55977	8.10841
3222.63120	8.00762
3220.70264	8.02628
3218.77407	8.11522
3216.84551	8.09549
3214.91694	8.00568
3212.98838	7.97559
3211.05981	8.01861
3209.13125	8.03191
3207.20269	7.99186
3205.27412	7.94674
3203.34556	7.85048
3201.41699	7.75081
3199.48843	7.72804
3197.55986	7.72258
3195.63130	7.65155
3193.70273	7.53664
3191.77417	7.45734
3189.84561	7.44199
3187.91704	7.45859
3185.98848	7.47437
3184.05991	7.46060
3182.13135	7.40983
3180.20278	7.37142
3178.27422	7.34602
3176.34565	7.28559
3174.41709	7.20280
3172.48853	7.13909
3170.55996	7.10006
3168.63140	7.04609
3166.70283	6.95914
3164.77427	6.86820
3162.84570	6.78869
3160.91714	6.72628
3158.98857	6.68018
3157.06001	6.62609
3155.13145	6.55202
3153.20288	6.47897
3151.27432	6.41989
3149.34575	6.36284
3147.41719	6.30181
3145.48862	6.23067
3143.56006	6.15130
3141.63149	6.08563
3139.70293	6.03313
3137.77437	5.97636
3135.84580	5.91148
3133.91724	5.84204
3131.98867	5.76636
3130.06011	5.68579
3128.13154	5.61070
3126.20298	5.54427
3124.27441	5.47591
3122.34585	5.39774
3120.41729	5.31892
3118.48872	5.25201
3116.56016	5.19406
3114.63159	5.12982
3112.70303	5.05648
3110.77446	4.98457
3108.84590	4.91700
3106.91733	4.84847
3104.98877	4.77896
3103.06021	4.71198
3101.13164	4.64562
3099.20308	4.57950
3097.27451	4.51502
3095.34595	4.45286
3093.41738	4.39076
3091.48882	4.32490
3089.56025	4.25826
3087.63169	4.19464
3085.70312	4.13358
3083.77456	4.07378
3081.84600	4.01378
3079.91743	3.95243
3077.98887	3.89223
3076.06030	3.83334
3074.13174	3.77342
3072.20317	3.71465
3070.27461	3.65849
3068.34604	3.60328
3066.41748	3.54742
3064.48892	3.49128
3062.56035	3.43618
3060.63179	3.38155
3058.70322	3.32595
3056.77466	3.27054
3054.84609	3.21732
3052.91753	3.16596
3050.98896	3.11567
3049.06040	3.06583
3047.13184	3.01704
3045.20327	2.96914
3043.27471	2.92026
3041.34614	2.87109
3039.41758	2.82335
3037.48901	2.77678
3035.56045	2.73069
3033.63188	2.68469
3031.70332	2.63907
3029.77476	2.59476
3027.84619	2.55128
3025.91763	2.50778
3023.98906	2.46495
3022.06050	2.42315
3020.13193	2.38150
3018.20337	2.33982
3016.27480	2.29902
3014.34624	2.25937
3012.41768	2.22049
3010.48911	2.18210
3008.56055	2.14481
3006.63198	2.10901
3004.70342	2.07360
3002.77485	2.03805
3000.84629	2.00307
2998.91772	1.96885
2996.98916	1.93535
2995.06060	1.90306
2993.13203	1.87156
2991.20347	1.84038
2989.27490	1.81016
2987.34634	1.78106
2985.41777	1.75300
2983.48921	1.72547
2981.56064	1.69791
2979.63208	1.67067
2977.70352	1.64392
2975.77495	1.61777
2973.84639	1.59229
2971.91782	1.56726
2969.98926	1.54276
2968.06069	1.51856
2966.13213	1.49413
2964.20356	1.46995
2962.27500	1.44635
2960.34644	1.42258
2958.41787	1.39839
2956.48931	1.37411
2954.56074	1.35012
2952.63218	1.32656
2950.70361	1.30301
2948.77505	1.28004
2946.84648	1.25826
2944.91792	1.23670
2942.98936	1.21488
2941.06079	1.19354
2939.13223	1.17304
2937.20366	1.15301
2935.27510	1.13306
2933.34653	1.11313
2931.41797	1.09311
2929.48940	1.07340
2927.56084	1.05423
2925.63228	1.03496
2923.70371	1.01608
2921.77515	0.99813
2919.84658	0.98047
2917.91802	0.96302
2915.98945	0.94612
2914.06089	0.92913
2912.13232	0.91162
2910.20376	0.89457
2908.27520	0.87891
2906.34663	0.86431
2904.41807	0.84983
2902.48950	0.83541
2900.56094	0.82138
2898.63237	0.80769
2896.70381	0.79442
2894.77524	0.78151
2892.84668	0.76873
2890.91812	0.75647
2888.98955	0.74498
2887.06099	0.73378
2885.13242	0.72279
2883.20386	0.71220
2881.27529	0.70205
2879.34673	0.69224
2877.41816	0.68264
2875.48960	0.67305
2873.56104	0.66298
2871.63247	0.65218
2869.70391	0.64083
2867.77534	0.62894
2865.84678	0.61657
2863.91821	0.60443
2861.98965	0.59292
2860.06108	0.58160
2858.13252	0.57057
2856.20396	0.56039
2854.27539	0.55082
2852.34683	0.54144
2850.41826	0.53233
2848.48970	0.52347
2846.56113	0.51480
2844.63257	0.50671
2842.70400	0.49951
2840.77544	0.49298
2838.84687	0.48664
2836.91831	0.48026
2834.98975	0.47403
2833.06118	0.46791
2831.13262	0.46173
2829.20405	0.45568
2827.27549	0.44978
2825.34692	0.44370
2823.41836	0.43739
2821.48979	0.43116
2819.56123	0.42519
2817.63267	0.41926
2815.70410	0.41328
2813.77554	0.40743
2811.84697	0.40169
2809.91841	0.39594
2807.98984	0.39019
2806.06128	0.38466
2804.13271	0.37949
2802.20415	0.37440
2800.27559	0.36933
2798.34702	0.36434
2796.41846	0.35924
2794.48989	0.35415
2792.56133	0.34933
2790.63276	0.34466
2788.70420	0.33990
2786.77563	0.33509
2784.84707	0.33052
2782.91851	0.32627
2780.98994	0.32206
2779.06138	0.31773
2777.13281	0.31348
2775.20425	0.30935
2773.27568	0.30535
2771.34712	0.30146
2769.41855	0.29753
2767.48999	0.29366
2765.56143	0.29001
2763.63286	0.28652
2761.70430	0.28316
2759.77573	0.27992
2757.84717	0.27665
2755.91860	0.27321
2753.99004	0.26979
2752.06147	0.26664
2750.13291	0.26366
2748.20435	0.26061
2746.27578	0.25756
2744.34722	0.25469
2742.41865	0.25196
2740.49009	0.24914
2738.56152	0.24622
2736.63296	0.24342
2734.70439	0.24089
2732.77583	0.23840
2730.84727	0.23584
2728.91870	0.23340
2726.99014	0.23098
2725.06157	0.22859
2723.13301	0.22647
2721.20444	0.22447
2719.27588	0.22241
2717.34731	0.22034
2715.41875	0.21812
2713.49019	0.21586
2711.56162	0.21386
2709.63306	0.21204
2707.70449	0.21025
2705.77593	0.20850
2703.84736	0.20675
2701.91880	0.20515
2699.99023	0.20383
2698.06167	0.20244
2696.13311	0.20081
2694.20454	0.19921
2692.27598	0.19770
2690.34741	0.19619
2688.41885	0.19481
2686.49028	0.19362
2684.56172	0.19235
2682.63315	0.19105
2680.70459	0.18984
2678.77603	0.18850
2676.84746	0.18711
2674.91890	0.18596
2672.99033	0.18491
2671.06177	0.18373
2669.13320	0.18249
2667.20464	0.18134
2665.27607	0.18029
2663.34751	0.17936
2661.41895	0.17855
2659.49038	0.17774
2657.56182	0.17681
2655.63325	0.17580
2653.70469	0.17491
2651.77612	0.17426
2649.84756	0.17366
2647.91899	0.17295
2645.99043	0.17224
2644.06187	0.17161
2642.13330	0.17098
2640.20474	0.17038
2638.27617	0.16980
2636.34761	0.16916
2634.41904	0.16849
2632.49048	0.16793
2630.56191	0.16747
2628.63335	0.16701
2626.70479	0.16661
2624.77622	0.16627
2622.84766	0.16588
2620.91909	0.16548
2618.99053	0.16514
2617.06196	0.16483
2615.13340	0.16458
2613.20483	0.16443
2611.27627	0.16436
2609.34771	0.16419
2607.41914	0.16388
2605.49058	0.16367
2603.56201	0.16362
2601.63345	0.16357
2599.70488	0.16351
2597.77632	0.16349
2595.84775	0.16354
2593.91919	0.16359
2591.99062	0.16365
2590.06206	0.16371
2588.13350	0.16373
2586.20493	0.16372
2584.27637	0.16381
2582.34780	0.16402
2580.41924	0.16421
2578.49067	0.16437
2576.56211	0.16456
2574.63354	0.16484
2572.70498	0.16520
2570.77642	0.16543
2568.84785	0.16564
2566.91929	0.16614
2564.99072	0.16671
2563.06216	0.16707
2561.13359	0.16733
2559.20503	0.16765
2557.27646	0.16805
2555.34790	0.16852
2553.41934	0.16895
2551.49077	0.16926
2549.56221	0.16967
2547.63364	0.17025
2545.70508	0.17081
2543.77651	0.17137
2541.84795	0.17198
2539.91938	0.17258
2537.99082	0.17318
2536.06226	0.17375
2534.13369	0.17434
2532.20513	0.17502
2530.27656	0.17565
2528.34800	0.17623
2526.41943	0.17689
2524.49087	0.17764
2522.56230	0.17839
2520.63374	0.17911
2518.70518	0.17980
2516.77661	0.18047
2514.84805	0.18118
2512.91948	0.18198
2510.99092	0.18272
2509.06235	0.18339
2507.13379	0.18410
2505.20522	0.18494
2503.27666	0.18584
2501.34810	0.18659
2499.41953	0.18725
2497.49097	0.18802
2495.56240	0.18889
2493.63384	0.18975
2491.70527	0.19061
2489.77671	0.19162
2487.84814	0.19265
2485.91958	0.19344
2483.99102	0.19407
2482.06245	0.19476
2480.13389	0.19554
2478.20532	0.19636
2476.27676	0.19724
2474.34819	0.19815
2472.41963	0.19896
2470.49106	0.19970
2468.56250	0.20055
2466.63394	0.20150
2464.70537	0.20247
2462.77681	0.20340
2460.84824	0.20426
2458.91968	0.20508
2456.99111	0.20599
2455.06255	0.20694
2453.13398	0.20788
2451.20542	0.20880
2449.27686	0.20976
2447.34829	0.21075
2445.41973	0.21170
2443.49116	0.21260
2441.56260	0.21355
2439.63403	0.21466
2437.70547	0.21572
2435.77690	0.21658
2433.84834	0.21744
2431.91978	0.21852
2429.99121	0.21972
2428.06265	0.22089
2426.13408	0.22203
2424.20552	0.22314
2422.27695	0.22416
2420.34839	0.22507
2418.41982	0.22605
2416.49126	0.22718
2414.56270	0.22833
2412.63413	0.22944
2410.70557	0.23053
2408.77700	0.23163
2406.84844	0.23273
2404.91987	0.23390
2402.99131	0.23506
2401.06274	0.23624
2399.13418	0.23760
2397.20562	0.23902
2395.27705	0.24020
2393.34849	0.24124
2391.41992	0.24246
2389.49136	0.24381
2387.56279	0.24511
2385.63423	0.24633
2383.70566	0.24757
2381.77710	0.24891
2379.84854	0.25036
2377.91997	0.25186
2375.99141	0.25343
2374.06284	0.25499
2372.13428	0.25655
2370.20571	0.25874
2368.27715	0.26166
2366.34858	0.26418
2364.42002	0.26495
2362.49146	0.26491
2360.56289	0.26679
2358.63433	0.26978
2356.70576	0.27178
2354.77720	0.27327
2352.84863	0.27508
2350.92007	0.27639
2348.99150	0.27683
2347.06294	0.27727
2345.13437	0.27858
2343.20581	0.28074
2341.27725	0.28301
2339.34868	0.28543
2337.42012	0.28720
2335.49155	0.28772
2333.56299	0.28806
2331.63442	0.28927
2329.70586	0.29131
2327.77729	0.29353
2325.84873	0.29537
2323.92017	0.29677
2321.99160	0.29802
2320.06304	0.29955
2318.13447	0.30142
2316.20591	0.30314
2314.27734	0.30469
2312.34878	0.30645
2310.42021	0.30835
2308.49165	0.31008
2306.56309	0.31169
2304.63452	0.31315
2302.70596	0.31458
2300.77739	0.31629
2298.84883	0.31819
2296.92026	0.32010
2294.99170	0.32203
2293.06313	0.32388
2291.13457	0.32561
2289.20601	0.32741
2287.27744	0.32933
2285.34888	0.33124
2283.42031	0.33314
2281.49175	0.33513
2279.56318	0.33722
2277.63462	0.33929
2275.70605	0.34134
2273.77749	0.34342
2271.84893	0.34554
2269.92036	0.34763
2267.99180	0.34965
2266.06323	0.35163
2264.13467	0.35374
2262.20610	0.35599
2260.27754	0.35824
2258.34897	0.36044
2256.42041	0.36260
2254.49185	0.36468
2252.56328	0.36684
2250.63472	0.36920
2248.70615	0.37144
2246.77759	0.37345
2244.84902	0.37545
2242.92046	0.37760
2240.99189	0.37990
2239.06333	0.38223
2237.13477	0.38452
2235.20620	0.38679
2233.27764	0.38903
2231.34907	0.39127
2229.42051	0.39354
2227.49194	0.39575
2225.56338	0.39791
2223.63481	0.40017
2221.70625	0.40251
2219.77769	0.40479
2217.84912	0.40684
2215.92056	0.40881
2213.99199	0.41099
2212.06343	0.41338
2210.13486	0.41576
2208.20630	0.41794
2206.27773	0.41996
2204.34917	0.42203
2202.42061	0.42411
2200.49204	0.42598
2198.56348	0.42783
2196.63491	0.42992
2194.70635	0.43212
2192.77778	0.43414
2190.84922	0.43594
2188.92065	0.43765
2186.99209	0.43944
2185.06353	0.44126
2183.13496	0.44297
2181.20640	0.44460
2179.27783	0.44627
2177.34927	0.44795
2175.42070	0.44955
2173.49214	0.45111
2171.56357	0.45266
2169.63501	0.45411
2167.70645	0.45540
2165.77788	0.45658
2163.84932	0.45771
2161.92075	0.45885
2159.99219	0.45995
2158.06362	0.46089
2156.13506	0.46176
2154.20649	0.46270
2152.27793	0.46363
2150.34937	0.46437
2148.42080	0.46497
2146.49224	0.46554
2144.56367	0.46609
2142.63511	0.46655
2140.70654	0.46689
2138.77798	0.46716
2136.84941	0.46740
2134.92085	0.46750
2132.99229	0.46742
2131.06372	0.46733
2129.13516	0.46727
2127.20659	0.46713
2125.27803	0.46684
2123.34946	0.46638
2121.42090	0.46586
2119.49233	0.46539
2117.56377	0.46486
2115.63521	0.46414
2113.70664	0.46329
2111.77808	0.46234
2109.84951	0.46133
2107.92095	0.46043
2105.99238	0.45941
2104.06382	0.45810
2102.13525	0.45670
2100.20669	0.45535
2098.27812	0.45397
2096.34956	0.45247
2094.42100	0.45090
2092.49243	0.44931
2090.56387	0.44769
2088.63530	0.44598
2086.70674	0.44416
2084.77817	0.44218
2082.84961	0.44008
2080.92104	0.43805
2078.99248	0.43619
2077.06392	0.43429
2075.13535	0.43212
2073.20679	0.42979
2071.27822	0.42752
2069.34966	0.42523
2067.42109	0.42283
2065.49253	0.42047
2063.56396	0.41814
2061.63540	0.41574
2059.70684	0.41327
2057.77827	0.41079
2055.84971	0.40828
2053.92114	0.40572
2051.99258	0.40310
2050.06401	0.40032
2048.13545	0.39749
2046.20688	0.39478
2044.27832	0.39217
2042.34976	0.38943
2040.42119	0.38660
2038.49263	0.38386
2036.56406	0.38117
2034.63550	0.37843
2032.70693	0.37561
2030.77837	0.37273
2028.84980	0.36986
2026.92124	0.36710
2024.99268	0.36439
2023.06411	0.36158
2021.13555	0.35862
2019.20698	0.35574
2017.27842	0.35300
2015.34985	0.35022
2013.42129	0.34744
2011.49272	0.34467
2009.56416	0.34186
2007.63560	0.33908
2005.70703	0.33635
2003.77847	0.33362
2001.84990	0.33095
1999.92134	0.32835
1997.99277	0.32574
1996.06421	0.32309
1994.13564	0.32047
1992.20708	0.31790
1990.27852	0.31533
1988.34995	0.31279
1986.42139	0.31030
1984.49282	0.30788
1982.56426	0.30554
1980.63569	0.30322
1978.70713	0.30091
1976.77856	0.29857
1974.85000	0.29624
1972.92144	0.29400
1970.99287	0.29184
1969.06431	0.28973
1967.13574	0.28769
1965.20718	0.28568
1963.27861	0.28370
1961.35005	0.28172
1959.42148	0.27971
1957.49292	0.27774
1955.56436	0.27585
1953.63579	0.27411
1951.70723	0.27247
1949.77866	0.27087
1947.85010	0.26928
1945.92153	0.26772
1943.99297	0.26615
1942.06440	0.26450
1940.13584	0.26281
1938.20728	0.26122
1936.27871	0.25982
1934.35015	0.25859
1932.42158	0.25742
1930.49302	0.25615
1928.56445	0.25494
1926.63589	0.25385
1924.70732	0.25282
1922.77876	0.25177
1920.85020	0.25068
1918.92163	0.24970
1916.99307	0.24887
1915.06450	0.24808
1913.13594	0.24728
1911.20737	0.24655
1909.27881	0.24584
1907.35024	0.24508
1905.42168	0.24429
1903.49312	0.24355
1901.56455	0.24297
1899.63599	0.24255
1897.70742	0.24222
1895.77886	0.24182
1893.85029	0.24139
1891.92173	0.24099
1889.99316	0.24072
1888.06460	0.24044
1886.13604	0.24013
1884.20747	0.23989
1882.27891	0.23967
1880.35034	0.23950
1878.42178	0.23941
1876.49321	0.23938
1874.56465	0.23938
1872.63608	0.23951
1870.70752	0.23971
1868.77896	0.24005
1866.85039	0.24033
1864.92183	0.24030
1862.99326	0.24024
1861.06470	0.24038
1859.13613	0.24075
1857.20757	0.24113
1855.27900	0.24156
1853.35044	0.24202
1851.42187	0.24256
1849.49331	0.24315
1847.56475	0.24381
1845.63618	0.24459
1843.70762	0.24557
1841.77905	0.24644
1839.85049	0.24692
1837.92192	0.24756
1835.99336	0.24844
1834.06479	0.24940
1832.13623	0.25027
1830.20767	0.25140
1828.27910	0.25284
1826.35054	0.25405
1824.42197	0.25538
1822.49341	0.25675
1820.56484	0.25806
1818.63628	0.25948
1816.70771	0.26114
1814.77915	0.26276
1812.85059	0.26438
1810.92202	0.26626
1808.99346	0.26833
1807.06489	0.27041
1805.13633	0.27235
1803.20776	0.27440
1801.27920	0.27675
1799.35063	0.27958
1797.42207	0.28224
1795.49351	0.28459
1793.56494	0.28712
1791.63638	0.29067
1789.70781	0.29447
1787.77925	0.29724
1785.85068	0.30018
1783.92212	0.30371
1781.99355	0.30759
1780.06499	0.31177
1778.13643	0.31615
1776.20786	0.32023
1774.27930	0.32444
1772.35073	0.33007
1770.42217	0.33644
1768.49360	0.34190
1766.56504	0.34712
1764.63647	0.35239
1762.70791	0.35812
1760.77935	0.36559
1758.85078	0.37270
1756.92222	0.37975
1754.99365	0.38746
1753.06509	0.39426
1751.13652	0.40214
1749.20796	0.41255
1747.27939	0.42323
1745.35083	0.43240
1743.42227	0.44181
1741.49370	0.45216
1739.56514	0.46457
1737.63657	0.47705
1735.70801	0.48750
1733.77944	0.50347
1731.85088	0.52360
1729.92231	0.53962
1727.99375	0.55574
1726.06519	0.57269
1724.13662	0.59108
1722.20806	0.61099
1720.27949	0.62885
1718.35093	0.64949
1716.42236	0.68192
1714.49380	0.71373
1712.56523	0.73882
1710.63667	0.76273
1708.70811	0.78832
1706.77954	0.81747
1704.85098	0.85293
1702.92241	0.88452
1700.99385	0.91468
1699.06528	0.96073
1697.13672	1.00485
1695.20815	1.05136
1693.27959	1.09607
1691.35103	1.13105
1689.42246	1.17169
1687.49390	1.21534
1685.56533	1.25689
1683.63677	1.32302
1681.70820	1.39429
1679.77964	1.43888
1677.85107	1.48058
1675.92251	1.52810
1673.99395	1.58808
1672.06538	1.64212
1670.13682	1.69550
1668.20825	1.76631
1666.27969	1.82291
1664.35112	1.87143
1662.42256	1.93527
1660.49399	2.00985
1658.56543	2.06656
1656.63687	2.11166
1654.70830	2.15194
1652.77974	2.21323
1650.85117	2.27261
1648.92261	2.29179
1646.99404	2.31548
1645.06548	2.34003
1643.13691	2.35759
1641.20835	2.36785
1639.27979	2.37776
1637.35122	2.38274
1635.42266	2.37889
1633.49409	2.36932
1631.56553	2.35551
1629.63696	2.33751
1627.70840	2.30654
1625.77983	2.27227
1623.85127	2.22823
1621.92271	2.17297
1619.99414	2.12491
1618.06558	2.07809
1616.13701	2.00933
1614.20845	1.94100
1612.27988	1.89119
1610.35132	1.83815
1608.42275	1.77944
1606.49419	1.72233
1604.56562	1.67085
1602.63706	1.62139
1600.70850	1.57375
1598.77993	1.53036
1596.85137	1.48908
1594.92280	1.44847
1592.99424	1.40947
1591.06567	1.37438
1589.13711	1.34180
1587.20854	1.31165
1585.27998	1.28424
1583.35142	1.25941
1581.42285	1.23749
1579.49429	1.21914
1577.56572	1.20280
1575.63716	1.18289
1573.70859	1.16602
1571.78003	1.15580
1569.85146	1.14590
1567.92290	1.13539
1565.99434	1.12851
1564.06577	1.12466
1562.13721	1.12234
1560.20864	1.12194
1558.28008	1.12667
1556.35151	1.13294
1554.42295	1.13621
1552.49438	1.13958
1550.56582	1.14133
1548.63726	1.14003
1546.70869	1.13534
1544.78013	1.12653
1542.85156	1.11356
1540.92300	1.09379
1538.99443	1.06220
1537.06587	1.03988
1535.13730	1.02421
1533.20874	1.00191
1531.28018	0.97832
1529.35161	0.96170
1527.42305	0.94595
1525.49448	0.92965
1523.56592	0.91611
1521.63735	0.90343
1519.70879	0.89084
1517.78022	0.88026
1515.85166	0.86767
1513.92310	0.85440
1511.99453	0.84265
1510.06597	0.83181
1508.13740	0.82084
1506.20884	0.80356
1504.28027	0.79010
1502.35171	0.78297
1500.42314	0.77648
1498.49458	0.76939
1496.56602	0.76097
1494.63745	0.75272
1492.70889	0.74631
1490.78032	0.74033
1488.85176	0.73359
1486.92319	0.72787
1484.99463	0.72363
1483.06606	0.72032
1481.13750	0.71760
1479.20894	0.71567
1477.28037	0.71479
1475.35181	0.71466
1473.42324	0.71500
1471.49468	0.71511
1469.56611	0.71393
1467.63755	0.71187
1465.70898	0.70994
1463.78042	0.70883
1461.85186	0.70835
1459.92329	0.70813
1457.99473	0.70824
1456.06616	0.70838
1454.13760	0.70717
1452.20903	0.70490
1450.28047	0.70220
1448.35190	0.69950
1446.42334	0.69656
1444.49478	0.69369
1442.56621	0.69113
1440.63765	0.68852
1438.70908	0.68559
1436.78052	0.68169
1434.85195	0.67747
1432.92339	0.67457
1430.99482	0.67274
1429.06626	0.67179
1427.13770	0.67173
1425.20913	0.67237
1423.28057	0.67357
1421.35200	0.67463
1419.42344	0.67528
1417.49487	0.67544
1415.56631	0.67493
1413.63774	0.67443
1411.70918	0.67451
1409.78062	0.67543
1407.85205	0.67687
1405.92349	0.67872
1403.99492	0.68065
1402.06636	0.68137
1400.13779	0.68056
1398.20923	0.67873
1396.28066	0.67612
1394.35210	0.67234
1392.42354	0.66762
1390.49497	0.66286
1388.56641	0.65802
1386.63784	0.65273
1384.70928	0.64736
1382.78071	0.64215
1380.85215	0.63705
1378.92358	0.63256
1376.99502	0.62914
1375.06646	0.62685
1373.13789	0.62548
1371.20933	0.62467
1369.28076	0.62413
1367.35220	0.62329
1365.42363	0.62183
1363.49507	0.61999
1361.56650	0.61806
1359.63794	0.61638
1357.70937	0.61508
1355.78081	0.61399
1353.85225	0.61302
1351.92368	0.61215
1349.99512	0.61125
1348.06655	0.61022
1346.13799	0.60924
1344.20942	0.60840
1342.28086	0.60756
1340.35229	0.60669
1338.42373	0.60584
1336.49517	0.60522
1334.56660	0.60499
1332.63804	0.60508
1330.70947	0.60535
1328.78091	0.60586
1326.85234	0.60666
1324.92378	0.60754
1322.99521	0.60847
1321.06665	0.60949
1319.13809	0.61043
1317.20952	0.61098
1315.28096	0.61111
1313.35239	0.61088
1311.42383	0.61028
1309.49526	0.60948
1307.56670	0.60881
1305.63813	0.60829
1303.70957	0.60766
1301.78101	0.60686
1299.85244	0.60592
1297.92388	0.60483
1295.99531	0.60346
1294.06675	0.60193
1292.13818	0.60039
1290.20962	0.59892
1288.28105	0.59755
1286.35249	0.59618
1284.42393	0.59471
1282.49536	0.59309
1280.56680	0.59140
1278.63823	0.58982
1276.70967	0.58839
1274.78110	0.58698
1272.85254	0.58575
1270.92397	0.58498
1268.99541	0.58446
1267.06685	0.58379
1265.13828	0.58292
1263.20972	0.58207
1261.28115	0.58128
1259.35259	0.58054
1257.42402	0.57999
1255.49546	0.57971
1253.56689	0.57967
1251.63833	0.57978
1249.70977	0.57993
1247.78120	0.57995
1245.85264	0.57974
1243.92407	0.57924
1241.99551	0.57822
1240.06694	0.57662
1238.13838	0.57464
1236.20981	0.57237
1234.28125	0.56993
1232.35269	0.56750
1230.42412	0.56512
1228.49556	0.56287
1226.56699	0.56069
1224.63843	0.55859
1222.70986	0.55667
1220.78130	0.55496
1218.85273	0.55339
1216.92417	0.55187
1214.99561	0.55042
1213.06704	0.54917
1211.13848	0.54828
1209.20991	0.54772
1207.28135	0.54728
1205.35278	0.54668
1203.42422	0.54577
1201.49565	0.54466
1199.56709	0.54357
1197.63853	0.54259
1195.70996	0.54174
1193.78140	0.54105
1191.85283	0.54041
1189.92427	0.53981
1187.99570	0.53928
1186.06714	0.53893
1184.13857	0.53902
1182.21001	0.53962
1180.28145	0.54060
1178.35288	0.54197
1176.42432	0.54360
1174.49575	0.54503
1172.56719	0.54594
1170.63862	0.54641
1168.71006	0.54665
1166.78149	0.54681
1164.85293	0.54693
1162.92437	0.54687
1160.99580	0.54658
1159.06724	0.54618
1157.13867	0.54565
1155.21011	0.54492
1153.28154	0.54383
1151.35298	0.54215
1149.42441	0.53977
1147.49585	0.53686
1145.56729	0.53379
1143.63872	0.53101
1141.71016	0.52873
1139.78159	0.52694
1137.85303	0.52560
1135.92446	0.52483
1133.99590	0.52470
1132.06733	0.52488
1130.13877	0.52502
1128.21021	0.52484
1126.28164	0.52442
1124.35308	0.52410
1122.42451	0.52390
1120.49595	0.52386
1118.56738	0.52398
1116.63882	0.52413
1114.71025	0.52438
1112.78169	0.52491
1110.85312	0.52567
1108.92456	0.52650
1106.99600	0.52728
1105.06743	0.52810
1103.13887	0.52908
1101.21030	0.53026
1099.28174	0.53164
1097.35317	0.53335
1095.42461	0.53582
1093.49604	0.53950
1091.56748	0.54437
1089.63892	0.55034
1087.71035	0.55754
1085.78179	0.56570
1083.85322	0.57394
1081.92466	0.58116
1079.99609	0.58646
1078.06753	0.58907
1076.13896	0.58842
1074.21040	0.58464
1072.28184	0.57879
1070.35327	0.57190
1068.42471	0.56460
1066.49614	0.55749
1064.56758	0.55124
1062.63901	0.54599
1060.71045	0.54138
1058.78188	0.53735
1056.85332	0.53386
1054.92476	0.53066
1052.99619	0.52770
1051.06763	0.52506
1049.13906	0.52299
1047.21050	0.52174
1045.28193	0.52114
1043.35337	0.52077
1041.42480	0.52030
1039.49624	0.51990
1037.56768	0.51984
1035.63911	0.51970
1033.71055	0.51895
1031.78198	0.51782
1029.85342	0.51650
1027.92485	0.51488
1025.99629	0.51321
1024.06772	0.51179
1022.13916	0.51075
1020.21060	0.51023
1018.28203	0.51019
1016.35347	0.51031
1014.42490	0.51020
1012.49634	0.50972
1010.56777	0.50927
1008.63921	0.50927
1006.71064	0.50982
1004.78208	0.51094
1002.85352	0.51257
1000.92495	0.51495
998.99639	0.51838
997.06782	0.52259
995.13926	0.52694
993.21069	0.53105
991.28213	0.53450
989.35356	0.53661
987.42500	0.53721
985.49644	0.53705
983.56787	0.53695
981.63931	0.53711
979.71074	0.53766
977.78218	0.53892
975.85361	0.54079
973.92505	0.54305
971.99648	0.54576
970.06792	0.54883
968.13936	0.55229
966.21079	0.55619
964.28223	0.56053
962.35366	0.56532
960.42510	0.57032
958.49653	0.57544
956.56797	0.58093
954.63940	0.58671
952.71084	0.59272
950.78228	0.59913
948.85371	0.60573
946.92515	0.61206
944.99658	0.61815
943.06802	0.62451
941.13945	0.63101
939.21089	0.63700
937.28232	0.64269
935.35376	0.64845
933.42520	0.65414
931.49663	0.65991
929.56807	0.66583
927.63950	0.67158
925.71094	0.67685
923.78237	0.68218
921.85381	0.68880
919.92524	0.69646
917.99668	0.70370
916.06812	0.71021
914.13955	0.71717
912.21099	0.72520
910.28242	0.73352
908.35386	0.74134
906.42529	0.74908
904.49673	0.75792
902.56816	0.76825
900.63960	0.77913
898.71104	0.78916
896.78247	0.79795
894.85391	0.80674
892.92534	0.81645
890.99678	0.82696
889.06821	0.83821
887.13965	0.84919
885.21108	0.85888
883.28252	0.86858
881.35396	0.88007
879.42539	0.89256
877.49683	0.90437
875.56826	0.91670
873.63970	0.92963
871.71113	0.94123
869.78257	0.95222
867.85400	0.96283
865.92544	0.97249
863.99687	0.98264
862.06831	0.99398
860.13975	1.00685
858.21118	1.02151
856.28262	1.03531
854.35405	1.04625
852.42549	1.05672
850.49692	1.06870
848.56836	1.08099
846.63979	1.09272
844.71123	1.10375
842.78267	1.11442
840.85410	1.12645
838.92554	1.13928
836.99697	1.15051
835.06841	1.16098
833.13984	1.17283
831.21128	1.18412
829.28271	1.19382
827.35415	1.20516
825.42559	1.21573
823.49702	1.22255
821.56846	1.23308
819.63989	1.25092
817.71133	1.26255
815.78276	1.26488
813.85420	1.27129
811.92563	1.28354
809.99707	1.30115
808.06851	1.32007
806.13994	1.32819
804.21138	1.33189
802.28281	1.34226
800.35425	1.34952
798.42568	1.36082
796.49712	1.40165
794.56855	1.45045
792.63999	1.45322
790.71143	1.42063
788.78286	1.40166
786.85430	1.40650
784.92573	1.42916
782.99717	1.45341
781.06860	1.46526
779.14004	1.51158
777.21147	1.61122
775.28291	1.66250
773.35435	1.58801
771.42578	1.47024
769.49722	1.39944
767.56865	1.37837
765.64009	1.37027
763.71152	1.42111
761.78296	1.54874
759.85439	1.55089
757.92583	1.49985
755.99727	1.58628
754.06870	1.54559
752.14014	1.31955
750.21157	1.23824
748.28301	1.31342
746.35444	1.33135
744.42588	1.16999
742.49731	1.08813
740.56875	1.09569
738.64019	1.07199
736.71162	0.96053
734.78306	0.89656
732.85449	0.86295
730.92593	0.78630
728.99736	0.76215
727.06880	0.77166
725.14023	0.57697
723.21167	0.33087
721.28311	0.17322
719.35454	0.09082
717.42598	0.06833
715.49741	0.09975
713.56885	0.18110
711.64028	0.21193
709.71172	0.22922
707.78315	0.22475
705.85459	0.18548
703.92603	0.22821
701.99746	0.37317
700.06890	0.43557
698.14033	0.34165
696.21177	0.28219
694.28320	0.28487
692.35464	0.31756
690.42607	0.35619
688.49751	0.38700
686.56895	0.34591
684.64038	0.25930
682.71182	0.17168
680.78325	0.12557
678.85469	0.15744
676.92612	0.24704
674.99756	0.24025
673.06899	0.10529
671.14043	0.09160
669.21187	0.18580
667.28330	0.21279
665.35474	0.21330
663.42617	0.31019
661.49761	0.52404
659.56904	0.90729
657.64048	0.92394
655.71191	0.57715
653.78335	0.48137
651.85479	0.51184
649.92622	0.54255
647.99766	0.48921
646.06909	0.41415
644.14053	0.38650
642.21196	0.35879
640.28340	0.28293
638.35483	0.18564
636.42627	0.13260
634.49771	0.15054
632.56914	0.22399
630.64058	0.29667
628.71201	0.31285
626.78345	0.31713
624.85488	0.34566
622.92632	0.39128
620.99775	0.41818
619.06919	0.44499
617.14062	0.64817
615.21206	3.69127
613.28350	0.76114
611.35493	0.45420
609.42637	0.44770
607.49780	0.59804
605.56924	0.63641
603.64067	0.54610
601.71211	0.46016
599.78354	0.32153
597.85498	0.23003
595.92642	0.22419
593.99785	0.26353
592.06929	0.29591
590.14072	0.29371
588.21216	0.24217
586.28359	0.18595
584.35503	0.17051
582.42646	0.16539
580.49790	0.19391
578.56934	0.26554
576.64077	0.28340
574.71221	0.25648
572.78364	0.24509
570.85508	0.27609
568.92651	0.35638
566.99795	0.37625
565.06938	0.27395
563.14082	0.18911
561.21226	0.19808
559.28369	0.27658
557.35513	0.31096
555.42656	0.27405
553.49800	0.22383
551.56943	0.19227
549.64087	0.20609
547.71230	0.24031
545.78374	0.22223
543.85518	0.18753
541.92661	0.18325
539.99805	0.22971
538.06948	0.36322
536.14092	0.50065
534.21235	0.56950
532.28379	0.76896
530.35522	0.85552
528.42666	0.53319
526.49810	0.39114
524.56953	0.38494
522.64097	0.43537
520.71240	0.37362
518.78384	0.25996
516.85527	0.21348
514.92671	0.23976
512.99814	0.34634
511.06958	0.38666
509.14102	0.26274
507.21245	0.20456
505.28389	0.21618
503.35532	0.21425
501.42676	0.21264
499.49819	0.25041
