3997.91411	0.05541
3995.98555	0.05632
3994.05698	0.05718
3992.12842	0.05731
3990.19985	0.05692
3988.27129	0.05672
3986.34272	0.05687
3984.41416	0.05742
3982.48560	0.05820
3980.55703	0.05869
3978.62847	0.05868
3976.69990	0.05851
3974.77134	0.05860
3972.84277	0.05901
3970.91421	0.05942
3968.98564	0.05954
3967.05708	0.05945
3965.12852	0.05937
3963.19995	0.05946
3961.27139	0.05976
3959.34282	0.06014
3957.41426	0.06046
3955.48569	0.06060
3953.55713	0.06050
3951.62856	0.06043
3949.70000	0.06074
3947.77144	0.06109
3945.84287	0.06099
3943.91431	0.06058
3941.98574	0.06040
3940.05718	0.06067
3938.12861	0.06106
3936.20005	0.06122
3934.27148	0.06118
3932.34292	0.06119
3930.41436	0.06133
3928.48579	0.06124
3926.55723	0.06081
3924.62866	0.06071
3922.70010	0.06099
3920.77153	0.06099
3918.84297	0.06092
3916.91440	0.06125
3914.98584	0.06158
3913.05728	0.06141
3911.12871	0.06087
3909.20015	0.06042
3907.27158	0.06046
3905.34302	0.06104
3903.41445	0.06216
3901.48589	0.06307
3899.55732	0.06291
3897.62876	0.06256
3895.70020	0.06236
3893.77163	0.06196
3891.84307	0.06172
3889.91450	0.06183
3887.98594	0.06178
3886.05737	0.06207
3884.12881	0.06265
3882.20024	0.06275
3880.27168	0.06293
3878.34312	0.06303
3876.41455	0.06272
3874.48599	0.06295
3872.55742	0.06388
3870.62886	0.06473
3868.70029	0.06548
3866.77173	0.06579
3864.84316	0.06583
3862.91460	0.06603
3860.98604	0.06589
3859.05747	0.06558
3857.12891	0.06573
3855.20034	0.06623
3853.27178	0.06708
3851.34321	0.06793
3849.41465	0.06781
3847.48608	0.06773
3845.55752	0.06828
3843.62896	0.06924
3841.70039	0.07047
3839.77183	0.07229
3837.84326	0.07419
3835.91470	0.07445
3833.98613	0.07374
3832.05757	0.07377
3830.12900	0.07448
3828.20044	0.07523
3826.27187	0.07602
3824.34331	0.07700
3822.41475	0.07836
3820.48618	0.08050
3818.55762	0.08169
3816.62905	0.08135
3814.70049	0.08116
3812.77192	0.08140
3810.84336	0.08205
3808.91479	0.08344
3806.98623	0.08558
3805.05767	0.08752
3803.12910	0.08859
3801.20054	0.08966
3799.27197	0.09070
3797.34341	0.09161
3795.41484	0.09288
3793.48628	0.09377
3791.55771	0.09448
3789.62915	0.09559
3787.70059	0.09678
3785.77202	0.09822
3783.84346	0.09997
3781.91489	0.10123
3779.98633	0.10254
3778.05776	0.10462
3776.12920	0.10634
3774.20063	0.10765
3772.27207	0.10932
3770.34351	0.11136
3768.41494	0.11355
3766.48638	0.11546
3764.55781	0.11725
3762.62925	0.11901
3760.70068	0.12119
3758.77212	0.12439
3756.84355	0.12741
3754.91499	0.12918
3752.98643	0.13099
3751.05786	0.13455
3749.12930	0.13963
3747.20073	0.14318
3745.27217	0.14585
3743.34360	0.14931
3741.41504	0.15281
3739.48647	0.15632
3737.55791	0.16079
3735.62935	0.16675
3733.70078	0.17365
3731.77222	0.17955
3729.84365	0.18431
3727.91509	0.18874
3725.98652	0.19403
3724.05796	0.20018
3722.12939	0.20640
3720.20083	0.21288
3718.27227	0.21922
3716.34370	0.22521
3714.41514	0.23159
3712.48657	0.24048
3710.55801	0.25490
3708.62944	0.27113
3706.70088	0.28330
3704.77231	0.29410
3702.84375	0.30709
3700.91519	0.32427
3698.98662	0.34306
3697.05806	0.36071
3695.12949	0.37928
3693.20093	0.39886
3691.27236	0.41987
3689.34380	0.44775
3687.41523	0.48314
3685.48667	0.51339
3683.55811	0.53866
3681.62954	0.56609
3679.70098	0.59764
3677.77241	0.63070
3675.84385	0.66950
3673.91528	0.72327
3671.98672	0.76724
3670.05815	0.80619
3668.12959	0.86058
3666.20103	0.90952
3664.27246	0.95003
3662.34390	0.99376
3660.41533	1.04115
3658.48677	1.08736
3656.55820	1.13595
3654.62964	1.19085
3652.70107	1.23684
3650.77251	1.27598
3648.84395	1.33219
3646.91538	1.40429
3644.98682	1.45615
3643.05825	1.49533
3641.12969	1.53547
3639.20112	1.57984
3637.27256	1.62481
3635.34399	1.66919
3633.41543	1.71336
3631.48687	1.75337
3629.55830	1.79381
3627.62974	1.84942
3625.70117	1.90139
3623.77261	1.93553
3621.84404	1.96860
3619.91548	2.00685
3617.98691	2.05312
3616.05835	2.09734
3614.12979	2.13380
3612.20122	2.17228
3610.27266	2.21175
3608.34409	2.25269
3606.41553	2.29686
3604.48696	2.33664
3602.55840	2.37067
3600.62983	2.40780
3598.70127	2.44950
3596.77271	2.49029
3594.84414	2.53079
3592.91558	2.57275
3590.98701	2.61246
3589.05845	2.64762
3587.12988	2.68935
3585.20132	2.73968
3583.27275	2.78315
3581.34419	2.82112
3579.41562	2.86136
3577.48706	2.90279
3575.55850	2.94376
3573.62993	2.98844
3571.70137	3.03243
3569.77280	3.07109
3567.84424	3.11163
3565.91567	3.16593
3563.98711	3.22079
3562.05854	3.26336
3560.12998	3.30391
3558.20142	3.34713
3556.27285	3.39166
3554.34429	3.43578
3552.41572	3.48256
3550.48716	3.53110
3548.55859	3.57720
3546.63003	3.62256
3544.70146	3.66945
3542.77290	3.71573
3540.84434	3.76258
3538.91577	3.81194
3536.98721	3.86066
3535.05864	3.90892
3533.13008	3.95714
3531.20151	4.00452
3529.27295	4.05109
3527.34438	4.10123
3525.41582	4.15422
3523.48726	4.20275
3521.55869	4.24849
3519.63013	4.29390
3517.70156	4.34052
3515.77300	4.38879
3513.84443	4.43707
3511.91587	4.48602
3509.98730	4.53807
3508.05874	4.59178
3506.13018	4.63852
3504.20161	4.67764
3502.27305	4.72116
3500.34448	4.77393
3498.41592	4.82565
3496.48735	4.87088
3494.55879	4.91860
3492.63022	4.97283
3490.70166	5.02285
3488.77310	5.06756
3486.84453	5.11675
3484.91597	5.17021
3482.98740	5.21433
3481.05884	5.24567
3479.13027	5.28342
3477.20171	5.34096
3475.27314	5.40313
3473.34458	5.45276
3471.41602	5.49412
3469.48745	5.53266
3467.55889	5.57186
3465.63032	5.62350
3463.70176	5.68981
3461.77319	5.75408
3459.84463	5.80809
3457.91606	5.86041
3455.98750	5.91350
3454.05894	5.95943
3452.13037	6.00463
3450.20181	6.05248
3448.27324	6.08766
3446.34468	6.11829
3444.41611	6.15788
3442.48755	6.20868
3440.55898	6.27564
3438.63042	6.35157
3436.70186	6.41011
3434.77329	6.44141
3432.84473	6.46601
3430.91616	6.50336
3428.98760	6.55873
3427.05903	6.62444
3425.13047	6.69811
3423.20190	6.76389
3421.27334	6.79900
3419.34478	6.80863
3417.41621	6.84714
3415.48765	6.92217
3413.55908	6.97163
3411.63052	7.00355
3409.70195	7.06111
3407.77339	7.14964
3405.84482	7.22785
3403.91626	7.26565
3401.98770	7.26271
3400.05913	7.24150
3398.13057	7.24161
3396.20200	7.26719
3394.27344	7.32231
3392.34487	7.40867
3390.41631	7.48098
3388.48774	7.50191
3386.55918	7.53420
3384.63062	7.57600
3382.70205	7.58887
3380.77349	7.62168
3378.84492	7.69988
3376.91636	7.75556
3374.98779	7.69272
3373.05923	7.62415
3371.13066	7.67433
3369.20210	7.78883
3367.27354	7.83266
3365.34497	7.78522
3363.41641	7.74918
3361.48784	7.76190
3359.55928	7.81767
3357.63071	7.93849
3355.70215	8.09094
3353.77358	8.13617
3351.84502	8.06771
3349.91646	7.97324
3347.98789	7.91497
3346.05933	7.90252
3344.13076	7.90967
3342.20220	7.94358
3340.27363	7.97191
3338.34507	7.97338
3336.41650	7.96718
3334.48794	7.96210
3332.55937	7.97114
3330.63081	8.05041
3328.70225	8.12996
3326.77368	8.11289
3324.84512	8.09457
3322.91655	8.11709
3320.98799	8.10802
3319.05942	8.03253
3317.13086	7.97632
3315.20229	7.98685
3313.27373	8.04502
3311.34517	8.06954
3309.41660	8.05506
3307.48804	8.12944
3305.55947	8.25219
3303.63091	8.31226
3301.70234	8.31927
3299.77378	8.24509
3297.84521	8.10615
3295.91665	8.06914
3293.98809	8.10248
3292.05952	8.11911
3290.13096	8.20955
3288.20239	8.30902
3286.27383	8.28524
3284.34526	8.22385
3282.41670	8.25558
3280.48813	8.32350
3278.55957	8.27072
3276.63101	8.14358
3274.70244	8.12601
3272.77388	8.21894
3270.84531	8.27131
3268.91675	8.27579
3266.98818	8.31528
3265.05962	8.36916
3263.13105	8.34898
3261.20249	8.25939
3259.27393	8.15355
3257.34536	8.10578
3255.41680	8.14970
3253.48823	8.22400
3251.55967	8.29173
3249.63110	8.32933
3247.70254	8.29989
3245.77397	8.19368
3243.84541	8.09060
3241.91685	8.12632
3239.98828	8.32281
3238.05972	8.47022
3236.13115	8.40606
3234.20259	8.29015
3232.27402	8.23346
3230.34546	8.19237
3228.41689	8.09547
3226.48833	8.02562
3224.55977	8.09797
3222.63120	8.16187
3220.70264	8.05435
3218.77407	7.94207
3216.84551	7.90001
3214.91694	7.85138
3212.98838	7.80157
3211.05981	7.79716
3209.13125	7.85168
3207.20269	7.93162
3205.27412	8.00565
3203.34556	8.00496
3201.41699	7.87016
3199.48843	7.73307
3197.55986	7.69623
3195.63130	7.70221
3193.70273	7.65972
3191.77417	7.54558
3189.84561	7.42895
3187.91704	7.39981
3185.98848	7.44743
3184.05991	7.45076
3182.13135	7.39300
3180.20278	7.33843
3178.27422	7.25150
3176.34565	7.16551
3174.41709	7.14798
3172.48853	7.15068
3170.55996	7.11074
3168.63140	7.01076
3166.70283	6.88331
3164.77427	6.80898
3162.84570	6.79154
3160.91714	6.75413
3158.98857	6.68046
3157.06001	6.60624
3155.13145	6.55348
3153.20288	6.49812
3151.27432	6.41961
3149.34575	6.35207
3147.41719	6.29130
3145.48862	6.20374
3143.56006	6.11243
3141.63149	6.05009
3139.70293	5.99379
3137.77437	5.92034
3135.84580	5.84970
3133.91724	5.79310
3131.98867	5.73742
3130.06011	5.67124
3128.13154	5.58656
3126.20298	5.49219
3124.27441	5.41566
3122.34585	5.35363
3120.41729	5.28285
3118.48872	5.20507
3116.56016	5.12882
3114.63159	5.05857
3112.70303	4.99776
3110.77446	4.93547
3108.84590	4.86646
3106.91733	4.80191
3104.98877	4.73770
3103.06021	4.66444
3101.13164	4.59034
3099.20308	4.52485
3097.27451	4.46621
3095.34595	4.40632
3093.41738	4.34130
3091.48882	4.27458
3089.56025	4.20801
3087.63169	4.14198
3085.70312	4.07846
3083.77456	4.01602
3081.84600	3.95387
3079.91743	3.89362
3077.98887	3.83497
3076.06030	3.77619
3074.13174	3.71664
3072.20317	3.65894
3070.27461	3.60471
3068.34604	3.55039
3066.41748	3.49303
3064.48892	3.43583
3062.56035	3.38070
3060.63179	3.32649
3058.70322	3.27490
3056.77466	3.22456
3054.84609	3.17200
3052.91753	3.11868
3050.98896	3.06607
3049.06040	3.01434
3047.13184	2.96433
3045.20327	2.91507
3043.27471	2.86588
3041.34614	2.81759
3039.41758	2.77051
3037.48901	2.72474
3035.56045	2.67970
3033.63188	2.63471
3031.70332	2.58990
3029.77476	2.54527
3027.84619	2.50129
3025.91763	2.45821
3023.98906	2.41606
3022.06050	2.37522
3020.13193	2.33509
3018.20337	2.29528
3016.27480	2.25563
3014.34624	2.21590
3012.41768	2.17665
3010.48911	2.13810
3008.56055	2.10096
3006.63198	2.06545
3004.70342	2.03026
3002.77485	1.99534
3000.84629	1.96099
2998.91772	1.92697
2996.98916	1.89396
2995.06060	1.86205
2993.13203	1.83087
2991.20347	1.80056
2989.27490	1.77097
2987.34634	1.74175
2985.41777	1.71267
2983.48921	1.68413
2981.56064	1.65672
2979.63208	1.63010
2977.70352	1.60374
2975.77495	1.57777
2973.84639	1.55231
2971.91782	1.52696
2969.98926	1.50184
2968.06069	1.47756
2966.13213	1.45400
2964.20356	1.43096
2962.27500	1.40796
2960.34644	1.38434
2958.41787	1.36051
2956.48931	1.33672
2954.56074	1.31274
2952.63218	1.28903
2950.70361	1.26588
2948.77505	1.24331
2946.84648	1.22157
2944.91792	1.20041
2942.98936	1.17931
2941.06079	1.15855
2939.13223	1.13859
2937.20366	1.11904
2935.27510	1.09910
2933.34653	1.07947
2931.41797	1.06090
2929.48940	1.04216
2927.56084	1.02236
2925.63228	1.00260
2923.70371	0.98405
2921.77515	0.96658
2919.84658	0.94977
2917.91802	0.93328
2915.98945	0.91638
2914.06089	0.89901
2912.13232	0.88225
2910.20376	0.86664
2908.27520	0.85158
2906.34663	0.83687
2904.41807	0.82260
2902.48950	0.80867
2900.56094	0.79490
2898.63237	0.78106
2896.70381	0.76766
2894.77524	0.75513
2892.84668	0.74280
2890.91812	0.73048
2888.98955	0.71884
2887.06099	0.70796
2885.13242	0.69736
2883.20386	0.68684
2881.27529	0.67656
2879.34673	0.66656
2877.41816	0.65689
2875.48960	0.64743
2873.56104	0.63762
2871.63247	0.62709
2869.70391	0.61601
2867.77534	0.60475
2865.84678	0.59336
2863.91821	0.58165
2861.98965	0.57003
2860.06108	0.55900
2858.13252	0.54846
2856.20396	0.53844
2854.27539	0.52898
2852.34683	0.51976
2850.41826	0.51088
2848.48970	0.50257
2846.56113	0.49468
2844.63257	0.48694
2842.70400	0.47942
2840.77544	0.47245
2838.84687	0.46619
2836.91831	0.46036
2834.98975	0.45439
2833.06118	0.44820
2831.13262	0.44213
2829.20405	0.43611
2827.27549	0.43006
2825.34692	0.42416
2823.41836	0.41836
2821.48979	0.41230
2819.56123	0.40597
2817.63267	0.39979
2815.70410	0.39390
2813.77554	0.38813
2811.84697	0.38261
2809.91841	0.37733
2807.98984	0.37193
2806.06128	0.36643
2804.13271	0.36116
2802.20415	0.35618
2800.27559	0.35125
2798.34702	0.34620
2796.41846	0.34116
2794.48989	0.33636
2792.56133	0.33186
2790.63276	0.32745
2788.70420	0.32283
2786.77563	0.31805
2784.84707	0.31348
2782.91851	0.30931
2780.98994	0.30530
2779.06138	0.30116
2777.13281	0.29715
2775.20425	0.29332
2773.27568	0.28936
2771.34712	0.28535
2769.41855	0.28153
2767.48999	0.27791
2765.56143	0.27441
2763.63286	0.27099
2761.70430	0.26765
2759.77573	0.26427
2757.84717	0.26075
2755.91860	0.25743
2753.99004	0.25451
2752.06147	0.25149
2750.13291	0.24823
2748.20435	0.24518
2746.27578	0.24230
2744.34722	0.23932
2742.41865	0.23650
2740.49009	0.23396
2738.56152	0.23142
2736.63296	0.22887
2734.70439	0.22641
2732.77583	0.22402
2730.84727	0.22161
2728.91870	0.21911
2726.99014	0.21666
2725.06157	0.21438
2723.13301	0.21223
2721.20444	0.21023
2719.27588	0.20823
2717.34731	0.20619
2715.41875	0.20416
2713.49019	0.20214
2711.56162	0.20021
2709.63306	0.19849
2707.70449	0.19685
2705.77593	0.19511
2703.84736	0.19342
2701.91880	0.19186
2699.99023	0.19033
2698.06167	0.18891
2696.13311	0.18751
2694.20454	0.18586
2692.27598	0.18419
2690.34741	0.18290
2688.41885	0.18173
2686.49028	0.18044
2684.56172	0.17923
2682.63315	0.17823
2680.70459	0.17721
2678.77603	0.17598
2676.84746	0.17467
2674.91890	0.17345
2672.99033	0.17232
2671.06177	0.17123
2669.13320	0.17010
2667.20464	0.16893
2665.27607	0.16789
2663.34751	0.16703
2661.41895	0.16623
2659.49038	0.16542
2657.56182	0.16457
2655.63325	0.16363
2653.70469	0.16266
2651.77612	0.16172
2649.84756	0.16092
2647.91899	0.16037
2645.99043	0.15991
2644.06187	0.15939
2642.13330	0.15881
2640.20474	0.15829
2638.27617	0.15788
2636.34761	0.15739
2634.41904	0.15679
2632.49048	0.15633
2630.56191	0.15603
2628.63335	0.15567
2626.70479	0.15517
2624.77622	0.15472
2622.84766	0.15434
2620.91909	0.15397
2618.99053	0.15376
2617.06196	0.15371
2615.13340	0.15362
2613.20483	0.15337
2611.27627	0.15306
2609.34771	0.15286
2607.41914	0.15275
2605.49058	0.15269
2603.56201	0.15263
2601.63345	0.15262
2599.70488	0.15277
2597.77632	0.15284
2595.84775	0.15274
2593.91919	0.15272
2591.99062	0.15271
2590.06206	0.15265
2588.13350	0.15266
2586.20493	0.15280
2584.27637	0.15307
2582.34780	0.15341
2580.41924	0.15371
2578.49067	0.15400
2576.56211	0.15433
2574.63354	0.15462
2572.70498	0.15485
2570.77642	0.15511
2568.84785	0.15539
2566.91929	0.15575
2564.99072	0.15624
2563.06216	0.15666
2561.13359	0.15701
2559.20503	0.15751
2557.27646	0.15805
2555.34790	0.15852
2553.41934	0.15904
2551.49077	0.15960
2549.56221	0.16012
2547.63364	0.16062
2545.70508	0.16113
2543.77651	0.16162
2541.84795	0.16221
2539.91938	0.16288
2537.99082	0.16349
2536.06226	0.16399
2534.13369	0.16450
2532.20513	0.16518
2530.27656	0.16602
2528.34800	0.16684
2526.41943	0.16759
2524.49087	0.16835
2522.56230	0.16917
2520.63374	0.16996
2518.70518	0.17059
2516.77661	0.17110
2514.84805	0.17172
2512.91948	0.17257
2510.99092	0.17342
2509.06235	0.17417
2507.13379	0.17500
2505.20522	0.17584
2503.27666	0.17657
2501.34810	0.17725
2499.41953	0.17804
2497.49097	0.17896
2495.56240	0.17976
2493.63384	0.18045
2491.70527	0.18128
2489.77671	0.18222
2487.84814	0.18307
2485.91958	0.18393
2483.99102	0.18488
2482.06245	0.18582
2480.13389	0.18665
2478.20532	0.18747
2476.27676	0.18837
2474.34819	0.18926
2472.41963	0.19010
2470.49106	0.19084
2468.56250	0.19166
2466.63394	0.19266
2464.70537	0.19362
2462.77681	0.19448
2460.84824	0.19543
2458.91968	0.19646
2456.99111	0.19746
2455.06255	0.19847
2453.13398	0.19950
2451.20542	0.20050
2449.27686	0.20144
2447.34829	0.20233
2445.41973	0.20324
2443.49116	0.20422
2441.56260	0.20521
2439.63403	0.20620
2437.70547	0.20730
2435.77690	0.20844
2433.84834	0.20954
2431.91978	0.21065
2429.99121	0.21170
2428.06265	0.21256
2426.13408	0.21334
2424.20552	0.21431
2422.27695	0.21547
2420.34839	0.21669
2418.41982	0.21787
2416.49126	0.21899
2414.56270	0.22011
2412.63413	0.22126
2410.70557	0.22244
2408.77700	0.22372
2406.84844	0.22508
2404.91987	0.22633
2402.99131	0.22742
2401.06274	0.22846
2399.13418	0.22952
2397.20562	0.23067
2395.27705	0.23195
2393.34849	0.23332
2391.41992	0.23477
2389.49136	0.23630
2387.56279	0.23808
2385.63423	0.24040
2383.70566	0.24363
2381.77710	0.24799
2379.84854	0.25334
2377.91997	0.25945
2375.99141	0.26636
2374.06284	0.27433
2372.13428	0.28328
2370.20571	0.29244
2368.27715	0.30177
2366.34858	0.31183
2364.42002	0.32123
2362.49146	0.32865
2360.56289	0.33420
2358.63433	0.33599
2356.70576	0.33283
2354.77720	0.32661
2352.84863	0.31861
2350.92007	0.30989
2348.99150	0.30432
2347.06294	0.30471
2345.13437	0.31172
2343.20581	0.32201
2341.27725	0.32856
2339.34868	0.33009
2337.42012	0.32947
2335.49155	0.32869
2333.56299	0.32822
2331.63442	0.32862
2329.70586	0.32933
2327.77729	0.32912
2325.84873	0.32798
2323.92017	0.32651
2321.99160	0.32460
2320.06304	0.32231
2318.13447	0.32030
2316.20591	0.31877
2314.27734	0.31791
2312.34878	0.31793
2310.42021	0.31831
2308.49165	0.31830
2306.56309	0.31779
2304.63452	0.31729
2302.70596	0.31743
2300.77739	0.31828
2298.84883	0.31933
2296.92026	0.32029
2294.99170	0.32135
2293.06313	0.32250
2291.13457	0.32350
2289.20601	0.32443
2287.27744	0.32543
2285.34888	0.32655
2283.42031	0.32793
2281.49175	0.32978
2279.56318	0.33201
2277.63462	0.33428
2275.70605	0.33647
2273.77749	0.33866
2271.84893	0.34080
2269.92036	0.34288
2267.99180	0.34495
2266.06323	0.34698
2264.13467	0.34902
2262.20610	0.35119
2260.27754	0.35330
2258.34897	0.35530
2256.42041	0.35729
2254.49185	0.35926
2252.56328	0.36127
2250.63472	0.36345
2248.70615	0.36571
2246.77759	0.36784
2244.84902	0.36986
2242.92046	0.37195
2240.99189	0.37416
2239.06333	0.37637
2237.13477	0.37853
2235.20620	0.38068
2233.27764	0.38284
2231.34907	0.38508
2229.42051	0.38736
2227.49194	0.38949
2225.56338	0.39159
2223.63481	0.39382
2221.70625	0.39608
2219.77769	0.39831
2217.84912	0.40052
2215.92056	0.40270
2213.99199	0.40485
2212.06343	0.40700
2210.13486	0.40920
2208.20630	0.41153
2206.27773	0.41384
2204.34917	0.41589
2202.42061	0.41770
2200.49204	0.41953
2198.56348	0.42155
2196.63491	0.42363
2194.70635	0.42562
2192.77778	0.42753
2190.84922	0.42940
2188.92065	0.43131
2186.99209	0.43326
2185.06353	0.43512
2183.13496	0.43687
2181.20640	0.43856
2179.27783	0.44016
2177.34927	0.44167
2175.42070	0.44311
2173.49214	0.44449
2171.56357	0.44588
2169.63501	0.44741
2167.70645	0.44891
2165.77788	0.45026
2163.84932	0.45150
2161.92075	0.45265
2159.99219	0.45374
2158.06362	0.45476
2156.13506	0.45578
2154.20649	0.45676
2152.27793	0.45759
2150.34937	0.45828
2148.42080	0.45885
2146.49224	0.45931
2144.56367	0.45972
2142.63511	0.46017
2140.70654	0.46060
2138.77798	0.46091
2136.84941	0.46110
2134.92085	0.46121
2132.99229	0.46121
2131.06372	0.46113
2129.13516	0.46104
2127.20659	0.46089
2125.27803	0.46066
2123.34946	0.46035
2121.42090	0.45993
2119.49233	0.45934
2117.56377	0.45861
2115.63521	0.45777
2113.70664	0.45694
2111.77808	0.45621
2109.84951	0.45538
2107.92095	0.45437
2105.99238	0.45326
2104.06382	0.45206
2102.13525	0.45068
2100.20669	0.44923
2098.27812	0.44785
2096.34956	0.44646
2094.42100	0.44495
2092.49243	0.44331
2090.56387	0.44166
2088.63530	0.43997
2086.70674	0.43822
2084.77817	0.43643
2082.84961	0.43453
2080.92104	0.43251
2078.99248	0.43041
2077.06392	0.42827
2075.13535	0.42614
2073.20679	0.42393
2071.27822	0.42159
2069.34966	0.41930
2067.42109	0.41710
2065.49253	0.41485
2063.56396	0.41251
2061.63540	0.41009
2059.70684	0.40761
2057.77827	0.40516
2055.84971	0.40267
2053.92114	0.40005
2051.99258	0.39745
2050.06401	0.39496
2048.13545	0.39236
2046.20688	0.38958
2044.27832	0.38679
2042.34976	0.38406
2040.42119	0.38135
2038.49263	0.37867
2036.56406	0.37596
2034.63550	0.37318
2032.70693	0.37034
2030.77837	0.36752
2028.84980	0.36472
2026.92124	0.36192
2024.99268	0.35911
2023.06411	0.35632
2021.13555	0.35362
2019.20698	0.35099
2017.27842	0.34831
2015.34985	0.34549
2013.42129	0.34261
2011.49272	0.33976
2009.56416	0.33705
2007.63560	0.33434
2005.70703	0.33160
2003.77847	0.32895
2001.84990	0.32636
1999.92134	0.32367
1997.99277	0.32095
1996.06421	0.31839
1994.13564	0.31594
1992.20708	0.31336
1990.27852	0.31063
1988.34995	0.30803
1986.42139	0.30563
1984.49282	0.30326
1982.56426	0.30085
1980.63569	0.29847
1978.70713	0.29621
1976.77856	0.29394
1974.85000	0.29160
1972.92144	0.28931
1970.99287	0.28719
1969.06431	0.28517
1967.13574	0.28314
1965.20718	0.28108
1963.27861	0.27916
1961.35005	0.27738
1959.42148	0.27558
1957.49292	0.27363
1955.56436	0.27163
1953.63579	0.26978
1951.70723	0.26809
1949.77866	0.26649
1947.85010	0.26489
1945.92153	0.26321
1943.99297	0.26161
1942.06440	0.26021
1940.13584	0.25885
1938.20728	0.25738
1936.27871	0.25591
1934.35015	0.25454
1932.42158	0.25329
1930.49302	0.25208
1928.56445	0.25090
1926.63589	0.24978
1924.70732	0.24883
1922.77876	0.24795
1920.85020	0.24696
1918.92163	0.24606
1916.99307	0.24527
1915.06450	0.24431
1913.13594	0.24332
1911.20737	0.24264
1909.27881	0.24204
1907.35024	0.24128
1905.42168	0.24047
1903.49312	0.23986
1901.56455	0.23945
1899.63599	0.23901
1897.70742	0.23852
1895.77886	0.23810
1893.85029	0.23768
1891.92173	0.23721
1889.99316	0.23692
1888.06460	0.23672
1886.13604	0.23651
1884.20747	0.23634
1882.27891	0.23616
1880.35034	0.23596
1878.42178	0.23582
1876.49321	0.23580
1874.56465	0.23579
1872.63608	0.23581
1870.70752	0.23595
1868.77896	0.23640
1866.85039	0.23681
1864.92183	0.23685
1862.99326	0.23687
1861.06470	0.23707
1859.13613	0.23747
1857.20757	0.23787
1855.27900	0.23824
1853.35044	0.23860
1851.42187	0.23905
1849.49331	0.23963
1847.56475	0.24035
1845.63618	0.24124
1843.70762	0.24235
1841.77905	0.24320
1839.85049	0.24366
1837.92192	0.24438
1835.99336	0.24527
1834.06479	0.24612
1832.13623	0.24706
1830.20767	0.24848
1828.27910	0.25005
1826.35054	0.25115
1824.42197	0.25234
1822.49341	0.25365
1820.56484	0.25494
1818.63628	0.25629
1816.70771	0.25785
1814.77915	0.25947
1812.85059	0.26124
1810.92202	0.26335
1808.99346	0.26550
1807.06489	0.26741
1805.13633	0.26923
1803.20776	0.27138
1801.27920	0.27388
1799.35063	0.27669
1797.42207	0.27925
1795.49351	0.28171
1793.56494	0.28458
1791.63638	0.28827
1789.70781	0.29177
1787.77925	0.29440
1785.85068	0.29751
1783.92212	0.30122
1781.99355	0.30513
1780.06499	0.30929
1778.13643	0.31361
1776.20786	0.31763
1774.27930	0.32184
1772.35073	0.32762
1770.42217	0.33413
1768.49360	0.33962
1766.56504	0.34481
1764.63647	0.34996
1762.70791	0.35557
1760.77935	0.36295
1758.85078	0.36999
1756.92222	0.37704
1754.99365	0.38473
1753.06509	0.39147
1751.13652	0.39940
1749.20796	0.41005
1747.27939	0.42087
1745.35083	0.43015
1743.42227	0.43981
1741.49370	0.45059
1739.56514	0.46323
1737.63657	0.47548
1735.70801	0.48576
1733.77944	0.50186
1731.85088	0.52201
1729.92231	0.53783
1727.99375	0.55364
1726.06519	0.57036
1724.13662	0.58862
1722.20806	0.60854
1720.27949	0.62673
1718.35093	0.64785
1716.42236	0.68037
1714.49380	0.71183
1712.56523	0.73664
1710.63667	0.76039
1708.70811	0.78582
1706.77954	0.81483
1704.85098	0.85024
1702.92241	0.88198
1700.99385	0.91253
1699.06528	0.95872
1697.13672	1.00199
1695.20815	1.04698
1693.27959	1.09082
1691.35103	1.12537
1689.42246	1.16509
1687.49390	1.20764
1685.56533	1.24864
1683.63677	1.31390
1681.70820	1.38317
1679.77964	1.42596
1677.85107	1.46675
1675.92251	1.51326
1673.99395	1.57117
1672.06538	1.62387
1670.13682	1.67682
1668.20825	1.74704
1666.27969	1.80295
1664.35112	1.85026
1662.42256	1.91155
1660.49399	1.98227
1658.56543	2.03538
1656.63687	2.07776
1654.70830	2.11657
1652.77974	2.17924
1650.85117	2.24072
1648.92261	2.25988
1646.99404	2.28458
1645.06548	2.31073
1643.13691	2.32738
1641.20835	2.33458
1639.27979	2.34268
1637.35122	2.34919
1635.42266	2.34933
1633.49409	2.34149
1631.56553	2.32620
1629.63696	2.30751
1627.70840	2.27779
1625.77983	2.24444
1623.85127	2.20097
1621.92271	2.14777
1619.99414	2.10235
1618.06558	2.05780
1616.13701	1.99017
1614.20845	1.92186
1612.27988	1.87236
1610.35132	1.82040
1608.42275	1.76349
1606.49419	1.70783
1604.56562	1.65744
1602.63706	1.60960
1600.70850	1.56334
1598.77993	1.52007
1596.85137	1.47856
1594.92280	1.43834
1592.99424	1.39985
1591.06567	1.36472
1589.13711	1.33185
1587.20854	1.30168
1585.27998	1.27431
1583.35142	1.24910
1581.42285	1.22619
1579.49429	1.20659
1577.56572	1.18924
1575.63716	1.16883
1573.70859	1.15165
1571.78003	1.14086
1569.85146	1.12984
1567.92290	1.11804
1565.99434	1.11005
1564.06577	1.10466
1562.13721	1.10069
1560.20864	1.09881
1558.28008	1.10098
1556.35151	1.10491
1554.42295	1.10684
1552.49438	1.10901
1550.56582	1.10952
1548.63726	1.10675
1546.70869	1.10107
1544.78013	1.09205
1542.85156	1.07923
1540.92300	1.05972
1538.99443	1.02974
1537.06587	1.00939
1535.13730	0.99543
1533.20874	0.97540
1531.28018	0.95382
1529.35161	0.93860
1527.42305	0.92432
1525.49448	0.90919
1523.56592	0.89633
1521.63735	0.88462
1519.70879	0.87290
1517.78022	0.86273
1515.85166	0.85062
1513.92310	0.83809
1511.99453	0.82721
1510.06597	0.81719
1508.13740	0.80721
1506.20884	0.79153
1504.28027	0.77900
1502.35171	0.77224
1500.42314	0.76596
1498.49458	0.75913
1496.56602	0.75149
1494.63745	0.74420
1492.70889	0.73852
1490.78032	0.73328
1488.85176	0.72718
1486.92319	0.72165
1484.99463	0.71743
1483.06606	0.71417
1481.13750	0.71167
1479.20894	0.71003
1477.28037	0.70936
1475.35181	0.70936
1473.42324	0.70971
1471.49468	0.70968
1469.56611	0.70861
1467.63755	0.70693
1465.70898	0.70520
1463.78042	0.70392
1461.85186	0.70318
1459.92329	0.70282
1457.99473	0.70284
1456.06616	0.70214
1454.13760	0.70003
1452.20903	0.69766
1450.28047	0.69506
1448.35190	0.69220
1446.42334	0.68920
1444.49478	0.68662
1442.56621	0.68416
1440.63765	0.68130
1438.70908	0.67829
1436.78052	0.67479
1434.85195	0.67090
1432.92339	0.66790
1430.99482	0.66607
1429.06626	0.66524
1427.13770	0.66509
1425.20913	0.66557
1423.28057	0.66654
1421.35200	0.66722
1419.42344	0.66748
1417.49487	0.66730
1415.56631	0.66639
1413.63774	0.66555
1411.70918	0.66538
1409.78062	0.66596
1407.85205	0.66705
1405.92349	0.66848
1403.99492	0.66983
1402.06636	0.67025
1400.13779	0.66964
1398.20923	0.66816
1396.28066	0.66567
1394.35210	0.66173
1392.42354	0.65712
1390.49497	0.65306
1388.56641	0.64907
1386.63784	0.64415
1384.70928	0.63883
1382.78071	0.63403
1380.85215	0.62975
1378.92358	0.62604
1376.99502	0.62318
1375.06646	0.62132
1373.13789	0.62014
1371.20933	0.61929
1369.28076	0.61859
1367.35220	0.61761
1365.42363	0.61625
1363.49507	0.61471
1361.56650	0.61298
1359.63794	0.61120
1357.70937	0.60957
1355.78081	0.60817
1353.85225	0.60711
1351.92368	0.60633
1349.99512	0.60565
1348.06655	0.60485
1346.13799	0.60383
1344.20942	0.60277
1342.28086	0.60185
1340.35229	0.60113
1338.42373	0.60047
1336.49517	0.59980
1334.56660	0.59925
1332.63804	0.59894
1330.70947	0.59899
1328.78091	0.59934
1326.85234	0.59979
1324.92378	0.60044
1322.99521	0.60140
1321.06665	0.60241
1319.13809	0.60317
1317.20952	0.60350
1315.28096	0.60340
1313.35239	0.60298
1311.42383	0.60234
1309.49526	0.60167
1307.56670	0.60102
1305.63813	0.60032
1303.70957	0.59958
1301.78101	0.59882
1299.85244	0.59787
1297.92388	0.59673
1295.99531	0.59548
1294.06675	0.59408
1292.13818	0.59266
1290.20962	0.59136
1288.28105	0.59014
1286.35249	0.58882
1284.42393	0.58736
1282.49536	0.58592
1280.56680	0.58454
1278.63823	0.58316
1276.70967	0.58180
1274.78110	0.58057
1272.85254	0.57957
1270.92397	0.57875
1268.99541	0.57800
1267.06685	0.57732
1265.13828	0.57667
1263.20972	0.57599
1261.28115	0.57523
1259.35259	0.57444
1257.42402	0.57376
1255.49546	0.57330
1253.56689	0.57317
1251.63833	0.57326
1249.70977	0.57336
1247.78120	0.57328
1245.85264	0.57297
1243.92407	0.57242
1241.99551	0.57159
1240.06694	0.57046
1238.13838	0.56890
1236.20981	0.56673
1234.28125	0.56425
1232.35269	0.56189
1230.42412	0.55969
1228.49556	0.55760
1226.56699	0.55554
1224.63843	0.55340
1222.70986	0.55141
1220.78130	0.54972
1218.85273	0.54810
1216.92417	0.54655
1214.99561	0.54527
1213.06704	0.54430
1211.13848	0.54358
1209.20991	0.54307
1207.28135	0.54253
1205.35278	0.54177
1203.42422	0.54086
1201.49565	0.53984
1199.56709	0.53877
1197.63853	0.53779
1195.70996	0.53701
1193.78140	0.53641
1191.85283	0.53584
1189.92427	0.53521
1187.99570	0.53466
1186.06714	0.53448
1184.13857	0.53465
1182.21001	0.53507
1180.28145	0.53594
1178.35288	0.53730
1176.42432	0.53882
1174.49575	0.54024
1172.56719	0.54132
1170.63862	0.54191
1168.71006	0.54222
1166.78149	0.54254
1164.85293	0.54289
1162.92437	0.54309
1160.99580	0.54314
1159.06724	0.54311
1157.13867	0.54277
1155.21011	0.54196
1153.28154	0.54084
1151.35298	0.53930
1149.42441	0.53702
1147.49585	0.53411
1145.56729	0.53113
1143.63872	0.52826
1141.71016	0.52562
1139.78159	0.52352
1137.85303	0.52213
1135.92446	0.52148
1133.99590	0.52135
1132.06733	0.52122
1130.13877	0.52111
1128.21021	0.52108
1126.28164	0.52082
1124.35308	0.52038
1122.42451	0.52008
1120.49595	0.52001
1118.56738	0.52022
1116.63882	0.52069
1114.71025	0.52138
1112.78169	0.52217
1110.85312	0.52285
1108.92456	0.52346
1106.99600	0.52428
1105.06743	0.52544
1103.13887	0.52671
1101.21030	0.52777
1099.28174	0.52889
1097.35317	0.53053
1095.42461	0.53298
1093.49604	0.53645
1091.56748	0.54115
1089.63892	0.54715
1087.71035	0.55442
1085.78179	0.56252
1083.85322	0.57092
1081.92466	0.57874
1079.99609	0.58447
1078.06753	0.58699
1076.13896	0.58610
1074.21040	0.58232
1072.28184	0.57665
1070.35327	0.57006
1068.42471	0.56305
1066.49614	0.55614
1064.56758	0.54998
1062.63901	0.54481
1060.71045	0.54036
1058.78188	0.53615
1056.85332	0.53219
1054.92476	0.52888
1052.99619	0.52621
1051.06763	0.52397
1049.13906	0.52216
1047.21050	0.52083
1045.28193	0.52010
1043.35337	0.51994
1041.42480	0.52010
1039.49624	0.52023
1037.56768	0.52010
1035.63911	0.51976
1033.71055	0.51927
1031.78198	0.51832
1029.85342	0.51674
1027.92485	0.51481
1025.99629	0.51306
1024.06772	0.51183
1022.13916	0.51092
1020.21060	0.51037
1018.28203	0.51010
1016.35347	0.50975
1014.42490	0.50934
1012.49634	0.50886
1010.56777	0.50841
1008.63921	0.50845
1006.71064	0.50910
1004.78208	0.51003
1002.85352	0.51144
1000.92495	0.51385
998.99639	0.51717
997.06782	0.52118
995.13926	0.52559
993.21069	0.52977
991.28213	0.53300
989.35356	0.53491
987.42500	0.53549
985.49644	0.53523
983.56787	0.53492
981.63931	0.53506
979.71074	0.53574
977.78218	0.53692
975.85361	0.53870
973.92505	0.54102
971.99648	0.54369
970.06792	0.54690
968.13936	0.55072
966.21079	0.55487
964.28223	0.55926
962.35366	0.56378
960.42510	0.56843
958.49653	0.57365
956.56797	0.57944
954.63940	0.58532
952.71084	0.59113
950.78228	0.59718
948.85371	0.60372
946.92515	0.61040
944.99658	0.61668
943.06802	0.62254
941.13945	0.62825
939.21089	0.63397
937.28232	0.63965
935.35376	0.64545
933.42520	0.65149
931.49663	0.65762
929.56807	0.66348
927.63950	0.66908
925.71094	0.67508
923.78237	0.68148
921.85381	0.68750
919.92524	0.69335
917.99668	0.69987
916.06812	0.70715
914.13955	0.71474
912.21099	0.72274
910.28242	0.73114
908.35386	0.73965
906.42529	0.74839
904.49673	0.75733
902.56816	0.76601
900.63960	0.77439
898.71104	0.78328
896.78247	0.79347
894.85391	0.80417
892.92534	0.81368
890.99678	0.82254
889.06821	0.83277
887.13965	0.84460
885.21108	0.85652
883.28252	0.86796
881.35396	0.87987
879.42539	0.89220
877.49683	0.90447
875.56826	0.91633
873.63970	0.92660
871.71113	0.93606
869.78257	0.94661
867.85400	0.95804
865.92544	0.96974
863.99687	0.98274
862.06831	0.99608
860.13975	1.00630
858.21118	1.01468
856.28262	1.02543
854.35405	1.03864
852.42549	1.05158
850.49692	1.06403
848.56836	1.07687
846.63979	1.08912
844.71123	1.10074
842.78267	1.11253
840.85410	1.12543
838.92554	1.13863
836.99697	1.14876
835.06841	1.15477
833.13984	1.16320
831.21128	1.17839
829.28271	1.19166
827.35415	1.19988
825.42559	1.21035
823.49702	1.22352
821.56846	1.23939
819.63989	1.25835
817.71133	1.26956
815.78276	1.26776
813.85420	1.26633
811.92563	1.27581
809.99707	1.29007
808.06851	1.30012
806.13994	1.30918
804.21138	1.31521
802.28281	1.31783
800.35425	1.33558
798.42568	1.36890
796.49712	1.39331
794.56855	1.40543
792.63999	1.40402
790.71143	1.37948
788.78286	1.34297
786.85430	1.32109
784.92573	1.36130
782.99717	1.44942
781.06860	1.46511
779.14004	1.40057
777.21147	1.35435
775.28291	1.36037
773.35435	1.37768
771.42578	1.36324
769.49722	1.33251
767.56865	1.30578
765.64009	1.31230
763.71152	1.35205
761.78296	1.34892
759.85439	1.30430
757.92583	1.30134
755.99727	1.34250
754.06870	1.34500
752.14014	1.30682
750.21157	1.32495
748.28301	1.41089
746.35444	1.48140
744.42588	1.38628
742.49731	1.23209
740.56875	1.13106
738.64019	1.06968
736.71162	1.06946
734.78306	1.03710
732.85449	0.86497
730.92593	0.72057
728.99736	0.61653
727.06880	0.50767
725.14023	0.45115
723.21167	0.43346
721.28311	0.42768
719.35454	0.52513
717.42598	0.59397
715.49741	0.36704
713.56885	0.05926
711.64028	-0.17359
709.71172	-0.14924
707.78315	0.32443
705.85459	4.23513
703.92603	4.22356
701.99746	4.21198
700.06890	4.20041
698.14033	0.35779
696.21177	0.13437
694.28320	0.12205
692.35464	0.18599
690.42607	0.36104
688.49751	0.95544
686.56895	0.50175
684.64038	0.17501
682.71182	0.20455
680.78325	0.35512
678.85469	0.44527
676.92612	0.49358
674.99756	0.68860
673.06899	0.95957
671.14043	0.75745
669.21187	0.47514
667.28330	0.26692
665.35474	0.16433
663.42617	0.29498
661.49761	3.96899
659.56904	3.95741
657.64048	0.44619
655.71191	0.12377
653.78335	0.00902
651.85479	0.07838
649.92622	0.30394
647.99766	0.58035
646.06909	0.43561
644.14053	0.24632
642.21196	0.19975
640.28340	0.20282
638.35483	0.21992
636.42627	0.19056
634.49771	0.10383
632.56914	0.01210
630.64058	-0.03918
628.71201	-0.00690
626.78345	0.05871
624.85488	0.08772
622.92632	0.08555
620.99775	0.12485
619.06919	0.26790
617.14062	0.41585
615.21206	0.39298
613.28350	0.30493
611.35493	0.24901
609.42637	0.24468
607.49780	0.27025
605.56924	0.33536
603.64067	0.40313
601.71211	0.35545
599.78354	0.34576
597.85498	0.43661
595.92642	0.43413
593.99785	0.33489
592.06929	0.30110
590.14072	0.30704
588.21216	0.34663
586.28359	0.34601
584.35503	0.21840
582.42646	0.14068
580.49790	0.14555
578.56934	0.16020
576.64077	0.20261
574.71221	0.27959
572.78364	0.25376
570.85508	0.16827
568.92651	0.16822
566.99795	0.27454
565.06938	0.32422
563.14082	0.23211
561.21226	0.14682
559.28369	0.09033
557.35513	0.04649
555.42656	0.04393
553.49800	0.16149
551.56943	0.39063
549.64087	0.42269
547.71230	0.31779
545.78374	0.26441
543.85518	0.30002
541.92661	0.56625
539.99805	3.23999
538.06948	0.83812
536.14092	0.32634
534.21235	0.16298
532.28379	0.12801
530.35522	0.14438
528.42666	0.14305
526.49810	0.13701
524.56953	0.15618
522.64097	0.16188
520.71240	0.15953
518.78384	0.16742
516.85527	0.15106
514.92671	0.14766
512.99814	0.22980
511.06958	0.33831
509.14102	0.25035
507.21245	0.17661
505.28389	0.19631
503.35532	0.24046
501.42676	0.23404
499.49819	0.18664
