3997.91411	0.06787
3995.98555	0.06841
3994.05698	0.06919
3992.12842	0.06976
3990.19985	0.07002
3988.27129	0.07017
3986.34272	0.07040
3984.41416	0.07073
3982.48560	0.07095
3980.55703	0.07100
3978.62847	0.07127
3976.69990	0.07184
3974.77134	0.07239
3972.84277	0.07276
3970.91421	0.07281
3968.98564	0.07259
3967.05708	0.07239
3965.12852	0.07233
3963.19995	0.07250
3961.27139	0.07284
3959.34282	0.07314
3957.41426	0.07317
3955.48569	0.07290
3953.55713	0.07283
3951.62856	0.07323
3949.70000	0.07352
3947.77144	0.07331
3945.84287	0.07311
3943.91431	0.07342
3941.98574	0.07392
3940.05718	0.07397
3938.12861	0.07362
3936.20005	0.07322
3934.27148	0.07329
3932.34292	0.07421
3930.41436	0.07492
3928.48579	0.07437
3926.55723	0.07351
3924.62866	0.07337
3922.70010	0.07363
3920.77153	0.07359
3918.84297	0.07338
3916.91440	0.07354
3914.98584	0.07376
3913.05728	0.07337
3911.12871	0.07285
3909.20015	0.07261
3907.27158	0.07288
3905.34302	0.07397
3903.41445	0.07541
3901.48589	0.07585
3899.55732	0.07517
3897.62876	0.07421
3895.70020	0.07332
3893.77163	0.07294
3891.84307	0.07318
3889.91450	0.07377
3887.98594	0.07428
3886.05737	0.07463
3884.12881	0.07499
3882.20024	0.07534
3880.27168	0.07585
3878.34312	0.07596
3876.41455	0.07533
3874.48599	0.07496
3872.55742	0.07519
3870.62886	0.07606
3868.70029	0.07722
3866.77173	0.07743
3864.84316	0.07744
3862.91460	0.07769
3860.98604	0.07747
3859.05747	0.07721
3857.12891	0.07741
3855.20034	0.07824
3853.27178	0.08019
3851.34321	0.08173
3849.41465	0.08077
3847.48608	0.07962
3845.55752	0.07950
3843.62896	0.08029
3841.70039	0.08129
3839.77183	0.08227
3837.84326	0.08357
3835.91470	0.08416
3833.98613	0.08413
3832.05757	0.08490
3830.12900	0.08579
3828.20044	0.08600
3826.27187	0.08640
3824.34331	0.08720
3822.41475	0.08829
3820.48618	0.09013
3818.55762	0.09112
3816.62905	0.09145
3814.70049	0.09273
3812.77192	0.09337
3810.84336	0.09318
3808.91479	0.09364
3806.98623	0.09509
3805.05767	0.09660
3803.12910	0.09763
3801.20054	0.09930
3799.27197	0.10109
3797.34341	0.10192
3795.41484	0.10271
3793.48628	0.10330
3791.55771	0.10368
3789.62915	0.10460
3787.70059	0.10614
3785.77202	0.10787
3783.84346	0.10951
3781.91489	0.11103
3779.98633	0.11270
3778.05776	0.11464
3776.12920	0.11600
3774.20063	0.11691
3772.27207	0.11834
3770.34351	0.12076
3768.41494	0.12360
3766.48638	0.12573
3764.55781	0.12747
3762.62925	0.12897
3760.70068	0.13063
3758.77212	0.13332
3756.84355	0.13635
3754.91499	0.13863
3752.98643	0.14102
3751.05786	0.14490
3749.12930	0.14956
3747.20073	0.15197
3745.27217	0.15365
3743.34360	0.15728
3741.41504	0.16093
3739.48647	0.16306
3737.55791	0.16576
3735.62935	0.17053
3733.70078	0.17639
3731.77222	0.18084
3729.84365	0.18415
3727.91509	0.18755
3725.98652	0.19255
3724.05796	0.19941
3722.12939	0.20675
3720.20083	0.21430
3718.27227	0.22214
3716.34370	0.23022
3714.41514	0.23830
3712.48657	0.24757
3710.55801	0.26060
3708.62944	0.27482
3706.70088	0.28629
3704.77231	0.29694
3702.84375	0.30951
3700.91519	0.32663
3698.98662	0.34592
3697.05806	0.36393
3695.12949	0.38286
3693.20093	0.40296
3691.27236	0.42460
3689.34380	0.45294
3687.41523	0.48828
3685.48667	0.51919
3683.55811	0.54564
3681.62954	0.57394
3679.70098	0.60595
3677.77241	0.63973
3675.84385	0.67955
3673.91528	0.73309
3671.98672	0.77679
3670.05815	0.81556
3668.12959	0.86969
3666.20103	0.91935
3664.27246	0.96031
3662.34390	1.00411
3660.41533	1.05163
3658.48677	1.09854
3656.55820	1.14852
3654.62964	1.20441
3652.70107	1.25125
3650.77251	1.29198
3648.84395	1.34912
3646.91538	1.41963
3644.98682	1.47024
3643.05825	1.50875
3641.12969	1.54895
3639.20112	1.59391
3637.27256	1.63867
3635.34399	1.68122
3633.41543	1.72421
3631.48687	1.76563
3629.55830	1.80714
3627.62974	1.86097
3625.70117	1.91290
3623.77261	1.94799
3621.84404	1.98045
3619.91548	2.01840
3617.98691	2.06628
3616.05835	2.11195
3614.12979	2.14806
3612.20122	2.18604
3610.27266	2.22577
3608.34409	2.26631
3606.41553	2.30953
3604.48696	2.34955
3602.55840	2.38414
3600.62983	2.42110
3598.70127	2.46278
3596.77271	2.50391
3594.84414	2.54448
3592.91558	2.58562
3590.98701	2.62408
3589.05845	2.66007
3587.12988	2.70390
3585.20132	2.75333
3583.27275	2.79469
3581.34419	2.83249
3579.41562	2.87412
3577.48706	2.91852
3575.55850	2.96257
3573.62993	3.00710
3571.70137	3.04985
3569.77280	3.08881
3567.84424	3.12861
3565.91567	3.17930
3563.98711	3.23223
3562.05854	3.27670
3560.12998	3.31908
3558.20142	3.36152
3556.27285	3.40326
3554.34429	3.44568
3552.41572	3.49430
3550.48716	3.54588
3548.55859	3.59021
3546.63003	3.62957
3544.70146	3.67604
3542.77290	3.72712
3540.84434	3.77288
3538.91577	3.81746
3536.98721	3.86492
3535.05864	3.91434
3533.13008	3.96278
3531.20151	4.01126
3529.27295	4.06146
3527.34438	4.11385
3525.41582	4.16412
3523.48726	4.20791
3521.55869	4.25297
3519.63013	4.30299
3517.70156	4.35126
3515.77300	4.39619
3513.84443	4.44366
3511.91587	4.49409
3509.98730	4.54663
3508.05874	4.59982
3506.13018	4.64641
3504.20161	4.68867
3502.27305	4.73683
3500.34448	4.78900
3498.41592	4.83677
3496.48735	4.87897
3494.55879	4.91656
3492.63022	4.96001
3490.70166	5.01740
3488.77310	5.07792
3486.84453	5.12765
3484.91597	5.16771
3482.98740	5.21026
3481.05884	5.26047
3479.13027	5.31191
3477.20171	5.36034
3475.27314	5.40677
3473.34458	5.45337
3471.41602	5.49860
3469.48745	5.53873
3467.55889	5.58262
3465.63032	5.63719
3463.70176	5.68982
3461.77319	5.73295
3459.84463	5.78138
3457.91606	5.84122
3455.98750	5.89890
3454.05894	5.94605
3452.13037	6.00090
3450.20181	6.07130
3448.27324	6.12868
3446.34468	6.16623
3444.41611	6.19833
3442.48755	6.23914
3440.55898	6.30071
3438.63042	6.37712
3436.70186	6.44192
3434.77329	6.48566
3432.84473	6.53042
3430.91616	6.57894
3428.98760	6.61117
3427.05903	6.63493
3425.13047	6.67659
3423.20190	6.71726
3421.27334	6.77079
3419.34478	6.87018
3417.41621	6.97337
3415.48765	7.03189
3413.55908	7.04910
3411.63052	7.06249
3409.70195	7.08854
3407.77339	7.14055
3405.84482	7.20329
3403.91626	7.24673
3401.98770	7.26186
3400.05913	7.26600
3398.13057	7.30383
3396.20200	7.35947
3394.27344	7.40739
3392.34487	7.45744
3390.41631	7.50302
3388.48774	7.53115
3386.55918	7.56807
3384.63062	7.62684
3382.70205	7.68208
3380.77349	7.71517
3378.84492	7.75163
3376.91636	7.79917
3374.98779	7.79434
3373.05923	7.74943
3371.13066	7.73065
3369.20210	7.76677
3367.27354	7.82218
3365.34497	7.87271
3363.41641	7.91562
3361.48784	7.93454
3359.55928	7.96069
3357.63071	7.96399
3355.70215	7.91722
3353.77358	7.90386
3351.84502	7.95988
3349.91646	7.99064
3347.98789	7.98608
3346.05933	8.00192
3344.13076	8.04163
3342.20220	8.14181
3340.27363	8.26465
3338.34507	8.27295
3336.41650	8.18764
3334.48794	8.15994
3332.55937	8.17046
3330.63081	8.17422
3328.70225	8.20254
3326.77368	8.25006
3324.84512	8.26140
3322.91655	8.21213
3320.98799	8.19290
3319.05942	8.19559
3317.13086	8.15305
3315.20229	8.12414
3313.27373	8.17161
3311.34517	8.24743
3309.41660	8.34860
3307.48804	8.44451
3305.55947	8.43075
3303.63091	8.35238
3301.70234	8.22185
3299.77378	8.09374
3297.84521	8.08779
3295.91665	8.15266
3293.98809	8.07826
3292.05952	7.93732
3290.13096	7.94336
3288.20239	8.07068
3286.27383	8.17418
3284.34526	8.21013
3282.41670	8.32477
3280.48813	8.51170
3278.55957	8.58606
3276.63101	8.52475
3274.70244	8.38365
3272.77388	8.27254
3270.84531	8.25911
3268.91675	8.27002
3266.98818	8.25374
3265.05962	8.23846
3263.13105	8.24409
3261.20249	8.29373
3259.27393	8.36566
3257.34536	8.41272
3255.41680	8.38951
3253.48823	8.28670
3251.55967	8.19771
3249.63110	8.23858
3247.70254	8.37728
3245.77397	8.47573
3243.84541	8.48635
3241.91685	8.39420
3239.98828	8.33515
3238.05972	8.36292
3236.13115	8.30606
3234.20259	8.20872
3232.27402	8.19303
3230.34546	8.19773
3228.41689	8.11654
3226.48833	7.98606
3224.55977	7.93044
3222.63120	7.95608
3220.70264	7.94290
3218.77407	7.88302
3216.84551	7.90927
3214.91694	7.99859
3212.98838	7.99204
3211.05981	7.95304
3209.13125	8.02400
3207.20269	8.10737
3205.27412	8.07850
3203.34556	7.96084
3201.41699	7.77638
3199.48843	7.62693
3197.55986	7.61362
3195.63130	7.66488
3193.70273	7.66547
3191.77417	7.62982
3189.84561	7.58483
3187.91704	7.51164
3185.98848	7.43519
3184.05991	7.40398
3182.13135	7.38910
3180.20278	7.31332
3178.27422	7.21014
3176.34565	7.17324
3174.41709	7.16536
3172.48853	7.09558
3170.55996	7.00019
3168.63140	6.94715
3166.70283	6.91899
3164.77427	6.86678
3162.84570	6.78866
3160.91714	6.71259
3158.98857	6.63485
3157.06001	6.55617
3155.13145	6.48780
3153.20288	6.40150
3151.27432	6.30867
3149.34575	6.24082
3147.41719	6.17974
3145.48862	6.11036
3143.56006	6.03452
3141.63149	5.95400
3139.70293	5.87289
3137.77437	5.80611
3135.84580	5.75325
3133.91724	5.68989
3131.98867	5.61370
3130.06011	5.54677
3128.13154	5.49115
3126.20298	5.42677
3124.27441	5.35287
3122.34585	5.28249
3120.41729	5.21604
3118.48872	5.14687
3116.56016	5.07274
3114.63159	4.99890
3112.70303	4.93151
3110.77446	4.86765
3108.84590	4.79886
3106.91733	4.72599
3104.98877	4.65504
3103.06021	4.58644
3101.13164	4.51839
3099.20308	4.45201
3097.27451	4.38755
3095.34595	4.32337
3093.41738	4.25927
3091.48882	4.19454
3089.56025	4.12914
3087.63169	4.06576
3085.70312	4.00499
3083.77456	3.94319
3081.84600	3.88129
3079.91743	3.82267
3077.98887	3.76511
3076.06030	3.70704
3074.13174	3.64940
3072.20317	3.59113
3070.27461	3.53254
3068.34604	3.47677
3066.41748	3.42385
3064.48892	3.37071
3062.56035	3.31617
3060.63179	3.26127
3058.70322	3.20763
3056.77466	3.15540
3054.84609	3.10320
3052.91753	3.05116
3050.98896	3.00046
3049.06040	2.95082
3047.13184	2.90160
3045.20327	2.85316
3043.27471	2.80547
3041.34614	2.75787
3039.41758	2.71069
3037.48901	2.66480
3035.56045	2.61964
3033.63188	2.57453
3031.70332	2.52989
3029.77476	2.48629
3027.84619	2.44398
3025.91763	2.40241
3023.98906	2.36071
3022.06050	2.31896
3020.13193	2.27783
3018.20337	2.23784
3016.27480	2.19900
3014.34624	2.16099
3012.41768	2.12341
3010.48911	2.08588
3008.56055	2.04898
3006.63198	2.01316
3004.70342	1.97806
3002.77485	1.94399
3000.84629	1.91108
2998.91772	1.87862
2996.98916	1.84640
2995.06060	1.81436
2993.13203	1.78273
2991.20347	1.75226
2989.27490	1.72302
2987.34634	1.69423
2985.41777	1.66537
2983.48921	1.63679
2981.56064	1.60894
2979.63208	1.58186
2977.70352	1.55561
2975.77495	1.52994
2973.84639	1.50456
2971.91782	1.47965
2969.98926	1.45525
2968.06069	1.43098
2966.13213	1.40684
2964.20356	1.38301
2962.27500	1.35947
2960.34644	1.33627
2958.41787	1.31331
2956.48931	1.29054
2954.56074	1.26799
2952.63218	1.24527
2950.70361	1.22239
2948.77505	1.20016
2946.84648	1.17896
2944.91792	1.15835
2942.98936	1.13806
2941.06079	1.11842
2939.13223	1.09960
2937.20366	1.08113
2935.27510	1.06244
2933.34653	1.04388
2931.41797	1.02586
2929.48940	1.00804
2927.56084	0.99030
2925.63228	0.97252
2923.70371	0.95464
2921.77515	0.93725
2919.84658	0.92049
2917.91802	0.90395
2915.98945	0.88773
2914.06089	0.87163
2912.13232	0.85525
2910.20376	0.83933
2908.27520	0.82439
2906.34663	0.80999
2904.41807	0.79600
2902.48950	0.78256
2900.56094	0.76959
2898.63237	0.75663
2896.70381	0.74345
2894.77524	0.73071
2892.84668	0.71880
2890.91812	0.70726
2888.98955	0.69590
2887.06099	0.68497
2885.13242	0.67453
2883.20386	0.66441
2881.27529	0.65439
2879.34673	0.64442
2877.41816	0.63469
2875.48960	0.62512
2873.56104	0.61528
2871.63247	0.60506
2869.70391	0.59452
2867.77534	0.58376
2865.84678	0.57304
2863.91821	0.56259
2861.98965	0.55258
2860.06108	0.54276
2858.13252	0.53294
2856.20396	0.52345
2854.27539	0.51457
2852.34683	0.50625
2850.41826	0.49803
2848.48970	0.48971
2846.56113	0.48140
2844.63257	0.47326
2842.70400	0.46571
2840.77544	0.45888
2838.84687	0.45246
2836.91831	0.44621
2834.98975	0.44019
2833.06118	0.43431
2831.13262	0.42825
2829.20405	0.42192
2827.27549	0.41561
2825.34692	0.40959
2823.41836	0.40388
2821.48979	0.39832
2819.56123	0.39272
2817.63267	0.38706
2815.70410	0.38151
2813.77554	0.37599
2811.84697	0.37040
2809.91841	0.36490
2807.98984	0.35970
2806.06128	0.35475
2804.13271	0.34986
2802.20415	0.34478
2800.27559	0.33966
2798.34702	0.33482
2796.41846	0.33011
2794.48989	0.32541
2792.56133	0.32094
2790.63276	0.31663
2788.70420	0.31232
2786.77563	0.30801
2784.84707	0.30376
2782.91851	0.29965
2780.98994	0.29567
2779.06138	0.29188
2777.13281	0.28808
2775.20425	0.28417
2773.27568	0.28037
2771.34712	0.27679
2769.41855	0.27331
2767.48999	0.26986
2765.56143	0.26642
2763.63286	0.26305
2761.70430	0.25983
2759.77573	0.25673
2757.84717	0.25367
2755.91860	0.25052
2753.99004	0.24730
2752.06147	0.24428
2750.13291	0.24155
2748.20435	0.23892
2746.27578	0.23621
2744.34722	0.23344
2742.41865	0.23073
2740.49009	0.22814
2738.56152	0.22567
2736.63296	0.22321
2734.70439	0.22070
2732.77583	0.21818
2730.84727	0.21583
2728.91870	0.21370
2726.99014	0.21164
2725.06157	0.20959
2723.13301	0.20757
2721.20444	0.20558
2719.27588	0.20364
2717.34731	0.20178
2715.41875	0.19989
2713.49019	0.19789
2711.56162	0.19588
2709.63306	0.19408
2707.70449	0.19251
2705.77593	0.19104
2703.84736	0.18950
2701.91880	0.18784
2699.99023	0.18617
2698.06167	0.18476
2696.13311	0.18354
2694.20454	0.18219
2692.27598	0.18073
2690.34741	0.17933
2688.41885	0.17796
2686.49028	0.17653
2684.56172	0.17516
2682.63315	0.17404
2680.70459	0.17302
2678.77603	0.17183
2676.84746	0.17063
2674.91890	0.16959
2672.99033	0.16855
2671.06177	0.16749
2669.13320	0.16645
2667.20464	0.16546
2665.27607	0.16452
2663.34751	0.16359
2661.41895	0.16266
2659.49038	0.16174
2657.56182	0.16087
2655.63325	0.16007
2653.70469	0.15934
2651.77612	0.15865
2649.84756	0.15797
2647.91899	0.15732
2645.99043	0.15667
2644.06187	0.15603
2642.13330	0.15544
2640.20474	0.15480
2638.27617	0.15416
2636.34761	0.15370
2634.41904	0.15337
2632.49048	0.15304
2630.56191	0.15270
2628.63335	0.15225
2626.70479	0.15170
2624.77622	0.15138
2622.84766	0.15130
2620.91909	0.15103
2618.99053	0.15054
2617.06196	0.15015
2615.13340	0.14994
2613.20483	0.14976
2611.27627	0.14958
2609.34771	0.14951
2607.41914	0.14941
2605.49058	0.14927
2603.56201	0.14922
2601.63345	0.14922
2599.70488	0.14913
2597.77632	0.14904
2595.84775	0.14914
2593.91919	0.14931
2591.99062	0.14939
2590.06206	0.14941
2588.13350	0.14953
2586.20493	0.14972
2584.27637	0.14990
2582.34780	0.15008
2580.41924	0.15031
2578.49067	0.15046
2576.56211	0.15059
2574.63354	0.15088
2572.70498	0.15122
2570.77642	0.15148
2568.84785	0.15179
2566.91929	0.15227
2564.99072	0.15276
2563.06216	0.15313
2561.13359	0.15341
2559.20503	0.15374
2557.27646	0.15421
2555.34790	0.15476
2553.41934	0.15531
2551.49077	0.15584
2549.56221	0.15632
2547.63364	0.15675
2545.70508	0.15713
2543.77651	0.15750
2541.84795	0.15798
2539.91938	0.15860
2537.99082	0.15933
2536.06226	0.16015
2534.13369	0.16094
2532.20513	0.16162
2530.27656	0.16228
2528.34800	0.16296
2526.41943	0.16357
2524.49087	0.16418
2522.56230	0.16493
2520.63374	0.16575
2518.70518	0.16646
2516.77661	0.16708
2514.84805	0.16772
2512.91948	0.16840
2510.99092	0.16915
2509.06235	0.17000
2507.13379	0.17087
2505.20522	0.17169
2503.27666	0.17245
2501.34810	0.17322
2499.41953	0.17405
2497.49097	0.17486
2495.56240	0.17565
2493.63384	0.17651
2491.70527	0.17737
2489.77671	0.17815
2487.84814	0.17895
2485.91958	0.17985
2483.99102	0.18077
2482.06245	0.18164
2480.13389	0.18244
2478.20532	0.18315
2476.27676	0.18382
2474.34819	0.18460
2472.41963	0.18551
2470.49106	0.18645
2468.56250	0.18734
2466.63394	0.18813
2464.70537	0.18894
2462.77681	0.18984
2460.84824	0.19083
2458.91968	0.19193
2456.99111	0.19302
2455.06255	0.19398
2453.13398	0.19480
2451.20542	0.19558
2449.27686	0.19641
2447.34829	0.19732
2445.41973	0.19833
2443.49116	0.19940
2441.56260	0.20046
2439.63403	0.20151
2437.70547	0.20250
2435.77690	0.20345
2433.84834	0.20441
2431.91978	0.20543
2429.99121	0.20648
2428.06265	0.20747
2426.13408	0.20849
2424.20552	0.20960
2422.27695	0.21064
2420.34839	0.21155
2418.41982	0.21246
2416.49126	0.21356
2414.56270	0.21475
2412.63413	0.21588
2410.70557	0.21690
2408.77700	0.21799
2406.84844	0.21923
2404.91987	0.22050
2402.99131	0.22164
2401.06274	0.22275
2399.13418	0.22401
2397.20562	0.22536
2395.27705	0.22654
2393.34849	0.22762
2391.41992	0.22882
2389.49136	0.23005
2387.56279	0.23115
2385.63423	0.23207
2383.70566	0.23271
2381.77710	0.23308
2379.84854	0.23314
2377.91997	0.23291
2375.99141	0.23254
2374.06284	0.23198
2372.13428	0.23090
2370.20571	0.22936
2368.27715	0.22805
2366.34858	0.22736
2364.42002	0.22707
2362.49146	0.22699
2360.56289	0.22723
2358.63433	0.22848
2356.70576	0.23127
2354.77720	0.23535
2352.84863	0.24035
2350.92007	0.24521
2348.99150	0.24832
2347.06294	0.24947
2345.13437	0.24959
2343.20581	0.24960
2341.27725	0.25015
2339.34868	0.25140
2337.42012	0.25299
2335.49155	0.25481
2333.56299	0.25691
2331.63442	0.25927
2329.70586	0.26148
2327.77729	0.26340
2325.84873	0.26562
2323.92017	0.26832
2321.99160	0.27110
2320.06304	0.27382
2318.13447	0.27654
2316.20591	0.27912
2314.27734	0.28159
2312.34878	0.28396
2310.42021	0.28627
2308.49165	0.28868
2306.56309	0.29122
2304.63452	0.29369
2302.70596	0.29589
2300.77739	0.29801
2298.84883	0.30015
2296.92026	0.30222
2294.99170	0.30429
2293.06313	0.30655
2291.13457	0.30876
2289.20601	0.31073
2287.27744	0.31270
2285.34888	0.31483
2283.42031	0.31696
2281.49175	0.31901
2279.56318	0.32102
2277.63462	0.32300
2275.70605	0.32491
2273.77749	0.32683
2271.84893	0.32879
2269.92036	0.33083
2267.99180	0.33304
2266.06323	0.33529
2264.13467	0.33735
2262.20610	0.33936
2260.27754	0.34144
2258.34897	0.34359
2256.42041	0.34574
2254.49185	0.34788
2252.56328	0.35006
2250.63472	0.35224
2248.70615	0.35440
2246.77759	0.35667
2244.84902	0.35897
2242.92046	0.36122
2240.99189	0.36349
2239.06333	0.36570
2237.13477	0.36781
2235.20620	0.36995
2233.27764	0.37219
2231.34907	0.37454
2229.42051	0.37677
2227.49194	0.37878
2225.56338	0.38073
2223.63481	0.38283
2221.70625	0.38511
2219.77769	0.38736
2217.84912	0.38951
2215.92056	0.39170
2213.99199	0.39397
2212.06343	0.39624
2210.13486	0.39841
2208.20630	0.40044
2206.27773	0.40247
2204.34917	0.40459
2202.42061	0.40672
2200.49204	0.40867
2198.56348	0.41048
2196.63491	0.41240
2194.70635	0.41443
2192.77778	0.41634
2190.84922	0.41813
2188.92065	0.41996
2186.99209	0.42178
2185.06353	0.42344
2183.13496	0.42509
2181.20640	0.42687
2179.27783	0.42864
2177.34927	0.43027
2175.42070	0.43186
2173.49214	0.43342
2171.56357	0.43488
2169.63501	0.43624
2167.70645	0.43757
2165.77788	0.43886
2163.84932	0.44009
2161.92075	0.44131
2159.99219	0.44251
2158.06362	0.44352
2156.13506	0.44433
2154.20649	0.44513
2152.27793	0.44603
2150.34937	0.44694
2148.42080	0.44771
2146.49224	0.44831
2144.56367	0.44881
2142.63511	0.44931
2140.70654	0.44974
2138.77798	0.45003
2136.84941	0.45022
2134.92085	0.45041
2132.99229	0.45061
2131.06372	0.45073
2129.13516	0.45058
2127.20659	0.45026
2125.27803	0.44997
2123.34946	0.44967
2121.42090	0.44926
2119.49233	0.44871
2117.56377	0.44822
2115.63521	0.44778
2113.70664	0.44720
2111.77808	0.44643
2109.84951	0.44550
2107.92095	0.44450
2105.99238	0.44351
2104.06382	0.44251
2102.13525	0.44137
2100.20669	0.44006
2098.27812	0.43867
2096.34956	0.43727
2094.42100	0.43586
2092.49243	0.43444
2090.56387	0.43296
2088.63530	0.43142
2086.70674	0.42974
2084.77817	0.42786
2082.84961	0.42591
2080.92104	0.42403
2078.99248	0.42225
2077.06392	0.42039
2075.13535	0.41832
2073.20679	0.41611
2071.27822	0.41392
2069.34966	0.41177
2067.42109	0.40956
2065.49253	0.40733
2063.56396	0.40509
2061.63540	0.40289
2059.70684	0.40076
2057.77827	0.39857
2055.84971	0.39614
2053.92114	0.39357
2051.99258	0.39101
2050.06401	0.38847
2048.13545	0.38590
2046.20688	0.38328
2044.27832	0.38060
2042.34976	0.37790
2040.42119	0.37524
2038.49263	0.37262
2036.56406	0.36999
2034.63550	0.36739
2032.70693	0.36476
2030.77837	0.36212
2028.84980	0.35944
2026.92124	0.35660
2024.99268	0.35369
2023.06411	0.35095
2021.13555	0.34836
2019.20698	0.34584
2017.27842	0.34324
2015.34985	0.34050
2013.42129	0.33780
2011.49272	0.33514
2009.56416	0.33241
2007.63560	0.32972
2005.70703	0.32714
2003.77847	0.32455
2001.84990	0.32187
1999.92134	0.31916
1997.99277	0.31646
1996.06421	0.31382
1994.13564	0.31141
1992.20708	0.30916
1990.27852	0.30674
1988.34995	0.30421
1986.42139	0.30171
1984.49282	0.29930
1982.56426	0.29704
1980.63569	0.29482
1978.70713	0.29257
1976.77856	0.29029
1974.85000	0.28803
1972.92144	0.28584
1970.99287	0.28375
1969.06431	0.28174
1967.13574	0.27967
1965.20718	0.27747
1963.27861	0.27541
1961.35005	0.27355
1959.42148	0.27173
1957.49292	0.26997
1955.56436	0.26823
1953.63579	0.26641
1951.70723	0.26451
1949.77866	0.26274
1947.85010	0.26119
1945.92153	0.25974
1943.99297	0.25828
1942.06440	0.25682
1940.13584	0.25536
1938.20728	0.25387
1936.27871	0.25238
1934.35015	0.25098
1932.42158	0.24977
1930.49302	0.24868
1928.56445	0.24758
1926.63589	0.24646
1924.70732	0.24544
1922.77876	0.24451
1920.85020	0.24352
1918.92163	0.24258
1916.99307	0.24164
1915.06450	0.24063
1913.13594	0.23968
1911.20737	0.23901
1909.27881	0.23848
1907.35024	0.23781
1905.42168	0.23703
1903.49312	0.23634
1901.56455	0.23573
1899.63599	0.23513
1897.70742	0.23464
1895.77886	0.23429
1893.85029	0.23400
1891.92173	0.23363
1889.99316	0.23339
1888.06460	0.23312
1886.13604	0.23273
1884.20747	0.23242
1882.27891	0.23220
1880.35034	0.23199
1878.42178	0.23185
1876.49321	0.23182
1874.56465	0.23183
1872.63608	0.23190
1870.70752	0.23209
1868.77896	0.23264
1866.85039	0.23309
1864.92183	0.23295
1862.99326	0.23278
1861.06470	0.23292
1859.13613	0.23334
1857.20757	0.23377
1855.27900	0.23420
1853.35044	0.23465
1851.42187	0.23519
1849.49331	0.23577
1847.56475	0.23646
1845.63618	0.23736
1843.70762	0.23832
1841.77905	0.23896
1839.85049	0.23938
1837.92192	0.24012
1835.99336	0.24097
1834.06479	0.24181
1832.13623	0.24280
1830.20767	0.24426
1828.27910	0.24577
1826.35054	0.24684
1824.42197	0.24803
1822.49341	0.24926
1820.56484	0.25047
1818.63628	0.25184
1816.70771	0.25342
1814.77915	0.25494
1812.85059	0.25657
1810.92202	0.25856
1808.99346	0.26070
1807.06489	0.26270
1805.13633	0.26455
1803.20776	0.26663
1801.27920	0.26912
1799.35063	0.27195
1797.42207	0.27445
1795.49351	0.27679
1793.56494	0.27953
1791.63638	0.28312
1789.70781	0.28657
1787.77925	0.28916
1785.85068	0.29218
1783.92212	0.29575
1781.99355	0.29958
1780.06499	0.30370
1778.13643	0.30799
1776.20786	0.31195
1774.27930	0.31615
1772.35073	0.32200
1770.42217	0.32840
1768.49360	0.33361
1766.56504	0.33859
1764.63647	0.34378
1762.70791	0.34955
1760.77935	0.35698
1758.85078	0.36403
1756.92222	0.37106
1754.99365	0.37877
1753.06509	0.38579
1751.13652	0.39411
1749.20796	0.40462
1747.27939	0.41499
1745.35083	0.42408
1743.42227	0.43363
1741.49370	0.44408
1739.56514	0.45638
1737.63657	0.46878
1735.70801	0.47955
1733.77944	0.49573
1731.85088	0.51517
1729.92231	0.53025
1727.99375	0.54549
1726.06519	0.56215
1724.13662	0.58047
1722.20806	0.60015
1720.27949	0.61817
1718.35093	0.63922
1716.42236	0.67088
1714.49380	0.70153
1712.56523	0.72630
1710.63667	0.74999
1708.70811	0.77528
1706.77954	0.80417
1704.85098	0.83918
1702.92241	0.87043
1700.99385	0.90071
1699.06528	0.94628
1697.13672	0.98920
1695.20815	1.03356
1693.27959	1.07642
1691.35103	1.11076
1689.42246	1.15057
1687.49390	1.19290
1685.56533	1.23352
1683.63677	1.29677
1681.70820	1.36348
1679.77964	1.40601
1677.85107	1.44644
1675.92251	1.49321
1673.99395	1.55121
1672.06538	1.60207
1670.13682	1.65123
1668.20825	1.71675
1666.27969	1.77113
1664.35112	1.81710
1662.42256	1.87427
1660.49399	1.93881
1658.56543	1.98939
1656.63687	2.03071
1654.70830	2.06932
1652.77974	2.12937
1650.85117	2.18373
1648.92261	2.20249
1646.99404	2.23012
1645.06548	2.26237
1643.13691	2.28304
1641.20835	2.29470
1639.27979	2.30436
1637.35122	2.30960
1635.42266	2.31013
1633.49409	2.30593
1631.56553	2.29408
1629.63696	2.27714
1627.70840	2.24830
1625.77983	2.21491
1623.85127	2.17302
1621.92271	2.12137
1619.99414	2.07641
1618.06558	2.03342
1616.13701	1.96951
1614.20845	1.90270
1612.27988	1.85294
1610.35132	1.80191
1608.42275	1.74620
1606.49419	1.69096
1604.56562	1.64034
1602.63706	1.59178
1600.70850	1.54440
1598.77993	1.50066
1596.85137	1.45949
1594.92280	1.41941
1592.99424	1.38035
1591.06567	1.34446
1589.13711	1.31078
1587.20854	1.27907
1585.27998	1.24964
1583.35142	1.22229
1581.42285	1.19739
1579.49429	1.17633
1577.56572	1.15764
1575.63716	1.13432
1573.70859	1.11352
1571.78003	1.10043
1569.85146	1.08720
1567.92290	1.07230
1565.99434	1.06084
1564.06577	1.05197
1562.13721	1.04521
1560.20864	1.04091
1558.28008	1.03674
1556.35151	1.03350
1554.42295	1.03133
1552.49438	1.02885
1550.56582	1.02496
1548.63726	1.01935
1546.70869	1.01268
1544.78013	1.00407
1542.85156	0.99289
1540.92300	0.97700
1538.99443	0.95236
1537.06587	0.93421
1535.13730	0.92186
1533.20874	0.90558
1531.28018	0.88815
1529.35161	0.87549
1527.42305	0.86340
1525.49448	0.85071
1523.56592	0.84014
1521.63735	0.83039
1519.70879	0.82028
1517.78022	0.81148
1515.85166	0.80141
1513.92310	0.79088
1511.99453	0.78182
1510.06597	0.77388
1508.13740	0.76640
1506.20884	0.75446
1504.28027	0.74377
1502.35171	0.73773
1500.42314	0.73244
1498.49458	0.72680
1496.56602	0.72038
1494.63745	0.71427
1492.70889	0.70970
1490.78032	0.70574
1488.85176	0.70104
1486.92319	0.69654
1484.99463	0.69310
1483.06606	0.69059
1481.13750	0.68878
1479.20894	0.68741
1477.28037	0.68668
1475.35181	0.68663
1473.42324	0.68689
1471.49468	0.68630
1469.56611	0.68444
1467.63755	0.68238
1465.70898	0.68083
1463.78042	0.67963
1461.85186	0.67856
1459.92329	0.67786
1457.99473	0.67734
1456.06616	0.67592
1454.13760	0.67334
1452.20903	0.67060
1450.28047	0.66771
1448.35190	0.66477
1446.42334	0.66193
1444.49478	0.65941
1442.56621	0.65701
1440.63765	0.65454
1438.70908	0.65221
1436.78052	0.64951
1434.85195	0.64615
1432.92339	0.64330
1430.99482	0.64138
1429.06626	0.64024
1427.13770	0.63961
1425.20913	0.63933
1423.28057	0.63940
1421.35200	0.63948
1419.42344	0.63936
1417.49487	0.63883
1415.56631	0.63764
1413.63774	0.63656
1411.70918	0.63602
1409.78062	0.63591
1407.85205	0.63600
1405.92349	0.63637
1403.99492	0.63685
1402.06636	0.63664
1400.13779	0.63563
1398.20923	0.63401
1396.28066	0.63187
1394.35210	0.62898
1392.42354	0.62558
1390.49497	0.62241
1388.56641	0.61941
1386.63784	0.61595
1384.70928	0.61205
1382.78071	0.60837
1380.85215	0.60507
1378.92358	0.60234
1376.99502	0.60035
1375.06646	0.59901
1373.13789	0.59791
1371.20933	0.59699
1369.28076	0.59627
1367.35220	0.59543
1365.42363	0.59435
1363.49507	0.59323
1361.56650	0.59191
1359.63794	0.59030
1357.70937	0.58886
1355.78081	0.58762
1353.85225	0.58639
1351.92368	0.58533
1349.99512	0.58450
1348.06655	0.58369
1346.13799	0.58273
1344.20942	0.58171
1342.28086	0.58082
1340.35229	0.58012
1338.42373	0.57937
1336.49517	0.57856
1334.56660	0.57796
1332.63804	0.57765
1330.70947	0.57755
1328.78091	0.57749
1326.85234	0.57742
1324.92378	0.57755
1322.99521	0.57803
1321.06665	0.57862
1319.13809	0.57901
1317.20952	0.57907
1315.28096	0.57880
1313.35239	0.57832
1311.42383	0.57768
1309.49526	0.57692
1307.56670	0.57611
1305.63813	0.57528
1303.70957	0.57446
1301.78101	0.57357
1299.85244	0.57253
1297.92388	0.57144
1295.99531	0.57039
1294.06675	0.56944
1292.13818	0.56847
1290.20962	0.56734
1288.28105	0.56623
1286.35249	0.56525
1284.42393	0.56430
1282.49536	0.56329
1280.56680	0.56223
1278.63823	0.56112
1276.70967	0.56006
1274.78110	0.55917
1272.85254	0.55840
1270.92397	0.55767
1268.99541	0.55691
1267.06685	0.55623
1265.13828	0.55567
1263.20972	0.55518
1261.28115	0.55459
1259.35259	0.55384
1257.42402	0.55312
1255.49546	0.55273
1253.56689	0.55265
1251.63833	0.55266
1249.70977	0.55257
1247.78120	0.55234
1245.85264	0.55196
1243.92407	0.55136
1241.99551	0.55061
1240.06694	0.54969
1238.13838	0.54843
1236.20981	0.54680
1234.28125	0.54504
1232.35269	0.54335
1230.42412	0.54174
1228.49556	0.54015
1226.56699	0.53850
1224.63843	0.53687
1222.70986	0.53543
1220.78130	0.53409
1218.85273	0.53274
1216.92417	0.53143
1214.99561	0.53036
1213.06704	0.52958
1211.13848	0.52894
1209.20991	0.52841
1207.28135	0.52798
1205.35278	0.52741
1203.42422	0.52661
1201.49565	0.52570
1199.56709	0.52480
1197.63853	0.52403
1195.70996	0.52347
1193.78140	0.52301
1191.85283	0.52250
1189.92427	0.52210
1187.99570	0.52178
1186.06714	0.52140
1184.13857	0.52124
1182.21001	0.52163
1180.28145	0.52242
1178.35288	0.52344
1176.42432	0.52470
1174.49575	0.52610
1172.56719	0.52735
1170.63862	0.52815
1168.71006	0.52858
1166.78149	0.52901
1164.85293	0.52968
1162.92437	0.53043
1160.99580	0.53092
1159.06724	0.53107
1157.13867	0.53085
1155.21011	0.53017
1153.28154	0.52897
1151.35298	0.52730
1149.42441	0.52514
1147.49585	0.52241
1145.56729	0.51952
1143.63872	0.51695
1141.71016	0.51466
1139.78159	0.51264
1137.85303	0.51107
1135.92446	0.51010
1133.99590	0.50967
1132.06733	0.50947
1130.13877	0.50931
1128.21021	0.50910
1126.28164	0.50874
1124.35308	0.50845
1122.42451	0.50828
1120.49595	0.50814
1118.56738	0.50829
1116.63882	0.50900
1114.71025	0.50991
1112.78169	0.51051
1110.85312	0.51096
1108.92456	0.51158
1106.99600	0.51233
1105.06743	0.51316
1103.13887	0.51405
1101.21030	0.51494
1099.28174	0.51597
1097.35317	0.51749
1095.42461	0.51993
1093.49604	0.52354
1091.56748	0.52847
1089.63892	0.53477
1087.71035	0.54242
1085.78179	0.55124
1083.85322	0.56034
1081.92466	0.56818
1079.99609	0.57372
1078.06753	0.57641
1076.13896	0.57599
1074.21040	0.57290
1072.28184	0.56780
1070.35327	0.56112
1068.42471	0.55349
1066.49614	0.54605
1064.56758	0.53973
1062.63901	0.53452
1060.71045	0.52996
1058.78188	0.52583
1056.85332	0.52215
1054.92476	0.51890
1052.99619	0.51602
1051.06763	0.51364
1049.13906	0.51212
1047.21050	0.51156
1045.28193	0.51179
1043.35337	0.51240
1041.42480	0.51300
1039.49624	0.51344
1037.56768	0.51367
1035.63911	0.51361
1033.71055	0.51310
1031.78198	0.51196
1029.85342	0.51021
1027.92485	0.50809
1025.99629	0.50611
1024.06772	0.50472
1022.13916	0.50381
1020.21060	0.50309
1018.28203	0.50251
1016.35347	0.50206
1014.42490	0.50175
1012.49634	0.50145
1010.56777	0.50106
1008.63921	0.50076
1006.71064	0.50074
1004.78208	0.50121
1002.85352	0.50251
1000.92495	0.50472
998.99639	0.50777
997.06782	0.51161
995.13926	0.51608
993.21069	0.52059
991.28213	0.52420
989.35356	0.52625
987.42500	0.52672
985.49644	0.52634
983.56787	0.52602
981.63931	0.52606
979.71074	0.52649
977.78218	0.52764
975.85361	0.52938
973.92505	0.53136
971.99648	0.53394
970.06792	0.53724
968.13936	0.54091
966.21079	0.54492
964.28223	0.54939
962.35366	0.55424
960.42510	0.55922
958.49653	0.56424
956.56797	0.56940
954.63940	0.57483
952.71084	0.58079
950.78228	0.58738
948.85371	0.59414
946.92515	0.60067
944.99658	0.60688
943.06802	0.61267
941.13945	0.61839
939.21089	0.62414
937.28232	0.62971
935.35376	0.63561
933.42520	0.64185
931.49663	0.64756
929.56807	0.65293
927.63950	0.65862
925.71094	0.66457
923.78237	0.67059
921.85381	0.67648
919.92524	0.68225
917.99668	0.68848
916.06812	0.69566
914.13955	0.70350
912.21099	0.71114
910.28242	0.71847
908.35386	0.72637
906.42529	0.73470
904.49673	0.74312
902.56816	0.75246
900.63960	0.76305
898.71104	0.77404
896.78247	0.78397
894.85391	0.79245
892.92534	0.80131
890.99678	0.81197
889.06821	0.82279
887.13965	0.83256
885.21108	0.84266
883.28252	0.85389
881.35396	0.86633
879.42539	0.87925
877.49683	0.89109
875.56826	0.90167
873.63970	0.91154
871.71113	0.92163
869.78257	0.93274
867.85400	0.94405
865.92544	0.95449
863.99687	0.96456
862.06831	0.97545
860.13975	0.98758
858.21118	1.00132
856.28262	1.01555
854.35405	1.02822
852.42549	1.03901
850.49692	1.04953
848.56836	1.06205
846.63979	1.07486
844.71123	1.08541
842.78267	1.09537
840.85410	1.10577
838.92554	1.11643
836.99697	1.12684
835.06841	1.13525
833.13984	1.14398
831.21128	1.15922
829.28271	1.18101
827.35415	1.19718
825.42559	1.20108
823.49702	1.20611
821.56846	1.22042
819.63989	1.23778
817.71133	1.25300
815.78276	1.26752
813.85420	1.28648
811.92563	1.30696
809.99707	1.31878
808.06851	1.32948
806.13994	1.34574
804.21138	1.34240
802.28281	1.33321
800.35425	1.36611
798.42568	1.43183
796.49712	1.47941
794.56855	1.49796
792.63999	1.48903
790.71143	1.45342
788.78286	1.43965
786.85430	1.46349
784.92573	1.49005
782.99717	1.54756
781.06860	1.67539
779.14004	1.76162
777.21147	1.72707
775.28291	1.68892
773.35435	1.67215
771.42578	1.64045
769.49722	1.57227
767.56865	1.53454
765.64009	1.64282
763.71152	4.58227
761.78296	4.57070
759.85439	4.55913
757.92583	4.54755
755.99727	1.54845
754.06870	1.22452
752.14014	1.13717
750.21157	1.13767
748.28301	1.14397
746.35444	1.22186
744.42588	1.32900
742.49731	1.26235
740.56875	1.17193
738.64019	1.17010
736.71162	1.09864
734.78306	0.85042
732.85449	0.62618
730.92593	0.52838
728.99736	0.58040
727.06880	0.80248
725.14023	0.76663
723.21167	0.43384
721.28311	0.35370
719.35454	0.42838
717.42598	0.34277
715.49741	0.12162
713.56885	-0.06028
711.64028	-0.03763
709.71172	0.13088
707.78315	0.24870
705.85459	0.28557
703.92603	0.25626
701.99746	0.29472
700.06890	0.37805
698.14033	0.38588
696.21177	0.35031
694.28320	0.32559
692.35464	0.34262
690.42607	0.36549
688.49751	0.32282
686.56895	0.31748
684.64038	0.49152
682.71182	0.73249
680.78325	0.47898
678.85469	0.37503
676.92612	0.60475
674.99756	4.04999
673.06899	0.95824
671.14043	0.67788
669.21187	0.60013
667.28330	0.47884
665.35474	0.30013
663.42617	0.13840
661.49761	0.07087
659.56904	0.12602
657.64048	0.24163
655.71191	0.22324
653.78335	0.08597
651.85479	0.04461
649.92622	0.12720
647.99766	0.25563
646.06909	0.25962
644.14053	0.18909
642.21196	0.17848
640.28340	0.21129
638.35483	0.23558
636.42627	0.29887
634.49771	0.39885
632.56914	0.44745
630.64058	0.38555
628.71201	0.26441
626.78345	0.17293
624.85488	0.16793
622.92632	0.23280
620.99775	0.29197
619.06919	0.32551
617.14062	0.44625
615.21206	0.83786
613.28350	0.69556
611.35493	0.45291
609.42637	0.43150
607.49780	0.39738
605.56924	0.29924
603.64067	0.24112
601.71211	0.21338
599.78354	0.23531
597.85498	0.30059
595.92642	0.30714
593.99785	0.26172
592.06929	0.29191
590.14072	0.38307
588.21216	0.29688
586.28359	0.21621
584.35503	0.27098
582.42646	0.35576
580.49790	0.31256
578.56934	0.22986
576.64077	0.23826
574.71221	0.34648
572.78364	0.45831
570.85508	0.32536
568.92651	0.20931
566.99795	0.21337
565.06938	0.30214
563.14082	0.45436
561.21226	0.61110
559.28369	0.40381
557.35513	0.16138
555.42656	0.11059
553.49800	0.19991
551.56943	0.27335
549.64087	0.29013
547.71230	0.26411
545.78374	0.22060
543.85518	0.20795
541.92661	0.24044
539.99805	0.28757
538.06948	0.30565
536.14092	0.29941
534.21235	0.31999
532.28379	0.33952
530.35522	0.31483
528.42666	0.27435
526.49810	0.21454
524.56953	0.13497
522.64097	0.09769
520.71240	0.14037
518.78384	0.21023
516.85527	0.23123
514.92671	0.21178
512.99814	0.17071
511.06958	0.12081
509.14102	0.09077
507.21245	0.08943
505.28389	0.11011
503.35532	0.16216
501.42676	0.21981
499.49819	0.23387
