3997.91411	0.08001
3995.98555	0.08015
3994.05698	0.08090
3992.12842	0.08170
3990.19985	0.08225
3988.27129	0.08259
3986.34272	0.08263
3984.41416	0.08255
3982.48560	0.08263
3980.55703	0.08279
3978.62847	0.08303
3976.69990	0.08333
3974.77134	0.08335
3972.84277	0.08320
3970.91421	0.08316
3968.98564	0.08320
3967.05708	0.08343
3965.12852	0.08369
3963.19995	0.08371
3961.27139	0.08373
3959.34282	0.08401
3957.41426	0.08426
3955.48569	0.08434
3953.55713	0.08437
3951.62856	0.08423
3949.70000	0.08377
3947.77144	0.08341
3945.84287	0.08381
3943.91431	0.08463
3941.98574	0.08516
3940.05718	0.08505
3938.12861	0.08464
3936.20005	0.08439
3934.27148	0.08444
3932.34292	0.08466
3930.41436	0.08475
3928.48579	0.08469
3926.55723	0.08467
3924.62866	0.08484
3922.70010	0.08505
3920.77153	0.08497
3918.84297	0.08469
3916.91440	0.08439
3914.98584	0.08414
3913.05728	0.08376
3911.12871	0.08321
3909.20015	0.08300
3907.27158	0.08372
3905.34302	0.08494
3903.41445	0.08583
3901.48589	0.08629
3899.55732	0.08635
3897.62876	0.08552
3895.70020	0.08448
3893.77163	0.08430
3891.84307	0.08509
3889.91450	0.08582
3887.98594	0.08576
3886.05737	0.08576
3884.12881	0.08610
3882.20024	0.08614
3880.27168	0.08609
3878.34312	0.08604
3876.41455	0.08586
3874.48599	0.08597
3872.55742	0.08652
3870.62886	0.08725
3868.70029	0.08791
3866.77173	0.08840
3864.84316	0.08911
3862.91460	0.08955
3860.98604	0.08885
3859.05747	0.08811
3857.12891	0.08818
3855.20034	0.08917
3853.27178	0.09131
3851.34321	0.09268
3849.41465	0.09167
3847.48608	0.09057
3845.55752	0.09034
3843.62896	0.09124
3841.70039	0.09309
3839.77183	0.09505
3837.84326	0.09647
3835.91470	0.09682
3833.98613	0.09660
3832.05757	0.09670
3830.12900	0.09687
3828.20044	0.09690
3826.27187	0.09747
3824.34331	0.09859
3822.41475	0.09975
3820.48618	0.10163
3818.55762	0.10326
3816.62905	0.10369
3814.70049	0.10421
3812.77192	0.10454
3810.84336	0.10468
3808.91479	0.10549
3806.98623	0.10705
3805.05767	0.10862
3803.12910	0.10992
3801.20054	0.11168
3799.27197	0.11331
3797.34341	0.11393
3795.41484	0.11465
3793.48628	0.11551
3791.55771	0.11613
3789.62915	0.11686
3787.70059	0.11793
3785.77202	0.11940
3783.84346	0.12103
3781.91489	0.12256
3779.98633	0.12429
3778.05776	0.12623
3776.12920	0.12759
3774.20063	0.12866
3772.27207	0.13034
3770.34351	0.13275
3768.41494	0.13520
3766.48638	0.13702
3764.55781	0.13893
3762.62925	0.14091
3760.70068	0.14274
3758.77212	0.14522
3756.84355	0.14816
3754.91499	0.15066
3752.98643	0.15358
3751.05786	0.15815
3749.12930	0.16259
3747.20073	0.16433
3745.27217	0.16611
3743.34360	0.17018
3741.41504	0.17438
3739.48647	0.17742
3737.55791	0.18105
3735.62935	0.18664
3733.70078	0.19376
3731.77222	0.19955
3729.84365	0.20368
3727.91509	0.20755
3725.98652	0.21246
3724.05796	0.21870
3722.12939	0.22544
3720.20083	0.23220
3718.27227	0.23879
3716.34370	0.24570
3714.41514	0.25330
3712.48657	0.26288
3710.55801	0.27666
3708.62944	0.29178
3706.70088	0.30417
3704.77231	0.31573
3702.84375	0.32923
3700.91519	0.34648
3698.98662	0.36496
3697.05806	0.38256
3695.12949	0.40140
3693.20093	0.42136
3691.27236	0.44321
3689.34380	0.47159
3687.41523	0.50598
3685.48667	0.53626
3683.55811	0.56301
3681.62954	0.59179
3679.70098	0.62388
3677.77241	0.65760
3675.84385	0.69769
3673.91528	0.75169
3671.98672	0.79550
3670.05815	0.83405
3668.12959	0.88779
3666.20103	0.93731
3664.27246	0.97863
3662.34390	1.02303
3660.41533	1.07108
3658.48677	1.11829
3656.55820	1.16825
3654.62964	1.22419
3652.70107	1.27135
3650.77251	1.31212
3648.84395	1.36908
3646.91538	1.43970
3644.98682	1.49038
3643.05825	1.52925
3641.12969	1.57039
3639.20112	1.61611
3637.27256	1.66140
3635.34399	1.70502
3633.41543	1.74854
3631.48687	1.78891
3629.55830	1.82946
3627.62974	1.88408
3625.70117	1.93679
3623.77261	1.97180
3621.84404	2.00407
3619.91548	2.04118
3617.98691	2.08706
3616.05835	2.13094
3614.12979	2.16689
3612.20122	2.20573
3610.27266	2.24608
3608.34409	2.28739
3606.41553	2.33197
3604.48696	2.37279
3602.55840	2.40796
3600.62983	2.44557
3598.70127	2.48596
3596.77271	2.52403
3594.84414	2.56326
3592.91558	2.60610
3590.98701	2.64664
3589.05845	2.68321
3587.12988	2.72713
3585.20132	2.77641
3583.27275	2.81709
3581.34419	2.85374
3579.41562	2.89344
3577.48706	2.93524
3575.55850	2.97690
3573.62993	3.02015
3571.70137	3.06250
3569.77280	3.10312
3567.84424	3.14761
3565.91567	3.20213
3563.98711	3.25248
3562.05854	3.29215
3560.12998	3.33332
3558.20142	3.37700
3556.27285	3.42001
3554.34429	3.46392
3552.41572	3.51197
3550.48716	3.56046
3548.55859	3.60481
3546.63003	3.64723
3544.70146	3.69360
3542.77290	3.74348
3540.84434	3.79197
3538.91577	3.83953
3536.98721	3.88653
3535.05864	3.93374
3533.13008	3.98067
3531.20151	4.02766
3529.27295	4.07510
3527.34438	4.12205
3525.41582	4.16720
3523.48726	4.21260
3521.55869	4.26123
3519.63013	4.31234
3517.70156	4.36444
3515.77300	4.41178
3513.84443	4.45488
3511.91587	4.50203
3509.98730	4.55609
3508.05874	4.61123
3506.13018	4.65961
3504.20161	4.70452
3502.27305	4.75733
3500.34448	4.81212
3498.41592	4.85300
3496.48735	4.89028
3494.55879	4.93673
3492.63022	4.98508
3490.70166	5.03215
3488.77310	5.08143
3486.84453	5.12786
3484.91597	5.17248
3482.98740	5.22412
3481.05884	5.27946
3479.13027	5.33068
3477.20171	5.38258
3475.27314	5.43535
3473.34458	5.48083
3471.41602	5.52616
3469.48745	5.58142
3467.55889	5.63865
3465.63032	5.68428
3463.70176	5.71859
3461.77319	5.75175
3459.84463	5.79436
3457.91606	5.85241
3455.98750	5.92016
3454.05894	5.97390
3452.13037	6.01093
3450.20181	6.05733
3448.27324	6.10730
3446.34468	6.14728
3444.41611	6.19653
3442.48755	6.26608
3440.55898	6.32667
3438.63042	6.35945
3436.70186	6.38219
3434.77329	6.43045
3432.84473	6.51219
3430.91616	6.57723
3428.98760	6.60281
3427.05903	6.62144
3425.13047	6.67468
3423.20190	6.75600
3421.27334	6.82380
3419.34478	6.86628
3417.41621	6.90111
3415.48765	6.94634
3413.55908	6.99379
3411.63052	7.04325
3409.70195	7.11649
3407.77339	7.21165
3405.84482	7.26224
3403.91626	7.23748
3401.98770	7.22406
3400.05913	7.29642
3398.13057	7.38395
3396.20200	7.40050
3394.27344	7.40461
3392.34487	7.42821
3390.41631	7.45147
3388.48774	7.48586
3386.55918	7.54285
3384.63062	7.58299
3382.70205	7.60974
3380.77349	7.66437
3378.84492	7.73053
3376.91636	7.76841
3374.98779	7.75593
3373.05923	7.74791
3371.13066	7.75148
3369.20210	7.75235
3367.27354	7.79544
3365.34497	7.90145
3363.41641	8.00305
3361.48784	8.05313
3359.55928	8.07138
3357.63071	8.03599
3355.70215	8.04440
3353.77358	8.14395
3351.84502	8.18300
3349.91646	8.09732
3347.98789	7.99119
3346.05933	7.94744
3344.13076	7.98735
3342.20220	8.02905
3340.27363	7.98807
3338.34507	7.94760
3336.41650	7.98124
3334.48794	8.06494
3332.55937	8.14683
3330.63081	8.23067
3328.70225	8.24971
3326.77368	8.19055
3324.84512	8.14880
3322.91655	8.08250
3320.98799	8.03027
3319.05942	8.07489
3317.13086	8.18021
3315.20229	8.26412
3313.27373	8.26904
3311.34517	8.20574
3309.41660	8.16354
3307.48804	8.20924
3305.55947	8.30168
3303.63091	8.27892
3301.70234	8.14067
3299.77378	8.13779
3297.84521	8.28014
3295.91665	8.33362
3293.98809	8.25527
3292.05952	8.22281
3290.13096	8.27624
3288.20239	8.31496
3286.27383	8.27716
3284.34526	8.20600
3282.41670	8.21942
3280.48813	8.33573
3278.55957	8.43239
3276.63101	8.36498
3274.70244	8.25221
3272.77388	8.26122
3270.84531	8.32716
3268.91675	8.33254
3266.98818	8.28296
3265.05962	8.27330
3263.13105	8.33469
3261.20249	8.39495
3259.27393	8.33883
3257.34536	8.23533
3255.41680	8.18623
3253.48823	8.15371
3251.55967	8.10435
3249.63110	8.04290
3247.70254	8.02194
3245.77397	8.08428
3243.84541	8.17524
3241.91685	8.15160
3239.98828	8.05525
3238.05972	8.04103
3236.13115	8.07485
3234.20259	8.09502
3232.27402	8.14416
3230.34546	8.14218
3228.41689	8.03201
3226.48833	7.99006
3224.55977	8.02963
3222.63120	8.00743
3220.70264	7.93307
3218.77407	7.89070
3216.84551	7.91067
3214.91694	7.97426
3212.98838	8.00035
3211.05981	7.94836
3209.13125	7.90426
3207.20269	7.88634
3205.27412	7.80965
3203.34556	7.68006
3201.41699	7.60708
3199.48843	7.61846
3197.55986	7.65853
3195.63130	7.67651
3193.70273	7.60194
3191.77417	7.47102
3189.84561	7.41942
3187.91704	7.45482
3185.98848	7.47739
3184.05991	7.45144
3182.13135	7.40065
3180.20278	7.32850
3178.27422	7.24120
3176.34565	7.17240
3174.41709	7.13697
3172.48853	7.09226
3170.55996	7.00816
3168.63140	6.92105
3166.70283	6.86664
3164.77427	6.83031
3162.84570	6.77200
3160.91714	6.68511
3158.98857	6.59962
3157.06001	6.52734
3155.13145	6.46080
3153.20288	6.39248
3151.27432	6.31800
3149.34575	6.24567
3147.41719	6.19494
3145.48862	6.15760
3143.56006	6.09702
3141.63149	6.01088
3139.70293	5.92545
3137.77437	5.85228
3135.84580	5.78956
3133.91724	5.73363
3131.98867	5.67423
3130.06011	5.60313
3128.13154	5.52871
3126.20298	5.45605
3124.27441	5.37859
3122.34585	5.30015
3120.41729	5.22898
3118.48872	5.15675
3116.56016	5.07929
3114.63159	5.00534
3112.70303	4.93924
3110.77446	4.87540
3108.84590	4.80549
3106.91733	4.73467
3104.98877	4.66916
3103.06021	4.60392
3101.13164	4.53798
3099.20308	4.47281
3097.27451	4.40540
3095.34595	4.33768
3093.41738	4.27233
3091.48882	4.20651
3089.56025	4.14047
3087.63169	4.07617
3085.70312	4.01169
3083.77456	3.94716
3081.84600	3.88563
3079.91743	3.82551
3077.98887	3.76439
3076.06030	3.70308
3074.13174	3.64265
3072.20317	3.58358
3070.27461	3.52494
3068.34604	3.46691
3066.41748	3.41037
3064.48892	3.35431
3062.56035	3.29762
3060.63179	3.24176
3058.70322	3.18947
3056.77466	3.13891
3054.84609	3.08712
3052.91753	3.03499
3050.98896	2.98334
3049.06040	2.93233
3047.13184	2.88271
3045.20327	2.83469
3043.27471	2.78794
3041.34614	2.74177
3039.41758	2.69498
3037.48901	2.64732
3035.56045	2.60060
3033.63188	2.55616
3031.70332	2.51253
3029.77476	2.46875
3027.84619	2.42595
3025.91763	2.38385
3023.98906	2.34183
3022.06050	2.30082
3020.13193	2.26085
3018.20337	2.22137
3016.27480	2.18245
3014.34624	2.14378
3012.41768	2.10563
3010.48911	2.06868
3008.56055	2.03273
3006.63198	1.99718
3004.70342	1.96140
3002.77485	1.92563
3000.84629	1.89113
2998.91772	1.85816
2996.98916	1.82566
2995.06060	1.79294
2993.13203	1.76033
2991.20347	1.72839
2989.27490	1.69730
2987.34634	1.66708
2985.41777	1.63756
2983.48921	1.60836
2981.56064	1.57946
2979.63208	1.55110
2977.70352	1.52315
2975.77495	1.49536
2973.84639	1.46766
2971.91782	1.44052
2969.98926	1.41424
2968.06069	1.38834
2966.13213	1.36272
2964.20356	1.33775
2962.27500	1.31337
2960.34644	1.28950
2958.41787	1.26631
2956.48931	1.24375
2954.56074	1.22147
2952.63218	1.19944
2950.70361	1.17802
2948.77505	1.15710
2946.84648	1.13635
2944.91792	1.11598
2942.98936	1.09609
2941.06079	1.07685
2939.13223	1.05825
2937.20366	1.03940
2935.27510	1.01984
2933.34653	1.00038
2931.41797	0.98194
2929.48940	0.96460
2927.56084	0.94820
2925.63228	0.93204
2923.70371	0.91547
2921.77515	0.89907
2919.84658	0.88332
2917.91802	0.86791
2915.98945	0.85266
2914.06089	0.83738
2912.13232	0.82231
2910.20376	0.80802
2908.27520	0.79436
2906.34663	0.78104
2904.41807	0.76811
2902.48950	0.75546
2900.56094	0.74295
2898.63237	0.73054
2896.70381	0.71824
2894.77524	0.70605
2892.84668	0.69405
2890.91812	0.68248
2888.98955	0.67133
2887.06099	0.66045
2885.13242	0.64967
2883.20386	0.63882
2881.27529	0.62802
2879.34673	0.61752
2877.41816	0.60726
2875.48960	0.59710
2873.56104	0.58703
2871.63247	0.57701
2869.70391	0.56721
2867.77534	0.55793
2865.84678	0.54888
2863.91821	0.53945
2861.98965	0.52970
2860.06108	0.52042
2858.13252	0.51203
2856.20396	0.50395
2854.27539	0.49562
2852.34683	0.48741
2850.41826	0.47971
2848.48970	0.47211
2846.56113	0.46447
2844.63257	0.45709
2842.70400	0.44998
2840.77544	0.44324
2838.84687	0.43703
2836.91831	0.43108
2834.98975	0.42501
2833.06118	0.41890
2831.13262	0.41295
2829.20405	0.40719
2827.27549	0.40150
2825.34692	0.39570
2823.41836	0.38973
2821.48979	0.38384
2819.56123	0.37826
2817.63267	0.37288
2815.70410	0.36752
2813.77554	0.36220
2811.84697	0.35691
2809.91841	0.35160
2807.98984	0.34638
2806.06128	0.34138
2804.13271	0.33658
2802.20415	0.33193
2800.27559	0.32738
2798.34702	0.32285
2796.41846	0.31841
2794.48989	0.31394
2792.56133	0.30943
2790.63276	0.30520
2788.70420	0.30119
2786.77563	0.29718
2784.84707	0.29328
2782.91851	0.28951
2780.98994	0.28577
2779.06138	0.28211
2777.13281	0.27849
2775.20425	0.27487
2773.27568	0.27123
2771.34712	0.26766
2769.41855	0.26435
2767.48999	0.26115
2765.56143	0.25793
2763.63286	0.25482
2761.70430	0.25186
2759.77573	0.24895
2757.84717	0.24604
2755.91860	0.24308
2753.99004	0.24012
2752.06147	0.23731
2750.13291	0.23466
2748.20435	0.23210
2746.27578	0.22958
2744.34722	0.22707
2742.41865	0.22464
2740.49009	0.22235
2738.56152	0.22003
2736.63296	0.21765
2734.70439	0.21533
2732.77583	0.21303
2730.84727	0.21085
2728.91870	0.20882
2726.99014	0.20676
2725.06157	0.20475
2723.13301	0.20285
2721.20444	0.20091
2719.27588	0.19905
2717.34731	0.19744
2715.41875	0.19579
2713.49019	0.19398
2711.56162	0.19219
2709.63306	0.19048
2707.70449	0.18878
2705.77593	0.18718
2703.84736	0.18576
2701.91880	0.18442
2699.99023	0.18305
2698.06167	0.18167
2696.13311	0.18035
2694.20454	0.17908
2692.27598	0.17781
2690.34741	0.17644
2688.41885	0.17501
2686.49028	0.17368
2684.56172	0.17250
2682.63315	0.17132
2680.70459	0.17012
2678.77603	0.16908
2676.84746	0.16812
2674.91890	0.16704
2672.99033	0.16585
2671.06177	0.16479
2669.13320	0.16381
2667.20464	0.16281
2665.27607	0.16189
2663.34751	0.16111
2661.41895	0.16042
2659.49038	0.15970
2657.56182	0.15891
2655.63325	0.15809
2653.70469	0.15740
2651.77612	0.15684
2649.84756	0.15618
2647.91899	0.15545
2645.99043	0.15475
2644.06187	0.15414
2642.13330	0.15367
2640.20474	0.15332
2638.27617	0.15294
2636.34761	0.15250
2634.41904	0.15208
2632.49048	0.15163
2630.56191	0.15117
2628.63335	0.15085
2626.70479	0.15083
2624.77622	0.15088
2622.84766	0.15070
2620.91909	0.15031
2618.99053	0.14993
2617.06196	0.14970
2615.13340	0.14957
2613.20483	0.14948
2611.27627	0.14939
2609.34771	0.14925
2607.41914	0.14914
2605.49058	0.14916
2603.56201	0.14915
2601.63345	0.14906
2599.70488	0.14909
2597.77632	0.14930
2595.84775	0.14956
2593.91919	0.14975
2591.99062	0.14985
2590.06206	0.14991
2588.13350	0.15005
2586.20493	0.15033
2584.27637	0.15065
2582.34780	0.15096
2580.41924	0.15133
2578.49067	0.15166
2576.56211	0.15190
2574.63354	0.15218
2572.70498	0.15259
2570.77642	0.15302
2568.84785	0.15341
2566.91929	0.15387
2564.99072	0.15433
2563.06216	0.15461
2561.13359	0.15491
2559.20503	0.15551
2557.27646	0.15622
2555.34790	0.15672
2553.41934	0.15707
2551.49077	0.15750
2549.56221	0.15812
2547.63364	0.15876
2545.70508	0.15942
2543.77651	0.16021
2541.84795	0.16096
2539.91938	0.16154
2537.99082	0.16211
2536.06226	0.16282
2534.13369	0.16358
2532.20513	0.16429
2530.27656	0.16498
2528.34800	0.16565
2526.41943	0.16634
2524.49087	0.16709
2522.56230	0.16782
2520.63374	0.16856
2518.70518	0.16937
2516.77661	0.17015
2514.84805	0.17099
2512.91948	0.17192
2510.99092	0.17266
2509.06235	0.17325
2507.13379	0.17404
2505.20522	0.17506
2503.27666	0.17603
2501.34810	0.17684
2499.41953	0.17761
2497.49097	0.17848
2495.56240	0.17937
2493.63384	0.18010
2491.70527	0.18076
2489.77671	0.18161
2487.84814	0.18257
2485.91958	0.18343
2483.99102	0.18424
2482.06245	0.18515
2480.13389	0.18612
2478.20532	0.18711
2476.27676	0.18808
2474.34819	0.18900
2472.41963	0.18995
2470.49106	0.19095
2468.56250	0.19191
2466.63394	0.19282
2464.70537	0.19370
2462.77681	0.19460
2460.84824	0.19562
2458.91968	0.19663
2456.99111	0.19750
2455.06255	0.19828
2453.13398	0.19909
2451.20542	0.20010
2449.27686	0.20127
2447.34829	0.20238
2445.41973	0.20343
2443.49116	0.20444
2441.56260	0.20535
2439.63403	0.20634
2437.70547	0.20742
2435.77690	0.20839
2433.84834	0.20940
2431.91978	0.21048
2429.99121	0.21150
2428.06265	0.21257
2426.13408	0.21369
2424.20552	0.21475
2422.27695	0.21591
2420.34839	0.21717
2418.41982	0.21830
2416.49126	0.21933
2414.56270	0.22032
2412.63413	0.22137
2410.70557	0.22258
2408.77700	0.22385
2406.84844	0.22506
2404.91987	0.22625
2402.99131	0.22749
2401.06274	0.22874
2399.13418	0.22989
2397.20562	0.23104
2395.27705	0.23227
2393.34849	0.23352
2391.41992	0.23472
2389.49136	0.23595
2387.56279	0.23750
2385.63423	0.23959
2383.70566	0.24232
2381.77710	0.24578
2379.84854	0.24994
2377.91997	0.25462
2375.99141	0.25961
2374.06284	0.26520
2372.13428	0.27193
2370.20571	0.27950
2368.27715	0.28713
2366.34858	0.29492
2364.42002	0.30207
2362.49146	0.30655
2360.56289	0.30831
2358.63433	0.30896
2356.70576	0.30832
2354.77720	0.30526
2352.84863	0.30042
2350.92007	0.29508
2348.99150	0.29180
2347.06294	0.29246
2345.13437	0.29769
2343.20581	0.30525
2341.27725	0.31020
2339.34868	0.31194
2337.42012	0.31229
2335.49155	0.31221
2333.56299	0.31252
2331.63442	0.31363
2329.70586	0.31453
2327.77729	0.31451
2325.84873	0.31407
2323.92017	0.31337
2321.99160	0.31219
2320.06304	0.31074
2318.13447	0.30969
2316.20591	0.30949
2314.27734	0.30987
2312.34878	0.31038
2310.42021	0.31093
2308.49165	0.31126
2306.56309	0.31132
2304.63452	0.31158
2302.70596	0.31239
2300.77739	0.31352
2298.84883	0.31464
2296.92026	0.31583
2294.99170	0.31721
2293.06313	0.31857
2291.13457	0.31977
2289.20601	0.32099
2287.27744	0.32232
2285.34888	0.32365
2283.42031	0.32503
2281.49175	0.32677
2279.56318	0.32900
2277.63462	0.33136
2275.70605	0.33355
2273.77749	0.33562
2271.84893	0.33772
2269.92036	0.33972
2267.99180	0.34162
2266.06323	0.34358
2264.13467	0.34562
2262.20610	0.34768
2260.27754	0.34975
2258.34897	0.35182
2256.42041	0.35388
2254.49185	0.35595
2252.56328	0.35801
2250.63472	0.36001
2248.70615	0.36199
2246.77759	0.36408
2244.84902	0.36630
2242.92046	0.36849
2240.99189	0.37054
2239.06333	0.37259
2237.13477	0.37478
2235.20620	0.37704
2233.27764	0.37929
2231.34907	0.38153
2229.42051	0.38375
2227.49194	0.38593
2225.56338	0.38807
2223.63481	0.39018
2221.70625	0.39234
2219.77769	0.39452
2217.84912	0.39668
2215.92056	0.39888
2213.99199	0.40107
2212.06343	0.40328
2210.13486	0.40550
2208.20630	0.40757
2206.27773	0.40956
2204.34917	0.41160
2202.42061	0.41372
2200.49204	0.41584
2198.56348	0.41782
2196.63491	0.41974
2194.70635	0.42176
2192.77778	0.42371
2190.84922	0.42553
2188.92065	0.42743
2186.99209	0.42930
2185.06353	0.43100
2183.13496	0.43267
2181.20640	0.43437
2179.27783	0.43606
2177.34927	0.43768
2175.42070	0.43930
2173.49214	0.44096
2171.56357	0.44252
2169.63501	0.44389
2167.70645	0.44510
2165.77788	0.44626
2163.84932	0.44752
2161.92075	0.44887
2159.99219	0.45015
2158.06362	0.45127
2156.13506	0.45220
2154.20649	0.45307
2152.27793	0.45397
2150.34937	0.45477
2148.42080	0.45541
2146.49224	0.45610
2144.56367	0.45681
2142.63511	0.45737
2140.70654	0.45783
2138.77798	0.45819
2136.84941	0.45838
2134.92085	0.45850
2132.99229	0.45859
2131.06372	0.45858
2129.13516	0.45845
2127.20659	0.45833
2125.27803	0.45820
2123.34946	0.45780
2121.42090	0.45728
2119.49233	0.45687
2117.56377	0.45643
2115.63521	0.45583
2113.70664	0.45512
2111.77808	0.45431
2109.84951	0.45341
2107.92095	0.45252
2105.99238	0.45146
2104.06382	0.45024
2102.13525	0.44908
2100.20669	0.44795
2098.27812	0.44672
2096.34956	0.44551
2094.42100	0.44423
2092.49243	0.44272
2090.56387	0.44104
2088.63530	0.43945
2086.70674	0.43790
2084.77817	0.43613
2082.84961	0.43419
2080.92104	0.43226
2078.99248	0.43031
2077.06392	0.42829
2075.13535	0.42632
2073.20679	0.42439
2071.27822	0.42231
2069.34966	0.42008
2067.42109	0.41787
2065.49253	0.41568
2063.56396	0.41336
2061.63540	0.41101
2059.70684	0.40871
2057.77827	0.40637
2055.84971	0.40395
2053.92114	0.40146
2051.99258	0.39893
2050.06401	0.39634
2048.13545	0.39371
2046.20688	0.39115
2044.27832	0.38870
2042.34976	0.38616
2040.42119	0.38347
2038.49263	0.38071
2036.56406	0.37793
2034.63550	0.37521
2032.70693	0.37261
2030.77837	0.37010
2028.84980	0.36745
2026.92124	0.36463
2024.99268	0.36183
2023.06411	0.35919
2021.13555	0.35658
2019.20698	0.35386
2017.27842	0.35111
2015.34985	0.34835
2013.42129	0.34563
2011.49272	0.34292
2009.56416	0.34018
2007.63560	0.33746
2005.70703	0.33487
2003.77847	0.33235
2001.84990	0.32973
1999.92134	0.32710
1997.99277	0.32450
1996.06421	0.32191
1994.13564	0.31943
1992.20708	0.31703
1990.27852	0.31452
1988.34995	0.31188
1986.42139	0.30925
1984.49282	0.30676
1982.56426	0.30444
1980.63569	0.30214
1978.70713	0.29982
1976.77856	0.29758
1974.85000	0.29542
1972.92144	0.29326
1970.99287	0.29104
1969.06431	0.28893
1967.13574	0.28700
1965.20718	0.28503
1963.27861	0.28299
1961.35005	0.28096
1959.42148	0.27889
1957.49292	0.27694
1955.56436	0.27522
1953.63579	0.27357
1951.70723	0.27185
1949.77866	0.27017
1947.85010	0.26851
1945.92153	0.26697
1943.99297	0.26563
1942.06440	0.26424
1940.13584	0.26264
1938.20728	0.26105
1936.27871	0.25957
1934.35015	0.25817
1932.42158	0.25690
1930.49302	0.25568
1928.56445	0.25449
1926.63589	0.25334
1924.70732	0.25230
1922.77876	0.25140
1920.85020	0.25051
1918.92163	0.24966
1916.99307	0.24880
1915.06450	0.24776
1913.13594	0.24668
1911.20737	0.24588
1909.27881	0.24525
1907.35024	0.24453
1905.42168	0.24376
1903.49312	0.24314
1901.56455	0.24258
1899.63599	0.24204
1897.70742	0.24160
1895.77886	0.24124
1893.85029	0.24085
1891.92173	0.24041
1889.99316	0.24015
1888.06460	0.23994
1886.13604	0.23960
1884.20747	0.23925
1882.27891	0.23897
1880.35034	0.23880
1878.42178	0.23869
1876.49321	0.23866
1874.56465	0.23865
1872.63608	0.23878
1870.70752	0.23907
1868.77896	0.23958
1866.85039	0.23981
1864.92183	0.23959
1862.99326	0.23950
1861.06470	0.23968
1859.13613	0.24000
1857.20757	0.24045
1855.27900	0.24102
1853.35044	0.24148
1851.42187	0.24192
1849.49331	0.24243
1847.56475	0.24297
1845.63618	0.24367
1843.70762	0.24472
1841.77905	0.24565
1839.85049	0.24611
1837.92192	0.24679
1835.99336	0.24768
1834.06479	0.24859
1832.13623	0.24954
1830.20767	0.25088
1828.27910	0.25234
1826.35054	0.25342
1824.42197	0.25461
1822.49341	0.25580
1820.56484	0.25696
1818.63628	0.25831
1816.70771	0.25993
1814.77915	0.26158
1812.85059	0.26334
1810.92202	0.26533
1808.99346	0.26734
1807.06489	0.26924
1805.13633	0.27108
1803.20776	0.27321
1801.27920	0.27571
1799.35063	0.27860
1797.42207	0.28117
1795.49351	0.28353
1793.56494	0.28625
1791.63638	0.28975
1789.70781	0.29317
1787.77925	0.29585
1785.85068	0.29902
1783.92212	0.30273
1781.99355	0.30662
1780.06499	0.31070
1778.13643	0.31492
1776.20786	0.31888
1774.27930	0.32316
1772.35073	0.32907
1770.42217	0.33548
1768.49360	0.34070
1766.56504	0.34574
1764.63647	0.35106
1762.70791	0.35694
1760.77935	0.36431
1758.85078	0.37124
1756.92222	0.37829
1754.99365	0.38606
1753.06509	0.39302
1751.13652	0.40124
1749.20796	0.41188
1747.27939	0.42256
1745.35083	0.43178
1743.42227	0.44134
1741.49370	0.45187
1739.56514	0.46442
1737.63657	0.47713
1735.70801	0.48806
1733.77944	0.50407
1731.85088	0.52343
1729.92231	0.53903
1727.99375	0.55492
1726.06519	0.57185
1724.13662	0.59012
1722.20806	0.60970
1720.27949	0.62757
1718.35093	0.64843
1716.42236	0.68011
1714.49380	0.71082
1712.56523	0.73546
1710.63667	0.75913
1708.70811	0.78452
1706.77954	0.81326
1704.85098	0.84760
1702.92241	0.87822
1700.99385	0.90800
1699.06528	0.95202
1697.13672	0.99228
1695.20815	1.03327
1693.27959	1.07309
1691.35103	1.10507
1689.42246	1.14174
1687.49390	1.17992
1685.56533	1.21602
1683.63677	1.27199
1681.70820	1.33085
1679.77964	1.36812
1677.85107	1.40335
1675.92251	1.44392
1673.99395	1.49356
1672.06538	1.53722
1670.13682	1.58033
1668.20825	1.63613
1666.27969	1.67982
1664.35112	1.71527
1662.42256	1.75919
1660.49399	1.80938
1658.56543	1.84941
1656.63687	1.88203
1654.70830	1.91201
1652.77974	1.96373
1650.85117	2.01729
1648.92261	2.03930
1646.99404	2.07024
1645.06548	2.10790
1643.13691	2.13189
1641.20835	2.14645
1639.27979	2.15847
1637.35122	2.16586
1635.42266	2.16992
1633.49409	2.16967
1631.56553	2.16101
1629.63696	2.14709
1627.70840	2.12331
1625.77983	2.09634
1623.85127	2.06245
1621.92271	2.01968
1619.99414	1.98013
1618.06558	1.93930
1616.13701	1.88001
1614.20845	1.82095
1612.27988	1.77702
1610.35132	1.73021
1608.42275	1.67813
1606.49419	1.62599
1604.56562	1.57746
1602.63706	1.53021
1600.70850	1.48363
1598.77993	1.44046
1596.85137	1.39985
1594.92280	1.36053
1592.99424	1.32234
1591.06567	1.28712
1589.13711	1.25420
1587.20854	1.22338
1585.27998	1.19423
1583.35142	1.16624
1581.42285	1.14004
1579.49429	1.11702
1577.56572	1.09583
1575.63716	1.06914
1573.70859	1.04483
1571.78003	1.02860
1569.85146	1.01072
1567.92290	0.98954
1565.99434	0.97226
1564.06577	0.95721
1562.13721	0.94440
1560.20864	0.93314
1558.28008	0.91258
1556.35151	0.89391
1554.42295	0.88306
1552.49438	0.87223
1550.56582	0.86142
1548.63726	0.85045
1546.70869	0.84083
1544.78013	0.83240
1542.85156	0.82422
1540.92300	0.81497
1538.99443	0.80220
1537.06587	0.79299
1535.13730	0.78695
1533.20874	0.77943
1531.28018	0.77113
1529.35161	0.76484
1527.42305	0.75895
1525.49448	0.75278
1523.56592	0.74728
1521.63735	0.74163
1519.70879	0.73506
1517.78022	0.72932
1515.85166	0.72367
1513.92310	0.71826
1511.99453	0.71387
1510.06597	0.71011
1508.13740	0.70677
1506.20884	0.70151
1504.28027	0.69596
1502.35171	0.69234
1500.42314	0.68926
1498.49458	0.68630
1496.56602	0.68316
1494.63745	0.67987
1492.70889	0.67701
1490.78032	0.67448
1488.85176	0.67150
1486.92319	0.66828
1484.99463	0.66545
1483.06606	0.66298
1481.13750	0.66060
1479.20894	0.65830
1477.28037	0.65630
1475.35181	0.65445
1473.42324	0.65236
1471.49468	0.64955
1469.56611	0.64685
1467.63755	0.64475
1465.70898	0.64305
1463.78042	0.64143
1461.85186	0.63973
1459.92329	0.63832
1457.99473	0.63710
1456.06616	0.63501
1454.13760	0.63236
1452.20903	0.63019
1450.28047	0.62830
1448.35190	0.62658
1446.42334	0.62488
1444.49478	0.62314
1442.56621	0.62149
1440.63765	0.62017
1438.70908	0.61926
1436.78052	0.61838
1434.85195	0.61698
1432.92339	0.61540
1430.99482	0.61402
1429.06626	0.61271
1427.13770	0.61146
1425.20913	0.61038
1423.28057	0.60946
1421.35200	0.60852
1419.42344	0.60736
1417.49487	0.60584
1415.56631	0.60401
1413.63774	0.60219
1411.70918	0.60046
1409.78062	0.59871
1407.85205	0.59687
1405.92349	0.59502
1403.99492	0.59323
1402.06636	0.59156
1400.13779	0.59012
1398.20923	0.58885
1396.28066	0.58756
1394.35210	0.58613
1392.42354	0.58467
1390.49497	0.58339
1388.56641	0.58235
1386.63784	0.58135
1384.70928	0.58038
1382.78071	0.57957
1380.85215	0.57888
1378.92358	0.57826
1376.99502	0.57764
1375.06646	0.57710
1373.13789	0.57674
1371.20933	0.57632
1369.28076	0.57585
1367.35220	0.57537
1365.42363	0.57474
1363.49507	0.57392
1361.56650	0.57290
1359.63794	0.57167
1357.70937	0.57041
1355.78081	0.56917
1353.85225	0.56811
1351.92368	0.56718
1349.99512	0.56621
1348.06655	0.56519
1346.13799	0.56396
1344.20942	0.56257
1342.28086	0.56139
1340.35229	0.56048
1338.42373	0.55955
1336.49517	0.55854
1334.56660	0.55763
1332.63804	0.55678
1330.70947	0.55588
1328.78091	0.55499
1326.85234	0.55424
1324.92378	0.55363
1322.99521	0.55311
1321.06665	0.55248
1319.13809	0.55170
1317.20952	0.55091
1315.28096	0.55024
1313.35239	0.54957
1311.42383	0.54865
1309.49526	0.54750
1307.56670	0.54634
1305.63813	0.54526
1303.70957	0.54419
1301.78101	0.54314
1299.85244	0.54213
1297.92388	0.54107
1295.99531	0.53997
1294.06675	0.53905
1292.13818	0.53843
1290.20962	0.53799
1288.28105	0.53757
1286.35249	0.53711
1284.42393	0.53654
1282.49536	0.53581
1280.56680	0.53514
1278.63823	0.53459
1276.70967	0.53406
1274.78110	0.53357
1272.85254	0.53319
1270.92397	0.53280
1268.99541	0.53235
1267.06685	0.53193
1265.13828	0.53156
1263.20972	0.53123
1261.28115	0.53096
1259.35259	0.53064
1257.42402	0.53022
1255.49546	0.52976
1253.56689	0.52932
1251.63833	0.52904
1249.70977	0.52881
1247.78120	0.52835
1245.85264	0.52777
1243.92407	0.52732
1241.99551	0.52697
1240.06694	0.52656
1238.13838	0.52607
1236.20981	0.52553
1234.28125	0.52496
1232.35269	0.52427
1230.42412	0.52345
1228.49556	0.52272
1226.56699	0.52203
1224.63843	0.52121
1222.70986	0.52024
1220.78130	0.51936
1218.85273	0.51863
1216.92417	0.51791
1214.99561	0.51721
1213.06704	0.51655
1211.13848	0.51593
1209.20991	0.51539
1207.28135	0.51487
1205.35278	0.51440
1203.42422	0.51401
1201.49565	0.51349
1199.56709	0.51272
1197.63853	0.51187
1195.70996	0.51110
1193.78140	0.51038
1191.85283	0.50970
1189.92427	0.50909
1187.99570	0.50852
1186.06714	0.50796
1184.13857	0.50752
1182.21001	0.50746
1180.28145	0.50773
1178.35288	0.50811
1176.42432	0.50861
1174.49575	0.50928
1172.56719	0.51007
1170.63862	0.51090
1168.71006	0.51178
1166.78149	0.51288
1164.85293	0.51421
1162.92437	0.51548
1160.99580	0.51640
1159.06724	0.51696
1157.13867	0.51712
1155.21011	0.51687
1153.28154	0.51622
1151.35298	0.51498
1149.42441	0.51305
1147.49585	0.51072
1145.56729	0.50817
1143.63872	0.50551
1141.71016	0.50297
1139.78159	0.50092
1137.85303	0.49940
1135.92446	0.49816
1133.99590	0.49723
1132.06733	0.49671
1130.13877	0.49637
1128.21021	0.49601
1126.28164	0.49581
1124.35308	0.49574
1122.42451	0.49550
1120.49595	0.49527
1118.56738	0.49547
1116.63882	0.49601
1114.71025	0.49675
1112.78169	0.49778
1110.85312	0.49893
1108.92456	0.49990
1106.99600	0.50069
1105.06743	0.50145
1103.13887	0.50220
1101.21030	0.50294
1099.28174	0.50389
1097.35317	0.50537
1095.42461	0.50770
1093.49604	0.51124
1091.56748	0.51627
1089.63892	0.52295
1087.71035	0.53116
1085.78179	0.54035
1083.85322	0.54956
1081.92466	0.55775
1079.99609	0.56384
1078.06753	0.56684
1076.13896	0.56643
1074.21040	0.56302
1072.28184	0.55737
1070.35327	0.55048
1068.42471	0.54335
1066.49614	0.53684
1064.56758	0.53114
1062.63901	0.52601
1060.71045	0.52142
1058.78188	0.51746
1056.85332	0.51418
1054.92476	0.51144
1052.99619	0.50898
1051.06763	0.50682
1049.13906	0.50553
1047.21050	0.50567
1045.28193	0.50694
1043.35337	0.50839
1041.42480	0.50957
1039.49624	0.51045
1037.56768	0.51098
1035.63911	0.51118
1033.71055	0.51105
1031.78198	0.51035
1029.85342	0.50880
1027.92485	0.50653
1025.99629	0.50429
1024.06772	0.50274
1022.13916	0.50183
1020.21060	0.50134
1018.28203	0.50100
1016.35347	0.50054
1014.42490	0.50004
1012.49634	0.49961
1010.56777	0.49917
1008.63921	0.49891
1006.71064	0.49892
1004.78208	0.49924
1002.85352	0.50027
1000.92495	0.50235
998.99639	0.50540
997.06782	0.50932
995.13926	0.51367
993.21069	0.51767
991.28213	0.52057
989.35356	0.52205
987.42500	0.52256
985.49644	0.52260
983.56787	0.52246
981.63931	0.52252
979.71074	0.52322
977.78218	0.52477
975.85361	0.52695
973.92505	0.52947
971.99648	0.53229
970.06792	0.53540
968.13936	0.53885
966.21079	0.54273
964.28223	0.54694
962.35366	0.55135
960.42510	0.55608
958.49653	0.56123
956.56797	0.56687
954.63940	0.57283
952.71084	0.57880
950.78228	0.58473
948.85371	0.59094
946.92515	0.59720
944.99658	0.60310
943.06802	0.60902
941.13945	0.61527
939.21089	0.62146
937.28232	0.62730
935.35376	0.63281
933.42520	0.63812
931.49663	0.64349
929.56807	0.64915
927.63950	0.65504
925.71094	0.66118
923.78237	0.66758
921.85381	0.67421
919.92524	0.68092
917.99668	0.68744
916.06812	0.69415
914.13955	0.70143
912.21099	0.70869
910.28242	0.71599
908.35386	0.72371
906.42529	0.73175
904.49673	0.74069
902.56816	0.75031
900.63960	0.75955
898.71104	0.76843
896.78247	0.77733
894.85391	0.78632
892.92534	0.79554
890.99678	0.80548
889.06821	0.81593
887.13965	0.82619
885.21108	0.83733
883.28252	0.84982
881.35396	0.86180
879.42539	0.87293
877.49683	0.88380
875.56826	0.89411
873.63970	0.90452
871.71113	0.91594
869.78257	0.92698
867.85400	0.93657
865.92544	0.94675
863.99687	0.95864
862.06831	0.97136
860.13975	0.98473
858.21118	0.99798
856.28262	1.00958
854.35405	1.02074
852.42549	1.03301
850.49692	1.04594
848.56836	1.05854
846.63979	1.06924
844.71123	1.07898
842.78267	1.09041
840.85410	1.10303
838.92554	1.11472
836.99697	1.12530
835.06841	1.13388
833.13984	1.14063
831.21128	1.15167
829.28271	1.16862
827.35415	1.18206
825.42559	1.18703
823.49702	1.19006
821.56846	1.19924
819.63989	1.21541
817.71133	1.22761
815.78276	1.23459
813.85420	1.24416
811.92563	1.25325
809.99707	1.26438
808.06851	1.27894
806.13994	1.29268
804.21138	1.30879
802.28281	1.33075
800.35425	1.36156
798.42568	1.39197
796.49712	1.40545
794.56855	1.41347
792.63999	1.40702
790.71143	1.36594
788.78286	1.33779
786.85430	1.35387
784.92573	1.39333
782.99717	1.39634
781.06860	1.35718
779.14004	1.36639
777.21147	1.44732
775.28291	1.45152
773.35435	1.33632
771.42578	1.28580
769.49722	1.30116
767.56865	1.31334
765.64009	1.35970
763.71152	1.35929
761.78296	1.26392
759.85439	1.22287
757.92583	1.22350
755.99727	1.21647
754.06870	1.23503
752.14014	1.23960
750.21157	1.19554
748.28301	1.18143
746.35444	1.19518
744.42588	1.13385
742.49731	1.03998
740.56875	0.96538
738.64019	0.90626
736.71162	0.86120
734.78306	0.76357
732.85449	0.60934
730.92593	0.50569
728.99736	0.47893
727.06880	0.47020
725.14023	0.39799
723.21167	0.31463
721.28311	0.31086
719.35454	0.32704
717.42598	0.21298
715.49741	0.08420
713.56885	0.07733
711.64028	0.10751
709.71172	0.12918
707.78315	0.20748
705.85459	0.27126
703.92603	0.16756
701.99746	0.12215
700.06890	0.17196
698.14033	0.28388
696.21177	0.34915
694.28320	0.23001
692.35464	0.13299
690.42607	0.11617
688.49751	0.09109
686.56895	0.06565
684.64038	0.10531
682.71182	0.19674
680.78325	0.22647
678.85469	0.16608
676.92612	0.15985
674.99756	0.20667
673.06899	0.26748
671.14043	0.34326
669.21187	0.36739
667.28330	0.33588
665.35474	0.30937
663.42617	0.24274
661.49761	0.14231
659.56904	0.10540
657.64048	0.15343
655.71191	0.25389
653.78335	0.42603
651.85479	0.69191
649.92622	0.58333
647.99766	0.30793
646.06909	0.12180
644.14053	0.06278
642.21196	0.18783
640.28340	0.49915
638.35483	0.54554
636.42627	0.34900
634.49771	0.28628
632.56914	0.24519
630.64058	0.20646
628.71201	0.24170
626.78345	0.28293
624.85488	0.26734
622.92632	0.25365
620.99775	0.24425
619.06919	0.24657
617.14062	0.25704
615.21206	0.22355
613.28350	0.20590
611.35493	0.24157
609.42637	0.25796
607.49780	0.24570
605.56924	0.27078
603.64067	0.30397
601.71211	0.31477
599.78354	0.36513
597.85498	0.44002
595.92642	0.40215
593.99785	0.29978
592.06929	0.26071
590.14072	0.28225
588.21216	0.29757
586.28359	0.25304
584.35503	0.21343
582.42646	0.24975
580.49790	0.33397
578.56934	0.38865
576.64077	0.37325
574.71221	0.33005
572.78364	0.27641
570.85508	0.23220
568.92651	0.23708
566.99795	0.27060
565.06938	0.29692
563.14082	0.32534
561.21226	0.37005
559.28369	0.36011
557.35513	0.28217
555.42656	0.25332
553.49800	0.33015
551.56943	0.39578
549.64087	0.39323
547.71230	0.29741
545.78374	0.16355
543.85518	0.08194
541.92661	0.08083
539.99805	0.12172
538.06948	0.17157
536.14092	0.21098
534.21235	0.21480
532.28379	0.19233
530.35522	0.19081
528.42666	0.21637
526.49810	0.20109
524.56953	0.15604
522.64097	0.13829
520.71240	0.12698
518.78384	0.11992
516.85527	0.16515
514.92671	0.31101
512.99814	0.50300
511.06958	0.39589
509.14102	0.29151
507.21245	0.25426
505.28389	0.21493
503.35532	0.18469
501.42676	0.18286
499.49819	0.18276
