3997.91411	0.07136
3995.98555	0.07176
3994.05698	0.07199
3992.12842	0.07240
3990.19985	0.07297
3988.27129	0.07341
3986.34272	0.07364
3984.41416	0.07375
3982.48560	0.07394
3980.55703	0.07435
3978.62847	0.07458
3976.69990	0.07447
3974.77134	0.07470
3972.84277	0.07532
3970.91421	0.07548
3968.98564	0.07504
3967.05708	0.07468
3965.12852	0.07488
3963.19995	0.07559
3961.27139	0.07618
3959.34282	0.07626
3957.41426	0.07613
3955.48569	0.07610
3953.55713	0.07608
3951.62856	0.07608
3949.70000	0.07605
3947.77144	0.07600
3945.84287	0.07605
3943.91431	0.07600
3941.98574	0.07599
3940.05718	0.07630
3938.12861	0.07630
3936.20005	0.07555
3934.27148	0.07490
3932.34292	0.07485
3930.41436	0.07499
3928.48579	0.07520
3926.55723	0.07551
3924.62866	0.07590
3922.70010	0.07615
3920.77153	0.07592
3918.84297	0.07549
3916.91440	0.07533
3914.98584	0.07534
3913.05728	0.07506
3911.12871	0.07460
3909.20015	0.07443
3907.27158	0.07445
3905.34302	0.07450
3903.41445	0.07493
3901.48589	0.07561
3899.55732	0.07604
3897.62876	0.07605
3895.70020	0.07566
3893.77163	0.07531
3891.84307	0.07532
3889.91450	0.07571
3887.98594	0.07602
3886.05737	0.07649
3884.12881	0.07723
3882.20024	0.07738
3880.27168	0.07709
3878.34312	0.07686
3876.41455	0.07638
3874.48599	0.07584
3872.55742	0.07573
3870.62886	0.07617
3868.70029	0.07715
3866.77173	0.07790
3864.84316	0.07797
3862.91460	0.07786
3860.98604	0.07802
3859.05747	0.07845
3857.12891	0.07912
3855.20034	0.07998
3853.27178	0.08068
3851.34321	0.08071
3849.41465	0.08051
3847.48608	0.08077
3845.55752	0.08132
3843.62896	0.08175
3841.70039	0.08204
3839.77183	0.08284
3837.84326	0.08433
3835.91470	0.08562
3833.98613	0.08650
3832.05757	0.08711
3830.12900	0.08724
3828.20044	0.08718
3826.27187	0.08759
3824.34331	0.08854
3822.41475	0.08965
3820.48618	0.09080
3818.55762	0.09139
3816.62905	0.09167
3814.70049	0.09249
3812.77192	0.09340
3810.84336	0.09418
3808.91479	0.09520
3806.98623	0.09664
3805.05767	0.09804
3803.12910	0.09879
3801.20054	0.09993
3799.27197	0.10174
3797.34341	0.10269
3795.41484	0.10363
3793.48628	0.10505
3791.55771	0.10605
3789.62915	0.10706
3787.70059	0.10866
3785.77202	0.11032
3783.84346	0.11155
3781.91489	0.11243
3779.98633	0.11363
3778.05776	0.11578
3776.12920	0.11797
3774.20063	0.11952
3772.27207	0.12086
3770.34351	0.12243
3768.41494	0.12433
3766.48638	0.12624
3764.55781	0.12831
3762.62925	0.13022
3760.70068	0.13196
3758.77212	0.13442
3756.84355	0.13732
3754.91499	0.13940
3752.98643	0.14101
3751.05786	0.14368
3749.12930	0.14777
3747.20073	0.15053
3745.27217	0.15190
3743.34360	0.15431
3741.41504	0.15792
3739.48647	0.16098
3737.55791	0.16360
3735.62935	0.16649
3733.70078	0.17045
3731.77222	0.17481
3729.84365	0.17850
3727.91509	0.18206
3725.98652	0.18696
3724.05796	0.19390
3722.12939	0.20239
3720.20083	0.21180
3718.27227	0.22114
3716.34370	0.23010
3714.41514	0.23853
3712.48657	0.24728
3710.55801	0.25854
3708.62944	0.27118
3706.70088	0.28253
3704.77231	0.29391
3702.84375	0.30729
3700.91519	0.32457
3698.98662	0.34386
3697.05806	0.36241
3695.12949	0.38173
3693.20093	0.40160
3691.27236	0.42273
3689.34380	0.45136
3687.41523	0.48847
3685.48667	0.52080
3683.55811	0.54794
3681.62954	0.57693
3679.70098	0.60934
3677.77241	0.64318
3675.84385	0.68302
3673.91528	0.73699
3671.98672	0.78140
3670.05815	0.82011
3668.12959	0.87378
3666.20103	0.92389
3664.27246	0.96562
3662.34390	1.00998
3660.41533	1.05789
3658.48677	1.10472
3656.55820	1.15400
3654.62964	1.20953
3652.70107	1.25650
3650.77251	1.29662
3648.84395	1.35236
3646.91538	1.42253
3644.98682	1.47432
3643.05825	1.51401
3641.12969	1.55438
3639.20112	1.59859
3637.27256	1.64333
3635.34399	1.68668
3633.41543	1.72920
3631.48687	1.76837
3629.55830	1.80795
3627.62974	1.86207
3625.70117	1.91468
3623.77261	1.94970
3621.84404	1.98240
3619.91548	2.02019
3617.98691	2.06663
3616.05835	2.11184
3614.12979	2.14991
3612.20122	2.19018
3610.27266	2.23024
3608.34409	2.26996
3606.41553	2.31276
3604.48696	2.35214
3602.55840	2.38601
3600.62983	2.42341
3598.70127	2.46545
3596.77271	2.50509
3594.84414	2.54470
3592.91558	2.58808
3590.98701	2.62969
3589.05845	2.66636
3587.12988	2.70874
3585.20132	2.75745
3583.27275	2.79979
3581.34419	2.83813
3579.41562	2.87925
3577.48706	2.92263
3575.55850	2.96488
3573.62993	3.00705
3571.70137	3.04832
3569.77280	3.08835
3567.84424	3.13118
3565.91567	3.18372
3563.98711	3.23465
3562.05854	3.27596
3560.12998	3.31779
3558.20142	3.36267
3556.27285	3.40756
3554.34429	3.45137
3552.41572	3.49813
3550.48716	3.54591
3548.55859	3.58935
3546.63003	3.63219
3544.70146	3.68125
3542.77290	3.73132
3540.84434	3.77677
3538.91577	3.82180
3536.98721	3.86713
3535.05864	3.91407
3533.13008	3.96292
3531.20151	4.01414
3529.27295	4.06648
3527.34438	4.11458
3525.41582	4.15665
3523.48726	4.19956
3521.55869	4.24904
3519.63013	4.29780
3517.70156	4.34303
3515.77300	4.38960
3513.84443	4.43898
3511.91587	4.48909
3509.98730	4.53992
3508.05874	4.59252
3506.13018	4.64184
3504.20161	4.68725
3502.27305	4.73501
3500.34448	4.78354
3498.41592	4.82839
3496.48735	4.87521
3494.55879	4.92506
3492.63022	4.96730
3490.70166	5.00400
3488.77310	5.04850
3486.84453	5.10135
3484.91597	5.15539
3482.98740	5.20750
3481.05884	5.25842
3479.13027	5.31154
3477.20171	5.36835
3475.27314	5.42112
3473.34458	5.46247
3471.41602	5.49750
3469.48745	5.53990
3467.55889	5.59622
3465.63032	5.65620
3463.70176	5.71199
3461.77319	5.76023
3459.84463	5.80117
3457.91606	5.84203
3455.98750	5.89214
3454.05894	5.95740
3452.13037	6.02463
3450.20181	6.07453
3448.27324	6.11445
3446.34468	6.15688
3444.41611	6.18986
3442.48755	6.22992
3440.55898	6.29636
3438.63042	6.36220
3436.70186	6.40276
3434.77329	6.42474
3432.84473	6.45004
3430.91616	6.48907
3428.98760	6.53299
3427.05903	6.58337
3425.13047	6.64926
3423.20190	6.71691
3421.27334	6.77581
3419.34478	6.81868
3417.41621	6.86790
3415.48765	6.93388
3413.55908	6.99297
3411.63052	7.04894
3409.70195	7.08641
3407.77339	7.11742
3405.84482	7.16879
3403.91626	7.24162
3401.98770	7.31983
3400.05913	7.36500
3398.13057	7.38192
3396.20200	7.41800
3394.27344	7.45440
3392.34487	7.44702
3390.41631	7.44259
3388.48774	7.45224
3386.55918	7.47295
3384.63062	7.50285
3382.70205	7.54629
3380.77349	7.63231
3378.84492	7.72410
3376.91636	7.78890
3374.98779	7.82558
3373.05923	7.83424
3371.13066	7.79963
3369.20210	7.73392
3367.27354	7.67699
3365.34497	7.70068
3363.41641	7.83057
3361.48784	7.96052
3359.55928	7.98860
3357.63071	7.93896
3355.70215	7.90199
3353.77358	7.95585
3351.84502	8.13083
3349.91646	8.23578
3347.98789	8.14401
3346.05933	8.05547
3344.13076	8.03955
3342.20220	8.02633
3340.27363	8.05444
3338.34507	8.15476
3336.41650	8.18080
3334.48794	8.12594
3332.55937	8.08647
3330.63081	8.08035
3328.70225	8.09780
3326.77368	8.10035
3324.84512	8.07917
3322.91655	8.07925
3320.98799	8.14981
3319.05942	8.23414
3317.13086	8.25140
3315.20229	8.16730
3313.27373	8.08454
3311.34517	8.10680
3309.41660	8.19750
3307.48804	8.29500
3305.55947	8.33974
3303.63091	8.32152
3301.70234	8.26910
3299.77378	8.23678
3297.84521	8.26187
3295.91665	8.32151
3293.98809	8.31244
3292.05952	8.25668
3290.13096	8.31955
3288.20239	8.47788
3286.27383	8.56524
3284.34526	8.53982
3282.41670	8.51872
3280.48813	8.49912
3278.55957	8.35021
3276.63101	8.16665
3274.70244	8.14164
3272.77388	8.22185
3270.84531	8.27745
3268.91675	8.28754
3266.98818	8.20656
3265.05962	8.15681
3263.13105	8.26868
3261.20249	8.39326
3259.27393	8.39222
3257.34536	8.38451
3255.41680	8.34290
3253.48823	8.19173
3251.55967	8.06156
3249.63110	8.02597
3247.70254	8.08153
3245.77397	8.18166
3243.84541	8.23418
3241.91685	8.21813
3239.98828	8.20797
3238.05972	8.24886
3236.13115	8.27320
3234.20259	8.21024
3232.27402	8.14301
3230.34546	8.11147
3228.41689	8.06536
3226.48833	8.06072
3224.55977	8.11102
3222.63120	8.14272
3220.70264	8.16290
3218.77407	8.19772
3216.84551	8.18889
3214.91694	8.12122
3212.98838	8.08829
3211.05981	8.08059
3209.13125	8.00765
3207.20269	7.92392
3205.27412	7.89030
3203.34556	7.85843
3201.41699	7.82431
3199.48843	7.80125
3197.55986	7.75029
3195.63130	7.66349
3193.70273	7.59586
3191.77417	7.57555
3189.84561	7.55333
3187.91704	7.48247
3185.98848	7.38034
3184.05991	7.30229
3182.13135	7.25558
3180.20278	7.19989
3178.27422	7.14408
3176.34565	7.10742
3174.41709	7.07682
3172.48853	7.04975
3170.55996	7.02852
3168.63140	6.99168
3166.70283	6.89935
3164.77427	6.77683
3162.84570	6.68502
3160.91714	6.62545
3158.98857	6.58274
3157.06001	6.54662
3155.13145	6.48626
3153.20288	6.38775
3151.27432	6.28470
3149.34575	6.20166
3147.41719	6.13445
3145.48862	6.07797
3143.56006	6.02141
3141.63149	5.95403
3139.70293	5.87759
3137.77437	5.80740
3135.84580	5.74861
3133.91724	5.68356
3131.98867	5.59950
3130.06011	5.50941
3128.13154	5.43418
3126.20298	5.37377
3124.27441	5.31105
3122.34585	5.23795
3120.41729	5.16737
3118.48872	5.10454
3116.56016	5.03564
3114.63159	4.95970
3112.70303	4.88909
3110.77446	4.82167
3108.84590	4.75125
3106.91733	4.68396
3104.98877	4.62094
3103.06021	4.55429
3101.13164	4.48281
3099.20308	4.41522
3097.27451	4.35410
3095.34595	4.29214
3093.41738	4.22947
3091.48882	4.17074
3089.56025	4.11236
3087.63169	4.05002
3085.70312	3.98581
3083.77456	3.92283
3081.84600	3.86239
3079.91743	3.80352
3077.98887	3.74428
3076.06030	3.68589
3074.13174	3.62978
3072.20317	3.57430
3070.27461	3.51822
3068.34604	3.46193
3066.41748	3.40566
3064.48892	3.34970
3062.56035	3.29489
3060.63179	3.24205
3058.70322	3.19026
3056.77466	3.13832
3054.84609	3.08642
3052.91753	3.03497
3050.98896	2.98395
3049.06040	2.93336
3047.13184	2.88445
3045.20327	2.83770
3043.27471	2.79145
3041.34614	2.74485
3039.41758	2.69874
3037.48901	2.65344
3035.56045	2.60817
3033.63188	2.56333
3031.70332	2.51948
3029.77476	2.47600
3027.84619	2.43297
3025.91763	2.39108
3023.98906	2.34979
3022.06050	2.30855
3020.13193	2.26805
3018.20337	2.22864
3016.27480	2.18989
3014.34624	2.15171
3012.41768	2.11431
3010.48911	2.07730
3008.56055	2.04088
3006.63198	2.00566
3004.70342	1.97101
3002.77485	1.93659
3000.84629	1.90289
2998.91772	1.87001
2996.98916	1.83792
2995.06060	1.80660
2993.13203	1.77592
2991.20347	1.74595
2989.27490	1.71659
2987.34634	1.68772
2985.41777	1.65947
2983.48921	1.63184
2981.56064	1.60482
2979.63208	1.57820
2977.70352	1.55186
2975.77495	1.52617
2973.84639	1.50104
2971.91782	1.47631
2969.98926	1.45220
2968.06069	1.42841
2966.13213	1.40471
2964.20356	1.38108
2962.27500	1.35737
2960.34644	1.33384
2958.41787	1.31104
2956.48931	1.28871
2954.56074	1.26597
2952.63218	1.24296
2950.70361	1.22050
2948.77505	1.19828
2946.84648	1.17609
2944.91792	1.15460
2942.98936	1.13413
2941.06079	1.11446
2939.13223	1.09507
2937.20366	1.07595
2935.27510	1.05718
2933.34653	1.03835
2931.41797	1.01923
2929.48940	1.00016
2927.56084	0.98190
2925.63228	0.96442
2923.70371	0.94698
2921.77515	0.92945
2919.84658	0.91239
2917.91802	0.89604
2915.98945	0.87983
2914.06089	0.86349
2912.13232	0.84782
2910.20376	0.83300
2908.27520	0.81818
2906.34663	0.80355
2904.41807	0.78964
2902.48950	0.77605
2900.56094	0.76273
2898.63237	0.75002
2896.70381	0.73772
2894.77524	0.72526
2892.84668	0.71283
2890.91812	0.70098
2888.98955	0.68961
2887.06099	0.67859
2885.13242	0.66807
2883.20386	0.65803
2881.27529	0.64826
2879.34673	0.63865
2877.41816	0.62915
2875.48960	0.61961
2873.56104	0.60995
2871.63247	0.60019
2869.70391	0.59005
2867.77534	0.57927
2865.84678	0.56805
2863.91821	0.55691
2861.98965	0.54630
2860.06108	0.53630
2858.13252	0.52661
2856.20396	0.51708
2854.27539	0.50807
2852.34683	0.49961
2850.41826	0.49129
2848.48970	0.48309
2846.56113	0.47519
2844.63257	0.46780
2842.70400	0.46099
2840.77544	0.45450
2838.84687	0.44831
2836.91831	0.44261
2834.98975	0.43708
2833.06118	0.43128
2831.13262	0.42524
2829.20405	0.41914
2827.27549	0.41317
2825.34692	0.40738
2823.41836	0.40171
2821.48979	0.39603
2819.56123	0.39036
2817.63267	0.38474
2815.70410	0.37921
2813.77554	0.37386
2811.84697	0.36867
2809.91841	0.36348
2807.98984	0.35827
2806.06128	0.35307
2804.13271	0.34792
2802.20415	0.34288
2800.27559	0.33795
2798.34702	0.33320
2796.41846	0.32861
2794.48989	0.32413
2792.56133	0.31973
2790.63276	0.31541
2788.70420	0.31110
2786.77563	0.30687
2784.84707	0.30285
2782.91851	0.29886
2780.98994	0.29477
2779.06138	0.29078
2777.13281	0.28700
2775.20425	0.28332
2773.27568	0.27963
2771.34712	0.27604
2769.41855	0.27261
2767.48999	0.26925
2765.56143	0.26590
2763.63286	0.26258
2761.70430	0.25937
2759.77573	0.25634
2757.84717	0.25329
2755.91860	0.25006
2753.99004	0.24682
2752.06147	0.24381
2750.13291	0.24098
2748.20435	0.23817
2746.27578	0.23549
2744.34722	0.23291
2742.41865	0.23032
2740.49009	0.22774
2738.56152	0.22518
2736.63296	0.22266
2734.70439	0.22022
2732.77583	0.21781
2730.84727	0.21545
2728.91870	0.21317
2726.99014	0.21095
2725.06157	0.20879
2723.13301	0.20665
2721.20444	0.20461
2719.27588	0.20274
2717.34731	0.20086
2715.41875	0.19893
2713.49019	0.19710
2711.56162	0.19536
2709.63306	0.19363
2707.70449	0.19191
2705.77593	0.19035
2703.84736	0.18891
2701.91880	0.18746
2699.99023	0.18595
2698.06167	0.18435
2696.13311	0.18282
2694.20454	0.18148
2692.27598	0.18011
2690.34741	0.17871
2688.41885	0.17755
2686.49028	0.17651
2684.56172	0.17531
2682.63315	0.17402
2680.70459	0.17278
2678.77603	0.17158
2676.84746	0.17045
2674.91890	0.16943
2672.99033	0.16850
2671.06177	0.16767
2669.13320	0.16681
2667.20464	0.16577
2665.27607	0.16469
2663.34751	0.16378
2661.41895	0.16301
2659.49038	0.16228
2657.56182	0.16158
2655.63325	0.16086
2653.70469	0.16006
2651.77612	0.15921
2649.84756	0.15840
2647.91899	0.15773
2645.99043	0.15716
2644.06187	0.15668
2642.13330	0.15623
2640.20474	0.15578
2638.27617	0.15529
2636.34761	0.15473
2634.41904	0.15421
2632.49048	0.15387
2630.56191	0.15356
2628.63335	0.15310
2626.70479	0.15259
2624.77622	0.15217
2622.84766	0.15187
2620.91909	0.15165
2618.99053	0.15154
2617.06196	0.15136
2615.13340	0.15102
2613.20483	0.15072
2611.27627	0.15059
2609.34771	0.15057
2607.41914	0.15044
2605.49058	0.15017
2603.56201	0.15002
2601.63345	0.15003
2599.70488	0.15001
2597.77632	0.15004
2595.84775	0.15015
2593.91919	0.15028
2591.99062	0.15054
2590.06206	0.15083
2588.13350	0.15082
2586.20493	0.15069
2584.27637	0.15075
2582.34780	0.15101
2580.41924	0.15129
2578.49067	0.15153
2576.56211	0.15179
2574.63354	0.15209
2572.70498	0.15238
2570.77642	0.15255
2568.84785	0.15268
2566.91929	0.15302
2564.99072	0.15357
2563.06216	0.15409
2561.13359	0.15454
2559.20503	0.15493
2557.27646	0.15529
2555.34790	0.15567
2553.41934	0.15613
2551.49077	0.15663
2549.56221	0.15713
2547.63364	0.15770
2545.70508	0.15832
2543.77651	0.15887
2541.84795	0.15940
2539.91938	0.15998
2537.99082	0.16066
2536.06226	0.16134
2534.13369	0.16205
2532.20513	0.16279
2530.27656	0.16343
2528.34800	0.16399
2526.41943	0.16457
2524.49087	0.16509
2522.56230	0.16559
2520.63374	0.16628
2518.70518	0.16710
2516.77661	0.16788
2514.84805	0.16862
2512.91948	0.16934
2510.99092	0.17000
2509.06235	0.17069
2507.13379	0.17151
2505.20522	0.17242
2503.27666	0.17327
2501.34810	0.17407
2499.41953	0.17488
2497.49097	0.17565
2495.56240	0.17639
2493.63384	0.17717
2491.70527	0.17805
2489.77671	0.17896
2487.84814	0.17969
2485.91958	0.18035
2483.99102	0.18120
2482.06245	0.18220
2480.13389	0.18307
2478.20532	0.18378
2476.27676	0.18446
2474.34819	0.18528
2472.41963	0.18630
2470.49106	0.18730
2468.56250	0.18811
2466.63394	0.18888
2464.70537	0.18985
2462.77681	0.19094
2460.84824	0.19190
2458.91968	0.19267
2456.99111	0.19343
2455.06255	0.19437
2453.13398	0.19549
2451.20542	0.19661
2449.27686	0.19752
2447.34829	0.19831
2445.41973	0.19917
2443.49116	0.20016
2441.56260	0.20116
2439.63403	0.20212
2437.70547	0.20314
2435.77690	0.20413
2433.84834	0.20510
2431.91978	0.20614
2429.99121	0.20720
2428.06265	0.20818
2426.13408	0.20922
2424.20552	0.21028
2422.27695	0.21127
2420.34839	0.21227
2418.41982	0.21334
2416.49126	0.21447
2414.56270	0.21570
2412.63413	0.21697
2410.70557	0.21812
2408.77700	0.21912
2406.84844	0.22018
2404.91987	0.22137
2402.99131	0.22252
2401.06274	0.22355
2399.13418	0.22461
2397.20562	0.22589
2395.27705	0.22731
2393.34849	0.22864
2391.41992	0.22976
2389.49136	0.23067
2387.56279	0.23119
2385.63423	0.23083
2383.70566	0.22918
2381.77710	0.22619
2379.84854	0.22210
2377.91997	0.21730
2375.99141	0.21168
2374.06284	0.20468
2372.13428	0.19603
2370.20571	0.18635
2368.27715	0.17713
2366.34858	0.16920
2364.42002	0.16200
2362.49146	0.15628
2360.56289	0.15362
2358.63433	0.15482
2356.70576	0.16172
2354.77720	0.17404
2352.84863	0.18860
2350.92007	0.20239
2348.99150	0.21087
2347.06294	0.21163
2345.13437	0.20585
2343.20581	0.19906
2341.27725	0.19721
2339.34868	0.19916
2337.42012	0.20205
2335.49155	0.20511
2333.56299	0.20844
2331.63442	0.21173
2329.70586	0.21522
2327.77729	0.21969
2325.84873	0.22494
2323.92017	0.23042
2321.99160	0.23613
2320.06304	0.24232
2318.13447	0.24894
2316.20591	0.25505
2314.27734	0.25980
2312.34878	0.26346
2310.42021	0.26715
2308.49165	0.27145
2306.56309	0.27612
2304.63452	0.28067
2302.70596	0.28461
2300.77739	0.28796
2298.84883	0.29120
2296.92026	0.29447
2294.99170	0.29760
2293.06313	0.30065
2291.13457	0.30377
2289.20601	0.30696
2287.27744	0.31011
2285.34888	0.31312
2283.42031	0.31583
2281.49175	0.31801
2279.56318	0.31972
2277.63462	0.32130
2275.70605	0.32304
2273.77749	0.32500
2271.84893	0.32703
2269.92036	0.32907
2267.99180	0.33113
2266.06323	0.33322
2264.13467	0.33537
2262.20610	0.33769
2260.27754	0.34011
2258.34897	0.34252
2256.42041	0.34484
2254.49185	0.34710
2252.56328	0.34931
2250.63472	0.35155
2248.70615	0.35392
2246.77759	0.35636
2244.84902	0.35869
2242.92046	0.36087
2240.99189	0.36296
2239.06333	0.36508
2237.13477	0.36730
2235.20620	0.36961
2233.27764	0.37193
2231.34907	0.37419
2229.42051	0.37634
2227.49194	0.37845
2225.56338	0.38069
2223.63481	0.38302
2221.70625	0.38522
2219.77769	0.38727
2217.84912	0.38937
2215.92056	0.39159
2213.99199	0.39376
2212.06343	0.39581
2210.13486	0.39785
2208.20630	0.39996
2206.27773	0.40212
2204.34917	0.40420
2202.42061	0.40616
2200.49204	0.40810
2198.56348	0.41011
2196.63491	0.41213
2194.70635	0.41413
2192.77778	0.41597
2190.84922	0.41769
2188.92065	0.41951
2186.99209	0.42139
2185.06353	0.42325
2183.13496	0.42509
2181.20640	0.42682
2179.27783	0.42833
2177.34927	0.42979
2175.42070	0.43138
2173.49214	0.43299
2171.56357	0.43444
2169.63501	0.43582
2167.70645	0.43724
2165.77788	0.43855
2163.84932	0.43971
2161.92075	0.44081
2159.99219	0.44191
2158.06362	0.44296
2156.13506	0.44395
2154.20649	0.44487
2152.27793	0.44570
2150.34937	0.44652
2148.42080	0.44736
2146.49224	0.44811
2144.56367	0.44869
2142.63511	0.44922
2140.70654	0.44967
2138.77798	0.44998
2136.84941	0.45015
2134.92085	0.45023
2132.99229	0.45030
2131.06372	0.45032
2129.13516	0.45028
2127.20659	0.45011
2125.27803	0.44978
2123.34946	0.44946
2121.42090	0.44919
2119.49233	0.44875
2117.56377	0.44806
2115.63521	0.44734
2113.70664	0.44669
2111.77808	0.44606
2109.84951	0.44539
2107.92095	0.44456
2105.99238	0.44350
2104.06382	0.44230
2102.13525	0.44116
2100.20669	0.44011
2098.27812	0.43897
2096.34956	0.43766
2094.42100	0.43618
2092.49243	0.43460
2090.56387	0.43304
2088.63530	0.43144
2086.70674	0.42973
2084.77817	0.42794
2082.84961	0.42614
2080.92104	0.42425
2078.99248	0.42230
2077.06392	0.42036
2075.13535	0.41842
2073.20679	0.41640
2071.27822	0.41427
2069.34966	0.41208
2067.42109	0.40991
2065.49253	0.40776
2063.56396	0.40550
2061.63540	0.40313
2059.70684	0.40076
2057.77827	0.39836
2055.84971	0.39592
2053.92114	0.39357
2051.99258	0.39128
2050.06401	0.38882
2048.13545	0.38620
2046.20688	0.38353
2044.27832	0.38089
2042.34976	0.37826
2040.42119	0.37561
2038.49263	0.37296
2036.56406	0.37037
2034.63550	0.36769
2032.70693	0.36489
2030.77837	0.36221
2028.84980	0.35964
2026.92124	0.35694
2024.99268	0.35419
2023.06411	0.35158
2021.13555	0.34897
2019.20698	0.34632
2017.27842	0.34361
2015.34985	0.34081
2013.42129	0.33805
2011.49272	0.33540
2009.56416	0.33283
2007.63560	0.33020
2005.70703	0.32751
2003.77847	0.32485
2001.84990	0.32225
1999.92134	0.31974
1997.99277	0.31726
1996.06421	0.31475
1994.13564	0.31227
1992.20708	0.30983
1990.27852	0.30737
1988.34995	0.30490
1986.42139	0.30245
1984.49282	0.30001
1982.56426	0.29758
1980.63569	0.29516
1978.70713	0.29278
1976.77856	0.29046
1974.85000	0.28835
1972.92144	0.28627
1970.99287	0.28410
1969.06431	0.28197
1967.13574	0.27993
1965.20718	0.27792
1963.27861	0.27599
1961.35005	0.27407
1959.42148	0.27218
1957.49292	0.27044
1955.56436	0.26874
1953.63579	0.26694
1951.70723	0.26511
1949.77866	0.26340
1947.85010	0.26180
1945.92153	0.26021
1943.99297	0.25865
1942.06440	0.25712
1940.13584	0.25561
1938.20728	0.25416
1936.27871	0.25281
1934.35015	0.25151
1932.42158	0.25022
1930.49302	0.24892
1928.56445	0.24773
1926.63589	0.24668
1924.70732	0.24573
1922.77876	0.24481
1920.85020	0.24389
1918.92163	0.24296
1916.99307	0.24203
1915.06450	0.24114
1913.13594	0.24029
1911.20737	0.23945
1909.27881	0.23866
1907.35024	0.23801
1905.42168	0.23741
1903.49312	0.23676
1901.56455	0.23611
1899.63599	0.23548
1897.70742	0.23495
1895.77886	0.23452
1893.85029	0.23410
1891.92173	0.23370
1889.99316	0.23350
1888.06460	0.23332
1886.13604	0.23307
1884.20747	0.23285
1882.27891	0.23263
1880.35034	0.23242
1878.42178	0.23229
1876.49321	0.23228
1874.56465	0.23228
1872.63608	0.23228
1870.70752	0.23229
1868.77896	0.23261
1866.85039	0.23305
1864.92183	0.23315
1862.99326	0.23319
1861.06470	0.23340
1859.13613	0.23376
1857.20757	0.23406
1855.27900	0.23440
1853.35044	0.23481
1851.42187	0.23528
1849.49331	0.23574
1847.56475	0.23623
1845.63618	0.23687
1843.70762	0.23783
1841.77905	0.23875
1839.85049	0.23932
1837.92192	0.24008
1835.99336	0.24099
1834.06479	0.24190
1832.13623	0.24281
1830.20767	0.24402
1828.27910	0.24544
1826.35054	0.24657
1824.42197	0.24785
1822.49341	0.24923
1820.56484	0.25057
1818.63628	0.25191
1816.70771	0.25340
1814.77915	0.25495
1812.85059	0.25663
1810.92202	0.25864
1808.99346	0.26079
1807.06489	0.26272
1805.13633	0.26442
1803.20776	0.26636
1801.27920	0.26872
1799.35063	0.27150
1797.42207	0.27397
1795.49351	0.27618
1793.56494	0.27872
1791.63638	0.28221
1789.70781	0.28587
1787.77925	0.28872
1785.85068	0.29188
1783.92212	0.29555
1781.99355	0.29942
1780.06499	0.30343
1778.13643	0.30758
1776.20786	0.31143
1774.27930	0.31537
1772.35073	0.32075
1770.42217	0.32705
1768.49360	0.33257
1766.56504	0.33779
1764.63647	0.34311
1762.70791	0.34881
1760.77935	0.35608
1758.85078	0.36307
1756.92222	0.37007
1754.99365	0.37763
1753.06509	0.38434
1751.13652	0.39219
1749.20796	0.40244
1747.27939	0.41305
1745.35083	0.42231
1743.42227	0.43173
1741.49370	0.44200
1739.56514	0.45434
1737.63657	0.46679
1735.70801	0.47736
1733.77944	0.49313
1731.85088	0.51268
1729.92231	0.52847
1727.99375	0.54421
1726.06519	0.56070
1724.13662	0.57851
1722.20806	0.59798
1720.27949	0.61607
1718.35093	0.63706
1716.42236	0.66830
1714.49380	0.69871
1712.56523	0.72373
1710.63667	0.74779
1708.70811	0.77327
1706.77954	0.80201
1704.85098	0.83669
1702.92241	0.86793
1700.99385	0.89871
1699.06528	0.94485
1697.13672	0.98798
1695.20815	1.03285
1693.27959	1.07660
1691.35103	1.11162
1689.42246	1.15178
1687.49390	1.19402
1685.56533	1.23440
1683.63677	1.29787
1681.70820	1.36570
1679.77964	1.40917
1677.85107	1.45005
1675.92251	1.49714
1673.99395	1.55584
1672.06538	1.60812
1670.13682	1.65957
1668.20825	1.72773
1666.27969	1.78349
1664.35112	1.83017
1662.42256	1.88917
1660.49399	1.95734
1658.56543	2.01100
1656.63687	2.05376
1654.70830	2.09257
1652.77974	2.15223
1650.85117	2.20720
1648.92261	2.22637
1646.99404	2.25300
1645.06548	2.28478
1643.13691	2.30524
1641.20835	2.31539
1639.27979	2.32488
1637.35122	2.33219
1635.42266	2.33186
1633.49409	2.32080
1631.56553	2.30473
1629.63696	2.28719
1627.70840	2.25875
1625.77983	2.22528
1623.85127	2.18286
1621.92271	2.12982
1619.99414	2.08260
1618.06558	2.03781
1616.13701	1.97327
1614.20845	1.90573
1612.27988	1.85451
1610.35132	1.80216
1608.42275	1.74567
1606.49419	1.68977
1604.56562	1.63818
1602.63706	1.58847
1600.70850	1.54025
1598.77993	1.49586
1596.85137	1.45352
1594.92280	1.41224
1592.99424	1.37310
1591.06567	1.33766
1589.13711	1.30434
1587.20854	1.27324
1585.27998	1.24450
1583.35142	1.21771
1581.42285	1.19338
1579.49429	1.17286
1577.56572	1.15481
1575.63716	1.13316
1573.70859	1.11439
1571.78003	1.10257
1569.85146	1.09065
1567.92290	1.07745
1565.99434	1.06775
1564.06577	1.06100
1562.13721	1.05645
1560.20864	1.05428
1558.28008	1.05307
1556.35151	1.05244
1554.42295	1.05260
1552.49438	1.05290
1550.56582	1.05169
1548.63726	1.04827
1546.70869	1.04261
1544.78013	1.03376
1542.85156	1.02177
1540.92300	1.00511
1538.99443	0.97932
1537.06587	0.95994
1535.13730	0.94634
1533.20874	0.92807
1531.28018	0.90864
1529.35161	0.89467
1527.42305	0.88165
1525.49448	0.86822
1523.56592	0.85660
1521.63735	0.84563
1519.70879	0.83491
1517.78022	0.82572
1515.85166	0.81490
1513.92310	0.80366
1511.99453	0.79369
1510.06597	0.78414
1508.13740	0.77473
1506.20884	0.76127
1504.28027	0.75008
1502.35171	0.74372
1500.42314	0.73801
1498.49458	0.73188
1496.56602	0.72469
1494.63745	0.71752
1492.70889	0.71187
1490.78032	0.70691
1488.85176	0.70146
1486.92319	0.69639
1484.99463	0.69240
1483.06606	0.68932
1481.13750	0.68673
1479.20894	0.68463
1477.28037	0.68325
1475.35181	0.68250
1473.42324	0.68206
1471.49468	0.68096
1469.56611	0.67912
1467.63755	0.67712
1465.70898	0.67522
1463.78042	0.67363
1461.85186	0.67252
1459.92329	0.67183
1457.99473	0.67145
1456.06616	0.67088
1454.13760	0.66912
1452.20903	0.66679
1450.28047	0.66431
1448.35190	0.66174
1446.42334	0.65900
1444.49478	0.65654
1442.56621	0.65430
1440.63765	0.65191
1438.70908	0.64927
1436.78052	0.64585
1434.85195	0.64214
1432.92339	0.63948
1430.99482	0.63768
1429.06626	0.63656
1427.13770	0.63604
1425.20913	0.63589
1423.28057	0.63611
1421.35200	0.63644
1419.42344	0.63660
1417.49487	0.63644
1415.56631	0.63562
1413.63774	0.63472
1411.70918	0.63441
1409.78062	0.63497
1407.85205	0.63608
1405.92349	0.63735
1403.99492	0.63846
1402.06636	0.63883
1400.13779	0.63840
1398.20923	0.63719
1396.28066	0.63504
1394.35210	0.63182
1392.42354	0.62806
1390.49497	0.62446
1388.56641	0.62081
1386.63784	0.61653
1384.70928	0.61187
1382.78071	0.60751
1380.85215	0.60354
1378.92358	0.60008
1376.99502	0.59729
1375.06646	0.59521
1373.13789	0.59382
1371.20933	0.59296
1369.28076	0.59218
1367.35220	0.59103
1365.42363	0.58951
1363.49507	0.58797
1361.56650	0.58660
1359.63794	0.58531
1357.70937	0.58410
1355.78081	0.58298
1353.85225	0.58204
1351.92368	0.58135
1349.99512	0.58077
1348.06655	0.58003
1346.13799	0.57914
1344.20942	0.57819
1342.28086	0.57729
1340.35229	0.57669
1338.42373	0.57633
1336.49517	0.57587
1334.56660	0.57534
1332.63804	0.57502
1330.70947	0.57503
1328.78091	0.57540
1326.85234	0.57597
1324.92378	0.57662
1322.99521	0.57724
1321.06665	0.57763
1319.13809	0.57772
1317.20952	0.57761
1315.28096	0.57753
1313.35239	0.57739
1311.42383	0.57700
1309.49526	0.57653
1307.56670	0.57612
1305.63813	0.57565
1303.70957	0.57512
1301.78101	0.57449
1299.85244	0.57370
1297.92388	0.57283
1295.99531	0.57181
1294.06675	0.57062
1292.13818	0.56946
1290.20962	0.56840
1288.28105	0.56734
1286.35249	0.56617
1284.42393	0.56494
1282.49536	0.56374
1280.56680	0.56257
1278.63823	0.56141
1276.70967	0.56033
1274.78110	0.55941
1272.85254	0.55870
1270.92397	0.55808
1268.99541	0.55738
1267.06685	0.55669
1265.13828	0.55603
1263.20972	0.55536
1261.28115	0.55467
1259.35259	0.55398
1257.42402	0.55336
1255.49546	0.55296
1253.56689	0.55289
1251.63833	0.55303
1249.70977	0.55323
1247.78120	0.55328
1245.85264	0.55306
1243.92407	0.55256
1241.99551	0.55182
1240.06694	0.55072
1238.13838	0.54919
1236.20981	0.54746
1234.28125	0.54561
1232.35269	0.54375
1230.42412	0.54197
1228.49556	0.54020
1226.56699	0.53849
1224.63843	0.53697
1222.70986	0.53551
1220.78130	0.53411
1218.85273	0.53286
1216.92417	0.53172
1214.99561	0.53068
1213.06704	0.52979
1211.13848	0.52902
1209.20991	0.52828
1207.28135	0.52753
1205.35278	0.52665
1203.42422	0.52565
1201.49565	0.52480
1199.56709	0.52414
1197.63853	0.52357
1195.70996	0.52312
1193.78140	0.52274
1191.85283	0.52226
1189.92427	0.52176
1187.99570	0.52150
1186.06714	0.52141
1184.13857	0.52151
1182.21001	0.52202
1180.28145	0.52285
1178.35288	0.52382
1176.42432	0.52494
1174.49575	0.52601
1172.56719	0.52678
1170.63862	0.52724
1168.71006	0.52740
1166.78149	0.52732
1164.85293	0.52713
1162.92437	0.52687
1160.99580	0.52648
1159.06724	0.52596
1157.13867	0.52539
1155.21011	0.52472
1153.28154	0.52357
1151.35298	0.52183
1149.42441	0.51964
1147.49585	0.51718
1145.56729	0.51466
1143.63872	0.51219
1141.71016	0.50977
1139.78159	0.50783
1137.85303	0.50656
1135.92446	0.50548
1133.99590	0.50437
1132.06733	0.50332
1130.13877	0.50241
1128.21021	0.50166
1126.28164	0.50103
1124.35308	0.50039
1122.42451	0.49975
1120.49595	0.49929
1118.56738	0.49910
1116.63882	0.49917
1114.71025	0.49937
1112.78169	0.49952
1110.85312	0.49983
1108.92456	0.50061
1106.99600	0.50172
1105.06743	0.50290
1103.13887	0.50427
1101.21030	0.50587
1099.28174	0.50754
1097.35317	0.50954
1095.42461	0.51230
1093.49604	0.51590
1091.56748	0.52025
1089.63892	0.52523
1087.71035	0.53102
1085.78179	0.53784
1083.85322	0.54515
1081.92466	0.55189
1079.99609	0.55708
1078.06753	0.55993
1076.13896	0.56002
1074.21040	0.55758
1072.28184	0.55310
1070.35327	0.54710
1068.42471	0.54030
1066.49614	0.53346
1064.56758	0.52704
1062.63901	0.52129
1060.71045	0.51634
1058.78188	0.51203
1056.85332	0.50822
1054.92476	0.50493
1052.99619	0.50209
1051.06763	0.49962
1049.13906	0.49739
1047.21050	0.49547
1045.28193	0.49397
1043.35337	0.49279
1041.42480	0.49189
1039.49624	0.49107
1037.56768	0.49027
1035.63911	0.48977
1033.71055	0.48956
1031.78198	0.48926
1029.85342	0.48871
1027.92485	0.48807
1025.99629	0.48759
1024.06772	0.48744
1022.13916	0.48763
1020.21060	0.48791
1018.28203	0.48812
1016.35347	0.48857
1014.42490	0.48932
1012.49634	0.49004
1010.56777	0.49070
1008.63921	0.49150
1006.71064	0.49267
1004.78208	0.49426
1002.85352	0.49626
1000.92495	0.49884
998.99639	0.50212
997.06782	0.50593
995.13926	0.50993
993.21069	0.51385
991.28213	0.51734
989.35356	0.51978
987.42500	0.52096
985.49644	0.52147
983.56787	0.52191
981.63931	0.52261
979.71074	0.52365
977.78218	0.52501
975.85361	0.52692
973.92505	0.52934
971.99648	0.53212
970.06792	0.53549
968.13936	0.53941
966.21079	0.54351
964.28223	0.54770
962.35366	0.55214
960.42510	0.55682
958.49653	0.56160
956.56797	0.56689
954.63940	0.57297
952.71084	0.57942
950.78228	0.58584
948.85371	0.59209
946.92515	0.59819
944.99658	0.60447
943.06802	0.61091
941.13945	0.61695
939.21089	0.62266
937.28232	0.62861
935.35376	0.63450
933.42520	0.63982
931.49663	0.64488
929.56807	0.65033
927.63950	0.65618
925.71094	0.66201
923.78237	0.66797
921.85381	0.67431
919.92524	0.68070
917.99668	0.68709
916.06812	0.69394
914.13955	0.70128
912.21099	0.70911
910.28242	0.71764
908.35386	0.72602
906.42529	0.73360
904.49673	0.74177
902.56816	0.75141
900.63960	0.76139
898.71104	0.77057
896.78247	0.77912
894.85391	0.78809
892.92534	0.79735
890.99678	0.80647
889.06821	0.81698
887.13965	0.82955
885.21108	0.84324
883.28252	0.85638
881.35396	0.86705
879.42539	0.87696
877.49683	0.88847
875.56826	0.89970
873.63970	0.90942
871.71113	0.91951
869.78257	0.93112
867.85400	0.94365
865.92544	0.95615
863.99687	0.96852
862.06831	0.98058
860.13975	0.99148
858.21118	1.00201
856.28262	1.01345
854.35405	1.02475
852.42549	1.03402
850.49692	1.04276
848.56836	1.05433
846.63979	1.06845
844.71123	1.08284
842.78267	1.09583
840.85410	1.10675
838.92554	1.11735
836.99697	1.13009
835.06841	1.14312
833.13984	1.15368
831.21128	1.16408
829.28271	1.17465
827.35415	1.18524
825.42559	1.20276
823.49702	1.22656
821.56846	1.23978
819.63989	1.23854
817.71133	1.23964
815.78276	1.25155
813.85420	1.27193
811.92563	1.29837
809.99707	1.32075
808.06851	1.32529
806.13994	1.32070
804.21138	1.32338
802.28281	1.33589
800.35425	1.34917
798.42568	1.36800
796.49712	1.41308
794.56855	1.47480
792.63999	1.52102
790.71143	1.53468
788.78286	1.53508
786.85430	1.55803
784.92573	1.59017
782.99717	1.59570
781.06860	1.58909
779.14004	1.63186
777.21147	1.77264
775.28291	1.86599
773.35435	1.76469
771.42578	1.75293
769.49722	1.83948
767.56865	1.82410
765.64009	1.78065
763.71152	1.65305
761.78296	1.47558
759.85439	1.40536
757.92583	1.42108
755.99727	1.47361
754.06870	1.61054
752.14014	1.54690
750.21157	1.43835
748.28301	1.50408
746.35444	1.60843
744.42588	1.50152
742.49731	1.40287
740.56875	1.21346
738.64019	0.98483
736.71162	0.82491
734.78306	0.75719
732.85449	0.76047
730.92593	0.80499
728.99736	0.90635
727.06880	1.10725
725.14023	0.99320
723.21167	0.62475
721.28311	0.35528
719.35454	0.16426
717.42598	0.04400
715.49741	-0.00078
713.56885	0.06288
711.64028	0.17233
709.71172	0.24723
707.78315	0.31837
705.85459	0.26992
703.92603	0.23992
701.99746	0.34748
700.06890	0.47303
698.14033	0.57035
696.21177	0.92361
694.28320	0.90583
692.35464	0.51916
690.42607	0.29530
688.49751	0.16503
686.56895	0.14260
684.64038	0.18691
682.71182	0.22995
680.78325	0.18761
678.85469	0.11849
676.92612	0.12622
674.99756	0.18777
673.06899	0.21804
671.14043	0.21504
669.21187	0.18153
667.28330	0.15652
665.35474	0.16880
663.42617	0.20933
661.49761	0.27970
659.56904	0.34232
657.64048	0.35859
655.71191	0.33507
653.78335	0.29210
651.85479	0.27586
649.92622	0.24863
647.99766	0.15565
646.06909	0.09634
644.14053	0.12588
642.21196	0.20927
640.28340	0.28171
638.35483	0.36812
636.42627	0.35561
634.49771	0.17013
632.56914	0.10593
630.64058	0.15365
628.71201	0.23691
626.78345	0.39263
624.85488	0.45546
622.92632	0.25610
620.99775	0.10874
619.06919	0.09535
617.14062	0.15704
615.21206	0.22784
613.28350	0.19617
611.35493	0.10686
609.42637	0.12711
607.49780	0.19624
605.56924	0.23500
603.64067	0.31228
601.71211	0.48424
599.78354	0.37366
597.85498	0.19455
595.92642	0.16143
593.99785	0.20859
592.06929	0.20308
590.14072	0.16098
588.21216	0.16366
586.28359	0.23479
584.35503	0.36375
582.42646	0.52373
580.49790	0.46619
578.56934	0.35974
576.64077	0.37168
574.71221	0.36119
572.78364	0.25217
570.85508	0.16495
568.92651	0.14065
566.99795	0.13139
565.06938	0.11342
563.14082	0.14286
561.21226	0.20184
559.28369	0.21770
557.35513	0.14966
555.42656	0.07735
553.49800	0.11453
551.56943	0.21614
549.64087	0.22116
547.71230	0.19035
545.78374	0.28271
543.85518	0.42378
541.92661	0.27187
539.99805	0.14690
538.06948	0.16582
536.14092	0.26164
534.21235	0.30880
532.28379	0.26905
530.35522	0.22435
528.42666	0.22536
526.49810	0.23558
524.56953	0.21059
522.64097	0.16947
520.71240	0.14344
518.78384	0.15061
516.85527	0.17094
514.92671	0.18388
512.99814	0.20586
511.06958	0.24160
509.14102	0.25514
507.21245	0.24343
505.28389	0.23080
503.35532	0.22440
501.42676	0.21523
499.49819	0.15889
