3997.91411	0.07516
3995.98555	0.07542
3994.05698	0.07587
3992.12842	0.07625
3990.19985	0.07674
3988.27129	0.07734
3986.34272	0.07760
3984.41416	0.07763
3982.48560	0.07786
3980.55703	0.07816
3978.62847	0.07828
3976.69990	0.07834
3974.77134	0.07827
3972.84277	0.07811
3970.91421	0.07818
3968.98564	0.07844
3967.05708	0.07874
3965.12852	0.07914
3963.19995	0.07949
3961.27139	0.07983
3959.34282	0.08019
3957.41426	0.08015
3955.48569	0.07972
3953.55713	0.07945
3951.62856	0.07938
3949.70000	0.07930
3947.77144	0.07929
3945.84287	0.07945
3943.91431	0.07975
3941.98574	0.08000
3940.05718	0.07987
3938.12861	0.07956
3936.20005	0.07946
3934.27148	0.07955
3932.34292	0.07972
3930.41436	0.07989
3928.48579	0.07986
3926.55723	0.07970
3924.62866	0.07976
3922.70010	0.07995
3920.77153	0.07998
3918.84297	0.07968
3916.91440	0.07931
3914.98584	0.07926
3913.05728	0.07903
3911.12871	0.07837
3909.20015	0.07805
3907.27158	0.07848
3905.34302	0.07924
3903.41445	0.08018
3901.48589	0.08098
3899.55732	0.08117
3897.62876	0.08078
3895.70020	0.08006
3893.77163	0.07980
3891.84307	0.08052
3889.91450	0.08117
3887.98594	0.08069
3886.05737	0.08032
3884.12881	0.08060
3882.20024	0.08085
3880.27168	0.08107
3878.34312	0.08121
3876.41455	0.08099
3874.48599	0.08089
3872.55742	0.08116
3870.62886	0.08170
3868.70029	0.08224
3866.77173	0.08241
3864.84316	0.08286
3862.91460	0.08354
3860.98604	0.08345
3859.05747	0.08308
3857.12891	0.08306
3855.20034	0.08334
3853.27178	0.08437
3851.34321	0.08590
3849.41465	0.08586
3847.48608	0.08544
3845.55752	0.08571
3843.62896	0.08670
3841.70039	0.08814
3839.77183	0.08929
3837.84326	0.08978
3835.91470	0.09012
3833.98613	0.09069
3832.05757	0.09128
3830.12900	0.09174
3828.20044	0.09198
3826.27187	0.09237
3824.34331	0.09326
3822.41475	0.09447
3820.48618	0.09631
3818.55762	0.09796
3816.62905	0.09853
3814.70049	0.09891
3812.77192	0.09897
3810.84336	0.09884
3808.91479	0.09942
3806.98623	0.10100
3805.05767	0.10265
3803.12910	0.10381
3801.20054	0.10569
3799.27197	0.10774
3797.34341	0.10850
3795.41484	0.10905
3793.48628	0.10968
3791.55771	0.11038
3789.62915	0.11147
3787.70059	0.11267
3785.77202	0.11384
3783.84346	0.11518
3781.91489	0.11668
3779.98633	0.11840
3778.05776	0.12041
3776.12920	0.12198
3774.20063	0.12328
3772.27207	0.12489
3770.34351	0.12696
3768.41494	0.12940
3766.48638	0.13155
3764.55781	0.13350
3762.62925	0.13541
3760.70068	0.13753
3758.77212	0.14040
3756.84355	0.14325
3754.91499	0.14519
3752.98643	0.14727
3751.05786	0.15088
3749.12930	0.15513
3747.20073	0.15727
3745.27217	0.15887
3743.34360	0.16217
3741.41504	0.16583
3739.48647	0.16877
3737.55791	0.17220
3735.62935	0.17701
3733.70078	0.18263
3731.77222	0.18691
3729.84365	0.19019
3727.91509	0.19386
3725.98652	0.19920
3724.05796	0.20596
3722.12939	0.21290
3720.20083	0.22055
3718.27227	0.22884
3716.34370	0.23697
3714.41514	0.24476
3712.48657	0.25380
3710.55801	0.26665
3708.62944	0.28114
3706.70088	0.29329
3704.77231	0.30455
3702.84375	0.31771
3700.91519	0.33483
3698.98662	0.35354
3697.05806	0.37124
3695.12949	0.38986
3693.20093	0.40976
3691.27236	0.43181
3689.34380	0.46032
3687.41523	0.49510
3685.48667	0.52592
3683.55811	0.55294
3681.62954	0.58179
3679.70098	0.61370
3677.77241	0.64686
3675.84385	0.68601
3673.91528	0.73948
3671.98672	0.78371
3670.05815	0.82283
3668.12959	0.87723
3666.20103	0.92713
3664.27246	0.96809
3662.34390	1.01169
3660.41533	1.05913
3658.48677	1.10608
3656.55820	1.15608
3654.62964	1.21199
3652.70107	1.25806
3650.77251	1.29695
3648.84395	1.35281
3646.91538	1.42443
3644.98682	1.47604
3643.05825	1.51463
3641.12969	1.55509
3639.20112	1.60049
3637.27256	1.64552
3635.34399	1.68853
3633.41543	1.73195
3631.48687	1.77337
3629.55830	1.81579
3627.62974	1.87082
3625.70117	1.92078
3623.77261	1.95373
3621.84404	1.98570
3619.91548	2.02308
3617.98691	2.06962
3616.05835	2.11535
3614.12979	2.15269
3612.20122	2.19129
3610.27266	2.23116
3608.34409	2.27160
3606.41553	2.31383
3604.48696	2.35287
3602.55840	2.38810
3600.62983	2.42633
3598.70127	2.46756
3596.77271	2.50766
3594.84414	2.54817
3592.91558	2.58978
3590.98701	2.62956
3589.05845	2.66656
3587.12988	2.71033
3585.20132	2.76013
3583.27275	2.80292
3581.34419	2.84159
3579.41562	2.88190
3577.48706	2.92328
3575.55850	2.96486
3573.62993	3.00838
3571.70137	3.05092
3569.77280	3.09043
3567.84424	3.13179
3565.91567	3.18428
3563.98711	3.23610
3562.05854	3.27703
3560.12998	3.31776
3558.20142	3.36133
3556.27285	3.40565
3554.34429	3.45024
3552.41572	3.49681
3550.48716	3.54314
3548.55859	3.58770
3546.63003	3.63419
3544.70146	3.68575
3542.77290	3.73648
3540.84434	3.78082
3538.91577	3.82358
3536.98721	3.86857
3535.05864	3.91561
3533.13008	3.96218
3531.20151	4.00931
3529.27295	4.05837
3527.34438	4.10914
3525.41582	4.15893
3523.48726	4.20765
3521.55869	4.25850
3519.63013	4.30755
3517.70156	4.35297
3515.77300	4.39801
3513.84443	4.44466
3511.91587	4.49066
3509.98730	4.53628
3508.05874	4.58344
3506.13018	4.63061
3504.20161	4.67711
3502.27305	4.72406
3500.34448	4.77252
3498.41592	4.81945
3496.48735	4.86691
3494.55879	4.91746
3492.63022	4.96209
3490.70166	5.00095
3488.77310	5.04578
3486.84453	5.09754
3484.91597	5.15313
3482.98740	5.21380
3481.05884	5.27589
3479.13027	5.32588
3477.20171	5.36280
3475.27314	5.40581
3473.34458	5.46008
3471.41602	5.51018
3469.48745	5.54997
3467.55889	5.59283
3465.63032	5.64961
3463.70176	5.71019
3461.77319	5.75698
3459.84463	5.79548
3457.91606	5.84257
3455.98750	5.89456
3454.05894	5.93244
3452.13037	5.96539
3450.20181	6.01555
3448.27324	6.06788
3446.34468	6.11009
3444.41611	6.15602
3442.48755	6.20948
3440.55898	6.26146
3438.63042	6.31480
3436.70186	6.36751
3434.77329	6.41170
3432.84473	6.44857
3430.91616	6.49455
3428.98760	6.56461
3427.05903	6.62349
3425.13047	6.65633
3423.20190	6.69286
3421.27334	6.75162
3419.34478	6.82736
3417.41621	6.89597
3415.48765	6.93975
3413.55908	6.99176
3411.63052	7.09277
3409.70195	7.18341
3407.77339	7.21355
3405.84482	7.20440
3403.91626	7.19002
3401.98770	7.19615
3400.05913	7.22997
3398.13057	7.30098
3396.20200	7.38778
3394.27344	7.42699
3392.34487	7.40943
3390.41631	7.41185
3388.48774	7.44350
3386.55918	7.48678
3384.63062	7.57232
3382.70205	7.69388
3380.77349	7.77467
3378.84492	7.77791
3376.91636	7.73837
3374.98779	7.69353
3373.05923	7.70289
3371.13066	7.75611
3369.20210	7.80593
3367.27354	7.83818
3365.34497	7.86246
3363.41641	7.86582
3361.48784	7.86146
3359.55928	7.93487
3357.63071	8.06797
3355.70215	8.11698
3353.77358	8.03102
3351.84502	7.94838
3349.91646	7.93722
3347.98789	7.96649
3346.05933	7.95837
3344.13076	7.91340
3342.20220	7.94801
3340.27363	8.06103
3338.34507	8.13900
3336.41650	8.11633
3334.48794	8.07557
3332.55937	8.07801
3330.63081	8.10034
3328.70225	8.10785
3326.77368	8.10414
3324.84512	8.05808
3322.91655	7.97957
3320.98799	7.98313
3319.05942	8.03838
3317.13086	8.09790
3315.20229	8.12380
3313.27373	8.05564
3311.34517	7.97070
3309.41660	7.97851
3307.48804	8.06116
3305.55947	8.08167
3303.63091	8.06011
3301.70234	8.09324
3299.77378	8.14923
3297.84521	8.17301
3295.91665	8.15176
3293.98809	8.09294
3292.05952	8.07568
3290.13096	8.12940
3288.20239	8.21237
3286.27383	8.29561
3284.34526	8.31307
3282.41670	8.31118
3280.48813	8.35134
3278.55957	8.36679
3276.63101	8.31473
3274.70244	8.24627
3272.77388	8.20864
3270.84531	8.21052
3268.91675	8.18974
3266.98818	8.10931
3265.05962	8.05117
3263.13105	8.04943
3261.20249	8.14201
3259.27393	8.30084
3257.34536	8.34927
3255.41680	8.24620
3253.48823	8.14719
3251.55967	8.09400
3249.63110	8.04071
3247.70254	8.05193
3245.77397	8.09567
3243.84541	8.10247
3241.91685	8.17573
3239.98828	8.31797
3238.05972	8.36162
3236.13115	8.28414
3234.20259	8.21939
3232.27402	8.22522
3230.34546	8.24150
3228.41689	8.17929
3226.48833	8.08349
3224.55977	8.05777
3222.63120	8.07338
3220.70264	8.02528
3218.77407	7.96943
3216.84551	7.99014
3214.91694	7.98464
3212.98838	7.90300
3211.05981	7.86702
3209.13125	7.87212
3207.20269	7.80243
3205.27412	7.70234
3203.34556	7.67009
3201.41699	7.68616
3199.48843	7.69893
3197.55986	7.72376
3195.63130	7.74891
3193.70273	7.71342
3191.77417	7.63941
3189.84561	7.55557
3187.91704	7.45510
3185.98848	7.37873
3184.05991	7.34410
3182.13135	7.32365
3180.20278	7.30932
3178.27422	7.25987
3176.34565	7.15027
3174.41709	7.04994
3172.48853	7.00871
3170.55996	6.98594
3168.63140	6.92983
3166.70283	6.85943
3164.77427	6.78317
3162.84570	6.68275
3160.91714	6.58390
3158.98857	6.51685
3157.06001	6.47312
3155.13145	6.42060
3153.20288	6.35345
3151.27432	6.29461
3149.34575	6.23335
3147.41719	6.16329
3145.48862	6.10378
3143.56006	6.04755
3141.63149	5.98175
3139.70293	5.89994
3137.77437	5.81079
3135.84580	5.73953
3133.91724	5.68803
3131.98867	5.63303
3130.06011	5.56064
3128.13154	5.48258
3126.20298	5.41391
3124.27441	5.35141
3122.34585	5.28037
3120.41729	5.20130
3118.48872	5.12621
3116.56016	5.05762
3114.63159	4.99094
3112.70303	4.92097
3110.77446	4.84998
3108.84590	4.78304
3106.91733	4.71531
3104.98877	4.64453
3103.06021	4.57729
3101.13164	4.51198
3099.20308	4.44426
3097.27451	4.37743
3095.34595	4.31354
3093.41738	4.24959
3091.48882	4.18353
3089.56025	4.11954
3087.63169	4.05995
3085.70312	4.00070
3083.77456	3.93969
3081.84600	3.87812
3079.91743	3.81787
3077.98887	3.76012
3076.06030	3.70269
3074.13174	3.64422
3072.20317	3.58647
3070.27461	3.52959
3068.34604	3.47214
3066.41748	3.41465
3064.48892	3.35889
3062.56035	3.30453
3060.63179	3.25101
3058.70322	3.19853
3056.77466	3.14590
3054.84609	3.09292
3052.91753	3.04210
3050.98896	2.99357
3049.06040	2.94395
3047.13184	2.89302
3045.20327	2.84329
3043.27471	2.79526
3041.34614	2.74838
3039.41758	2.70213
3037.48901	2.65593
3035.56045	2.61025
3033.63188	2.56564
3031.70332	2.52155
3029.77476	2.47766
3027.84619	2.43477
3025.91763	2.39330
3023.98906	2.35250
3022.06050	2.31189
3020.13193	2.27171
3018.20337	2.23206
3016.27480	2.19308
3014.34624	2.15492
3012.41768	2.11749
3010.48911	2.08031
3008.56055	2.04338
3006.63198	2.00746
3004.70342	1.97232
3002.77485	1.93767
3000.84629	1.90401
2998.91772	1.87086
2996.98916	1.83803
2995.06060	1.80581
2993.13203	1.77413
2991.20347	1.74344
2989.27490	1.71396
2987.34634	1.68519
2985.41777	1.65676
2983.48921	1.62845
2981.56064	1.60036
2979.63208	1.57315
2977.70352	1.54708
2975.77495	1.52126
2973.84639	1.49517
2971.91782	1.46954
2969.98926	1.44507
2968.06069	1.42115
2966.13213	1.39719
2964.20356	1.37340
2962.27500	1.34995
2960.34644	1.32670
2958.41787	1.30367
2956.48931	1.28095
2954.56074	1.25832
2952.63218	1.23557
2950.70361	1.21268
2948.77505	1.19003
2946.84648	1.16835
2944.91792	1.14780
2942.98936	1.12807
2941.06079	1.10874
2939.13223	1.08951
2937.20366	1.07053
2935.27510	1.05169
2933.34653	1.03284
2931.41797	1.01452
2929.48940	0.99689
2927.56084	0.97959
2925.63228	0.96224
2923.70371	0.94462
2921.77515	0.92707
2919.84658	0.91019
2917.91802	0.89386
2915.98945	0.87752
2914.06089	0.86097
2912.13232	0.84491
2910.20376	0.82995
2908.27520	0.81555
2906.34663	0.80129
2904.41807	0.78741
2902.48950	0.77384
2900.56094	0.76039
2898.63237	0.74735
2896.70381	0.73481
2894.77524	0.72242
2892.84668	0.71022
2890.91812	0.69850
2888.98955	0.68724
2887.06099	0.67617
2885.13242	0.66525
2883.20386	0.65458
2881.27529	0.64446
2879.34673	0.63497
2877.41816	0.62557
2875.48960	0.61586
2873.56104	0.60598
2871.63247	0.59598
2869.70391	0.58590
2867.77534	0.57578
2865.84678	0.56547
2863.91821	0.55500
2861.98965	0.54469
2860.06108	0.53481
2858.13252	0.52561
2856.20396	0.51711
2854.27539	0.50887
2852.34683	0.50059
2850.41826	0.49220
2848.48970	0.48374
2846.56113	0.47543
2844.63257	0.46754
2842.70400	0.46027
2840.77544	0.45362
2838.84687	0.44735
2836.91831	0.44133
2834.98975	0.43537
2833.06118	0.42924
2831.13262	0.42305
2829.20405	0.41710
2827.27549	0.41148
2825.34692	0.40590
2823.41836	0.40005
2821.48979	0.39401
2819.56123	0.38819
2817.63267	0.38272
2815.70410	0.37744
2813.77554	0.37211
2811.84697	0.36670
2809.91841	0.36145
2807.98984	0.35630
2806.06128	0.35105
2804.13271	0.34588
2802.20415	0.34105
2800.27559	0.33629
2798.34702	0.33147
2796.41846	0.32682
2794.48989	0.32232
2792.56133	0.31789
2790.63276	0.31371
2788.70420	0.30962
2786.77563	0.30539
2784.84707	0.30121
2782.91851	0.29726
2780.98994	0.29332
2779.06138	0.28940
2777.13281	0.28562
2775.20425	0.28193
2773.27568	0.27833
2771.34712	0.27482
2769.41855	0.27133
2767.48999	0.26787
2765.56143	0.26444
2763.63286	0.26114
2761.70430	0.25807
2759.77573	0.25510
2757.84717	0.25206
2755.91860	0.24901
2753.99004	0.24603
2752.06147	0.24314
2750.13291	0.24042
2748.20435	0.23779
2746.27578	0.23506
2744.34722	0.23240
2742.41865	0.22993
2740.49009	0.22742
2738.56152	0.22475
2736.63296	0.22201
2734.70439	0.21947
2732.77583	0.21725
2730.84727	0.21515
2728.91870	0.21297
2726.99014	0.21075
2725.06157	0.20859
2723.13301	0.20655
2721.20444	0.20462
2719.27588	0.20270
2717.34731	0.20079
2715.41875	0.19897
2713.49019	0.19724
2711.56162	0.19549
2709.63306	0.19376
2707.70449	0.19210
2705.77593	0.19048
2703.84736	0.18898
2701.91880	0.18767
2699.99023	0.18636
2698.06167	0.18487
2696.13311	0.18338
2694.20454	0.18210
2692.27598	0.18087
2690.34741	0.17946
2688.41885	0.17797
2686.49028	0.17662
2684.56172	0.17547
2682.63315	0.17439
2680.70459	0.17326
2678.77603	0.17216
2676.84746	0.17116
2674.91890	0.17004
2672.99033	0.16881
2671.06177	0.16783
2669.13320	0.16704
2667.20464	0.16612
2665.27607	0.16513
2663.34751	0.16424
2661.41895	0.16343
2659.49038	0.16262
2657.56182	0.16184
2655.63325	0.16104
2653.70469	0.16028
2651.77612	0.15974
2649.84756	0.15930
2647.91899	0.15869
2645.99043	0.15791
2644.06187	0.15715
2642.13330	0.15658
2640.20474	0.15623
2638.27617	0.15587
2636.34761	0.15539
2634.41904	0.15490
2632.49048	0.15436
2630.56191	0.15378
2628.63335	0.15335
2626.70479	0.15323
2624.77622	0.15317
2622.84766	0.15288
2620.91909	0.15252
2618.99053	0.15230
2617.06196	0.15212
2615.13340	0.15189
2613.20483	0.15170
2611.27627	0.15159
2609.34771	0.15143
2607.41914	0.15127
2605.49058	0.15128
2603.56201	0.15128
2601.63345	0.15115
2599.70488	0.15108
2597.77632	0.15118
2595.84775	0.15133
2593.91919	0.15145
2591.99062	0.15150
2590.06206	0.15151
2588.13350	0.15164
2586.20493	0.15186
2584.27637	0.15206
2582.34780	0.15227
2580.41924	0.15249
2578.49067	0.15271
2576.56211	0.15297
2574.63354	0.15323
2572.70498	0.15355
2570.77642	0.15396
2568.84785	0.15439
2566.91929	0.15479
2564.99072	0.15516
2563.06216	0.15550
2561.13359	0.15590
2559.20503	0.15643
2557.27646	0.15702
2555.34790	0.15756
2553.41934	0.15796
2551.49077	0.15836
2549.56221	0.15881
2547.63364	0.15931
2545.70508	0.15991
2543.77651	0.16055
2541.84795	0.16109
2539.91938	0.16157
2537.99082	0.16225
2536.06226	0.16308
2534.13369	0.16383
2532.20513	0.16450
2530.27656	0.16516
2528.34800	0.16582
2526.41943	0.16644
2524.49087	0.16706
2522.56230	0.16765
2520.63374	0.16835
2518.70518	0.16916
2516.77661	0.16991
2514.84805	0.17068
2512.91948	0.17153
2510.99092	0.17225
2509.06235	0.17290
2507.13379	0.17370
2505.20522	0.17461
2503.27666	0.17552
2501.34810	0.17636
2499.41953	0.17713
2497.49097	0.17790
2495.56240	0.17870
2493.63384	0.17945
2491.70527	0.18017
2489.77671	0.18097
2487.84814	0.18176
2485.91958	0.18249
2483.99102	0.18323
2482.06245	0.18411
2480.13389	0.18510
2478.20532	0.18610
2476.27676	0.18706
2474.34819	0.18798
2472.41963	0.18889
2470.49106	0.18977
2468.56250	0.19061
2466.63394	0.19142
2464.70537	0.19226
2462.77681	0.19321
2460.84824	0.19423
2458.91968	0.19516
2456.99111	0.19601
2455.06255	0.19688
2453.13398	0.19782
2451.20542	0.19879
2449.27686	0.19980
2447.34829	0.20088
2445.41973	0.20196
2443.49116	0.20295
2441.56260	0.20386
2439.63403	0.20486
2437.70547	0.20591
2435.77690	0.20691
2433.84834	0.20784
2431.91978	0.20864
2429.99121	0.20947
2428.06265	0.21054
2426.13408	0.21176
2424.20552	0.21299
2422.27695	0.21425
2420.34839	0.21541
2418.41982	0.21641
2416.49126	0.21738
2414.56270	0.21840
2412.63413	0.21946
2410.70557	0.22063
2408.77700	0.22189
2406.84844	0.22303
2404.91987	0.22406
2402.99131	0.22522
2401.06274	0.22644
2399.13418	0.22761
2397.20562	0.22885
2395.27705	0.23012
2393.34849	0.23131
2391.41992	0.23247
2389.49136	0.23361
2387.56279	0.23468
2385.63423	0.23557
2383.70566	0.23614
2381.77710	0.23650
2379.84854	0.23691
2377.91997	0.23731
2375.99141	0.23751
2374.06284	0.23744
2372.13428	0.23723
2370.20571	0.23702
2368.27715	0.23675
2366.34858	0.23691
2364.42002	0.23772
2362.49146	0.23838
2360.56289	0.23917
2358.63433	0.24086
2356.70576	0.24320
2354.77720	0.24609
2352.84863	0.24930
2350.92007	0.25226
2348.99150	0.25422
2347.06294	0.25495
2345.13437	0.25502
2343.20581	0.25567
2341.27725	0.25754
2339.34868	0.25972
2337.42012	0.26131
2335.49155	0.26267
2333.56299	0.26462
2331.63442	0.26723
2329.70586	0.26967
2327.77729	0.27127
2325.84873	0.27276
2323.92017	0.27487
2321.99160	0.27730
2320.06304	0.27957
2318.13447	0.28188
2316.20591	0.28441
2314.27734	0.28680
2312.34878	0.28880
2310.42021	0.29074
2308.49165	0.29283
2306.56309	0.29505
2304.63452	0.29732
2302.70596	0.29954
2300.77739	0.30168
2298.84883	0.30377
2296.92026	0.30588
2294.99170	0.30810
2293.06313	0.31037
2291.13457	0.31255
2289.20601	0.31463
2287.27744	0.31677
2285.34888	0.31893
2283.42031	0.32097
2281.49175	0.32294
2279.56318	0.32494
2277.63462	0.32694
2275.70605	0.32887
2273.77749	0.33079
2271.84893	0.33282
2269.92036	0.33484
2267.99180	0.33682
2266.06323	0.33892
2264.13467	0.34115
2262.20610	0.34330
2260.27754	0.34541
2258.34897	0.34762
2256.42041	0.34984
2254.49185	0.35197
2252.56328	0.35406
2250.63472	0.35614
2248.70615	0.35830
2246.77759	0.36064
2244.84902	0.36302
2242.92046	0.36530
2240.99189	0.36743
2239.06333	0.36942
2237.13477	0.37147
2235.20620	0.37370
2233.27764	0.37602
2231.34907	0.37832
2229.42051	0.38063
2227.49194	0.38295
2225.56338	0.38514
2223.63481	0.38721
2221.70625	0.38927
2219.77769	0.39141
2217.84912	0.39357
2215.92056	0.39568
2213.99199	0.39786
2212.06343	0.40011
2210.13486	0.40221
2208.20630	0.40416
2206.27773	0.40616
2204.34917	0.40828
2202.42061	0.41045
2200.49204	0.41254
2198.56348	0.41445
2196.63491	0.41631
2194.70635	0.41831
2192.77778	0.42034
2190.84922	0.42228
2188.92065	0.42413
2186.99209	0.42587
2185.06353	0.42761
2183.13496	0.42940
2181.20640	0.43112
2179.27783	0.43268
2177.34927	0.43417
2175.42070	0.43566
2173.49214	0.43717
2171.56357	0.43863
2169.63501	0.44005
2167.70645	0.44143
2165.77788	0.44272
2163.84932	0.44399
2161.92075	0.44526
2159.99219	0.44638
2158.06362	0.44737
2156.13506	0.44833
2154.20649	0.44924
2152.27793	0.45014
2150.34937	0.45094
2148.42080	0.45155
2146.49224	0.45220
2144.56367	0.45295
2142.63511	0.45357
2140.70654	0.45395
2138.77798	0.45415
2136.84941	0.45429
2134.92085	0.45445
2132.99229	0.45455
2131.06372	0.45446
2129.13516	0.45429
2127.20659	0.45423
2125.27803	0.45418
2123.34946	0.45389
2121.42090	0.45340
2119.49233	0.45290
2117.56377	0.45238
2115.63521	0.45173
2113.70664	0.45096
2111.77808	0.45014
2109.84951	0.44937
2107.92095	0.44860
2105.99238	0.44767
2104.06382	0.44661
2102.13525	0.44547
2100.20669	0.44423
2098.27812	0.44295
2096.34956	0.44163
2094.42100	0.44017
2092.49243	0.43864
2090.56387	0.43707
2088.63530	0.43546
2086.70674	0.43385
2084.77817	0.43215
2082.84961	0.43028
2080.92104	0.42834
2078.99248	0.42639
2077.06392	0.42444
2075.13535	0.42251
2073.20679	0.42052
2071.27822	0.41844
2069.34966	0.41628
2067.42109	0.41401
2065.49253	0.41174
2063.56396	0.40947
2061.63540	0.40712
2059.70684	0.40467
2057.77827	0.40220
2055.84971	0.39974
2053.92114	0.39722
2051.99258	0.39469
2050.06401	0.39216
2048.13545	0.38961
2046.20688	0.38705
2044.27832	0.38456
2042.34976	0.38207
2040.42119	0.37948
2038.49263	0.37679
2036.56406	0.37406
2034.63550	0.37132
2032.70693	0.36862
2030.77837	0.36593
2028.84980	0.36318
2026.92124	0.36046
2024.99268	0.35787
2023.06411	0.35526
2021.13555	0.35249
2019.20698	0.34970
2017.27842	0.34702
2015.34985	0.34430
2013.42129	0.34151
2011.49272	0.33883
2009.56416	0.33624
2007.63560	0.33362
2005.70703	0.33103
2003.77847	0.32843
2001.84990	0.32575
1999.92134	0.32310
1997.99277	0.32063
1996.06421	0.31822
1994.13564	0.31569
1992.20708	0.31314
1990.27852	0.31060
1988.34995	0.30805
1986.42139	0.30548
1984.49282	0.30298
1982.56426	0.30069
1980.63569	0.29852
1978.70713	0.29632
1976.77856	0.29404
1974.85000	0.29177
1972.92144	0.28959
1970.99287	0.28750
1969.06431	0.28549
1967.13574	0.28350
1965.20718	0.28142
1963.27861	0.27931
1961.35005	0.27724
1959.42148	0.27524
1957.49292	0.27339
1955.56436	0.27170
1953.63579	0.27003
1951.70723	0.26829
1949.77866	0.26658
1947.85010	0.26493
1945.92153	0.26337
1943.99297	0.26196
1942.06440	0.26064
1940.13584	0.25921
1938.20728	0.25773
1936.27871	0.25633
1934.35015	0.25501
1932.42158	0.25377
1930.49302	0.25251
1928.56445	0.25125
1926.63589	0.25006
1924.70732	0.24905
1922.77876	0.24818
1920.85020	0.24729
1918.92163	0.24635
1916.99307	0.24543
1915.06450	0.24449
1913.13594	0.24351
1911.20737	0.24270
1909.27881	0.24210
1907.35024	0.24151
1905.42168	0.24081
1903.49312	0.24009
1901.56455	0.23941
1899.63599	0.23879
1897.70742	0.23837
1895.77886	0.23807
1893.85029	0.23770
1891.92173	0.23725
1889.99316	0.23696
1888.06460	0.23676
1886.13604	0.23652
1884.20747	0.23624
1882.27891	0.23594
1880.35034	0.23571
1878.42178	0.23562
1876.49321	0.23567
1874.56465	0.23569
1872.63608	0.23576
1870.70752	0.23598
1868.77896	0.23644
1866.85039	0.23671
1864.92183	0.23659
1862.99326	0.23654
1861.06470	0.23666
1859.13613	0.23692
1857.20757	0.23733
1855.27900	0.23789
1853.35044	0.23841
1851.42187	0.23891
1849.49331	0.23945
1847.56475	0.24007
1845.63618	0.24084
1843.70762	0.24183
1841.77905	0.24267
1839.85049	0.24313
1837.92192	0.24382
1835.99336	0.24466
1834.06479	0.24553
1832.13623	0.24651
1830.20767	0.24793
1828.27910	0.24944
1826.35054	0.25050
1824.42197	0.25172
1822.49341	0.25302
1820.56484	0.25424
1818.63628	0.25556
1816.70771	0.25717
1814.77915	0.25877
1812.85059	0.26037
1810.92202	0.26226
1808.99346	0.26439
1807.06489	0.26650
1805.13633	0.26844
1803.20776	0.27051
1801.27920	0.27281
1799.35063	0.27548
1797.42207	0.27806
1795.49351	0.28051
1793.56494	0.28317
1791.63638	0.28660
1789.70781	0.28998
1787.77925	0.29259
1785.85068	0.29566
1783.92212	0.29930
1781.99355	0.30319
1780.06499	0.30731
1778.13643	0.31159
1776.20786	0.31559
1774.27930	0.31986
1772.35073	0.32568
1770.42217	0.33198
1768.49360	0.33727
1766.56504	0.34239
1764.63647	0.34760
1762.70791	0.35331
1760.77935	0.36072
1758.85078	0.36779
1756.92222	0.37478
1754.99365	0.38228
1753.06509	0.38897
1751.13652	0.39701
1749.20796	0.40744
1747.27939	0.41794
1745.35083	0.42721
1743.42227	0.43693
1741.49370	0.44743
1739.56514	0.45970
1737.63657	0.47205
1735.70801	0.48277
1733.77944	0.49877
1731.85088	0.51820
1729.92231	0.53372
1727.99375	0.54950
1726.06519	0.56645
1724.13662	0.58473
1722.20806	0.60429
1720.27949	0.62227
1718.35093	0.64333
1716.42236	0.67489
1714.49380	0.70529
1712.56523	0.72995
1710.63667	0.75379
1708.70811	0.77924
1706.77954	0.80803
1704.85098	0.84271
1702.92241	0.87405
1700.99385	0.90495
1699.06528	0.95062
1697.13672	0.99265
1695.20815	1.03628
1693.27959	1.07898
1691.35103	1.11336
1689.42246	1.15323
1687.49390	1.19532
1685.56533	1.23522
1683.63677	1.29675
1681.70820	1.36172
1679.77964	1.40381
1677.85107	1.44402
1675.92251	1.48980
1673.99395	1.54602
1672.06538	1.59624
1670.13682	1.64564
1668.20825	1.70982
1666.27969	1.76186
1664.35112	1.80595
1662.42256	1.86174
1660.49399	1.92503
1658.56543	1.97356
1656.63687	2.01202
1654.70830	2.04711
1652.77974	2.10275
1650.85117	2.15724
1648.92261	2.17820
1646.99404	2.20685
1645.06548	2.24070
1643.13691	2.26240
1641.20835	2.27442
1639.27979	2.28512
1637.35122	2.29280
1635.42266	2.29509
1633.49409	2.28897
1631.56553	2.27550
1629.63696	2.25865
1627.70840	2.23179
1625.77983	2.20087
1623.85127	2.16023
1621.92271	2.10987
1619.99414	2.06568
1618.06558	2.02221
1616.13701	1.95946
1614.20845	1.89493
1612.27988	1.84564
1610.35132	1.79461
1608.42275	1.73972
1606.49419	1.68543
1604.56562	1.63471
1602.63706	1.58560
1600.70850	1.53838
1598.77993	1.49520
1596.85137	1.45397
1594.92280	1.41335
1592.99424	1.37413
1591.06567	1.33837
1589.13711	1.30487
1587.20854	1.27343
1585.27998	1.24389
1583.35142	1.21609
1581.42285	1.19098
1579.49429	1.16967
1577.56572	1.15034
1575.63716	1.12638
1573.70859	1.10505
1571.78003	1.09120
1569.85146	1.07695
1567.92290	1.06109
1565.99434	1.04883
1564.06577	1.03912
1562.13721	1.03166
1560.20864	1.02641
1558.28008	1.01953
1556.35151	1.01369
1554.42295	1.01000
1552.49438	1.00631
1550.56582	1.00152
1548.63726	0.99489
1546.70869	0.98762
1544.78013	0.97911
1542.85156	0.96819
1540.92300	0.95300
1538.99443	0.93061
1537.06587	0.91452
1535.13730	0.90344
1533.20874	0.88852
1531.28018	0.87250
1529.35161	0.86081
1527.42305	0.84966
1525.49448	0.83796
1523.56592	0.82797
1521.63735	0.81835
1519.70879	0.80844
1517.78022	0.80027
1515.85166	0.79130
1513.92310	0.78185
1511.99453	0.77349
1510.06597	0.76611
1508.13740	0.75921
1506.20884	0.74799
1504.28027	0.73796
1502.35171	0.73249
1500.42314	0.72779
1498.49458	0.72278
1496.56602	0.71697
1494.63745	0.71124
1492.70889	0.70677
1490.78032	0.70286
1488.85176	0.69838
1486.92319	0.69412
1484.99463	0.69087
1483.06606	0.68849
1481.13750	0.68656
1479.20894	0.68487
1477.28037	0.68368
1475.35181	0.68314
1473.42324	0.68296
1471.49468	0.68201
1469.56611	0.68013
1467.63755	0.67808
1465.70898	0.67604
1463.78042	0.67417
1461.85186	0.67273
1459.92329	0.67176
1457.99473	0.67110
1456.06616	0.66982
1454.13760	0.66712
1452.20903	0.66412
1450.28047	0.66128
1448.35190	0.65866
1446.42334	0.65589
1444.49478	0.65317
1442.56621	0.65074
1440.63765	0.64846
1438.70908	0.64615
1436.78052	0.64335
1434.85195	0.64021
1432.92339	0.63768
1430.99482	0.63588
1429.06626	0.63461
1427.13770	0.63381
1425.20913	0.63335
1423.28057	0.63313
1421.35200	0.63301
1419.42344	0.63292
1417.49487	0.63244
1415.56631	0.63133
1413.63774	0.63028
1411.70918	0.62953
1409.78062	0.62906
1407.85205	0.62882
1405.92349	0.62886
1403.99492	0.62900
1402.06636	0.62867
1400.13779	0.62775
1398.20923	0.62624
1396.28066	0.62413
1394.35210	0.62130
1392.42354	0.61808
1390.49497	0.61517
1388.56641	0.61247
1386.63784	0.60934
1384.70928	0.60586
1382.78071	0.60262
1380.85215	0.59966
1378.92358	0.59711
1376.99502	0.59514
1375.06646	0.59374
1373.13789	0.59262
1371.20933	0.59161
1369.28076	0.59078
1367.35220	0.59002
1365.42363	0.58906
1363.49507	0.58791
1361.56650	0.58658
1359.63794	0.58517
1357.70937	0.58391
1355.78081	0.58277
1353.85225	0.58176
1351.92368	0.58087
1349.99512	0.57990
1348.06655	0.57891
1346.13799	0.57807
1344.20942	0.57730
1342.28086	0.57648
1340.35229	0.57571
1338.42373	0.57501
1336.49517	0.57434
1334.56660	0.57367
1332.63804	0.57309
1330.70947	0.57277
1328.78091	0.57275
1326.85234	0.57284
1324.92378	0.57293
1322.99521	0.57309
1321.06665	0.57320
1319.13809	0.57314
1317.20952	0.57295
1315.28096	0.57272
1313.35239	0.57243
1311.42383	0.57192
1309.49526	0.57117
1307.56670	0.57034
1305.63813	0.56963
1303.70957	0.56906
1301.78101	0.56836
1299.85244	0.56730
1297.92388	0.56613
1295.99531	0.56501
1294.06675	0.56387
1292.13818	0.56273
1290.20962	0.56174
1288.28105	0.56095
1286.35249	0.56025
1284.42393	0.55945
1282.49536	0.55846
1280.56680	0.55740
1278.63823	0.55633
1276.70967	0.55536
1274.78110	0.55454
1272.85254	0.55380
1270.92397	0.55311
1268.99541	0.55245
1267.06685	0.55179
1265.13828	0.55132
1263.20972	0.55097
1261.28115	0.55040
1259.35259	0.54970
1257.42402	0.54910
1255.49546	0.54865
1253.56689	0.54840
1251.63833	0.54827
1249.70977	0.54818
1247.78120	0.54812
1245.85264	0.54792
1243.92407	0.54747
1241.99551	0.54677
1240.06694	0.54580
1238.13838	0.54469
1236.20981	0.54343
1234.28125	0.54190
1232.35269	0.54024
1230.42412	0.53866
1228.49556	0.53724
1226.56699	0.53593
1224.63843	0.53464
1222.70986	0.53339
1220.78130	0.53222
1218.85273	0.53103
1216.92417	0.52973
1214.99561	0.52860
1213.06704	0.52779
1211.13848	0.52712
1209.20991	0.52654
1207.28135	0.52611
1205.35278	0.52566
1203.42422	0.52500
1201.49565	0.52419
1199.56709	0.52337
1197.63853	0.52259
1195.70996	0.52189
1193.78140	0.52130
1191.85283	0.52092
1189.92427	0.52066
1187.99570	0.52038
1186.06714	0.52012
1184.13857	0.51991
1182.21001	0.51993
1180.28145	0.52043
1178.35288	0.52141
1176.42432	0.52257
1174.49575	0.52369
1172.56719	0.52463
1170.63862	0.52530
1168.71006	0.52580
1166.78149	0.52627
1164.85293	0.52665
1162.92437	0.52690
1160.99580	0.52705
1159.06724	0.52700
1157.13867	0.52663
1155.21011	0.52593
1153.28154	0.52483
1151.35298	0.52326
1149.42441	0.52117
1147.49585	0.51863
1145.56729	0.51588
1143.63872	0.51325
1141.71016	0.51085
1139.78159	0.50871
1137.85303	0.50686
1135.92446	0.50543
1133.99590	0.50462
1132.06733	0.50417
1130.13877	0.50357
1128.21021	0.50285
1126.28164	0.50224
1124.35308	0.50166
1122.42451	0.50097
1120.49595	0.50051
1118.56738	0.50048
1116.63882	0.50059
1114.71025	0.50087
1112.78169	0.50142
1110.85312	0.50197
1108.92456	0.50254
1106.99600	0.50346
1105.06743	0.50466
1103.13887	0.50581
1101.21030	0.50693
1099.28174	0.50823
1097.35317	0.50995
1095.42461	0.51253
1093.49604	0.51609
1091.56748	0.52062
1089.63892	0.52620
1087.71035	0.53301
1085.78179	0.54090
1083.85322	0.54885
1081.92466	0.55583
1079.99609	0.56131
1078.06753	0.56450
1076.13896	0.56473
1074.21040	0.56198
1072.28184	0.55673
1070.35327	0.55002
1068.42471	0.54307
1066.49614	0.53640
1064.56758	0.53022
1062.63901	0.52481
1060.71045	0.52027
1058.78188	0.51637
1056.85332	0.51278
1054.92476	0.50933
1052.99619	0.50620
1051.06763	0.50372
1049.13906	0.50200
1047.21050	0.50091
1045.28193	0.50027
1043.35337	0.50007
1041.42480	0.50024
1039.49624	0.50047
1037.56768	0.50039
1035.63911	0.49999
1033.71055	0.49945
1031.78198	0.49888
1029.85342	0.49804
1027.92485	0.49686
1025.99629	0.49580
1024.06772	0.49514
1022.13916	0.49474
1020.21060	0.49453
1018.28203	0.49463
1016.35347	0.49490
1014.42490	0.49517
1012.49634	0.49531
1010.56777	0.49540
1008.63921	0.49568
1006.71064	0.49625
1004.78208	0.49729
1002.85352	0.49908
1000.92495	0.50163
998.99639	0.50481
997.06782	0.50850
995.13926	0.51247
993.21069	0.51634
991.28213	0.51949
989.35356	0.52161
987.42500	0.52288
985.49644	0.52346
983.56787	0.52366
981.63931	0.52411
979.71074	0.52512
977.78218	0.52657
975.85361	0.52842
973.92505	0.53081
971.99648	0.53371
970.06792	0.53701
968.13936	0.54064
966.21079	0.54457
964.28223	0.54891
962.35366	0.55367
960.42510	0.55865
958.49653	0.56373
956.56797	0.56911
954.63940	0.57495
952.71084	0.58118
950.78228	0.58749
948.85371	0.59368
946.92515	0.59973
944.99658	0.60579
943.06802	0.61205
941.13945	0.61816
939.21089	0.62392
937.28232	0.62978
935.35376	0.63570
933.42520	0.64119
931.49663	0.64649
929.56807	0.65231
927.63950	0.65862
925.71094	0.66457
923.78237	0.67008
921.85381	0.67584
919.92524	0.68200
917.99668	0.68830
916.06812	0.69490
914.13955	0.70212
912.21099	0.70991
910.28242	0.71832
908.35386	0.72679
906.42529	0.73448
904.49673	0.74238
902.56816	0.75200
900.63960	0.76234
898.71104	0.77199
896.78247	0.78131
894.85391	0.79046
892.92534	0.79966
890.99678	0.80949
889.06821	0.82007
887.13965	0.83150
885.21108	0.84310
883.28252	0.85363
881.35396	0.86415
879.42539	0.87605
877.49683	0.88772
875.56826	0.89890
873.63970	0.91052
871.71113	0.92178
869.78257	0.93184
867.85400	0.94163
865.92544	0.95296
863.99687	0.96539
862.06831	0.97677
860.13975	0.98640
858.21118	0.99553
856.28262	1.00571
854.35405	1.01734
852.42549	1.02955
850.49692	1.04229
848.56836	1.05545
846.63979	1.06817
844.71123	1.08118
842.78267	1.09374
840.85410	1.10517
838.92554	1.11687
836.99697	1.12966
835.06841	1.14271
833.13984	1.15519
831.21128	1.16810
829.28271	1.17996
827.35415	1.19008
825.42559	1.20351
823.49702	1.22018
821.56846	1.23180
819.63989	1.23751
817.71133	1.24035
815.78276	1.24275
813.85420	1.25177
811.92563	1.26146
809.99707	1.26566
808.06851	1.27647
806.13994	1.29618
804.21138	1.31109
802.28281	1.32087
800.35425	1.33082
798.42568	1.33384
796.49712	1.33624
794.56855	1.36890
792.63999	1.42988
790.71143	1.44951
788.78286	1.41876
786.85430	1.38703
784.92573	1.35682
782.99717	1.35296
781.06860	1.39922
779.14004	1.45578
777.21147	1.46734
775.28291	1.45281
773.35435	1.44284
771.42578	1.42464
769.49722	1.40545
767.56865	1.41295
765.64009	1.43725
763.71152	1.46004
761.78296	1.50218
759.85439	1.54934
757.92583	1.49166
755.99727	1.36279
754.06870	1.30602
752.14014	1.35767
750.21157	1.46963
748.28301	1.38920
746.35444	1.18760
744.42588	1.12964
742.49731	1.16180
740.56875	1.05491
738.64019	0.89220
736.71162	0.76244
734.78306	0.68329
732.85449	0.66699
730.92593	0.64935
728.99736	0.64308
727.06880	0.68982
725.14023	0.63460
723.21167	0.44182
721.28311	0.25670
719.35454	0.14721
717.42598	0.12993
715.49741	0.15277
713.56885	0.19985
711.64028	0.39011
709.71172	0.74107
707.78315	1.18202
705.85459	0.99654
703.92603	0.48003
701.99746	0.30607
700.06890	0.21581
698.14033	0.13940
696.21177	0.16155
694.28320	0.30426
692.35464	0.55321
690.42607	0.85759
688.49751	4.13099
686.56895	1.36542
684.64038	0.54657
682.71182	0.35996
680.78325	0.28816
678.85469	0.25292
676.92612	0.38291
674.99756	0.56475
673.06899	0.42298
671.14043	0.32273
669.21187	0.36245
667.28330	0.40695
665.35474	0.32384
663.42617	0.27446
661.49761	0.35066
659.56904	0.52979
657.64048	0.60295
655.71191	0.47650
653.78335	0.34891
651.85479	0.27137
649.92622	0.21735
647.99766	0.18598
646.06909	0.18281
644.14053	0.19802
642.21196	0.25061
640.28340	0.35928
638.35483	0.40954
636.42627	0.33658
634.49771	0.26465
632.56914	0.23119
630.64058	0.25601
628.71201	0.32060
626.78345	0.38484
624.85488	0.44149
622.92632	0.43836
620.99775	0.39093
619.06919	0.43294
617.14062	0.60671
615.21206	0.56870
613.28350	0.44423
611.35493	0.41681
609.42637	0.40641
607.49780	0.34189
605.56924	0.27237
603.64067	0.28144
601.71211	0.39852
599.78354	0.50463
597.85498	0.54529
595.92642	0.72342
593.99785	0.79649
592.06929	0.42400
590.14072	0.27364
588.21216	0.24762
586.28359	0.31250
584.35503	0.39243
582.42646	0.32181
580.49790	0.24496
578.56934	0.25387
576.64077	0.28077
574.71221	0.27180
572.78364	0.29148
570.85508	0.33722
568.92651	0.35799
566.99795	0.35797
565.06938	0.38011
563.14082	0.45796
561.21226	0.43487
559.28369	0.32285
557.35513	0.22793
555.42656	0.18748
553.49800	0.31038
551.56943	0.61377
549.64087	0.73475
547.71230	0.45436
545.78374	0.20872
543.85518	0.09346
541.92661	0.12407
539.99805	0.21826
538.06948	0.31142
536.14092	0.36143
534.21235	0.37002
532.28379	0.33837
530.35522	0.30645
528.42666	0.30352
526.49810	0.34191
524.56953	0.40439
522.64097	0.31770
520.71240	0.18492
518.78384	0.14508
516.85527	0.19018
514.92671	0.23417
512.99814	0.24060
511.06958	0.25328
509.14102	0.34267
507.21245	0.49291
505.28389	0.39015
503.35532	0.22744
501.42676	0.16817
499.49819	0.21967
