3997.91411	0.06604
3995.98555	0.06696
3994.05698	0.06788
3992.12842	0.06808
3990.19985	0.06809
3988.27129	0.06857
3986.34272	0.06921
3984.41416	0.06968
3982.48560	0.06986
3980.55703	0.06989
3978.62847	0.06995
3976.69990	0.07013
3974.77134	0.07060
3972.84277	0.07103
3970.91421	0.07107
3968.98564	0.07096
3967.05708	0.07082
3965.12852	0.07073
3963.19995	0.07103
3961.27139	0.07161
3959.34282	0.07189
3957.41426	0.07201
3955.48569	0.07233
3953.55713	0.07267
3951.62856	0.07315
3949.70000	0.07408
3947.77144	0.07441
3945.84287	0.07365
3943.91431	0.07333
3941.98574	0.07365
3940.05718	0.07341
3938.12861	0.07275
3936.20005	0.07223
3934.27148	0.07252
3932.34292	0.07400
3930.41436	0.07507
3928.48579	0.07451
3926.55723	0.07408
3924.62866	0.07476
3922.70010	0.07503
3920.77153	0.07445
3918.84297	0.07443
3916.91440	0.07475
3914.98584	0.07397
3913.05728	0.07240
3911.12871	0.07140
3909.20015	0.07130
3907.27158	0.07227
3905.34302	0.07481
3903.41445	0.07807
3901.48589	0.07968
3899.55732	0.07895
3897.62876	0.07659
3895.70020	0.07424
3893.77163	0.07421
3891.84307	0.07651
3889.91450	0.07751
3887.98594	0.07605
3886.05737	0.07603
3884.12881	0.07765
3882.20024	0.07843
3880.27168	0.07867
3878.34312	0.07767
3876.41455	0.07629
3874.48599	0.07732
3872.55742	0.07994
3870.62886	0.08221
3868.70029	0.08326
3866.77173	0.08248
3864.84316	0.08229
3862.91460	0.08281
3860.98604	0.08149
3859.05747	0.07975
3857.12891	0.08003
3855.20034	0.08306
3853.27178	0.08860
3851.34321	0.09019
3849.41465	0.08535
3847.48608	0.08153
3845.55752	0.08088
3843.62896	0.08311
3841.70039	0.08664
3839.77183	0.08995
3837.84326	0.09246
3835.91470	0.09250
3833.98613	0.09078
3832.05757	0.08932
3830.12900	0.08813
3828.20044	0.08795
3826.27187	0.08950
3824.34331	0.09139
3822.41475	0.09381
3820.48618	0.09798
3818.55762	0.09982
3816.62905	0.09877
3814.70049	0.09741
3812.77192	0.09526
3810.84336	0.09372
3808.91479	0.09442
3806.98623	0.09744
3805.05767	0.10076
3803.12910	0.10359
3801.20054	0.10722
3799.27197	0.10870
3797.34341	0.10743
3795.41484	0.10623
3793.48628	0.10479
3791.55771	0.10380
3789.62915	0.10436
3787.70059	0.10629
3785.77202	0.10912
3783.84346	0.11150
3781.91489	0.11253
3779.98633	0.11410
3778.05776	0.11640
3776.12920	0.11716
3774.20063	0.11730
3772.27207	0.11895
3770.34351	0.12268
3768.41494	0.12667
3766.48638	0.12885
3764.55781	0.13028
3762.62925	0.13163
3760.70068	0.13409
3758.77212	0.13838
3756.84355	0.14215
3754.91499	0.14464
3752.98643	0.14885
3751.05786	0.15628
3749.12930	0.16276
3747.20073	0.16487
3745.27217	0.16748
3743.34360	0.17193
3741.41504	0.17478
3739.48647	0.17756
3737.55791	0.18385
3735.62935	0.19443
3733.70078	0.20434
3731.77222	0.20793
3729.84365	0.20955
3727.91509	0.21317
3725.98652	0.21935
3724.05796	0.22639
3722.12939	0.23191
3720.20083	0.23540
3718.27227	0.23798
3716.34370	0.24168
3714.41514	0.24812
3712.48657	0.25992
3710.55801	0.27871
3708.62944	0.29605
3706.70088	0.30665
3704.77231	0.31659
3702.84375	0.32975
3700.91519	0.34707
3698.98662	0.36556
3697.05806	0.38289
3695.12949	0.40134
3693.20093	0.42183
3691.27236	0.44554
3689.34380	0.47516
3687.41523	0.50756
3685.48667	0.53452
3683.55811	0.55882
3681.62954	0.58640
3679.70098	0.61912
3677.77241	0.65508
3675.84385	0.69793
3673.91528	0.75301
3671.98672	0.79611
3670.05815	0.83475
3668.12959	0.88769
3666.20103	0.93446
3664.27246	0.97377
3662.34390	1.01744
3660.41533	1.06528
3658.48677	1.11292
3656.55820	1.16424
3654.62964	1.22120
3652.70107	1.26893
3650.77251	1.31202
3648.84395	1.37271
3646.91538	1.44304
3644.98682	1.49008
3643.05825	1.52621
3641.12969	1.56604
3639.20112	1.61231
3637.27256	1.65925
3635.34399	1.70420
3633.41543	1.74926
3631.48687	1.79200
3629.55830	1.83632
3627.62974	1.89313
3625.70117	1.94242
3623.77261	1.97490
3621.84404	2.00716
3619.91548	2.04389
3617.98691	2.08826
3616.05835	2.13148
3614.12979	2.16721
3612.20122	2.20480
3610.27266	2.24415
3608.34409	2.28607
3606.41553	2.33112
3604.48696	2.37071
3602.55840	2.40458
3600.62983	2.44236
3598.70127	2.48480
3596.77271	2.52629
3594.84414	2.56797
3592.91558	2.60907
3590.98701	2.64542
3589.05845	2.67901
3587.12988	2.71997
3585.20132	2.76606
3583.27275	2.80629
3581.34419	2.84390
3579.41562	2.88408
3577.48706	2.92637
3575.55850	2.96861
3573.62993	3.01153
3571.70137	3.05311
3569.77280	3.09239
3567.84424	3.13440
3565.91567	3.18704
3563.98711	3.23721
3562.05854	3.27697
3560.12998	3.31834
3558.20142	3.36318
3556.27285	3.40768
3554.34429	3.45150
3552.41572	3.49846
3550.48716	3.54628
3548.55859	3.59085
3546.63003	3.63539
3544.70146	3.68286
3542.77290	3.73019
3540.84434	3.77675
3538.91577	3.82286
3536.98721	3.86691
3535.05864	3.91203
3533.13008	3.95677
3531.20151	4.00066
3529.27295	4.04758
3527.34438	4.09821
3525.41582	4.14848
3523.48726	4.19592
3521.55869	4.24301
3519.63013	4.29041
3517.70156	4.33965
3515.77300	4.38979
3513.84443	4.43951
3511.91587	4.48844
3509.98730	4.53539
3508.05874	4.58386
3506.13018	4.63321
3504.20161	4.67781
3502.27305	4.72134
3500.34448	4.76912
3498.41592	4.81904
3496.48735	4.86647
3494.55879	4.90805
3492.63022	4.95189
3490.70166	5.00603
3488.77310	5.06093
3486.84453	5.10687
3484.91597	5.14939
3482.98740	5.19313
3481.05884	5.23978
3479.13027	5.28945
3477.20171	5.33536
3475.27314	5.38185
3473.34458	5.43613
3471.41602	5.48556
3469.48745	5.52452
3467.55889	5.56783
3465.63032	5.62104
3463.70176	5.67643
3461.77319	5.72614
3459.84463	5.77695
3457.91606	5.83103
3455.98750	5.87804
3454.05894	5.92323
3452.13037	5.97265
3450.20181	6.01361
3448.27324	6.04424
3446.34468	6.09131
3444.41611	6.16098
3442.48755	6.22932
3440.55898	6.27748
3438.63042	6.30457
3436.70186	6.33561
3434.77329	6.40104
3432.84473	6.47769
3430.91616	6.52595
3428.98760	6.56628
3427.05903	6.60779
3425.13047	6.65078
3423.20190	6.70706
3421.27334	6.76254
3419.34478	6.80470
3417.41621	6.86335
3415.48765	6.93687
3413.55908	6.97004
3411.63052	6.97318
3409.70195	6.99327
3407.77339	7.04570
3405.84482	7.10365
3403.91626	7.14477
3401.98770	7.18853
3400.05913	7.26006
3398.13057	7.32473
3396.20200	7.34600
3394.27344	7.36708
3392.34487	7.39259
3390.41631	7.41050
3388.48774	7.42261
3386.55918	7.44194
3384.63062	7.49633
3382.70205	7.58328
3380.77349	7.63895
3378.84492	7.61972
3376.91636	7.59830
3374.98779	7.64619
3373.05923	7.74093
3371.13066	7.77646
3369.20210	7.75602
3367.27354	7.74319
3365.34497	7.72707
3363.41641	7.69794
3361.48784	7.67411
3359.55928	7.67502
3357.63071	7.69694
3355.70215	7.76219
3353.77358	7.85696
3351.84502	7.90806
3349.91646	7.88363
3347.98789	7.84971
3346.05933	7.84898
3344.13076	7.86679
3342.20220	7.88385
3340.27363	7.89390
3338.34507	7.92136
3336.41650	7.92145
3334.48794	7.91203
3332.55937	7.98219
3330.63081	8.10168
3328.70225	8.14735
3326.77368	8.11161
3324.84512	8.08491
3322.91655	8.11937
3320.98799	8.18905
3319.05942	8.14087
3317.13086	8.02556
3315.20229	8.02299
3313.27373	8.10680
3311.34517	8.11197
3309.41660	8.04407
3307.48804	8.05158
3305.55947	8.11855
3303.63091	8.12908
3301.70234	8.07356
3299.77378	8.05287
3297.84521	8.09211
3295.91665	8.12758
3293.98809	8.09361
3292.05952	8.01956
3290.13096	7.97334
3288.20239	7.96565
3286.27383	8.00610
3284.34526	8.09215
3282.41670	8.18360
3280.48813	8.21254
3278.55957	8.15456
3276.63101	8.05209
3274.70244	8.00801
3272.77388	8.01798
3270.84531	8.02052
3268.91675	8.07185
3266.98818	8.16013
3265.05962	8.21118
3263.13105	8.21628
3261.20249	8.18887
3259.27393	8.11271
3257.34536	8.06129
3255.41680	8.08878
3253.48823	8.08053
3251.55967	7.96163
3249.63110	7.84563
3247.70254	7.87873
3245.77397	8.03547
3243.84541	8.19837
3241.91685	8.31225
3239.98828	8.28569
3238.05972	8.14019
3236.13115	8.08783
3234.20259	8.17145
3232.27402	8.19203
3230.34546	8.06753
3228.41689	7.96295
3226.48833	7.98633
3224.55977	8.05241
3222.63120	8.03029
3220.70264	7.93770
3218.77407	7.84778
3216.84551	7.78396
3214.91694	7.73434
3212.98838	7.71437
3211.05981	7.75481
3209.13125	7.80169
3207.20269	7.79057
3205.27412	7.75135
3203.34556	7.72271
3201.41699	7.72113
3199.48843	7.69722
3197.55986	7.62359
3195.63130	7.57067
3193.70273	7.51386
3191.77417	7.42271
3189.84561	7.36805
3187.91704	7.35819
3185.98848	7.34828
3184.05991	7.30968
3182.13135	7.22534
3180.20278	7.13539
3178.27422	7.10610
3176.34565	7.10613
3174.41709	7.05374
3172.48853	6.98236
3170.55996	6.95034
3168.63140	6.93813
3166.70283	6.89809
3164.77427	6.81640
3162.84570	6.72167
3160.91714	6.62794
3158.98857	6.53341
3157.06001	6.45519
3155.13145	6.40091
3153.20288	6.34683
3151.27432	6.28254
3149.34575	6.21631
3147.41719	6.15625
3145.48862	6.10200
3143.56006	6.03546
3141.63149	5.94724
3139.70293	5.85238
3137.77437	5.77432
3135.84580	5.71510
3133.91724	5.66137
3131.98867	5.60021
3130.06011	5.52521
3128.13154	5.45032
3126.20298	5.38567
3124.27441	5.32007
3122.34585	5.24777
3120.41729	5.17775
3118.48872	5.10771
3116.56016	5.03032
3114.63159	4.95539
3112.70303	4.89349
3110.77446	4.83422
3108.84590	4.76590
3106.91733	4.69608
3104.98877	4.62980
3103.06021	4.56187
3101.13164	4.48927
3099.20308	4.41632
3097.27451	4.35043
3095.34595	4.28889
3093.41738	4.22483
3091.48882	4.15976
3089.56025	4.09499
3087.63169	4.02953
3085.70312	3.96646
3083.77456	3.90622
3081.84600	3.84484
3079.91743	3.78145
3077.98887	3.72028
3076.06030	3.66227
3074.13174	3.60377
3072.20317	3.54425
3070.27461	3.48536
3068.34604	3.42778
3066.41748	3.37118
3064.48892	3.31597
3062.56035	3.26281
3060.63179	3.21077
3058.70322	3.15805
3056.77466	3.10355
3054.84609	3.04883
3052.91753	2.99617
3050.98896	2.94578
3049.06040	2.89668
3047.13184	2.84786
3045.20327	2.79928
3043.27471	2.75137
3041.34614	2.70338
3039.41758	2.65550
3037.48901	2.60976
3035.56045	2.56608
3033.63188	2.52304
3031.70332	2.48049
3029.77476	2.43761
3027.84619	2.39392
3025.91763	2.35094
3023.98906	2.30923
3022.06050	2.26848
3020.13193	2.22871
3018.20337	2.18957
3016.27480	2.15072
3014.34624	2.11231
3012.41768	2.07469
3010.48911	2.03765
3008.56055	2.00094
3006.63198	1.96491
3004.70342	1.92963
3002.77485	1.89505
3000.84629	1.86113
2998.91772	1.82728
2996.98916	1.79366
2995.06060	1.76126
2993.13203	1.73016
2991.20347	1.69939
2989.27490	1.66846
2987.34634	1.63780
2985.41777	1.60771
2983.48921	1.57821
2981.56064	1.54941
2979.63208	1.52106
2977.70352	1.49276
2975.77495	1.46459
2973.84639	1.43685
2971.91782	1.40964
2969.98926	1.38314
2968.06069	1.35699
2966.13213	1.33113
2964.20356	1.30613
2962.27500	1.28193
2960.34644	1.25833
2958.41787	1.23562
2956.48931	1.21344
2954.56074	1.19102
2952.63218	1.16835
2950.70361	1.14618
2948.77505	1.12492
2946.84648	1.10402
2944.91792	1.08310
2942.98936	1.06246
2941.06079	1.04232
2939.13223	1.02259
2937.20366	1.00314
2935.27510	0.98394
2933.34653	0.96526
2931.41797	0.94750
2929.48940	0.92999
2927.56084	0.91218
2925.63228	0.89533
2923.70371	0.88003
2921.77515	0.86486
2919.84658	0.84912
2917.91802	0.83356
2915.98945	0.81834
2914.06089	0.80306
2912.13232	0.78805
2910.20376	0.77368
2908.27520	0.75989
2906.34663	0.74668
2904.41807	0.73387
2902.48950	0.72112
2900.56094	0.70840
2898.63237	0.69618
2896.70381	0.68465
2894.77524	0.67322
2892.84668	0.66136
2890.91812	0.64935
2888.98955	0.63778
2887.06099	0.62664
2885.13242	0.61566
2883.20386	0.60496
2881.27529	0.59469
2879.34673	0.58447
2877.41816	0.57419
2875.48960	0.56433
2873.56104	0.55496
2871.63247	0.54564
2869.70391	0.53625
2867.77534	0.52686
2865.84678	0.51748
2863.91821	0.50814
2861.98965	0.49888
2860.06108	0.48997
2858.13252	0.48175
2856.20396	0.47406
2854.27539	0.46647
2852.34683	0.45883
2850.41826	0.45127
2848.48970	0.44380
2846.56113	0.43650
2844.63257	0.42965
2842.70400	0.42331
2840.77544	0.41727
2838.84687	0.41147
2836.91831	0.40581
2834.98975	0.40001
2833.06118	0.39414
2831.13262	0.38833
2829.20405	0.38256
2827.27549	0.37688
2825.34692	0.37143
2823.41836	0.36606
2821.48979	0.36059
2819.56123	0.35502
2817.63267	0.34958
2815.70410	0.34448
2813.77554	0.33945
2811.84697	0.33444
2809.91841	0.32947
2807.98984	0.32441
2806.06128	0.31936
2804.13271	0.31454
2802.20415	0.31001
2800.27559	0.30568
2798.34702	0.30135
2796.41846	0.29703
2794.48989	0.29286
2792.56133	0.28890
2790.63276	0.28507
2788.70420	0.28118
2786.77563	0.27713
2784.84707	0.27323
2782.91851	0.26963
2780.98994	0.26604
2779.06138	0.26239
2777.13281	0.25891
2775.20425	0.25557
2773.27568	0.25230
2771.34712	0.24900
2769.41855	0.24557
2767.48999	0.24221
2765.56143	0.23908
2763.63286	0.23600
2761.70430	0.23309
2759.77573	0.23047
2757.84717	0.22783
2755.91860	0.22500
2753.99004	0.22215
2752.06147	0.21938
2750.13291	0.21660
2748.20435	0.21386
2746.27578	0.21125
2744.34722	0.20891
2742.41865	0.20686
2740.49009	0.20484
2738.56152	0.20256
2736.63296	0.20005
2734.70439	0.19762
2732.77583	0.19552
2730.84727	0.19369
2728.91870	0.19174
2726.99014	0.18963
2725.06157	0.18770
2723.13301	0.18606
2721.20444	0.18439
2719.27588	0.18244
2717.34731	0.18040
2715.41875	0.17860
2713.49019	0.17702
2711.56162	0.17542
2709.63306	0.17375
2707.70449	0.17222
2705.77593	0.17089
2703.84736	0.16954
2701.91880	0.16802
2699.99023	0.16655
2698.06167	0.16522
2696.13311	0.16387
2694.20454	0.16249
2692.27598	0.16128
2690.34741	0.16011
2688.41885	0.15892
2686.49028	0.15780
2684.56172	0.15676
2682.63315	0.15569
2680.70459	0.15471
2678.77603	0.15381
2676.84746	0.15285
2674.91890	0.15186
2672.99033	0.15088
2671.06177	0.14990
2669.13320	0.14899
2667.20464	0.14821
2665.27607	0.14747
2663.34751	0.14672
2661.41895	0.14598
2659.49038	0.14535
2657.56182	0.14488
2655.63325	0.14429
2653.70469	0.14350
2651.77612	0.14283
2649.84756	0.14236
2647.91899	0.14187
2645.99043	0.14126
2644.06187	0.14073
2642.13330	0.14035
2640.20474	0.14004
2638.27617	0.13964
2636.34761	0.13915
2634.41904	0.13873
2632.49048	0.13841
2630.56191	0.13816
2628.63335	0.13799
2626.70479	0.13780
2624.77622	0.13755
2622.84766	0.13733
2620.91909	0.13722
2618.99053	0.13714
2617.06196	0.13705
2615.13340	0.13706
2613.20483	0.13715
2611.27627	0.13718
2609.34771	0.13706
2607.41914	0.13689
2605.49058	0.13679
2603.56201	0.13680
2601.63345	0.13683
2599.70488	0.13686
2597.77632	0.13699
2595.84775	0.13727
2593.91919	0.13757
2591.99062	0.13775
2590.06206	0.13785
2588.13350	0.13812
2586.20493	0.13846
2584.27637	0.13865
2582.34780	0.13882
2580.41924	0.13920
2578.49067	0.13971
2576.56211	0.14007
2574.63354	0.14023
2572.70498	0.14052
2570.77642	0.14101
2568.84785	0.14150
2566.91929	0.14192
2564.99072	0.14231
2563.06216	0.14279
2561.13359	0.14332
2559.20503	0.14382
2557.27646	0.14436
2555.34790	0.14500
2553.41934	0.14562
2551.49077	0.14624
2549.56221	0.14684
2547.63364	0.14732
2545.70508	0.14788
2543.77651	0.14865
2541.84795	0.14942
2539.91938	0.15007
2537.99082	0.15071
2536.06226	0.15148
2534.13369	0.15231
2532.20513	0.15302
2530.27656	0.15369
2528.34800	0.15436
2526.41943	0.15500
2524.49087	0.15572
2522.56230	0.15654
2520.63374	0.15735
2518.70518	0.15820
2516.77661	0.15908
2514.84805	0.15987
2512.91948	0.16065
2510.99092	0.16151
2509.06235	0.16245
2507.13379	0.16341
2505.20522	0.16437
2503.27666	0.16522
2501.34810	0.16596
2499.41953	0.16673
2497.49097	0.16753
2495.56240	0.16834
2493.63384	0.16926
2491.70527	0.17025
2489.77671	0.17120
2487.84814	0.17209
2485.91958	0.17297
2483.99102	0.17395
2482.06245	0.17492
2480.13389	0.17581
2478.20532	0.17675
2476.27676	0.17779
2474.34819	0.17871
2472.41963	0.17943
2470.49106	0.18024
2468.56250	0.18132
2466.63394	0.18253
2464.70537	0.18365
2462.77681	0.18459
2460.84824	0.18546
2458.91968	0.18642
2456.99111	0.18742
2455.06255	0.18833
2453.13398	0.18925
2451.20542	0.19028
2449.27686	0.19134
2447.34829	0.19244
2445.41973	0.19356
2443.49116	0.19466
2441.56260	0.19572
2439.63403	0.19675
2437.70547	0.19778
2435.77690	0.19884
2433.84834	0.19988
2431.91978	0.20089
2429.99121	0.20192
2428.06265	0.20304
2426.13408	0.20419
2424.20552	0.20526
2422.27695	0.20627
2420.34839	0.20732
2418.41982	0.20844
2416.49126	0.20966
2414.56270	0.21092
2412.63413	0.21212
2410.70557	0.21330
2408.77700	0.21452
2406.84844	0.21573
2404.91987	0.21693
2402.99131	0.21808
2401.06274	0.21920
2399.13418	0.22043
2397.20562	0.22170
2395.27705	0.22291
2393.34849	0.22413
2391.41992	0.22555
2389.49136	0.22737
2387.56279	0.23012
2385.63423	0.23465
2383.70566	0.24192
2381.77710	0.25219
2379.84854	0.26479
2377.91997	0.27900
2375.99141	0.29518
2374.06284	0.31410
2372.13428	0.33565
2370.20571	0.35877
2368.27715	0.38205
2366.34858	0.40424
2364.42002	0.42386
2362.49146	0.43867
2360.56289	0.44692
2358.63433	0.44744
2356.70576	0.43912
2354.77720	0.42220
2352.84863	0.39940
2350.92007	0.37561
2348.99150	0.36050
2347.06294	0.36095
2345.13437	0.37710
2343.20581	0.39786
2341.27725	0.40818
2339.34868	0.40897
2337.42012	0.40691
2335.49155	0.40474
2333.56299	0.40269
2331.63442	0.40083
2329.70586	0.39833
2327.77729	0.39434
2325.84873	0.38909
2323.92017	0.38322
2321.99160	0.37664
2320.06304	0.36881
2318.13447	0.36015
2316.20591	0.35233
2314.27734	0.34696
2312.34878	0.34394
2310.42021	0.34149
2308.49165	0.33800
2306.56309	0.33341
2304.63452	0.32904
2302.70596	0.32641
2300.77739	0.32523
2298.84883	0.32419
2296.92026	0.32309
2294.99170	0.32213
2293.06313	0.32123
2291.13457	0.32033
2289.20601	0.31955
2287.27744	0.31909
2285.34888	0.31889
2283.42031	0.31921
2281.49175	0.32072
2279.56318	0.32326
2277.63462	0.32592
2275.70605	0.32841
2273.77749	0.33078
2271.84893	0.33296
2269.92036	0.33497
2267.99180	0.33683
2266.06323	0.33862
2264.13467	0.34043
2262.20610	0.34216
2260.27754	0.34374
2258.34897	0.34537
2256.42041	0.34708
2254.49185	0.34876
2252.56328	0.35045
2250.63472	0.35226
2248.70615	0.35420
2246.77759	0.35611
2244.84902	0.35795
2242.92046	0.35984
2240.99189	0.36186
2239.06333	0.36396
2237.13477	0.36605
2235.20620	0.36813
2233.27764	0.37025
2231.34907	0.37237
2229.42051	0.37448
2227.49194	0.37661
2225.56338	0.37885
2223.63481	0.38115
2221.70625	0.38334
2219.77769	0.38541
2217.84912	0.38753
2215.92056	0.38984
2213.99199	0.39213
2212.06343	0.39420
2210.13486	0.39616
2208.20630	0.39824
2206.27773	0.40048
2204.34917	0.40270
2202.42061	0.40475
2200.49204	0.40666
2198.56348	0.40855
2196.63491	0.41048
2194.70635	0.41247
2192.77778	0.41441
2190.84922	0.41632
2188.92065	0.41823
2186.99209	0.42005
2185.06353	0.42176
2183.13496	0.42345
2181.20640	0.42520
2179.27783	0.42695
2177.34927	0.42859
2175.42070	0.43013
2173.49214	0.43165
2171.56357	0.43315
2169.63501	0.43465
2167.70645	0.43611
2165.77788	0.43742
2163.84932	0.43862
2161.92075	0.43977
2159.99219	0.44090
2158.06362	0.44202
2156.13506	0.44310
2154.20649	0.44413
2152.27793	0.44503
2150.34937	0.44584
2148.42080	0.44659
2146.49224	0.44720
2144.56367	0.44764
2142.63511	0.44808
2140.70654	0.44856
2138.77798	0.44901
2136.84941	0.44928
2134.92085	0.44937
2132.99229	0.44936
2131.06372	0.44932
2129.13516	0.44926
2127.20659	0.44920
2125.27803	0.44918
2123.34946	0.44905
2121.42090	0.44877
2119.49233	0.44838
2117.56377	0.44791
2115.63521	0.44736
2113.70664	0.44674
2111.77808	0.44596
2109.84951	0.44500
2107.92095	0.44403
2105.99238	0.44306
2104.06382	0.44197
2102.13525	0.44078
2100.20669	0.43960
2098.27812	0.43840
2096.34956	0.43711
2094.42100	0.43577
2092.49243	0.43435
2090.56387	0.43277
2088.63530	0.43109
2086.70674	0.42941
2084.77817	0.42767
2082.84961	0.42581
2080.92104	0.42398
2078.99248	0.42221
2077.06392	0.42033
2075.13535	0.41824
2073.20679	0.41610
2071.27822	0.41398
2069.34966	0.41193
2067.42109	0.40997
2065.49253	0.40797
2063.56396	0.40570
2061.63540	0.40324
2059.70684	0.40074
2057.77827	0.39818
2055.84971	0.39568
2053.92114	0.39332
2051.99258	0.39093
2050.06401	0.38845
2048.13545	0.38597
2046.20688	0.38342
2044.27832	0.38085
2042.34976	0.37832
2040.42119	0.37564
2038.49263	0.37283
2036.56406	0.37014
2034.63550	0.36755
2032.70693	0.36490
2030.77837	0.36221
2028.84980	0.35953
2026.92124	0.35687
2024.99268	0.35417
2023.06411	0.35136
2021.13555	0.34855
2019.20698	0.34599
2017.27842	0.34353
2015.34985	0.34075
2013.42129	0.33785
2011.49272	0.33512
2009.56416	0.33248
2007.63560	0.32974
2005.70703	0.32699
2003.77847	0.32440
2001.84990	0.32191
1999.92134	0.31937
1997.99277	0.31678
1996.06421	0.31422
1994.13564	0.31186
1992.20708	0.30967
1990.27852	0.30728
1988.34995	0.30464
1986.42139	0.30190
1984.49282	0.29919
1982.56426	0.29666
1980.63569	0.29436
1978.70713	0.29218
1976.77856	0.28993
1974.85000	0.28764
1972.92144	0.28543
1970.99287	0.28338
1969.06431	0.28165
1967.13574	0.28004
1965.20718	0.27795
1963.27861	0.27558
1961.35005	0.27343
1959.42148	0.27148
1957.49292	0.26961
1955.56436	0.26778
1953.63579	0.26599
1951.70723	0.26428
1949.77866	0.26269
1947.85010	0.26126
1945.92153	0.26001
1943.99297	0.25891
1942.06440	0.25757
1940.13584	0.25567
1938.20728	0.25373
1936.27871	0.25213
1934.35015	0.25072
1932.42158	0.24947
1930.49302	0.24832
1928.56445	0.24719
1926.63589	0.24610
1924.70732	0.24537
1922.77876	0.24476
1920.85020	0.24373
1918.92163	0.24272
1916.99307	0.24179
1915.06450	0.24052
1913.13594	0.23934
1911.20737	0.23878
1909.27881	0.23842
1907.35024	0.23769
1905.42168	0.23669
1903.49312	0.23585
1901.56455	0.23517
1899.63599	0.23457
1897.70742	0.23420
1895.77886	0.23403
1893.85029	0.23374
1891.92173	0.23343
1889.99316	0.23351
1888.06460	0.23323
1886.13604	0.23248
1884.20747	0.23197
1882.27891	0.23166
1880.35034	0.23136
1878.42178	0.23116
1876.49321	0.23114
1874.56465	0.23122
1872.63608	0.23159
1870.70752	0.23262
1868.77896	0.23413
1866.85039	0.23444
1864.92183	0.23336
1862.99326	0.23259
1861.06470	0.23257
1859.13613	0.23292
1857.20757	0.23321
1855.27900	0.23347
1853.35044	0.23380
1851.42187	0.23441
1849.49331	0.23541
1847.56475	0.23674
1845.63618	0.23827
1843.70762	0.23948
1841.77905	0.23949
1839.85049	0.23920
1837.92192	0.23987
1835.99336	0.24090
1834.06479	0.24174
1832.13623	0.24297
1830.20767	0.24508
1828.27910	0.24681
1826.35054	0.24753
1824.42197	0.24840
1822.49341	0.24915
1820.56484	0.24990
1818.63628	0.25115
1816.70771	0.25281
1814.77915	0.25454
1812.85059	0.25659
1810.92202	0.25901
1808.99346	0.26108
1807.06489	0.26270
1805.13633	0.26443
1803.20776	0.26685
1801.27920	0.26988
1799.35063	0.27297
1797.42207	0.27539
1795.49351	0.27780
1793.56494	0.28112
1791.63638	0.28521
1789.70781	0.28803
1787.77925	0.28968
1785.85068	0.29247
1783.92212	0.29633
1781.99355	0.30054
1780.06499	0.30482
1778.13643	0.30889
1776.20786	0.31288
1774.27930	0.31797
1772.35073	0.32497
1770.42217	0.33129
1768.49360	0.33556
1766.56504	0.33980
1764.63647	0.34477
1762.70791	0.35090
1760.77935	0.35860
1758.85078	0.36555
1756.92222	0.37258
1754.99365	0.38019
1753.06509	0.38732
1751.13652	0.39654
1749.20796	0.40820
1747.27939	0.41869
1745.35083	0.42721
1743.42227	0.43636
1741.49370	0.44677
1739.56514	0.45916
1737.63657	0.47160
1735.70801	0.48297
1733.77944	0.50039
1731.85088	0.51998
1729.92231	0.53429
1727.99375	0.54885
1726.06519	0.56507
1724.13662	0.58338
1722.20806	0.60333
1720.27949	0.62215
1718.35093	0.64510
1716.42236	0.67829
1714.49380	0.70769
1712.56523	0.73069
1710.63667	0.75373
1708.70811	0.77930
1706.77954	0.80878
1704.85098	0.84366
1702.92241	0.87422
1700.99385	0.90423
1699.06528	0.94907
1697.13672	0.98989
1695.20815	1.03027
1693.27959	1.06847
1691.35103	1.09942
1689.42246	1.13598
1687.49390	1.17459
1685.56533	1.21145
1683.63677	1.26723
1681.70820	1.32428
1679.77964	1.36068
1677.85107	1.39557
1675.92251	1.43575
1673.99395	1.48570
1672.06538	1.53080
1670.13682	1.57496
1668.20825	1.63012
1666.27969	1.67309
1664.35112	1.70866
1662.42256	1.75231
1660.49399	1.80094
1658.56543	1.83961
1656.63687	1.87251
1654.70830	1.90545
1652.77974	1.96117
1650.85117	2.01360
1648.92261	2.03415
1646.99404	2.06375
1645.06548	2.09846
1643.13691	2.12140
1641.20835	2.13760
1639.27979	2.15344
1637.35122	2.16525
1635.42266	2.16874
1633.49409	2.16277
1631.56553	2.15223
1629.63696	2.14027
1627.70840	2.11914
1625.77983	2.09198
1623.85127	2.05627
1621.92271	2.01343
1619.99414	1.97482
1618.06558	1.93503
1616.13701	1.87623
1614.20845	1.81471
1612.27988	1.76804
1610.35132	1.72075
1608.42275	1.66949
1606.49419	1.61736
1604.56562	1.56784
1602.63706	1.51979
1600.70850	1.47315
1598.77993	1.42976
1596.85137	1.38813
1594.92280	1.34749
1592.99424	1.30825
1591.06567	1.27217
1589.13711	1.23826
1587.20854	1.20644
1585.27998	1.17656
1583.35142	1.14790
1581.42285	1.12099
1579.49429	1.09776
1577.56572	1.07715
1575.63716	1.05117
1573.70859	1.02649
1571.78003	1.00993
1569.85146	0.99253
1567.92290	0.97174
1565.99434	0.95444
1564.06577	0.93978
1562.13721	0.92790
1560.20864	0.91867
1558.28008	0.90130
1556.35151	0.88243
1554.42295	0.87015
1552.49438	0.85845
1550.56582	0.84764
1548.63726	0.83726
1546.70869	0.82862
1544.78013	0.82208
1542.85156	0.81625
1540.92300	0.80841
1538.99443	0.79460
1537.06587	0.78364
1535.13730	0.77727
1533.20874	0.77000
1531.28018	0.76158
1529.35161	0.75557
1527.42305	0.75082
1525.49448	0.74600
1523.56592	0.74151
1521.63735	0.73656
1519.70879	0.72981
1517.78022	0.72356
1515.85166	0.71740
1513.92310	0.71130
1511.99453	0.70687
1510.06597	0.70425
1508.13740	0.70297
1506.20884	0.69815
1504.28027	0.69029
1502.35171	0.68543
1500.42314	0.68223
1498.49458	0.67955
1496.56602	0.67604
1494.63745	0.67166
1492.70889	0.66847
1490.78032	0.66678
1488.85176	0.66453
1486.92319	0.66036
1484.99463	0.65606
1483.06606	0.65265
1481.13750	0.64970
1479.20894	0.64699
1477.28037	0.64498
1475.35181	0.64363
1473.42324	0.64196
1471.49468	0.63804
1469.56611	0.63329
1467.63755	0.63013
1465.70898	0.62824
1463.78042	0.62594
1461.85186	0.62333
1459.92329	0.62210
1457.99473	0.62207
1456.06616	0.62023
1454.13760	0.61617
1452.20903	0.61300
1450.28047	0.61087
1448.35190	0.60922
1446.42334	0.60730
1444.49478	0.60532
1442.56621	0.60379
1440.63765	0.60258
1438.70908	0.60176
1436.78052	0.60112
1434.85195	0.59967
1432.92339	0.59777
1430.99482	0.59626
1429.06626	0.59467
1427.13770	0.59291
1425.20913	0.59159
1423.28057	0.59056
1421.35200	0.58958
1419.42344	0.58884
1417.49487	0.58738
1415.56631	0.58491
1413.63774	0.58277
1411.70918	0.58119
1409.78062	0.57981
1407.85205	0.57856
1405.92349	0.57756
1403.99492	0.57633
1402.06636	0.57493
1400.13779	0.57419
1398.20923	0.57379
1396.28066	0.57288
1394.35210	0.57118
1392.42354	0.56903
1390.49497	0.56740
1388.56641	0.56653
1386.63784	0.56555
1384.70928	0.56395
1382.78071	0.56241
1380.85215	0.56130
1378.92358	0.56054
1376.99502	0.56007
1375.06646	0.55979
1373.13789	0.55889
1371.20933	0.55729
1369.28076	0.55588
1367.35220	0.55471
1365.42363	0.55378
1363.49507	0.55336
1361.56650	0.55278
1359.63794	0.55147
1357.70937	0.55026
1355.78081	0.54945
1353.85225	0.54869
1351.92368	0.54790
1349.99512	0.54716
1348.06655	0.54637
1346.13799	0.54547
1344.20942	0.54453
1342.28086	0.54391
1340.35229	0.54384
1338.42373	0.54350
1336.49517	0.54225
1334.56660	0.54080
1332.63804	0.53965
1330.70947	0.53873
1328.78091	0.53790
1326.85234	0.53718
1324.92378	0.53652
1322.99521	0.53582
1321.06665	0.53515
1319.13809	0.53454
1317.20952	0.53382
1315.28096	0.53304
1313.35239	0.53237
1311.42383	0.53168
1309.49526	0.53084
1307.56670	0.53005
1305.63813	0.52935
1303.70957	0.52852
1301.78101	0.52758
1299.85244	0.52684
1297.92388	0.52633
1295.99531	0.52578
1294.06675	0.52514
1292.13818	0.52450
1290.20962	0.52396
1288.28105	0.52355
1286.35249	0.52314
1284.42393	0.52273
1282.49536	0.52236
1280.56680	0.52205
1278.63823	0.52163
1276.70967	0.52105
1274.78110	0.52054
1272.85254	0.52023
1270.92397	0.51982
1268.99541	0.51925
1267.06685	0.51871
1265.13828	0.51832
1263.20972	0.51814
1261.28115	0.51806
1259.35259	0.51777
1257.42402	0.51731
1255.49546	0.51699
1253.56689	0.51673
1251.63833	0.51649
1249.70977	0.51636
1247.78120	0.51622
1245.85264	0.51598
1243.92407	0.51570
1241.99551	0.51536
1240.06694	0.51495
1238.13838	0.51446
1236.20981	0.51397
1234.28125	0.51353
1232.35269	0.51306
1230.42412	0.51254
1228.49556	0.51214
1226.56699	0.51182
1224.63843	0.51135
1222.70986	0.51066
1220.78130	0.50997
1218.85273	0.50938
1216.92417	0.50886
1214.99561	0.50835
1213.06704	0.50780
1211.13848	0.50719
1209.20991	0.50653
1207.28135	0.50588
1205.35278	0.50530
1203.42422	0.50476
1201.49565	0.50421
1199.56709	0.50375
1197.63853	0.50339
1195.70996	0.50303
1193.78140	0.50265
1191.85283	0.50219
1189.92427	0.50177
1187.99570	0.50156
1186.06714	0.50155
1184.13857	0.50156
1182.21001	0.50154
1180.28145	0.50153
1178.35288	0.50168
1176.42432	0.50204
1174.49575	0.50244
1172.56719	0.50264
1170.63862	0.50273
1168.71006	0.50296
1166.78149	0.50319
1164.85293	0.50325
1162.92437	0.50333
1160.99580	0.50346
1159.06724	0.50334
1157.13867	0.50281
1155.21011	0.50193
1153.28154	0.50072
1151.35298	0.49932
1149.42441	0.49780
1147.49585	0.49605
1145.56729	0.49406
1143.63872	0.49191
1141.71016	0.48964
1139.78159	0.48739
1137.85303	0.48523
1135.92446	0.48321
1133.99590	0.48138
1132.06733	0.47971
1130.13877	0.47807
1128.21021	0.47638
1126.28164	0.47480
1124.35308	0.47344
1122.42451	0.47236
1120.49595	0.47173
1118.56738	0.47150
1116.63882	0.47144
1114.71025	0.47155
1112.78169	0.47176
1110.85312	0.47205
1108.92456	0.47247
1106.99600	0.47321
1105.06743	0.47444
1103.13887	0.47599
1101.21030	0.47778
1099.28174	0.48010
1097.35317	0.48299
1095.42461	0.48618
1093.49604	0.48963
1091.56748	0.49360
1089.63892	0.49813
1087.71035	0.50340
1085.78179	0.50964
1083.85322	0.51620
1081.92466	0.52231
1079.99609	0.52780
1078.06753	0.53181
1076.13896	0.53307
1074.21040	0.53140
1072.28184	0.52754
1070.35327	0.52211
1068.42471	0.51584
1066.49614	0.50951
1064.56758	0.50346
1062.63901	0.49794
1060.71045	0.49305
1058.78188	0.48856
1056.85332	0.48447
1054.92476	0.48102
1052.99619	0.47831
1051.06763	0.47603
1049.13906	0.47378
1047.21050	0.47183
1045.28193	0.47045
1043.35337	0.46938
1041.42480	0.46836
1039.49624	0.46758
1037.56768	0.46712
1035.63911	0.46690
1033.71055	0.46690
1031.78198	0.46699
1029.85342	0.46714
1027.92485	0.46742
1025.99629	0.46783
1024.06772	0.46836
1022.13916	0.46905
1020.21060	0.46991
1018.28203	0.47087
1016.35347	0.47191
1014.42490	0.47304
1012.49634	0.47432
1010.56777	0.47581
1008.63921	0.47750
1006.71064	0.47923
1004.78208	0.48100
1002.85352	0.48312
1000.92495	0.48583
998.99639	0.48890
997.06782	0.49226
995.13926	0.49595
993.21069	0.49967
991.28213	0.50299
989.35356	0.50557
987.42500	0.50741
985.49644	0.50867
983.56787	0.50953
981.63931	0.51047
979.71074	0.51193
977.78218	0.51379
975.85361	0.51603
973.92505	0.51892
971.99648	0.52244
970.06792	0.52602
968.13936	0.52933
966.21079	0.53287
964.28223	0.53713
962.35366	0.54195
960.42510	0.54701
958.49653	0.55239
956.56797	0.55829
954.63940	0.56445
952.71084	0.57049
950.78228	0.57653
948.85371	0.58288
946.92515	0.58935
944.99658	0.59529
943.06802	0.60061
941.13945	0.60587
939.21089	0.61173
937.28232	0.61817
935.35376	0.62456
933.42520	0.63017
931.49663	0.63486
929.56807	0.63979
927.63950	0.64560
925.71094	0.65144
923.78237	0.65694
921.85381	0.66290
919.92524	0.66981
917.99668	0.67702
916.06812	0.68416
914.13955	0.69157
912.21099	0.69920
910.28242	0.70657
908.35386	0.71402
906.42529	0.72248
904.49673	0.73172
902.56816	0.74033
900.63960	0.74793
898.71104	0.75610
896.78247	0.76566
894.85391	0.77593
892.92534	0.78696
890.99678	0.79816
889.06821	0.80826
887.13965	0.81728
885.21108	0.82633
883.28252	0.83727
881.35396	0.85029
879.42539	0.86362
877.49683	0.87550
875.56826	0.88593
873.63970	0.89686
871.71113	0.90890
869.78257	0.92035
867.85400	0.93062
865.92544	0.94169
863.99687	0.95416
862.06831	0.96516
860.13975	0.97403
858.21118	0.98354
856.28262	0.99451
854.35405	1.00691
852.42549	1.01959
850.49692	1.03091
848.56836	1.04243
846.63979	1.05408
844.71123	1.06608
842.78267	1.08039
840.85410	1.09327
838.92554	1.10170
836.99697	1.11033
835.06841	1.12117
833.13984	1.13017
831.21128	1.13836
829.28271	1.15076
827.35415	1.16379
825.42559	1.17251
823.49702	1.18314
821.56846	1.19738
819.63989	1.20507
817.71133	1.20365
815.78276	1.20459
813.85420	1.21300
811.92563	1.22459
809.99707	1.23857
808.06851	1.24937
806.13994	1.25414
804.21138	1.25816
802.28281	1.25809
800.35425	1.26427
798.42568	1.29333
796.49712	1.32101
794.56855	1.31751
792.63999	1.30143
790.71143	1.29689
788.78286	1.29937
786.85430	1.30220
784.92573	1.31706
782.99717	1.33083
781.06860	1.32085
779.14004	1.27233
777.21147	1.21804
775.28291	1.20808
773.35435	1.22206
771.42578	1.24389
769.49722	1.28745
767.56865	1.29864
765.64009	1.23407
763.71152	1.14586
761.78296	1.08411
759.85439	1.09512
757.92583	1.21001
755.99727	1.33495
754.06870	1.28579
752.14014	1.18110
750.21157	1.10111
748.28301	1.04243
746.35444	1.01286
744.42588	0.98470
742.49731	0.94969
740.56875	0.89665
738.64019	0.80608
736.71162	0.72919
734.78306	0.71015
732.85449	0.73728
730.92593	0.79452
728.99736	0.72336
727.06880	0.49556
725.14023	0.39073
723.21167	0.41366
721.28311	0.27338
719.35454	0.04168
717.42598	0.00704
715.49741	0.02438
713.56885	-0.01313
711.64028	-0.05212
709.71172	-0.06651
707.78315	-0.03013
705.85459	0.04801
703.92603	0.15132
701.99746	0.21177
700.06890	0.18723
698.14033	0.08513
696.21177	-0.00978
694.28320	0.06965
692.35464	0.23319
690.42607	0.25031
688.49751	0.19873
686.56895	0.23454
684.64038	0.35374
682.71182	0.45733
680.78325	0.33609
678.85469	0.19424
676.92612	0.11028
674.99756	0.07097
673.06899	0.07566
671.14043	0.12436
669.21187	0.20143
667.28330	0.24022
665.35474	0.21112
663.42617	0.14223
661.49761	0.10370
659.56904	0.15642
657.64048	0.29703
655.71191	0.34966
653.78335	0.26718
651.85479	0.22823
649.92622	0.23247
647.99766	0.22676
646.06909	0.22722
644.14053	0.20054
642.21196	0.11668
640.28340	0.04687
638.35483	0.04895
636.42627	0.12083
634.49771	0.26039
632.56914	0.34175
630.64058	0.28094
628.71201	0.22800
626.78345	0.20256
624.85488	0.16514
622.92632	0.16981
620.99775	0.29845
619.06919	0.39843
617.14062	0.27191
615.21206	0.21582
613.28350	0.26579
611.35493	0.27354
609.42637	0.24872
607.49780	0.27463
605.56924	0.34417
603.64067	0.32206
601.71211	0.14566
599.78354	0.06654
597.85498	0.10929
595.92642	0.12063
593.99785	0.09324
592.06929	0.09736
590.14072	0.09682
588.21216	0.06330
586.28359	0.09021
584.35503	0.18997
582.42646	0.22481
580.49790	0.16939
578.56934	0.11484
576.64077	0.09844
574.71221	0.11240
572.78364	0.14934
570.85508	0.15039
568.92651	0.11867
566.99795	0.11478
565.06938	0.14622
563.14082	0.16588
561.21226	0.16187
559.28369	0.13924
557.35513	0.11287
555.42656	0.12820
553.49800	0.15285
551.56943	0.15388
549.64087	0.15429
547.71230	0.15034
545.78374	0.11613
543.85518	0.07297
541.92661	0.08740
539.99805	0.13340
538.06948	0.14223
536.14092	0.12765
534.21235	0.12192
532.28379	0.13605
530.35522	0.15942
528.42666	0.16515
526.49810	0.14855
524.56953	0.13445
522.64097	0.14988
520.71240	0.19343
518.78384	0.24417
516.85527	0.27320
514.92671	0.25104
512.99814	0.17914
511.06958	0.10525
509.14102	0.07518
507.21245	0.11520
505.28389	0.17699
503.35532	0.14855
501.42676	0.09105
499.49819	0.09821
