3997.91411	0.06451
3995.98555	0.06511
3994.05698	0.06585
3992.12842	0.06605
3990.19985	0.06599
3988.27129	0.06617
3986.34272	0.06659
3984.41416	0.06716
3982.48560	0.06769
3980.55703	0.06789
3978.62847	0.06786
3976.69990	0.06796
3974.77134	0.06832
3972.84277	0.06895
3970.91421	0.06968
3968.98564	0.06982
3967.05708	0.06925
3965.12852	0.06873
3963.19995	0.06876
3961.27139	0.06925
3959.34282	0.06972
3957.41426	0.06954
3955.48569	0.06917
3953.55713	0.06946
3951.62856	0.07005
3949.70000	0.07041
3947.77144	0.07065
3945.84287	0.07068
3943.91431	0.07077
3941.98574	0.07128
3940.05718	0.07142
3938.12861	0.07082
3936.20005	0.07025
3934.27148	0.07024
3932.34292	0.07094
3930.41436	0.07213
3928.48579	0.07254
3926.55723	0.07191
3924.62866	0.07171
3922.70010	0.07202
3920.77153	0.07191
3918.84297	0.07146
3916.91440	0.07098
3914.98584	0.07061
3913.05728	0.07018
3911.12871	0.06979
3909.20015	0.06971
3907.27158	0.07029
3905.34302	0.07209
3903.41445	0.07438
3901.48589	0.07525
3899.55732	0.07469
3897.62876	0.07314
3895.70020	0.07122
3893.77163	0.07049
3891.84307	0.07131
3889.91450	0.07189
3887.98594	0.07136
3886.05737	0.07164
3884.12881	0.07274
3882.20024	0.07329
3880.27168	0.07388
3878.34312	0.07391
3876.41455	0.07302
3874.48599	0.07307
3872.55742	0.07429
3870.62886	0.07552
3868.70029	0.07615
3866.77173	0.07593
3864.84316	0.07614
3862.91460	0.07682
3860.98604	0.07630
3859.05747	0.07544
3857.12891	0.07560
3855.20034	0.07708
3853.27178	0.08037
3851.34321	0.08252
3849.41465	0.08023
3847.48608	0.07787
3845.55752	0.07750
3843.62896	0.07881
3841.70039	0.08090
3839.77183	0.08335
3837.84326	0.08560
3835.91470	0.08574
3833.98613	0.08436
3832.05757	0.08355
3830.12900	0.08344
3828.20044	0.08385
3826.27187	0.08485
3824.34331	0.08580
3822.41475	0.08733
3820.48618	0.09046
3818.55762	0.09227
3816.62905	0.09235
3814.70049	0.09249
3812.77192	0.09158
3810.84336	0.09055
3808.91479	0.09101
3806.98623	0.09319
3805.05767	0.09551
3803.12910	0.09728
3801.20054	0.09964
3799.27197	0.10089
3797.34341	0.10069
3795.41484	0.10100
3793.48628	0.10106
3791.55771	0.10092
3789.62915	0.10149
3787.70059	0.10261
3785.77202	0.10424
3783.84346	0.10641
3781.91489	0.10830
3779.98633	0.11000
3778.05776	0.11182
3776.12920	0.11287
3774.20063	0.11384
3772.27207	0.11578
3770.34351	0.11889
3768.41494	0.12227
3766.48638	0.12430
3764.55781	0.12552
3762.62925	0.12685
3760.70068	0.12907
3758.77212	0.13259
3756.84355	0.13581
3754.91499	0.13810
3752.98643	0.14140
3751.05786	0.14713
3749.12930	0.15302
3747.20073	0.15519
3745.27217	0.15692
3743.34360	0.16147
3741.41504	0.16685
3739.48647	0.17172
3737.55791	0.17781
3735.62935	0.18608
3733.70078	0.19455
3731.77222	0.20022
3729.84365	0.20451
3727.91509	0.20883
3725.98652	0.21438
3724.05796	0.22092
3722.12939	0.22661
3720.20083	0.23078
3718.27227	0.23378
3716.34370	0.23718
3714.41514	0.24281
3712.48657	0.25343
3710.55801	0.27122
3708.62944	0.28888
3706.70088	0.30051
3704.77231	0.31095
3702.84375	0.32391
3700.91519	0.34094
3698.98662	0.35927
3697.05806	0.37630
3695.12949	0.39426
3693.20093	0.41374
3691.27236	0.43536
3689.34380	0.46281
3687.41523	0.49603
3685.48667	0.52523
3683.55811	0.55021
3681.62954	0.57731
3679.70098	0.60893
3677.77241	0.64315
3675.84385	0.68371
3673.91528	0.73703
3671.98672	0.77964
3670.05815	0.81792
3668.12959	0.87111
3666.20103	0.91901
3664.27246	0.95875
3662.34390	1.00216
3660.41533	1.04972
3658.48677	1.09655
3656.55820	1.14668
3654.62964	1.20334
3652.70107	1.25068
3650.77251	1.29200
3648.84395	1.35001
3646.91538	1.41948
3644.98682	1.46855
3643.05825	1.50711
3641.12969	1.54788
3639.20112	1.59336
3637.27256	1.63970
3635.34399	1.68505
3633.41543	1.73014
3631.48687	1.77236
3629.55830	1.81525
3627.62974	1.87122
3625.70117	1.92328
3623.77261	1.95766
3621.84404	1.98955
3619.91548	2.02568
3617.98691	2.06929
3616.05835	2.11118
3614.12979	2.14677
3612.20122	2.18552
3610.27266	2.22528
3608.34409	2.26647
3606.41553	2.31178
3604.48696	2.35336
3602.55840	2.38872
3600.62983	2.42602
3598.70127	2.46685
3596.77271	2.50642
3594.84414	2.54594
3592.91558	2.58732
3590.98701	2.62738
3589.05845	2.66583
3587.12988	2.71189
3585.20132	2.76004
3583.27275	2.79808
3581.34419	2.83316
3579.41562	2.87133
3577.48706	2.91260
3575.55850	2.95577
3573.62993	3.00064
3571.70137	3.04383
3569.77280	3.08396
3567.84424	3.12610
3565.91567	3.17746
3563.98711	3.22598
3562.05854	3.26566
3560.12998	3.30636
3558.20142	3.34992
3556.27285	3.39495
3554.34429	3.43943
3552.41572	3.48550
3550.48716	3.53284
3548.55859	3.57823
3546.63003	3.62385
3544.70146	3.67372
3542.77290	3.72554
3540.84434	3.77418
3538.91577	3.81855
3536.98721	3.86131
3535.05864	3.90787
3533.13008	3.95632
3531.20151	4.00357
3529.27295	4.05104
3527.34438	4.10064
3525.41582	4.14887
3523.48726	4.19217
3521.55869	4.23514
3519.63013	4.28094
3517.70156	4.32896
3515.77300	4.37862
3513.84443	4.43140
3511.91587	4.48233
3509.98730	4.52681
3508.05874	4.57286
3506.13018	4.62349
3504.20161	4.67090
3502.27305	4.71464
3500.34448	4.76029
3498.41592	4.80484
3496.48735	4.84832
3494.55879	4.90019
3492.63022	4.95977
3490.70166	5.01535
3488.77310	5.06209
3486.84453	5.10295
3484.91597	5.14464
3482.98740	5.19383
3481.05884	5.24827
3479.13027	5.29836
3477.20171	5.34323
3475.27314	5.38724
3473.34458	5.43356
3471.41602	5.48355
3469.48745	5.53271
3467.55889	5.57634
3465.63032	5.61881
3463.70176	5.66676
3461.77319	5.71433
3459.84463	5.76719
3457.91606	5.82680
3455.98750	5.88215
3454.05894	5.94283
3452.13037	6.01025
3450.20181	6.06465
3448.27324	6.10456
3446.34468	6.14851
3444.41611	6.19699
3442.48755	6.24817
3440.55898	6.29485
3438.63042	6.33371
3436.70186	6.37166
3434.77329	6.39701
3432.84473	6.42334
3430.91616	6.48389
3428.98760	6.57397
3427.05903	6.65728
3425.13047	6.72342
3423.20190	6.76888
3421.27334	6.79960
3419.34478	6.83916
3417.41621	6.87964
3415.48765	6.91230
3413.55908	6.95016
3411.63052	7.00080
3409.70195	7.05417
3407.77339	7.10191
3405.84482	7.13855
3403.91626	7.17043
3401.98770	7.19590
3400.05913	7.24026
3398.13057	7.32272
3396.20200	7.38703
3394.27344	7.40161
3392.34487	7.39491
3390.41631	7.39836
3388.48774	7.42866
3386.55918	7.50815
3384.63062	7.57100
3382.70205	7.58322
3380.77349	7.63550
3378.84492	7.72434
3376.91636	7.79135
3374.98779	7.82055
3373.05923	7.82096
3371.13066	7.77460
3369.20210	7.75478
3367.27354	7.83756
3365.34497	7.92034
3363.41641	7.89861
3361.48784	7.83988
3359.55928	7.81902
3357.63071	7.82602
3355.70215	7.86073
3353.77358	7.90985
3351.84502	7.91608
3349.91646	7.86181
3347.98789	7.85171
3346.05933	7.90332
3344.13076	7.90210
3342.20220	7.86023
3340.27363	7.87558
3338.34507	7.94325
3336.41650	7.99109
3334.48794	8.08759
3332.55937	8.23549
3330.63081	8.26896
3328.70225	8.19209
3326.77368	8.13610
3324.84512	8.10098
3322.91655	8.01892
3320.98799	7.92253
3319.05942	7.87800
3317.13086	7.91153
3315.20229	7.94971
3313.27373	7.99945
3311.34517	8.12857
3309.41660	8.22705
3307.48804	8.23447
3305.55947	8.23802
3303.63091	8.28635
3301.70234	8.33446
3299.77378	8.29904
3297.84521	8.19292
3295.91665	8.10314
3293.98809	8.08429
3292.05952	8.14066
3290.13096	8.18627
3288.20239	8.18457
3286.27383	8.18965
3284.34526	8.17886
3282.41670	8.11899
3280.48813	8.06062
3278.55957	8.10270
3276.63101	8.18226
3274.70244	8.19449
3272.77388	8.17630
3270.84531	8.08850
3268.91675	7.91147
3266.98818	7.81515
3265.05962	7.94921
3263.13105	8.22743
3261.20249	8.31873
3259.27393	8.12250
3257.34536	7.99142
3255.41680	8.06614
3253.48823	8.16938
3251.55967	8.14164
3249.63110	8.07766
3247.70254	8.10054
3245.77397	8.09637
3243.84541	8.00494
3241.91685	7.98078
3239.98828	8.05943
3238.05972	8.13609
3236.13115	8.16111
3234.20259	8.15047
3232.27402	8.11717
3230.34546	8.07090
3228.41689	7.98666
3226.48833	7.91047
3224.55977	7.90838
3222.63120	7.93048
3220.70264	7.89389
3218.77407	7.83997
3216.84551	7.86897
3214.91694	7.94481
3212.98838	7.95067
3211.05981	7.89835
3209.13125	7.86593
3207.20269	7.84156
3205.27412	7.78080
3203.34556	7.72459
3201.41699	7.71735
3199.48843	7.71011
3197.55986	7.65765
3195.63130	7.60344
3193.70273	7.58879
3191.77417	7.55968
3189.84561	7.48248
3187.91704	7.42273
3185.98848	7.41854
3184.05991	7.41841
3182.13135	7.34830
3180.20278	7.23639
3178.27422	7.15482
3176.34565	7.09475
3174.41709	7.02498
3172.48853	6.97170
3170.55996	6.94228
3168.63140	6.90941
3166.70283	6.86453
3164.77427	6.80638
3162.84570	6.73522
3160.91714	6.65750
3158.98857	6.57717
3157.06001	6.49173
3155.13145	6.41909
3153.20288	6.36692
3151.27432	6.31266
3149.34575	6.25133
3147.41719	6.19422
3145.48862	6.13912
3143.56006	6.06942
3141.63149	5.98604
3139.70293	5.90457
3137.77437	5.82762
3135.84580	5.75379
3133.91724	5.68632
3131.98867	5.61848
3130.06011	5.55188
3128.13154	5.49517
3126.20298	5.42929
3124.27441	5.34746
3122.34585	5.27121
3120.41729	5.20489
3118.48872	5.13684
3116.56016	5.06855
3114.63159	5.00545
3112.70303	4.93729
3110.77446	4.86021
3108.84590	4.78526
3106.91733	4.71673
3104.98877	4.65065
3103.06021	4.58613
3101.13164	4.52162
3099.20308	4.45548
3097.27451	4.38881
3095.34595	4.32251
3093.41738	4.25890
3091.48882	4.19526
3089.56025	4.12819
3087.63169	4.06180
3085.70312	3.99904
3083.77456	3.93866
3081.84600	3.87899
3079.91743	3.81865
3077.98887	3.75815
3076.06030	3.69973
3074.13174	3.64340
3072.20317	3.58716
3070.27461	3.52995
3068.34604	3.47300
3066.41748	3.41755
3064.48892	3.36158
3062.56035	3.30510
3060.63179	3.25101
3058.70322	3.19830
3056.77466	3.14534
3054.84609	3.09281
3052.91753	3.04056
3050.98896	2.98908
3049.06040	2.93962
3047.13184	2.89113
3045.20327	2.84233
3043.27471	2.79387
3041.34614	2.74643
3039.41758	2.70003
3037.48901	2.65437
3035.56045	2.60936
3033.63188	2.56500
3031.70332	2.52068
3029.77476	2.47638
3027.84619	2.43327
3025.91763	2.39179
3023.98906	2.35107
3022.06050	2.31028
3020.13193	2.26947
3018.20337	2.22942
3016.27480	2.19032
3014.34624	2.15170
3012.41768	2.11371
3010.48911	2.07665
3008.56055	2.04030
3006.63198	2.00451
3004.70342	1.96906
3002.77485	1.93425
3000.84629	1.90082
2998.91772	1.86814
2996.98916	1.83537
2995.06060	1.80303
2993.13203	1.77153
2991.20347	1.74052
2989.27490	1.70992
2987.34634	1.68032
2985.41777	1.65190
2983.48921	1.62394
2981.56064	1.59575
2979.63208	1.56764
2977.70352	1.54024
2975.77495	1.51352
2973.84639	1.48742
2971.91782	1.46221
2969.98926	1.43742
2968.06069	1.41256
2966.13213	1.38818
2964.20356	1.36415
2962.27500	1.33995
2960.34644	1.31615
2958.41787	1.29294
2956.48931	1.26999
2954.56074	1.24747
2952.63218	1.22497
2950.70361	1.20231
2948.77505	1.18052
2946.84648	1.15997
2944.91792	1.13976
2942.98936	1.11964
2941.06079	1.09994
2939.13223	1.08045
2937.20366	1.06092
2935.27510	1.04125
2933.34653	1.02174
2931.41797	1.00309
2929.48940	0.98526
2927.56084	0.96769
2925.63228	0.95020
2923.70371	0.93283
2921.77515	0.91578
2919.84658	0.89937
2917.91802	0.88350
2915.98945	0.86765
2914.06089	0.85164
2912.13232	0.83593
2910.20376	0.82105
2908.27520	0.80672
2906.34663	0.79275
2904.41807	0.77933
2902.48950	0.76613
2900.56094	0.75293
2898.63237	0.74005
2896.70381	0.72762
2894.77524	0.71547
2892.84668	0.70356
2890.91812	0.69178
2888.98955	0.68023
2887.06099	0.66915
2885.13242	0.65861
2883.20386	0.64848
2881.27529	0.63852
2879.34673	0.62862
2877.41816	0.61871
2875.48960	0.60871
2873.56104	0.59854
2871.63247	0.58839
2869.70391	0.57843
2867.77534	0.56843
2865.84678	0.55790
2863.91821	0.54699
2861.98965	0.53652
2860.06108	0.52678
2858.13252	0.51746
2856.20396	0.50861
2854.27539	0.50034
2852.34683	0.49219
2850.41826	0.48376
2848.48970	0.47535
2846.56113	0.46728
2844.63257	0.45973
2842.70400	0.45293
2840.77544	0.44668
2838.84687	0.44064
2836.91831	0.43464
2834.98975	0.42862
2833.06118	0.42264
2831.13262	0.41669
2829.20405	0.41081
2827.27549	0.40492
2825.34692	0.39900
2823.41836	0.39318
2821.48979	0.38743
2819.56123	0.38165
2817.63267	0.37595
2815.70410	0.37028
2813.77554	0.36463
2811.84697	0.35924
2809.91841	0.35409
2807.98984	0.34898
2806.06128	0.34395
2804.13271	0.33907
2802.20415	0.33431
2800.27559	0.32960
2798.34702	0.32492
2796.41846	0.32035
2794.48989	0.31588
2792.56133	0.31146
2790.63276	0.30705
2788.70420	0.30283
2786.77563	0.29887
2784.84707	0.29494
2782.91851	0.29089
2780.98994	0.28675
2779.06138	0.28277
2777.13281	0.27913
2775.20425	0.27560
2773.27568	0.27196
2771.34712	0.26827
2769.41855	0.26469
2767.48999	0.26126
2765.56143	0.25782
2763.63286	0.25439
2761.70430	0.25122
2759.77573	0.24831
2757.84717	0.24543
2755.91860	0.24246
2753.99004	0.23945
2752.06147	0.23646
2750.13291	0.23361
2748.20435	0.23096
2746.27578	0.22842
2744.34722	0.22588
2742.41865	0.22328
2740.49009	0.22067
2738.56152	0.21818
2736.63296	0.21581
2734.70439	0.21349
2732.77583	0.21109
2730.84727	0.20871
2728.91870	0.20653
2726.99014	0.20450
2725.06157	0.20248
2723.13301	0.20048
2721.20444	0.19849
2719.27588	0.19652
2717.34731	0.19466
2715.41875	0.19280
2713.49019	0.19089
2711.56162	0.18914
2709.63306	0.18760
2707.70449	0.18602
2705.77593	0.18431
2703.84736	0.18267
2701.91880	0.18120
2699.99023	0.17974
2698.06167	0.17826
2696.13311	0.17683
2694.20454	0.17536
2692.27598	0.17392
2690.34741	0.17264
2688.41885	0.17143
2686.49028	0.17020
2684.56172	0.16901
2682.63315	0.16785
2680.70459	0.16667
2678.77603	0.16556
2676.84746	0.16456
2674.91890	0.16354
2672.99033	0.16255
2671.06177	0.16164
2669.13320	0.16061
2667.20464	0.15949
2665.27607	0.15847
2663.34751	0.15753
2661.41895	0.15660
2659.49038	0.15579
2657.56182	0.15507
2655.63325	0.15436
2653.70469	0.15372
2651.77612	0.15310
2649.84756	0.15242
2647.91899	0.15178
2645.99043	0.15119
2644.06187	0.15059
2642.13330	0.15001
2640.20474	0.14955
2638.27617	0.14914
2636.34761	0.14867
2634.41904	0.14818
2632.49048	0.14766
2630.56191	0.14716
2628.63335	0.14685
2626.70479	0.14660
2624.77622	0.14623
2622.84766	0.14582
2620.91909	0.14553
2618.99053	0.14537
2617.06196	0.14524
2615.13340	0.14509
2613.20483	0.14488
2611.27627	0.14471
2609.34771	0.14463
2607.41914	0.14460
2605.49058	0.14465
2603.56201	0.14473
2601.63345	0.14467
2599.70488	0.14450
2597.77632	0.14441
2595.84775	0.14451
2593.91919	0.14467
2591.99062	0.14476
2590.06206	0.14482
2588.13350	0.14484
2586.20493	0.14491
2584.27637	0.14526
2582.34780	0.14578
2580.41924	0.14617
2578.49067	0.14642
2576.56211	0.14665
2574.63354	0.14691
2572.70498	0.14717
2570.77642	0.14742
2568.84785	0.14770
2566.91929	0.14812
2564.99072	0.14862
2563.06216	0.14914
2561.13359	0.14964
2559.20503	0.15013
2557.27646	0.15061
2555.34790	0.15108
2553.41934	0.15162
2551.49077	0.15225
2549.56221	0.15280
2547.63364	0.15320
2545.70508	0.15362
2543.77651	0.15427
2541.84795	0.15502
2539.91938	0.15557
2537.99082	0.15598
2536.06226	0.15653
2534.13369	0.15722
2532.20513	0.15793
2530.27656	0.15872
2528.34800	0.15953
2526.41943	0.16014
2524.49087	0.16068
2522.56230	0.16147
2520.63374	0.16246
2518.70518	0.16336
2516.77661	0.16410
2514.84805	0.16478
2512.91948	0.16547
2510.99092	0.16617
2509.06235	0.16693
2507.13379	0.16772
2505.20522	0.16853
2503.27666	0.16936
2501.34810	0.17016
2499.41953	0.17097
2497.49097	0.17186
2495.56240	0.17269
2493.63384	0.17340
2491.70527	0.17415
2489.77671	0.17499
2487.84814	0.17583
2485.91958	0.17665
2483.99102	0.17757
2482.06245	0.17855
2480.13389	0.17945
2478.20532	0.18029
2476.27676	0.18116
2474.34819	0.18205
2472.41963	0.18297
2470.49106	0.18383
2468.56250	0.18469
2466.63394	0.18571
2464.70537	0.18676
2462.77681	0.18758
2460.84824	0.18831
2458.91968	0.18914
2456.99111	0.19010
2455.06255	0.19117
2453.13398	0.19221
2451.20542	0.19316
2449.27686	0.19404
2447.34829	0.19500
2445.41973	0.19603
2443.49116	0.19707
2441.56260	0.19802
2439.63403	0.19887
2437.70547	0.19981
2435.77690	0.20090
2433.84834	0.20191
2431.91978	0.20282
2429.99121	0.20385
2428.06265	0.20496
2426.13408	0.20607
2424.20552	0.20723
2422.27695	0.20841
2420.34839	0.20957
2418.41982	0.21068
2416.49126	0.21171
2414.56270	0.21278
2412.63413	0.21397
2410.70557	0.21513
2408.77700	0.21628
2406.84844	0.21750
2404.91987	0.21871
2402.99131	0.21986
2401.06274	0.22102
2399.13418	0.22210
2397.20562	0.22315
2395.27705	0.22437
2393.34849	0.22573
2391.41992	0.22726
2389.49136	0.22909
2387.56279	0.23177
2385.63423	0.23645
2383.70566	0.24404
2381.77710	0.25462
2379.84854	0.26763
2377.91997	0.28256
2375.99141	0.29955
2374.06284	0.31938
2372.13428	0.34238
2370.20571	0.36742
2368.27715	0.39265
2366.34858	0.41670
2364.42002	0.43825
2362.49146	0.45541
2360.56289	0.46495
2358.63433	0.46487
2356.70576	0.45517
2354.77720	0.43597
2352.84863	0.41039
2350.92007	0.38435
2348.99150	0.36820
2347.06294	0.36864
2345.13437	0.38595
2343.20581	0.40915
2341.27725	0.42090
2339.34868	0.42124
2337.42012	0.41846
2335.49155	0.41575
2333.56299	0.41288
2331.63442	0.41048
2329.70586	0.40791
2327.77729	0.40382
2325.84873	0.39803
2323.92017	0.39120
2321.99160	0.38356
2320.06304	0.37480
2318.13447	0.36556
2316.20591	0.35749
2314.27734	0.35189
2312.34878	0.34864
2310.42021	0.34594
2308.49165	0.34205
2306.56309	0.33697
2304.63452	0.33220
2302.70596	0.32911
2300.77739	0.32756
2298.84883	0.32648
2296.92026	0.32540
2294.99170	0.32430
2293.06313	0.32321
2291.13457	0.32226
2289.20601	0.32144
2287.27744	0.32065
2285.34888	0.32014
2283.42031	0.32047
2281.49175	0.32194
2279.56318	0.32443
2277.63462	0.32729
2275.70605	0.32987
2273.77749	0.33202
2271.84893	0.33394
2269.92036	0.33592
2267.99180	0.33798
2266.06323	0.33994
2264.13467	0.34167
2262.20610	0.34328
2260.27754	0.34489
2258.34897	0.34655
2256.42041	0.34822
2254.49185	0.34980
2252.56328	0.35139
2250.63472	0.35316
2248.70615	0.35499
2246.77759	0.35679
2244.84902	0.35865
2242.92046	0.36054
2240.99189	0.36242
2239.06333	0.36443
2237.13477	0.36666
2235.20620	0.36891
2233.27764	0.37095
2231.34907	0.37294
2229.42051	0.37510
2227.49194	0.37741
2225.56338	0.37966
2223.63481	0.38182
2221.70625	0.38397
2219.77769	0.38610
2217.84912	0.38827
2215.92056	0.39051
2213.99199	0.39264
2212.06343	0.39463
2210.13486	0.39667
2208.20630	0.39883
2206.27773	0.40102
2204.34917	0.40315
2202.42061	0.40521
2200.49204	0.40726
2198.56348	0.40922
2196.63491	0.41104
2194.70635	0.41285
2192.77778	0.41483
2190.84922	0.41691
2188.92065	0.41891
2186.99209	0.42077
2185.06353	0.42248
2183.13496	0.42413
2181.20640	0.42580
2179.27783	0.42749
2177.34927	0.42916
2175.42070	0.43071
2173.49214	0.43221
2171.56357	0.43367
2169.63501	0.43507
2167.70645	0.43638
2165.77788	0.43763
2163.84932	0.43891
2161.92075	0.44017
2159.99219	0.44134
2158.06362	0.44243
2156.13506	0.44343
2154.20649	0.44433
2152.27793	0.44521
2150.34937	0.44607
2148.42080	0.44683
2146.49224	0.44746
2144.56367	0.44790
2142.63511	0.44816
2140.70654	0.44845
2138.77798	0.44892
2136.84941	0.44938
2134.92085	0.44964
2132.99229	0.44968
2131.06372	0.44957
2129.13516	0.44942
2127.20659	0.44930
2125.27803	0.44919
2123.34946	0.44890
2121.42090	0.44842
2119.49233	0.44785
2117.56377	0.44724
2115.63521	0.44660
2113.70664	0.44593
2111.77808	0.44524
2109.84951	0.44447
2107.92095	0.44354
2105.99238	0.44250
2104.06382	0.44148
2102.13525	0.44047
2100.20669	0.43934
2098.27812	0.43797
2096.34956	0.43647
2094.42100	0.43495
2092.49243	0.43351
2090.56387	0.43203
2088.63530	0.43037
2086.70674	0.42864
2084.77817	0.42688
2082.84961	0.42500
2080.92104	0.42301
2078.99248	0.42110
2077.06392	0.41920
2075.13535	0.41717
2073.20679	0.41511
2071.27822	0.41307
2069.34966	0.41096
2067.42109	0.40882
2065.49253	0.40666
2063.56396	0.40434
2061.63540	0.40197
2059.70684	0.39959
2057.77827	0.39710
2055.84971	0.39459
2053.92114	0.39215
2051.99258	0.38971
2050.06401	0.38720
2048.13545	0.38467
2046.20688	0.38215
2044.27832	0.37962
2042.34976	0.37704
2040.42119	0.37432
2038.49263	0.37150
2036.56406	0.36880
2034.63550	0.36621
2032.70693	0.36357
2030.77837	0.36087
2028.84980	0.35819
2026.92124	0.35556
2024.99268	0.35284
2023.06411	0.34996
2021.13555	0.34708
2019.20698	0.34445
2017.27842	0.34198
2015.34985	0.33932
2013.42129	0.33655
2011.49272	0.33382
2009.56416	0.33109
2007.63560	0.32836
2005.70703	0.32565
2003.77847	0.32291
2001.84990	0.32024
1999.92134	0.31772
1997.99277	0.31527
1996.06421	0.31283
1994.13564	0.31045
1992.20708	0.30815
1990.27852	0.30576
1988.34995	0.30317
1986.42139	0.30048
1984.49282	0.29792
1982.56426	0.29553
1980.63569	0.29321
1978.70713	0.29096
1976.77856	0.28876
1974.85000	0.28657
1972.92144	0.28438
1970.99287	0.28227
1969.06431	0.28032
1967.13574	0.27843
1965.20718	0.27636
1963.27861	0.27424
1961.35005	0.27224
1959.42148	0.27030
1957.49292	0.26844
1955.56436	0.26667
1953.63579	0.26490
1951.70723	0.26313
1949.77866	0.26142
1947.85010	0.25983
1945.92153	0.25849
1943.99297	0.25739
1942.06440	0.25610
1940.13584	0.25432
1938.20728	0.25252
1936.27871	0.25103
1934.35015	0.24970
1932.42158	0.24843
1930.49302	0.24719
1928.56445	0.24604
1926.63589	0.24496
1924.70732	0.24410
1922.77876	0.24341
1920.85020	0.24253
1918.92163	0.24161
1916.99307	0.24066
1915.06450	0.23952
1913.13594	0.23853
1911.20737	0.23790
1909.27881	0.23733
1907.35024	0.23656
1905.42168	0.23572
1903.49312	0.23502
1901.56455	0.23438
1899.63599	0.23375
1897.70742	0.23332
1895.77886	0.23312
1893.85029	0.23286
1891.92173	0.23246
1889.99316	0.23225
1888.06460	0.23200
1886.13604	0.23149
1884.20747	0.23102
1882.27891	0.23074
1880.35034	0.23066
1878.42178	0.23063
1876.49321	0.23057
1874.56465	0.23057
1872.63608	0.23081
1870.70752	0.23138
1868.77896	0.23232
1866.85039	0.23266
1864.92183	0.23215
1862.99326	0.23177
1861.06470	0.23181
1859.13613	0.23207
1857.20757	0.23239
1855.27900	0.23282
1853.35044	0.23329
1851.42187	0.23385
1849.49331	0.23452
1847.56475	0.23536
1845.63618	0.23651
1843.70762	0.23774
1841.77905	0.23828
1839.85049	0.23836
1837.92192	0.23895
1835.99336	0.23986
1834.06479	0.24078
1832.13623	0.24197
1830.20767	0.24378
1828.27910	0.24539
1826.35054	0.24625
1824.42197	0.24727
1822.49341	0.24830
1820.56484	0.24937
1818.63628	0.25070
1816.70771	0.25229
1814.77915	0.25392
1812.85059	0.25577
1810.92202	0.25794
1808.99346	0.25992
1807.06489	0.26160
1805.13633	0.26335
1803.20776	0.26569
1801.27920	0.26851
1799.35063	0.27144
1797.42207	0.27391
1795.49351	0.27637
1793.56494	0.27951
1791.63638	0.28337
1789.70781	0.28639
1787.77925	0.28845
1785.85068	0.29136
1783.92212	0.29505
1781.99355	0.29905
1780.06499	0.30327
1778.13643	0.30741
1776.20786	0.31134
1774.27930	0.31598
1772.35073	0.32239
1770.42217	0.32876
1768.49360	0.33354
1766.56504	0.33812
1764.63647	0.34308
1762.70791	0.34890
1760.77935	0.35651
1758.85078	0.36367
1756.92222	0.37075
1754.99365	0.37832
1753.06509	0.38528
1751.13652	0.39398
1749.20796	0.40497
1747.27939	0.41527
1745.35083	0.42401
1743.42227	0.43339
1741.49370	0.44385
1739.56514	0.45617
1737.63657	0.46862
1735.70801	0.47978
1733.77944	0.49670
1731.85088	0.51642
1729.92231	0.53122
1727.99375	0.54601
1726.06519	0.56221
1724.13662	0.58044
1722.20806	0.60046
1720.27949	0.61896
1718.35093	0.64066
1716.42236	0.67285
1714.49380	0.70293
1712.56523	0.72682
1710.63667	0.75025
1708.70811	0.77572
1706.77954	0.80472
1704.85098	0.83952
1702.92241	0.87064
1700.99385	0.90120
1699.06528	0.94660
1697.13672	0.98849
1695.20815	1.03132
1693.27959	1.07231
1691.35103	1.10515
1689.42246	1.14369
1687.49390	1.18465
1685.56533	1.22378
1683.63677	1.28410
1681.70820	1.34696
1679.77964	1.38699
1677.85107	1.42521
1675.92251	1.46924
1673.99395	1.52401
1672.06538	1.57293
1670.13682	1.62075
1668.20825	1.68261
1666.27969	1.73246
1664.35112	1.77469
1662.42256	1.82765
1660.49399	1.88792
1658.56543	1.93597
1656.63687	1.97513
1654.70830	2.01049
1652.77974	2.06687
1650.85117	2.12277
1648.92261	2.14431
1646.99404	2.17158
1645.06548	2.20187
1643.13691	2.22165
1641.20835	2.23435
1639.27979	2.24704
1637.35122	2.25527
1635.42266	2.25510
1633.49409	2.24729
1631.56553	2.23370
1629.63696	2.21673
1627.70840	2.18984
1625.77983	2.15942
1623.85127	2.12041
1621.92271	2.07104
1619.99414	2.02770
1618.06558	1.98716
1616.13701	1.92767
1614.20845	1.86336
1612.27988	1.81382
1610.35132	1.76345
1608.42275	1.70898
1606.49419	1.65452
1604.56562	1.60364
1602.63706	1.55418
1600.70850	1.50601
1598.77993	1.46206
1596.85137	1.42108
1594.92280	1.38145
1592.99424	1.34330
1591.06567	1.30864
1589.13711	1.27628
1587.20854	1.24596
1585.27998	1.21784
1583.35142	1.19128
1581.42285	1.16655
1579.49429	1.14550
1577.56572	1.12711
1575.63716	1.10415
1573.70859	1.08310
1571.78003	1.06961
1569.85146	1.05585
1567.92290	1.04008
1565.99434	1.02745
1564.06577	1.01708
1562.13721	1.00914
1560.20864	1.00424
1558.28008	0.99690
1556.35151	0.98854
1554.42295	0.98318
1552.49438	0.97816
1550.56582	0.97235
1548.63726	0.96526
1546.70869	0.95810
1544.78013	0.95045
1542.85156	0.94112
1540.92300	0.92788
1538.99443	0.90634
1537.06587	0.88944
1535.13730	0.87808
1533.20874	0.86414
1531.28018	0.84936
1529.35161	0.83859
1527.42305	0.82877
1525.49448	0.81861
1523.56592	0.80980
1521.63735	0.80114
1519.70879	0.79178
1517.78022	0.78397
1515.85166	0.77518
1513.92310	0.76577
1511.99453	0.75792
1510.06597	0.75146
1508.13740	0.74577
1506.20884	0.73580
1504.28027	0.72559
1502.35171	0.71965
1500.42314	0.71495
1498.49458	0.71037
1496.56602	0.70487
1494.63745	0.69893
1492.70889	0.69439
1490.78032	0.69085
1488.85176	0.68660
1486.92319	0.68179
1484.99463	0.67769
1483.06606	0.67452
1481.13750	0.67189
1479.20894	0.66959
1477.28037	0.66805
1475.35181	0.66740
1473.42324	0.66702
1471.49468	0.66506
1469.56611	0.66203
1467.63755	0.65969
1465.70898	0.65817
1463.78042	0.65688
1461.85186	0.65578
1459.92329	0.65547
1457.99473	0.65573
1456.06616	0.65474
1454.13760	0.65212
1452.20903	0.64957
1450.28047	0.64725
1448.35190	0.64508
1446.42334	0.64264
1444.49478	0.64020
1442.56621	0.63810
1440.63765	0.63621
1438.70908	0.63454
1436.78052	0.63261
1434.85195	0.63004
1432.92339	0.62777
1430.99482	0.62624
1429.06626	0.62516
1427.13770	0.62442
1425.20913	0.62423
1423.28057	0.62432
1421.35200	0.62416
1419.42344	0.62405
1417.49487	0.62357
1415.56631	0.62201
1413.63774	0.62041
1411.70918	0.61944
1409.78062	0.61899
1407.85205	0.61879
1405.92349	0.61879
1403.99492	0.61861
1402.06636	0.61790
1400.13779	0.61706
1398.20923	0.61606
1396.28066	0.61434
1394.35210	0.61153
1392.42354	0.60817
1390.49497	0.60539
1388.56641	0.60315
1386.63784	0.60058
1384.70928	0.59740
1382.78071	0.59433
1380.85215	0.59163
1378.92358	0.58935
1376.99502	0.58768
1375.06646	0.58663
1373.13789	0.58583
1371.20933	0.58503
1369.28076	0.58429
1367.35220	0.58338
1365.42363	0.58231
1363.49507	0.58137
1361.56650	0.58020
1359.63794	0.57868
1357.70937	0.57736
1355.78081	0.57618
1353.85225	0.57497
1351.92368	0.57390
1349.99512	0.57308
1348.06655	0.57231
1346.13799	0.57141
1344.20942	0.57045
1342.28086	0.56963
1340.35229	0.56914
1338.42373	0.56859
1336.49517	0.56758
1334.56660	0.56653
1332.63804	0.56580
1330.70947	0.56538
1328.78091	0.56517
1326.85234	0.56512
1324.92378	0.56515
1322.99521	0.56525
1321.06665	0.56544
1319.13809	0.56567
1317.20952	0.56571
1315.28096	0.56534
1313.35239	0.56459
1311.42383	0.56368
1309.49526	0.56282
1307.56670	0.56203
1305.63813	0.56124
1303.70957	0.56030
1301.78101	0.55926
1299.85244	0.55836
1297.92388	0.55762
1295.99531	0.55679
1294.06675	0.55572
1292.13818	0.55464
1290.20962	0.55371
1288.28105	0.55286
1286.35249	0.55205
1284.42393	0.55126
1282.49536	0.55028
1280.56680	0.54926
1278.63823	0.54843
1276.70967	0.54754
1274.78110	0.54655
1272.85254	0.54572
1270.92397	0.54507
1268.99541	0.54460
1267.06685	0.54423
1265.13828	0.54373
1263.20972	0.54318
1261.28115	0.54280
1259.35259	0.54239
1257.42402	0.54178
1255.49546	0.54128
1253.56689	0.54106
1251.63833	0.54097
1249.70977	0.54085
1247.78120	0.54058
1245.85264	0.54022
1243.92407	0.53981
1241.99551	0.53913
1240.06694	0.53813
1238.13838	0.53705
1236.20981	0.53591
1234.28125	0.53468
1232.35269	0.53336
1230.42412	0.53188
1228.49556	0.53041
1226.56699	0.52910
1224.63843	0.52794
1222.70986	0.52683
1220.78130	0.52565
1218.85273	0.52437
1216.92417	0.52315
1214.99561	0.52218
1213.06704	0.52150
1211.13848	0.52100
1209.20991	0.52047
1207.28135	0.51995
1205.35278	0.51943
1203.42422	0.51877
1201.49565	0.51799
1199.56709	0.51717
1197.63853	0.51637
1195.70996	0.51563
1193.78140	0.51503
1191.85283	0.51449
1189.92427	0.51397
1187.99570	0.51355
1186.06714	0.51325
1184.13857	0.51306
1182.21001	0.51314
1180.28145	0.51373
1178.35288	0.51480
1176.42432	0.51599
1174.49575	0.51696
1172.56719	0.51760
1170.63862	0.51801
1168.71006	0.51836
1166.78149	0.51887
1164.85293	0.51955
1162.92437	0.52000
1160.99580	0.52004
1159.06724	0.51995
1157.13867	0.51984
1155.21011	0.51945
1153.28154	0.51839
1151.35298	0.51668
1149.42441	0.51466
1147.49585	0.51235
1145.56729	0.50970
1143.63872	0.50713
1141.71016	0.50499
1139.78159	0.50318
1137.85303	0.50162
1135.92446	0.50046
1133.99590	0.49978
1132.06733	0.49952
1130.13877	0.49947
1128.21021	0.49928
1126.28164	0.49883
1124.35308	0.49839
1122.42451	0.49808
1120.49595	0.49778
1118.56738	0.49769
1116.63882	0.49796
1114.71025	0.49842
1112.78169	0.49897
1110.85312	0.49967
1108.92456	0.50039
1106.99600	0.50101
1105.06743	0.50167
1103.13887	0.50263
1101.21030	0.50384
1099.28174	0.50528
1097.35317	0.50721
1095.42461	0.50986
1093.49604	0.51341
1091.56748	0.51803
1089.63892	0.52399
1087.71035	0.53146
1085.78179	0.54003
1083.85322	0.54881
1081.92466	0.55672
1079.99609	0.56236
1078.06753	0.56486
1076.13896	0.56427
1074.21040	0.56112
1072.28184	0.55602
1070.35327	0.54961
1068.42471	0.54263
1066.49614	0.53568
1064.56758	0.52922
1062.63901	0.52359
1060.71045	0.51880
1058.78188	0.51484
1056.85332	0.51127
1054.92476	0.50771
1052.99619	0.50468
1051.06763	0.50268
1049.13906	0.50136
1047.21050	0.50052
1045.28193	0.50027
1043.35337	0.50052
1041.42480	0.50107
1039.49624	0.50157
1037.56768	0.50166
1035.63911	0.50125
1033.71055	0.50045
1031.78198	0.49947
1029.85342	0.49848
1027.92485	0.49740
1025.99629	0.49615
1024.06772	0.49504
1022.13916	0.49419
1020.21060	0.49349
1018.28203	0.49308
1016.35347	0.49296
1014.42490	0.49290
1012.49634	0.49284
1010.56777	0.49285
1008.63921	0.49297
1006.71064	0.49346
1004.78208	0.49452
1002.85352	0.49611
1000.92495	0.49837
998.99639	0.50155
997.06782	0.50552
995.13926	0.50974
993.21069	0.51371
991.28213	0.51692
989.35356	0.51898
987.42500	0.51994
985.49644	0.52013
983.56787	0.51999
981.63931	0.52007
979.71074	0.52070
977.78218	0.52215
975.85361	0.52444
973.92505	0.52710
971.99648	0.52984
970.06792	0.53284
968.13936	0.53632
966.21079	0.54028
964.28223	0.54471
962.35366	0.54943
960.42510	0.55422
958.49653	0.55925
956.56797	0.56487
954.63940	0.57092
952.71084	0.57691
950.78228	0.58290
948.85371	0.58928
946.92515	0.59574
944.99658	0.60186
943.06802	0.60775
941.13945	0.61359
939.21089	0.61935
937.28232	0.62517
935.35376	0.63089
933.42520	0.63624
931.49663	0.64177
929.56807	0.64778
927.63950	0.65351
925.71094	0.65883
923.78237	0.66461
921.85381	0.67094
919.92524	0.67726
917.99668	0.68399
916.06812	0.69117
914.13955	0.69836
912.21099	0.70594
910.28242	0.71395
908.35386	0.72208
906.42529	0.73065
904.49673	0.73964
902.56816	0.74821
900.63960	0.75666
898.71104	0.76575
896.78247	0.77537
894.85391	0.78573
892.92534	0.79708
890.99678	0.80814
889.06821	0.81775
887.13965	0.82669
885.21108	0.83659
883.28252	0.84864
881.35396	0.86149
879.42539	0.87268
877.49683	0.88250
875.56826	0.89272
873.63970	0.90318
871.71113	0.91381
869.78257	0.92637
867.85400	0.94017
865.92544	0.95196
863.99687	0.96185
862.06831	0.97230
860.13975	0.98376
858.21118	0.99536
856.28262	1.00681
854.35405	1.01857
852.42549	1.03093
850.49692	1.04293
848.56836	1.05366
846.63979	1.06427
844.71123	1.07610
842.78267	1.08845
840.85410	1.10087
838.92554	1.11271
836.99697	1.12336
835.06841	1.13500
833.13984	1.14913
831.21128	1.16307
829.28271	1.17450
827.35415	1.18732
825.42559	1.20283
823.49702	1.21263
821.56846	1.21614
819.63989	1.22410
817.71133	1.23515
815.78276	1.24122
813.85420	1.24381
811.92563	1.24698
809.99707	1.25699
808.06851	1.27590
806.13994	1.29170
804.21138	1.29684
802.28281	1.30225
800.35425	1.31448
798.42568	1.32986
796.49712	1.34984
794.56855	1.38751
792.63999	1.43065
790.71143	1.40189
788.78286	1.32045
786.85430	1.28366
784.92573	1.30222
782.99717	1.34401
781.06860	1.38277
779.14004	1.38938
777.21147	1.38324
775.28291	1.39208
773.35435	1.41436
771.42578	1.49663
769.49722	1.60278
767.56865	1.59088
765.64009	1.61397
763.71152	1.74985
761.78296	1.71466
759.85439	1.50190
757.92583	1.42393
755.99727	1.41094
754.06870	1.28542
752.14014	1.15780
750.21157	1.10909
748.28301	1.10311
746.35444	1.18944
744.42588	1.32504
742.49731	1.20875
740.56875	1.05828
738.64019	0.93092
736.71162	0.76598
734.78306	0.69227
732.85449	0.68891
730.92593	0.56688
728.99736	0.39639
727.06880	0.25058
725.14023	0.05945
723.21167	-0.12466
721.28311	-0.21624
719.35454	-0.29609
717.42598	-0.26698
715.49741	0.02535
713.56885	0.44439
711.64028	0.53773
709.71172	0.32427
707.78315	0.28055
705.85459	0.28206
703.92603	0.24609
701.99746	0.26076
700.06890	0.35276
698.14033	0.47459
696.21177	0.55530
694.28320	0.53643
692.35464	0.40499
690.42607	0.35666
688.49751	0.40310
686.56895	0.45662
684.64038	0.57832
682.71182	0.74040
680.78325	0.60233
678.85469	0.46585
676.92612	0.40512
674.99756	0.36571
673.06899	0.34161
671.14043	0.27910
669.21187	0.19998
667.28330	0.18946
665.35474	0.25831
663.42617	0.35223
661.49761	0.31630
659.56904	0.19647
657.64048	0.16624
655.71191	0.30083
653.78335	0.50555
651.85479	0.49567
649.92622	0.43237
647.99766	0.44081
646.06909	0.40222
644.14053	0.32201
642.21196	0.28033
640.28340	0.30099
638.35483	0.37381
636.42627	0.36360
634.49771	0.22755
632.56914	0.17596
630.64058	0.25630
628.71201	0.35335
626.78345	0.31663
624.85488	0.26040
622.92632	0.27208
620.99775	0.30579
619.06919	0.31622
617.14062	0.31078
615.21206	0.28589
613.28350	0.27890
611.35493	0.32509
609.42637	0.36474
607.49780	0.33657
605.56924	0.32610
603.64067	0.35998
601.71211	0.38880
599.78354	0.37809
597.85498	0.29643
595.92642	0.21876
593.99785	0.18070
592.06929	0.18030
590.14072	0.22696
588.21216	0.29083
586.28359	0.33527
584.35503	0.38006
582.42646	0.36440
580.49790	0.26821
578.56934	0.21741
576.64077	0.26613
574.71221	0.36665
572.78364	0.38673
570.85508	0.32266
568.92651	0.28470
566.99795	0.32361
565.06938	0.38362
563.14082	0.33537
561.21226	0.26517
559.28369	0.25244
557.35513	0.25901
555.42656	0.23271
553.49800	0.20740
551.56943	0.21400
549.64087	0.26791
547.71230	0.33455
545.78374	0.33241
543.85518	0.32122
541.92661	0.33133
539.99805	0.33557
538.06948	0.31847
536.14092	0.33272
534.21235	0.40223
532.28379	0.42467
530.35522	0.33813
528.42666	0.26962
526.49810	0.27158
524.56953	0.38654
522.64097	0.52043
520.71240	0.42645
518.78384	0.32909
516.85527	0.29093
514.92671	0.26952
512.99814	0.25959
511.06958	0.26867
509.14102	0.28659
507.21245	0.29419
505.28389	0.30354
503.35532	0.29532
501.42676	0.24932
499.49819	0.20757
