3997.91411	0.07173
3995.98555	0.07226
3994.05698	0.07267
3992.12842	0.07346
3990.19985	0.07417
3988.27129	0.07422
3986.34272	0.07371
3984.41416	0.07326
3982.48560	0.07345
3980.55703	0.07404
3978.62847	0.07448
3976.69990	0.07483
3974.77134	0.07515
3972.84277	0.07509
3970.91421	0.07481
3968.98564	0.07484
3967.05708	0.07503
3965.12852	0.07507
3963.19995	0.07525
3961.27139	0.07572
3959.34282	0.07635
3957.41426	0.07682
3955.48569	0.07680
3953.55713	0.07670
3951.62856	0.07718
3949.70000	0.07814
3947.77144	0.07879
3945.84287	0.07844
3943.91431	0.07797
3941.98574	0.07803
3940.05718	0.07776
3938.12861	0.07707
3936.20005	0.07668
3934.27148	0.07713
3932.34292	0.07825
3930.41436	0.07878
3928.48579	0.07812
3926.55723	0.07765
3924.62866	0.07830
3922.70010	0.07857
3920.77153	0.07782
3918.84297	0.07780
3916.91440	0.07853
3914.98584	0.07808
3913.05728	0.07662
3911.12871	0.07582
3909.20015	0.07576
3907.27158	0.07621
3905.34302	0.07780
3903.41445	0.08049
3901.48589	0.08233
3899.55732	0.08202
3897.62876	0.08005
3895.70020	0.07805
3893.77163	0.07771
3891.84307	0.07902
3889.91450	0.07973
3887.98594	0.07886
3886.05737	0.07861
3884.12881	0.07938
3882.20024	0.07999
3880.27168	0.08017
3878.34312	0.07920
3876.41455	0.07826
3874.48599	0.07941
3872.55742	0.08173
3870.62886	0.08351
3868.70029	0.08434
3866.77173	0.08417
3864.84316	0.08458
3862.91460	0.08498
3860.98604	0.08365
3859.05747	0.08235
3857.12891	0.08264
3855.20034	0.08473
3853.27178	0.08865
3851.34321	0.09018
3849.41465	0.08710
3847.48608	0.08443
3845.55752	0.08387
3843.62896	0.08520
3841.70039	0.08770
3839.77183	0.09106
3837.84326	0.09410
3835.91470	0.09403
3833.98613	0.09222
3832.05757	0.09126
3830.12900	0.09063
3828.20044	0.09021
3826.27187	0.09100
3824.34331	0.09250
3822.41475	0.09469
3820.48618	0.09850
3818.55762	0.10037
3816.62905	0.09963
3814.70049	0.09893
3812.77192	0.09762
3810.84336	0.09666
3808.91479	0.09747
3806.98623	0.09994
3805.05767	0.10232
3803.12910	0.10414
3801.20054	0.10696
3799.27197	0.10881
3797.34341	0.10851
3795.41484	0.10789
3793.48628	0.10709
3791.55771	0.10693
3789.62915	0.10793
3787.70059	0.10969
3785.77202	0.11204
3783.84346	0.11412
3781.91489	0.11535
3779.98633	0.11711
3778.05776	0.11940
3776.12920	0.12018
3774.20063	0.12046
3772.27207	0.12217
3770.34351	0.12531
3768.41494	0.12838
3766.48638	0.13041
3764.55781	0.13224
3762.62925	0.13390
3760.70068	0.13616
3758.77212	0.13990
3756.84355	0.14320
3754.91499	0.14517
3752.98643	0.14846
3751.05786	0.15470
3749.12930	0.16071
3747.20073	0.16259
3745.27217	0.16381
3743.34360	0.16687
3741.41504	0.17002
3739.48647	0.17292
3737.55791	0.17745
3735.62935	0.18448
3733.70078	0.19150
3731.77222	0.19470
3729.84365	0.19642
3727.91509	0.19966
3725.98652	0.20540
3724.05796	0.21244
3722.12939	0.21916
3720.20083	0.22566
3718.27227	0.23178
3716.34370	0.23789
3714.41514	0.24509
3712.48657	0.25547
3710.55801	0.27075
3708.62944	0.28571
3706.70088	0.29647
3704.77231	0.30688
3702.84375	0.32000
3700.91519	0.33691
3698.98662	0.35442
3697.05806	0.37105
3695.12949	0.38975
3693.20093	0.41039
3691.27236	0.43355
3689.34380	0.46339
3687.41523	0.49788
3685.48667	0.52662
3683.55811	0.55156
3681.62954	0.57936
3679.70098	0.61220
3677.77241	0.64794
3675.84385	0.68968
3673.91528	0.74363
3671.98672	0.78654
3670.05815	0.82485
3668.12959	0.87762
3666.20103	0.92513
3664.27246	0.96488
3662.34390	1.00802
3660.41533	1.05544
3658.48677	1.10309
3656.55820	1.15392
3654.62964	1.21051
3652.70107	1.25854
3650.77251	1.30150
3648.84395	1.36097
3646.91538	1.43090
3644.98682	1.47949
3643.05825	1.51685
3641.12969	1.55620
3639.20112	1.60027
3637.27256	1.64514
3635.34399	1.68943
3633.41543	1.73397
3631.48687	1.77566
3629.55830	1.81839
3627.62974	1.87425
3625.70117	1.92418
3623.77261	1.95656
3621.84404	1.98893
3619.91548	2.02809
3617.98691	2.07599
3616.05835	2.12104
3614.12979	2.15813
3612.20122	2.19720
3610.27266	2.23654
3608.34409	2.27668
3606.41553	2.31910
3604.48696	2.35808
3602.55840	2.39370
3600.62983	2.43273
3598.70127	2.47490
3596.77271	2.51594
3594.84414	2.55757
3592.91558	2.59919
3590.98701	2.63639
3589.05845	2.67080
3587.12988	2.71441
3585.20132	2.76527
3583.27275	2.80801
3581.34419	2.84484
3579.41562	2.88369
3577.48706	2.92685
3575.55850	2.97127
3573.62993	3.01541
3571.70137	3.05672
3569.77280	3.09561
3567.84424	3.13830
3565.91567	3.19165
3563.98711	3.24294
3562.05854	3.28321
3560.12998	3.32227
3558.20142	3.36478
3556.27285	3.40942
3554.34429	3.45371
3552.41572	3.49997
3550.48716	3.54919
3548.55859	3.59857
3546.63003	3.64502
3544.70146	3.68942
3542.77290	3.73532
3540.84434	3.78214
3538.91577	3.82688
3536.98721	3.87074
3535.05864	3.91995
3533.13008	3.97175
3531.20151	4.02119
3529.27295	4.06962
3527.34438	4.11726
3525.41582	4.16024
3523.48726	4.20224
3521.55869	4.25304
3519.63013	4.30922
3517.70156	4.36147
3515.77300	4.40845
3513.84443	4.45286
3511.91587	4.49528
3509.98730	4.54200
3508.05874	4.59676
3506.13018	4.64741
3504.20161	4.68706
3502.27305	4.72724
3500.34448	4.77549
3498.41592	4.82344
3496.48735	4.87192
3494.55879	4.92564
3492.63022	4.97918
3490.70166	5.02998
3488.77310	5.07805
3486.84453	5.12513
3484.91597	5.17521
3482.98740	5.22030
3481.05884	5.25813
3479.13027	5.29961
3477.20171	5.34625
3475.27314	5.39855
3473.34458	5.45606
3471.41602	5.50522
3469.48745	5.54198
3467.55889	5.57680
3465.63032	5.62066
3463.70176	5.68409
3461.77319	5.75142
3459.84463	5.79809
3457.91606	5.83560
3455.98750	5.88277
3454.05894	5.93510
3452.13037	5.98774
3450.20181	6.03805
3448.27324	6.07696
3446.34468	6.11115
3444.41611	6.15358
3442.48755	6.21160
3440.55898	6.27882
3438.63042	6.33678
3436.70186	6.37843
3434.77329	6.42343
3432.84473	6.47941
3430.91616	6.53210
3428.98760	6.58158
3427.05903	6.61906
3425.13047	6.66255
3423.20190	6.72177
3421.27334	6.76128
3419.34478	6.78044
3417.41621	6.81064
3415.48765	6.85590
3413.55908	6.91886
3411.63052	7.00164
3409.70195	7.04736
3407.77339	7.06466
3405.84482	7.10252
3403.91626	7.12696
3401.98770	7.14064
3400.05913	7.19809
3398.13057	7.29543
3396.20200	7.38965
3394.27344	7.42505
3392.34487	7.39250
3390.41631	7.39940
3388.48774	7.48509
3386.55918	7.57357
3384.63062	7.58789
3382.70205	7.55522
3380.77349	7.57284
3378.84492	7.64372
3376.91636	7.67371
3374.98779	7.65556
3373.05923	7.66296
3371.13066	7.66319
3369.20210	7.66174
3367.27354	7.71357
3365.34497	7.79535
3363.41641	7.85131
3361.48784	7.86719
3359.55928	7.86858
3357.63071	7.86890
3355.70215	7.83767
3353.77358	7.78122
3351.84502	7.81793
3349.91646	7.88966
3347.98789	7.86832
3346.05933	7.80546
3344.13076	7.76609
3342.20220	7.80087
3340.27363	7.91403
3338.34507	8.04007
3336.41650	8.09651
3334.48794	8.07769
3332.55937	7.98596
3330.63081	7.91139
3328.70225	7.93897
3326.77368	7.97271
3324.84512	7.96243
3322.91655	7.97657
3320.98799	8.02138
3319.05942	8.03812
3317.13086	8.06372
3315.20229	8.10283
3313.27373	8.09291
3311.34517	8.08351
3309.41660	8.10813
3307.48804	8.12293
3305.55947	8.11580
3303.63091	8.10567
3301.70234	8.08045
3299.77378	8.02133
3297.84521	7.99054
3295.91665	8.07595
3293.98809	8.16093
3292.05952	8.14366
3290.13096	8.10780
3288.20239	8.06873
3286.27383	8.08368
3284.34526	8.16813
3282.41670	8.18834
3280.48813	8.14941
3278.55957	8.19369
3276.63101	8.27483
3274.70244	8.24265
3272.77388	8.10847
3270.84531	8.05036
3268.91675	8.13558
3266.98818	8.20335
3265.05962	8.21568
3263.13105	8.26617
3261.20249	8.32865
3259.27393	8.33801
3257.34536	8.29009
3255.41680	8.17478
3253.48823	8.02275
3251.55967	7.97089
3249.63110	8.04443
3247.70254	8.11965
3245.77397	8.08040
3243.84541	7.95786
3241.91685	7.87002
3239.98828	7.84648
3238.05972	7.85020
3236.13115	7.89215
3234.20259	7.95998
3232.27402	7.97593
3230.34546	7.94990
3228.41689	7.96771
3226.48833	8.04349
3224.55977	8.07768
3222.63120	8.03993
3220.70264	8.02537
3218.77407	8.00241
3216.84551	7.95813
3214.91694	7.98306
3212.98838	7.99039
3211.05981	7.94867
3209.13125	7.97017
3207.20269	8.01748
3205.27412	8.03185
3203.34556	7.99139
3201.41699	7.89461
3199.48843	7.78936
3197.55986	7.67462
3195.63130	7.56491
3193.70273	7.49539
3191.77417	7.43809
3189.84561	7.37708
3187.91704	7.33729
3185.98848	7.33219
3184.05991	7.33492
3182.13135	7.26876
3180.20278	7.14592
3178.27422	7.06042
3176.34565	7.02409
3174.41709	6.99827
3172.48853	6.97598
3170.55996	6.93318
3168.63140	6.85091
3166.70283	6.77156
3164.77427	6.71643
3162.84570	6.66916
3160.91714	6.62270
3158.98857	6.56636
3157.06001	6.49028
3155.13145	6.41008
3153.20288	6.33790
3151.27432	6.26649
3149.34575	6.18420
3147.41719	6.10567
3145.48862	6.04963
3143.56006	5.99365
3141.63149	5.92821
3139.70293	5.86802
3137.77437	5.80955
3135.84580	5.74097
3133.91724	5.66571
3131.98867	5.59943
3130.06011	5.53874
3128.13154	5.46843
3126.20298	5.39011
3124.27441	5.31445
3122.34585	5.24250
3120.41729	5.17133
3118.48872	5.10458
3116.56016	5.04036
3114.63159	4.97234
3112.70303	4.90316
3110.77446	4.83515
3108.84590	4.76853
3106.91733	4.70419
3104.98877	4.63890
3103.06021	4.57320
3101.13164	4.50857
3099.20308	4.44302
3097.27451	4.37619
3095.34595	4.31025
3093.41738	4.24887
3091.48882	4.19094
3089.56025	4.13038
3087.63169	4.06578
3085.70312	4.00117
3083.77456	3.93862
3081.84600	3.87857
3079.91743	3.82050
3077.98887	3.76293
3076.06030	3.70563
3074.13174	3.64823
3072.20317	3.59156
3070.27461	3.53625
3068.34604	3.48059
3066.41748	3.42492
3064.48892	3.37099
3062.56035	3.31802
3060.63179	3.26561
3058.70322	3.21390
3056.77466	3.16087
3054.84609	3.10685
3052.91753	3.05513
3050.98896	3.00631
3049.06040	2.95791
3047.13184	2.90862
3045.20327	2.85999
3043.27471	2.81302
3041.34614	2.76702
3039.41758	2.72116
3037.48901	2.67512
3035.56045	2.62978
3033.63188	2.58584
3031.70332	2.54249
3029.77476	2.49902
3027.84619	2.45608
3025.91763	2.41393
3023.98906	2.37188
3022.06050	2.33011
3020.13193	2.28953
3018.20337	2.25027
3016.27480	2.21190
3014.34624	2.17381
3012.41768	2.13569
3010.48911	2.09815
3008.56055	2.06196
3006.63198	2.02689
3004.70342	1.99200
3002.77485	1.95739
3000.84629	1.92396
2998.91772	1.89166
2996.98916	1.86004
2995.06060	1.82902
2993.13203	1.79845
2991.20347	1.76830
2989.27490	1.73913
2987.34634	1.71111
2985.41777	1.68344
2983.48921	1.65588
2981.56064	1.62922
2979.63208	1.60342
2977.70352	1.57742
2975.77495	1.55138
2973.84639	1.52628
2971.91782	1.50205
2969.98926	1.47803
2968.06069	1.45411
2966.13213	1.43050
2964.20356	1.40700
2962.27500	1.38353
2960.34644	1.36020
2958.41787	1.33674
2956.48931	1.31322
2954.56074	1.29027
2952.63218	1.26772
2950.70361	1.24503
2948.77505	1.22281
2946.84648	1.20151
2944.91792	1.18024
2942.98936	1.15858
2941.06079	1.13740
2939.13223	1.11714
2937.20366	1.09707
2935.27510	1.07632
2933.34653	1.05497
2931.41797	1.03391
2929.48940	1.01341
2927.56084	0.99346
2925.63228	0.97428
2923.70371	0.95590
2921.77515	0.93847
2919.84658	0.92232
2917.91802	0.90715
2915.98945	0.89252
2914.06089	0.87829
2912.13232	0.86409
2910.20376	0.84973
2908.27520	0.83541
2906.34663	0.82133
2904.41807	0.80769
2902.48950	0.79453
2900.56094	0.78173
2898.63237	0.76918
2896.70381	0.75690
2894.77524	0.74469
2892.84668	0.73267
2890.91812	0.72126
2888.98955	0.71050
2887.06099	0.70022
2885.13242	0.69022
2883.20386	0.68031
2881.27529	0.67060
2879.34673	0.66109
2877.41816	0.65144
2875.48960	0.64160
2873.56104	0.63171
2871.63247	0.62145
2869.70391	0.61038
2867.77534	0.59886
2865.84678	0.58709
2863.91821	0.57481
2861.98965	0.56245
2860.06108	0.55072
2858.13252	0.53959
2856.20396	0.52870
2854.27539	0.51822
2852.34683	0.50867
2850.41826	0.50040
2848.48970	0.49341
2846.56113	0.48706
2844.63257	0.48077
2842.70400	0.47466
2840.77544	0.46886
2838.84687	0.46339
2836.91831	0.45805
2834.98975	0.45248
2833.06118	0.44676
2831.13262	0.44104
2829.20405	0.43527
2827.27549	0.42946
2825.34692	0.42364
2823.41836	0.41773
2821.48979	0.41176
2819.56123	0.40602
2817.63267	0.40054
2815.70410	0.39499
2813.77554	0.38944
2811.84697	0.38417
2809.91841	0.37889
2807.98984	0.37337
2806.06128	0.36793
2804.13271	0.36286
2802.20415	0.35801
2800.27559	0.35308
2798.34702	0.34811
2796.41846	0.34328
2794.48989	0.33861
2792.56133	0.33406
2790.63276	0.32956
2788.70420	0.32513
2786.77563	0.32080
2784.84707	0.31656
2782.91851	0.31239
2780.98994	0.30826
2779.06138	0.30410
2777.13281	0.30002
2775.20425	0.29612
2773.27568	0.29237
2771.34712	0.28858
2769.41855	0.28475
2767.48999	0.28108
2765.56143	0.27759
2763.63286	0.27425
2761.70430	0.27102
2759.77573	0.26782
2757.84717	0.26464
2755.91860	0.26144
2753.99004	0.25828
2752.06147	0.25525
2750.13291	0.25230
2748.20435	0.24942
2746.27578	0.24646
2744.34722	0.24347
2742.41865	0.24072
2740.49009	0.23820
2738.56152	0.23567
2736.63296	0.23308
2734.70439	0.23052
2732.77583	0.22801
2730.84727	0.22552
2728.91870	0.22318
2726.99014	0.22102
2725.06157	0.21887
2723.13301	0.21663
2721.20444	0.21433
2719.27588	0.21207
2717.34731	0.21000
2715.41875	0.20804
2713.49019	0.20618
2711.56162	0.20449
2709.63306	0.20287
2707.70449	0.20119
2705.77593	0.19944
2703.84736	0.19782
2701.91880	0.19641
2699.99023	0.19490
2698.06167	0.19325
2696.13311	0.19174
2694.20454	0.19043
2692.27598	0.18907
2690.34741	0.18757
2688.41885	0.18611
2686.49028	0.18477
2684.56172	0.18344
2682.63315	0.18212
2680.70459	0.18099
2678.77603	0.17999
2676.84746	0.17891
2674.91890	0.17768
2672.99033	0.17640
2671.06177	0.17527
2669.13320	0.17427
2667.20464	0.17319
2665.27607	0.17212
2663.34751	0.17121
2661.41895	0.17037
2659.49038	0.16962
2657.56182	0.16886
2655.63325	0.16796
2653.70469	0.16709
2651.77612	0.16636
2649.84756	0.16567
2647.91899	0.16492
2645.99043	0.16423
2644.06187	0.16370
2642.13330	0.16314
2640.20474	0.16245
2638.27617	0.16177
2636.34761	0.16115
2634.41904	0.16055
2632.49048	0.16004
2630.56191	0.15968
2628.63335	0.15935
2626.70479	0.15895
2624.77622	0.15853
2622.84766	0.15817
2620.91909	0.15788
2618.99053	0.15757
2617.06196	0.15723
2615.13340	0.15697
2613.20483	0.15673
2611.27627	0.15638
2609.34771	0.15611
2607.41914	0.15610
2605.49058	0.15611
2603.56201	0.15591
2601.63345	0.15566
2599.70488	0.15557
2597.77632	0.15556
2595.84775	0.15548
2593.91919	0.15553
2591.99062	0.15566
2590.06206	0.15567
2588.13350	0.15572
2586.20493	0.15600
2584.27637	0.15630
2582.34780	0.15651
2580.41924	0.15669
2578.49067	0.15679
2576.56211	0.15690
2574.63354	0.15716
2572.70498	0.15750
2570.77642	0.15777
2568.84785	0.15795
2566.91929	0.15820
2564.99072	0.15854
2563.06216	0.15888
2561.13359	0.15919
2559.20503	0.15945
2557.27646	0.15974
2555.34790	0.16018
2553.41934	0.16078
2551.49077	0.16135
2549.56221	0.16180
2547.63364	0.16227
2545.70508	0.16278
2543.77651	0.16321
2541.84795	0.16368
2539.91938	0.16430
2537.99082	0.16498
2536.06226	0.16552
2534.13369	0.16590
2532.20513	0.16643
2530.27656	0.16718
2528.34800	0.16789
2526.41943	0.16855
2524.49087	0.16925
2522.56230	0.16985
2520.63374	0.17042
2518.70518	0.17112
2516.77661	0.17185
2514.84805	0.17259
2512.91948	0.17337
2510.99092	0.17413
2509.06235	0.17492
2507.13379	0.17575
2505.20522	0.17644
2503.27666	0.17698
2501.34810	0.17752
2499.41953	0.17823
2497.49097	0.17911
2495.56240	0.17999
2493.63384	0.18079
2491.70527	0.18160
2489.77671	0.18238
2487.84814	0.18303
2485.91958	0.18366
2483.99102	0.18445
2482.06245	0.18542
2480.13389	0.18640
2478.20532	0.18725
2476.27676	0.18803
2474.34819	0.18885
2472.41963	0.18973
2470.49106	0.19062
2468.56250	0.19141
2466.63394	0.19217
2464.70537	0.19301
2462.77681	0.19393
2460.84824	0.19490
2458.91968	0.19586
2456.99111	0.19670
2455.06255	0.19752
2453.13398	0.19845
2451.20542	0.19943
2449.27686	0.20033
2447.34829	0.20114
2445.41973	0.20195
2443.49116	0.20280
2441.56260	0.20374
2439.63403	0.20474
2437.70547	0.20568
2435.77690	0.20667
2433.84834	0.20779
2431.91978	0.20896
2429.99121	0.21002
2428.06265	0.21094
2426.13408	0.21185
2424.20552	0.21283
2422.27695	0.21386
2420.34839	0.21489
2418.41982	0.21581
2416.49126	0.21676
2414.56270	0.21789
2412.63413	0.21908
2410.70557	0.22019
2408.77700	0.22129
2406.84844	0.22243
2404.91987	0.22362
2402.99131	0.22483
2401.06274	0.22595
2399.13418	0.22699
2397.20562	0.22814
2395.27705	0.22931
2393.34849	0.23049
2391.41992	0.23189
2389.49136	0.23336
2387.56279	0.23489
2385.63423	0.23690
2383.70566	0.23956
2381.77710	0.24287
2379.84854	0.24693
2377.91997	0.25170
2375.99141	0.25699
2374.06284	0.26271
2372.13428	0.26888
2370.20571	0.27558
2368.27715	0.28249
2366.34858	0.28899
2364.42002	0.29479
2362.49146	0.29941
2360.56289	0.30259
2358.63433	0.30423
2356.70576	0.30303
2354.77720	0.29916
2352.84863	0.29459
2350.92007	0.29018
2348.99150	0.28763
2347.06294	0.28850
2345.13437	0.29310
2343.20581	0.29948
2341.27725	0.30419
2339.34868	0.30608
2337.42012	0.30642
2335.49155	0.30705
2333.56299	0.30774
2331.63442	0.30806
2329.70586	0.30845
2327.77729	0.30885
2325.84873	0.30886
2323.92017	0.30864
2321.99160	0.30825
2320.06304	0.30744
2318.13447	0.30640
2316.20591	0.30574
2314.27734	0.30586
2312.34878	0.30659
2310.42021	0.30740
2308.49165	0.30792
2306.56309	0.30802
2304.63452	0.30798
2302.70596	0.30834
2300.77739	0.30926
2298.84883	0.31043
2296.92026	0.31168
2294.99170	0.31298
2293.06313	0.31426
2291.13457	0.31552
2289.20601	0.31683
2287.27744	0.31812
2285.34888	0.31927
2283.42031	0.32057
2281.49175	0.32233
2279.56318	0.32440
2277.63462	0.32654
2275.70605	0.32868
2273.77749	0.33081
2271.84893	0.33287
2269.92036	0.33487
2267.99180	0.33683
2266.06323	0.33875
2264.13467	0.34074
2262.20610	0.34284
2260.27754	0.34491
2258.34897	0.34685
2256.42041	0.34865
2254.49185	0.35050
2252.56328	0.35251
2250.63472	0.35458
2248.70615	0.35665
2246.77759	0.35876
2244.84902	0.36098
2242.92046	0.36318
2240.99189	0.36523
2239.06333	0.36729
2237.13477	0.36948
2235.20620	0.37165
2233.27764	0.37377
2231.34907	0.37584
2229.42051	0.37791
2227.49194	0.38002
2225.56338	0.38217
2223.63481	0.38435
2221.70625	0.38654
2219.77769	0.38869
2217.84912	0.39084
2215.92056	0.39307
2213.99199	0.39533
2212.06343	0.39742
2210.13486	0.39934
2208.20630	0.40137
2206.27773	0.40349
2204.34917	0.40552
2202.42061	0.40748
2200.49204	0.40948
2198.56348	0.41156
2196.63491	0.41365
2194.70635	0.41563
2192.77778	0.41748
2190.84922	0.41932
2188.92065	0.42113
2186.99209	0.42285
2185.06353	0.42460
2183.13496	0.42639
2181.20640	0.42812
2179.27783	0.42976
2177.34927	0.43142
2175.42070	0.43297
2173.49214	0.43429
2171.56357	0.43553
2169.63501	0.43688
2167.70645	0.43825
2165.77788	0.43959
2163.84932	0.44091
2161.92075	0.44211
2159.99219	0.44320
2158.06362	0.44425
2156.13506	0.44525
2154.20649	0.44616
2152.27793	0.44691
2150.34937	0.44759
2148.42080	0.44834
2146.49224	0.44905
2144.56367	0.44956
2142.63511	0.45001
2140.70654	0.45052
2138.77798	0.45087
2136.84941	0.45096
2134.92085	0.45096
2132.99229	0.45104
2131.06372	0.45119
2129.13516	0.45124
2127.20659	0.45111
2125.27803	0.45089
2123.34946	0.45064
2121.42090	0.45027
2119.49233	0.44979
2117.56377	0.44930
2115.63521	0.44879
2113.70664	0.44809
2111.77808	0.44719
2109.84951	0.44625
2107.92095	0.44530
2105.99238	0.44432
2104.06382	0.44334
2102.13525	0.44223
2100.20669	0.44093
2098.27812	0.43955
2096.34956	0.43818
2094.42100	0.43676
2092.49243	0.43522
2090.56387	0.43364
2088.63530	0.43206
2086.70674	0.43040
2084.77817	0.42865
2082.84961	0.42692
2080.92104	0.42520
2078.99248	0.42331
2077.06392	0.42126
2075.13535	0.41919
2073.20679	0.41714
2071.27822	0.41501
2069.34966	0.41285
2067.42109	0.41068
2065.49253	0.40847
2063.56396	0.40615
2061.63540	0.40387
2059.70684	0.40166
2057.77827	0.39932
2055.84971	0.39678
2053.92114	0.39419
2051.99258	0.39163
2050.06401	0.38907
2048.13545	0.38657
2046.20688	0.38408
2044.27832	0.38154
2042.34976	0.37897
2040.42119	0.37634
2038.49263	0.37360
2036.56406	0.37085
2034.63550	0.36820
2032.70693	0.36559
2030.77837	0.36290
2028.84980	0.36014
2026.92124	0.35742
2024.99268	0.35468
2023.06411	0.35193
2021.13555	0.34930
2019.20698	0.34686
2017.27842	0.34446
2015.34985	0.34175
2013.42129	0.33877
2011.49272	0.33585
2009.56416	0.33305
2007.63560	0.33030
2005.70703	0.32767
2003.77847	0.32516
2001.84990	0.32260
1999.92134	0.31997
1997.99277	0.31738
1996.06421	0.31486
1994.13564	0.31255
1992.20708	0.31039
1990.27852	0.30800
1988.34995	0.30538
1986.42139	0.30279
1984.49282	0.30027
1982.56426	0.29784
1980.63569	0.29559
1978.70713	0.29342
1976.77856	0.29116
1974.85000	0.28886
1972.92144	0.28664
1970.99287	0.28458
1969.06431	0.28277
1967.13574	0.28106
1965.20718	0.27900
1963.27861	0.27675
1961.35005	0.27469
1959.42148	0.27280
1957.49292	0.27096
1955.56436	0.26914
1953.63579	0.26734
1951.70723	0.26548
1949.77866	0.26369
1947.85010	0.26215
1945.92153	0.26092
1943.99297	0.25994
1942.06440	0.25873
1940.13584	0.25688
1938.20728	0.25494
1936.27871	0.25338
1934.35015	0.25207
1932.42158	0.25092
1930.49302	0.24978
1928.56445	0.24856
1926.63589	0.24749
1924.70732	0.24680
1922.77876	0.24617
1920.85020	0.24519
1918.92163	0.24422
1916.99307	0.24327
1915.06450	0.24205
1913.13594	0.24093
1911.20737	0.24028
1909.27881	0.23977
1907.35024	0.23895
1905.42168	0.23799
1903.49312	0.23722
1901.56455	0.23663
1899.63599	0.23613
1897.70742	0.23582
1895.77886	0.23563
1893.85029	0.23539
1891.92173	0.23511
1889.99316	0.23504
1888.06460	0.23478
1886.13604	0.23420
1884.20747	0.23374
1882.27891	0.23346
1880.35034	0.23320
1878.42178	0.23289
1876.49321	0.23268
1874.56465	0.23265
1872.63608	0.23295
1870.70752	0.23376
1868.77896	0.23501
1866.85039	0.23538
1864.92183	0.23462
1862.99326	0.23408
1861.06470	0.23409
1859.13613	0.23437
1857.20757	0.23470
1855.27900	0.23513
1853.35044	0.23560
1851.42187	0.23616
1849.49331	0.23689
1847.56475	0.23782
1845.63618	0.23904
1843.70762	0.24023
1841.77905	0.24060
1839.85049	0.24055
1837.92192	0.24109
1835.99336	0.24197
1834.06479	0.24293
1832.13623	0.24421
1830.20767	0.24611
1828.27910	0.24774
1826.35054	0.24866
1824.42197	0.24975
1822.49341	0.25063
1820.56484	0.25145
1818.63628	0.25267
1816.70771	0.25428
1814.77915	0.25594
1812.85059	0.25789
1810.92202	0.26015
1808.99346	0.26213
1807.06489	0.26377
1805.13633	0.26554
1803.20776	0.26792
1801.27920	0.27079
1799.35063	0.27370
1797.42207	0.27607
1795.49351	0.27847
1793.56494	0.28155
1791.63638	0.28527
1789.70781	0.28813
1787.77925	0.29004
1785.85068	0.29286
1783.92212	0.29662
1781.99355	0.30067
1780.06499	0.30478
1778.13643	0.30879
1776.20786	0.31277
1774.27930	0.31758
1772.35073	0.32410
1770.42217	0.33028
1768.49360	0.33472
1766.56504	0.33901
1764.63647	0.34385
1762.70791	0.34960
1760.77935	0.35687
1758.85078	0.36350
1756.92222	0.37013
1754.99365	0.37721
1753.06509	0.38371
1751.13652	0.39201
1749.20796	0.40254
1747.27939	0.41237
1745.35083	0.42075
1743.42227	0.42993
1741.49370	0.44036
1739.56514	0.45278
1737.63657	0.46529
1735.70801	0.47649
1733.77944	0.49365
1731.85088	0.51368
1729.92231	0.52864
1727.99375	0.54348
1726.06519	0.55970
1724.13662	0.57795
1722.20806	0.59792
1720.27949	0.61647
1718.35093	0.63859
1716.42236	0.67108
1714.49380	0.70093
1712.56523	0.72456
1710.63667	0.74778
1708.70811	0.77339
1706.77954	0.80304
1704.85098	0.83864
1702.92241	0.87030
1700.99385	0.90166
1699.06528	0.94892
1697.13672	0.99255
1695.20815	1.03695
1693.27959	1.08020
1691.35103	1.11578
1689.42246	1.15770
1687.49390	1.20235
1685.56533	1.24569
1683.63677	1.31286
1681.70820	1.38201
1679.77964	1.42548
1677.85107	1.46697
1675.92251	1.51528
1673.99395	1.57601
1672.06538	1.63062
1670.13682	1.68464
1668.20825	1.75553
1666.27969	1.81364
1664.35112	1.86383
1662.42256	1.92903
1660.49399	2.00406
1658.56543	2.06207
1656.63687	2.10858
1654.70830	2.15169
1652.77974	2.21574
1650.85117	2.27165
1648.92261	2.28881
1646.99404	2.31123
1645.06548	2.33728
1643.13691	2.35608
1641.20835	2.36684
1639.27979	2.37600
1637.35122	2.37987
1635.42266	2.37570
1633.49409	2.36539
1631.56553	2.35059
1629.63696	2.33233
1627.70840	2.30089
1625.77983	2.26428
1623.85127	2.21939
1621.92271	2.16307
1619.99414	2.11227
1618.06558	2.06380
1616.13701	1.99641
1614.20845	1.92878
1612.27988	1.87733
1610.35132	1.82360
1608.42275	1.76550
1606.49419	1.70830
1604.56562	1.65601
1602.63706	1.60593
1600.70850	1.55689
1598.77993	1.51145
1596.85137	1.46916
1594.92280	1.42886
1592.99424	1.39035
1591.06567	1.35522
1589.13711	1.32234
1587.20854	1.29201
1585.27998	1.26461
1583.35142	1.23967
1581.42285	1.21745
1579.49429	1.19900
1577.56572	1.18288
1575.63716	1.16332
1573.70859	1.14616
1571.78003	1.13573
1569.85146	1.12611
1567.92290	1.11586
1565.99434	1.10881
1564.06577	1.10472
1562.13721	1.10254
1560.20864	1.10348
1558.28008	1.11047
1556.35151	1.11628
1554.42295	1.11877
1552.49438	1.12192
1550.56582	1.12360
1548.63726	1.12192
1546.70869	1.11704
1544.78013	1.10945
1542.85156	1.09916
1540.92300	1.08209
1538.99443	1.05054
1537.06587	1.02567
1535.13730	1.00932
1533.20874	0.98793
1531.28018	0.96434
1529.35161	0.94726
1527.42305	0.93191
1525.49448	0.91638
1523.56592	0.90362
1521.63735	0.89173
1519.70879	0.87870
1517.78022	0.86722
1515.85166	0.85395
1513.92310	0.83974
1511.99453	0.82764
1510.06597	0.81741
1508.13740	0.80805
1506.20884	0.79190
1504.28027	0.77618
1502.35171	0.76750
1500.42314	0.76078
1498.49458	0.75408
1496.56602	0.74576
1494.63745	0.73686
1492.70889	0.73039
1490.78032	0.72542
1488.85176	0.71910
1486.92319	0.71215
1484.99463	0.70683
1483.06606	0.70310
1481.13750	0.70028
1479.20894	0.69830
1477.28037	0.69764
1475.35181	0.69834
1473.42324	0.69941
1471.49468	0.69843
1469.56611	0.69557
1467.63755	0.69308
1465.70898	0.69161
1463.78042	0.69070
1461.85186	0.69029
1459.92329	0.69106
1457.99473	0.69311
1456.06616	0.69388
1454.13760	0.69135
1452.20903	0.68840
1450.28047	0.68571
1448.35190	0.68310
1446.42334	0.68016
1444.49478	0.67721
1442.56621	0.67455
1440.63765	0.67201
1438.70908	0.66966
1436.78052	0.66666
1434.85195	0.66244
1432.92339	0.65895
1430.99482	0.65700
1429.06626	0.65610
1427.13770	0.65586
1425.20913	0.65648
1423.28057	0.65780
1421.35200	0.65895
1419.42344	0.65994
1417.49487	0.66023
1415.56631	0.65910
1413.63774	0.65811
1411.70918	0.65819
1409.78062	0.65928
1407.85205	0.66090
1405.92349	0.66285
1403.99492	0.66467
1402.06636	0.66546
1400.13779	0.66534
1398.20923	0.66434
1396.28066	0.66215
1394.35210	0.65841
1392.42354	0.65352
1390.49497	0.64879
1388.56641	0.64428
1386.63784	0.63896
1384.70928	0.63299
1382.78071	0.62744
1380.85215	0.62248
1378.92358	0.61819
1376.99502	0.61498
1375.06646	0.61310
1373.13789	0.61186
1371.20933	0.61082
1369.28076	0.61008
1367.35220	0.60910
1365.42363	0.60769
1363.49507	0.60644
1361.56650	0.60520
1359.63794	0.60346
1357.70937	0.60167
1355.78081	0.60013
1353.85225	0.59891
1351.92368	0.59798
1349.99512	0.59726
1348.06655	0.59662
1346.13799	0.59593
1344.20942	0.59519
1342.28086	0.59456
1340.35229	0.59416
1338.42373	0.59370
1336.49517	0.59297
1334.56660	0.59236
1332.63804	0.59206
1330.70947	0.59209
1328.78091	0.59258
1326.85234	0.59344
1324.92378	0.59439
1322.99521	0.59543
1321.06665	0.59659
1319.13809	0.59763
1317.20952	0.59824
1315.28096	0.59835
1313.35239	0.59812
1311.42383	0.59771
1309.49526	0.59715
1307.56670	0.59650
1305.63813	0.59584
1303.70957	0.59511
1301.78101	0.59418
1299.85244	0.59316
1297.92388	0.59215
1295.99531	0.59106
1294.06675	0.58986
1292.13818	0.58862
1290.20962	0.58727
1288.28105	0.58579
1286.35249	0.58434
1284.42393	0.58297
1282.49536	0.58147
1280.56680	0.57992
1278.63823	0.57854
1276.70967	0.57728
1274.78110	0.57598
1272.85254	0.57485
1270.92397	0.57410
1268.99541	0.57356
1267.06685	0.57290
1265.13828	0.57201
1263.20972	0.57100
1261.28115	0.56998
1259.35259	0.56908
1257.42402	0.56829
1255.49546	0.56779
1253.56689	0.56773
1251.63833	0.56800
1249.70977	0.56836
1247.78120	0.56849
1245.85264	0.56818
1243.92407	0.56752
1241.99551	0.56653
1240.06694	0.56516
1238.13838	0.56348
1236.20981	0.56141
1234.28125	0.55894
1232.35269	0.55637
1230.42412	0.55395
1228.49556	0.55168
1226.56699	0.54954
1224.63843	0.54759
1222.70986	0.54580
1220.78130	0.54410
1218.85273	0.54244
1216.92417	0.54093
1214.99561	0.53972
1213.06704	0.53875
1211.13848	0.53790
1209.20991	0.53713
1207.28135	0.53638
1205.35278	0.53564
1203.42422	0.53486
1201.49565	0.53394
1199.56709	0.53290
1197.63853	0.53196
1195.70996	0.53115
1193.78140	0.53043
1191.85283	0.52989
1189.92427	0.52952
1187.99570	0.52919
1186.06714	0.52900
1184.13857	0.52905
1182.21001	0.52942
1180.28145	0.53031
1178.35288	0.53166
1176.42432	0.53308
1174.49575	0.53444
1172.56719	0.53555
1170.63862	0.53604
1168.71006	0.53606
1166.78149	0.53607
1164.85293	0.53623
1162.92437	0.53638
1160.99580	0.53634
1159.06724	0.53613
1157.13867	0.53567
1155.21011	0.53483
1153.28154	0.53364
1151.35298	0.53206
1149.42441	0.52997
1147.49585	0.52739
1145.56729	0.52457
1143.63872	0.52185
1141.71016	0.51952
1139.78159	0.51787
1137.85303	0.51685
1135.92446	0.51634
1133.99590	0.51645
1132.06733	0.51696
1130.13877	0.51741
1128.21021	0.51744
1126.28164	0.51699
1124.35308	0.51638
1122.42451	0.51591
1120.49595	0.51563
1118.56738	0.51563
1116.63882	0.51595
1114.71025	0.51641
1112.78169	0.51709
1110.85312	0.51811
1108.92456	0.51924
1106.99600	0.52031
1105.06743	0.52139
1103.13887	0.52241
1101.21030	0.52331
1099.28174	0.52441
1097.35317	0.52614
1095.42461	0.52881
1093.49604	0.53257
1091.56748	0.53737
1089.63892	0.54322
1087.71035	0.55035
1085.78179	0.55868
1083.85322	0.56723
1081.92466	0.57460
1079.99609	0.57985
1078.06753	0.58239
1076.13896	0.58193
1074.21040	0.57875
1072.28184	0.57348
1070.35327	0.56677
1068.42471	0.55943
1066.49614	0.55231
1064.56758	0.54604
1062.63901	0.54058
1060.71045	0.53560
1058.78188	0.53104
1056.85332	0.52704
1054.92476	0.52377
1052.99619	0.52103
1051.06763	0.51857
1049.13906	0.51665
1047.21050	0.51545
1045.28193	0.51471
1043.35337	0.51437
1041.42480	0.51436
1039.49624	0.51420
1037.56768	0.51376
1035.63911	0.51322
1033.71055	0.51245
1031.78198	0.51139
1029.85342	0.50995
1027.92485	0.50820
1025.99629	0.50661
1024.06772	0.50537
1022.13916	0.50424
1020.21060	0.50324
1018.28203	0.50258
1016.35347	0.50234
1014.42490	0.50237
1012.49634	0.50240
1010.56777	0.50260
1008.63921	0.50304
1006.71064	0.50356
1004.78208	0.50427
1002.85352	0.50553
1000.92495	0.50767
998.99639	0.51096
997.06782	0.51514
995.13926	0.51951
993.21069	0.52366
991.28213	0.52722
989.35356	0.52955
987.42500	0.53046
985.49644	0.53041
983.56787	0.53006
981.63931	0.52985
979.71074	0.53017
977.78218	0.53135
975.85361	0.53329
973.92505	0.53561
971.99648	0.53807
970.06792	0.54091
968.13936	0.54443
966.21079	0.54834
964.28223	0.55245
962.35366	0.55715
960.42510	0.56236
958.49653	0.56760
956.56797	0.57282
954.63940	0.57833
952.71084	0.58428
950.78228	0.59042
948.85371	0.59655
946.92515	0.60287
944.99658	0.60934
943.06802	0.61557
941.13945	0.62149
939.21089	0.62733
937.28232	0.63312
935.35376	0.63880
933.42520	0.64450
931.49663	0.65012
929.56807	0.65540
927.63950	0.66060
925.71094	0.66625
923.78237	0.67250
921.85381	0.67897
919.92524	0.68509
917.99668	0.69138
916.06812	0.69894
914.13955	0.70718
912.21099	0.71468
910.28242	0.72197
908.35386	0.72965
906.42529	0.73710
904.49673	0.74508
902.56816	0.75438
900.63960	0.76402
898.71104	0.77280
896.78247	0.78104
894.85391	0.79090
892.92534	0.80282
890.99678	0.81471
889.06821	0.82577
887.13965	0.83651
885.21108	0.84710
883.28252	0.85734
881.35396	0.86818
879.42539	0.87969
877.49683	0.88929
875.56826	0.89768
873.63970	0.90916
871.71113	0.92349
869.78257	0.93671
867.85400	0.94853
865.92544	0.96012
863.99687	0.97035
862.06831	0.97962
860.13975	0.99039
858.21118	1.00335
856.28262	1.01560
854.35405	1.02604
852.42549	1.03786
850.49692	1.05170
848.56836	1.06528
846.63979	1.07730
844.71123	1.08738
842.78267	1.09569
840.85410	1.10349
838.92554	1.11281
836.99697	1.12486
835.06841	1.13733
833.13984	1.14788
831.21128	1.15655
829.28271	1.16548
827.35415	1.18026
825.42559	1.19958
823.49702	1.21741
821.56846	1.23015
819.63989	1.23436
817.71133	1.23721
815.78276	1.24499
813.85420	1.24888
811.92563	1.24974
809.99707	1.25856
808.06851	1.26941
806.13994	1.28182
804.21138	1.30724
802.28281	1.33467
800.35425	1.34610
798.42568	1.34909
796.49712	1.35172
794.56855	1.35062
792.63999	1.35000
790.71143	1.35162
788.78286	1.34629
786.85430	1.34239
784.92573	1.35372
782.99717	1.34817
781.06860	1.34515
779.14004	1.42266
777.21147	1.51756
775.28291	1.46074
773.35435	1.38440
771.42578	1.37726
769.49722	1.36302
767.56865	1.35024
765.64009	1.39252
763.71152	1.41096
761.78296	1.38972
759.85439	1.50808
757.92583	2.51631
755.99727	4.53598
754.06870	4.52441
752.14014	2.08163
750.21157	1.36710
748.28301	1.15656
746.35444	1.06003
744.42588	1.09952
742.49731	1.20240
740.56875	1.14182
738.64019	1.06364
736.71162	1.12139
734.78306	0.96661
732.85449	0.65235
730.92593	0.48255
728.99736	0.41751
727.06880	0.41065
725.14023	0.50284
723.21167	0.58095
721.28311	0.36216
719.35454	0.17494
717.42598	0.11907
715.49741	0.16797
713.56885	0.21018
711.64028	0.18868
709.71172	0.22916
707.78315	0.49181
705.85459	0.39298
703.92603	0.14552
701.99746	0.08324
700.06890	0.13843
698.14033	0.24748
696.21177	0.35531
694.28320	0.47777
692.35464	0.61230
690.42607	0.68748
688.49751	0.59591
686.56895	0.41513
684.64038	0.31243
682.71182	0.34450
680.78325	0.42965
678.85469	0.36930
676.92612	0.28318
674.99756	0.26852
673.06899	0.35370
671.14043	0.64537
669.21187	0.81233
667.28330	0.51392
665.35474	0.36245
663.42617	0.35541
661.49761	0.40724
659.56904	0.41267
657.64048	0.38097
655.71191	0.32896
653.78335	0.30099
651.85479	0.34079
649.92622	0.45158
647.99766	0.57378
646.06909	0.70276
644.14053	1.39770
642.21196	3.85327
640.28340	0.72147
638.35483	0.38442
636.42627	0.31074
634.49771	0.37633
632.56914	0.31381
630.64058	0.20363
628.71201	0.21524
626.78345	0.27533
624.85488	0.40338
622.92632	0.58492
620.99775	0.43925
619.06919	0.31188
617.14062	0.36573
615.21206	0.64693
613.28350	3.67970
611.35493	0.59462
609.42637	0.31373
607.49780	0.27211
605.56924	0.30003
603.64067	0.28829
601.71211	0.27683
599.78354	0.26655
597.85498	0.24773
595.92642	0.25170
593.99785	0.28236
592.06929	0.39984
590.14072	0.51860
588.21216	0.35090
586.28359	0.23798
584.35503	0.29665
582.42646	0.38854
580.49790	0.34629
578.56934	0.31309
576.64077	0.32748
574.71221	0.39292
572.78364	0.38447
570.85508	0.25880
568.92651	0.23450
566.99795	0.33170
565.06938	0.38886
563.14082	0.33852
561.21226	0.32839
559.28369	0.37435
557.35513	0.41059
555.42656	0.36669
553.49800	0.29209
551.56943	0.29340
549.64087	0.39413
547.71230	0.45057
545.78374	0.46979
543.85518	0.56759
541.92661	0.47270
539.99805	0.25737
538.06948	0.20189
536.14092	0.37794
534.21235	0.85265
532.28379	0.56745
530.35522	0.39722
528.42666	0.43108
526.49810	0.53849
524.56953	0.45355
522.64097	0.31676
520.71240	0.25295
518.78384	0.23427
516.85527	0.22762
514.92671	0.22760
512.99814	0.20900
511.06958	0.19361
509.14102	0.21076
507.21245	0.23481
505.28389	0.25995
503.35532	0.30842
501.42676	0.37899
499.49819	0.47757
