3997.91411	0.06800
3995.98555	0.06891
3994.05698	0.06986
3992.12842	0.07085
3990.19985	0.07150
3988.27129	0.07150
3986.34272	0.07108
3984.41416	0.07085
3982.48560	0.07106
3980.55703	0.07150
3978.62847	0.07188
3976.69990	0.07218
3974.77134	0.07252
3972.84277	0.07275
3970.91421	0.07267
3968.98564	0.07244
3967.05708	0.07237
3965.12852	0.07251
3963.19995	0.07267
3961.27139	0.07290
3959.34282	0.07326
3957.41426	0.07340
3955.48569	0.07329
3953.55713	0.07349
3951.62856	0.07431
3949.70000	0.07525
3947.77144	0.07540
3945.84287	0.07481
3943.91431	0.07478
3941.98574	0.07540
3940.05718	0.07532
3938.12861	0.07451
3936.20005	0.07394
3934.27148	0.07430
3932.34292	0.07551
3930.41436	0.07630
3928.48579	0.07576
3926.55723	0.07494
3924.62866	0.07502
3922.70010	0.07533
3920.77153	0.07534
3918.84297	0.07591
3916.91440	0.07662
3914.98584	0.07599
3913.05728	0.07431
3911.12871	0.07298
3909.20015	0.07258
3907.27158	0.07337
3905.34302	0.07585
3903.41445	0.07923
3901.48589	0.08081
3899.55732	0.07996
3897.62876	0.07806
3895.70020	0.07638
3893.77163	0.07622
3891.84307	0.07762
3889.91450	0.07815
3887.98594	0.07682
3886.05737	0.07639
3884.12881	0.07709
3882.20024	0.07742
3880.27168	0.07778
3878.34312	0.07731
3876.41455	0.07642
3874.48599	0.07753
3872.55742	0.08020
3870.62886	0.08216
3868.70029	0.08230
3866.77173	0.08122
3864.84316	0.08144
3862.91460	0.08223
3860.98604	0.08113
3859.05747	0.08008
3857.12891	0.08092
3855.20034	0.08366
3853.27178	0.08820
3851.34321	0.08966
3849.41465	0.08573
3847.48608	0.08253
3845.55752	0.08189
3843.62896	0.08314
3841.70039	0.08552
3839.77183	0.08912
3837.84326	0.09270
3835.91470	0.09285
3833.98613	0.09058
3832.05757	0.08903
3830.12900	0.08814
3828.20044	0.08785
3826.27187	0.08901
3824.34331	0.09090
3822.41475	0.09328
3820.48618	0.09691
3818.55762	0.09860
3816.62905	0.09821
3814.70049	0.09758
3812.77192	0.09559
3810.84336	0.09411
3808.91479	0.09500
3806.98623	0.09806
3805.05767	0.10111
3803.12910	0.10329
3801.20054	0.10635
3799.27197	0.10798
3797.34341	0.10701
3795.41484	0.10566
3793.48628	0.10418
3791.55771	0.10373
3789.62915	0.10496
3787.70059	0.10703
3785.77202	0.10937
3783.84346	0.11135
3781.91489	0.11262
3779.98633	0.11447
3778.05776	0.11674
3776.12920	0.11732
3774.20063	0.11756
3772.27207	0.11959
3770.34351	0.12323
3768.41494	0.12675
3766.48638	0.12895
3764.55781	0.13051
3762.62925	0.13170
3760.70068	0.13379
3758.77212	0.13766
3756.84355	0.14098
3754.91499	0.14283
3752.98643	0.14607
3751.05786	0.15268
3749.12930	0.15958
3747.20073	0.16171
3745.27217	0.16294
3743.34360	0.16635
3741.41504	0.16960
3739.48647	0.17256
3737.55791	0.17746
3735.62935	0.18539
3733.70078	0.19415
3731.77222	0.19886
3729.84365	0.20119
3727.91509	0.20456
3725.98652	0.21007
3724.05796	0.21639
3722.12939	0.22200
3720.20083	0.22735
3718.27227	0.23229
3716.34370	0.23718
3714.41514	0.24375
3712.48657	0.25492
3710.55801	0.27228
3708.62944	0.28851
3706.70088	0.29881
3704.77231	0.30837
3702.84375	0.32101
3700.91519	0.33792
3698.98662	0.35571
3697.05806	0.37232
3695.12949	0.39062
3693.20093	0.41105
3691.27236	0.43433
3689.34380	0.46427
3687.41523	0.49827
3685.48667	0.52591
3683.55811	0.55009
3681.62954	0.57774
3679.70098	0.61040
3677.77241	0.64555
3675.84385	0.68666
3673.91528	0.74036
3671.98672	0.78357
3670.05815	0.82246
3668.12959	0.87568
3666.20103	0.92270
3664.27246	0.96152
3662.34390	1.00437
3660.41533	1.05200
3658.48677	1.09957
3656.55820	1.15031
3654.62964	1.20692
3652.70107	1.25442
3650.77251	1.29649
3648.84395	1.35600
3646.91538	1.42673
3644.98682	1.47516
3643.05825	1.51273
3641.12969	1.55281
3639.20112	1.59745
3637.27256	1.64303
3635.34399	1.68778
3633.41543	1.73209
3631.48687	1.77404
3629.55830	1.81787
3627.62974	1.87350
3625.70117	1.92263
3623.77261	1.95589
3621.84404	1.98935
3619.91548	2.02800
3617.98691	2.07385
3616.05835	2.11800
3614.12979	2.15570
3612.20122	2.19538
3610.27266	2.23417
3608.34409	2.27304
3606.41553	2.31586
3604.48696	2.35571
3602.55840	2.39076
3600.62983	2.42961
3598.70127	2.47262
3596.77271	2.51282
3594.84414	2.55212
3592.91558	2.59362
3590.98701	2.63349
3589.05845	2.67099
3587.12988	2.71525
3585.20132	2.76232
3583.27275	2.80136
3581.34419	2.83815
3579.41562	2.87840
3577.48706	2.92172
3575.55850	2.96535
3573.62993	3.00845
3571.70137	3.04933
3569.77280	3.08879
3567.84424	3.13221
3565.91567	3.18607
3563.98711	3.23699
3562.05854	3.27748
3560.12998	3.31786
3558.20142	3.36014
3556.27285	3.40399
3554.34429	3.44965
3552.41572	3.49769
3550.48716	3.54688
3548.55859	3.59466
3546.63003	3.64064
3544.70146	3.68780
3542.77290	3.73407
3540.84434	3.77685
3538.91577	3.82025
3536.98721	3.86601
3535.05864	3.91467
3533.13008	3.96396
3531.20151	4.01290
3529.27295	4.06210
3527.34438	4.11126
3525.41582	4.15929
3523.48726	4.20749
3521.55869	4.25760
3519.63013	4.30575
3517.70156	4.35279
3515.77300	4.40046
3513.84443	4.44841
3511.91587	4.49932
3509.98730	4.55101
3508.05874	4.59484
3506.13018	4.63486
3504.20161	4.68080
3502.27305	4.72798
3500.34448	4.77136
3498.41592	4.81745
3496.48735	4.87011
3494.55879	4.92109
3492.63022	4.96721
3490.70166	5.01779
3488.77310	5.07193
3486.84453	5.11881
3484.91597	5.15655
3482.98740	5.19267
3481.05884	5.23404
3479.13027	5.27971
3477.20171	5.32939
3475.27314	5.38555
3473.34458	5.44516
3471.41602	5.50136
3469.48745	5.54682
3467.55889	5.58059
3465.63032	5.61563
3463.70176	5.66754
3461.77319	5.72680
3459.84463	5.77704
3457.91606	5.81875
3455.98750	5.86373
3454.05894	5.92158
3452.13037	5.98056
3450.20181	6.02512
3448.27324	6.06349
3446.34468	6.11176
3444.41611	6.16791
3442.48755	6.22436
3440.55898	6.27077
3438.63042	6.31260
3436.70186	6.36638
3434.77329	6.42445
3432.84473	6.46469
3430.91616	6.49362
3428.98760	6.54835
3427.05903	6.61073
3425.13047	6.64487
3423.20190	6.67498
3421.27334	6.72104
3419.34478	6.76713
3417.41621	6.83051
3415.48765	6.91118
3413.55908	6.96322
3411.63052	6.98861
3409.70195	6.99834
3407.77339	7.02274
3405.84482	7.08916
3403.91626	7.15337
3401.98770	7.16838
3400.05913	7.19116
3398.13057	7.26472
3396.20200	7.31207
3394.27344	7.30461
3392.34487	7.30591
3390.41631	7.36012
3388.48774	7.43112
3386.55918	7.48331
3384.63062	7.51299
3382.70205	7.51600
3380.77349	7.53236
3378.84492	7.59884
3376.91636	7.69017
3374.98779	7.73245
3373.05923	7.70713
3371.13066	7.67780
3369.20210	7.71020
3367.27354	7.78048
3365.34497	7.85229
3363.41641	7.89340
3361.48784	7.86461
3359.55928	7.82352
3357.63071	7.81592
3355.70215	7.85364
3353.77358	7.90904
3351.84502	7.92243
3349.91646	7.88722
3347.98789	7.85341
3346.05933	7.84255
3344.13076	7.87173
3342.20220	7.96519
3340.27363	8.06780
3338.34507	8.08024
3336.41650	8.02875
3334.48794	8.02820
3332.55937	8.02967
3330.63081	8.00684
3328.70225	8.00470
3326.77368	8.02323
3324.84512	8.04952
3322.91655	8.02170
3320.98799	7.98823
3319.05942	8.01447
3317.13086	8.07173
3315.20229	8.09944
3313.27373	8.10417
3311.34517	8.12801
3309.41660	8.11977
3307.48804	8.04195
3305.55947	7.97163
3303.63091	7.99551
3301.70234	8.10498
3299.77378	8.23323
3297.84521	8.26588
3295.91665	8.17465
3293.98809	8.07763
3292.05952	8.06756
3290.13096	8.12323
3288.20239	8.11924
3286.27383	8.04318
3284.34526	8.01870
3282.41670	8.06399
3280.48813	8.08632
3278.55957	8.07355
3276.63101	8.06603
3274.70244	8.06690
3272.77388	8.05853
3270.84531	8.04089
3268.91675	8.03469
3266.98818	8.02700
3265.05962	7.98868
3263.13105	7.95347
3261.20249	7.98419
3259.27393	8.05077
3257.34536	8.10113
3255.41680	8.12761
3253.48823	8.16154
3251.55967	8.20365
3249.63110	8.17014
3247.70254	8.05044
3245.77397	7.95039
3243.84541	7.96643
3241.91685	8.05886
3239.98828	8.08818
3238.05972	8.02483
3236.13115	7.97974
3234.20259	7.96923
3232.27402	7.94586
3230.34546	7.94911
3228.41689	8.02128
3226.48833	8.13027
3224.55977	8.15511
3222.63120	8.10021
3220.70264	8.06605
3218.77407	8.01957
3216.84551	7.97126
3214.91694	7.98725
3212.98838	8.00563
3211.05981	7.94177
3209.13125	7.82689
3207.20269	7.76199
3205.27412	7.78209
3203.34556	7.77222
3201.41699	7.66522
3199.48843	7.54583
3197.55986	7.48486
3195.63130	7.45163
3193.70273	7.39432
3191.77417	7.35381
3189.84561	7.35452
3187.91704	7.36013
3185.98848	7.34432
3184.05991	7.30523
3182.13135	7.24949
3180.20278	7.17829
3178.27422	7.11980
3176.34565	7.09036
3174.41709	7.05618
3172.48853	6.99932
3170.55996	6.93284
3168.63140	6.87648
3166.70283	6.82975
3164.77427	6.77017
3162.84570	6.70201
3160.91714	6.64252
3158.98857	6.57914
3157.06001	6.49251
3155.13145	6.40743
3153.20288	6.35479
3151.27432	6.31824
3149.34575	6.26949
3147.41719	6.19712
3145.48862	6.10646
3143.56006	6.02246
3141.63149	5.95128
3139.70293	5.87887
3137.77437	5.80801
3135.84580	5.74155
3133.91724	5.67396
3131.98867	5.60415
3130.06011	5.53189
3128.13154	5.45469
3126.20298	5.38231
3124.27441	5.32447
3122.34585	5.26266
3120.41729	5.18571
3118.48872	5.10567
3116.56016	5.03166
3114.63159	4.96650
3112.70303	4.90443
3110.77446	4.83678
3108.84590	4.76695
3106.91733	4.70346
3104.98877	4.64073
3103.06021	4.57141
3101.13164	4.50301
3099.20308	4.43993
3097.27451	4.37490
3095.34595	4.30792
3093.41738	4.24521
3091.48882	4.18505
3089.56025	4.12382
3087.63169	4.06198
3085.70312	4.00032
3083.77456	3.93912
3081.84600	3.87954
3079.91743	3.82141
3077.98887	3.76360
3076.06030	3.70626
3074.13174	3.64918
3072.20317	3.59190
3070.27461	3.53537
3068.34604	3.48093
3066.41748	3.42801
3064.48892	3.37514
3062.56035	3.32200
3060.63179	3.26898
3058.70322	3.21581
3056.77466	3.16247
3054.84609	3.11015
3052.91753	3.05931
3050.98896	3.00963
3049.06040	2.96115
3047.13184	2.91307
3045.20327	2.86475
3043.27471	2.81686
3041.34614	2.76932
3039.41758	2.72229
3037.48901	2.67656
3035.56045	2.63132
3033.63188	2.58624
3031.70332	2.54239
3029.77476	2.49984
3027.84619	2.45762
3025.91763	2.41551
3023.98906	2.37354
3022.06050	2.33173
3020.13193	2.29110
3018.20337	2.25214
3016.27480	2.21387
3014.34624	2.17561
3012.41768	2.13751
3010.48911	2.10004
3008.56055	2.06372
3006.63198	2.02824
3004.70342	1.99308
3002.77485	1.95829
3000.84629	1.92419
2998.91772	1.89130
2996.98916	1.85965
2995.06060	1.82869
2993.13203	1.79832
2991.20347	1.76866
2989.27490	1.73940
2987.34634	1.71057
2985.41777	1.68259
2983.48921	1.65560
2981.56064	1.62926
2979.63208	1.60292
2977.70352	1.57664
2975.77495	1.55100
2973.84639	1.52593
2971.91782	1.50127
2969.98926	1.47709
2968.06069	1.45308
2966.13213	1.42909
2964.20356	1.40510
2962.27500	1.38118
2960.34644	1.35759
2958.41787	1.33420
2956.48931	1.31073
2954.56074	1.28741
2952.63218	1.26469
2950.70361	1.24261
2948.77505	1.22088
2946.84648	1.19899
2944.91792	1.17694
2942.98936	1.15520
2941.06079	1.13382
2939.13223	1.11250
2937.20366	1.09100
2935.27510	1.06953
2933.34653	1.04851
2931.41797	1.02768
2929.48940	1.00656
2927.56084	0.98570
2925.63228	0.96603
2923.70371	0.94755
2921.77515	0.93005
2919.84658	0.91359
2917.91802	0.89813
2915.98945	0.88352
2914.06089	0.86985
2912.13232	0.85697
2910.20376	0.84377
2908.27520	0.82981
2906.34663	0.81605
2904.41807	0.80281
2902.48950	0.78975
2900.56094	0.77687
2898.63237	0.76427
2896.70381	0.75214
2894.77524	0.74052
2892.84668	0.72913
2890.91812	0.71787
2888.98955	0.70688
2887.06099	0.69630
2885.13242	0.68617
2883.20386	0.67633
2881.27529	0.66673
2879.34673	0.65733
2877.41816	0.64786
2875.48960	0.63806
2873.56104	0.62801
2871.63247	0.61766
2869.70391	0.60649
2867.77534	0.59460
2865.84678	0.58252
2863.91821	0.57027
2861.98965	0.55790
2860.06108	0.54575
2858.13252	0.53389
2856.20396	0.52238
2854.27539	0.51168
2852.34683	0.50242
2850.41826	0.49476
2848.48970	0.48822
2846.56113	0.48221
2844.63257	0.47648
2842.70400	0.47089
2840.77544	0.46555
2838.84687	0.46057
2836.91831	0.45551
2834.98975	0.44983
2833.06118	0.44376
2831.13262	0.43789
2829.20405	0.43233
2827.27549	0.42671
2825.34692	0.42085
2823.41836	0.41500
2821.48979	0.40934
2819.56123	0.40381
2817.63267	0.39825
2815.70410	0.39266
2813.77554	0.38728
2811.84697	0.38203
2809.91841	0.37671
2807.98984	0.37122
2806.06128	0.36575
2804.13271	0.36063
2802.20415	0.35573
2800.27559	0.35076
2798.34702	0.34588
2796.41846	0.34125
2794.48989	0.33672
2792.56133	0.33214
2790.63276	0.32748
2788.70420	0.32288
2786.77563	0.31846
2784.84707	0.31421
2782.91851	0.31010
2780.98994	0.30604
2779.06138	0.30197
2777.13281	0.29799
2775.20425	0.29420
2773.27568	0.29051
2771.34712	0.28676
2769.41855	0.28296
2767.48999	0.27928
2765.56143	0.27572
2763.63286	0.27229
2761.70430	0.26892
2759.77573	0.26557
2757.84717	0.26229
2755.91860	0.25908
2753.99004	0.25594
2752.06147	0.25289
2750.13291	0.24996
2748.20435	0.24714
2746.27578	0.24423
2744.34722	0.24131
2742.41865	0.23865
2740.49009	0.23613
2738.56152	0.23360
2736.63296	0.23106
2734.70439	0.22842
2732.77583	0.22571
2730.84727	0.22319
2728.91870	0.22089
2726.99014	0.21862
2725.06157	0.21634
2723.13301	0.21418
2721.20444	0.21207
2719.27588	0.21001
2717.34731	0.20807
2715.41875	0.20609
2713.49019	0.20401
2711.56162	0.20211
2709.63306	0.20048
2707.70449	0.19883
2705.77593	0.19711
2703.84736	0.19554
2701.91880	0.19399
2699.99023	0.19231
2698.06167	0.19078
2696.13311	0.18941
2694.20454	0.18801
2692.27598	0.18650
2690.34741	0.18496
2688.41885	0.18360
2686.49028	0.18243
2684.56172	0.18113
2682.63315	0.17984
2680.70459	0.17877
2678.77603	0.17770
2676.84746	0.17638
2674.91890	0.17498
2672.99033	0.17380
2671.06177	0.17293
2669.13320	0.17206
2667.20464	0.17097
2665.27607	0.16980
2663.34751	0.16868
2661.41895	0.16771
2659.49038	0.16697
2657.56182	0.16638
2655.63325	0.16564
2653.70469	0.16469
2651.77612	0.16381
2649.84756	0.16314
2647.91899	0.16249
2645.99043	0.16184
2644.06187	0.16134
2642.13330	0.16082
2640.20474	0.16015
2638.27617	0.15940
2636.34761	0.15867
2634.41904	0.15810
2632.49048	0.15771
2630.56191	0.15729
2628.63335	0.15686
2626.70479	0.15649
2624.77622	0.15611
2622.84766	0.15576
2620.91909	0.15545
2618.99053	0.15512
2617.06196	0.15478
2615.13340	0.15447
2613.20483	0.15420
2611.27627	0.15389
2609.34771	0.15366
2607.41914	0.15365
2605.49058	0.15367
2603.56201	0.15352
2601.63345	0.15334
2599.70488	0.15338
2597.77632	0.15345
2595.84775	0.15334
2593.91919	0.15329
2591.99062	0.15336
2590.06206	0.15340
2588.13350	0.15344
2586.20493	0.15355
2584.27637	0.15372
2582.34780	0.15402
2580.41924	0.15437
2578.49067	0.15464
2576.56211	0.15481
2574.63354	0.15505
2572.70498	0.15537
2570.77642	0.15556
2568.84785	0.15566
2566.91929	0.15589
2564.99072	0.15625
2563.06216	0.15660
2561.13359	0.15695
2559.20503	0.15735
2557.27646	0.15778
2555.34790	0.15829
2553.41934	0.15880
2551.49077	0.15922
2549.56221	0.15967
2547.63364	0.16019
2545.70508	0.16064
2543.77651	0.16103
2541.84795	0.16149
2539.91938	0.16205
2537.99082	0.16268
2536.06226	0.16328
2534.13369	0.16382
2532.20513	0.16440
2530.27656	0.16509
2528.34800	0.16576
2526.41943	0.16637
2524.49087	0.16702
2522.56230	0.16769
2520.63374	0.16830
2518.70518	0.16897
2516.77661	0.16971
2514.84805	0.17042
2512.91948	0.17117
2510.99092	0.17196
2509.06235	0.17272
2507.13379	0.17350
2505.20522	0.17425
2503.27666	0.17485
2501.34810	0.17545
2499.41953	0.17622
2497.49097	0.17704
2495.56240	0.17785
2493.63384	0.17861
2491.70527	0.17939
2489.77671	0.18020
2487.84814	0.18086
2485.91958	0.18148
2483.99102	0.18231
2482.06245	0.18335
2480.13389	0.18441
2478.20532	0.18526
2476.27676	0.18590
2474.34819	0.18657
2472.41963	0.18736
2470.49106	0.18822
2468.56250	0.18913
2466.63394	0.19007
2464.70537	0.19099
2462.77681	0.19186
2460.84824	0.19276
2458.91968	0.19366
2456.99111	0.19449
2455.06255	0.19533
2453.13398	0.19625
2451.20542	0.19715
2449.27686	0.19797
2447.34829	0.19882
2445.41973	0.19983
2443.49116	0.20092
2441.56260	0.20191
2439.63403	0.20278
2437.70547	0.20366
2435.77690	0.20467
2433.84834	0.20571
2431.91978	0.20670
2429.99121	0.20775
2428.06265	0.20882
2426.13408	0.20981
2424.20552	0.21073
2422.27695	0.21166
2420.34839	0.21264
2418.41982	0.21360
2416.49126	0.21458
2414.56270	0.21573
2412.63413	0.21695
2410.70557	0.21804
2408.77700	0.21913
2406.84844	0.22031
2404.91987	0.22144
2402.99131	0.22255
2401.06274	0.22369
2399.13418	0.22488
2397.20562	0.22610
2395.27705	0.22726
2393.34849	0.22842
2391.41992	0.22970
2389.49136	0.23113
2387.56279	0.23301
2385.63423	0.23591
2383.70566	0.24034
2381.77710	0.24636
2379.84854	0.25371
2377.91997	0.26213
2375.99141	0.27157
2374.06284	0.28231
2372.13428	0.29414
2370.20571	0.30603
2368.27715	0.31767
2366.34858	0.32911
2364.42002	0.33906
2362.49146	0.34618
2360.56289	0.35029
2358.63433	0.35177
2356.70576	0.35009
2354.77720	0.34382
2352.84863	0.33333
2350.92007	0.32171
2348.99150	0.31470
2347.06294	0.31547
2345.13437	0.32395
2343.20581	0.33549
2341.27725	0.34290
2339.34868	0.34504
2337.42012	0.34432
2335.49155	0.34308
2333.56299	0.34223
2331.63442	0.34206
2329.70586	0.34187
2327.77729	0.34075
2325.84873	0.33859
2323.92017	0.33559
2321.99160	0.33224
2320.06304	0.32881
2318.13447	0.32545
2316.20591	0.32275
2314.27734	0.32126
2312.34878	0.32067
2310.42021	0.32008
2308.49165	0.31883
2306.56309	0.31708
2304.63452	0.31553
2302.70596	0.31484
2300.77739	0.31499
2298.84883	0.31539
2296.92026	0.31578
2294.99170	0.31627
2293.06313	0.31687
2291.13457	0.31744
2289.20601	0.31789
2287.27744	0.31826
2285.34888	0.31863
2283.42031	0.31946
2281.49175	0.32129
2279.56318	0.32373
2277.63462	0.32610
2275.70605	0.32833
2273.77749	0.33045
2271.84893	0.33245
2269.92036	0.33444
2267.99180	0.33647
2266.06323	0.33845
2264.13467	0.34030
2262.20610	0.34209
2260.27754	0.34396
2258.34897	0.34590
2256.42041	0.34769
2254.49185	0.34942
2252.56328	0.35131
2250.63472	0.35325
2248.70615	0.35511
2246.77759	0.35699
2244.84902	0.35907
2242.92046	0.36127
2240.99189	0.36337
2239.06333	0.36533
2237.13477	0.36728
2235.20620	0.36933
2233.27764	0.37155
2231.34907	0.37385
2229.42051	0.37600
2227.49194	0.37806
2225.56338	0.38019
2223.63481	0.38238
2221.70625	0.38458
2219.77769	0.38671
2217.84912	0.38871
2215.92056	0.39076
2213.99199	0.39300
2212.06343	0.39526
2210.13486	0.39740
2208.20630	0.39956
2206.27773	0.40165
2204.34917	0.40352
2202.42061	0.40550
2200.49204	0.40772
2198.56348	0.40987
2196.63491	0.41182
2194.70635	0.41369
2192.77778	0.41551
2190.84922	0.41734
2188.92065	0.41918
2186.99209	0.42101
2185.06353	0.42284
2183.13496	0.42456
2181.20640	0.42616
2179.27783	0.42779
2177.34927	0.42944
2175.42070	0.43090
2173.49214	0.43225
2171.56357	0.43364
2169.63501	0.43504
2167.70645	0.43639
2165.77788	0.43776
2163.84932	0.43910
2161.92075	0.44026
2159.99219	0.44133
2158.06362	0.44237
2156.13506	0.44333
2154.20649	0.44421
2152.27793	0.44497
2150.34937	0.44570
2148.42080	0.44655
2146.49224	0.44740
2144.56367	0.44797
2142.63511	0.44833
2140.70654	0.44866
2138.77798	0.44892
2136.84941	0.44908
2134.92085	0.44923
2132.99229	0.44934
2131.06372	0.44935
2129.13516	0.44927
2127.20659	0.44914
2125.27803	0.44896
2123.34946	0.44863
2121.42090	0.44819
2119.49233	0.44779
2117.56377	0.44742
2115.63521	0.44691
2113.70664	0.44618
2111.77808	0.44534
2109.84951	0.44451
2107.92095	0.44362
2105.99238	0.44255
2104.06382	0.44138
2102.13525	0.44018
2100.20669	0.43892
2098.27812	0.43763
2096.34956	0.43638
2094.42100	0.43506
2092.49243	0.43355
2090.56387	0.43198
2088.63530	0.43038
2086.70674	0.42864
2084.77817	0.42681
2082.84961	0.42506
2080.92104	0.42328
2078.99248	0.42133
2077.06392	0.41928
2075.13535	0.41722
2073.20679	0.41515
2071.27822	0.41306
2069.34966	0.41093
2067.42109	0.40881
2065.49253	0.40674
2063.56396	0.40447
2061.63540	0.40200
2059.70684	0.39961
2057.77827	0.39722
2055.84971	0.39468
2053.92114	0.39213
2051.99258	0.38965
2050.06401	0.38714
2048.13545	0.38463
2046.20688	0.38216
2044.27832	0.37964
2042.34976	0.37707
2040.42119	0.37441
2038.49263	0.37164
2036.56406	0.36891
2034.63550	0.36622
2032.70693	0.36357
2030.77837	0.36103
2028.84980	0.35840
2026.92124	0.35559
2024.99268	0.35273
2023.06411	0.34996
2021.13555	0.34734
2019.20698	0.34489
2017.27842	0.34238
2015.34985	0.33955
2013.42129	0.33661
2011.49272	0.33381
2009.56416	0.33111
2007.63560	0.32847
2005.70703	0.32593
2003.77847	0.32343
2001.84990	0.32082
1999.92134	0.31816
1997.99277	0.31552
1996.06421	0.31296
1994.13564	0.31067
1992.20708	0.30854
1990.27852	0.30617
1988.34995	0.30356
1986.42139	0.30087
1984.49282	0.29822
1982.56426	0.29576
1980.63569	0.29351
1978.70713	0.29136
1976.77856	0.28914
1974.85000	0.28693
1972.92144	0.28482
1970.99287	0.28276
1969.06431	0.28085
1967.13574	0.27905
1965.20718	0.27699
1963.27861	0.27476
1961.35005	0.27267
1959.42148	0.27073
1957.49292	0.26887
1955.56436	0.26711
1953.63579	0.26538
1951.70723	0.26360
1949.77866	0.26187
1947.85010	0.26034
1945.92153	0.25903
1943.99297	0.25791
1942.06440	0.25665
1940.13584	0.25478
1938.20728	0.25285
1936.27871	0.25131
1934.35015	0.25000
1932.42158	0.24885
1930.49302	0.24772
1928.56445	0.24652
1926.63589	0.24542
1924.70732	0.24470
1922.77876	0.24414
1920.85020	0.24330
1918.92163	0.24237
1916.99307	0.24140
1915.06450	0.24013
1913.13594	0.23898
1911.20737	0.23840
1909.27881	0.23799
1907.35024	0.23718
1905.42168	0.23615
1903.49312	0.23531
1901.56455	0.23469
1899.63599	0.23420
1897.70742	0.23393
1895.77886	0.23382
1893.85029	0.23361
1891.92173	0.23332
1889.99316	0.23321
1888.06460	0.23289
1886.13604	0.23230
1884.20747	0.23185
1882.27891	0.23150
1880.35034	0.23122
1878.42178	0.23107
1876.49321	0.23095
1874.56465	0.23080
1872.63608	0.23099
1870.70752	0.23191
1868.77896	0.23333
1866.85039	0.23360
1864.92183	0.23265
1862.99326	0.23205
1861.06470	0.23214
1859.13613	0.23252
1857.20757	0.23285
1855.27900	0.23321
1853.35044	0.23366
1851.42187	0.23424
1849.49331	0.23494
1847.56475	0.23587
1845.63618	0.23720
1843.70762	0.23860
1841.77905	0.23908
1839.85049	0.23903
1837.92192	0.23949
1835.99336	0.24024
1834.06479	0.24110
1832.13623	0.24238
1830.20767	0.24444
1828.27910	0.24614
1826.35054	0.24691
1824.42197	0.24790
1822.49341	0.24882
1820.56484	0.24961
1818.63628	0.25076
1816.70771	0.25235
1814.77915	0.25401
1812.85059	0.25596
1810.92202	0.25826
1808.99346	0.26028
1807.06489	0.26194
1805.13633	0.26370
1803.20776	0.26605
1801.27920	0.26893
1799.35063	0.27188
1797.42207	0.27422
1795.49351	0.27661
1793.56494	0.27985
1791.63638	0.28372
1789.70781	0.28643
1787.77925	0.28822
1785.85068	0.29110
1783.92212	0.29486
1781.99355	0.29889
1780.06499	0.30309
1778.13643	0.30721
1776.20786	0.31122
1774.27930	0.31609
1772.35073	0.32269
1770.42217	0.32882
1768.49360	0.33311
1766.56504	0.33733
1764.63647	0.34217
1762.70791	0.34798
1760.77935	0.35527
1758.85078	0.36178
1756.92222	0.36824
1754.99365	0.37521
1753.06509	0.38174
1751.13652	0.39010
1749.20796	0.40067
1747.27939	0.41044
1745.35083	0.41864
1743.42227	0.42767
1741.49370	0.43811
1739.56514	0.45071
1737.63657	0.46337
1735.70801	0.47472
1733.77944	0.49196
1731.85088	0.51159
1729.92231	0.52616
1727.99375	0.54093
1726.06519	0.55733
1724.13662	0.57579
1722.20806	0.59583
1720.27949	0.61443
1718.35093	0.63671
1716.42236	0.66932
1714.49380	0.69906
1712.56523	0.72256
1710.63667	0.74585
1708.70811	0.77184
1706.77954	0.80199
1704.85098	0.83767
1702.92241	0.86902
1700.99385	0.90044
1699.06528	0.94790
1697.13672	0.99143
1695.20815	1.03584
1693.27959	1.07880
1691.35103	1.11386
1689.42246	1.15569
1687.49390	1.20083
1685.56533	1.24455
1683.63677	1.31129
1681.70820	1.37982
1679.77964	1.42322
1677.85107	1.46470
1675.92251	1.51289
1673.99395	1.57390
1672.06538	1.62926
1670.13682	1.68393
1668.20825	1.75509
1666.27969	1.81295
1664.35112	1.86274
1662.42256	1.92690
1660.49399	2.00020
1658.56543	2.05756
1656.63687	2.10435
1654.70830	2.14737
1652.77974	2.21099
1650.85117	2.26698
1648.92261	2.28448
1646.99404	2.30816
1645.06548	2.33473
1643.13691	2.35150
1641.20835	2.35879
1639.27979	2.36476
1637.35122	2.36838
1635.42266	2.36799
1633.49409	2.36006
1631.56553	2.34402
1629.63696	2.32504
1627.70840	2.29489
1625.77983	2.25854
1623.85127	2.21201
1621.92271	2.15632
1619.99414	2.10848
1618.06558	2.06271
1616.13701	1.99615
1614.20845	1.92633
1612.27988	1.87231
1610.35132	1.81701
1608.42275	1.75855
1606.49419	1.70184
1604.56562	1.64945
1602.63706	1.59804
1600.70850	1.54786
1598.77993	1.50247
1596.85137	1.46066
1594.92280	1.42055
1592.99424	1.38193
1591.06567	1.34679
1589.13711	1.31441
1587.20854	1.28496
1585.27998	1.25831
1583.35142	1.23352
1581.42285	1.21116
1579.49429	1.19290
1577.56572	1.17764
1575.63716	1.15905
1573.70859	1.14184
1571.78003	1.13112
1569.85146	1.12165
1567.92290	1.11187
1565.99434	1.10517
1564.06577	1.10128
1562.13721	1.09920
1560.20864	1.10047
1558.28008	1.10812
1556.35151	1.11409
1554.42295	1.11656
1552.49438	1.11957
1550.56582	1.12122
1548.63726	1.11985
1546.70869	1.11541
1544.78013	1.10816
1542.85156	1.09797
1540.92300	1.08073
1538.99443	1.04871
1537.06587	1.02357
1535.13730	1.00732
1533.20874	0.98638
1531.28018	0.96347
1529.35161	0.94683
1527.42305	0.93153
1525.49448	0.91578
1523.56592	0.90272
1521.63735	0.89051
1519.70879	0.87754
1517.78022	0.86644
1515.85166	0.85323
1513.92310	0.83872
1511.99453	0.82631
1510.06597	0.81591
1508.13740	0.80667
1506.20884	0.79081
1504.28027	0.77487
1502.35171	0.76588
1500.42314	0.75896
1498.49458	0.75212
1496.56602	0.74369
1494.63745	0.73464
1492.70889	0.72791
1490.78032	0.72273
1488.85176	0.71653
1486.92319	0.70956
1484.99463	0.70369
1483.06606	0.69944
1481.13750	0.69648
1479.20894	0.69448
1477.28037	0.69363
1475.35181	0.69414
1473.42324	0.69539
1471.49468	0.69472
1469.56611	0.69175
1467.63755	0.68902
1465.70898	0.68739
1463.78042	0.68643
1461.85186	0.68611
1459.92329	0.68709
1457.99473	0.68946
1456.06616	0.69022
1454.13760	0.68742
1452.20903	0.68438
1450.28047	0.68167
1448.35190	0.67930
1446.42334	0.67695
1444.49478	0.67435
1442.56621	0.67165
1440.63765	0.66905
1438.70908	0.66677
1436.78052	0.66380
1434.85195	0.65956
1432.92339	0.65617
1430.99482	0.65436
1429.06626	0.65349
1427.13770	0.65330
1425.20913	0.65412
1423.28057	0.65556
1421.35200	0.65675
1419.42344	0.65791
1417.49487	0.65821
1415.56631	0.65690
1413.63774	0.65588
1411.70918	0.65598
1409.78062	0.65703
1407.85205	0.65869
1405.92349	0.66090
1403.99492	0.66296
1402.06636	0.66369
1400.13779	0.66339
1398.20923	0.66238
1396.28066	0.66028
1394.35210	0.65638
1392.42354	0.65114
1390.49497	0.64634
1388.56641	0.64205
1386.63784	0.63687
1384.70928	0.63077
1382.78071	0.62504
1380.85215	0.62000
1378.92358	0.61580
1376.99502	0.61275
1375.06646	0.61098
1373.13789	0.60994
1371.20933	0.60909
1369.28076	0.60834
1367.35220	0.60723
1365.42363	0.60569
1363.49507	0.60433
1361.56650	0.60297
1359.63794	0.60121
1357.70937	0.59957
1355.78081	0.59816
1353.85225	0.59677
1351.92368	0.59562
1349.99512	0.59492
1348.06655	0.59432
1346.13799	0.59347
1344.20942	0.59263
1342.28086	0.59218
1340.35229	0.59206
1338.42373	0.59173
1336.49517	0.59101
1334.56660	0.59038
1332.63804	0.58999
1330.70947	0.58990
1328.78091	0.59031
1326.85234	0.59122
1324.92378	0.59233
1322.99521	0.59353
1321.06665	0.59474
1319.13809	0.59574
1317.20952	0.59622
1315.28096	0.59618
1313.35239	0.59595
1311.42383	0.59554
1309.49526	0.59493
1307.56670	0.59427
1305.63813	0.59359
1303.70957	0.59288
1301.78101	0.59213
1299.85244	0.59130
1297.92388	0.59039
1295.99531	0.58929
1294.06675	0.58793
1292.13818	0.58646
1290.20962	0.58505
1288.28105	0.58375
1286.35249	0.58247
1284.42393	0.58107
1282.49536	0.57954
1280.56680	0.57802
1278.63823	0.57658
1276.70967	0.57516
1274.78110	0.57385
1272.85254	0.57285
1270.92397	0.57218
1268.99541	0.57161
1267.06685	0.57084
1265.13828	0.56983
1263.20972	0.56884
1261.28115	0.56797
1259.35259	0.56708
1257.42402	0.56630
1255.49546	0.56597
1253.56689	0.56600
1251.63833	0.56614
1249.70977	0.56637
1247.78120	0.56645
1245.85264	0.56621
1243.92407	0.56563
1241.99551	0.56462
1240.06694	0.56310
1238.13838	0.56124
1236.20981	0.55919
1234.28125	0.55691
1232.35269	0.55449
1230.42412	0.55217
1228.49556	0.54993
1226.56699	0.54770
1224.63843	0.54559
1222.70986	0.54360
1220.78130	0.54181
1218.85273	0.54029
1216.92417	0.53890
1214.99561	0.53769
1213.06704	0.53678
1211.13848	0.53607
1209.20991	0.53538
1207.28135	0.53464
1205.35278	0.53382
1203.42422	0.53296
1201.49565	0.53209
1199.56709	0.53110
1197.63853	0.53009
1195.70996	0.52932
1193.78140	0.52875
1191.85283	0.52821
1189.92427	0.52765
1187.99570	0.52713
1186.06714	0.52671
1184.13857	0.52653
1182.21001	0.52692
1180.28145	0.52796
1178.35288	0.52934
1176.42432	0.53081
1174.49575	0.53220
1172.56719	0.53312
1170.63862	0.53334
1168.71006	0.53323
1166.78149	0.53320
1164.85293	0.53348
1162.92437	0.53388
1160.99580	0.53390
1159.06724	0.53353
1157.13867	0.53304
1155.21011	0.53229
1153.28154	0.53110
1151.35298	0.52939
1149.42441	0.52717
1147.49585	0.52464
1145.56729	0.52199
1143.63872	0.51952
1141.71016	0.51746
1139.78159	0.51578
1137.85303	0.51455
1135.92446	0.51391
1133.99590	0.51381
1132.06733	0.51414
1130.13877	0.51453
1128.21021	0.51458
1126.28164	0.51427
1124.35308	0.51386
1122.42451	0.51367
1120.49595	0.51372
1118.56738	0.51378
1116.63882	0.51391
1114.71025	0.51431
1112.78169	0.51486
1110.85312	0.51551
1108.92456	0.51648
1106.99600	0.51769
1105.06743	0.51893
1103.13887	0.52021
1101.21030	0.52148
1099.28174	0.52266
1097.35317	0.52408
1095.42461	0.52642
1093.49604	0.53001
1091.56748	0.53494
1089.63892	0.54110
1087.71035	0.54822
1085.78179	0.55619
1083.85322	0.56452
1081.92466	0.57187
1079.99609	0.57696
1078.06753	0.57934
1076.13896	0.57897
1074.21040	0.57584
1072.28184	0.57036
1070.35327	0.56361
1068.42471	0.55652
1066.49614	0.54954
1064.56758	0.54318
1062.63901	0.53782
1060.71045	0.53324
1058.78188	0.52915
1056.85332	0.52538
1054.92476	0.52181
1052.99619	0.51862
1051.06763	0.51616
1049.13906	0.51449
1047.21050	0.51336
1045.28193	0.51254
1043.35337	0.51192
1041.42480	0.51150
1039.49624	0.51141
1037.56768	0.51147
1035.63911	0.51121
1033.71055	0.51048
1031.78198	0.50932
1029.85342	0.50765
1027.92485	0.50568
1025.99629	0.50399
1024.06772	0.50277
1022.13916	0.50179
1020.21060	0.50104
1018.28203	0.50073
1016.35347	0.50061
1014.42490	0.50035
1012.49634	0.50016
1010.56777	0.50032
1008.63921	0.50074
1006.71064	0.50138
1004.78208	0.50226
1002.85352	0.50359
1000.92495	0.50585
998.99639	0.50913
997.06782	0.51305
995.13926	0.51732
993.21069	0.52156
991.28213	0.52513
989.35356	0.52737
987.42500	0.52816
985.49644	0.52801
983.56787	0.52759
981.63931	0.52747
979.71074	0.52795
977.78218	0.52901
975.85361	0.53066
973.92505	0.53301
971.99648	0.53589
970.06792	0.53913
968.13936	0.54278
966.21079	0.54669
964.28223	0.55079
962.35366	0.55539
960.42510	0.56054
958.49653	0.56573
956.56797	0.57087
954.63940	0.57633
952.71084	0.58214
950.78228	0.58821
948.85371	0.59464
946.92515	0.60135
944.99658	0.60786
943.06802	0.61394
941.13945	0.61990
939.21089	0.62598
937.28232	0.63197
935.35376	0.63750
933.42520	0.64288
931.49663	0.64828
929.56807	0.65361
927.63950	0.65912
925.71094	0.66460
923.78237	0.66989
921.85381	0.67574
919.92524	0.68260
917.99668	0.68983
916.06812	0.69702
914.13955	0.70440
912.21099	0.71195
910.28242	0.71970
908.35386	0.72762
906.42529	0.73610
904.49673	0.74521
902.56816	0.75386
900.63960	0.76223
898.71104	0.77150
896.78247	0.78150
894.85391	0.79163
892.92534	0.80156
890.99678	0.81086
889.06821	0.82023
887.13965	0.83116
885.21108	0.84306
883.28252	0.85360
881.35396	0.86294
879.42539	0.87425
877.49683	0.88800
875.56826	0.90102
873.63970	0.91198
871.71113	0.92256
869.78257	0.93330
867.85400	0.94345
865.92544	0.95370
863.99687	0.96511
862.06831	0.97729
860.13975	0.98844
858.21118	0.99876
856.28262	1.01059
854.35405	1.02369
852.42549	1.03594
850.49692	1.04669
848.56836	1.05652
846.63979	1.06733
844.71123	1.08112
842.78267	1.09542
840.85410	1.10762
838.92554	1.11941
836.99697	1.12976
835.06841	1.13679
833.13984	1.14438
831.21128	1.15534
829.28271	1.16823
827.35415	1.17909
825.42559	1.18541
823.49702	1.19483
821.56846	1.21033
819.63989	1.22274
817.71133	1.23367
815.78276	1.25616
813.85420	1.28880
811.92563	1.31201
809.99707	1.31191
808.06851	1.30005
806.13994	1.29701
804.21138	1.29469
802.28281	1.28081
800.35425	1.27292
798.42568	1.28211
796.49712	1.29696
794.56855	1.31458
792.63999	1.33335
790.71143	1.32719
788.78286	1.29953
786.85430	1.27999
784.92573	1.28369
782.99717	1.29961
781.06860	1.30498
779.14004	1.31583
777.21147	1.31977
775.28291	1.28334
773.35435	1.26440
771.42578	1.31249
769.49722	1.40110
767.56865	1.45197
765.64009	1.37145
763.71152	1.25011
761.78296	1.17704
759.85439	1.15386
757.92583	1.20020
755.99727	1.30491
754.06870	1.32754
752.14014	1.21122
750.21157	1.12504
748.28301	1.10185
746.35444	1.07757
744.42588	1.03497
742.49731	0.96249
740.56875	0.88086
738.64019	0.86799
736.71162	0.96004
734.78306	1.06096
732.85449	1.03389
730.92593	1.06512
728.99736	1.26808
727.06880	1.20554
725.14023	0.71275
723.21167	0.43789
721.28311	0.29634
719.35454	0.25666
717.42598	0.34473
715.49741	0.37151
713.56885	0.21104
711.64028	0.13463
709.71172	0.11816
707.78315	0.15573
705.85459	0.27491
703.92603	0.45488
701.99746	0.52790
700.06890	0.47924
698.14033	0.41092
696.21177	0.32424
694.28320	0.29968
692.35464	0.40335
690.42607	0.54293
688.49751	0.63017
686.56895	0.68999
684.64038	0.57170
682.71182	0.40365
680.78325	0.34987
678.85469	0.39236
676.92612	0.38811
674.99756	0.31649
673.06899	0.34216
671.14043	0.64294
669.21187	0.64563
667.28330	0.32403
665.35474	0.18427
663.42617	0.15690
661.49761	0.16365
659.56904	0.19488
657.64048	0.27609
655.71191	0.33833
653.78335	0.34470
651.85479	0.38679
649.92622	0.64405
647.99766	3.88799
646.06909	0.95431
644.14053	0.40310
642.21196	0.36138
640.28340	0.51727
638.35483	0.66205
636.42627	0.59639
634.49771	0.51319
632.56914	0.42206
630.64058	0.36567
628.71201	0.37576
626.78345	0.33948
624.85488	0.24896
622.92632	0.21889
620.99775	0.26365
619.06919	0.31896
617.14062	0.31566
615.21206	0.26892
613.28350	0.23866
611.35493	0.19911
609.42637	0.14049
607.49780	0.14184
605.56924	0.21909
603.64067	0.31690
601.71211	0.38718
599.78354	0.44881
597.85498	0.58889
595.92642	0.66252
593.99785	0.44101
592.06929	0.25630
590.14072	0.17510
588.21216	0.14970
586.28359	0.15427
584.35503	0.21197
582.42646	0.30186
580.49790	0.36566
578.56934	0.43014
576.64077	0.40876
574.71221	0.24899
572.78364	0.15256
570.85508	0.12552
568.92651	0.13911
566.99795	0.20152
565.06938	0.29016
563.14082	0.33540
561.21226	0.27191
559.28369	0.19252
557.35513	0.18068
555.42656	0.22583
553.49800	0.24988
551.56943	0.22596
549.64087	0.24213
547.71230	0.28222
545.78374	0.33381
543.85518	0.44400
541.92661	0.46870
539.99805	0.28559
538.06948	0.14839
536.14092	0.12506
534.21235	0.17092
532.28379	0.23412
530.35522	0.29311
528.42666	0.37696
526.49810	0.49213
524.56953	0.43972
522.64097	0.27908
520.71240	0.19100
518.78384	0.20129
516.85527	0.23763
514.92671	0.21203
512.99814	0.19864
511.06958	0.23489
509.14102	0.31654
507.21245	0.39928
505.28389	0.40029
503.35532	0.33932
501.42676	0.24954
499.49819	0.16734
