3997.91411	0.06508
3995.98555	0.06511
3994.05698	0.06522
3992.12842	0.06574
3990.19985	0.06628
3988.27129	0.06679
3986.34272	0.06744
3984.41416	0.06779
3982.48560	0.06731
3980.55703	0.06677
3978.62847	0.06720
3976.69990	0.06801
3974.77134	0.06822
3972.84277	0.06832
3970.91421	0.06856
3968.98564	0.06855
3967.05708	0.06838
3965.12852	0.06832
3963.19995	0.06840
3961.27139	0.06866
3959.34282	0.06909
3957.41426	0.06943
3955.48569	0.06950
3953.55713	0.06929
3951.62856	0.06891
3949.70000	0.06861
3947.77144	0.06862
3945.84287	0.06891
3943.91431	0.06897
3941.98574	0.06869
3940.05718	0.06861
3938.12861	0.06892
3936.20005	0.06912
3934.27148	0.06903
3932.34292	0.06917
3930.41436	0.06951
3928.48579	0.06939
3926.55723	0.06898
3924.62866	0.06871
3922.70010	0.06864
3920.77153	0.06857
3918.84297	0.06836
3916.91440	0.06846
3914.98584	0.06889
3913.05728	0.06915
3911.12871	0.06927
3909.20015	0.06915
3907.27158	0.06888
3905.34302	0.06856
3903.41445	0.06793
3901.48589	0.06705
3899.55732	0.06690
3897.62876	0.06792
3895.70020	0.06875
3893.77163	0.06853
3891.84307	0.06792
3889.91450	0.06804
3887.98594	0.06843
3886.05737	0.06821
3884.12881	0.06788
3882.20024	0.06796
3880.27168	0.06841
3878.34312	0.06920
3876.41455	0.06950
3874.48599	0.06908
3872.55742	0.06851
3870.62886	0.06866
3868.70029	0.06944
3866.77173	0.06954
3864.84316	0.06934
3862.91460	0.06972
3860.98604	0.07057
3859.05747	0.07150
3857.12891	0.07204
3855.20034	0.07169
3853.27178	0.07083
3851.34321	0.07140
3849.41465	0.07288
3847.48608	0.07387
3845.55752	0.07450
3843.62896	0.07476
3841.70039	0.07454
3839.77183	0.07390
3837.84326	0.07370
3835.91470	0.07449
3833.98613	0.07565
3832.05757	0.07728
3830.12900	0.07929
3828.20044	0.08046
3826.27187	0.08068
3824.34331	0.08076
3822.41475	0.08101
3820.48618	0.08161
3818.55762	0.08240
3816.62905	0.08362
3814.70049	0.08603
3812.77192	0.08811
3810.84336	0.08883
3808.91479	0.08911
3806.98623	0.08954
3805.05767	0.09008
3803.12910	0.09028
3801.20054	0.09070
3799.27197	0.09263
3797.34341	0.09499
3795.41484	0.09701
3793.48628	0.09878
3791.55771	0.10009
3789.62915	0.10121
3787.70059	0.10235
3785.77202	0.10340
3783.84346	0.10468
3781.91489	0.10635
3779.98633	0.10797
3778.05776	0.10963
3776.12920	0.11133
3774.20063	0.11283
3772.27207	0.11415
3770.34351	0.11571
3768.41494	0.11780
3766.48638	0.11982
3764.55781	0.12186
3762.62925	0.12381
3760.70068	0.12532
3758.77212	0.12703
3756.84355	0.12937
3754.91499	0.13141
3752.98643	0.13241
3751.05786	0.13319
3749.12930	0.13602
3747.20073	0.13960
3745.27217	0.14222
3743.34360	0.14605
3741.41504	0.15049
3739.48647	0.15324
3737.55791	0.15489
3735.62935	0.15660
3733.70078	0.16045
3731.77222	0.16611
3729.84365	0.17090
3727.91509	0.17472
3725.98652	0.17943
3724.05796	0.18618
3722.12939	0.19436
3720.20083	0.20346
3718.27227	0.21319
3716.34370	0.22282
3714.41514	0.23102
3712.48657	0.23841
3710.55801	0.24843
3708.62944	0.26197
3706.70088	0.27518
3704.77231	0.28728
3702.84375	0.30022
3700.91519	0.31720
3698.98662	0.33700
3697.05806	0.35594
3695.12949	0.37519
3693.20093	0.39483
3691.27236	0.41547
3689.34380	0.44282
3687.41523	0.47885
3685.48667	0.51196
3683.55811	0.54017
3681.62954	0.56897
3679.70098	0.60017
3677.77241	0.63263
3675.84385	0.67131
3673.91528	0.72540
3671.98672	0.77071
3670.05815	0.80973
3668.12959	0.86445
3666.20103	0.91601
3664.27246	0.95832
3662.34390	1.00260
3660.41533	1.05012
3658.48677	1.09648
3656.55820	1.14511
3654.62964	1.20023
3652.70107	1.24684
3650.77251	1.28513
3648.84395	1.33783
3646.91538	1.40846
3644.98682	1.46369
3643.05825	1.50535
3641.12969	1.54642
3639.20112	1.59125
3637.27256	1.63622
3635.34399	1.67915
3633.41543	1.72140
3631.48687	1.76069
3629.55830	1.80000
3627.62974	1.85241
3625.70117	1.90376
3623.77261	1.93932
3621.84404	1.97238
3619.91548	2.00975
3617.98691	2.05600
3616.05835	2.10154
3614.12979	2.14041
3612.20122	2.18158
3610.27266	2.22094
3608.34409	2.25858
3606.41553	2.30104
3604.48696	2.34278
3602.55840	2.37854
3600.62983	2.41499
3598.70127	2.45504
3596.77271	2.49575
3594.84414	2.53785
3592.91558	2.58096
3590.98701	2.62038
3589.05845	2.65490
3587.12988	2.69597
3585.20132	2.74613
3583.27275	2.79160
3581.34419	2.83145
3579.41562	2.87167
3577.48706	2.91446
3575.55850	2.95798
3573.62993	3.00206
3571.70137	3.04537
3569.77280	3.08594
3567.84424	3.12645
3565.91567	3.17627
3563.98711	3.22755
3562.05854	3.27018
3560.12998	3.31266
3558.20142	3.35873
3556.27285	3.40443
3554.34429	3.44635
3552.41572	3.48939
3550.48716	3.53582
3548.55859	3.58171
3546.63003	3.62781
3544.70146	3.67851
3542.77290	3.72831
3540.84434	3.77323
3538.91577	3.81957
3536.98721	3.86801
3535.05864	3.91494
3533.13008	3.95834
3531.20151	4.00220
3529.27295	4.04917
3527.34438	4.09960
3525.41582	4.15047
3523.48726	4.19818
3521.55869	4.24558
3519.63013	4.29324
3517.70156	4.33995
3515.77300	4.38599
3513.84443	4.43212
3511.91587	4.47662
3509.98730	4.52080
3508.05874	4.56794
3506.13018	4.61853
3504.20161	4.67125
3502.27305	4.72467
3500.34448	4.77798
3498.41592	4.82838
3496.48735	4.87647
3494.55879	4.92356
3492.63022	4.96826
3490.70166	5.00865
3488.77310	5.04886
3486.84453	5.09828
3484.91597	5.15515
3482.98740	5.20871
3481.05884	5.25601
3479.13027	5.29975
3477.20171	5.33963
3475.27314	5.37926
3473.34458	5.42915
3471.41602	5.48653
3469.48745	5.53614
3467.55889	5.57394
3465.63032	5.60850
3463.70176	5.65342
3461.77319	5.71332
3459.84463	5.77583
3457.91606	5.83026
3455.98750	5.88661
3454.05894	5.94853
3452.13037	6.00514
3450.20181	6.04730
3448.27324	6.07798
3446.34468	6.11596
3444.41611	6.15902
3442.48755	6.20426
3440.55898	6.25667
3438.63042	6.30274
3436.70186	6.34111
3434.77329	6.39130
3432.84473	6.45313
3430.91616	6.51633
3428.98760	6.58007
3427.05903	6.62611
3425.13047	6.66132
3423.20190	6.70614
3421.27334	6.77117
3419.34478	6.84441
3417.41621	6.88652
3415.48765	6.90614
3413.55908	6.93605
3411.63052	6.96492
3409.70195	6.97541
3407.77339	7.01113
3405.84482	7.07939
3403.91626	7.14225
3401.98770	7.18641
3400.05913	7.21545
3398.13057	7.25260
3396.20200	7.30530
3394.27344	7.33740
3392.34487	7.35109
3390.41631	7.41700
3388.48774	7.50645
3386.55918	7.55973
3384.63062	7.58738
3382.70205	7.61429
3380.77349	7.67312
3378.84492	7.74122
3376.91636	7.74793
3374.98779	7.67904
3373.05923	7.63252
3371.13066	7.66583
3369.20210	7.69875
3367.27354	7.67889
3365.34497	7.72167
3363.41641	7.81876
3361.48784	7.84225
3359.55928	7.83715
3357.63071	7.85595
3355.70215	7.88013
3353.77358	7.89706
3351.84502	7.92727
3349.91646	7.96426
3347.98789	7.98949
3346.05933	7.94125
3344.13076	7.84344
3342.20220	7.84091
3340.27363	7.88614
3338.34507	7.88747
3336.41650	7.89790
3334.48794	7.92578
3332.55937	7.90639
3330.63081	7.90468
3328.70225	7.95459
3326.77368	7.96281
3324.84512	7.94474
3322.91655	7.96541
3320.98799	8.01710
3319.05942	8.03376
3317.13086	8.02399
3315.20229	8.04018
3313.27373	8.07246
3311.34517	8.09239
3309.41660	8.09395
3307.48804	8.07910
3305.55947	8.05469
3303.63091	8.03846
3301.70234	8.00070
3299.77378	7.95466
3297.84521	7.95671
3295.91665	7.97651
3293.98809	7.94991
3292.05952	7.95027
3290.13096	8.00143
3288.20239	8.00384
3286.27383	8.02077
3284.34526	8.08587
3282.41670	8.03643
3280.48813	7.86968
3278.55957	7.77212
3276.63101	7.80349
3274.70244	7.90028
3272.77388	7.96771
3270.84531	7.98280
3268.91675	7.99631
3266.98818	7.98930
3265.05962	7.94257
3263.13105	7.94149
3261.20249	8.02903
3259.27393	8.08207
3257.34536	8.05915
3255.41680	8.06480
3253.48823	8.15741
3251.55967	8.25182
3249.63110	8.16911
3247.70254	8.01761
3245.77397	7.96730
3243.84541	7.99587
3241.91685	8.02094
3239.98828	7.99403
3238.05972	7.96649
3236.13115	8.02383
3234.20259	8.12750
3232.27402	8.16168
3230.34546	8.11126
3228.41689	8.06135
3226.48833	8.03727
3224.55977	7.96520
3222.63120	7.84735
3220.70264	7.74307
3218.77407	7.70676
3216.84551	7.77819
3214.91694	7.91556
3212.98838	7.98879
3211.05981	7.88765
3209.13125	7.71753
3207.20269	7.61011
3205.27412	7.57959
3203.34556	7.64173
3201.41699	7.73572
3199.48843	7.73136
3197.55986	7.67671
3195.63130	7.63196
3193.70273	7.55856
3191.77417	7.48453
3189.84561	7.42694
3187.91704	7.36612
3185.98848	7.32649
3184.05991	7.29070
3182.13135	7.21878
3180.20278	7.14083
3178.27422	7.08253
3176.34565	7.03899
3174.41709	6.99693
3172.48853	6.95904
3170.55996	6.92799
3168.63140	6.86314
3166.70283	6.75757
3164.77427	6.66376
3162.84570	6.59737
3160.91714	6.54543
3158.98857	6.50451
3157.06001	6.45256
3155.13145	6.37373
3153.20288	6.28043
3151.27432	6.20129
3149.34575	6.14582
3147.41719	6.09748
3145.48862	6.04810
3143.56006	5.98019
3141.63149	5.89529
3139.70293	5.82283
3137.77437	5.76527
3135.84580	5.70903
3133.91724	5.64836
3131.98867	5.57676
3130.06011	5.49924
3128.13154	5.43072
3126.20298	5.36265
3124.27441	5.28476
3122.34585	5.21053
3120.41729	5.14956
3118.48872	5.09122
3116.56016	5.02443
3114.63159	4.95421
3112.70303	4.88775
3110.77446	4.82383
3108.84590	4.75851
3106.91733	4.69185
3104.98877	4.62597
3103.06021	4.55993
3101.13164	4.49330
3099.20308	4.42709
3097.27451	4.36136
3095.34595	4.29729
3093.41738	4.23497
3091.48882	4.17226
3089.56025	4.10995
3087.63169	4.05060
3085.70312	3.99164
3083.77456	3.92861
3081.84600	3.86476
3079.91743	3.80482
3077.98887	3.74724
3076.06030	3.68987
3074.13174	3.63368
3072.20317	3.57968
3070.27461	3.52544
3068.34604	3.46912
3066.41748	3.41329
3064.48892	3.35984
3062.56035	3.30745
3060.63179	3.25513
3058.70322	3.20371
3056.77466	3.15324
3054.84609	3.10150
3052.91753	3.04919
3050.98896	2.99946
3049.06040	2.95086
3047.13184	2.90105
3045.20327	2.85207
3043.27471	2.80507
3041.34614	2.75807
3039.41758	2.71120
3037.48901	2.66619
3035.56045	2.62228
3033.63188	2.57823
3031.70332	2.53448
3029.77476	2.49138
3027.84619	2.44889
3025.91763	2.40697
3023.98906	2.36535
3022.06050	2.32429
3020.13193	2.28389
3018.20337	2.24377
3016.27480	2.20409
3014.34624	2.16522
3012.41768	2.12741
3010.48911	2.09078
3008.56055	2.05546
3006.63198	2.02097
3004.70342	1.98638
3002.77485	1.95203
3000.84629	1.91849
2998.91772	1.88536
2996.98916	1.85282
2995.06060	1.82166
2993.13203	1.79169
2991.20347	1.76224
2989.27490	1.73292
2987.34634	1.70377
2985.41777	1.67545
2983.48921	1.64833
2981.56064	1.62200
2979.63208	1.59601
2977.70352	1.57054
2975.77495	1.54596
2973.84639	1.52194
2971.91782	1.49819
2969.98926	1.47456
2968.06069	1.45130
2966.13213	1.42880
2964.20356	1.40624
2962.27500	1.38317
2960.34644	1.36002
2958.41787	1.33676
2956.48931	1.31355
2954.56074	1.29035
2952.63218	1.26687
2950.70361	1.24362
2948.77505	1.22097
2946.84648	1.19868
2944.91792	1.17694
2942.98936	1.15611
2941.06079	1.13633
2939.13223	1.11732
2937.20366	1.09816
2935.27510	1.07856
2933.34653	1.05913
2931.41797	1.03997
2929.48940	1.02084
2927.56084	1.00208
2925.63228	0.98377
2923.70371	0.96593
2921.77515	0.94875
2919.84658	0.93155
2917.91802	0.91386
2915.98945	0.89665
2914.06089	0.88041
2912.13232	0.86465
2910.20376	0.84913
2908.27520	0.83338
2906.34663	0.81767
2904.41807	0.80309
2902.48950	0.78956
2900.56094	0.77628
2898.63237	0.76307
2896.70381	0.74997
2894.77524	0.73706
2892.84668	0.72470
2890.91812	0.71282
2888.98955	0.70125
2887.06099	0.69031
2885.13242	0.68012
2883.20386	0.67034
2881.27529	0.66083
2879.34673	0.65153
2877.41816	0.64224
2875.48960	0.63273
2873.56104	0.62294
2871.63247	0.61282
2869.70391	0.60206
2867.77534	0.59073
2865.84678	0.57911
2863.91821	0.56747
2861.98965	0.55625
2860.06108	0.54564
2858.13252	0.53557
2856.20396	0.52607
2854.27539	0.51703
2852.34683	0.50805
2850.41826	0.49912
2848.48970	0.49056
2846.56113	0.48251
2844.63257	0.47484
2842.70400	0.46771
2840.77544	0.46122
2838.84687	0.45512
2836.91831	0.44928
2834.98975	0.44356
2833.06118	0.43772
2831.13262	0.43178
2829.20405	0.42582
2827.27549	0.41985
2825.34692	0.41391
2823.41836	0.40799
2821.48979	0.40221
2819.56123	0.39648
2817.63267	0.39069
2815.70410	0.38508
2813.77554	0.37970
2811.84697	0.37429
2809.91841	0.36894
2807.98984	0.36381
2806.06128	0.35873
2804.13271	0.35363
2802.20415	0.34852
2800.27559	0.34347
2798.34702	0.33860
2796.41846	0.33383
2794.48989	0.32899
2792.56133	0.32420
2790.63276	0.31970
2788.70420	0.31547
2786.77563	0.31119
2784.84707	0.30684
2782.91851	0.30262
2780.98994	0.29859
2779.06138	0.29478
2777.13281	0.29104
2775.20425	0.28719
2773.27568	0.28330
2771.34712	0.27953
2769.41855	0.27592
2767.48999	0.27250
2765.56143	0.26915
2763.63286	0.26571
2761.70430	0.26226
2759.77573	0.25888
2757.84717	0.25560
2755.91860	0.25250
2753.99004	0.24945
2752.06147	0.24645
2750.13291	0.24364
2748.20435	0.24082
2746.27578	0.23789
2744.34722	0.23514
2742.41865	0.23248
2740.49009	0.22973
2738.56152	0.22705
2736.63296	0.22445
2734.70439	0.22182
2732.77583	0.21920
2730.84727	0.21671
2728.91870	0.21440
2726.99014	0.21225
2725.06157	0.21021
2723.13301	0.20823
2721.20444	0.20622
2719.27588	0.20414
2717.34731	0.20202
2715.41875	0.19992
2713.49019	0.19799
2711.56162	0.19624
2709.63306	0.19461
2707.70449	0.19305
2705.77593	0.19145
2703.84736	0.18973
2701.91880	0.18806
2699.99023	0.18656
2698.06167	0.18515
2696.13311	0.18379
2694.20454	0.18246
2692.27598	0.18116
2690.34741	0.17996
2688.41885	0.17871
2686.49028	0.17726
2684.56172	0.17583
2682.63315	0.17461
2680.70459	0.17352
2678.77603	0.17248
2676.84746	0.17148
2674.91890	0.17050
2672.99033	0.16955
2671.06177	0.16853
2669.13320	0.16740
2667.20464	0.16635
2665.27607	0.16552
2663.34751	0.16473
2661.41895	0.16382
2659.49038	0.16288
2657.56182	0.16206
2655.63325	0.16136
2653.70469	0.16071
2651.77612	0.16008
2649.84756	0.15937
2647.91899	0.15856
2645.99043	0.15782
2644.06187	0.15722
2642.13330	0.15656
2640.20474	0.15584
2638.27617	0.15534
2636.34761	0.15506
2634.41904	0.15471
2632.49048	0.15429
2630.56191	0.15392
2628.63335	0.15357
2626.70479	0.15319
2624.77622	0.15287
2622.84766	0.15261
2620.91909	0.15226
2618.99053	0.15183
2617.06196	0.15148
2615.13340	0.15134
2613.20483	0.15123
2611.27627	0.15097
2609.34771	0.15074
2607.41914	0.15068
2605.49058	0.15063
2603.56201	0.15049
2601.63345	0.15032
2599.70488	0.15015
2597.77632	0.15005
2595.84775	0.15004
2593.91919	0.15012
2591.99062	0.15025
2590.06206	0.15031
2588.13350	0.15031
2586.20493	0.15040
2584.27637	0.15063
2582.34780	0.15084
2580.41924	0.15098
2578.49067	0.15118
2576.56211	0.15143
2574.63354	0.15167
2572.70498	0.15194
2570.77642	0.15220
2568.84785	0.15243
2566.91929	0.15269
2564.99072	0.15298
2563.06216	0.15333
2561.13359	0.15374
2559.20503	0.15410
2557.27646	0.15440
2555.34790	0.15483
2553.41934	0.15547
2551.49077	0.15610
2549.56221	0.15657
2547.63364	0.15697
2545.70508	0.15742
2543.77651	0.15792
2541.84795	0.15846
2539.91938	0.15894
2537.99082	0.15946
2536.06226	0.16013
2534.13369	0.16085
2532.20513	0.16155
2530.27656	0.16225
2528.34800	0.16292
2526.41943	0.16348
2524.49087	0.16399
2522.56230	0.16462
2520.63374	0.16535
2518.70518	0.16600
2516.77661	0.16662
2514.84805	0.16732
2512.91948	0.16809
2510.99092	0.16899
2509.06235	0.16996
2507.13379	0.17073
2505.20522	0.17135
2503.27666	0.17199
2501.34810	0.17269
2499.41953	0.17356
2497.49097	0.17451
2495.56240	0.17534
2493.63384	0.17608
2491.70527	0.17684
2489.77671	0.17763
2487.84814	0.17839
2485.91958	0.17908
2483.99102	0.17985
2482.06245	0.18079
2480.13389	0.18174
2478.20532	0.18251
2476.27676	0.18311
2474.34819	0.18381
2472.41963	0.18473
2470.49106	0.18572
2468.56250	0.18664
2466.63394	0.18754
2464.70537	0.18848
2462.77681	0.18943
2460.84824	0.19035
2458.91968	0.19125
2456.99111	0.19215
2455.06255	0.19301
2453.13398	0.19385
2451.20542	0.19471
2449.27686	0.19559
2447.34829	0.19641
2445.41973	0.19725
2443.49116	0.19823
2441.56260	0.19929
2439.63403	0.20036
2437.70547	0.20142
2435.77690	0.20239
2433.84834	0.20334
2431.91978	0.20434
2429.99121	0.20536
2428.06265	0.20637
2426.13408	0.20742
2424.20552	0.20854
2422.27695	0.20958
2420.34839	0.21052
2418.41982	0.21149
2416.49126	0.21256
2414.56270	0.21371
2412.63413	0.21478
2410.70557	0.21575
2408.77700	0.21687
2406.84844	0.21823
2404.91987	0.21956
2402.99131	0.22066
2401.06274	0.22165
2399.13418	0.22272
2397.20562	0.22393
2395.27705	0.22515
2393.34849	0.22627
2391.41992	0.22731
2389.49136	0.22832
2387.56279	0.22903
2385.63423	0.22886
2383.70566	0.22740
2381.77710	0.22468
2379.84854	0.22094
2377.91997	0.21636
2375.99141	0.21078
2374.06284	0.20387
2372.13428	0.19581
2370.20571	0.18707
2368.27715	0.17813
2366.34858	0.16973
2364.42002	0.16237
2362.49146	0.15686
2360.56289	0.15482
2358.63433	0.15733
2356.70576	0.16414
2354.77720	0.17457
2352.84863	0.18804
2350.92007	0.20190
2348.99150	0.21060
2347.06294	0.21158
2345.13437	0.20617
2343.20581	0.19974
2341.27725	0.19800
2339.34868	0.19995
2337.42012	0.20286
2335.49155	0.20613
2333.56299	0.20974
2331.63442	0.21310
2329.70586	0.21621
2327.77729	0.21994
2325.84873	0.22472
2323.92017	0.23001
2321.99160	0.23564
2320.06304	0.24198
2318.13447	0.24848
2316.20591	0.25421
2314.27734	0.25898
2312.34878	0.26298
2310.42021	0.26676
2308.49165	0.27094
2306.56309	0.27557
2304.63452	0.28014
2302.70596	0.28407
2300.77739	0.28735
2298.84883	0.29031
2296.92026	0.29319
2294.99170	0.29614
2293.06313	0.29920
2291.13457	0.30226
2289.20601	0.30529
2287.27744	0.30834
2285.34888	0.31126
2283.42031	0.31387
2281.49175	0.31605
2279.56318	0.31794
2277.63462	0.31968
2275.70605	0.32137
2273.77749	0.32309
2271.84893	0.32506
2269.92036	0.32730
2267.99180	0.32959
2266.06323	0.33176
2264.13467	0.33382
2262.20610	0.33596
2260.27754	0.33816
2258.34897	0.34038
2256.42041	0.34264
2254.49185	0.34497
2252.56328	0.34730
2250.63472	0.34960
2248.70615	0.35195
2246.77759	0.35438
2244.84902	0.35678
2242.92046	0.35913
2240.99189	0.36146
2239.06333	0.36367
2237.13477	0.36574
2235.20620	0.36785
2233.27764	0.37013
2231.34907	0.37246
2229.42051	0.37466
2227.49194	0.37675
2225.56338	0.37897
2223.63481	0.38131
2221.70625	0.38351
2219.77769	0.38555
2217.84912	0.38762
2215.92056	0.38983
2213.99199	0.39208
2212.06343	0.39430
2210.13486	0.39647
2208.20630	0.39847
2206.27773	0.40030
2204.34917	0.40226
2202.42061	0.40446
2200.49204	0.40654
2198.56348	0.40834
2196.63491	0.41015
2194.70635	0.41210
2192.77778	0.41406
2190.84922	0.41597
2188.92065	0.41794
2186.99209	0.41988
2185.06353	0.42167
2183.13496	0.42337
2181.20640	0.42497
2179.27783	0.42641
2177.34927	0.42787
2175.42070	0.42947
2173.49214	0.43109
2171.56357	0.43252
2169.63501	0.43387
2167.70645	0.43532
2165.77788	0.43670
2163.84932	0.43785
2161.92075	0.43892
2159.99219	0.44002
2158.06362	0.44104
2156.13506	0.44200
2154.20649	0.44301
2152.27793	0.44398
2150.34937	0.44477
2148.42080	0.44540
2146.49224	0.44595
2144.56367	0.44642
2142.63511	0.44688
2140.70654	0.44736
2138.77798	0.44778
2136.84941	0.44798
2134.92085	0.44798
2132.99229	0.44797
2131.06372	0.44806
2129.13516	0.44806
2127.20659	0.44785
2125.27803	0.44757
2123.34946	0.44730
2121.42090	0.44698
2119.49233	0.44649
2117.56377	0.44589
2115.63521	0.44526
2113.70664	0.44456
2111.77808	0.44381
2109.84951	0.44309
2107.92095	0.44233
2105.99238	0.44140
2104.06382	0.44038
2102.13525	0.43927
2100.20669	0.43800
2098.27812	0.43662
2096.34956	0.43523
2094.42100	0.43382
2092.49243	0.43235
2090.56387	0.43076
2088.63530	0.42907
2086.70674	0.42739
2084.77817	0.42566
2082.84961	0.42383
2080.92104	0.42195
2078.99248	0.42007
2077.06392	0.41815
2075.13535	0.41615
2073.20679	0.41407
2071.27822	0.41195
2069.34966	0.40978
2067.42109	0.40750
2065.49253	0.40528
2063.56396	0.40305
2061.63540	0.40073
2059.70684	0.39841
2057.77827	0.39605
2055.84971	0.39356
2053.92114	0.39102
2051.99258	0.38849
2050.06401	0.38597
2048.13545	0.38346
2046.20688	0.38102
2044.27832	0.37860
2042.34976	0.37602
2040.42119	0.37325
2038.49263	0.37052
2036.56406	0.36786
2034.63550	0.36517
2032.70693	0.36240
2030.77837	0.35963
2028.84980	0.35694
2026.92124	0.35428
2024.99268	0.35159
2023.06411	0.34892
2021.13555	0.34627
2019.20698	0.34358
2017.27842	0.34085
2015.34985	0.33818
2013.42129	0.33561
2011.49272	0.33297
2009.56416	0.33020
2007.63560	0.32749
2005.70703	0.32493
2003.77847	0.32239
2001.84990	0.31981
1999.92134	0.31716
1997.99277	0.31451
1996.06421	0.31198
1994.13564	0.30951
1992.20708	0.30693
1990.27852	0.30434
1988.34995	0.30196
1986.42139	0.29969
1984.49282	0.29741
1982.56426	0.29508
1980.63569	0.29268
1978.70713	0.29034
1976.77856	0.28813
1974.85000	0.28597
1972.92144	0.28379
1970.99287	0.28166
1969.06431	0.27956
1967.13574	0.27740
1965.20718	0.27535
1963.27861	0.27348
1961.35005	0.27166
1959.42148	0.26983
1957.49292	0.26800
1955.56436	0.26614
1953.63579	0.26433
1951.70723	0.26259
1949.77866	0.26089
1947.85010	0.25922
1945.92153	0.25760
1943.99297	0.25598
1942.06440	0.25443
1940.13584	0.25308
1938.20728	0.25176
1936.27871	0.25035
1934.35015	0.24899
1932.42158	0.24778
1930.49302	0.24666
1928.56445	0.24559
1926.63589	0.24448
1924.70732	0.24331
1922.77876	0.24208
1920.85020	0.24096
1918.92163	0.24002
1916.99307	0.23920
1915.06450	0.23849
1913.13594	0.23776
1911.20737	0.23699
1909.27881	0.23621
1907.35024	0.23550
1905.42168	0.23485
1903.49312	0.23431
1901.56455	0.23385
1899.63599	0.23334
1897.70742	0.23280
1895.77886	0.23228
1893.85029	0.23186
1891.92173	0.23142
1889.99316	0.23100
1888.06460	0.23072
1886.13604	0.23055
1884.20747	0.23042
1882.27891	0.23035
1880.35034	0.23028
1878.42178	0.23014
1876.49321	0.23004
1874.56465	0.22996
1872.63608	0.22985
1870.70752	0.22961
1868.77896	0.22955
1866.85039	0.22989
1864.92183	0.23034
1862.99326	0.23065
1861.06470	0.23089
1859.13613	0.23125
1857.20757	0.23164
1855.27900	0.23205
1853.35044	0.23248
1851.42187	0.23296
1849.49331	0.23339
1847.56475	0.23379
1845.63618	0.23428
1843.70762	0.23514
1841.77905	0.23626
1839.85049	0.23706
1837.92192	0.23782
1835.99336	0.23864
1834.06479	0.23954
1832.13623	0.24036
1830.20767	0.24130
1828.27910	0.24259
1826.35054	0.24391
1824.42197	0.24535
1822.49341	0.24680
1820.56484	0.24817
1818.63628	0.24954
1816.70771	0.25114
1814.77915	0.25272
1812.85059	0.25421
1810.92202	0.25595
1808.99346	0.25807
1807.06489	0.26016
1805.13633	0.26199
1803.20776	0.26394
1801.27920	0.26614
1799.35063	0.26879
1797.42207	0.27139
1795.49351	0.27374
1793.56494	0.27620
1791.63638	0.27958
1789.70781	0.28344
1787.77925	0.28646
1785.85068	0.28954
1783.92212	0.29297
1781.99355	0.29664
1780.06499	0.30072
1778.13643	0.30514
1776.20786	0.30902
1774.27930	0.31267
1772.35073	0.31775
1770.42217	0.32411
1768.49360	0.32994
1766.56504	0.33538
1764.63647	0.34065
1762.70791	0.34613
1760.77935	0.35325
1758.85078	0.36019
1756.92222	0.36715
1754.99365	0.37488
1753.06509	0.38179
1751.13652	0.38941
1749.20796	0.39899
1747.27939	0.40916
1745.35083	0.41862
1743.42227	0.42843
1741.49370	0.43881
1739.56514	0.45095
1737.63657	0.46330
1735.70801	0.47386
1733.77944	0.48951
1731.85088	0.50896
1729.92231	0.52470
1727.99375	0.54068
1726.06519	0.55776
1724.13662	0.57612
1722.20806	0.59581
1720.27949	0.61360
1718.35093	0.63357
1716.42236	0.66391
1714.49380	0.69477
1712.56523	0.72038
1710.63667	0.74466
1708.70811	0.77011
1706.77954	0.79854
1704.85098	0.83283
1702.92241	0.86395
1700.99385	0.89451
1699.06528	0.94050
1697.13672	0.98439
1695.20815	1.03095
1693.27959	1.07645
1691.35103	1.11271
1689.42246	1.15454
1687.49390	1.19899
1685.56533	1.24115
1683.63677	1.30687
1681.70820	1.37813
1679.77964	1.42456
1677.85107	1.46782
1675.92251	1.51683
1673.99395	1.57791
1672.06538	1.63262
1670.13682	1.68660
1668.20825	1.75933
1666.27969	1.82015
1664.35112	1.87186
1662.42256	1.93754
1660.49399	2.01295
1658.56543	2.07184
1656.63687	2.11807
1654.70830	2.15668
1652.77974	2.21467
1650.85117	2.27532
1648.92261	2.29690
1646.99404	2.32049
1645.06548	2.34897
1643.13691	2.37046
1641.20835	2.38091
1639.27979	2.38879
1637.35122	2.39407
1635.42266	2.39134
1633.49409	2.37893
1631.56553	2.36243
1629.63696	2.34383
1627.70840	2.31373
1625.77983	2.27778
1623.85127	2.23117
1621.92271	2.17526
1619.99414	2.12676
1618.06558	2.07864
1616.13701	2.00949
1614.20845	1.94091
1612.27988	1.88966
1610.35132	1.83527
1608.42275	1.77572
1606.49419	1.71778
1604.56562	1.66517
1602.63706	1.61462
1600.70850	1.56564
1598.77993	1.52089
1596.85137	1.47872
1594.92280	1.43743
1592.99424	1.39770
1591.06567	1.36198
1589.13711	1.32919
1587.20854	1.29890
1585.27998	1.27086
1583.35142	1.24489
1581.42285	1.22187
1579.49429	1.20253
1577.56572	1.18530
1575.63716	1.16572
1573.70859	1.14976
1571.78003	1.13968
1569.85146	1.12965
1567.92290	1.11961
1565.99434	1.11350
1564.06577	1.11030
1562.13721	1.10815
1560.20864	1.10717
1558.28008	1.11195
1556.35151	1.12077
1554.42295	1.12664
1552.49438	1.13153
1550.56582	1.13364
1548.63726	1.13277
1546.70869	1.12921
1544.78013	1.12138
1542.85156	1.10865
1540.92300	1.08844
1538.99443	1.05659
1537.06587	1.03346
1535.13730	1.01705
1533.20874	0.99446
1531.28018	0.97077
1529.35161	0.95378
1527.42305	0.93719
1525.49448	0.91976
1523.56592	0.90523
1521.63735	0.89175
1519.70879	0.87879
1517.78022	0.86784
1515.85166	0.85484
1513.92310	0.84137
1511.99453	0.82912
1510.06597	0.81704
1508.13740	0.80457
1506.20884	0.78740
1504.28027	0.77473
1502.35171	0.76764
1500.42314	0.76061
1498.49458	0.75257
1496.56602	0.74362
1494.63745	0.73564
1492.70889	0.72924
1490.78032	0.72264
1488.85176	0.71529
1486.92319	0.70987
1484.99463	0.70630
1483.06606	0.70333
1481.13750	0.70064
1479.20894	0.69851
1477.28037	0.69727
1475.35181	0.69680
1473.42324	0.69699
1471.49468	0.69739
1469.56611	0.69686
1467.63755	0.69517
1465.70898	0.69305
1463.78042	0.69162
1461.85186	0.69121
1459.92329	0.69082
1457.99473	0.69023
1456.06616	0.68995
1454.13760	0.68885
1452.20903	0.68673
1450.28047	0.68410
1448.35190	0.68120
1446.42334	0.67825
1444.49478	0.67554
1442.56621	0.67276
1440.63765	0.66973
1438.70908	0.66647
1436.78052	0.66217
1434.85195	0.65760
1432.92339	0.65440
1430.99482	0.65222
1429.06626	0.65115
1427.13770	0.65115
1425.20913	0.65163
1423.28057	0.65263
1421.35200	0.65368
1419.42344	0.65427
1417.49487	0.65461
1415.56631	0.65457
1413.63774	0.65440
1411.70918	0.65475
1409.78062	0.65607
1407.85205	0.65799
1405.92349	0.66014
1403.99492	0.66239
1402.06636	0.66370
1400.13779	0.66340
1398.20923	0.66158
1396.28066	0.65875
1394.35210	0.65500
1392.42354	0.65057
1390.49497	0.64605
1388.56641	0.64116
1386.63784	0.63538
1384.70928	0.62938
1382.78071	0.62389
1380.85215	0.61864
1378.92358	0.61376
1376.99502	0.60987
1375.06646	0.60731
1373.13789	0.60591
1371.20933	0.60499
1369.28076	0.60398
1367.35220	0.60271
1365.42363	0.60108
1363.49507	0.59912
1361.56650	0.59738
1359.63794	0.59616
1357.70937	0.59506
1355.78081	0.59384
1353.85225	0.59277
1351.92368	0.59202
1349.99512	0.59149
1348.06655	0.59095
1346.13799	0.59025
1344.20942	0.58958
1342.28086	0.58901
1340.35229	0.58832
1338.42373	0.58767
1336.49517	0.58742
1334.56660	0.58740
1332.63804	0.58748
1330.70947	0.58787
1328.78091	0.58858
1326.85234	0.58945
1324.92378	0.59046
1322.99521	0.59164
1321.06665	0.59273
1319.13809	0.59364
1317.20952	0.59424
1315.28096	0.59446
1313.35239	0.59447
1311.42383	0.59428
1309.49526	0.59386
1307.56670	0.59342
1305.63813	0.59308
1303.70957	0.59275
1301.78101	0.59225
1299.85244	0.59143
1297.92388	0.59040
1295.99531	0.58923
1294.06675	0.58799
1292.13818	0.58677
1290.20962	0.58537
1288.28105	0.58381
1286.35249	0.58238
1284.42393	0.58114
1282.49536	0.57990
1280.56680	0.57854
1278.63823	0.57706
1276.70967	0.57558
1274.78110	0.57423
1272.85254	0.57317
1270.92397	0.57238
1268.99541	0.57154
1267.06685	0.57065
1265.13828	0.56987
1263.20972	0.56908
1261.28115	0.56815
1259.35259	0.56720
1257.42402	0.56639
1255.49546	0.56587
1253.56689	0.56579
1251.63833	0.56603
1249.70977	0.56630
1247.78120	0.56652
1245.85264	0.56654
1243.92407	0.56610
1241.99551	0.56518
1240.06694	0.56388
1238.13838	0.56207
1236.20981	0.55968
1234.28125	0.55700
1232.35269	0.55438
1230.42412	0.55196
1228.49556	0.54982
1226.56699	0.54788
1224.63843	0.54600
1222.70986	0.54414
1220.78130	0.54235
1218.85273	0.54074
1216.92417	0.53933
1214.99561	0.53812
1213.06704	0.53713
1211.13848	0.53631
1209.20991	0.53559
1207.28135	0.53497
1205.35278	0.53420
1203.42422	0.53310
1201.49565	0.53200
1199.56709	0.53125
1197.63853	0.53073
1195.70996	0.53019
1193.78140	0.52961
1191.85283	0.52911
1189.92427	0.52878
1187.99570	0.52857
1186.06714	0.52840
1184.13857	0.52854
1182.21001	0.52932
1180.28145	0.53048
1178.35288	0.53173
1176.42432	0.53308
1174.49575	0.53438
1172.56719	0.53531
1170.63862	0.53566
1168.71006	0.53535
1166.78149	0.53466
1164.85293	0.53408
1162.92437	0.53364
1160.99580	0.53310
1159.06724	0.53236
1157.13867	0.53135
1155.21011	0.53011
1153.28154	0.52858
1151.35298	0.52669
1149.42441	0.52447
1147.49585	0.52195
1145.56729	0.51931
1143.63872	0.51687
1141.71016	0.51484
1139.78159	0.51301
1137.85303	0.51137
1135.92446	0.51026
1133.99590	0.50957
1132.06733	0.50899
1130.13877	0.50850
1128.21021	0.50792
1126.28164	0.50710
1124.35308	0.50634
1122.42451	0.50569
1120.49595	0.50496
1118.56738	0.50444
1116.63882	0.50437
1114.71025	0.50443
1112.78169	0.50440
1110.85312	0.50454
1108.92456	0.50513
1106.99600	0.50617
1105.06743	0.50745
1103.13887	0.50879
1101.21030	0.51024
1099.28174	0.51203
1097.35317	0.51426
1095.42461	0.51696
1093.49604	0.52035
1091.56748	0.52451
1089.63892	0.52938
1087.71035	0.53496
1085.78179	0.54106
1083.85322	0.54729
1081.92466	0.55335
1079.99609	0.55842
1078.06753	0.56139
1076.13896	0.56171
1074.21040	0.55939
1072.28184	0.55492
1070.35327	0.54918
1068.42471	0.54293
1066.49614	0.53645
1064.56758	0.52996
1062.63901	0.52391
1060.71045	0.51864
1058.78188	0.51405
1056.85332	0.51000
1054.92476	0.50653
1052.99619	0.50333
1051.06763	0.50025
1049.13906	0.49760
1047.21050	0.49545
1045.28193	0.49369
1043.35337	0.49212
1041.42480	0.49064
1039.49624	0.48938
1037.56768	0.48836
1035.63911	0.48764
1033.71055	0.48731
1031.78198	0.48719
1029.85342	0.48699
1027.92485	0.48665
1025.99629	0.48626
1024.06772	0.48609
1022.13916	0.48628
1020.21060	0.48677
1018.28203	0.48740
1016.35347	0.48805
1014.42490	0.48863
1012.49634	0.48925
1010.56777	0.49017
1008.63921	0.49135
1006.71064	0.49270
1004.78208	0.49435
1002.85352	0.49648
1000.92495	0.49917
998.99639	0.50244
997.06782	0.50615
995.13926	0.50999
993.21069	0.51384
991.28213	0.51757
989.35356	0.52056
987.42500	0.52225
985.49644	0.52281
983.56787	0.52317
981.63931	0.52395
979.71074	0.52510
977.78218	0.52659
975.85361	0.52852
973.92505	0.53096
971.99648	0.53393
970.06792	0.53731
968.13936	0.54102
966.21079	0.54495
964.28223	0.54890
962.35366	0.55327
960.42510	0.55835
958.49653	0.56368
956.56797	0.56910
954.63940	0.57492
952.71084	0.58121
950.78228	0.58758
948.85371	0.59372
946.92515	0.59981
944.99658	0.60610
943.06802	0.61249
941.13945	0.61858
939.21089	0.62410
937.28232	0.62944
935.35376	0.63504
933.42520	0.64087
931.49663	0.64697
929.56807	0.65309
927.63950	0.65849
925.71094	0.66350
923.78237	0.66900
921.85381	0.67484
919.92524	0.68082
917.99668	0.68744
916.06812	0.69461
914.13955	0.70185
912.21099	0.70949
910.28242	0.71769
908.35386	0.72559
906.42529	0.73343
904.49673	0.74249
902.56816	0.75235
900.63960	0.76126
898.71104	0.76884
896.78247	0.77714
894.85391	0.78692
892.92534	0.79682
890.99678	0.80728
889.06821	0.81938
887.13965	0.83223
885.21108	0.84393
883.28252	0.85373
881.35396	0.86325
879.42539	0.87430
877.49683	0.88673
875.56826	0.89917
873.63970	0.91081
871.71113	0.92233
869.78257	0.93329
867.85400	0.94234
865.92544	0.95120
863.99687	0.96188
862.06831	0.97426
860.13975	0.98733
858.21118	0.99891
856.28262	1.00890
854.35405	1.02103
852.42549	1.03579
850.49692	1.04867
848.56836	1.05815
846.63979	1.06618
844.71123	1.07534
842.78267	1.08758
840.85410	1.10024
838.92554	1.11058
836.99697	1.12087
835.06841	1.13331
833.13984	1.14677
831.21128	1.15875
829.28271	1.16925
827.35415	1.17938
825.42559	1.18988
823.49702	1.20134
821.56846	1.21031
819.63989	1.21735
817.71133	1.22884
815.78276	1.24421
813.85420	1.25725
811.92563	1.27261
809.99707	1.28858
808.06851	1.28638
806.13994	1.27538
804.21138	1.27311
802.28281	1.28024
800.35425	1.30367
798.42568	1.33428
796.49712	1.33757
794.56855	1.33109
792.63999	1.36218
790.71143	1.39682
788.78286	1.37275
786.85430	1.34464
784.92573	1.36686
782.99717	1.39611
781.06860	1.38915
779.14004	1.36402
777.21147	1.34241
775.28291	1.31155
773.35435	1.24972
771.42578	1.19955
769.49722	1.17309
767.56865	1.16232
765.64009	1.15529
763.71152	1.12010
761.78296	1.08987
759.85439	1.10378
757.92583	1.14684
755.99727	1.18020
754.06870	1.17463
752.14014	1.16078
750.21157	1.13942
748.28301	1.06242
746.35444	1.00197
744.42588	0.97537
742.49731	0.90973
740.56875	0.78401
738.64019	0.67297
736.71162	0.60996
734.78306	0.55508
732.85449	0.46585
730.92593	0.37338
728.99736	0.30544
727.06880	0.24545
725.14023	0.17491
723.21167	0.10049
721.28311	0.03790
719.35454	-0.00330
717.42598	-0.06153
715.49741	-0.15919
713.56885	-0.24837
711.64028	-0.21006
709.71172	-0.08356
707.78315	-0.01705
705.85459	-0.03015
703.92603	-0.05880
701.99746	-0.00813
700.06890	0.06827
698.14033	0.09971
696.21177	0.09930
694.28320	0.09929
692.35464	0.09560
690.42607	0.06751
688.49751	0.04218
686.56895	0.05093
684.64038	0.06898
682.71182	0.08705
680.78325	0.09595
678.85469	0.09090
676.92612	0.07237
674.99756	0.03875
673.06899	0.04230
671.14043	0.09445
669.21187	0.11868
667.28330	0.08974
665.35474	0.03913
663.42617	0.00364
661.49761	-0.00663
659.56904	0.04068
657.64048	0.14352
655.71191	0.18742
653.78335	0.08572
651.85479	-0.01095
649.92622	-0.03600
647.99766	-0.00246
646.06909	0.04577
644.14053	0.05808
642.21196	0.08299
640.28340	0.10821
638.35483	0.06521
636.42627	0.05502
634.49771	0.09630
632.56914	0.09082
630.64058	0.09691
628.71201	0.12306
626.78345	0.09646
624.85488	0.08627
622.92632	0.11399
620.99775	0.11981
619.06919	0.10078
617.14062	0.07055
615.21206	0.06713
613.28350	0.10537
611.35493	0.14672
609.42637	0.14854
607.49780	0.10244
605.56924	0.07185
603.64067	0.05833
601.71211	0.01290
599.78354	-0.00849
597.85498	0.05419
595.92642	0.09036
593.99785	0.06987
592.06929	0.05572
590.14072	0.02738
588.21216	-0.01740
586.28359	-0.00693
584.35503	0.08688
582.42646	0.17583
580.49790	0.15275
578.56934	0.10469
576.64077	0.10477
574.71221	0.10355
572.78364	0.08293
570.85508	0.05315
568.92651	0.02404
566.99795	0.02013
565.06938	0.04036
563.14082	0.06153
561.21226	0.07758
559.28369	0.08437
557.35513	0.08419
555.42656	0.11049
553.49800	0.13434
551.56943	0.13230
549.64087	0.13727
547.71230	0.16919
545.78374	0.17228
543.85518	0.10791
541.92661	0.07486
539.99805	0.09105
538.06948	0.09897
536.14092	0.09431
534.21235	0.12442
532.28379	0.17110
530.35522	0.16688
528.42666	0.13224
526.49810	0.11010
524.56953	0.08031
522.64097	0.04199
520.71240	0.03850
518.78384	0.07949
516.85527	0.11445
514.92671	0.10369
512.99814	0.09851
511.06958	0.15947
509.14102	0.25709
507.21245	0.23491
505.28389	0.13820
503.35532	0.09533
501.42676	0.12269
499.49819	0.14482
