3997.91411	0.06962
3995.98555	0.07061
3994.05698	0.07128
3992.12842	0.07131
3990.19985	0.07171
3988.27129	0.07245
3986.34272	0.07255
3984.41416	0.07232
3982.48560	0.07254
3980.55703	0.07303
3978.62847	0.07330
3976.69990	0.07348
3974.77134	0.07387
3972.84277	0.07433
3970.91421	0.07459
3968.98564	0.07468
3967.05708	0.07430
3965.12852	0.07342
3963.19995	0.07358
3961.27139	0.07512
3959.34282	0.07619
3957.41426	0.07600
3955.48569	0.07536
3953.55713	0.07498
3951.62856	0.07554
3949.70000	0.07723
3947.77144	0.07864
3945.84287	0.07838
3943.91431	0.07808
3941.98574	0.07863
3940.05718	0.07803
3938.12861	0.07628
3936.20005	0.07543
3934.27148	0.07653
3932.34292	0.07915
3930.41436	0.08092
3928.48579	0.08005
3926.55723	0.07890
3924.62866	0.07977
3922.70010	0.08060
3920.77153	0.07975
3918.84297	0.07943
3916.91440	0.08018
3914.98584	0.07950
3913.05728	0.07689
3911.12871	0.07473
3909.20015	0.07461
3907.27158	0.07695
3905.34302	0.08176
3903.41445	0.08713
3901.48589	0.08927
3899.55732	0.08775
3897.62876	0.08390
3895.70020	0.07988
3893.77163	0.07897
3891.84307	0.08122
3889.91450	0.08219
3887.98594	0.08064
3886.05737	0.08124
3884.12881	0.08398
3882.20024	0.08534
3880.27168	0.08560
3878.34312	0.08393
3876.41455	0.08162
3874.48599	0.08260
3872.55742	0.08600
3870.62886	0.08904
3868.70029	0.09028
3866.77173	0.08907
3864.84316	0.08878
3862.91460	0.08929
3860.98604	0.08704
3859.05747	0.08463
3857.12891	0.08575
3855.20034	0.09079
3853.27178	0.09897
3851.34321	0.10140
3849.41465	0.09388
3847.48608	0.08718
3845.55752	0.08525
3843.62896	0.08800
3841.70039	0.09341
3839.77183	0.09926
3837.84326	0.10351
3835.91470	0.10276
3833.98613	0.09865
3832.05757	0.09543
3830.12900	0.09386
3828.20044	0.09366
3826.27187	0.09476
3824.34331	0.09641
3822.41475	0.09960
3820.48618	0.10523
3818.55762	0.10747
3816.62905	0.10598
3814.70049	0.10363
3812.77192	0.09963
3810.84336	0.09699
3808.91479	0.09799
3806.98623	0.10226
3805.05767	0.10635
3803.12910	0.10922
3801.20054	0.11374
3799.27197	0.11611
3797.34341	0.11435
3795.41484	0.11197
3793.48628	0.10899
3791.55771	0.10701
3789.62915	0.10740
3787.70059	0.10935
3785.77202	0.11224
3783.84346	0.11508
3781.91489	0.11685
3779.98633	0.11920
3778.05776	0.12157
3776.12920	0.12094
3774.20063	0.11993
3772.27207	0.12175
3770.34351	0.12639
3768.41494	0.13126
3766.48638	0.13372
3764.55781	0.13484
3762.62925	0.13571
3760.70068	0.13814
3758.77212	0.14309
3756.84355	0.14741
3754.91499	0.15009
3752.98643	0.15511
3751.05786	0.16486
3749.12930	0.17340
3747.20073	0.17441
3745.27217	0.17515
3743.34360	0.17871
3741.41504	0.18121
3739.48647	0.18386
3737.55791	0.19086
3735.62935	0.20330
3733.70078	0.21430
3731.77222	0.21630
3729.84365	0.21537
3727.91509	0.21732
3725.98652	0.22342
3724.05796	0.23101
3722.12939	0.23659
3720.20083	0.24003
3718.27227	0.24218
3716.34370	0.24492
3714.41514	0.25092
3712.48657	0.26376
3710.55801	0.28401
3708.62944	0.30047
3706.70088	0.30890
3704.77231	0.31752
3702.84375	0.33056
3700.91519	0.34810
3698.98662	0.36570
3697.05806	0.38172
3695.12949	0.39958
3693.20093	0.42025
3691.27236	0.44512
3689.34380	0.47687
3687.41523	0.50980
3685.48667	0.53428
3683.55811	0.55615
3681.62954	0.58310
3679.70098	0.61674
3677.77241	0.65414
3675.84385	0.69830
3673.91528	0.75322
3671.98672	0.79468
3670.05815	0.83258
3668.12959	0.88446
3666.20103	0.92826
3664.27246	0.96495
3662.34390	1.00751
3660.41533	1.05534
3658.48677	1.10328
3656.55820	1.15472
3654.62964	1.21119
3652.70107	1.25861
3650.77251	1.30318
3648.84395	1.36722
3646.91538	1.43901
3644.98682	1.48426
3643.05825	1.51891
3641.12969	1.55764
3639.20112	1.60198
3637.27256	1.64754
3635.34399	1.69297
3633.41543	1.73932
3631.48687	1.78372
3629.55830	1.83021
3627.62974	1.88855
3625.70117	1.93641
3623.77261	1.96541
3621.84404	1.99539
3619.91548	2.03382
3617.98691	2.08192
3616.05835	2.12676
3614.12979	2.16305
3612.20122	2.20056
3610.27266	2.23873
3608.34409	2.27984
3606.41553	2.32404
3604.48696	2.36259
3602.55840	2.39720
3600.62983	2.43680
3598.70127	2.47942
3596.77271	2.51962
3594.84414	2.56032
3592.91558	2.60171
3590.98701	2.63972
3589.05845	2.67576
3587.12988	2.71970
3585.20132	2.76724
3583.27275	2.80620
3581.34419	2.84219
3579.41562	2.88166
3577.48706	2.92373
3575.55850	2.96614
3573.62993	3.00983
3571.70137	3.05166
3569.77280	3.09189
3567.84424	3.13804
3565.91567	3.19412
3563.98711	3.24316
3562.05854	3.28156
3560.12998	3.32204
3558.20142	3.36544
3556.27285	3.40911
3554.34429	3.45264
3552.41572	3.49847
3550.48716	3.54481
3548.55859	3.58879
3546.63003	3.63418
3544.70146	3.68407
3542.77290	3.73327
3540.84434	3.77895
3538.91577	3.82338
3536.98721	3.86749
3535.05864	3.91407
3533.13008	3.96096
3531.20151	4.00771
3529.27295	4.05892
3527.34438	4.11369
3525.41582	4.16311
3523.48726	4.20626
3521.55869	4.25121
3519.63013	4.29686
3517.70156	4.34071
3515.77300	4.38469
3513.84443	4.43183
3511.91587	4.48268
3509.98730	4.53441
3508.05874	4.58386
3506.13018	4.62928
3504.20161	4.67335
3502.27305	4.72266
3500.34448	4.77670
3498.41592	4.82728
3496.48735	4.87519
3494.55879	4.92516
3492.63022	4.97576
3490.70166	5.02498
3488.77310	5.07631
3486.84453	5.13199
3484.91597	5.18464
3482.98740	5.22746
3481.05884	5.26204
3479.13027	5.29426
3477.20171	5.33583
3475.27314	5.38887
3473.34458	5.44379
3471.41602	5.49338
3469.48745	5.53877
3467.55889	5.58588
3465.63032	5.63453
3463.70176	5.68616
3461.77319	5.73762
3459.84463	5.78788
3457.91606	5.84305
3455.98750	5.89791
3454.05894	5.95091
3452.13037	6.00741
3450.20181	6.05838
3448.27324	6.09465
3446.34468	6.12750
3444.41611	6.16884
3442.48755	6.21907
3440.55898	6.27267
3438.63042	6.33479
3436.70186	6.39222
3434.77329	6.42768
3432.84473	6.46081
3430.91616	6.50256
3428.98760	6.54892
3427.05903	6.59754
3425.13047	6.65057
3423.20190	6.69949
3421.27334	6.75019
3419.34478	6.79782
3417.41621	6.83018
3415.48765	6.88218
3413.55908	6.95040
3411.63052	7.00092
3409.70195	7.04008
3407.77339	7.09112
3405.84482	7.14151
3403.91626	7.18189
3401.98770	7.22385
3400.05913	7.27187
3398.13057	7.32220
3396.20200	7.38569
3394.27344	7.44714
3392.34487	7.45471
3390.41631	7.46515
3388.48774	7.50669
3386.55918	7.51784
3384.63062	7.48186
3382.70205	7.44494
3380.77349	7.44759
3378.84492	7.49828
3376.91636	7.57737
3374.98779	7.62319
3373.05923	7.63948
3371.13066	7.64110
3369.20210	7.65527
3367.27354	7.73176
3365.34497	7.81849
3363.41641	7.83289
3361.48784	7.84096
3359.55928	7.91707
3357.63071	7.99949
3355.70215	8.07297
3353.77358	8.13244
3351.84502	8.12366
3349.91646	8.03827
3347.98789	7.95347
3346.05933	7.95513
3344.13076	8.02785
3342.20220	8.05928
3340.27363	7.98523
3338.34507	7.93344
3336.41650	7.99736
3334.48794	8.08858
3332.55937	8.08625
3330.63081	8.06278
3328.70225	8.08784
3326.77368	8.08393
3324.84512	8.01056
3322.91655	7.92432
3320.98799	7.87740
3319.05942	7.89588
3317.13086	7.95906
3315.20229	7.99276
3313.27373	8.07600
3311.34517	8.21202
3309.41660	8.19508
3307.48804	8.05532
3305.55947	7.98380
3303.63091	8.03011
3301.70234	8.10646
3299.77378	8.16141
3297.84521	8.21363
3295.91665	8.29847
3293.98809	8.36445
3292.05952	8.34283
3290.13096	8.32021
3288.20239	8.30973
3286.27383	8.19113
3284.34526	8.03595
3282.41670	8.02546
3280.48813	8.10343
3278.55957	8.16517
3276.63101	8.23372
3274.70244	8.31773
3272.77388	8.36903
3270.84531	8.35230
3268.91675	8.31203
3266.98818	8.22588
3265.05962	8.10764
3263.13105	8.07269
3261.20249	8.14491
3259.27393	8.24301
3257.34536	8.29842
3255.41680	8.26623
3253.48823	8.22979
3251.55967	8.28557
3249.63110	8.32391
3247.70254	8.30654
3245.77397	8.27277
3243.84541	8.18590
3241.91685	8.11463
3239.98828	8.12373
3238.05972	8.14515
3236.13115	8.18334
3234.20259	8.29112
3232.27402	8.36735
3230.34546	8.33597
3228.41689	8.24796
3226.48833	8.14835
3224.55977	8.08571
3222.63120	8.09312
3220.70264	8.13299
3218.77407	8.13557
3216.84551	8.06220
3214.91694	7.95796
3212.98838	7.93781
3211.05981	7.99130
3209.13125	7.98007
3207.20269	7.91710
3205.27412	7.85524
3203.34556	7.77554
3201.41699	7.71523
3199.48843	7.67120
3197.55986	7.64016
3195.63130	7.64383
3193.70273	7.60738
3191.77417	7.50351
3189.84561	7.43900
3187.91704	7.44357
3185.98848	7.43870
3184.05991	7.40886
3182.13135	7.37522
3180.20278	7.30916
3178.27422	7.20131
3176.34565	7.08794
3174.41709	7.01102
3172.48853	6.97733
3170.55996	6.94837
3168.63140	6.89542
3166.70283	6.83484
3164.77427	6.77378
3162.84570	6.68753
3160.91714	6.58119
3158.98857	6.49950
3157.06001	6.44923
3155.13145	6.39282
3153.20288	6.31674
3151.27432	6.24712
3149.34575	6.19976
3147.41719	6.15589
3145.48862	6.09074
3143.56006	6.00534
3141.63149	5.92371
3139.70293	5.86303
3137.77437	5.81150
3135.84580	5.75258
3133.91724	5.68716
3131.98867	5.60653
3130.06011	5.51381
3128.13154	5.43625
3126.20298	5.37390
3124.27441	5.30559
3122.34585	5.23055
3120.41729	5.15960
3118.48872	5.09384
3116.56016	5.02953
3114.63159	4.95950
3112.70303	4.88963
3110.77446	4.82897
3108.84590	4.76538
3106.91733	4.69390
3104.98877	4.62415
3103.06021	4.56145
3101.13164	4.50339
3099.20308	4.44184
3097.27451	4.37452
3095.34595	4.30745
3093.41738	4.24358
3091.48882	4.18208
3089.56025	4.12079
3087.63169	4.05747
3085.70312	3.99589
3083.77456	3.93792
3081.84600	3.87894
3079.91743	3.81770
3077.98887	3.75768
3076.06030	3.69962
3074.13174	3.64178
3072.20317	3.58599
3070.27461	3.53305
3068.34604	3.47897
3066.41748	3.42212
3064.48892	3.36612
3062.56035	3.31286
3060.63179	3.26046
3058.70322	3.20844
3056.77466	3.15701
3054.84609	3.10507
3052.91753	3.05329
3050.98896	3.00337
3049.06040	2.95468
3047.13184	2.90612
3045.20327	2.85788
3043.27471	2.81033
3041.34614	2.76356
3039.41758	2.71773
3037.48901	2.67266
3035.56045	2.62771
3033.63188	2.58317
3031.70332	2.53944
3029.77476	2.49595
3027.84619	2.45245
3025.91763	2.40979
3023.98906	2.36845
3022.06050	2.32759
3020.13193	2.28722
3018.20337	2.24767
3016.27480	2.20838
3014.34624	2.17009
3012.41768	2.13327
3010.48911	2.09646
3008.56055	2.05967
3006.63198	2.02414
3004.70342	1.98921
3002.77485	1.95412
3000.84629	1.91994
2998.91772	1.88730
2996.98916	1.85563
2995.06060	1.82431
2993.13203	1.79344
2991.20347	1.76368
2989.27490	1.73484
2987.34634	1.70631
2985.41777	1.67852
2983.48921	1.65172
2981.56064	1.62508
2979.63208	1.59815
2977.70352	1.57184
2975.77495	1.54701
2973.84639	1.52305
2971.91782	1.49912
2969.98926	1.47558
2968.06069	1.45260
2966.13213	1.42999
2964.20356	1.40764
2962.27500	1.38512
2960.34644	1.36252
2958.41787	1.33974
2956.48931	1.31642
2954.56074	1.29296
2952.63218	1.26990
2950.70361	1.24757
2948.77505	1.22566
2946.84648	1.20384
2944.91792	1.18257
2942.98936	1.16212
2941.06079	1.14258
2939.13223	1.12371
2937.20366	1.10499
2935.27510	1.08606
2933.34653	1.06680
2931.41797	1.04772
2929.48940	1.02921
2927.56084	1.01130
2925.63228	0.99395
2923.70371	0.97663
2921.77515	0.95919
2919.84658	0.94227
2917.91802	0.92557
2915.98945	0.90826
2914.06089	0.89064
2912.13232	0.87372
2910.20376	0.85785
2908.27520	0.84253
2906.34663	0.82759
2904.41807	0.81311
2902.48950	0.79889
2900.56094	0.78508
2898.63237	0.77175
2896.70381	0.75860
2894.77524	0.74564
2892.84668	0.73323
2890.91812	0.72134
2888.98955	0.70986
2887.06099	0.69888
2885.13242	0.68835
2883.20386	0.67827
2881.27529	0.66856
2879.34673	0.65893
2877.41816	0.64930
2875.48960	0.63999
2873.56104	0.63083
2871.63247	0.62107
2869.70391	0.61033
2867.77534	0.59894
2865.84678	0.58742
2863.91821	0.57597
2861.98965	0.56474
2860.06108	0.55417
2858.13252	0.54431
2856.20396	0.53501
2854.27539	0.52616
2852.34683	0.51762
2850.41826	0.50938
2848.48970	0.50102
2846.56113	0.49239
2844.63257	0.48408
2842.70400	0.47638
2840.77544	0.46929
2838.84687	0.46279
2836.91831	0.45663
2834.98975	0.45050
2833.06118	0.44428
2831.13262	0.43818
2829.20405	0.43225
2827.27549	0.42617
2825.34692	0.41987
2823.41836	0.41379
2821.48979	0.40803
2819.56123	0.40232
2817.63267	0.39666
2815.70410	0.39114
2813.77554	0.38559
2811.84697	0.38001
2809.91841	0.37459
2807.98984	0.36934
2806.06128	0.36419
2804.13271	0.35912
2802.20415	0.35404
2800.27559	0.34897
2798.34702	0.34397
2796.41846	0.33912
2794.48989	0.33445
2792.56133	0.32985
2790.63276	0.32537
2788.70420	0.32105
2786.77563	0.31673
2784.84707	0.31242
2782.91851	0.30835
2780.98994	0.30455
2779.06138	0.30066
2777.13281	0.29661
2775.20425	0.29264
2773.27568	0.28889
2771.34712	0.28520
2769.41855	0.28151
2767.48999	0.27794
2765.56143	0.27447
2763.63286	0.27099
2761.70430	0.26750
2759.77573	0.26420
2757.84717	0.26117
2755.91860	0.25814
2753.99004	0.25499
2752.06147	0.25191
2750.13291	0.24899
2748.20435	0.24619
2746.27578	0.24346
2744.34722	0.24070
2742.41865	0.23791
2740.49009	0.23512
2738.56152	0.23240
2736.63296	0.22990
2734.70439	0.22764
2732.77583	0.22535
2730.84727	0.22291
2728.91870	0.22049
2726.99014	0.21818
2725.06157	0.21595
2723.13301	0.21384
2721.20444	0.21175
2719.27588	0.20953
2717.34731	0.20736
2715.41875	0.20543
2713.49019	0.20374
2711.56162	0.20208
2709.63306	0.20027
2707.70449	0.19848
2705.77593	0.19687
2703.84736	0.19522
2701.91880	0.19342
2699.99023	0.19176
2698.06167	0.19035
2696.13311	0.18902
2694.20454	0.18768
2692.27598	0.18628
2690.34741	0.18490
2688.41885	0.18372
2686.49028	0.18269
2684.56172	0.18160
2682.63315	0.18036
2680.70459	0.17897
2678.77603	0.17760
2676.84746	0.17630
2674.91890	0.17513
2672.99033	0.17414
2671.06177	0.17328
2669.13320	0.17233
2667.20464	0.17126
2665.27607	0.17013
2663.34751	0.16911
2661.41895	0.16825
2659.49038	0.16740
2657.56182	0.16657
2655.63325	0.16588
2653.70469	0.16526
2651.77612	0.16458
2649.84756	0.16381
2647.91899	0.16301
2645.99043	0.16217
2644.06187	0.16140
2642.13330	0.16084
2640.20474	0.16039
2638.27617	0.15997
2636.34761	0.15962
2634.41904	0.15921
2632.49048	0.15872
2630.56191	0.15822
2628.63335	0.15774
2626.70479	0.15724
2624.77622	0.15682
2622.84766	0.15658
2620.91909	0.15632
2618.99053	0.15594
2617.06196	0.15564
2615.13340	0.15547
2613.20483	0.15534
2611.27627	0.15518
2609.34771	0.15491
2607.41914	0.15460
2605.49058	0.15447
2603.56201	0.15448
2601.63345	0.15448
2599.70488	0.15443
2597.77632	0.15439
2595.84775	0.15436
2593.91919	0.15432
2591.99062	0.15431
2590.06206	0.15445
2588.13350	0.15476
2586.20493	0.15497
2584.27637	0.15491
2582.34780	0.15488
2580.41924	0.15517
2578.49067	0.15556
2576.56211	0.15586
2574.63354	0.15612
2572.70498	0.15637
2570.77642	0.15659
2568.84785	0.15679
2566.91929	0.15702
2564.99072	0.15742
2563.06216	0.15792
2561.13359	0.15839
2559.20503	0.15875
2557.27646	0.15906
2555.34790	0.15952
2553.41934	0.16010
2551.49077	0.16058
2549.56221	0.16101
2547.63364	0.16148
2545.70508	0.16202
2543.77651	0.16264
2541.84795	0.16323
2539.91938	0.16375
2537.99082	0.16425
2536.06226	0.16473
2534.13369	0.16522
2532.20513	0.16583
2530.27656	0.16649
2528.34800	0.16709
2526.41943	0.16769
2524.49087	0.16833
2522.56230	0.16899
2520.63374	0.16974
2518.70518	0.17055
2516.77661	0.17123
2514.84805	0.17188
2512.91948	0.17263
2510.99092	0.17335
2509.06235	0.17403
2507.13379	0.17480
2505.20522	0.17559
2503.27666	0.17637
2501.34810	0.17712
2499.41953	0.17792
2497.49097	0.17880
2495.56240	0.17967
2493.63384	0.18048
2491.70527	0.18120
2489.77671	0.18195
2487.84814	0.18293
2485.91958	0.18390
2483.99102	0.18466
2482.06245	0.18542
2480.13389	0.18621
2478.20532	0.18694
2476.27676	0.18765
2474.34819	0.18839
2472.41963	0.18922
2470.49106	0.19016
2468.56250	0.19110
2466.63394	0.19199
2464.70537	0.19277
2462.77681	0.19355
2460.84824	0.19448
2458.91968	0.19548
2456.99111	0.19640
2455.06255	0.19727
2453.13398	0.19821
2451.20542	0.19912
2449.27686	0.19993
2447.34829	0.20078
2445.41973	0.20176
2443.49116	0.20281
2441.56260	0.20380
2439.63403	0.20470
2437.70547	0.20557
2435.77690	0.20649
2433.84834	0.20753
2431.91978	0.20861
2429.99121	0.20970
2428.06265	0.21082
2426.13408	0.21190
2424.20552	0.21289
2422.27695	0.21386
2420.34839	0.21490
2418.41982	0.21603
2416.49126	0.21724
2414.56270	0.21838
2412.63413	0.21939
2410.70557	0.22040
2408.77700	0.22148
2406.84844	0.22262
2404.91987	0.22377
2402.99131	0.22488
2401.06274	0.22604
2399.13418	0.22727
2397.20562	0.22845
2395.27705	0.22959
2393.34849	0.23078
2391.41992	0.23218
2389.49136	0.23404
2387.56279	0.23682
2385.63423	0.24139
2383.70566	0.24867
2381.77710	0.25893
2379.84854	0.27157
2377.91997	0.28603
2375.99141	0.30255
2374.06284	0.32161
2372.13428	0.34325
2370.20571	0.36696
2368.27715	0.39131
2366.34858	0.41436
2364.42002	0.43451
2362.49146	0.45007
2360.56289	0.45906
2358.63433	0.46004
2356.70576	0.45123
2354.77720	0.43258
2352.84863	0.40794
2350.92007	0.38311
2348.99150	0.36789
2347.06294	0.36858
2345.13437	0.38507
2343.20581	0.40643
2341.27725	0.41701
2339.34868	0.41722
2337.42012	0.41464
2335.49155	0.41246
2333.56299	0.41034
2331.63442	0.40871
2329.70586	0.40692
2327.77729	0.40337
2325.84873	0.39795
2323.92017	0.39176
2321.99160	0.38474
2320.06304	0.37618
2318.13447	0.36687
2316.20591	0.35890
2314.27734	0.35389
2312.34878	0.35130
2310.42021	0.34890
2308.49165	0.34518
2306.56309	0.34038
2304.63452	0.33569
2302.70596	0.33243
2300.77739	0.33064
2298.84883	0.32937
2296.92026	0.32828
2294.99170	0.32738
2293.06313	0.32645
2291.13457	0.32544
2289.20601	0.32458
2287.27744	0.32398
2285.34888	0.32366
2283.42031	0.32397
2281.49175	0.32540
2279.56318	0.32779
2277.63462	0.33043
2275.70605	0.33285
2273.77749	0.33506
2271.84893	0.33720
2269.92036	0.33919
2267.99180	0.34104
2266.06323	0.34291
2264.13467	0.34483
2262.20610	0.34671
2260.27754	0.34845
2258.34897	0.35005
2256.42041	0.35161
2254.49185	0.35319
2252.56328	0.35478
2250.63472	0.35645
2248.70615	0.35832
2246.77759	0.36030
2244.84902	0.36215
2242.92046	0.36393
2240.99189	0.36589
2239.06333	0.36801
2237.13477	0.37017
2235.20620	0.37228
2233.27764	0.37426
2231.34907	0.37624
2229.42051	0.37837
2227.49194	0.38065
2225.56338	0.38298
2223.63481	0.38510
2221.70625	0.38712
2219.77769	0.38929
2217.84912	0.39153
2215.92056	0.39362
2213.99199	0.39562
2212.06343	0.39773
2210.13486	0.39996
2208.20630	0.40216
2206.27773	0.40425
2204.34917	0.40627
2202.42061	0.40825
2200.49204	0.41025
2198.56348	0.41238
2196.63491	0.41450
2194.70635	0.41643
2192.77778	0.41813
2190.84922	0.41978
2188.92065	0.42155
2186.99209	0.42337
2185.06353	0.42501
2183.13496	0.42661
2181.20640	0.42837
2179.27783	0.43022
2177.34927	0.43194
2175.42070	0.43344
2173.49214	0.43488
2171.56357	0.43638
2169.63501	0.43787
2167.70645	0.43919
2165.77788	0.44036
2163.84932	0.44157
2161.92075	0.44277
2159.99219	0.44388
2158.06362	0.44496
2156.13506	0.44603
2154.20649	0.44698
2152.27793	0.44772
2150.34937	0.44835
2148.42080	0.44898
2146.49224	0.44968
2144.56367	0.45043
2142.63511	0.45102
2140.70654	0.45134
2138.77798	0.45163
2136.84941	0.45193
2134.92085	0.45209
2132.99229	0.45212
2131.06372	0.45213
2129.13516	0.45206
2127.20659	0.45187
2125.27803	0.45155
2123.34946	0.45107
2121.42090	0.45060
2119.49233	0.45033
2117.56377	0.45013
2115.63521	0.44958
2113.70664	0.44869
2111.77808	0.44783
2109.84951	0.44707
2107.92095	0.44622
2105.99238	0.44520
2104.06382	0.44411
2102.13525	0.44290
2100.20669	0.44160
2098.27812	0.44028
2096.34956	0.43895
2094.42100	0.43759
2092.49243	0.43622
2090.56387	0.43479
2088.63530	0.43310
2086.70674	0.43121
2084.77817	0.42935
2082.84961	0.42757
2080.92104	0.42579
2078.99248	0.42393
2077.06392	0.42195
2075.13535	0.41994
2073.20679	0.41790
2071.27822	0.41581
2069.34966	0.41366
2067.42109	0.41154
2065.49253	0.40946
2063.56396	0.40716
2061.63540	0.40463
2059.70684	0.40214
2057.77827	0.39966
2055.84971	0.39716
2053.92114	0.39472
2051.99258	0.39230
2050.06401	0.38983
2048.13545	0.38728
2046.20688	0.38474
2044.27832	0.38227
2042.34976	0.37979
2040.42119	0.37716
2038.49263	0.37432
2036.56406	0.37145
2034.63550	0.36878
2032.70693	0.36618
2030.77837	0.36353
2028.84980	0.36090
2026.92124	0.35826
2024.99268	0.35553
2023.06411	0.35283
2021.13555	0.35021
2019.20698	0.34769
2017.27842	0.34516
2015.34985	0.34228
2013.42129	0.33930
2011.49272	0.33657
2009.56416	0.33394
2007.63560	0.33123
2005.70703	0.32847
2003.77847	0.32575
2001.84990	0.32312
1999.92134	0.32061
1997.99277	0.31813
1996.06421	0.31571
1994.13564	0.31363
1992.20708	0.31169
1990.27852	0.30925
1988.34995	0.30641
1986.42139	0.30352
1984.49282	0.30082
1982.56426	0.29846
1980.63569	0.29628
1978.70713	0.29409
1976.77856	0.29184
1974.85000	0.28960
1972.92144	0.28742
1970.99287	0.28538
1969.06431	0.28369
1967.13574	0.28219
1965.20718	0.28010
1963.27861	0.27769
1961.35005	0.27561
1959.42148	0.27369
1957.49292	0.27173
1955.56436	0.26988
1953.63579	0.26808
1951.70723	0.26624
1949.77866	0.26451
1947.85010	0.26308
1945.92153	0.26201
1943.99297	0.26128
1942.06440	0.26026
1940.13584	0.25820
1938.20728	0.25586
1936.27871	0.25414
1934.35015	0.25288
1932.42158	0.25174
1930.49302	0.25050
1928.56445	0.24925
1926.63589	0.24826
1924.70732	0.24789
1922.77876	0.24772
1920.85020	0.24688
1918.92163	0.24588
1916.99307	0.24480
1915.06450	0.24313
1913.13594	0.24172
1911.20737	0.24129
1909.27881	0.24110
1907.35024	0.24024
1905.42168	0.23902
1903.49312	0.23816
1901.56455	0.23754
1899.63599	0.23700
1897.70742	0.23674
1895.77886	0.23675
1893.85029	0.23659
1891.92173	0.23628
1889.99316	0.23636
1888.06460	0.23607
1886.13604	0.23513
1884.20747	0.23446
1882.27891	0.23419
1880.35034	0.23402
1878.42178	0.23389
1876.49321	0.23382
1874.56465	0.23387
1872.63608	0.23436
1870.70752	0.23580
1868.77896	0.23784
1866.85039	0.23803
1864.92183	0.23632
1862.99326	0.23518
1861.06470	0.23515
1859.13613	0.23555
1857.20757	0.23583
1855.27900	0.23611
1853.35044	0.23645
1851.42187	0.23706
1849.49331	0.23815
1847.56475	0.23979
1845.63618	0.24184
1843.70762	0.24331
1841.77905	0.24295
1839.85049	0.24220
1837.92192	0.24266
1835.99336	0.24363
1834.06479	0.24452
1832.13623	0.24605
1830.20767	0.24873
1828.27910	0.25073
1826.35054	0.25132
1824.42197	0.25199
1822.49341	0.25230
1820.56484	0.25259
1818.63628	0.25367
1816.70771	0.25537
1814.77915	0.25715
1812.85059	0.25938
1810.92202	0.26210
1808.99346	0.26417
1807.06489	0.26551
1805.13633	0.26706
1803.20776	0.26956
1801.27920	0.27286
1799.35063	0.27602
1797.42207	0.27835
1795.49351	0.28091
1793.56494	0.28460
1791.63638	0.28876
1789.70781	0.29097
1787.77925	0.29202
1785.85068	0.29467
1783.92212	0.29859
1781.99355	0.30289
1780.06499	0.30734
1778.13643	0.31153
1776.20786	0.31575
1774.27930	0.32136
1772.35073	0.32884
1770.42217	0.33488
1768.49360	0.33830
1766.56504	0.34172
1764.63647	0.34628
1762.70791	0.35263
1760.77935	0.36058
1758.85078	0.36734
1756.92222	0.37421
1754.99365	0.38170
1753.06509	0.38892
1751.13652	0.39882
1749.20796	0.41121
1747.27939	0.42154
1745.35083	0.42943
1743.42227	0.43819
1741.49370	0.44853
1739.56514	0.46080
1737.63657	0.47291
1735.70801	0.48431
1733.77944	0.50205
1731.85088	0.52099
1729.92231	0.53427
1727.99375	0.54801
1726.06519	0.56367
1724.13662	0.58183
1722.20806	0.60189
1720.27949	0.62110
1718.35093	0.64509
1716.42236	0.67922
1714.49380	0.70794
1712.56523	0.72973
1710.63667	0.75198
1708.70811	0.77738
1706.77954	0.80767
1704.85098	0.84422
1702.92241	0.87617
1700.99385	0.90813
1699.06528	0.95637
1697.13672	0.99966
1695.20815	1.04235
1693.27959	1.08350
1691.35103	1.11789
1689.42246	1.15967
1687.49390	1.20507
1685.56533	1.24981
1683.63677	1.31729
1681.70820	1.38393
1679.77964	1.42494
1677.85107	1.46524
1675.92251	1.51350
1673.99395	1.57380
1672.06538	1.62788
1670.13682	1.68278
1668.20825	1.75350
1666.27969	1.80946
1664.35112	1.85803
1662.42256	1.92147
1660.49399	1.99373
1658.56543	2.04956
1656.63687	2.09453
1654.70830	2.13679
1652.77974	2.20187
1650.85117	2.26002
1648.92261	2.27989
1646.99404	2.30619
1645.06548	2.33179
1643.13691	2.34531
1641.20835	2.35209
1639.27979	2.36006
1637.35122	2.36501
1635.42266	2.36235
1633.49409	2.35163
1631.56553	2.33599
1629.63696	2.31707
1627.70840	2.28544
1625.77983	2.24985
1623.85127	2.20662
1621.92271	2.15186
1619.99414	2.10254
1618.06558	2.05624
1616.13701	1.99079
1614.20845	1.92195
1612.27988	1.86853
1610.35132	1.81456
1608.42275	1.75758
1606.49419	1.70088
1604.56562	1.64798
1602.63706	1.59738
1600.70850	1.54827
1598.77993	1.50305
1596.85137	1.46125
1594.92280	1.42117
1592.99424	1.38232
1591.06567	1.34695
1589.13711	1.31413
1587.20854	1.28379
1585.27998	1.25632
1583.35142	1.23122
1581.42285	1.20859
1579.49429	1.19012
1577.56572	1.17520
1575.63716	1.15679
1573.70859	1.13885
1571.78003	1.12772
1569.85146	1.11817
1567.92290	1.10748
1565.99434	1.09952
1564.06577	1.09485
1562.13721	1.09271
1560.20864	1.09527
1558.28008	1.10404
1556.35151	1.10696
1554.42295	1.10629
1552.49438	1.10721
1550.56582	1.10784
1548.63726	1.10594
1546.70869	1.10132
1544.78013	1.09481
1542.85156	1.08634
1540.92300	1.07138
1538.99443	1.04010
1537.06587	1.01352
1535.13730	0.99655
1533.20874	0.97594
1531.28018	0.95334
1529.35161	0.93714
1527.42305	0.92316
1525.49448	0.90878
1523.56592	0.89670
1521.63735	0.88563
1519.70879	0.87322
1517.78022	0.86224
1515.85166	0.84915
1513.92310	0.83461
1511.99453	0.82286
1510.06597	0.81423
1508.13740	0.80745
1506.20884	0.79225
1504.28027	0.77417
1502.35171	0.76417
1500.42314	0.75725
1498.49458	0.75094
1496.56602	0.74304
1494.63745	0.73385
1492.70889	0.72723
1490.78032	0.72331
1488.85176	0.71835
1486.92319	0.71089
1484.99463	0.70429
1483.06606	0.70002
1481.13750	0.69727
1479.20894	0.69531
1477.28037	0.69473
1475.35181	0.69590
1473.42324	0.69791
1471.49468	0.69721
1469.56611	0.69338
1467.63755	0.69034
1465.70898	0.68921
1463.78042	0.68843
1461.85186	0.68745
1459.92329	0.68834
1457.99473	0.69188
1456.06616	0.69291
1454.13760	0.68827
1452.20903	0.68386
1450.28047	0.68086
1448.35190	0.67870
1446.42334	0.67595
1444.49478	0.67248
1442.56621	0.66939
1440.63765	0.66690
1438.70908	0.66508
1436.78052	0.66283
1434.85195	0.65869
1432.92339	0.65485
1430.99482	0.65285
1429.06626	0.65185
1427.13770	0.65131
1425.20913	0.65198
1423.28057	0.65352
1421.35200	0.65491
1419.42344	0.65652
1417.49487	0.65671
1415.56631	0.65446
1413.63774	0.65262
1411.70918	0.65224
1409.78062	0.65300
1407.85205	0.65455
1405.92349	0.65679
1403.99492	0.65872
1402.06636	0.65934
1400.13779	0.65959
1398.20923	0.65938
1396.28066	0.65751
1394.35210	0.65343
1392.42354	0.64792
1390.49497	0.64301
1388.56641	0.63904
1386.63784	0.63439
1384.70928	0.62848
1382.78071	0.62288
1380.85215	0.61825
1378.92358	0.61450
1376.99502	0.61182
1375.06646	0.61024
1373.13789	0.60873
1371.20933	0.60695
1369.28076	0.60563
1367.35220	0.60441
1365.42363	0.60319
1363.49507	0.60257
1361.56650	0.60149
1359.63794	0.59910
1357.70937	0.59696
1355.78081	0.59557
1353.85225	0.59438
1351.92368	0.59330
1349.99512	0.59257
1348.06655	0.59191
1346.13799	0.59111
1344.20942	0.59041
1342.28086	0.59029
1340.35229	0.59076
1338.42373	0.59064
1336.49517	0.58927
1334.56660	0.58781
1332.63804	0.58717
1330.70947	0.58736
1328.78091	0.58802
1326.85234	0.58879
1324.92378	0.58965
1322.99521	0.59071
1321.06665	0.59192
1319.13809	0.59306
1317.20952	0.59356
1315.28096	0.59347
1313.35239	0.59324
1311.42383	0.59273
1309.49526	0.59192
1307.56670	0.59121
1305.63813	0.59065
1303.70957	0.59006
1301.78101	0.58940
1299.85244	0.58860
1297.92388	0.58756
1295.99531	0.58639
1294.06675	0.58532
1292.13818	0.58424
1290.20962	0.58299
1288.28105	0.58165
1286.35249	0.58032
1284.42393	0.57904
1282.49536	0.57775
1280.56680	0.57634
1278.63823	0.57476
1276.70967	0.57326
1274.78110	0.57213
1272.85254	0.57149
1270.92397	0.57100
1268.99541	0.57031
1267.06685	0.56947
1265.13828	0.56848
1263.20972	0.56755
1261.28115	0.56688
1259.35259	0.56627
1257.42402	0.56560
1255.49546	0.56503
1253.56689	0.56468
1251.63833	0.56461
1249.70977	0.56475
1247.78120	0.56492
1245.85264	0.56491
1243.92407	0.56441
1241.99551	0.56339
1240.06694	0.56194
1238.13838	0.56015
1236.20981	0.55834
1234.28125	0.55634
1232.35269	0.55387
1230.42412	0.55144
1228.49556	0.54939
1226.56699	0.54745
1224.63843	0.54559
1222.70986	0.54384
1220.78130	0.54219
1218.85273	0.54061
1216.92417	0.53913
1214.99561	0.53790
1213.06704	0.53697
1211.13848	0.53619
1209.20991	0.53546
1207.28135	0.53483
1205.35278	0.53415
1203.42422	0.53326
1201.49565	0.53226
1199.56709	0.53135
1197.63853	0.53053
1195.70996	0.52976
1193.78140	0.52914
1191.85283	0.52865
1189.92427	0.52830
1187.99570	0.52808
1186.06714	0.52789
1184.13857	0.52789
1182.21001	0.52830
1180.28145	0.52911
1178.35288	0.53037
1176.42432	0.53203
1174.49575	0.53353
1172.56719	0.53435
1170.63862	0.53452
1168.71006	0.53433
1166.78149	0.53408
1164.85293	0.53398
1162.92437	0.53399
1160.99580	0.53394
1159.06724	0.53368
1157.13867	0.53308
1155.21011	0.53203
1153.28154	0.53060
1151.35298	0.52895
1149.42441	0.52694
1147.49585	0.52439
1145.56729	0.52160
1143.63872	0.51901
1141.71016	0.51678
1139.78159	0.51494
1137.85303	0.51360
1135.92446	0.51284
1133.99590	0.51259
1132.06733	0.51247
1130.13877	0.51216
1128.21021	0.51156
1126.28164	0.51077
1124.35308	0.51003
1122.42451	0.50954
1120.49595	0.50938
1118.56738	0.50954
1116.63882	0.50995
1114.71025	0.51044
1112.78169	0.51093
1110.85312	0.51158
1108.92456	0.51243
1106.99600	0.51338
1105.06743	0.51444
1103.13887	0.51561
1101.21030	0.51682
1099.28174	0.51836
1097.35317	0.52046
1095.42461	0.52311
1093.49604	0.52657
1091.56748	0.53125
1089.63892	0.53710
1087.71035	0.54371
1085.78179	0.55084
1083.85322	0.55810
1081.92466	0.56474
1079.99609	0.56992
1078.06753	0.57275
1076.13896	0.57275
1074.21040	0.56993
1072.28184	0.56497
1070.35327	0.55880
1068.42471	0.55168
1066.49614	0.54423
1064.56758	0.53762
1062.63901	0.53210
1060.71045	0.52731
1058.78188	0.52318
1056.85332	0.51950
1054.92476	0.51608
1052.99619	0.51300
1051.06763	0.51033
1049.13906	0.50827
1047.21050	0.50684
1045.28193	0.50572
1043.35337	0.50474
1041.42480	0.50390
1039.49624	0.50329
1037.56768	0.50299
1035.63911	0.50279
1033.71055	0.50240
1031.78198	0.50160
1029.85342	0.50042
1027.92485	0.49917
1025.99629	0.49814
1024.06772	0.49739
1022.13916	0.49700
1020.21060	0.49695
1018.28203	0.49708
1016.35347	0.49721
1014.42490	0.49740
1012.49634	0.49773
1010.56777	0.49797
1008.63921	0.49824
1006.71064	0.49915
1004.78208	0.50074
1002.85352	0.50273
1000.92495	0.50519
998.99639	0.50828
997.06782	0.51197
995.13926	0.51614
993.21069	0.52046
991.28213	0.52404
989.35356	0.52617
987.42500	0.52700
985.49644	0.52721
983.56787	0.52744
981.63931	0.52799
979.71074	0.52886
977.78218	0.53001
975.85361	0.53145
973.92505	0.53356
971.99648	0.53665
970.06792	0.54019
968.13936	0.54365
966.21079	0.54729
964.28223	0.55146
962.35366	0.55616
960.42510	0.56122
958.49653	0.56651
956.56797	0.57205
954.63940	0.57795
952.71084	0.58416
950.78228	0.59018
948.85371	0.59597
946.92515	0.60200
944.99658	0.60826
943.06802	0.61458
941.13945	0.62064
939.21089	0.62627
937.28232	0.63173
935.35376	0.63729
933.42520	0.64296
931.49663	0.64850
929.56807	0.65372
927.63950	0.65928
925.71094	0.66555
923.78237	0.67191
921.85381	0.67838
919.92524	0.68529
917.99668	0.69254
916.06812	0.70002
914.13955	0.70734
912.21099	0.71423
910.28242	0.72110
908.35386	0.72883
906.42529	0.73764
904.49673	0.74666
902.56816	0.75538
900.63960	0.76402
898.71104	0.77284
896.78247	0.78228
894.85391	0.79238
892.92534	0.80241
890.99678	0.81163
889.06821	0.82070
887.13965	0.83108
885.21108	0.84304
883.28252	0.85597
881.35396	0.86839
879.42539	0.87937
877.49683	0.88992
875.56826	0.90107
873.63970	0.91313
871.71113	0.92526
869.78257	0.93607
867.85400	0.94604
865.92544	0.95640
863.99687	0.96773
862.06831	0.97951
860.13975	0.99035
858.21118	1.00108
856.28262	1.01339
854.35405	1.02585
852.42549	1.03685
850.49692	1.04822
848.56836	1.06075
846.63979	1.07289
844.71123	1.08475
842.78267	1.09645
840.85410	1.10716
838.92554	1.11689
836.99697	1.12731
835.06841	1.13972
833.13984	1.15324
831.21128	1.16514
829.28271	1.17448
827.35415	1.18332
825.42559	1.19237
823.49702	1.20656
821.56846	1.22977
819.63989	1.25136
817.71133	1.26036
815.78276	1.26046
813.85420	1.26090
811.92563	1.26909
809.99707	1.28605
808.06851	1.30467
806.13994	1.31883
804.21138	1.32199
802.28281	1.31567
800.35425	1.31616
798.42568	1.32386
796.49712	1.31824
794.56855	1.30921
792.63999	1.33556
790.71143	1.40670
788.78286	1.47777
786.85430	1.48311
784.92573	1.44713
782.99717	1.43737
781.06860	1.45531
779.14004	1.44622
777.21147	1.41778
775.28291	1.43594
773.35435	1.53899
771.42578	1.58679
769.49722	1.40774
767.56865	1.29762
765.64009	1.32206
763.71152	1.34190
761.78296	1.29541
759.85439	1.31435
757.92583	1.44858
755.99727	1.56999
754.06870	1.56661
752.14014	1.49540
750.21157	1.28965
748.28301	1.14725
746.35444	1.18317
744.42588	1.36036
742.49731	1.39626
740.56875	1.15346
738.64019	1.00181
736.71162	0.96252
734.78306	1.02287
732.85449	2.98381
730.92593	4.38556
728.99736	4.37398
727.06880	0.80635
725.14023	0.59487
723.21167	0.63095
721.28311	0.62414
719.35454	0.46344
717.42598	0.34172
715.49741	0.24662
713.56885	0.19608
711.64028	0.16906
709.71172	0.04862
707.78315	-0.03404
705.85459	-0.01089
703.92603	0.09006
701.99746	0.23817
700.06890	0.32803
698.14033	0.28059
696.21177	0.17066
694.28320	0.07132
692.35464	0.16437
690.42607	0.54618
688.49751	0.82113
686.56895	0.49763
684.64038	0.41874
682.71182	0.47764
680.78325	0.54970
678.85469	0.59983
676.92612	0.66804
674.99756	0.80152
673.06899	0.86074
671.14043	0.58490
669.21187	0.39826
667.28330	0.28713
665.35474	0.23894
663.42617	0.26221
661.49761	0.28430
659.56904	0.22651
657.64048	0.18273
655.71191	0.21322
653.78335	0.34428
651.85479	0.37190
649.92622	0.14680
647.99766	0.07766
646.06909	0.15064
644.14053	0.35778
642.21196	0.83672
640.28340	0.59154
638.35483	0.34277
636.42627	0.31513
634.49771	0.42952
632.56914	0.53367
630.64058	0.45322
628.71201	0.40226
626.78345	0.47458
624.85488	0.51742
622.92632	0.42864
620.99775	0.28127
619.06919	0.12593
617.14062	0.06949
615.21206	0.12018
613.28350	0.21371
611.35493	0.36312
609.42637	0.45693
607.49780	0.36282
605.56924	0.29795
603.64067	0.36250
601.71211	0.50381
599.78354	0.44795
597.85498	0.28858
595.92642	0.20149
593.99785	0.19608
592.06929	0.31266
590.14072	0.55756
588.21216	0.47810
586.28359	0.31020
584.35503	0.25413
582.42646	0.20955
580.49790	0.20104
578.56934	0.26262
576.64077	0.26730
574.71221	0.23655
572.78364	0.28008
570.85508	0.29501
568.92651	0.19486
566.99795	0.14661
565.06938	0.17971
563.14082	0.26858
561.21226	0.33870
559.28369	0.27169
557.35513	0.21051
555.42656	0.24110
553.49800	0.36502
551.56943	0.59827
549.64087	0.63512
547.71230	0.41515
545.78374	0.36824
543.85518	0.47823
541.92661	0.51893
539.99805	0.36332
538.06948	0.27205
536.14092	0.23556
534.21235	0.23150
532.28379	0.28318
530.35522	0.33454
528.42666	0.33731
526.49810	0.38357
524.56953	0.51565
522.64097	0.67327
520.71240	0.59706
518.78384	0.35196
516.85527	0.22819
514.92671	0.24299
512.99814	0.35258
511.06958	0.42476
509.14102	0.28463
507.21245	0.14468
505.28389	0.11435
503.35532	0.14644
501.42676	0.18111
499.49819	0.18797
