3997.91411	0.07394
3995.98555	0.07423
3994.05698	0.07481
3992.12842	0.07512
3990.19985	0.07533
3988.27129	0.07575
3986.34272	0.07584
3984.41416	0.07559
3982.48560	0.07572
3980.55703	0.07609
3978.62847	0.07630
3976.69990	0.07653
3974.77134	0.07670
3972.84277	0.07666
3970.91421	0.07680
3968.98564	0.07722
3967.05708	0.07751
3965.12852	0.07756
3963.19995	0.07757
3961.27139	0.07761
3959.34282	0.07784
3957.41426	0.07826
3955.48569	0.07838
3953.55713	0.07789
3951.62856	0.07747
3949.70000	0.07761
3947.77144	0.07800
3945.84287	0.07846
3943.91431	0.07900
3941.98574	0.07930
3940.05718	0.07923
3938.12861	0.07896
3936.20005	0.07854
3934.27148	0.07816
3932.34292	0.07815
3930.41436	0.07846
3928.48579	0.07851
3926.55723	0.07815
3924.62866	0.07806
3922.70010	0.07834
3920.77153	0.07845
3918.84297	0.07832
3916.91440	0.07833
3914.98584	0.07839
3913.05728	0.07792
3911.12871	0.07718
3909.20015	0.07693
3907.27158	0.07747
3905.34302	0.07845
3903.41445	0.07945
3901.48589	0.07998
3899.55732	0.07979
3897.62876	0.07916
3895.70020	0.07859
3893.77163	0.07840
3891.84307	0.07878
3889.91450	0.07926
3887.98594	0.07904
3886.05737	0.07900
3884.12881	0.07972
3882.20024	0.08018
3880.27168	0.08005
3878.34312	0.07949
3876.41455	0.07910
3874.48599	0.07976
3872.55742	0.08091
3870.62886	0.08138
3868.70029	0.08146
3866.77173	0.08154
3864.84316	0.08195
3862.91460	0.08236
3860.98604	0.08191
3859.05747	0.08140
3857.12891	0.08158
3855.20034	0.08237
3853.27178	0.08407
3851.34321	0.08561
3849.41465	0.08499
3847.48608	0.08394
3845.55752	0.08361
3843.62896	0.08440
3841.70039	0.08625
3839.77183	0.08821
3837.84326	0.08949
3835.91470	0.08971
3833.98613	0.08931
3832.05757	0.08918
3830.12900	0.08944
3828.20044	0.08986
3826.27187	0.09070
3824.34331	0.09178
3822.41475	0.09287
3820.48618	0.09481
3818.55762	0.09638
3816.62905	0.09677
3814.70049	0.09717
3812.77192	0.09719
3810.84336	0.09730
3808.91479	0.09850
3806.98623	0.10073
3805.05767	0.10265
3803.12910	0.10353
3801.20054	0.10493
3799.27197	0.10682
3797.34341	0.10768
3795.41484	0.10810
3793.48628	0.10838
3791.55771	0.10883
3789.62915	0.10984
3787.70059	0.11095
3785.77202	0.11200
3783.84346	0.11341
3781.91489	0.11526
3779.98633	0.11751
3778.05776	0.11975
3776.12920	0.12099
3774.20063	0.12189
3772.27207	0.12347
3770.34351	0.12571
3768.41494	0.12799
3766.48638	0.12986
3764.55781	0.13187
3762.62925	0.13385
3760.70068	0.13583
3758.77212	0.13847
3756.84355	0.14115
3754.91499	0.14334
3752.98643	0.14590
3751.05786	0.14956
3749.12930	0.15344
3747.20073	0.15558
3745.27217	0.15743
3743.34360	0.16069
3741.41504	0.16390
3739.48647	0.16632
3737.55791	0.16935
3735.62935	0.17405
3733.70078	0.17972
3731.77222	0.18371
3729.84365	0.18636
3727.91509	0.18926
3725.98652	0.19383
3724.05796	0.20065
3722.12939	0.20869
3720.20083	0.21700
3718.27227	0.22512
3716.34370	0.23322
3714.41514	0.24134
3712.48657	0.25065
3710.55801	0.26337
3708.62944	0.27704
3706.70088	0.28842
3704.77231	0.29964
3702.84375	0.31307
3700.91519	0.33042
3698.98662	0.34930
3697.05806	0.36710
3695.12949	0.38581
3693.20093	0.40586
3691.27236	0.42821
3689.34380	0.45735
3687.41523	0.49276
3685.48667	0.52366
3683.55811	0.55033
3681.62954	0.57883
3679.70098	0.61075
3677.77241	0.64422
3675.84385	0.68364
3673.91528	0.73710
3671.98672	0.78133
3670.05815	0.82085
3668.12959	0.87565
3666.20103	0.92536
3664.27246	0.96612
3662.34390	1.01005
3660.41533	1.05802
3658.48677	1.10545
3656.55820	1.15536
3654.62964	1.21027
3652.70107	1.25631
3650.77251	1.29692
3648.84395	1.35350
3646.91538	1.42293
3644.98682	1.47392
3643.05825	1.51300
3641.12969	1.55291
3639.20112	1.59696
3637.27256	1.64106
3635.34399	1.68415
3633.41543	1.72806
3631.48687	1.76920
3629.55830	1.81001
3627.62974	1.86367
3625.70117	1.91509
3623.77261	1.94983
3621.84404	1.98212
3619.91548	2.01925
3617.98691	2.06572
3616.05835	2.11070
3614.12979	2.14736
3612.20122	2.18620
3610.27266	2.22579
3608.34409	2.26551
3606.41553	2.30838
3604.48696	2.34870
3602.55840	2.38416
3600.62983	2.42195
3598.70127	2.46303
3596.77271	2.50298
3594.84414	2.54371
3592.91558	2.58630
3590.98701	2.62606
3589.05845	2.66258
3587.12988	2.70657
3585.20132	2.75580
3583.27275	2.79671
3581.34419	2.83301
3579.41562	2.87179
3577.48706	2.91412
3575.55850	2.95805
3573.62993	3.00284
3571.70137	3.04581
3569.77280	3.08645
3567.84424	3.12910
3565.91567	3.18178
3563.98711	3.23378
3562.05854	3.27566
3560.12998	3.31635
3558.20142	3.35897
3556.27285	3.40329
3554.34429	3.44843
3552.41572	3.49552
3550.48716	3.54202
3548.55859	3.58508
3546.63003	3.62873
3544.70146	3.67772
3542.77290	3.72919
3540.84434	3.77810
3538.91577	3.82288
3536.98721	3.86477
3535.05864	3.91057
3533.13008	3.95881
3531.20151	4.00615
3529.27295	4.05550
3527.34438	4.10598
3525.41582	4.15425
3523.48726	4.20326
3521.55869	4.25465
3519.63013	4.30395
3517.70156	4.35130
3515.77300	4.39821
3513.84443	4.44692
3511.91587	4.49733
3509.98730	4.54589
3508.05874	4.59033
3506.13018	4.63312
3504.20161	4.67888
3502.27305	4.72805
3500.34448	4.77998
3498.41592	4.82841
3496.48735	4.87027
3494.55879	4.91794
3492.63022	4.97394
3490.70166	5.02608
3488.77310	5.07430
3486.84453	5.12179
3484.91597	5.16952
3482.98740	5.22048
3481.05884	5.26981
3479.13027	5.31043
3477.20171	5.34562
3475.27314	5.38898
3473.34458	5.44811
3471.41602	5.50428
3469.48745	5.54750
3467.55889	5.59519
3465.63032	5.64668
3463.70176	5.69002
3461.77319	5.73082
3459.84463	5.77972
3457.91606	5.83144
3455.98750	5.88232
3454.05894	5.93537
3452.13037	5.98584
3450.20181	6.03204
3448.27324	6.07752
3446.34468	6.13129
3444.41611	6.18488
3442.48755	6.22517
3440.55898	6.27085
3438.63042	6.33599
3436.70186	6.39584
3434.77329	6.44279
3432.84473	6.48835
3430.91616	6.53223
3428.98760	6.59285
3427.05903	6.66090
3425.13047	6.70677
3423.20190	6.73276
3421.27334	6.77206
3419.34478	6.83329
3417.41621	6.88359
3415.48765	6.90986
3413.55908	6.94209
3411.63052	7.00940
3409.70195	7.07505
3407.77339	7.11351
3405.84482	7.13497
3403.91626	7.15673
3401.98770	7.20310
3400.05913	7.26738
3398.13057	7.31161
3396.20200	7.33395
3394.27344	7.35519
3392.34487	7.34568
3390.41631	7.35894
3388.48774	7.44839
3386.55918	7.52305
3384.63062	7.53572
3382.70205	7.57856
3380.77349	7.65641
3378.84492	7.71527
3376.91636	7.75644
3374.98779	7.73771
3373.05923	7.69113
3371.13066	7.66520
3369.20210	7.66963
3367.27354	7.75102
3365.34497	7.89340
3363.41641	7.97860
3361.48784	7.97692
3359.55928	7.95175
3357.63071	7.92281
3355.70215	7.91127
3353.77358	7.89722
3351.84502	7.89088
3349.91646	7.92163
3347.98789	7.97219
3346.05933	7.99947
3344.13076	8.01290
3342.20220	8.03719
3340.27363	8.02497
3338.34507	8.00535
3336.41650	8.03498
3334.48794	8.08317
3332.55937	8.05017
3330.63081	7.98872
3328.70225	8.00704
3326.77368	8.07005
3324.84512	8.09232
3322.91655	8.03706
3320.98799	7.99886
3319.05942	8.02409
3317.13086	8.06533
3315.20229	8.08853
3313.27373	8.10659
3311.34517	8.14108
3309.41660	8.18080
3307.48804	8.22384
3305.55947	8.29084
3303.63091	8.36663
3301.70234	8.37819
3299.77378	8.28563
3297.84521	8.10898
3295.91665	8.00370
3293.98809	8.06748
3292.05952	8.20788
3290.13096	8.31884
3288.20239	8.34216
3286.27383	8.23351
3284.34526	8.11187
3282.41670	8.08802
3280.48813	8.09896
3278.55957	8.14536
3276.63101	8.21317
3274.70244	8.23358
3272.77388	8.25329
3270.84531	8.27825
3268.91675	8.31404
3266.98818	8.36148
3265.05962	8.32565
3263.13105	8.23569
3261.20249	8.20482
3259.27393	8.16805
3257.34536	8.07437
3255.41680	8.03698
3253.48823	8.10617
3251.55967	8.19032
3249.63110	8.18265
3247.70254	8.10351
3245.77397	8.05994
3243.84541	8.10190
3241.91685	8.19887
3239.98828	8.28956
3238.05972	8.24785
3236.13115	8.11860
3234.20259	8.06618
3232.27402	8.04579
3230.34546	7.99287
3228.41689	7.95235
3226.48833	7.91277
3224.55977	7.88866
3222.63120	7.93932
3220.70264	8.01427
3218.77407	8.00807
3216.84551	7.92116
3214.91694	7.90481
3212.98838	7.98307
3211.05981	7.99050
3209.13125	7.89340
3207.20269	7.77061
3205.27412	7.69517
3203.34556	7.70164
3201.41699	7.75107
3199.48843	7.76533
3197.55986	7.70685
3195.63130	7.64403
3193.70273	7.62428
3191.77417	7.61306
3189.84561	7.57987
3187.91704	7.52769
3185.98848	7.46237
3184.05991	7.40081
3182.13135	7.34995
3180.20278	7.28571
3178.27422	7.19568
3176.34565	7.10428
3174.41709	7.03840
3172.48853	6.98196
3170.55996	6.92049
3168.63140	6.86928
3166.70283	6.81935
3164.77427	6.76469
3162.84570	6.70402
3160.91714	6.61994
3158.98857	6.54118
3157.06001	6.49608
3155.13145	6.45585
3153.20288	6.39132
3151.27432	6.30380
3149.34575	6.21242
3147.41719	6.14652
3145.48862	6.10091
3143.56006	6.03966
3141.63149	5.96960
3139.70293	5.91522
3137.77437	5.86120
3135.84580	5.78448
3133.91724	5.69657
3131.98867	5.61600
3130.06011	5.54474
3128.13154	5.47974
3126.20298	5.41183
3124.27441	5.33402
3122.34585	5.25569
3120.41729	5.18898
3118.48872	5.12944
3116.56016	5.06731
3114.63159	4.99753
3112.70303	4.92260
3110.77446	4.85239
3108.84590	4.79050
3106.91733	4.73194
3104.98877	4.66634
3103.06021	4.59072
3101.13164	4.51680
3099.20308	4.45171
3097.27451	4.38780
3095.34595	4.32052
3093.41738	4.25483
3091.48882	4.19219
3089.56025	4.13111
3087.63169	4.07040
3085.70312	4.00783
3083.77456	3.94424
3081.84600	3.88411
3079.91743	3.82753
3077.98887	3.77044
3076.06030	3.71199
3074.13174	3.65298
3072.20317	3.59507
3070.27461	3.53976
3068.34604	3.48580
3066.41748	3.43162
3064.48892	3.37714
3062.56035	3.32254
3060.63179	3.26806
3058.70322	3.21444
3056.77466	3.16185
3054.84609	3.11001
3052.91753	3.05921
3050.98896	3.00888
3049.06040	2.95835
3047.13184	2.90871
3045.20327	2.86047
3043.27471	2.81287
3041.34614	2.76599
3039.41758	2.71998
3037.48901	2.67453
3035.56045	2.62999
3033.63188	2.58640
3031.70332	2.54265
3029.77476	2.49863
3027.84619	2.45547
3025.91763	2.41311
3023.98906	2.37084
3022.06050	2.32909
3020.13193	2.28843
3018.20337	2.24866
3016.27480	2.20943
3014.34624	2.17098
3012.41768	2.13355
3010.48911	2.09663
3008.56055	2.06013
3006.63198	2.02451
3004.70342	1.98945
3002.77485	1.95459
3000.84629	1.92032
2998.91772	1.88698
2996.98916	1.85461
2995.06060	1.82326
2993.13203	1.79297
2991.20347	1.76327
2989.27490	1.73377
2987.34634	1.70473
2985.41777	1.67643
2983.48921	1.64903
2981.56064	1.62224
2979.63208	1.59533
2977.70352	1.56868
2975.77495	1.54324
2973.84639	1.51896
2971.91782	1.49508
2969.98926	1.47107
2968.06069	1.44730
2966.13213	1.42403
2964.20356	1.40046
2962.27500	1.37646
2960.34644	1.35278
2958.41787	1.32954
2956.48931	1.30666
2954.56074	1.28407
2952.63218	1.26122
2950.70361	1.23795
2948.77505	1.21504
2946.84648	1.19307
2944.91792	1.17205
2942.98936	1.15184
2941.06079	1.13189
2939.13223	1.11161
2937.20366	1.09130
2935.27510	1.07149
2933.34653	1.05222
2931.41797	1.03328
2929.48940	1.01454
2927.56084	0.99618
2925.63228	0.97801
2923.70371	0.95991
2921.77515	0.94249
2919.84658	0.92555
2917.91802	0.90856
2915.98945	0.89180
2914.06089	0.87529
2912.13232	0.85914
2910.20376	0.84381
2908.27520	0.82917
2906.34663	0.81467
2904.41807	0.79998
2902.48950	0.78566
2900.56094	0.77220
2898.63237	0.75916
2896.70381	0.74623
2894.77524	0.73365
2892.84668	0.72131
2890.91812	0.70900
2888.98955	0.69716
2887.06099	0.68626
2885.13242	0.67616
2883.20386	0.66632
2881.27529	0.65649
2879.34673	0.64691
2877.41816	0.63755
2875.48960	0.62806
2873.56104	0.61820
2871.63247	0.60786
2869.70391	0.59720
2867.77534	0.58637
2865.84678	0.57531
2863.91821	0.56416
2861.98965	0.55310
2860.06108	0.54255
2858.13252	0.53298
2856.20396	0.52391
2854.27539	0.51486
2852.34683	0.50621
2850.41826	0.49806
2848.48970	0.48996
2846.56113	0.48177
2844.63257	0.47394
2842.70400	0.46680
2840.77544	0.46023
2838.84687	0.45388
2836.91831	0.44765
2834.98975	0.44167
2833.06118	0.43584
2831.13262	0.43002
2829.20405	0.42427
2827.27549	0.41861
2825.34692	0.41275
2823.41836	0.40658
2821.48979	0.40062
2819.56123	0.39509
2817.63267	0.38958
2815.70410	0.38396
2813.77554	0.37843
2811.84697	0.37306
2809.91841	0.36776
2807.98984	0.36242
2806.06128	0.35716
2804.13271	0.35224
2802.20415	0.34756
2800.27559	0.34280
2798.34702	0.33792
2796.41846	0.33310
2794.48989	0.32834
2792.56133	0.32377
2790.63276	0.31953
2788.70420	0.31535
2786.77563	0.31101
2784.84707	0.30678
2782.91851	0.30284
2780.98994	0.29896
2779.06138	0.29502
2777.13281	0.29117
2775.20425	0.28745
2773.27568	0.28375
2771.34712	0.27999
2769.41855	0.27638
2767.48999	0.27299
2765.56143	0.26959
2763.63286	0.26615
2761.70430	0.26286
2759.77573	0.25959
2757.84717	0.25623
2755.91860	0.25301
2753.99004	0.25002
2752.06147	0.24709
2750.13291	0.24417
2748.20435	0.24127
2746.27578	0.23844
2744.34722	0.23585
2742.41865	0.23339
2740.49009	0.23091
2738.56152	0.22841
2736.63296	0.22586
2734.70439	0.22328
2732.77583	0.22076
2730.84727	0.21835
2728.91870	0.21602
2726.99014	0.21376
2725.06157	0.21161
2723.13301	0.20952
2721.20444	0.20748
2719.27588	0.20550
2717.34731	0.20359
2715.41875	0.20169
2713.49019	0.19985
2711.56162	0.19808
2709.63306	0.19638
2707.70449	0.19480
2705.77593	0.19329
2703.84736	0.19170
2701.91880	0.19007
2699.99023	0.18854
2698.06167	0.18707
2696.13311	0.18570
2694.20454	0.18443
2692.27598	0.18321
2690.34741	0.18194
2688.41885	0.18059
2686.49028	0.17930
2684.56172	0.17816
2682.63315	0.17703
2680.70459	0.17587
2678.77603	0.17487
2676.84746	0.17397
2674.91890	0.17288
2672.99033	0.17164
2671.06177	0.17061
2669.13320	0.16974
2667.20464	0.16878
2665.27607	0.16784
2663.34751	0.16706
2661.41895	0.16629
2659.49038	0.16545
2657.56182	0.16463
2655.63325	0.16383
2653.70469	0.16316
2651.77612	0.16268
2649.84756	0.16221
2647.91899	0.16158
2645.99043	0.16090
2644.06187	0.16026
2642.13330	0.15958
2640.20474	0.15895
2638.27617	0.15849
2636.34761	0.15813
2634.41904	0.15773
2632.49048	0.15726
2630.56191	0.15676
2628.63335	0.15641
2626.70479	0.15624
2624.77622	0.15602
2622.84766	0.15565
2620.91909	0.15528
2618.99053	0.15500
2617.06196	0.15477
2615.13340	0.15455
2613.20483	0.15432
2611.27627	0.15410
2609.34771	0.15389
2607.41914	0.15366
2605.49058	0.15357
2603.56201	0.15368
2601.63345	0.15381
2599.70488	0.15387
2597.77632	0.15394
2595.84775	0.15405
2593.91919	0.15408
2591.99062	0.15401
2590.06206	0.15401
2588.13350	0.15412
2586.20493	0.15427
2584.27637	0.15447
2582.34780	0.15474
2580.41924	0.15502
2578.49067	0.15523
2576.56211	0.15545
2574.63354	0.15569
2572.70498	0.15591
2570.77642	0.15614
2568.84785	0.15649
2566.91929	0.15698
2564.99072	0.15745
2563.06216	0.15775
2561.13359	0.15800
2559.20503	0.15844
2557.27646	0.15905
2555.34790	0.15954
2553.41934	0.15983
2551.49077	0.16012
2549.56221	0.16059
2547.63364	0.16121
2545.70508	0.16190
2543.77651	0.16258
2541.84795	0.16318
2539.91938	0.16371
2537.99082	0.16417
2536.06226	0.16465
2534.13369	0.16532
2532.20513	0.16610
2530.27656	0.16685
2528.34800	0.16762
2526.41943	0.16835
2524.49087	0.16887
2522.56230	0.16928
2520.63374	0.16993
2518.70518	0.17078
2516.77661	0.17152
2514.84805	0.17222
2512.91948	0.17304
2510.99092	0.17386
2509.06235	0.17461
2507.13379	0.17538
2505.20522	0.17622
2503.27666	0.17709
2501.34810	0.17785
2499.41953	0.17857
2497.49097	0.17935
2495.56240	0.18016
2493.63384	0.18090
2491.70527	0.18162
2489.77671	0.18244
2487.84814	0.18333
2485.91958	0.18415
2483.99102	0.18488
2482.06245	0.18567
2480.13389	0.18657
2478.20532	0.18750
2476.27676	0.18843
2474.34819	0.18935
2472.41963	0.19025
2470.49106	0.19110
2468.56250	0.19185
2466.63394	0.19263
2464.70537	0.19352
2462.77681	0.19451
2460.84824	0.19557
2458.91968	0.19657
2456.99111	0.19750
2455.06255	0.19835
2453.13398	0.19917
2451.20542	0.20013
2449.27686	0.20114
2447.34829	0.20201
2445.41973	0.20280
2443.49116	0.20372
2441.56260	0.20479
2439.63403	0.20585
2437.70547	0.20678
2435.77690	0.20770
2433.84834	0.20870
2431.91978	0.20968
2429.99121	0.21069
2428.06265	0.21186
2426.13408	0.21304
2424.20552	0.21406
2422.27695	0.21508
2420.34839	0.21619
2418.41982	0.21733
2416.49126	0.21848
2414.56270	0.21959
2412.63413	0.22062
2410.70557	0.22163
2408.77700	0.22272
2406.84844	0.22384
2404.91987	0.22497
2402.99131	0.22620
2401.06274	0.22748
2399.13418	0.22868
2397.20562	0.22980
2395.27705	0.23089
2393.34849	0.23199
2391.41992	0.23315
2389.49136	0.23428
2387.56279	0.23518
2385.63423	0.23564
2383.70566	0.23536
2381.77710	0.23424
2379.84854	0.23252
2377.91997	0.23033
2375.99141	0.22759
2374.06284	0.22447
2372.13428	0.22104
2370.20571	0.21704
2368.27715	0.21259
2366.34858	0.20866
2364.42002	0.20580
2362.49146	0.20391
2360.56289	0.20303
2358.63433	0.20374
2356.70576	0.20752
2354.77720	0.21476
2352.84863	0.22360
2350.92007	0.23184
2348.99150	0.23711
2347.06294	0.23815
2345.13437	0.23550
2343.20581	0.23236
2341.27725	0.23216
2339.34868	0.23417
2337.42012	0.23662
2335.49155	0.23908
2333.56299	0.24187
2331.63442	0.24481
2329.70586	0.24763
2327.77729	0.25035
2325.84873	0.25330
2323.92017	0.25682
2321.99160	0.26064
2320.06304	0.26438
2318.13447	0.26840
2316.20591	0.27271
2314.27734	0.27657
2312.34878	0.27970
2310.42021	0.28265
2308.49165	0.28581
2306.56309	0.28912
2304.63452	0.29233
2302.70596	0.29527
2300.77739	0.29800
2298.84883	0.30059
2296.92026	0.30321
2294.99170	0.30592
2293.06313	0.30860
2291.13457	0.31112
2289.20601	0.31358
2287.27744	0.31610
2285.34888	0.31862
2283.42031	0.32095
2281.49175	0.32298
2279.56318	0.32482
2277.63462	0.32667
2275.70605	0.32867
2273.77749	0.33073
2271.84893	0.33274
2269.92036	0.33466
2267.99180	0.33661
2266.06323	0.33875
2264.13467	0.34093
2262.20610	0.34306
2260.27754	0.34531
2258.34897	0.34775
2256.42041	0.35011
2254.49185	0.35228
2252.56328	0.35440
2250.63472	0.35655
2248.70615	0.35876
2246.77759	0.36104
2244.84902	0.36339
2242.92046	0.36571
2240.99189	0.36784
2239.06333	0.36982
2237.13477	0.37194
2235.20620	0.37422
2233.27764	0.37654
2231.34907	0.37886
2229.42051	0.38111
2227.49194	0.38328
2225.56338	0.38546
2223.63481	0.38765
2221.70625	0.38979
2219.77769	0.39194
2217.84912	0.39411
2215.92056	0.39625
2213.99199	0.39838
2212.06343	0.40052
2210.13486	0.40270
2208.20630	0.40483
2206.27773	0.40689
2204.34917	0.40899
2202.42061	0.41108
2200.49204	0.41302
2198.56348	0.41490
2196.63491	0.41687
2194.70635	0.41883
2192.77778	0.42070
2190.84922	0.42265
2188.92065	0.42463
2186.99209	0.42641
2185.06353	0.42808
2183.13496	0.42980
2181.20640	0.43152
2179.27783	0.43320
2177.34927	0.43483
2175.42070	0.43632
2173.49214	0.43769
2171.56357	0.43906
2169.63501	0.44050
2167.70645	0.44190
2165.77788	0.44322
2163.84932	0.44448
2161.92075	0.44566
2159.99219	0.44671
2158.06362	0.44773
2156.13506	0.44871
2154.20649	0.44962
2152.27793	0.45048
2150.34937	0.45122
2148.42080	0.45192
2146.49224	0.45275
2144.56367	0.45348
2142.63511	0.45396
2140.70654	0.45424
2138.77798	0.45443
2136.84941	0.45468
2134.92085	0.45499
2132.99229	0.45516
2131.06372	0.45508
2129.13516	0.45486
2127.20659	0.45466
2125.27803	0.45445
2123.34946	0.45418
2121.42090	0.45386
2119.49233	0.45338
2117.56377	0.45272
2115.63521	0.45195
2113.70664	0.45117
2111.77808	0.45042
2109.84951	0.44959
2107.92095	0.44868
2105.99238	0.44769
2104.06382	0.44658
2102.13525	0.44540
2100.20669	0.44419
2098.27812	0.44284
2096.34956	0.44141
2094.42100	0.44004
2092.49243	0.43864
2090.56387	0.43705
2088.63530	0.43536
2086.70674	0.43370
2084.77817	0.43194
2082.84961	0.43009
2080.92104	0.42823
2078.99248	0.42629
2077.06392	0.42429
2075.13535	0.42231
2073.20679	0.42025
2071.27822	0.41805
2069.34966	0.41580
2067.42109	0.41355
2065.49253	0.41129
2063.56396	0.40896
2061.63540	0.40659
2059.70684	0.40426
2057.77827	0.40201
2055.84971	0.39967
2053.92114	0.39715
2051.99258	0.39456
2050.06401	0.39198
2048.13545	0.38942
2046.20688	0.38684
2044.27832	0.38425
2042.34976	0.38160
2040.42119	0.37901
2038.49263	0.37648
2036.56406	0.37382
2034.63550	0.37103
2032.70693	0.36825
2030.77837	0.36557
2028.84980	0.36286
2026.92124	0.36004
2024.99268	0.35729
2023.06411	0.35473
2021.13555	0.35217
2019.20698	0.34942
2017.27842	0.34656
2015.34985	0.34373
2013.42129	0.34102
2011.49272	0.33839
2009.56416	0.33577
2007.63560	0.33308
2005.70703	0.33040
2003.77847	0.32776
2001.84990	0.32518
1999.92134	0.32269
1997.99277	0.32013
1996.06421	0.31750
1994.13564	0.31502
1992.20708	0.31266
1990.27852	0.31016
1988.34995	0.30755
1986.42139	0.30501
1984.49282	0.30260
1982.56426	0.30025
1980.63569	0.29790
1978.70713	0.29559
1976.77856	0.29337
1974.85000	0.29123
1972.92144	0.28904
1970.99287	0.28681
1969.06431	0.28473
1967.13574	0.28289
1965.20718	0.28102
1963.27861	0.27900
1961.35005	0.27689
1959.42148	0.27480
1957.49292	0.27296
1955.56436	0.27133
1953.63579	0.26963
1951.70723	0.26782
1949.77866	0.26610
1947.85010	0.26448
1945.92153	0.26293
1943.99297	0.26156
1942.06440	0.26024
1940.13584	0.25869
1938.20728	0.25703
1936.27871	0.25549
1934.35015	0.25409
1932.42158	0.25285
1930.49302	0.25174
1928.56445	0.25069
1926.63589	0.24962
1924.70732	0.24859
1922.77876	0.24765
1920.85020	0.24671
1918.92163	0.24582
1916.99307	0.24495
1915.06450	0.24400
1913.13594	0.24299
1911.20737	0.24217
1909.27881	0.24155
1907.35024	0.24095
1905.42168	0.24021
1903.49312	0.23955
1901.56455	0.23902
1899.63599	0.23847
1897.70742	0.23798
1895.77886	0.23761
1893.85029	0.23728
1891.92173	0.23688
1889.99316	0.23657
1888.06460	0.23627
1886.13604	0.23595
1884.20747	0.23565
1882.27891	0.23536
1880.35034	0.23514
1878.42178	0.23503
1876.49321	0.23503
1874.56465	0.23503
1872.63608	0.23518
1870.70752	0.23556
1868.77896	0.23620
1866.85039	0.23648
1864.92183	0.23615
1862.99326	0.23591
1861.06470	0.23603
1859.13613	0.23639
1857.20757	0.23682
1855.27900	0.23733
1853.35044	0.23778
1851.42187	0.23827
1849.49331	0.23887
1847.56475	0.23951
1845.63618	0.24021
1843.70762	0.24120
1841.77905	0.24211
1839.85049	0.24264
1837.92192	0.24335
1835.99336	0.24419
1834.06479	0.24504
1832.13623	0.24593
1830.20767	0.24728
1828.27910	0.24890
1826.35054	0.25012
1824.42197	0.25132
1822.49341	0.25244
1820.56484	0.25353
1818.63628	0.25480
1816.70771	0.25642
1814.77915	0.25812
1812.85059	0.25990
1810.92202	0.26190
1808.99346	0.26395
1807.06489	0.26588
1805.13633	0.26774
1803.20776	0.26986
1801.27920	0.27230
1799.35063	0.27512
1797.42207	0.27765
1795.49351	0.27990
1793.56494	0.28241
1791.63638	0.28583
1789.70781	0.28939
1787.77925	0.29212
1785.85068	0.29517
1783.92212	0.29875
1781.99355	0.30262
1780.06499	0.30678
1778.13643	0.31114
1776.20786	0.31521
1774.27930	0.31951
1772.35073	0.32529
1770.42217	0.33149
1768.49360	0.33665
1766.56504	0.34164
1764.63647	0.34680
1762.70791	0.35254
1760.77935	0.35994
1758.85078	0.36690
1756.92222	0.37383
1754.99365	0.38141
1753.06509	0.38827
1751.13652	0.39643
1749.20796	0.40691
1747.27939	0.41741
1745.35083	0.42655
1743.42227	0.43609
1741.49370	0.44654
1739.56514	0.45892
1737.63657	0.47135
1735.70801	0.48203
1733.77944	0.49797
1731.85088	0.51731
1729.92231	0.53281
1727.99375	0.54868
1726.06519	0.56560
1724.13662	0.58382
1722.20806	0.60341
1720.27949	0.62146
1718.35093	0.64263
1716.42236	0.67411
1714.49380	0.70422
1712.56523	0.72874
1710.63667	0.75254
1708.70811	0.77803
1706.77954	0.80693
1704.85098	0.84180
1702.92241	0.87315
1700.99385	0.90411
1699.06528	0.95064
1697.13672	0.99371
1695.20815	1.03814
1693.27959	1.08179
1691.35103	1.11711
1689.42246	1.15806
1687.49390	1.20162
1685.56533	1.24325
1683.63677	1.30743
1681.70820	1.37550
1679.77964	1.41946
1677.85107	1.46086
1675.92251	1.50817
1673.99395	1.56715
1672.06538	1.62002
1670.13682	1.67233
1668.20825	1.74132
1666.27969	1.79776
1664.35112	1.84631
1662.42256	1.90957
1660.49399	1.98221
1658.56543	2.03773
1656.63687	2.08087
1654.70830	2.11797
1652.77974	2.17514
1650.85117	2.23427
1648.92261	2.25654
1646.99404	2.28210
1645.06548	2.30942
1643.13691	2.32716
1641.20835	2.33713
1639.27979	2.34608
1637.35122	2.34900
1635.42266	2.34302
1633.49409	2.33408
1631.56553	2.32181
1629.63696	2.30500
1627.70840	2.27469
1625.77983	2.23910
1623.85127	2.19624
1621.92271	2.14331
1619.99414	2.09478
1618.06558	2.04727
1616.13701	1.98088
1614.20845	1.91433
1612.27988	1.86336
1610.35132	1.80943
1608.42275	1.75131
1606.49419	1.69459
1604.56562	1.64231
1602.63706	1.59186
1600.70850	1.54268
1598.77993	1.49739
1596.85137	1.45492
1594.92280	1.41400
1592.99424	1.37508
1591.06567	1.34000
1589.13711	1.30740
1587.20854	1.27706
1585.27998	1.24921
1583.35142	1.22359
1581.42285	1.20067
1579.49429	1.18145
1577.56572	1.16461
1575.63716	1.14468
1573.70859	1.12713
1571.78003	1.11589
1569.85146	1.10529
1567.92290	1.09438
1565.99434	1.08686
1564.06577	1.08206
1562.13721	1.07879
1560.20864	1.07756
1558.28008	1.08039
1556.35151	1.08441
1554.42295	1.08647
1552.49438	1.08847
1550.56582	1.08894
1548.63726	1.08677
1546.70869	1.08191
1544.78013	1.07371
1542.85156	1.06161
1540.92300	1.04300
1538.99443	1.01493
1537.06587	0.99484
1535.13730	0.98059
1533.20874	0.96081
1531.28018	0.93949
1529.35161	0.92411
1527.42305	0.90965
1525.49448	0.89452
1523.56592	0.88180
1521.63735	0.87010
1519.70879	0.85830
1517.78022	0.84830
1515.85166	0.83661
1513.92310	0.82395
1511.99453	0.81265
1510.06597	0.80251
1508.13740	0.79286
1506.20884	0.77770
1504.28027	0.76449
1502.35171	0.75715
1500.42314	0.75064
1498.49458	0.74365
1496.56602	0.73572
1494.63745	0.72800
1492.70889	0.72198
1490.78032	0.71652
1488.85176	0.71010
1486.92319	0.70404
1484.99463	0.69938
1483.06606	0.69573
1481.13750	0.69266
1479.20894	0.69029
1477.28037	0.68889
1475.35181	0.68825
1473.42324	0.68822
1471.49468	0.68770
1469.56611	0.68575
1467.63755	0.68327
1465.70898	0.68118
1463.78042	0.67988
1461.85186	0.67924
1459.92329	0.67914
1457.99473	0.67966
1456.06616	0.67956
1454.13760	0.67747
1452.20903	0.67495
1450.28047	0.67242
1448.35190	0.66997
1446.42334	0.66765
1444.49478	0.66551
1442.56621	0.66331
1440.63765	0.66079
1438.70908	0.65813
1436.78052	0.65484
1434.85195	0.65087
1432.92339	0.64780
1430.99482	0.64581
1429.06626	0.64460
1427.13770	0.64417
1425.20913	0.64437
1423.28057	0.64496
1421.35200	0.64553
1419.42344	0.64604
1417.49487	0.64620
1415.56631	0.64545
1413.63774	0.64466
1411.70918	0.64466
1409.78062	0.64572
1407.85205	0.64742
1405.92349	0.64938
1403.99492	0.65108
1402.06636	0.65170
1400.13779	0.65125
1398.20923	0.64990
1396.28066	0.64762
1394.35210	0.64419
1392.42354	0.63994
1390.49497	0.63572
1388.56641	0.63149
1386.63784	0.62668
1384.70928	0.62153
1382.78071	0.61662
1380.85215	0.61206
1378.92358	0.60807
1376.99502	0.60486
1375.06646	0.60249
1373.13789	0.60076
1371.20933	0.59953
1369.28076	0.59856
1367.35220	0.59735
1365.42363	0.59585
1363.49507	0.59435
1361.56650	0.59290
1359.63794	0.59147
1357.70937	0.59017
1355.78081	0.58901
1353.85225	0.58798
1351.92368	0.58718
1349.99512	0.58665
1348.06655	0.58623
1346.13799	0.58562
1344.20942	0.58481
1342.28086	0.58406
1340.35229	0.58346
1338.42373	0.58285
1336.49517	0.58239
1334.56660	0.58225
1332.63804	0.58225
1330.70947	0.58241
1328.78091	0.58284
1326.85234	0.58347
1324.92378	0.58420
1322.99521	0.58499
1321.06665	0.58567
1319.13809	0.58604
1317.20952	0.58611
1315.28096	0.58609
1313.35239	0.58610
1311.42383	0.58594
1309.49526	0.58553
1307.56670	0.58523
1305.63813	0.58510
1303.70957	0.58477
1301.78101	0.58416
1299.85244	0.58332
1297.92388	0.58222
1295.99531	0.58101
1294.06675	0.57990
1292.13818	0.57876
1290.20962	0.57747
1288.28105	0.57616
1286.35249	0.57502
1284.42393	0.57405
1282.49536	0.57305
1280.56680	0.57185
1278.63823	0.57045
1276.70967	0.56912
1274.78110	0.56803
1272.85254	0.56710
1270.92397	0.56627
1268.99541	0.56553
1267.06685	0.56484
1265.13828	0.56420
1263.20972	0.56342
1261.28115	0.56246
1259.35259	0.56164
1257.42402	0.56101
1255.49546	0.56057
1253.56689	0.56044
1251.63833	0.56060
1249.70977	0.56087
1247.78120	0.56097
1245.85264	0.56079
1243.92407	0.56027
1241.99551	0.55934
1240.06694	0.55805
1238.13838	0.55649
1236.20981	0.55459
1234.28125	0.55240
1232.35269	0.55024
1230.42412	0.54821
1228.49556	0.54618
1226.56699	0.54420
1224.63843	0.54247
1222.70986	0.54099
1220.78130	0.53967
1218.85273	0.53843
1216.92417	0.53729
1214.99561	0.53620
1213.06704	0.53509
1211.13848	0.53410
1209.20991	0.53335
1207.28135	0.53266
1205.35278	0.53182
1203.42422	0.53084
1201.49565	0.52982
1199.56709	0.52891
1197.63853	0.52815
1195.70996	0.52758
1193.78140	0.52722
1191.85283	0.52694
1189.92427	0.52651
1187.99570	0.52609
1186.06714	0.52600
1184.13857	0.52618
1182.21001	0.52653
1180.28145	0.52716
1178.35288	0.52817
1176.42432	0.52945
1174.49575	0.53065
1172.56719	0.53138
1170.63862	0.53142
1168.71006	0.53098
1166.78149	0.53048
1164.85293	0.52997
1162.92437	0.52931
1160.99580	0.52855
1159.06724	0.52780
1157.13867	0.52694
1155.21011	0.52583
1153.28154	0.52439
1151.35298	0.52258
1149.42441	0.52048
1147.49585	0.51823
1145.56729	0.51599
1143.63872	0.51378
1141.71016	0.51158
1139.78159	0.50956
1137.85303	0.50781
1135.92446	0.50629
1133.99590	0.50504
1132.06733	0.50407
1130.13877	0.50326
1128.21021	0.50239
1126.28164	0.50140
1124.35308	0.50037
1122.42451	0.49938
1120.49595	0.49872
1118.56738	0.49859
1116.63882	0.49857
1114.71025	0.49845
1112.78169	0.49867
1110.85312	0.49939
1108.92456	0.50020
1106.99600	0.50096
1105.06743	0.50220
1103.13887	0.50398
1101.21030	0.50570
1099.28174	0.50744
1097.35317	0.50975
1095.42461	0.51260
1093.49604	0.51584
1091.56748	0.51973
1089.63892	0.52437
1087.71035	0.52956
1085.78179	0.53545
1083.85322	0.54191
1081.92466	0.54805
1079.99609	0.55311
1078.06753	0.55655
1076.13896	0.55758
1074.21040	0.55570
1072.28184	0.55111
1070.35327	0.54484
1068.42471	0.53814
1066.49614	0.53160
1064.56758	0.52542
1062.63901	0.51984
1060.71045	0.51478
1058.78188	0.51006
1056.85332	0.50576
1054.92476	0.50184
1052.99619	0.49831
1051.06763	0.49543
1049.13906	0.49322
1047.21050	0.49143
1045.28193	0.48956
1043.35337	0.48754
1041.42480	0.48581
1039.49624	0.48448
1037.56768	0.48351
1035.63911	0.48304
1033.71055	0.48299
1031.78198	0.48301
1029.85342	0.48294
1027.92485	0.48296
1025.99629	0.48304
1024.06772	0.48307
1022.13916	0.48326
1020.21060	0.48385
1018.28203	0.48473
1016.35347	0.48571
1014.42490	0.48663
1012.49634	0.48742
1010.56777	0.48851
1008.63921	0.49008
1006.71064	0.49177
1004.78208	0.49347
1002.85352	0.49564
1000.92495	0.49856
998.99639	0.50182
997.06782	0.50525
995.13926	0.50917
993.21069	0.51327
991.28213	0.51686
989.35356	0.51964
987.42500	0.52148
985.49644	0.52243
983.56787	0.52305
981.63931	0.52387
979.71074	0.52504
977.78218	0.52665
975.85361	0.52879
973.92505	0.53149
971.99648	0.53461
970.06792	0.53792
968.13936	0.54148
966.21079	0.54545
964.28223	0.54984
962.35366	0.55452
960.42510	0.55955
958.49653	0.56486
956.56797	0.57020
954.63940	0.57598
952.71084	0.58245
950.78228	0.58910
948.85371	0.59545
946.92515	0.60151
944.99658	0.60754
943.06802	0.61361
941.13945	0.61953
939.21089	0.62523
937.28232	0.63084
935.35376	0.63657
933.42520	0.64258
931.49663	0.64834
929.56807	0.65370
927.63950	0.65932
925.71094	0.66526
923.78237	0.67098
921.85381	0.67663
919.92524	0.68311
917.99668	0.69046
916.06812	0.69771
914.13955	0.70463
912.21099	0.71212
910.28242	0.72075
908.35386	0.72943
906.42529	0.73693
904.49673	0.74429
902.56816	0.75303
900.63960	0.76264
898.71104	0.77215
896.78247	0.78154
894.85391	0.79104
892.92534	0.80095
890.99678	0.81134
889.06821	0.82224
887.13965	0.83330
885.21108	0.84423
883.28252	0.85615
881.35396	0.86840
879.42539	0.87954
877.49683	0.89076
875.56826	0.90223
873.63970	0.91316
871.71113	0.92381
869.78257	0.93445
867.85400	0.94557
865.92544	0.95754
863.99687	0.97014
862.06831	0.98276
860.13975	0.99437
858.21118	1.00451
856.28262	1.01440
854.35405	1.02558
852.42549	1.03757
850.49692	1.04946
848.56836	1.06176
846.63979	1.07469
844.71123	1.08781
842.78267	1.09942
840.85410	1.10890
838.92554	1.11818
836.99697	1.12733
835.06841	1.13771
833.13984	1.15252
831.21128	1.16810
829.28271	1.18018
827.35415	1.18947
825.42559	1.19887
823.49702	1.21312
821.56846	1.22959
819.63989	1.24368
817.71133	1.25492
815.78276	1.26261
813.85420	1.26900
811.92563	1.27267
809.99707	1.27044
808.06851	1.27412
806.13994	1.29431
804.21138	1.31761
802.28281	1.33926
800.35425	1.36964
798.42568	1.38740
796.49712	1.38036
794.56855	1.39143
792.63999	1.43606
790.71143	1.47026
788.78286	1.43780
786.85430	1.37318
784.92573	1.38237
782.99717	1.49109
781.06860	1.64724
779.14004	1.72970
777.21147	1.60266
775.28291	1.47512
773.35435	1.44184
771.42578	1.41413
769.49722	1.34800
767.56865	1.31654
765.64009	1.33592
763.71152	1.37887
761.78296	1.44687
759.85439	1.52540
757.92583	1.51346
755.99727	1.37305
754.06870	1.28714
752.14014	1.37203
750.21157	1.75441
748.28301	2.10874
746.35444	1.75363
744.42588	1.74337
742.49731	1.94410
740.56875	4.44341
738.64019	4.43184
736.71162	1.43896
734.78306	0.82930
732.85449	0.65421
730.92593	0.61870
728.99736	0.63222
727.06880	0.66027
725.14023	0.70841
723.21167	0.77286
721.28311	0.75410
719.35454	0.67502
717.42598	0.61017
715.49741	0.48163
713.56885	0.38882
711.64028	0.40160
709.71172	0.37636
707.78315	0.30277
705.85459	0.29955
703.92603	0.51501
701.99746	0.76468
700.06890	0.79795
698.14033	0.68566
696.21177	0.49771
694.28320	0.44342
692.35464	0.45757
690.42607	0.41256
688.49751	0.33911
686.56895	0.29061
684.64038	0.27701
682.71182	0.31290
680.78325	0.39241
678.85469	0.43034
676.92612	0.37154
674.99756	0.36292
673.06899	0.42118
671.14043	0.46359
669.21187	0.53472
667.28330	0.72283
665.35474	1.31047
663.42617	0.99668
661.49761	0.46271
659.56904	0.35090
657.64048	0.51854
655.71191	0.65377
653.78335	0.35371
651.85479	0.23335
649.92622	0.28281
647.99766	0.35442
646.06909	0.35600
644.14053	0.30236
642.21196	0.27019
640.28340	0.25136
638.35483	0.28685
636.42627	0.46234
634.49771	0.90446
632.56914	1.11105
630.64058	0.54581
628.71201	0.39562
626.78345	0.40806
624.85488	0.56810
622.92632	0.79137
620.99775	0.60819
619.06919	0.36939
617.14062	0.28122
615.21206	0.28784
613.28350	0.27457
611.35493	0.23879
609.42637	0.25305
607.49780	0.33327
605.56924	0.44866
603.64067	0.53059
601.71211	0.53358
599.78354	0.48836
597.85498	0.36710
595.92642	0.28240
593.99785	0.28664
592.06929	0.36373
590.14072	0.49437
588.21216	0.74372
586.28359	3.51770
584.35503	0.96704
582.42646	0.48433
580.49790	0.34788
578.56934	0.33547
576.64077	0.41556
574.71221	0.46895
572.78364	0.39264
570.85508	0.32521
568.92651	0.38631
566.99795	0.47479
565.06938	0.41478
563.14082	0.28841
561.21226	0.23397
559.28369	0.25522
557.35513	0.25399
555.42656	0.14651
553.49800	0.08271
551.56943	0.13571
549.64087	0.22293
547.71230	0.22452
545.78374	0.15032
543.85518	0.14026
541.92661	0.27892
539.99805	0.43032
538.06948	0.37169
536.14092	0.29042
534.21235	0.26272
532.28379	0.24651
530.35522	0.26196
528.42666	0.30595
526.49810	0.29866
524.56953	0.26895
522.64097	0.26694
520.71240	0.28234
518.78384	0.29688
516.85527	0.32583
514.92671	0.41960
512.99814	0.47391
511.06958	0.37182
509.14102	0.25721
507.21245	0.19116
505.28389	0.18481
503.35532	0.18597
501.42676	0.16730
499.49819	0.17501
