3997.91411	0.07555
3995.98555	0.07587
3994.05698	0.07636
3992.12842	0.07722
3990.19985	0.07788
3988.27129	0.07790
3986.34272	0.07788
3984.41416	0.07830
3982.48560	0.07859
3980.55703	0.07858
3978.62847	0.07861
3976.69990	0.07882
3974.77134	0.07913
3972.84277	0.07933
3970.91421	0.07941
3968.98564	0.07955
3967.05708	0.07971
3965.12852	0.07976
3963.19995	0.07987
3961.27139	0.08014
3959.34282	0.08057
3957.41426	0.08092
3955.48569	0.08081
3953.55713	0.08058
3951.62856	0.08112
3949.70000	0.08234
3947.77144	0.08303
3945.84287	0.08258
3943.91431	0.08222
3941.98574	0.08258
3940.05718	0.08231
3938.12861	0.08139
3936.20005	0.08102
3934.27148	0.08159
3932.34292	0.08279
3930.41436	0.08358
3928.48579	0.08323
3926.55723	0.08278
3924.62866	0.08317
3922.70010	0.08320
3920.77153	0.08248
3918.84297	0.08258
3916.91440	0.08323
3914.98584	0.08264
3913.05728	0.08102
3911.12871	0.07990
3909.20015	0.07977
3907.27158	0.08070
3905.34302	0.08318
3903.41445	0.08645
3901.48589	0.08796
3899.55732	0.08738
3897.62876	0.08579
3895.70020	0.08400
3893.77163	0.08355
3891.84307	0.08488
3889.91450	0.08557
3887.98594	0.08447
3886.05737	0.08420
3884.12881	0.08501
3882.20024	0.08548
3880.27168	0.08568
3878.34312	0.08486
3876.41455	0.08407
3874.48599	0.08544
3872.55742	0.08821
3870.62886	0.09053
3868.70029	0.09104
3866.77173	0.08992
3864.84316	0.09016
3862.91460	0.09099
3860.98604	0.08948
3859.05747	0.08781
3857.12891	0.08853
3855.20034	0.09175
3853.27178	0.09683
3851.34321	0.09828
3849.41465	0.09403
3847.48608	0.09045
3845.55752	0.08941
3843.62896	0.09056
3841.70039	0.09323
3839.77183	0.09720
3837.84326	0.10112
3835.91470	0.10129
3833.98613	0.09875
3832.05757	0.09694
3830.12900	0.09584
3828.20044	0.09552
3826.27187	0.09684
3824.34331	0.09893
3822.41475	0.10166
3820.48618	0.10576
3818.55762	0.10721
3816.62905	0.10608
3814.70049	0.10494
3812.77192	0.10296
3810.84336	0.10179
3808.91479	0.10293
3806.98623	0.10621
3805.05767	0.10958
3803.12910	0.11207
3801.20054	0.11499
3799.27197	0.11615
3797.34341	0.11521
3795.41484	0.11414
3793.48628	0.11251
3791.55771	0.11176
3789.62915	0.11283
3787.70059	0.11472
3785.77202	0.11710
3783.84346	0.11945
3781.91489	0.12082
3779.98633	0.12243
3778.05776	0.12464
3776.12920	0.12538
3774.20063	0.12556
3772.27207	0.12743
3770.34351	0.13121
3768.41494	0.13483
3766.48638	0.13671
3764.55781	0.13815
3762.62925	0.13949
3760.70068	0.14176
3758.77212	0.14597
3756.84355	0.14952
3754.91499	0.15126
3752.98643	0.15449
3751.05786	0.16149
3749.12930	0.16881
3747.20073	0.17126
3745.27217	0.17265
3743.34360	0.17559
3741.41504	0.17826
3739.48647	0.18121
3737.55791	0.18653
3735.62935	0.19480
3733.70078	0.20273
3731.77222	0.20598
3729.84365	0.20735
3727.91509	0.21017
3725.98652	0.21560
3724.05796	0.22251
3722.12939	0.22896
3720.20083	0.23486
3718.27227	0.24020
3716.34370	0.24573
3714.41514	0.25300
3712.48657	0.26456
3710.55801	0.28159
3708.62944	0.29658
3706.70088	0.30610
3704.77231	0.31578
3702.84375	0.32880
3700.91519	0.34603
3698.98662	0.36416
3697.05806	0.38130
3695.12949	0.40016
3693.20093	0.42106
3691.27236	0.44498
3689.34380	0.47553
3687.41523	0.50976
3685.48667	0.53771
3683.55811	0.56224
3681.62954	0.59009
3679.70098	0.62301
3677.77241	0.65880
3675.84385	0.70122
3673.91528	0.75627
3671.98672	0.79983
3670.05815	0.83860
3668.12959	0.89131
3666.20103	0.93799
3664.27246	0.97701
3662.34390	1.02033
3660.41533	1.06844
3658.48677	1.11634
3656.55820	1.16738
3654.62964	1.22396
3652.70107	1.27121
3650.77251	1.31366
3648.84395	1.37395
3646.91538	1.44498
3644.98682	1.49273
3643.05825	1.52911
3641.12969	1.56870
3639.20112	1.61367
3637.27256	1.65936
3635.34399	1.70443
3633.41543	1.74989
3631.48687	1.79250
3629.55830	1.83529
3627.62974	1.89009
3625.70117	1.94029
3623.77261	1.97388
3621.84404	2.00697
3619.91548	2.04586
3617.98691	2.09198
3616.05835	2.13442
3614.12979	2.16947
3612.20122	2.20851
3610.27266	2.24928
3608.34409	2.29043
3606.41553	2.33396
3604.48696	2.37267
3602.55840	2.40615
3600.62983	2.44385
3598.70127	2.48602
3596.77271	2.52698
3594.84414	2.56824
3592.91558	2.61010
3590.98701	2.64846
3589.05845	2.68418
3587.12988	2.72922
3585.20132	2.77941
3583.27275	2.81804
3581.34419	2.85260
3579.41562	2.89254
3577.48706	2.93586
3575.55850	2.97840
3573.62993	3.02081
3571.70137	3.06130
3569.77280	3.10009
3567.84424	3.14265
3565.91567	3.19726
3563.98711	3.25119
3562.05854	3.29316
3560.12998	3.33325
3558.20142	3.37529
3556.27285	3.41835
3554.34429	3.46222
3552.41572	3.50928
3550.48716	3.55615
3548.55859	3.59872
3546.63003	3.64157
3544.70146	3.69047
3542.77290	3.74144
3540.84434	3.78812
3538.91577	3.83250
3536.98721	3.87819
3535.05864	3.92764
3533.13008	3.97631
3531.20151	4.02113
3529.27295	4.06643
3527.34438	4.11633
3525.41582	4.16531
3523.48726	4.20939
3521.55869	4.25577
3519.63013	4.30572
3517.70156	4.35540
3515.77300	4.40286
3513.84443	4.44878
3511.91587	4.49440
3509.98730	4.54092
3508.05874	4.58873
3506.13018	4.63797
3504.20161	4.68816
3502.27305	4.73844
3500.34448	4.78889
3498.41592	4.83730
3496.48735	4.88574
3494.55879	4.93623
3492.63022	4.98655
3490.70166	5.03849
3488.77310	5.09192
3486.84453	5.13998
3484.91597	5.17893
3482.98740	5.21687
3481.05884	5.26469
3479.13027	5.31596
3477.20171	5.36193
3475.27314	5.41256
3473.34458	5.47388
3471.41602	5.52844
3469.48745	5.56419
3467.55889	5.60376
3465.63032	5.66083
3463.70176	5.71172
3461.77319	5.74157
3459.84463	5.77252
3457.91606	5.82347
3455.98750	5.88711
3454.05894	5.94479
3452.13037	5.99128
3450.20181	6.04251
3448.27324	6.10204
3446.34468	6.16068
3444.41611	6.21087
3442.48755	6.25607
3440.55898	6.30417
3438.63042	6.35290
3436.70186	6.40132
3434.77329	6.45193
3432.84473	6.49792
3430.91616	6.54028
3428.98760	6.58533
3427.05903	6.62906
3425.13047	6.68201
3423.20190	6.74771
3421.27334	6.81119
3419.34478	6.85045
3417.41621	6.88590
3415.48765	6.94706
3413.55908	7.01760
3411.63052	7.08591
3409.70195	7.13742
3407.77339	7.16900
3405.84482	7.18438
3403.91626	7.20157
3401.98770	7.22149
3400.05913	7.23597
3398.13057	7.28285
3396.20200	7.36540
3394.27344	7.42392
3392.34487	7.43201
3390.41631	7.44509
3388.48774	7.48552
3386.55918	7.54724
3384.63062	7.60532
3382.70205	7.61934
3380.77349	7.57640
3378.84492	7.51260
3376.91636	7.50824
3374.98779	7.58341
3373.05923	7.68477
3371.13066	7.75024
3369.20210	7.82363
3367.27354	7.91852
3365.34497	7.93145
3363.41641	7.85075
3361.48784	7.81357
3359.55928	7.90128
3357.63071	8.00625
3355.70215	8.01576
3353.77358	7.96339
3351.84502	7.96688
3349.91646	8.04358
3347.98789	8.09572
3346.05933	8.08583
3344.13076	8.08043
3342.20220	8.12632
3340.27363	8.16796
3338.34507	8.15750
3336.41650	8.11190
3334.48794	8.09396
3332.55937	8.10988
3330.63081	8.13597
3328.70225	8.16690
3326.77368	8.18598
3324.84512	8.16488
3322.91655	8.11362
3320.98799	8.10582
3319.05942	8.10882
3317.13086	8.07056
3315.20229	8.03944
3313.27373	8.05768
3311.34517	8.06564
3309.41660	8.05207
3307.48804	8.09515
3305.55947	8.16166
3303.63091	8.18779
3301.70234	8.14374
3299.77378	8.07328
3297.84521	8.06052
3295.91665	8.08364
3293.98809	8.09484
3292.05952	8.12033
3290.13096	8.11351
3288.20239	8.07776
3286.27383	8.14551
3284.34526	8.22829
3282.41670	8.15176
3280.48813	8.07567
3278.55957	8.16332
3276.63101	8.27958
3274.70244	8.30469
3272.77388	8.30262
3270.84531	8.29623
3268.91675	8.31197
3266.98818	8.32522
3265.05962	8.27839
3263.13105	8.19834
3261.20249	8.13098
3259.27393	8.13351
3257.34536	8.26576
3255.41680	8.39034
3253.48823	8.29752
3251.55967	8.12774
3249.63110	8.08093
3247.70254	8.13297
3245.77397	8.16627
3243.84541	8.18448
3241.91685	8.22983
3239.98828	8.23912
3238.05972	8.19002
3236.13115	8.18041
3234.20259	8.18283
3232.27402	8.12816
3230.34546	8.08605
3228.41689	8.04646
3226.48833	7.98455
3224.55977	7.95523
3222.63120	7.97594
3220.70264	7.98502
3218.77407	7.95675
3216.84551	7.95374
3214.91694	7.97482
3212.98838	7.99583
3211.05981	8.00274
3209.13125	7.94109
3207.20269	7.85858
3205.27412	7.83511
3203.34556	7.80120
3201.41699	7.70076
3199.48843	7.63940
3197.55986	7.66992
3195.63130	7.69592
3193.70273	7.62964
3191.77417	7.50440
3189.84561	7.43253
3187.91704	7.45261
3185.98848	7.46660
3184.05991	7.40902
3182.13135	7.32071
3180.20278	7.24881
3178.27422	7.21840
3176.34565	7.21423
3174.41709	7.17147
3172.48853	7.06871
3170.55996	6.97126
3168.63140	6.91402
3166.70283	6.86064
3164.77427	6.79929
3162.84570	6.74847
3160.91714	6.70099
3158.98857	6.64680
3157.06001	6.57112
3155.13145	6.46960
3153.20288	6.37758
3151.27432	6.31883
3149.34575	6.27240
3147.41719	6.21659
3145.48862	6.14563
3143.56006	6.06072
3141.63149	5.97621
3139.70293	5.90183
3137.77437	5.83391
3135.84580	5.75834
3133.91724	5.68029
3131.98867	5.61755
3130.06011	5.56224
3128.13154	5.49695
3126.20298	5.41821
3124.27441	5.33874
3122.34585	5.26306
3120.41729	5.18422
3118.48872	5.10603
3116.56016	5.03698
3114.63159	4.97782
3112.70303	4.92112
3110.77446	4.85821
3108.84590	4.78654
3106.91733	4.71178
3104.98877	4.64248
3103.06021	4.57896
3101.13164	4.51466
3099.20308	4.44886
3097.27451	4.38464
3095.34595	4.32150
3093.41738	4.25596
3091.48882	4.18629
3089.56025	4.11668
3087.63169	4.05138
3085.70312	3.99040
3083.77456	3.93183
3081.84600	3.87277
3079.91743	3.81110
3077.98887	3.74890
3076.06030	3.68799
3074.13174	3.62790
3072.20317	3.56974
3070.27461	3.51322
3068.34604	3.45648
3066.41748	3.39896
3064.48892	3.34146
3062.56035	3.28474
3060.63179	3.22940
3058.70322	3.17628
3056.77466	3.12454
3054.84609	3.07306
3052.91753	3.02223
3050.98896	2.97182
3049.06040	2.92149
3047.13184	2.87181
3045.20327	2.82301
3043.27471	2.77504
3041.34614	2.72800
3039.41758	2.68144
3037.48901	2.63490
3035.56045	2.58861
3033.63188	2.54322
3031.70332	2.49964
3029.77476	2.45765
3027.84619	2.41572
3025.91763	2.37301
3023.98906	2.33036
3022.06050	2.28890
3020.13193	2.24859
3018.20337	2.20924
3016.27480	2.17051
3014.34624	2.13190
3012.41768	2.09362
3010.48911	2.05626
3008.56055	2.02024
3006.63198	1.98531
3004.70342	1.95039
3002.77485	1.91497
3000.84629	1.88017
2998.91772	1.84694
2996.98916	1.81466
2995.06060	1.78248
2993.13203	1.75024
2991.20347	1.71864
2989.27490	1.68815
2987.34634	1.65817
2985.41777	1.62832
2983.48921	1.59907
2981.56064	1.57039
2979.63208	1.54179
2977.70352	1.51340
2975.77495	1.48530
2973.84639	1.45747
2971.91782	1.43022
2969.98926	1.40373
2968.06069	1.37775
2966.13213	1.35194
2964.20356	1.32650
2962.27500	1.30184
2960.34644	1.27766
2958.41787	1.25380
2956.48931	1.23078
2954.56074	1.20840
2952.63218	1.18608
2950.70361	1.16402
2948.77505	1.14254
2946.84648	1.12161
2944.91792	1.10086
2942.98936	1.07968
2941.06079	1.05821
2939.13223	1.03705
2937.20366	1.01630
2935.27510	0.99572
2933.34653	0.97515
2931.41797	0.95482
2929.48940	0.93491
2927.56084	0.91555
2925.63228	0.89675
2923.70371	0.87899
2921.77515	0.86330
2919.84658	0.84920
2917.91802	0.83544
2915.98945	0.82212
2914.06089	0.80965
2912.13232	0.79784
2910.20376	0.78591
2908.27520	0.77333
2906.34663	0.76067
2904.41807	0.74839
2902.48950	0.73638
2900.56094	0.72474
2898.63237	0.71338
2896.70381	0.70203
2894.77524	0.69079
2892.84668	0.67978
2890.91812	0.66894
2888.98955	0.65813
2887.06099	0.64726
2885.13242	0.63662
2883.20386	0.62638
2881.27529	0.61621
2879.34673	0.60588
2877.41816	0.59543
2875.48960	0.58511
2873.56104	0.57514
2871.63247	0.56544
2869.70391	0.55557
2867.77534	0.54545
2865.84678	0.53528
2863.91821	0.52490
2861.98965	0.51431
2860.06108	0.50376
2858.13252	0.49336
2856.20396	0.48329
2854.27539	0.47386
2852.34683	0.46544
2850.41826	0.45834
2848.48970	0.45241
2846.56113	0.44694
2844.63257	0.44181
2842.70400	0.43720
2840.77544	0.43259
2838.84687	0.42761
2836.91831	0.42238
2834.98975	0.41717
2833.06118	0.41193
2831.13262	0.40643
2829.20405	0.40077
2827.27549	0.39517
2825.34692	0.38958
2823.41836	0.38397
2821.48979	0.37848
2819.56123	0.37310
2817.63267	0.36764
2815.70410	0.36215
2813.77554	0.35687
2811.84697	0.35188
2809.91841	0.34698
2807.98984	0.34203
2806.06128	0.33706
2804.13271	0.33223
2802.20415	0.32751
2800.27559	0.32284
2798.34702	0.31833
2796.41846	0.31403
2794.48989	0.30975
2792.56133	0.30548
2790.63276	0.30130
2788.70420	0.29716
2786.77563	0.29310
2784.84707	0.28921
2782.91851	0.28544
2780.98994	0.28164
2779.06138	0.27784
2777.13281	0.27421
2775.20425	0.27077
2773.27568	0.26752
2771.34712	0.26427
2769.41855	0.26087
2767.48999	0.25748
2765.56143	0.25429
2763.63286	0.25113
2761.70430	0.24795
2759.77573	0.24499
2757.84717	0.24221
2755.91860	0.23932
2753.99004	0.23636
2752.06147	0.23359
2750.13291	0.23099
2748.20435	0.22844
2746.27578	0.22587
2744.34722	0.22324
2742.41865	0.22077
2740.49009	0.21850
2738.56152	0.21623
2736.63296	0.21398
2734.70439	0.21171
2732.77583	0.20934
2730.84727	0.20706
2728.91870	0.20504
2726.99014	0.20307
2725.06157	0.20096
2723.13301	0.19892
2721.20444	0.19697
2719.27588	0.19504
2717.34731	0.19333
2715.41875	0.19170
2713.49019	0.18998
2711.56162	0.18832
2709.63306	0.18678
2707.70449	0.18529
2705.77593	0.18370
2703.84736	0.18203
2701.91880	0.18045
2699.99023	0.17900
2698.06167	0.17767
2696.13311	0.17638
2694.20454	0.17504
2692.27598	0.17360
2690.34741	0.17218
2688.41885	0.17092
2686.49028	0.16977
2684.56172	0.16862
2682.63315	0.16747
2680.70459	0.16635
2678.77603	0.16527
2676.84746	0.16423
2674.91890	0.16316
2672.99033	0.16206
2671.06177	0.16109
2669.13320	0.16017
2667.20464	0.15912
2665.27607	0.15806
2663.34751	0.15719
2661.41895	0.15650
2659.49038	0.15594
2657.56182	0.15539
2655.63325	0.15472
2653.70469	0.15402
2651.77612	0.15338
2649.84756	0.15280
2647.91899	0.15218
2645.99043	0.15156
2644.06187	0.15107
2642.13330	0.15062
2640.20474	0.15007
2638.27617	0.14945
2636.34761	0.14890
2634.41904	0.14845
2632.49048	0.14805
2630.56191	0.14771
2628.63335	0.14752
2626.70479	0.14735
2624.77622	0.14711
2622.84766	0.14691
2620.91909	0.14669
2618.99053	0.14645
2617.06196	0.14635
2615.13340	0.14637
2613.20483	0.14620
2611.27627	0.14582
2609.34771	0.14567
2607.41914	0.14585
2605.49058	0.14587
2603.56201	0.14563
2601.63345	0.14554
2599.70488	0.14570
2597.77632	0.14587
2595.84775	0.14600
2593.91919	0.14622
2591.99062	0.14646
2590.06206	0.14654
2588.13350	0.14659
2586.20493	0.14681
2584.27637	0.14714
2582.34780	0.14742
2580.41924	0.14772
2578.49067	0.14811
2576.56211	0.14847
2574.63354	0.14876
2572.70498	0.14907
2570.77642	0.14933
2568.84785	0.14955
2566.91929	0.14994
2564.99072	0.15044
2563.06216	0.15092
2561.13359	0.15141
2559.20503	0.15191
2557.27646	0.15240
2555.34790	0.15296
2553.41934	0.15352
2551.49077	0.15404
2549.56221	0.15455
2547.63364	0.15510
2545.70508	0.15575
2543.77651	0.15635
2541.84795	0.15690
2539.91938	0.15759
2537.99082	0.15841
2536.06226	0.15914
2534.13369	0.15968
2532.20513	0.16023
2530.27656	0.16101
2528.34800	0.16183
2526.41943	0.16258
2524.49087	0.16338
2522.56230	0.16412
2520.63374	0.16477
2518.70518	0.16544
2516.77661	0.16623
2514.84805	0.16709
2512.91948	0.16792
2510.99092	0.16869
2509.06235	0.16950
2507.13379	0.17040
2505.20522	0.17122
2503.27666	0.17184
2501.34810	0.17251
2499.41953	0.17342
2497.49097	0.17442
2495.56240	0.17528
2493.63384	0.17608
2491.70527	0.17701
2489.77671	0.17790
2487.84814	0.17862
2485.91958	0.17940
2483.99102	0.18038
2482.06245	0.18147
2480.13389	0.18256
2478.20532	0.18353
2476.27676	0.18435
2474.34819	0.18513
2472.41963	0.18601
2470.49106	0.18698
2468.56250	0.18795
2466.63394	0.18889
2464.70537	0.18980
2462.77681	0.19069
2460.84824	0.19164
2458.91968	0.19264
2456.99111	0.19356
2455.06255	0.19446
2453.13398	0.19548
2451.20542	0.19655
2449.27686	0.19753
2447.34829	0.19842
2445.41973	0.19933
2443.49116	0.20034
2441.56260	0.20143
2439.63403	0.20250
2437.70547	0.20354
2435.77690	0.20461
2433.84834	0.20570
2431.91978	0.20679
2429.99121	0.20788
2428.06265	0.20887
2426.13408	0.20981
2424.20552	0.21088
2422.27695	0.21203
2420.34839	0.21315
2418.41982	0.21417
2416.49126	0.21514
2414.56270	0.21621
2412.63413	0.21738
2410.70557	0.21859
2408.77700	0.21977
2406.84844	0.22090
2404.91987	0.22205
2402.99131	0.22328
2401.06274	0.22458
2399.13418	0.22586
2397.20562	0.22704
2395.27705	0.22816
2393.34849	0.22935
2391.41992	0.23070
2389.49136	0.23221
2387.56279	0.23408
2385.63423	0.23667
2383.70566	0.24029
2381.77710	0.24507
2379.84854	0.25099
2377.91997	0.25791
2375.99141	0.26556
2374.06284	0.27403
2372.13428	0.28369
2370.20571	0.29416
2368.27715	0.30430
2366.34858	0.31410
2364.42002	0.32391
2362.49146	0.33185
2360.56289	0.33599
2358.63433	0.33722
2356.70576	0.33509
2354.77720	0.32833
2352.84863	0.31905
2350.92007	0.30993
2348.99150	0.30442
2347.06294	0.30501
2345.13437	0.31202
2343.20581	0.32174
2341.27725	0.32800
2339.34868	0.32998
2337.42012	0.32999
2335.49155	0.32979
2333.56299	0.32956
2331.63442	0.32941
2329.70586	0.32940
2327.77729	0.32882
2325.84873	0.32730
2323.92017	0.32546
2321.99160	0.32357
2320.06304	0.32134
2318.13447	0.31882
2316.20591	0.31673
2314.27734	0.31576
2312.34878	0.31567
2310.42021	0.31565
2308.49165	0.31532
2306.56309	0.31463
2304.63452	0.31386
2302.70596	0.31359
2300.77739	0.31397
2298.84883	0.31469
2296.92026	0.31546
2294.99170	0.31619
2293.06313	0.31705
2291.13457	0.31807
2289.20601	0.31901
2287.27744	0.31983
2285.34888	0.32073
2283.42031	0.32189
2281.49175	0.32358
2279.56318	0.32573
2277.63462	0.32800
2275.70605	0.33024
2273.77749	0.33246
2271.84893	0.33467
2269.92036	0.33675
2267.99180	0.33866
2266.06323	0.34059
2264.13467	0.34260
2262.20610	0.34453
2260.27754	0.34644
2258.34897	0.34840
2256.42041	0.35027
2254.49185	0.35211
2252.56328	0.35406
2250.63472	0.35603
2248.70615	0.35792
2246.77759	0.35989
2244.84902	0.36212
2242.92046	0.36444
2240.99189	0.36653
2239.06333	0.36848
2237.13477	0.37054
2235.20620	0.37268
2233.27764	0.37491
2231.34907	0.37718
2229.42051	0.37929
2227.49194	0.38129
2225.56338	0.38335
2223.63481	0.38560
2221.70625	0.38790
2219.77769	0.39002
2217.84912	0.39211
2215.92056	0.39433
2213.99199	0.39657
2212.06343	0.39867
2210.13486	0.40072
2208.20630	0.40289
2206.27773	0.40515
2204.34917	0.40721
2202.42061	0.40913
2200.49204	0.41111
2198.56348	0.41314
2196.63491	0.41519
2194.70635	0.41727
2192.77778	0.41927
2190.84922	0.42114
2188.92065	0.42289
2186.99209	0.42459
2185.06353	0.42635
2183.13496	0.42818
2181.20640	0.42997
2179.27783	0.43166
2177.34927	0.43336
2175.42070	0.43501
2173.49214	0.43647
2171.56357	0.43773
2169.63501	0.43893
2167.70645	0.44026
2165.77788	0.44171
2163.84932	0.44303
2161.92075	0.44422
2159.99219	0.44541
2158.06362	0.44647
2156.13506	0.44737
2154.20649	0.44828
2152.27793	0.44921
2150.34937	0.45016
2148.42080	0.45105
2146.49224	0.45170
2144.56367	0.45207
2142.63511	0.45239
2140.70654	0.45276
2138.77798	0.45310
2136.84941	0.45342
2134.92085	0.45373
2132.99229	0.45385
2131.06372	0.45380
2129.13516	0.45374
2127.20659	0.45359
2125.27803	0.45332
2123.34946	0.45305
2121.42090	0.45277
2119.49233	0.45234
2117.56377	0.45181
2115.63521	0.45126
2113.70664	0.45056
2111.77808	0.44973
2109.84951	0.44887
2107.92095	0.44802
2105.99238	0.44710
2104.06382	0.44603
2102.13525	0.44482
2100.20669	0.44363
2098.27812	0.44246
2096.34956	0.44119
2094.42100	0.43972
2092.49243	0.43820
2090.56387	0.43673
2088.63530	0.43518
2086.70674	0.43349
2084.77817	0.43167
2082.84961	0.42987
2080.92104	0.42818
2078.99248	0.42651
2077.06392	0.42465
2075.13535	0.42257
2073.20679	0.42036
2071.27822	0.41813
2069.34966	0.41596
2067.42109	0.41387
2065.49253	0.41177
2063.56396	0.40951
2061.63540	0.40724
2059.70684	0.40501
2057.77827	0.40263
2055.84971	0.40008
2053.92114	0.39752
2051.99258	0.39503
2050.06401	0.39253
2048.13545	0.39000
2046.20688	0.38749
2044.27832	0.38501
2042.34976	0.38252
2040.42119	0.37983
2038.49263	0.37694
2036.56406	0.37413
2034.63550	0.37147
2032.70693	0.36887
2030.77837	0.36627
2028.84980	0.36360
2026.92124	0.36089
2024.99268	0.35809
2023.06411	0.35528
2021.13555	0.35270
2019.20698	0.35039
2017.27842	0.34793
2015.34985	0.34502
2013.42129	0.34202
2011.49272	0.33921
2009.56416	0.33648
2007.63560	0.33374
2005.70703	0.33104
2003.77847	0.32841
2001.84990	0.32577
1999.92134	0.32318
1997.99277	0.32066
1996.06421	0.31817
1994.13564	0.31587
1992.20708	0.31374
1990.27852	0.31132
1988.34995	0.30859
1986.42139	0.30583
1984.49282	0.30319
1982.56426	0.30079
1980.63569	0.29857
1978.70713	0.29643
1976.77856	0.29424
1974.85000	0.29200
1972.92144	0.28974
1970.99287	0.28759
1969.06431	0.28576
1967.13574	0.28412
1965.20718	0.28214
1963.27861	0.27988
1961.35005	0.27775
1959.42148	0.27579
1957.49292	0.27393
1955.56436	0.27208
1953.63579	0.27019
1951.70723	0.26833
1949.77866	0.26668
1947.85010	0.26524
1945.92153	0.26396
1943.99297	0.26289
1942.06440	0.26162
1940.13584	0.25975
1938.20728	0.25780
1936.27871	0.25623
1934.35015	0.25490
1932.42158	0.25367
1930.49302	0.25241
1928.56445	0.25118
1926.63589	0.25015
1924.70732	0.24952
1922.77876	0.24901
1920.85020	0.24815
1918.92163	0.24723
1916.99307	0.24628
1915.06450	0.24493
1913.13594	0.24373
1911.20737	0.24319
1909.27881	0.24284
1907.35024	0.24200
1905.42168	0.24087
1903.49312	0.23996
1901.56455	0.23930
1899.63599	0.23875
1897.70742	0.23841
1895.77886	0.23824
1893.85029	0.23799
1891.92173	0.23773
1889.99316	0.23776
1888.06460	0.23747
1886.13604	0.23676
1884.20747	0.23626
1882.27891	0.23596
1880.35034	0.23573
1878.42178	0.23563
1876.49321	0.23558
1874.56465	0.23548
1872.63608	0.23567
1870.70752	0.23665
1868.77896	0.23820
1866.85039	0.23854
1864.92183	0.23750
1862.99326	0.23680
1861.06470	0.23686
1859.13613	0.23725
1857.20757	0.23755
1855.27900	0.23793
1853.35044	0.23843
1851.42187	0.23906
1849.49331	0.23984
1847.56475	0.24091
1845.63618	0.24228
1843.70762	0.24346
1841.77905	0.24366
1839.85049	0.24355
1837.92192	0.24412
1835.99336	0.24504
1834.06479	0.24601
1832.13623	0.24737
1830.20767	0.24940
1828.27910	0.25096
1826.35054	0.25168
1824.42197	0.25265
1822.49341	0.25345
1820.56484	0.25421
1818.63628	0.25543
1816.70771	0.25708
1814.77915	0.25876
1812.85059	0.26078
1810.92202	0.26320
1808.99346	0.26523
1807.06489	0.26680
1805.13633	0.26851
1803.20776	0.27096
1801.27920	0.27402
1799.35063	0.27701
1797.42207	0.27933
1795.49351	0.28175
1793.56494	0.28508
1791.63638	0.28909
1789.70781	0.29189
1787.77925	0.29362
1785.85068	0.29647
1783.92212	0.30033
1781.99355	0.30446
1780.06499	0.30868
1778.13643	0.31283
1776.20786	0.31697
1774.27930	0.32201
1772.35073	0.32881
1770.42217	0.33501
1768.49360	0.33922
1766.56504	0.34332
1764.63647	0.34809
1762.70791	0.35395
1760.77935	0.36134
1758.85078	0.36791
1756.92222	0.37444
1754.99365	0.38154
1753.06509	0.38821
1751.13652	0.39688
1749.20796	0.40787
1747.27939	0.41789
1745.35083	0.42629
1743.42227	0.43556
1741.49370	0.44611
1739.56514	0.45864
1737.63657	0.47128
1735.70801	0.48282
1733.77944	0.50060
1731.85088	0.52075
1729.92231	0.53534
1727.99375	0.54998
1726.06519	0.56635
1724.13662	0.58492
1722.20806	0.60510
1720.27949	0.62391
1718.35093	0.64672
1716.42236	0.68020
1714.49380	0.71015
1712.56523	0.73323
1710.63667	0.75598
1708.70811	0.78127
1706.77954	0.81083
1704.85098	0.84620
1702.92241	0.87726
1700.99385	0.90762
1699.06528	0.95279
1697.13672	0.99405
1695.20815	1.03582
1693.27959	1.07582
1691.35103	1.10808
1689.42246	1.14582
1687.49390	1.18542
1685.56533	1.22338
1683.63677	1.28218
1681.70820	1.34229
1679.77964	1.37997
1677.85107	1.41644
1675.92251	1.45901
1673.99395	1.51152
1672.06538	1.55766
1670.13682	1.60298
1668.20825	1.66122
1666.27969	1.70626
1664.35112	1.74376
1662.42256	1.79141
1660.49399	1.84416
1658.56543	1.88475
1656.63687	1.91935
1654.70830	1.95413
1652.77974	2.01051
1650.85117	2.06277
1648.92261	2.08291
1646.99404	2.11220
1645.06548	2.14851
1643.13691	2.17263
1641.20835	2.18650
1639.27979	2.19864
1637.35122	2.20882
1635.42266	2.21335
1633.49409	2.20728
1631.56553	2.19633
1629.63696	2.18442
1627.70840	2.16207
1625.77983	2.13450
1623.85127	2.09890
1621.92271	2.05293
1619.99414	2.01059
1618.06558	1.96903
1616.13701	1.90935
1614.20845	1.84749
1612.27988	1.80025
1610.35132	1.75136
1608.42275	1.69839
1606.49419	1.64565
1604.56562	1.59641
1602.63706	1.54842
1600.70850	1.50104
1598.77993	1.45710
1596.85137	1.41594
1594.92280	1.37594
1592.99424	1.33674
1591.06567	1.30031
1589.13711	1.26565
1587.20854	1.23268
1585.27998	1.20175
1583.35142	1.17262
1581.42285	1.14576
1579.49429	1.12268
1577.56572	1.10194
1575.63716	1.07550
1573.70859	1.05074
1571.78003	1.03453
1569.85146	1.01761
1567.92290	0.99773
1565.99434	0.98158
1564.06577	0.96802
1562.13721	0.95732
1560.20864	0.94981
1558.28008	0.93564
1556.35151	0.91937
1554.42295	0.90897
1552.49438	0.89918
1550.56582	0.88954
1548.63726	0.87950
1546.70869	0.87062
1544.78013	0.86340
1542.85156	0.85672
1540.92300	0.84783
1538.99443	0.83192
1537.06587	0.81909
1535.13730	0.81129
1533.20874	0.80233
1531.28018	0.79225
1529.35161	0.78496
1527.42305	0.77883
1525.49448	0.77217
1523.56592	0.76597
1521.63735	0.76010
1519.70879	0.75321
1517.78022	0.74680
1515.85166	0.73978
1513.92310	0.73266
1511.99453	0.72753
1510.06597	0.72421
1508.13740	0.72203
1506.20884	0.71591
1504.28027	0.70696
1502.35171	0.70144
1500.42314	0.69781
1498.49458	0.69501
1496.56602	0.69148
1494.63745	0.68686
1492.70889	0.68342
1490.78032	0.68158
1488.85176	0.67924
1486.92319	0.67516
1484.99463	0.67118
1483.06606	0.66828
1481.13750	0.66591
1479.20894	0.66370
1477.28037	0.66221
1475.35181	0.66145
1473.42324	0.66057
1471.49468	0.65758
1469.56611	0.65325
1467.63755	0.65006
1465.70898	0.64813
1463.78042	0.64626
1461.85186	0.64433
1459.92329	0.64358
1457.99473	0.64366
1456.06616	0.64133
1454.13760	0.63701
1452.20903	0.63382
1450.28047	0.63153
1448.35190	0.62965
1446.42334	0.62743
1444.49478	0.62496
1442.56621	0.62294
1440.63765	0.62141
1438.70908	0.62028
1436.78052	0.61909
1434.85195	0.61715
1432.92339	0.61521
1430.99482	0.61382
1429.06626	0.61231
1427.13770	0.61061
1425.20913	0.60930
1423.28057	0.60818
1421.35200	0.60716
1419.42344	0.60644
1417.49487	0.60498
1415.56631	0.60249
1413.63774	0.60039
1411.70918	0.59890
1409.78062	0.59759
1407.85205	0.59645
1405.92349	0.59565
1403.99492	0.59476
1402.06636	0.59361
1400.13779	0.59277
1398.20923	0.59213
1396.28066	0.59114
1394.35210	0.58940
1392.42354	0.58695
1390.49497	0.58487
1388.56641	0.58350
1386.63784	0.58190
1384.70928	0.57961
1382.78071	0.57770
1380.85215	0.57659
1378.92358	0.57585
1376.99502	0.57520
1375.06646	0.57471
1373.13789	0.57394
1371.20933	0.57273
1369.28076	0.57157
1367.35220	0.57051
1365.42363	0.56968
1363.49507	0.56935
1361.56650	0.56876
1359.63794	0.56731
1357.70937	0.56587
1355.78081	0.56481
1353.85225	0.56380
1351.92368	0.56274
1349.99512	0.56176
1348.06655	0.56082
1346.13799	0.55985
1344.20942	0.55901
1342.28086	0.55850
1340.35229	0.55829
1338.42373	0.55772
1336.49517	0.55641
1334.56660	0.55501
1332.63804	0.55391
1330.70947	0.55306
1328.78091	0.55231
1326.85234	0.55160
1324.92378	0.55093
1322.99521	0.55036
1321.06665	0.55000
1319.13809	0.54968
1317.20952	0.54895
1315.28096	0.54798
1313.35239	0.54725
1311.42383	0.54661
1309.49526	0.54579
1307.56670	0.54486
1305.63813	0.54393
1303.70957	0.54301
1301.78101	0.54226
1299.85244	0.54170
1297.92388	0.54102
1295.99531	0.54005
1294.06675	0.53908
1292.13818	0.53832
1290.20962	0.53780
1288.28105	0.53739
1286.35249	0.53690
1284.42393	0.53628
1282.49536	0.53551
1280.56680	0.53466
1278.63823	0.53398
1276.70967	0.53356
1274.78110	0.53319
1272.85254	0.53288
1270.92397	0.53257
1268.99541	0.53205
1267.06685	0.53146
1265.13828	0.53102
1263.20972	0.53069
1261.28115	0.53045
1259.35259	0.53023
1257.42402	0.52981
1255.49546	0.52940
1253.56689	0.52917
1251.63833	0.52898
1249.70977	0.52876
1247.78120	0.52841
1245.85264	0.52802
1243.92407	0.52769
1241.99551	0.52730
1240.06694	0.52684
1238.13838	0.52634
1236.20981	0.52562
1234.28125	0.52473
1232.35269	0.52389
1230.42412	0.52314
1228.49556	0.52236
1226.56699	0.52147
1224.63843	0.52056
1222.70986	0.51970
1220.78130	0.51890
1218.85273	0.51821
1216.92417	0.51745
1214.99561	0.51660
1213.06704	0.51595
1211.13848	0.51549
1209.20991	0.51497
1207.28135	0.51447
1205.35278	0.51396
1203.42422	0.51340
1201.49565	0.51280
1199.56709	0.51210
1197.63853	0.51135
1195.70996	0.51072
1193.78140	0.51020
1191.85283	0.50972
1189.92427	0.50926
1187.99570	0.50882
1186.06714	0.50850
1184.13857	0.50838
1182.21001	0.50846
1180.28145	0.50879
1178.35288	0.50929
1176.42432	0.50974
1174.49575	0.51023
1172.56719	0.51099
1170.63862	0.51178
1168.71006	0.51242
1166.78149	0.51310
1164.85293	0.51406
1162.92437	0.51506
1160.99580	0.51561
1159.06724	0.51579
1157.13867	0.51578
1155.21011	0.51539
1153.28154	0.51443
1151.35298	0.51292
1149.42441	0.51094
1147.49585	0.50871
1145.56729	0.50642
1143.63872	0.50398
1141.71016	0.50147
1139.78159	0.49918
1137.85303	0.49730
1135.92446	0.49583
1133.99590	0.49453
1132.06733	0.49319
1130.13877	0.49187
1128.21021	0.49073
1126.28164	0.48978
1124.35308	0.48905
1122.42451	0.48873
1120.49595	0.48863
1118.56738	0.48853
1116.63882	0.48879
1114.71025	0.48961
1112.78169	0.49058
1110.85312	0.49149
1108.92456	0.49253
1106.99600	0.49361
1105.06743	0.49462
1103.13887	0.49584
1101.21030	0.49732
1099.28174	0.49886
1097.35317	0.50062
1095.42461	0.50315
1093.49604	0.50672
1091.56748	0.51135
1089.63892	0.51725
1087.71035	0.52449
1085.78179	0.53285
1083.85322	0.54145
1081.92466	0.54905
1079.99609	0.55483
1078.06753	0.55813
1076.13896	0.55836
1074.21040	0.55572
1072.28184	0.55090
1070.35327	0.54456
1068.42471	0.53750
1066.49614	0.53052
1064.56758	0.52415
1062.63901	0.51875
1060.71045	0.51419
1058.78188	0.51020
1056.85332	0.50672
1054.92476	0.50359
1052.99619	0.50076
1051.06763	0.49852
1049.13906	0.49690
1047.21050	0.49579
1045.28193	0.49531
1043.35337	0.49520
1041.42480	0.49514
1039.49624	0.49532
1037.56768	0.49596
1035.63911	0.49658
1033.71055	0.49659
1031.78198	0.49598
1029.85342	0.49484
1027.92485	0.49336
1025.99629	0.49201
1024.06772	0.49103
1022.13916	0.49032
1020.21060	0.49004
1018.28203	0.49020
1016.35347	0.49034
1014.42490	0.49042
1012.49634	0.49086
1010.56777	0.49162
1008.63921	0.49231
1006.71064	0.49297
1004.78208	0.49404
1002.85352	0.49568
1000.92495	0.49799
998.99639	0.50124
997.06782	0.50525
995.13926	0.50933
993.21069	0.51288
991.28213	0.51575
989.35356	0.51785
987.42500	0.51889
985.49644	0.51903
983.56787	0.51901
981.63931	0.51944
979.71074	0.52048
977.78218	0.52216
975.85361	0.52438
973.92505	0.52700
971.99648	0.53003
970.06792	0.53327
968.13936	0.53670
966.21079	0.54052
964.28223	0.54466
962.35366	0.54907
960.42510	0.55408
958.49653	0.55961
956.56797	0.56512
954.63940	0.57055
952.71084	0.57643
950.78228	0.58287
948.85371	0.58932
946.92515	0.59556
944.99658	0.60192
943.06802	0.60827
941.13945	0.61422
939.21089	0.62011
937.28232	0.62608
935.35376	0.63165
933.42520	0.63676
931.49663	0.64192
929.56807	0.64738
927.63950	0.65295
925.71094	0.65871
923.78237	0.66479
921.85381	0.67095
919.92524	0.67713
917.99668	0.68391
916.06812	0.69158
914.13955	0.69922
912.21099	0.70649
910.28242	0.71428
908.35386	0.72289
906.42529	0.73175
904.49673	0.74003
902.56816	0.74774
900.63960	0.75586
898.71104	0.76521
896.78247	0.77600
894.85391	0.78705
892.92534	0.79674
890.99678	0.80532
889.06821	0.81437
887.13965	0.82424
885.21108	0.83432
883.28252	0.84549
881.35396	0.85840
879.42539	0.87150
877.49683	0.88359
875.56826	0.89488
873.63970	0.90532
871.71113	0.91582
869.78257	0.92753
867.85400	0.93962
865.92544	0.95073
863.99687	0.96089
862.06831	0.97134
860.13975	0.98277
858.21118	0.99437
856.28262	1.00541
854.35405	1.01704
852.42549	1.02934
850.49692	1.04033
848.56836	1.05063
846.63979	1.06394
844.71123	1.07973
842.78267	1.09179
840.85410	1.09889
838.92554	1.10537
836.99697	1.11387
835.06841	1.12480
833.13984	1.13947
831.21128	1.15768
829.28271	1.17174
827.35415	1.17901
825.42559	1.18857
823.49702	1.20533
821.56846	1.22020
819.63989	1.22143
817.71133	1.21655
815.78276	1.22102
813.85420	1.23694
811.92563	1.25775
809.99707	1.27502
808.06851	1.28495
806.13994	1.29823
804.21138	1.31949
802.28281	1.33504
800.35425	1.34393
798.42568	1.36198
796.49712	1.39285
794.56855	1.42892
792.63999	1.43959
790.71143	1.41466
788.78286	1.40718
786.85430	1.41546
784.92573	1.38644
782.99717	1.34561
781.06860	1.37107
779.14004	1.50068
777.21147	1.64024
775.28291	1.59796
773.35435	1.50812
771.42578	1.50780
769.49722	1.57446
767.56865	1.53763
765.64009	1.42394
763.71152	1.35742
761.78296	1.36103
759.85439	1.43727
757.92583	1.35468
755.99727	1.19374
754.06870	1.19692
752.14014	1.30376
750.21157	1.25934
748.28301	1.14652
746.35444	1.10265
744.42588	1.04129
742.49731	0.99654
740.56875	1.03529
738.64019	1.01311
736.71162	0.88026
734.78306	0.78229
732.85449	0.67773
730.92593	0.55444
728.99736	0.46192
727.06880	0.39183
725.14023	0.38454
723.21167	0.42836
721.28311	0.32101
719.35454	0.19347
717.42598	0.19879
715.49741	0.33131
713.56885	0.33849
711.64028	0.19920
709.71172	0.04509
707.78315	-0.05251
705.85459	0.02295
703.92603	0.24527
701.99746	0.46088
700.06890	0.45958
698.14033	0.45047
696.21177	0.54087
694.28320	0.50119
692.35464	0.34326
690.42607	0.32171
688.49751	0.41967
686.56895	0.65352
684.64038	0.66465
682.71182	0.40582
680.78325	0.36028
678.85469	0.60250
676.92612	1.23508
674.99756	0.85372
673.06899	0.47879
671.14043	0.37938
669.21187	0.43798
667.28330	0.46063
665.35474	0.35316
663.42617	0.24315
661.49761	0.29582
659.56904	0.50738
657.64048	0.59753
655.71191	0.45995
653.78335	0.38580
651.85479	0.36159
649.92622	0.31333
647.99766	0.27357
646.06909	0.28372
644.14053	0.28146
642.21196	0.28151
640.28340	0.37032
638.35483	0.58535
636.42627	1.06541
634.49771	1.29816
632.56914	0.63208
630.64058	0.46905
628.71201	0.55070
626.78345	0.67325
624.85488	0.60805
622.92632	0.58659
620.99775	0.59275
619.06919	0.38225
617.14062	0.25929
615.21206	0.24748
613.28350	0.27331
611.35493	0.24721
609.42637	0.22791
607.49780	0.35020
605.56924	0.73015
603.64067	0.70141
601.71211	0.36905
599.78354	0.21666
597.85498	0.17747
595.92642	0.22061
593.99785	0.27140
592.06929	0.27592
590.14072	0.27793
588.21216	0.29749
586.28359	0.29878
584.35503	0.28192
582.42646	0.27630
580.49790	0.28095
578.56934	0.25390
576.64077	0.19332
574.71221	0.13913
572.78364	0.11439
570.85508	0.12858
568.92651	0.18798
566.99795	0.26232
565.06938	0.35001
563.14082	0.43843
561.21226	0.33122
559.28369	0.18031
557.35513	0.13443
555.42656	0.14883
553.49800	0.14433
551.56943	0.13895
549.64087	0.16255
547.71230	0.19923
545.78374	0.26190
543.85518	0.35002
541.92661	0.40807
539.99805	0.39632
538.06948	0.33779
536.14092	0.28030
534.21235	0.27563
532.28379	0.30940
530.35522	0.30395
528.42666	0.27753
526.49810	0.27711
524.56953	0.27833
522.64097	0.27253
520.71240	0.28854
518.78384	0.38870
516.85527	0.61937
514.92671	0.45383
512.99814	0.26617
511.06958	0.21866
509.14102	0.21654
507.21245	0.21836
505.28389	0.25504
503.35532	0.29908
501.42676	0.27179
499.49819	0.21646
