3997.91411	0.07175
3995.98555	0.07210
3994.05698	0.07253
3992.12842	0.07288
3990.19985	0.07313
3988.27129	0.07354
3986.34272	0.07379
3984.41416	0.07377
3982.48560	0.07392
3980.55703	0.07428
3978.62847	0.07456
3976.69990	0.07468
3974.77134	0.07462
3972.84277	0.07452
3970.91421	0.07475
3968.98564	0.07514
3967.05708	0.07538
3965.12852	0.07559
3963.19995	0.07576
3961.27139	0.07579
3959.34282	0.07580
3957.41426	0.07572
3955.48569	0.07561
3953.55713	0.07562
3951.62856	0.07557
3949.70000	0.07523
3947.77144	0.07487
3945.84287	0.07487
3943.91431	0.07490
3941.98574	0.07501
3940.05718	0.07557
3938.12861	0.07612
3936.20005	0.07619
3934.27148	0.07592
3932.34292	0.07568
3930.41436	0.07577
3928.48579	0.07597
3926.55723	0.07580
3924.62866	0.07543
3922.70010	0.07539
3920.77153	0.07539
3918.84297	0.07480
3916.91440	0.07421
3914.98584	0.07454
3913.05728	0.07511
3911.12871	0.07512
3909.20015	0.07494
3907.27158	0.07479
3905.34302	0.07422
3903.41445	0.07342
3901.48589	0.07329
3899.55732	0.07393
3897.62876	0.07469
3895.70020	0.07497
3893.77163	0.07483
3891.84307	0.07470
3889.91450	0.07507
3887.98594	0.07548
3886.05737	0.07526
3884.12881	0.07488
3882.20024	0.07470
3880.27168	0.07479
3878.34312	0.07558
3876.41455	0.07622
3874.48599	0.07610
3872.55742	0.07568
3870.62886	0.07535
3868.70029	0.07552
3866.77173	0.07614
3864.84316	0.07653
3862.91460	0.07678
3860.98604	0.07730
3859.05747	0.07786
3857.12891	0.07799
3855.20034	0.07758
3853.27178	0.07717
3851.34321	0.07823
3849.41465	0.07988
3847.48608	0.08088
3845.55752	0.08149
3843.62896	0.08199
3841.70039	0.08244
3839.77183	0.08265
3837.84326	0.08288
3835.91470	0.08376
3833.98613	0.08488
3832.05757	0.08577
3830.12900	0.08643
3828.20044	0.08684
3826.27187	0.08737
3824.34331	0.08804
3822.41475	0.08843
3820.48618	0.08924
3818.55762	0.09063
3816.62905	0.09157
3814.70049	0.09294
3812.77192	0.09465
3810.84336	0.09567
3808.91479	0.09629
3806.98623	0.09678
3805.05767	0.09730
3803.12910	0.09784
3801.20054	0.09892
3799.27197	0.10121
3797.34341	0.10316
3795.41484	0.10453
3793.48628	0.10612
3791.55771	0.10768
3789.62915	0.10894
3787.70059	0.10997
3785.77202	0.11099
3783.84346	0.11225
3781.91489	0.11371
3779.98633	0.11513
3778.05776	0.11663
3776.12920	0.11828
3774.20063	0.12006
3772.27207	0.12186
3770.34351	0.12353
3768.41494	0.12541
3766.48638	0.12755
3764.55781	0.12994
3762.62925	0.13228
3760.70068	0.13400
3758.77212	0.13564
3756.84355	0.13796
3754.91499	0.14032
3752.98643	0.14203
3751.05786	0.14330
3749.12930	0.14527
3747.20073	0.14809
3745.27217	0.15109
3743.34360	0.15457
3741.41504	0.15756
3739.48647	0.15974
3737.55791	0.16170
3735.62935	0.16391
3733.70078	0.16771
3731.77222	0.17285
3729.84365	0.17757
3727.91509	0.18160
3725.98652	0.18613
3724.05796	0.19228
3722.12939	0.20032
3720.20083	0.21020
3718.27227	0.22080
3716.34370	0.23110
3714.41514	0.24023
3712.48657	0.24856
3710.55801	0.25894
3708.62944	0.27234
3706.70088	0.28548
3704.77231	0.29770
3702.84375	0.31090
3700.91519	0.32801
3698.98662	0.34761
3697.05806	0.36647
3695.12949	0.38604
3693.20093	0.40620
3691.27236	0.42739
3689.34380	0.45519
3687.41523	0.49149
3685.48667	0.52502
3683.55811	0.55384
3681.62954	0.58328
3679.70098	0.61499
3677.77241	0.64767
3675.84385	0.68632
3673.91528	0.74025
3671.98672	0.78607
3670.05815	0.82629
3668.12959	0.88162
3666.20103	0.93306
3664.27246	0.97548
3662.34390	1.01993
3660.41533	1.06733
3658.48677	1.11337
3656.55820	1.16196
3654.62964	1.21706
3652.70107	1.26336
3650.77251	1.30177
3648.84395	1.35573
3646.91538	1.42712
3644.98682	1.48082
3643.05825	1.52055
3641.12969	1.56050
3639.20112	1.60466
3637.27256	1.64845
3635.34399	1.68982
3633.41543	1.73102
3631.48687	1.76973
3629.55830	1.80821
3627.62974	1.86062
3625.70117	1.91385
3623.77261	1.95068
3621.84404	1.98386
3619.91548	2.02008
3617.98691	2.06436
3616.05835	2.10934
3614.12979	2.14798
3612.20122	2.18809
3610.27266	2.22766
3608.34409	2.26671
3606.41553	2.30898
3604.48696	2.34862
3602.55840	2.38280
3600.62983	2.41944
3598.70127	2.46024
3596.77271	2.49995
3594.84414	2.53983
3592.91558	2.58185
3590.98701	2.62232
3589.05845	2.65955
3587.12988	2.70246
3585.20132	2.75070
3583.27275	2.79270
3581.34419	2.83019
3579.41562	2.86976
3577.48706	2.91256
3575.55850	2.95551
3573.62993	2.99895
3571.70137	3.04191
3569.77280	3.08204
3567.84424	3.12171
3565.91567	3.17132
3563.98711	3.22427
3562.05854	3.26825
3560.12998	3.30952
3558.20142	3.35247
3556.27285	3.39744
3554.34429	3.44305
3552.41572	3.49054
3550.48716	3.53819
3548.55859	3.58221
3546.63003	3.62526
3544.70146	3.67368
3542.77290	3.72548
3540.84434	3.77384
3538.91577	3.81768
3536.98721	3.86139
3535.05864	3.91058
3533.13008	3.95903
3531.20151	4.00332
3529.27295	4.04939
3527.34438	4.09951
3525.41582	4.14699
3523.48726	4.18927
3521.55869	4.23683
3519.63013	4.29099
3517.70156	4.34242
3515.77300	4.38877
3513.84443	4.43349
3511.91587	4.47772
3509.98730	4.52509
3508.05874	4.57678
3506.13018	4.62625
3504.20161	4.67177
3502.27305	4.71845
3500.34448	4.76669
3498.41592	4.80950
3496.48735	4.85024
3494.55879	4.89962
3492.63022	4.95382
3490.70166	5.00497
3488.77310	5.05566
3486.84453	5.10484
3484.91597	5.15128
3482.98740	5.19830
3481.05884	5.24692
3479.13027	5.29521
3477.20171	5.34162
3475.27314	5.38804
3473.34458	5.43676
3471.41602	5.48664
3469.48745	5.53246
3467.55889	5.57695
3465.63032	5.62783
3463.70176	5.68186
3461.77319	5.73434
3459.84463	5.79209
3457.91606	5.85235
3455.98750	5.90555
3454.05894	5.95130
3452.13037	5.99126
3450.20181	6.03317
3448.27324	6.08907
3446.34468	6.15575
3444.41611	6.20670
3442.48755	6.24680
3440.55898	6.30033
3438.63042	6.35309
3436.70186	6.38567
3434.77329	6.41811
3432.84473	6.46895
3430.91616	6.52978
3428.98760	6.58521
3427.05903	6.61718
3425.13047	6.64291
3423.20190	6.69160
3421.27334	6.77289
3419.34478	6.85157
3417.41621	6.89413
3415.48765	6.92990
3413.55908	6.96519
3411.63052	6.99375
3409.70195	7.02880
3407.77339	7.07977
3405.84482	7.12557
3403.91626	7.16652
3401.98770	7.21399
3400.05913	7.25153
3398.13057	7.30648
3396.20200	7.39252
3394.27344	7.44016
3392.34487	7.41517
3390.41631	7.38410
3388.48774	7.38929
3386.55918	7.42316
3384.63062	7.48087
3382.70205	7.58285
3380.77349	7.66604
3378.84492	7.67004
3376.91636	7.67320
3374.98779	7.71543
3373.05923	7.77543
3371.13066	7.82079
3369.20210	7.86831
3367.27354	7.88128
3365.34497	7.85076
3363.41641	7.85760
3361.48784	7.86419
3359.55928	7.83267
3357.63071	7.84166
3355.70215	7.94783
3353.77358	8.05458
3351.84502	8.06190
3349.91646	8.01100
3347.98789	7.97776
3346.05933	7.94075
3344.13076	7.89623
3342.20220	7.89402
3340.27363	7.89760
3338.34507	7.89947
3336.41650	7.93278
3334.48794	8.03752
3332.55937	8.14470
3330.63081	8.13306
3328.70225	8.07395
3326.77368	8.08580
3324.84512	8.16222
3322.91655	8.23586
3320.98799	8.30736
3319.05942	8.33033
3317.13086	8.28510
3315.20229	8.20978
3313.27373	8.12525
3311.34517	8.04498
3309.41660	7.99617
3307.48804	8.03220
3305.55947	8.12389
3303.63091	8.19516
3301.70234	8.19167
3299.77378	8.10899
3297.84521	8.02411
3295.91665	8.06306
3293.98809	8.20052
3292.05952	8.21949
3290.13096	8.11814
3288.20239	8.08822
3286.27383	8.11365
3284.34526	8.07331
3282.41670	8.00500
3280.48813	7.98007
3278.55957	8.01933
3276.63101	8.09892
3274.70244	8.16512
3272.77388	8.19365
3270.84531	8.18228
3268.91675	8.14495
3266.98818	8.11878
3265.05962	8.17066
3263.13105	8.27200
3261.20249	8.32456
3259.27393	8.32059
3257.34536	8.32506
3255.41680	8.35961
3253.48823	8.32291
3251.55967	8.17524
3249.63110	8.08008
3247.70254	8.10942
3245.77397	8.15304
3243.84541	8.16730
3241.91685	8.20916
3239.98828	8.27590
3238.05972	8.31070
3236.13115	8.29009
3234.20259	8.22599
3232.27402	8.12240
3230.34546	8.04665
3228.41689	8.05858
3226.48833	8.07238
3224.55977	8.02451
3222.63120	7.99986
3220.70264	8.04987
3218.77407	8.15422
3216.84551	8.23714
3214.91694	8.19509
3212.98838	8.02073
3211.05981	7.83101
3209.13125	7.71884
3207.20269	7.69529
3205.27412	7.71655
3203.34556	7.71719
3201.41699	7.71343
3199.48843	7.71552
3197.55986	7.67932
3195.63130	7.63809
3193.70273	7.61642
3191.77417	7.58567
3189.84561	7.53686
3187.91704	7.46511
3185.98848	7.39562
3184.05991	7.34545
3182.13135	7.28576
3180.20278	7.22455
3178.27422	7.17916
3176.34565	7.12938
3174.41709	7.05956
3172.48853	6.98751
3170.55996	6.92224
3168.63140	6.85630
3166.70283	6.81400
3164.77427	6.79459
3162.84570	6.73677
3160.91714	6.63116
3158.98857	6.53577
3157.06001	6.47252
3155.13145	6.43653
3153.20288	6.40275
3151.27432	6.33155
3149.34575	6.24837
3147.41719	6.19316
3145.48862	6.13718
3143.56006	6.05159
3141.63149	5.95962
3139.70293	5.87756
3137.77437	5.79887
3135.84580	5.72413
3133.91724	5.65595
3131.98867	5.58712
3130.06011	5.51621
3128.13154	5.44513
3126.20298	5.37061
3124.27441	5.29694
3122.34585	5.22693
3120.41729	5.15686
3118.48872	5.08540
3116.56016	5.01241
3114.63159	4.93956
3112.70303	4.87021
3110.77446	4.80091
3108.84590	4.72916
3106.91733	4.65899
3104.98877	4.58599
3103.06021	4.50916
3101.13164	4.43987
3099.20308	4.38040
3097.27451	4.32062
3095.34595	4.25443
3093.41738	4.18580
3091.48882	4.11908
3089.56025	4.05208
3087.63169	3.98544
3085.70312	3.92259
3083.77456	3.86037
3081.84600	3.79657
3079.91743	3.73301
3077.98887	3.67128
3076.06030	3.61281
3074.13174	3.55512
3072.20317	3.49448
3070.27461	3.43275
3068.34604	3.37344
3066.41748	3.31611
3064.48892	3.25996
3062.56035	3.20486
3060.63179	3.14996
3058.70322	3.09572
3056.77466	3.04295
3054.84609	2.99086
3052.91753	2.93902
3050.98896	2.88793
3049.06040	2.83703
3047.13184	2.78626
3045.20327	2.73639
3043.27471	2.68807
3041.34614	2.64168
3039.41758	2.59619
3037.48901	2.55049
3035.56045	2.50488
3033.63188	2.46002
3031.70332	2.41536
3029.77476	2.37086
3027.84619	2.32765
3025.91763	2.28557
3023.98906	2.24417
3022.06050	2.20344
3020.13193	2.16303
3018.20337	2.12339
3016.27480	2.08490
3014.34624	2.04705
3012.41768	2.00962
3010.48911	1.97289
3008.56055	1.93698
3006.63198	1.90149
3004.70342	1.86586
3002.77485	1.83036
3000.84629	1.79578
2998.91772	1.76220
2996.98916	1.72936
2995.06060	1.69722
2993.13203	1.66571
2991.20347	1.63466
2989.27490	1.60380
2987.34634	1.57311
2985.41777	1.54293
2983.48921	1.51349
2981.56064	1.48486
2979.63208	1.45683
2977.70352	1.42909
2975.77495	1.40182
2973.84639	1.37509
2971.91782	1.34861
2969.98926	1.32239
2968.06069	1.29667
2966.13213	1.27159
2964.20356	1.24715
2962.27500	1.22307
2960.34644	1.19917
2958.41787	1.17577
2956.48931	1.15321
2954.56074	1.13137
2952.63218	1.10997
2950.70361	1.08873
2948.77505	1.06754
2946.84648	1.04676
2944.91792	1.02667
2942.98936	1.00691
2941.06079	0.98717
2939.13223	0.96750
2937.20366	0.94833
2935.27510	0.92995
2933.34653	0.91225
2931.41797	0.89526
2929.48940	0.87894
2927.56084	0.86292
2925.63228	0.84659
2923.70371	0.82999
2921.77515	0.81413
2919.84658	0.79923
2917.91802	0.78439
2915.98945	0.76917
2914.06089	0.75387
2912.13232	0.73902
2910.20376	0.72491
2908.27520	0.71139
2906.34663	0.69826
2904.41807	0.68564
2902.48950	0.67362
2900.56094	0.66170
2898.63237	0.64958
2896.70381	0.63751
2894.77524	0.62559
2892.84668	0.61401
2890.91812	0.60316
2888.98955	0.59273
2887.06099	0.58213
2885.13242	0.57147
2883.20386	0.56104
2881.27529	0.55091
2879.34673	0.54100
2877.41816	0.53110
2875.48960	0.52148
2873.56104	0.51239
2871.63247	0.50339
2869.70391	0.49422
2867.77534	0.48535
2865.84678	0.47695
2863.91821	0.46867
2861.98965	0.46034
2860.06108	0.45216
2858.13252	0.44432
2856.20396	0.43674
2854.27539	0.42923
2852.34683	0.42187
2850.41826	0.41474
2848.48970	0.40742
2846.56113	0.39997
2844.63257	0.39299
2842.70400	0.38658
2840.77544	0.38061
2838.84687	0.37506
2836.91831	0.36971
2834.98975	0.36441
2833.06118	0.35911
2831.13262	0.35377
2829.20405	0.34854
2827.27549	0.34340
2825.34692	0.33816
2823.41836	0.33274
2821.48979	0.32744
2819.56123	0.32249
2817.63267	0.31773
2815.70410	0.31299
2813.77554	0.30815
2811.84697	0.30319
2809.91841	0.29835
2807.98984	0.29377
2806.06128	0.28928
2804.13271	0.28489
2802.20415	0.28090
2800.27559	0.27710
2798.34702	0.27298
2796.41846	0.26864
2794.48989	0.26449
2792.56133	0.26070
2790.63276	0.25722
2788.70420	0.25380
2786.77563	0.25031
2784.84707	0.24688
2782.91851	0.24350
2780.98994	0.24017
2779.06138	0.23702
2777.13281	0.23393
2775.20425	0.23070
2773.27568	0.22752
2771.34712	0.22454
2769.41855	0.22170
2767.48999	0.21890
2765.56143	0.21603
2763.63286	0.21325
2761.70430	0.21067
2759.77573	0.20800
2757.84717	0.20520
2755.91860	0.20258
2753.99004	0.20021
2752.06147	0.19787
2750.13291	0.19544
2748.20435	0.19312
2746.27578	0.19099
2744.34722	0.18896
2742.41865	0.18692
2740.49009	0.18484
2738.56152	0.18291
2736.63296	0.18099
2734.70439	0.17902
2732.77583	0.17715
2730.84727	0.17536
2728.91870	0.17350
2726.99014	0.17163
2725.06157	0.16988
2723.13301	0.16820
2721.20444	0.16660
2719.27588	0.16507
2717.34731	0.16355
2715.41875	0.16209
2713.49019	0.16072
2711.56162	0.15936
2709.63306	0.15798
2707.70449	0.15661
2705.77593	0.15524
2703.84736	0.15390
2701.91880	0.15272
2699.99023	0.15167
2698.06167	0.15059
2696.13311	0.14948
2694.20454	0.14842
2692.27598	0.14736
2690.34741	0.14633
2688.41885	0.14536
2686.49028	0.14443
2684.56172	0.14358
2682.63315	0.14277
2680.70459	0.14188
2678.77603	0.14101
2676.84746	0.14021
2674.91890	0.13935
2672.99033	0.13845
2671.06177	0.13768
2669.13320	0.13698
2667.20464	0.13618
2665.27607	0.13544
2663.34751	0.13495
2661.41895	0.13453
2659.49038	0.13401
2657.56182	0.13346
2655.63325	0.13291
2653.70469	0.13245
2651.77612	0.13218
2649.84756	0.13199
2647.91899	0.13168
2645.99043	0.13122
2644.06187	0.13073
2642.13330	0.13038
2640.20474	0.13017
2638.27617	0.12998
2636.34761	0.12983
2634.41904	0.12966
2632.49048	0.12932
2630.56191	0.12891
2628.63335	0.12867
2626.70479	0.12863
2624.77622	0.12865
2622.84766	0.12860
2620.91909	0.12849
2618.99053	0.12844
2617.06196	0.12848
2615.13340	0.12848
2613.20483	0.12834
2611.27627	0.12831
2609.34771	0.12851
2607.41914	0.12875
2605.49058	0.12887
2603.56201	0.12885
2601.63345	0.12883
2599.70488	0.12897
2597.77632	0.12926
2595.84775	0.12951
2593.91919	0.12967
2591.99062	0.12986
2590.06206	0.13014
2588.13350	0.13042
2586.20493	0.13079
2584.27637	0.13128
2582.34780	0.13165
2580.41924	0.13190
2578.49067	0.13223
2576.56211	0.13267
2574.63354	0.13314
2572.70498	0.13363
2570.77642	0.13413
2568.84785	0.13459
2566.91929	0.13503
2564.99072	0.13551
2563.06216	0.13597
2561.13359	0.13643
2559.20503	0.13701
2557.27646	0.13768
2555.34790	0.13827
2553.41934	0.13872
2551.49077	0.13915
2549.56221	0.13975
2547.63364	0.14050
2545.70508	0.14126
2543.77651	0.14196
2541.84795	0.14260
2539.91938	0.14326
2537.99082	0.14403
2536.06226	0.14485
2534.13369	0.14555
2532.20513	0.14618
2530.27656	0.14690
2528.34800	0.14772
2526.41943	0.14851
2524.49087	0.14927
2522.56230	0.14996
2520.63374	0.15065
2518.70518	0.15152
2516.77661	0.15246
2514.84805	0.15327
2512.91948	0.15396
2510.99092	0.15461
2509.06235	0.15535
2507.13379	0.15625
2505.20522	0.15725
2503.27666	0.15828
2501.34810	0.15921
2499.41953	0.16001
2497.49097	0.16088
2495.56240	0.16185
2493.63384	0.16268
2491.70527	0.16342
2489.77671	0.16433
2487.84814	0.16538
2485.91958	0.16637
2483.99102	0.16733
2482.06245	0.16823
2480.13389	0.16906
2478.20532	0.17001
2476.27676	0.17108
2474.34819	0.17209
2472.41963	0.17304
2470.49106	0.17402
2468.56250	0.17495
2466.63394	0.17585
2464.70537	0.17675
2462.77681	0.17770
2460.84824	0.17881
2458.91968	0.17996
2456.99111	0.18095
2455.06255	0.18182
2453.13398	0.18276
2451.20542	0.18381
2449.27686	0.18497
2447.34829	0.18610
2445.41973	0.18711
2443.49116	0.18802
2441.56260	0.18888
2439.63403	0.18993
2437.70547	0.19116
2435.77690	0.19230
2433.84834	0.19335
2431.91978	0.19438
2429.99121	0.19546
2428.06265	0.19669
2426.13408	0.19798
2424.20552	0.19920
2422.27695	0.20036
2420.34839	0.20146
2418.41982	0.20251
2416.49126	0.20362
2414.56270	0.20482
2412.63413	0.20607
2410.70557	0.20733
2408.77700	0.20857
2406.84844	0.20979
2404.91987	0.21110
2402.99131	0.21244
2401.06274	0.21365
2399.13418	0.21478
2397.20562	0.21592
2395.27705	0.21716
2393.34849	0.21855
2391.41992	0.21990
2389.49136	0.22089
2387.56279	0.22134
2385.63423	0.22084
2383.70566	0.21878
2381.77710	0.21500
2379.84854	0.21001
2377.91997	0.20405
2375.99141	0.19672
2374.06284	0.18796
2372.13428	0.17826
2370.20571	0.16803
2368.27715	0.15751
2366.34858	0.14753
2364.42002	0.13920
2362.49146	0.13304
2360.56289	0.12947
2358.63433	0.13047
2356.70576	0.13834
2354.77720	0.15165
2352.84863	0.16740
2350.92007	0.18309
2348.99150	0.19334
2347.06294	0.19462
2345.13437	0.18763
2343.20581	0.17889
2341.27725	0.17629
2339.34868	0.17917
2337.42012	0.18348
2335.49155	0.18718
2333.56299	0.19031
2331.63442	0.19355
2329.70586	0.19757
2327.77729	0.20241
2325.84873	0.20778
2323.92017	0.21359
2321.99160	0.22007
2320.06304	0.22743
2318.13447	0.23515
2316.20591	0.24220
2314.27734	0.24787
2312.34878	0.25230
2310.42021	0.25650
2308.49165	0.26124
2306.56309	0.26649
2304.63452	0.27176
2302.70596	0.27634
2300.77739	0.28016
2298.84883	0.28383
2296.92026	0.28746
2294.99170	0.29097
2293.06313	0.29444
2291.13457	0.29784
2289.20601	0.30122
2287.27744	0.30465
2285.34888	0.30797
2283.42031	0.31086
2281.49175	0.31316
2279.56318	0.31497
2277.63462	0.31670
2275.70605	0.31846
2273.77749	0.32029
2271.84893	0.32235
2269.92036	0.32450
2267.99180	0.32662
2266.06323	0.32884
2264.13467	0.33118
2262.20610	0.33347
2260.27754	0.33569
2258.34897	0.33806
2256.42041	0.34067
2254.49185	0.34331
2252.56328	0.34572
2250.63472	0.34804
2248.70615	0.35041
2246.77759	0.35283
2244.84902	0.35525
2242.92046	0.35760
2240.99189	0.35984
2239.06333	0.36209
2237.13477	0.36448
2235.20620	0.36689
2233.27764	0.36920
2231.34907	0.37150
2229.42051	0.37383
2227.49194	0.37605
2225.56338	0.37816
2223.63481	0.38029
2221.70625	0.38251
2219.77769	0.38479
2217.84912	0.38704
2215.92056	0.38923
2213.99199	0.39145
2212.06343	0.39372
2210.13486	0.39592
2208.20630	0.39798
2206.27773	0.39996
2204.34917	0.40198
2202.42061	0.40407
2200.49204	0.40618
2198.56348	0.40835
2196.63491	0.41058
2194.70635	0.41266
2192.77778	0.41450
2190.84922	0.41633
2188.92065	0.41828
2186.99209	0.42018
2185.06353	0.42196
2183.13496	0.42372
2181.20640	0.42546
2179.27783	0.42716
2177.34927	0.42893
2175.42070	0.43065
2173.49214	0.43223
2171.56357	0.43371
2169.63501	0.43516
2167.70645	0.43651
2165.77788	0.43776
2163.84932	0.43907
2161.92075	0.44038
2159.99219	0.44163
2158.06362	0.44277
2156.13506	0.44377
2154.20649	0.44469
2152.27793	0.44560
2150.34937	0.44638
2148.42080	0.44707
2146.49224	0.44781
2144.56367	0.44856
2142.63511	0.44924
2140.70654	0.44979
2138.77798	0.45012
2136.84941	0.45033
2134.92085	0.45049
2132.99229	0.45055
2131.06372	0.45056
2129.13516	0.45051
2127.20659	0.45039
2125.27803	0.45024
2123.34946	0.44993
2121.42090	0.44954
2119.49233	0.44915
2117.56377	0.44869
2115.63521	0.44812
2113.70664	0.44749
2111.77808	0.44676
2109.84951	0.44589
2107.92095	0.44492
2105.99238	0.44389
2104.06382	0.44287
2102.13525	0.44179
2100.20669	0.44060
2098.27812	0.43936
2096.34956	0.43800
2094.42100	0.43657
2092.49243	0.43511
2090.56387	0.43357
2088.63530	0.43192
2086.70674	0.43023
2084.77817	0.42857
2082.84961	0.42700
2080.92104	0.42533
2078.99248	0.42338
2077.06392	0.42129
2075.13535	0.41925
2073.20679	0.41729
2071.27822	0.41528
2069.34966	0.41310
2067.42109	0.41076
2065.49253	0.40839
2063.56396	0.40607
2061.63540	0.40378
2059.70684	0.40152
2057.77827	0.39922
2055.84971	0.39687
2053.92114	0.39443
2051.99258	0.39194
2050.06401	0.38941
2048.13545	0.38688
2046.20688	0.38429
2044.27832	0.38167
2042.34976	0.37910
2040.42119	0.37660
2038.49263	0.37408
2036.56406	0.37142
2034.63550	0.36869
2032.70693	0.36596
2030.77837	0.36329
2028.84980	0.36058
2026.92124	0.35776
2024.99268	0.35503
2023.06411	0.35244
2021.13555	0.34973
2019.20698	0.34684
2017.27842	0.34404
2015.34985	0.34141
2013.42129	0.33886
2011.49272	0.33628
2009.56416	0.33361
2007.63560	0.33087
2005.70703	0.32826
2003.77847	0.32573
2001.84990	0.32315
1999.92134	0.32055
1997.99277	0.31793
1996.06421	0.31532
1994.13564	0.31276
1992.20708	0.31027
1990.27852	0.30777
1988.34995	0.30521
1986.42139	0.30264
1984.49282	0.30019
1982.56426	0.29786
1980.63569	0.29561
1978.70713	0.29336
1976.77856	0.29106
1974.85000	0.28881
1972.92144	0.28667
1970.99287	0.28457
1969.06431	0.28245
1967.13574	0.28036
1965.20718	0.27836
1963.27861	0.27644
1961.35005	0.27447
1959.42148	0.27245
1957.49292	0.27054
1955.56436	0.26875
1953.63579	0.26699
1951.70723	0.26526
1949.77866	0.26365
1947.85010	0.26205
1945.92153	0.26034
1943.99297	0.25862
1942.06440	0.25707
1940.13584	0.25573
1938.20728	0.25443
1936.27871	0.25314
1934.35015	0.25189
1932.42158	0.25065
1930.49302	0.24937
1928.56445	0.24817
1926.63589	0.24708
1924.70732	0.24600
1922.77876	0.24490
1920.85020	0.24386
1918.92163	0.24291
1916.99307	0.24201
1915.06450	0.24119
1913.13594	0.24030
1911.20737	0.23942
1909.27881	0.23866
1907.35024	0.23800
1905.42168	0.23737
1903.49312	0.23684
1901.56455	0.23639
1899.63599	0.23588
1897.70742	0.23531
1895.77886	0.23473
1893.85029	0.23425
1891.92173	0.23382
1889.99316	0.23350
1888.06460	0.23334
1886.13604	0.23317
1884.20747	0.23284
1882.27891	0.23251
1880.35034	0.23236
1878.42178	0.23235
1876.49321	0.23244
1874.56465	0.23247
1872.63608	0.23241
1870.70752	0.23221
1868.77896	0.23219
1866.85039	0.23256
1864.92183	0.23295
1862.99326	0.23322
1861.06470	0.23346
1859.13613	0.23382
1857.20757	0.23423
1855.27900	0.23472
1853.35044	0.23525
1851.42187	0.23577
1849.49331	0.23614
1847.56475	0.23644
1845.63618	0.23687
1843.70762	0.23767
1841.77905	0.23879
1839.85049	0.23966
1837.92192	0.24046
1835.99336	0.24125
1834.06479	0.24206
1832.13623	0.24277
1830.20767	0.24379
1828.27910	0.24533
1826.35054	0.24663
1824.42197	0.24789
1822.49341	0.24931
1820.56484	0.25078
1818.63628	0.25224
1816.70771	0.25387
1814.77915	0.25544
1812.85059	0.25692
1810.92202	0.25864
1808.99346	0.26074
1807.06489	0.26295
1805.13633	0.26496
1803.20776	0.26689
1801.27920	0.26897
1799.35063	0.27166
1797.42207	0.27435
1795.49351	0.27666
1793.56494	0.27903
1791.63638	0.28238
1789.70781	0.28625
1787.77925	0.28935
1785.85068	0.29255
1783.92212	0.29616
1781.99355	0.29999
1780.06499	0.30402
1778.13643	0.30833
1776.20786	0.31230
1774.27930	0.31612
1772.35073	0.32137
1770.42217	0.32784
1768.49360	0.33372
1766.56504	0.33931
1764.63647	0.34480
1762.70791	0.35040
1760.77935	0.35756
1758.85078	0.36462
1756.92222	0.37178
1754.99365	0.37968
1753.06509	0.38666
1751.13652	0.39438
1749.20796	0.40427
1747.27939	0.41482
1745.35083	0.42439
1743.42227	0.43422
1741.49370	0.44482
1739.56514	0.45727
1737.63657	0.46986
1735.70801	0.48045
1733.77944	0.49596
1731.85088	0.51567
1729.92231	0.53200
1727.99375	0.54837
1726.06519	0.56545
1724.13662	0.58351
1722.20806	0.60276
1720.27949	0.62023
1718.35093	0.64032
1716.42236	0.67123
1714.49380	0.70238
1712.56523	0.72794
1710.63667	0.75202
1708.70811	0.77711
1706.77954	0.80508
1704.85098	0.83862
1702.92241	0.86890
1700.99385	0.89822
1699.06528	0.94124
1697.13672	0.98163
1695.20815	1.02399
1693.27959	1.06458
1691.35103	1.09620
1689.42246	1.13199
1687.49390	1.16913
1685.56533	1.20394
1683.63677	1.25818
1681.70820	1.31628
1679.77964	1.35442
1677.85107	1.39062
1675.92251	1.43103
1673.99395	1.48004
1672.06538	1.52323
1670.13682	1.56470
1668.20825	1.61953
1666.27969	1.66474
1664.35112	1.70128
1662.42256	1.74508
1660.49399	1.79486
1658.56543	1.83434
1656.63687	1.86596
1654.70830	1.89455
1652.77974	1.94554
1650.85117	2.00074
1648.92261	2.02222
1646.99404	2.04892
1645.06548	2.08462
1643.13691	2.11105
1641.20835	2.12733
1639.27979	2.14096
1637.35122	2.15042
1635.42266	2.15420
1633.49409	2.15265
1631.56553	2.14494
1629.63696	2.13353
1627.70840	2.11218
1625.77983	2.08498
1623.85127	2.04953
1621.92271	2.00607
1619.99414	1.96631
1618.06558	1.92629
1616.13701	1.86948
1614.20845	1.81147
1612.27988	1.76703
1610.35132	1.71983
1608.42275	1.66720
1606.49419	1.61424
1604.56562	1.56507
1602.63706	1.51727
1600.70850	1.47021
1598.77993	1.42664
1596.85137	1.38549
1594.92280	1.34575
1592.99424	1.30744
1591.06567	1.27184
1589.13711	1.23806
1587.20854	1.20599
1585.27998	1.17561
1583.35142	1.14675
1581.42285	1.11992
1579.49429	1.09637
1577.56572	1.07453
1575.63716	1.04739
1573.70859	1.02343
1571.78003	1.00731
1569.85146	0.98885
1567.92290	0.96770
1565.99434	0.95138
1564.06577	0.93724
1562.13721	0.92478
1560.20864	0.91296
1558.28008	0.89204
1556.35151	0.87482
1554.42295	0.86536
1552.49438	0.85568
1550.56582	0.84559
1548.63726	0.83505
1546.70869	0.82567
1544.78013	0.81687
1542.85156	0.80767
1540.92300	0.79776
1538.99443	0.78640
1537.06587	0.77902
1535.13730	0.77358
1533.20874	0.76625
1531.28018	0.75853
1529.35161	0.75273
1527.42305	0.74687
1525.49448	0.74048
1523.56592	0.73444
1521.63735	0.72815
1519.70879	0.72209
1517.78022	0.71715
1515.85166	0.71191
1513.92310	0.70712
1511.99453	0.70311
1510.06597	0.69897
1508.13740	0.69456
1506.20884	0.68905
1504.28027	0.68531
1502.35171	0.68297
1500.42314	0.68019
1498.49458	0.67672
1496.56602	0.67292
1494.63745	0.66971
1492.70889	0.66705
1490.78032	0.66411
1488.85176	0.66068
1486.92319	0.65783
1484.99463	0.65528
1483.06606	0.65259
1481.13750	0.64985
1479.20894	0.64719
1477.28037	0.64451
1475.35181	0.64170
1473.42324	0.63889
1471.49468	0.63574
1469.56611	0.63294
1467.63755	0.63061
1465.70898	0.62827
1463.78042	0.62592
1461.85186	0.62379
1459.92329	0.62165
1457.99473	0.61901
1456.06616	0.61641
1454.13760	0.61472
1452.20903	0.61324
1450.28047	0.61172
1448.35190	0.61022
1446.42334	0.60861
1444.49478	0.60701
1442.56621	0.60558
1440.63765	0.60422
1438.70908	0.60284
1436.78052	0.60132
1434.85195	0.59995
1432.92339	0.59880
1430.99482	0.59752
1429.06626	0.59590
1427.13770	0.59418
1425.20913	0.59254
1423.28057	0.59098
1421.35200	0.58954
1419.42344	0.58799
1417.49487	0.58654
1415.56631	0.58545
1413.63774	0.58436
1411.70918	0.58305
1409.78062	0.58165
1407.85205	0.58023
1405.92349	0.57880
1403.99492	0.57748
1402.06636	0.57627
1400.13779	0.57501
1398.20923	0.57366
1396.28066	0.57236
1394.35210	0.57113
1392.42354	0.57004
1390.49497	0.56897
1388.56641	0.56780
1386.63784	0.56654
1384.70928	0.56542
1382.78071	0.56446
1380.85215	0.56346
1378.92358	0.56243
1376.99502	0.56142
1375.06646	0.56039
1373.13789	0.55947
1371.20933	0.55864
1369.28076	0.55776
1367.35220	0.55684
1365.42363	0.55586
1363.49507	0.55479
1361.56650	0.55381
1359.63794	0.55307
1357.70937	0.55241
1355.78081	0.55162
1353.85225	0.55077
1351.92368	0.55001
1349.99512	0.54924
1348.06655	0.54838
1346.13799	0.54753
1344.20942	0.54671
1342.28086	0.54565
1340.35229	0.54435
1338.42373	0.54327
1336.49517	0.54261
1334.56660	0.54201
1332.63804	0.54127
1330.70947	0.54047
1328.78091	0.53965
1326.85234	0.53883
1324.92378	0.53801
1322.99521	0.53712
1321.06665	0.53605
1319.13809	0.53498
1317.20952	0.53413
1315.28096	0.53343
1313.35239	0.53265
1311.42383	0.53188
1309.49526	0.53116
1307.56670	0.53047
1305.63813	0.52978
1303.70957	0.52893
1301.78101	0.52793
1299.85244	0.52691
1297.92388	0.52596
1295.99531	0.52514
1294.06675	0.52437
1292.13818	0.52350
1290.20962	0.52262
1288.28105	0.52186
1286.35249	0.52125
1284.42393	0.52066
1282.49536	0.52006
1280.56680	0.51948
1278.63823	0.51875
1276.70967	0.51787
1274.78110	0.51704
1272.85254	0.51625
1270.92397	0.51547
1268.99541	0.51482
1267.06685	0.51418
1265.13828	0.51344
1263.20972	0.51273
1261.28115	0.51209
1259.35259	0.51145
1257.42402	0.51077
1255.49546	0.51014
1253.56689	0.50967
1251.63833	0.50924
1249.70977	0.50871
1247.78120	0.50808
1245.85264	0.50739
1243.92407	0.50671
1241.99551	0.50608
1240.06694	0.50544
1238.13838	0.50474
1236.20981	0.50402
1234.28125	0.50324
1232.35269	0.50237
1230.42412	0.50145
1228.49556	0.50049
1226.56699	0.49960
1224.63843	0.49876
1222.70986	0.49790
1220.78130	0.49714
1218.85273	0.49646
1216.92417	0.49565
1214.99561	0.49471
1213.06704	0.49367
1211.13848	0.49270
1209.20991	0.49188
1207.28135	0.49108
1205.35278	0.49018
1203.42422	0.48921
1201.49565	0.48830
1199.56709	0.48748
1197.63853	0.48659
1195.70996	0.48559
1193.78140	0.48465
1191.85283	0.48375
1189.92427	0.48273
1187.99570	0.48175
1186.06714	0.48095
1184.13857	0.48011
1182.21001	0.47908
1180.28145	0.47797
1178.35288	0.47694
1176.42432	0.47606
1174.49575	0.47521
1172.56719	0.47429
1170.63862	0.47337
1168.71006	0.47249
1166.78149	0.47174
1164.85293	0.47109
1162.92437	0.47036
1160.99580	0.46954
1159.06724	0.46868
1157.13867	0.46775
1155.21011	0.46685
1153.28154	0.46601
1151.35298	0.46520
1149.42441	0.46440
1147.49585	0.46361
1145.56729	0.46294
1143.63872	0.46224
1141.71016	0.46132
1139.78159	0.46026
1137.85303	0.45929
1135.92446	0.45848
1133.99590	0.45775
1132.06733	0.45710
1130.13877	0.45641
1128.21021	0.45548
1126.28164	0.45446
1124.35308	0.45371
1122.42451	0.45319
1120.49595	0.45282
1118.56738	0.45261
1116.63882	0.45229
1114.71025	0.45172
1112.78169	0.45115
1110.85312	0.45071
1108.92456	0.45026
1106.99600	0.44987
1105.06743	0.44973
1103.13887	0.44955
1101.21030	0.44915
1099.28174	0.44880
1097.35317	0.44846
1095.42461	0.44796
1093.49604	0.44750
1091.56748	0.44732
1089.63892	0.44720
1087.71035	0.44685
1085.78179	0.44633
1083.85322	0.44576
1081.92466	0.44544
1079.99609	0.44554
1078.06753	0.44570
1076.13896	0.44567
1074.21040	0.44559
1072.28184	0.44537
1070.35327	0.44513
1068.42471	0.44526
1066.49614	0.44581
1064.56758	0.44625
1062.63901	0.44633
1060.71045	0.44640
1058.78188	0.44674
1056.85332	0.44716
1054.92476	0.44734
1052.99619	0.44744
1051.06763	0.44778
1049.13906	0.44819
1047.21050	0.44849
1045.28193	0.44890
1043.35337	0.44948
1041.42480	0.45004
1039.49624	0.45044
1037.56768	0.45088
1035.63911	0.45178
1033.71055	0.45298
1031.78198	0.45414
1029.85342	0.45527
1027.92485	0.45632
1025.99629	0.45722
1024.06772	0.45818
1022.13916	0.45927
1020.21060	0.46036
1018.28203	0.46153
1016.35347	0.46297
1014.42490	0.46448
1012.49634	0.46586
1010.56777	0.46727
1008.63921	0.46872
1006.71064	0.47020
1004.78208	0.47180
1002.85352	0.47347
1000.92495	0.47512
998.99639	0.47676
997.06782	0.47868
995.13926	0.48084
993.21069	0.48306
991.28213	0.48533
989.35356	0.48766
987.42500	0.49006
985.49644	0.49268
983.56787	0.49550
981.63931	0.49832
979.71074	0.50107
977.78218	0.50398
975.85361	0.50722
973.92505	0.51043
971.99648	0.51341
970.06792	0.51660
968.13936	0.52021
966.21079	0.52400
964.28223	0.52801
962.35366	0.53234
960.42510	0.53677
958.49653	0.54108
956.56797	0.54531
954.63940	0.54963
952.71084	0.55424
950.78228	0.55895
948.85371	0.56354
946.92515	0.56837
944.99658	0.57363
943.06802	0.57907
941.13945	0.58458
939.21089	0.59022
937.28232	0.59621
935.35376	0.60261
933.42520	0.60887
931.49663	0.61513
929.56807	0.62210
927.63950	0.62948
925.71094	0.63649
923.78237	0.64302
921.85381	0.64986
919.92524	0.65781
917.99668	0.66614
916.06812	0.67374
914.13955	0.68118
912.21099	0.68951
910.28242	0.69837
908.35386	0.70689
906.42529	0.71568
904.49673	0.72514
902.56816	0.73434
900.63960	0.74341
898.71104	0.75249
896.78247	0.76109
894.85391	0.76997
892.92534	0.77959
890.99678	0.78963
889.06821	0.79992
887.13965	0.81051
885.21108	0.82210
883.28252	0.83405
881.35396	0.84503
879.42539	0.85523
877.49683	0.86542
875.56826	0.87589
873.63970	0.88662
871.71113	0.89790
869.78257	0.90936
867.85400	0.92048
865.92544	0.93212
863.99687	0.94432
862.06831	0.95576
860.13975	0.96672
858.21118	0.97861
856.28262	0.99027
854.35405	1.00062
852.42549	1.01170
850.49692	1.02513
848.56836	1.03856
846.63979	1.04967
844.71123	1.06003
842.78267	1.07107
840.85410	1.08291
838.92554	1.09553
836.99697	1.10855
835.06841	1.11971
833.13984	1.12730
831.21128	1.13413
829.28271	1.14294
827.35415	1.15386
825.42559	1.16690
823.49702	1.18067
821.56846	1.19166
819.63989	1.20272
817.71133	1.21569
815.78276	1.22527
813.85420	1.23413
811.92563	1.24474
809.99707	1.25422
808.06851	1.26760
806.13994	1.28593
804.21138	1.30313
802.28281	1.31686
800.35425	1.31950
798.42568	1.31863
796.49712	1.33093
794.56855	1.34792
792.63999	1.34599
790.71143	1.31725
788.78286	1.28628
786.85430	1.27947
784.92573	1.30438
782.99717	1.36729
781.06860	1.46227
779.14004	1.48125
777.21147	1.41823
775.28291	1.38154
773.35435	1.36055
771.42578	1.36584
769.49722	1.37574
767.56865	1.36163
765.64009	1.37657
763.71152	1.42073
761.78296	1.43637
759.85439	1.44456
757.92583	1.50606
755.99727	1.53185
754.06870	1.42232
752.14014	1.28695
750.21157	1.22609
748.28301	1.21891
746.35444	1.17627
744.42588	1.14036
742.49731	1.09306
740.56875	0.92003
738.64019	0.79171
736.71162	0.79629
734.78306	0.90659
732.85449	1.05905
730.92593	0.93175
728.99736	0.59848
727.06880	0.39202
725.14023	0.32514
723.21167	0.35564
721.28311	0.37459
719.35454	0.32545
717.42598	0.25756
715.49741	0.29143
713.56885	0.44881
711.64028	0.31736
709.71172	0.16489
707.78315	0.07606
705.85459	-0.01697
703.92603	-0.05653
701.99746	0.00452
700.06890	0.13276
698.14033	0.26641
696.21177	0.32066
694.28320	0.38474
692.35464	0.69196
690.42607	4.14256
688.49751	0.96448
686.56895	0.46436
684.64038	0.45030
682.71182	0.69123
680.78325	0.85458
678.85469	0.55472
676.92612	0.44451
674.99756	0.41887
673.06899	0.30501
671.14043	0.20454
669.21187	0.16349
667.28330	0.17697
665.35474	0.23490
663.42617	0.26291
661.49761	0.22484
659.56904	0.21455
657.64048	0.27781
655.71191	0.37684
653.78335	0.41138
651.85479	0.38813
649.92622	0.34824
647.99766	0.28793
646.06909	0.23229
644.14053	0.15977
642.21196	0.08378
640.28340	0.06565
638.35483	0.11054
636.42627	0.19847
634.49771	0.27795
632.56914	0.25908
630.64058	0.20008
628.71201	0.20051
626.78345	0.22865
624.85488	0.26301
622.92632	0.27820
620.99775	0.24830
619.06919	0.18977
617.14062	0.15977
615.21206	0.19636
613.28350	0.26301
611.35493	0.27239
609.42637	0.22818
607.49780	0.20609
605.56924	0.23204
603.64067	0.27203
601.71211	0.25135
599.78354	0.18941
597.85498	0.14984
595.92642	0.18309
593.99785	0.30655
592.06929	0.39911
590.14072	0.35536
588.21216	0.28665
586.28359	0.21353
584.35503	0.17082
582.42646	0.17707
580.49790	0.18802
578.56934	0.15561
576.64077	0.13221
574.71221	0.15865
572.78364	0.20903
570.85508	0.26637
568.92651	0.32298
566.99795	0.32181
565.06938	0.24275
563.14082	0.17177
561.21226	0.15754
559.28369	0.16798
557.35513	0.17036
555.42656	0.14051
553.49800	0.12906
551.56943	0.19161
549.64087	0.26845
547.71230	0.27694
545.78374	0.23800
543.85518	0.18921
541.92661	0.16233
539.99805	0.19508
538.06948	0.25126
536.14092	0.24209
534.21235	0.20455
532.28379	0.22006
530.35522	0.29498
528.42666	0.36269
526.49810	0.36711
524.56953	0.34476
522.64097	0.26392
520.71240	0.18085
518.78384	0.19553
516.85527	0.27829
514.92671	0.27640
512.99814	0.23525
511.06958	0.23678
509.14102	0.27004
507.21245	0.32093
505.28389	0.39704
503.35532	0.41525
501.42676	0.34183
499.49819	0.32078
