3997.91411	0.06972
3995.98555	0.07002
3994.05698	0.07055
3992.12842	0.07152
3990.19985	0.07221
3988.27129	0.07226
3986.34272	0.07234
3984.41416	0.07272
3982.48560	0.07313
3980.55703	0.07334
3978.62847	0.07325
3976.69990	0.07324
3974.77134	0.07342
3972.84277	0.07341
3970.91421	0.07332
3968.98564	0.07350
3967.05708	0.07378
3965.12852	0.07383
3963.19995	0.07358
3961.27139	0.07345
3959.34282	0.07405
3957.41426	0.07487
3955.48569	0.07489
3953.55713	0.07442
3951.62856	0.07441
3949.70000	0.07476
3947.77144	0.07490
3945.84287	0.07474
3943.91431	0.07456
3941.98574	0.07455
3940.05718	0.07454
3938.12861	0.07448
3936.20005	0.07447
3934.27148	0.07440
3932.34292	0.07426
3930.41436	0.07415
3928.48579	0.07406
3926.55723	0.07403
3924.62866	0.07412
3922.70010	0.07400
3920.77153	0.07379
3918.84297	0.07370
3916.91440	0.07366
3914.98584	0.07392
3913.05728	0.07413
3911.12871	0.07395
3909.20015	0.07363
3907.27158	0.07334
3905.34302	0.07309
3903.41445	0.07316
3901.48589	0.07348
3899.55732	0.07378
3897.62876	0.07414
3895.70020	0.07426
3893.77163	0.07413
3891.84307	0.07421
3889.91450	0.07445
3887.98594	0.07423
3886.05737	0.07376
3884.12881	0.07336
3882.20024	0.07315
3880.27168	0.07329
3878.34312	0.07362
3876.41455	0.07389
3874.48599	0.07432
3872.55742	0.07500
3870.62886	0.07555
3868.70029	0.07569
3866.77173	0.07558
3864.84316	0.07568
3862.91460	0.07588
3860.98604	0.07604
3859.05747	0.07651
3857.12891	0.07687
3855.20034	0.07658
3853.27178	0.07637
3851.34321	0.07775
3849.41465	0.07912
3847.48608	0.07974
3845.55752	0.08005
3843.62896	0.08015
3841.70039	0.08037
3839.77183	0.08131
3837.84326	0.08288
3835.91470	0.08366
3833.98613	0.08359
3832.05757	0.08398
3830.12900	0.08463
3828.20044	0.08507
3826.27187	0.08576
3824.34331	0.08667
3822.41475	0.08745
3820.48618	0.08878
3818.55762	0.08989
3816.62905	0.09046
3814.70049	0.09187
3812.77192	0.09300
3810.84336	0.09338
3808.91479	0.09385
3806.98623	0.09463
3805.05767	0.09566
3803.12910	0.09656
3801.20054	0.09768
3799.27197	0.09934
3797.34341	0.10074
3795.41484	0.10201
3793.48628	0.10319
3791.55771	0.10430
3789.62915	0.10562
3787.70059	0.10696
3785.77202	0.10828
3783.84346	0.10971
3781.91489	0.11102
3779.98633	0.11238
3778.05776	0.11423
3776.12920	0.11604
3774.20063	0.11760
3772.27207	0.11911
3770.34351	0.12072
3768.41494	0.12265
3766.48638	0.12485
3764.55781	0.12727
3762.62925	0.12928
3760.70068	0.13090
3758.77212	0.13309
3756.84355	0.13565
3754.91499	0.13760
3752.98643	0.13924
3751.05786	0.14182
3749.12930	0.14611
3747.20073	0.14942
3745.27217	0.15139
3743.34360	0.15477
3741.41504	0.15864
3739.48647	0.16113
3737.55791	0.16330
3735.62935	0.16617
3733.70078	0.17090
3731.77222	0.17672
3729.84365	0.18160
3727.91509	0.18546
3725.98652	0.18989
3724.05796	0.19597
3722.12939	0.20346
3720.20083	0.21202
3718.27227	0.22083
3716.34370	0.22921
3714.41514	0.23698
3712.48657	0.24531
3710.55801	0.25688
3708.62944	0.27094
3706.70088	0.28374
3704.77231	0.29558
3702.84375	0.30860
3700.91519	0.32538
3698.98662	0.34411
3697.05806	0.36197
3695.12949	0.38095
3693.20093	0.40100
3691.27236	0.42228
3689.34380	0.45004
3687.41523	0.48565
3685.48667	0.51769
3683.55811	0.54492
3681.62954	0.57338
3679.70098	0.60496
3677.77241	0.63796
3675.84385	0.67674
3673.91528	0.73001
3671.98672	0.77468
3670.05815	0.81355
3668.12959	0.86741
3666.20103	0.91823
3664.27246	0.96045
3662.34390	1.00460
3660.41533	1.05192
3658.48677	1.09829
3656.55820	1.14730
3654.62964	1.20235
3652.70107	1.24859
3650.77251	1.28790
3648.84395	1.34242
3646.91538	1.41252
3644.98682	1.46660
3643.05825	1.50820
3641.12969	1.54901
3639.20112	1.59243
3637.27256	1.63571
3635.34399	1.67822
3633.41543	1.72113
3631.48687	1.76132
3629.55830	1.80205
3627.62974	1.85682
3625.70117	1.90919
3623.77261	1.94400
3621.84404	1.97641
3619.91548	2.01317
3617.98691	2.05821
3616.05835	2.10287
3614.12979	2.14092
3612.20122	2.18154
3610.27266	2.22241
3608.34409	2.26218
3606.41553	2.30438
3604.48696	2.34406
3602.55840	2.37836
3600.62983	2.41469
3598.70127	2.45584
3596.77271	2.49727
3594.84414	2.53857
3592.91558	2.58054
3590.98701	2.61960
3589.05845	2.65521
3587.12988	2.69829
3585.20132	2.74790
3583.27275	2.79050
3581.34419	2.82846
3579.41562	2.86849
3577.48706	2.91143
3575.55850	2.95447
3573.62993	2.99765
3571.70137	3.03979
3569.77280	3.08056
3567.84424	3.12378
3565.91567	3.17555
3563.98711	3.22470
3562.05854	3.26473
3560.12998	3.30646
3558.20142	3.35268
3556.27285	3.39913
3554.34429	3.44176
3552.41572	3.48523
3550.48716	3.53291
3548.55859	3.57985
3546.63003	3.62531
3544.70146	3.67455
3542.77290	3.72397
3540.84434	3.76860
3538.91577	3.81287
3536.98721	3.85912
3535.05864	3.90746
3533.13008	3.95492
3531.20151	4.00148
3529.27295	4.04929
3527.34438	4.09621
3525.41582	4.14049
3523.48726	4.18672
3521.55869	4.23769
3519.63013	4.28981
3517.70156	4.34102
3515.77300	4.38724
3513.84443	4.42913
3511.91587	4.47205
3509.98730	4.51679
3508.05874	4.56649
3506.13018	4.62178
3504.20161	4.67444
3502.27305	4.72360
3500.34448	4.77040
3498.41592	4.81018
3496.48735	4.84910
3494.55879	4.89710
3492.63022	4.95309
3490.70166	5.00799
3488.77310	5.05897
3486.84453	5.10966
3484.91597	5.15760
3482.98740	5.19909
3481.05884	5.23867
3479.13027	5.27854
3477.20171	5.32160
3475.27314	5.37797
3473.34458	5.44449
3471.41602	5.50325
3469.48745	5.54319
3467.55889	5.57537
3465.63032	5.62066
3463.70176	5.67795
3461.77319	5.73307
3459.84463	5.77729
3457.91606	5.81417
3455.98750	5.86930
3454.05894	5.93491
3452.13037	5.97938
3450.20181	6.01291
3448.27324	6.05576
3446.34468	6.11364
3444.41611	6.17823
3442.48755	6.23391
3440.55898	6.26383
3438.63042	6.27589
3436.70186	6.30037
3434.77329	6.35639
3432.84473	6.43557
3430.91616	6.50193
3428.98760	6.54582
3427.05903	6.58654
3425.13047	6.63475
3423.20190	6.68282
3421.27334	6.73075
3419.34478	6.77699
3417.41621	6.82568
3415.48765	6.88256
3413.55908	6.93353
3411.63052	6.98105
3409.70195	7.02768
3407.77339	7.07655
3405.84482	7.11292
3403.91626	7.15082
3401.98770	7.20911
3400.05913	7.24885
3398.13057	7.26820
3396.20200	7.31136
3394.27344	7.37795
3392.34487	7.40787
3390.41631	7.40269
3388.48774	7.42071
3386.55918	7.48342
3384.63062	7.54832
3382.70205	7.59847
3380.77349	7.63995
3378.84492	7.65978
3376.91636	7.66818
3374.98779	7.66045
3373.05923	7.67697
3371.13066	7.71519
3369.20210	7.72992
3367.27354	7.73333
3365.34497	7.76790
3363.41641	7.81388
3361.48784	7.81041
3359.55928	7.81127
3357.63071	7.84392
3355.70215	7.86488
3353.77358	7.88066
3351.84502	7.90785
3349.91646	7.91343
3347.98789	7.93816
3346.05933	7.99922
3344.13076	8.01017
3342.20220	7.99206
3340.27363	8.00543
3338.34507	8.03695
3336.41650	8.04254
3334.48794	8.05188
3332.55937	8.10415
3330.63081	8.15699
3328.70225	8.14387
3326.77368	8.08687
3324.84512	8.04193
3322.91655	8.03492
3320.98799	8.08187
3319.05942	8.08420
3317.13086	8.01577
3315.20229	7.98628
3313.27373	8.00991
3311.34517	8.01845
3309.41660	8.03052
3307.48804	8.05568
3305.55947	8.03512
3303.63091	8.01809
3301.70234	8.02176
3299.77378	8.04041
3297.84521	8.07569
3295.91665	8.07911
3293.98809	8.09406
3292.05952	8.15455
3290.13096	8.18602
3288.20239	8.18154
3286.27383	8.16490
3284.34526	8.11474
3282.41670	8.05134
3280.48813	8.05239
3278.55957	8.15105
3276.63101	8.19049
3274.70244	8.11779
3272.77388	8.05410
3270.84531	8.01866
3268.91675	8.01734
3266.98818	8.07138
3265.05962	8.17640
3263.13105	8.26225
3261.20249	8.27518
3259.27393	8.23705
3257.34536	8.19667
3255.41680	8.18261
3253.48823	8.21008
3251.55967	8.27473
3249.63110	8.25886
3247.70254	8.15413
3245.77397	8.09288
3243.84541	8.05351
3241.91685	7.98525
3239.98828	7.95578
3238.05972	7.99008
3236.13115	8.03903
3234.20259	8.04782
3232.27402	8.03769
3230.34546	8.04674
3228.41689	8.04676
3226.48833	8.02525
3224.55977	7.99660
3222.63120	7.99414
3220.70264	8.01385
3218.77407	8.00518
3216.84551	7.94324
3214.91694	7.86113
3212.98838	7.81844
3211.05981	7.81873
3209.13125	7.81563
3207.20269	7.80886
3205.27412	7.80259
3203.34556	7.75379
3201.41699	7.70447
3199.48843	7.69566
3197.55986	7.66326
3195.63130	7.58674
3193.70273	7.51690
3191.77417	7.44900
3189.84561	7.36790
3187.91704	7.32134
3185.98848	7.31856
3184.05991	7.30493
3182.13135	7.26212
3180.20278	7.21605
3178.27422	7.16070
3176.34565	7.08341
3174.41709	6.99704
3172.48853	6.93046
3170.55996	6.89173
3168.63140	6.83178
3166.70283	6.74656
3164.77427	6.68629
3162.84570	6.64699
3160.91714	6.59191
3158.98857	6.51520
3157.06001	6.43428
3155.13145	6.35986
3153.20288	6.29894
3151.27432	6.25456
3149.34575	6.20418
3147.41719	6.12800
3145.48862	6.04366
3143.56006	5.97356
3141.63149	5.91905
3139.70293	5.86436
3137.77437	5.79845
3135.84580	5.71972
3133.91724	5.63130
3131.98867	5.54943
3130.06011	5.48342
3128.13154	5.42395
3126.20298	5.36402
3124.27441	5.30025
3122.34585	5.22637
3120.41729	5.14968
3118.48872	5.07857
3116.56016	5.00969
3114.63159	4.94280
3112.70303	4.87644
3110.77446	4.80665
3108.84590	4.73375
3106.91733	4.66395
3104.98877	4.60034
3103.06021	4.53615
3101.13164	4.47075
3099.20308	4.40936
3097.27451	4.34852
3095.34595	4.28296
3093.41738	4.21615
3091.48882	4.15347
3089.56025	4.09392
3087.63169	4.03508
3085.70312	3.97551
3083.77456	3.91546
3081.84600	3.85738
3079.91743	3.80059
3077.98887	3.74360
3076.06030	3.68621
3074.13174	3.62766
3072.20317	3.56992
3070.27461	3.51554
3068.34604	3.46264
3066.41748	3.40891
3064.48892	3.35491
3062.56035	3.30139
3060.63179	3.24867
3058.70322	3.19677
3056.77466	3.14544
3054.84609	3.09433
3052.91753	3.04310
3050.98896	2.99226
3049.06040	2.94335
3047.13184	2.89633
3045.20327	2.84864
3043.27471	2.79987
3041.34614	2.75196
3039.41758	2.70594
3037.48901	2.66147
3035.56045	2.61765
3033.63188	2.57398
3031.70332	2.53014
3029.77476	2.48627
3027.84619	2.44325
3025.91763	2.40125
3023.98906	2.35985
3022.06050	2.31923
3020.13193	2.27943
3018.20337	2.23990
3016.27480	2.20061
3014.34624	2.16234
3012.41768	2.12517
3010.48911	2.08847
3008.56055	2.05236
3006.63198	2.01690
3004.70342	1.98197
3002.77485	1.94820
3000.84629	1.91578
2998.91772	1.88383
2996.98916	1.85178
2995.06060	1.82010
2993.13203	1.78946
2991.20347	1.76006
2989.27490	1.73137
2987.34634	1.70284
2985.41777	1.67510
2983.48921	1.64845
2981.56064	1.62195
2979.63208	1.59574
2977.70352	1.57064
2975.77495	1.54621
2973.84639	1.52201
2971.91782	1.49843
2969.98926	1.47538
2968.06069	1.45236
2966.13213	1.42957
2964.20356	1.40734
2962.27500	1.38494
2960.34644	1.36186
2958.41787	1.33881
2956.48931	1.31584
2954.56074	1.29246
2952.63218	1.26915
2950.70361	1.24639
2948.77505	1.22407
2946.84648	1.20239
2944.91792	1.18131
2942.98936	1.16066
2941.06079	1.14081
2939.13223	1.12130
2937.20366	1.10134
2935.27510	1.08131
2933.34653	1.06179
2931.41797	1.04273
2929.48940	1.02376
2927.56084	1.00502
2925.63228	0.98650
2923.70371	0.96826
2921.77515	0.95075
2919.84658	0.93392
2917.91802	0.91715
2915.98945	0.90026
2914.06089	0.88404
2912.13232	0.86862
2910.20376	0.85320
2908.27520	0.83795
2906.34663	0.82339
2904.41807	0.80914
2902.48950	0.79512
2900.56094	0.78155
2898.63237	0.76836
2896.70381	0.75570
2894.77524	0.74338
2892.84668	0.73115
2890.91812	0.71937
2888.98955	0.70812
2887.06099	0.69718
2885.13242	0.68684
2883.20386	0.67710
2881.27529	0.66755
2879.34673	0.65807
2877.41816	0.64857
2875.48960	0.63900
2873.56104	0.62945
2871.63247	0.61950
2869.70391	0.60863
2867.77534	0.59720
2865.84678	0.58576
2863.91821	0.57423
2861.98965	0.56274
2860.06108	0.55183
2858.13252	0.54151
2856.20396	0.53135
2854.27539	0.52144
2852.34683	0.51235
2850.41826	0.50398
2848.48970	0.49593
2846.56113	0.48814
2844.63257	0.48074
2842.70400	0.47385
2840.77544	0.46745
2838.84687	0.46147
2836.91831	0.45573
2834.98975	0.44988
2833.06118	0.44382
2831.13262	0.43777
2829.20405	0.43185
2827.27549	0.42605
2825.34692	0.42026
2823.41836	0.41433
2821.48979	0.40835
2819.56123	0.40259
2817.63267	0.39696
2815.70410	0.39134
2813.77554	0.38591
2811.84697	0.38068
2809.91841	0.37538
2807.98984	0.36989
2806.06128	0.36446
2804.13271	0.35927
2802.20415	0.35426
2800.27559	0.34926
2798.34702	0.34433
2796.41846	0.33963
2794.48989	0.33500
2792.56133	0.33043
2790.63276	0.32602
2788.70420	0.32165
2786.77563	0.31732
2784.84707	0.31312
2782.91851	0.30896
2780.98994	0.30484
2779.06138	0.30080
2777.13281	0.29687
2775.20425	0.29310
2773.27568	0.28948
2771.34712	0.28576
2769.41855	0.28185
2767.48999	0.27798
2765.56143	0.27445
2763.63286	0.27111
2761.70430	0.26773
2759.77573	0.26439
2757.84717	0.26120
2755.91860	0.25812
2753.99004	0.25501
2752.06147	0.25186
2750.13291	0.24887
2748.20435	0.24606
2746.27578	0.24327
2744.34722	0.24045
2742.41865	0.23767
2740.49009	0.23493
2738.56152	0.23229
2736.63296	0.22980
2734.70439	0.22732
2732.77583	0.22476
2730.84727	0.22229
2728.91870	0.21999
2726.99014	0.21780
2725.06157	0.21562
2723.13301	0.21338
2721.20444	0.21115
2719.27588	0.20900
2717.34731	0.20698
2715.41875	0.20507
2713.49019	0.20325
2711.56162	0.20150
2709.63306	0.19978
2707.70449	0.19803
2705.77593	0.19634
2703.84736	0.19481
2701.91880	0.19332
2699.99023	0.19170
2698.06167	0.19011
2696.13311	0.18870
2694.20454	0.18741
2692.27598	0.18609
2690.34741	0.18468
2688.41885	0.18329
2686.49028	0.18204
2684.56172	0.18079
2682.63315	0.17951
2680.70459	0.17837
2678.77603	0.17741
2676.84746	0.17641
2674.91890	0.17512
2672.99033	0.17379
2671.06177	0.17282
2669.13320	0.17199
2667.20464	0.17096
2665.27607	0.16979
2663.34751	0.16864
2661.41895	0.16773
2659.49038	0.16712
2657.56182	0.16654
2655.63325	0.16571
2653.70469	0.16478
2651.77612	0.16399
2649.84756	0.16336
2647.91899	0.16274
2645.99043	0.16207
2644.06187	0.16153
2642.13330	0.16106
2640.20474	0.16048
2638.27617	0.15981
2636.34761	0.15915
2634.41904	0.15855
2632.49048	0.15804
2630.56191	0.15761
2628.63335	0.15726
2626.70479	0.15692
2624.77622	0.15656
2622.84766	0.15622
2620.91909	0.15587
2618.99053	0.15550
2617.06196	0.15522
2615.13340	0.15507
2613.20483	0.15490
2611.27627	0.15455
2609.34771	0.15423
2607.41914	0.15414
2605.49058	0.15406
2603.56201	0.15378
2601.63345	0.15355
2599.70488	0.15359
2597.77632	0.15372
2595.84775	0.15372
2593.91919	0.15365
2591.99062	0.15365
2590.06206	0.15371
2588.13350	0.15380
2586.20493	0.15393
2584.27637	0.15409
2582.34780	0.15427
2580.41924	0.15454
2578.49067	0.15489
2576.56211	0.15514
2574.63354	0.15532
2572.70498	0.15558
2570.77642	0.15579
2568.84785	0.15591
2566.91929	0.15617
2564.99072	0.15662
2563.06216	0.15707
2561.13359	0.15738
2559.20503	0.15754
2557.27646	0.15773
2555.34790	0.15816
2553.41934	0.15868
2551.49077	0.15915
2549.56221	0.15966
2547.63364	0.16025
2545.70508	0.16088
2543.77651	0.16145
2541.84795	0.16198
2539.91938	0.16253
2537.99082	0.16310
2536.06226	0.16358
2534.13369	0.16398
2532.20513	0.16452
2530.27656	0.16521
2528.34800	0.16584
2526.41943	0.16638
2524.49087	0.16705
2522.56230	0.16781
2520.63374	0.16850
2518.70518	0.16917
2516.77661	0.16985
2514.84805	0.17054
2512.91948	0.17128
2510.99092	0.17206
2509.06235	0.17286
2507.13379	0.17362
2505.20522	0.17424
2503.27666	0.17476
2501.34810	0.17535
2499.41953	0.17609
2497.49097	0.17695
2495.56240	0.17777
2493.63384	0.17850
2491.70527	0.17934
2489.77671	0.18024
2487.84814	0.18097
2485.91958	0.18162
2483.99102	0.18237
2482.06245	0.18329
2480.13389	0.18432
2478.20532	0.18527
2476.27676	0.18601
2474.34819	0.18675
2472.41963	0.18764
2470.49106	0.18852
2468.56250	0.18932
2466.63394	0.19019
2464.70537	0.19106
2462.77681	0.19184
2460.84824	0.19266
2458.91968	0.19363
2456.99111	0.19460
2455.06255	0.19549
2453.13398	0.19634
2451.20542	0.19715
2449.27686	0.19790
2447.34829	0.19876
2445.41973	0.19977
2443.49116	0.20075
2441.56260	0.20167
2439.63403	0.20266
2437.70547	0.20374
2435.77690	0.20475
2433.84834	0.20568
2431.91978	0.20670
2429.99121	0.20786
2428.06265	0.20898
2426.13408	0.20989
2424.20552	0.21074
2422.27695	0.21170
2420.34839	0.21275
2418.41982	0.21374
2416.49126	0.21461
2414.56270	0.21559
2412.63413	0.21676
2410.70557	0.21795
2408.77700	0.21907
2406.84844	0.22019
2404.91987	0.22139
2402.99131	0.22264
2401.06274	0.22387
2399.13418	0.22508
2397.20562	0.22624
2395.27705	0.22732
2393.34849	0.22840
2391.41992	0.22954
2389.49136	0.23065
2387.56279	0.23160
2385.63423	0.23220
2383.70566	0.23218
2381.77710	0.23152
2379.84854	0.23050
2377.91997	0.22924
2375.99141	0.22743
2374.06284	0.22495
2372.13428	0.22185
2370.20571	0.21823
2368.27715	0.21460
2366.34858	0.21184
2364.42002	0.21039
2362.49146	0.20971
2360.56289	0.20955
2358.63433	0.21090
2356.70576	0.21444
2354.77720	0.21987
2352.84863	0.22694
2350.92007	0.23425
2348.99150	0.23884
2347.06294	0.23951
2345.13437	0.23731
2343.20581	0.23542
2341.27725	0.23617
2339.34868	0.23786
2337.42012	0.23933
2335.49155	0.24138
2333.56299	0.24414
2331.63442	0.24671
2329.70586	0.24907
2327.77729	0.25199
2325.84873	0.25528
2323.92017	0.25823
2321.99160	0.26129
2320.06304	0.26492
2318.13447	0.26861
2316.20591	0.27213
2314.27734	0.27541
2312.34878	0.27828
2310.42021	0.28106
2308.49165	0.28405
2306.56309	0.28705
2304.63452	0.28986
2302.70596	0.29242
2300.77739	0.29483
2298.84883	0.29729
2296.92026	0.29972
2294.99170	0.30203
2293.06313	0.30447
2291.13457	0.30708
2289.20601	0.30964
2287.27744	0.31202
2285.34888	0.31426
2283.42031	0.31638
2281.49175	0.31834
2279.56318	0.32012
2277.63462	0.32184
2275.70605	0.32369
2273.77749	0.32564
2271.84893	0.32765
2269.92036	0.32970
2267.99180	0.33174
2266.06323	0.33382
2264.13467	0.33596
2262.20610	0.33811
2260.27754	0.34030
2258.34897	0.34250
2256.42041	0.34465
2254.49185	0.34683
2252.56328	0.34910
2250.63472	0.35134
2248.70615	0.35350
2246.77759	0.35565
2244.84902	0.35789
2242.92046	0.36012
2240.99189	0.36227
2239.06333	0.36446
2237.13477	0.36666
2235.20620	0.36881
2233.27764	0.37101
2231.34907	0.37318
2229.42051	0.37517
2227.49194	0.37714
2225.56338	0.37927
2223.63481	0.38152
2221.70625	0.38378
2219.77769	0.38593
2217.84912	0.38800
2215.92056	0.39019
2213.99199	0.39247
2212.06343	0.39468
2210.13486	0.39678
2208.20630	0.39887
2206.27773	0.40088
2204.34917	0.40271
2202.42061	0.40463
2200.49204	0.40676
2198.56348	0.40892
2196.63491	0.41092
2194.70635	0.41281
2192.77778	0.41460
2190.84922	0.41635
2188.92065	0.41809
2186.99209	0.41984
2185.06353	0.42164
2183.13496	0.42343
2181.20640	0.42514
2179.27783	0.42685
2177.34927	0.42858
2175.42070	0.43013
2173.49214	0.43147
2171.56357	0.43283
2169.63501	0.43419
2167.70645	0.43546
2165.77788	0.43686
2163.84932	0.43829
2161.92075	0.43946
2159.99219	0.44048
2158.06362	0.44147
2156.13506	0.44237
2154.20649	0.44311
2152.27793	0.44384
2150.34937	0.44468
2148.42080	0.44549
2146.49224	0.44612
2144.56367	0.44667
2142.63511	0.44715
2140.70654	0.44754
2138.77798	0.44785
2136.84941	0.44807
2134.92085	0.44829
2132.99229	0.44848
2131.06372	0.44862
2129.13516	0.44863
2127.20659	0.44840
2125.27803	0.44814
2123.34946	0.44791
2121.42090	0.44752
2119.49233	0.44695
2117.56377	0.44638
2115.63521	0.44579
2113.70664	0.44512
2111.77808	0.44442
2109.84951	0.44371
2107.92095	0.44284
2105.99238	0.44175
2104.06382	0.44067
2102.13525	0.43966
2100.20669	0.43850
2098.27812	0.43709
2096.34956	0.43559
2094.42100	0.43410
2092.49243	0.43260
2090.56387	0.43110
2088.63530	0.42952
2086.70674	0.42784
2084.77817	0.42608
2082.84961	0.42436
2080.92104	0.42260
2078.99248	0.42073
2077.06392	0.41875
2075.13535	0.41671
2073.20679	0.41466
2071.27822	0.41260
2069.34966	0.41047
2067.42109	0.40831
2065.49253	0.40609
2063.56396	0.40375
2061.63540	0.40141
2059.70684	0.39917
2057.77827	0.39686
2055.84971	0.39435
2053.92114	0.39181
2051.99258	0.38937
2050.06401	0.38688
2048.13545	0.38439
2046.20688	0.38190
2044.27832	0.37936
2042.34976	0.37668
2040.42119	0.37388
2038.49263	0.37111
2036.56406	0.36850
2034.63550	0.36596
2032.70693	0.36335
2030.77837	0.36069
2028.84980	0.35800
2026.92124	0.35527
2024.99268	0.35249
2023.06411	0.34976
2021.13555	0.34719
2019.20698	0.34462
2017.27842	0.34188
2015.34985	0.33902
2013.42129	0.33629
2011.49272	0.33368
2009.56416	0.33103
2007.63560	0.32835
2005.70703	0.32575
2003.77847	0.32320
2001.84990	0.32058
1999.92134	0.31797
1997.99277	0.31545
1996.06421	0.31296
1994.13564	0.31044
1992.20708	0.30790
1990.27852	0.30543
1988.34995	0.30304
1986.42139	0.30062
1984.49282	0.29823
1982.56426	0.29592
1980.63569	0.29363
1978.70713	0.29134
1976.77856	0.28904
1974.85000	0.28682
1972.92144	0.28469
1970.99287	0.28259
1969.06431	0.28053
1967.13574	0.27854
1965.20718	0.27652
1963.27861	0.27446
1961.35005	0.27248
1959.42148	0.27065
1957.49292	0.26887
1955.56436	0.26705
1953.63579	0.26527
1951.70723	0.26353
1949.77866	0.26183
1947.85010	0.26022
1945.92153	0.25870
1943.99297	0.25723
1942.06440	0.25579
1940.13584	0.25431
1938.20728	0.25284
1936.27871	0.25147
1934.35015	0.25015
1932.42158	0.24885
1930.49302	0.24763
1928.56445	0.24649
1926.63589	0.24540
1924.70732	0.24434
1922.77876	0.24329
1920.85020	0.24228
1918.92163	0.24140
1916.99307	0.24056
1915.06450	0.23970
1913.13594	0.23885
1911.20737	0.23811
1909.27881	0.23740
1907.35024	0.23668
1905.42168	0.23594
1903.49312	0.23526
1901.56455	0.23468
1899.63599	0.23421
1897.70742	0.23383
1895.77886	0.23344
1893.85029	0.23309
1891.92173	0.23279
1889.99316	0.23253
1888.06460	0.23219
1886.13604	0.23182
1884.20747	0.23152
1882.27891	0.23134
1880.35034	0.23123
1878.42178	0.23106
1876.49321	0.23085
1874.56465	0.23065
1872.63608	0.23063
1870.70752	0.23074
1868.77896	0.23112
1866.85039	0.23158
1864.92183	0.23174
1862.99326	0.23183
1861.06470	0.23205
1859.13613	0.23242
1857.20757	0.23279
1855.27900	0.23325
1853.35044	0.23369
1851.42187	0.23410
1849.49331	0.23449
1847.56475	0.23491
1845.63618	0.23553
1843.70762	0.23653
1841.77905	0.23762
1839.85049	0.23837
1837.92192	0.23911
1835.99336	0.23986
1834.06479	0.24066
1832.13623	0.24145
1830.20767	0.24254
1828.27910	0.24396
1826.35054	0.24520
1824.42197	0.24654
1822.49341	0.24788
1820.56484	0.24914
1818.63628	0.25048
1816.70771	0.25211
1814.77915	0.25375
1812.85059	0.25536
1810.92202	0.25717
1808.99346	0.25918
1807.06489	0.26119
1805.13633	0.26310
1803.20776	0.26516
1801.27920	0.26743
1799.35063	0.27006
1797.42207	0.27253
1795.49351	0.27479
1793.56494	0.27726
1791.63638	0.28067
1789.70781	0.28436
1787.77925	0.28718
1785.85068	0.29019
1783.92212	0.29375
1781.99355	0.29762
1780.06499	0.30174
1778.13643	0.30595
1776.20786	0.30973
1774.27930	0.31359
1772.35073	0.31896
1770.42217	0.32518
1768.49360	0.33058
1766.56504	0.33575
1764.63647	0.34102
1762.70791	0.34664
1760.77935	0.35378
1758.85078	0.36058
1756.92222	0.36745
1754.99365	0.37516
1753.06509	0.38205
1751.13652	0.38978
1749.20796	0.39954
1747.27939	0.40959
1745.35083	0.41856
1743.42227	0.42790
1741.49370	0.43812
1739.56514	0.45048
1737.63657	0.46311
1735.70801	0.47384
1733.77944	0.48954
1731.85088	0.50888
1729.92231	0.52454
1727.99375	0.54030
1726.06519	0.55703
1724.13662	0.57516
1722.20806	0.59475
1720.27949	0.61253
1718.35093	0.63276
1716.42236	0.66338
1714.49380	0.69407
1712.56523	0.71945
1710.63667	0.74360
1708.70811	0.76922
1706.77954	0.79817
1704.85098	0.83287
1702.92241	0.86418
1700.99385	0.89533
1699.06528	0.94200
1697.13672	0.98572
1695.20815	1.03151
1693.27959	1.07635
1691.35103	1.11232
1689.42246	1.15367
1687.49390	1.19748
1685.56533	1.23968
1683.63677	1.30602
1681.70820	1.37697
1679.77964	1.42279
1677.85107	1.46562
1675.92251	1.51438
1673.99395	1.57559
1672.06538	1.63067
1670.13682	1.68457
1668.20825	1.75630
1666.27969	1.81672
1664.35112	1.86899
1662.42256	1.93527
1660.49399	2.01116
1658.56543	2.07029
1656.63687	2.11665
1654.70830	2.15745
1652.77974	2.22009
1650.85117	2.28019
1648.92261	2.30055
1646.99404	2.32525
1645.06548	2.35159
1643.13691	2.36715
1641.20835	2.37426
1639.27979	2.38236
1637.35122	2.38782
1635.42266	2.38516
1633.49409	2.37490
1631.56553	2.35896
1629.63696	2.33839
1627.70840	2.30626
1625.77983	2.27217
1623.85127	2.22786
1621.92271	2.16947
1619.99414	2.11862
1618.06558	2.07100
1616.13701	2.00221
1614.20845	1.93267
1612.27988	1.88082
1610.35132	1.82684
1608.42275	1.76836
1606.49419	1.71073
1604.56562	1.65753
1602.63706	1.60622
1600.70850	1.55636
1598.77993	1.51095
1596.85137	1.46875
1594.92280	1.42811
1592.99424	1.38913
1591.06567	1.35355
1589.13711	1.32061
1587.20854	1.29063
1585.27998	1.26350
1583.35142	1.23854
1581.42285	1.21591
1579.49429	1.19677
1577.56572	1.18030
1575.63716	1.16159
1573.70859	1.14559
1571.78003	1.13556
1569.85146	1.12644
1567.92290	1.11732
1565.99434	1.11102
1564.06577	1.10728
1562.13721	1.10523
1560.20864	1.10557
1558.28008	1.11244
1556.35151	1.12119
1554.42295	1.12634
1552.49438	1.13114
1550.56582	1.13388
1548.63726	1.13345
1546.70869	1.12946
1544.78013	1.12120
1542.85156	1.10852
1540.92300	1.08883
1538.99443	1.05796
1537.06587	1.03491
1535.13730	1.01844
1533.20874	0.99605
1531.28018	0.97219
1529.35161	0.95481
1527.42305	0.93815
1525.49448	0.92089
1523.56592	0.90645
1521.63735	0.89293
1519.70879	0.87970
1517.78022	0.86882
1515.85166	0.85608
1513.92310	0.84240
1511.99453	0.83006
1510.06597	0.81847
1508.13740	0.80679
1506.20884	0.78962
1504.28027	0.77578
1502.35171	0.76808
1500.42314	0.76111
1498.49458	0.75341
1496.56602	0.74433
1494.63745	0.73569
1492.70889	0.72909
1490.78032	0.72273
1488.85176	0.71535
1486.92319	0.70921
1484.99463	0.70484
1483.06606	0.70140
1481.13750	0.69852
1479.20894	0.69634
1477.28037	0.69515
1475.35181	0.69487
1473.42324	0.69533
1471.49468	0.69546
1469.56611	0.69445
1467.63755	0.69274
1465.70898	0.69095
1463.78042	0.68967
1461.85186	0.68913
1459.92329	0.68909
1457.99473	0.68970
1456.06616	0.69012
1454.13760	0.68844
1452.20903	0.68595
1450.28047	0.68342
1448.35190	0.68095
1446.42334	0.67839
1444.49478	0.67581
1442.56621	0.67314
1440.63765	0.67028
1438.70908	0.66722
1436.78052	0.66308
1434.85195	0.65850
1432.92339	0.65539
1430.99482	0.65343
1429.06626	0.65239
1427.13770	0.65239
1425.20913	0.65308
1423.28057	0.65414
1421.35200	0.65497
1419.42344	0.65547
1417.49487	0.65577
1415.56631	0.65563
1413.63774	0.65548
1411.70918	0.65593
1409.78062	0.65729
1407.85205	0.65922
1405.92349	0.66157
1403.99492	0.66404
1402.06636	0.66535
1400.13779	0.66508
1398.20923	0.66338
1396.28066	0.66055
1394.35210	0.65674
1392.42354	0.65235
1390.49497	0.64792
1388.56641	0.64308
1386.63784	0.63729
1384.70928	0.63124
1382.78071	0.62557
1380.85215	0.62023
1378.92358	0.61556
1376.99502	0.61193
1375.06646	0.60940
1373.13789	0.60783
1371.20933	0.60686
1369.28076	0.60601
1367.35220	0.60488
1365.42363	0.60330
1363.49507	0.60146
1361.56650	0.59974
1359.63794	0.59831
1357.70937	0.59709
1355.78081	0.59598
1353.85225	0.59488
1351.92368	0.59388
1349.99512	0.59323
1348.06655	0.59277
1346.13799	0.59211
1344.20942	0.59127
1342.28086	0.59050
1340.35229	0.58998
1338.42373	0.58963
1336.49517	0.58932
1334.56660	0.58912
1332.63804	0.58913
1330.70947	0.58948
1328.78091	0.59021
1326.85234	0.59109
1324.92378	0.59195
1322.99521	0.59288
1321.06665	0.59392
1319.13809	0.59493
1317.20952	0.59564
1315.28096	0.59588
1313.35239	0.59568
1311.42383	0.59525
1309.49526	0.59480
1307.56670	0.59454
1305.63813	0.59446
1303.70957	0.59421
1301.78101	0.59360
1299.85244	0.59276
1297.92388	0.59183
1295.99531	0.59068
1294.06675	0.58926
1292.13818	0.58786
1290.20962	0.58662
1288.28105	0.58527
1286.35249	0.58378
1284.42393	0.58231
1282.49536	0.58084
1280.56680	0.57933
1278.63823	0.57781
1276.70967	0.57639
1274.78110	0.57519
1272.85254	0.57423
1270.92397	0.57334
1268.99541	0.57250
1267.06685	0.57175
1265.13828	0.57098
1263.20972	0.57008
1261.28115	0.56920
1259.35259	0.56846
1257.42402	0.56790
1255.49546	0.56750
1253.56689	0.56739
1251.63833	0.56757
1249.70977	0.56778
1247.78120	0.56776
1245.85264	0.56755
1243.92407	0.56709
1241.99551	0.56627
1240.06694	0.56499
1238.13838	0.56319
1236.20981	0.56095
1234.28125	0.55839
1232.35269	0.55575
1230.42412	0.55328
1228.49556	0.55097
1226.56699	0.54875
1224.63843	0.54664
1222.70986	0.54466
1220.78130	0.54285
1218.85273	0.54134
1216.92417	0.54001
1214.99561	0.53875
1213.06704	0.53773
1211.13848	0.53699
1209.20991	0.53632
1207.28135	0.53562
1205.35278	0.53477
1203.42422	0.53376
1201.49565	0.53281
1199.56709	0.53204
1197.63853	0.53142
1195.70996	0.53075
1193.78140	0.53011
1191.85283	0.52971
1189.92427	0.52947
1187.99570	0.52922
1186.06714	0.52914
1184.13857	0.52940
1182.21001	0.52992
1180.28145	0.53083
1178.35288	0.53221
1176.42432	0.53375
1174.49575	0.53512
1172.56719	0.53611
1170.63862	0.53645
1168.71006	0.53622
1166.78149	0.53574
1164.85293	0.53519
1162.92437	0.53464
1160.99580	0.53413
1159.06724	0.53365
1157.13867	0.53303
1155.21011	0.53209
1153.28154	0.53072
1151.35298	0.52885
1149.42441	0.52655
1147.49585	0.52408
1145.56729	0.52161
1143.63872	0.51918
1141.71016	0.51692
1139.78159	0.51502
1137.85303	0.51358
1135.92446	0.51263
1133.99590	0.51225
1132.06733	0.51229
1130.13877	0.51231
1128.21021	0.51198
1126.28164	0.51121
1124.35308	0.51011
1122.42451	0.50911
1120.49595	0.50870
1118.56738	0.50880
1116.63882	0.50911
1114.71025	0.50947
1112.78169	0.50982
1110.85312	0.51028
1108.92456	0.51103
1106.99600	0.51205
1105.06743	0.51328
1103.13887	0.51462
1101.21030	0.51607
1099.28174	0.51774
1097.35317	0.51970
1095.42461	0.52225
1093.49604	0.52568
1091.56748	0.53014
1089.63892	0.53565
1087.71035	0.54194
1085.78179	0.54872
1083.85322	0.55572
1081.92466	0.56226
1079.99609	0.56738
1078.06753	0.57034
1076.13896	0.57069
1074.21040	0.56827
1072.28184	0.56339
1070.35327	0.55680
1068.42471	0.54958
1066.49614	0.54275
1064.56758	0.53666
1062.63901	0.53119
1060.71045	0.52615
1058.78188	0.52152
1056.85332	0.51733
1054.92476	0.51372
1052.99619	0.51076
1051.06763	0.50821
1049.13906	0.50582
1047.21050	0.50380
1045.28193	0.50238
1043.35337	0.50124
1041.42480	0.50008
1039.49624	0.49922
1037.56768	0.49879
1035.63911	0.49831
1033.71055	0.49754
1031.78198	0.49680
1029.85342	0.49608
1027.92485	0.49527
1025.99629	0.49463
1024.06772	0.49409
1022.13916	0.49366
1020.21060	0.49366
1018.28203	0.49406
1016.35347	0.49458
1014.42490	0.49510
1012.49634	0.49562
1010.56777	0.49613
1008.63921	0.49674
1006.71064	0.49753
1004.78208	0.49863
1002.85352	0.50030
1000.92495	0.50274
998.99639	0.50600
997.06782	0.50982
995.13926	0.51391
993.21069	0.51799
991.28213	0.52160
989.35356	0.52432
987.42500	0.52583
985.49644	0.52626
983.56787	0.52634
981.63931	0.52661
979.71074	0.52732
977.78218	0.52866
975.85361	0.53058
973.92505	0.53286
971.99648	0.53572
970.06792	0.53920
968.13936	0.54280
966.21079	0.54637
964.28223	0.55035
962.35366	0.55489
960.42510	0.55978
958.49653	0.56496
956.56797	0.57053
954.63940	0.57644
952.71084	0.58262
950.78228	0.58894
948.85371	0.59513
946.92515	0.60122
944.99658	0.60739
943.06802	0.61374
941.13945	0.62014
939.21089	0.62617
937.28232	0.63172
935.35376	0.63733
933.42520	0.64317
931.49663	0.64886
929.56807	0.65433
927.63950	0.65966
925.71094	0.66512
923.78237	0.67097
921.85381	0.67707
919.92524	0.68360
917.99668	0.69070
916.06812	0.69810
914.13955	0.70554
912.21099	0.71262
910.28242	0.71937
908.35386	0.72719
906.42529	0.73652
904.49673	0.74600
902.56816	0.75509
900.63960	0.76419
898.71104	0.77375
896.78247	0.78358
894.85391	0.79296
892.92534	0.80203
890.99678	0.81132
889.06821	0.82092
887.13965	0.83064
885.21108	0.84134
883.28252	0.85355
881.35396	0.86615
879.42539	0.87844
877.49683	0.89078
875.56826	0.90318
873.63970	0.91460
871.71113	0.92538
869.78257	0.93628
867.85400	0.94684
865.92544	0.95769
863.99687	0.96896
862.06831	0.98031
860.13975	0.99282
858.21118	1.00608
856.28262	1.01716
854.35405	1.02627
852.42549	1.03722
850.49692	1.05089
848.56836	1.06374
846.63979	1.07456
844.71123	1.08604
842.78267	1.09803
840.85410	1.10962
838.92554	1.12142
836.99697	1.13378
835.06841	1.14678
833.13984	1.15768
831.21128	1.16543
829.28271	1.17472
827.35415	1.18698
825.42559	1.19851
823.49702	1.21060
821.56846	1.22481
819.63989	1.23852
817.71133	1.25015
815.78276	1.25891
813.85420	1.26357
811.92563	1.26866
809.99707	1.28379
808.06851	1.30266
806.13994	1.31213
804.21138	1.32341
802.28281	1.34835
800.35425	1.37071
798.42568	1.38757
796.49712	1.41531
794.56855	1.44210
792.63999	1.44774
790.71143	1.43297
788.78286	1.43429
786.85430	1.49204
784.92573	1.59122
782.99717	1.60018
781.06860	1.50203
779.14004	1.42190
777.21147	1.40139
775.28291	1.39691
773.35435	1.39901
771.42578	1.40907
769.49722	1.38181
767.56865	1.37386
765.64009	1.38820
763.71152	1.37058
761.78296	1.37205
759.85439	1.40292
757.92583	1.38560
755.99727	1.32696
754.06870	1.25266
752.14014	1.12635
750.21157	0.99742
748.28301	0.91703
746.35444	0.89473
744.42588	0.93227
742.49731	0.97697
740.56875	0.91701
738.64019	0.79226
736.71162	0.70596
734.78306	0.65890
732.85449	0.58416
730.92593	0.45292
728.99736	0.31450
727.06880	0.24454
725.14023	0.24731
723.21167	0.22810
721.28311	0.17722
719.35454	0.15649
717.42598	0.08969
715.49741	-0.04594
713.56885	-0.08335
711.64028	-0.06962
709.71172	-0.07681
707.78315	-0.08422
705.85459	-0.07201
703.92603	-0.02199
701.99746	0.01828
700.06890	0.03958
698.14033	0.10829
696.21177	0.18354
694.28320	0.17648
692.35464	0.16182
690.42607	0.19544
688.49751	0.21019
686.56895	0.23185
684.64038	0.30095
682.71182	0.37966
680.78325	0.41201
678.85469	0.38025
676.92612	0.31420
674.99756	0.22672
673.06899	0.14655
671.14043	0.14212
669.21187	0.20160
667.28330	0.22845
665.35474	0.18893
663.42617	0.10139
661.49761	0.05142
659.56904	0.09367
657.64048	0.18197
655.71191	0.21852
653.78335	0.20067
651.85479	0.15311
649.92622	0.08364
647.99766	0.07731
646.06909	0.14409
644.14053	0.15812
642.21196	0.13384
640.28340	0.13214
638.35483	0.13532
636.42627	0.11851
634.49771	0.07902
632.56914	0.03510
630.64058	0.05774
628.71201	0.14477
626.78345	0.17227
624.85488	0.14646
622.92632	0.14675
620.99775	0.14701
619.06919	0.15227
617.14062	0.15436
615.21206	0.11714
613.28350	0.08579
611.35493	0.10065
609.42637	0.15700
607.49780	0.19665
605.56924	0.16013
603.64067	0.09494
601.71211	0.04457
599.78354	0.03186
597.85498	0.09848
595.92642	0.19156
593.99785	0.23490
592.06929	0.24440
590.14072	0.20508
588.21216	0.14859
586.28359	0.11974
584.35503	0.09846
582.42646	0.07722
580.49790	0.09161
578.56934	0.11663
576.64077	0.09468
574.71221	0.05337
572.78364	0.05476
570.85508	0.07226
568.92651	0.08964
566.99795	0.13364
565.06938	0.16123
563.14082	0.13751
561.21226	0.11245
559.28369	0.09970
557.35513	0.11001
555.42656	0.14086
553.49800	0.13367
551.56943	0.10574
549.64087	0.12412
547.71230	0.14805
545.78374	0.13857
543.85518	0.11967
541.92661	0.10174
539.99805	0.07632
538.06948	0.07172
536.14092	0.10696
534.21235	0.12316
532.28379	0.11809
530.35522	0.15116
528.42666	0.21629
526.49810	0.21920
524.56953	0.15391
522.64097	0.10308
520.71240	0.10228
518.78384	0.12305
516.85527	0.09952
514.92671	0.06742
512.99814	0.07774
511.06958	0.10624
509.14102	0.11556
507.21245	0.10999
505.28389	0.11043
503.35532	0.10502
501.42676	0.08863
499.49819	0.07650
