3997.91411	0.06971
3995.98555	0.06981
3994.05698	0.07044
3992.12842	0.07144
3990.19985	0.07185
3988.27129	0.07152
3986.34272	0.07129
3984.41416	0.07149
3982.48560	0.07181
3980.55703	0.07232
3978.62847	0.07295
3976.69990	0.07322
3974.77134	0.07326
3972.84277	0.07354
3970.91421	0.07395
3968.98564	0.07416
3967.05708	0.07414
3965.12852	0.07410
3963.19995	0.07413
3961.27139	0.07428
3959.34282	0.07463
3957.41426	0.07498
3955.48569	0.07501
3953.55713	0.07478
3951.62856	0.07471
3949.70000	0.07506
3947.77144	0.07545
3945.84287	0.07553
3943.91431	0.07560
3941.98574	0.07577
3940.05718	0.07548
3938.12861	0.07489
3936.20005	0.07475
3934.27148	0.07505
3932.34292	0.07551
3930.41436	0.07588
3928.48579	0.07588
3926.55723	0.07583
3924.62866	0.07610
3922.70010	0.07624
3920.77153	0.07576
3918.84297	0.07513
3916.91440	0.07495
3914.98584	0.07479
3913.05728	0.07431
3911.12871	0.07420
3909.20015	0.07429
3907.27158	0.07410
3905.34302	0.07446
3903.41445	0.07581
3901.48589	0.07698
3899.55732	0.07727
3897.62876	0.07657
3895.70020	0.07523
3893.77163	0.07462
3891.84307	0.07536
3889.91450	0.07607
3887.98594	0.07558
3886.05737	0.07531
3884.12881	0.07586
3882.20024	0.07616
3880.27168	0.07609
3878.34312	0.07597
3876.41455	0.07573
3874.48599	0.07581
3872.55742	0.07636
3870.62886	0.07735
3868.70029	0.07852
3866.77173	0.07897
3864.84316	0.07934
3862.91460	0.07998
3860.98604	0.07966
3859.05747	0.07888
3857.12891	0.07893
3855.20034	0.08016
3853.27178	0.08254
3851.34321	0.08382
3849.41465	0.08247
3847.48608	0.08119
3845.55752	0.08116
3843.62896	0.08252
3841.70039	0.08445
3839.77183	0.08631
3837.84326	0.08792
3835.91470	0.08799
3833.98613	0.08703
3832.05757	0.08659
3830.12900	0.08668
3828.20044	0.08691
3826.27187	0.08748
3824.34331	0.08846
3822.41475	0.09030
3820.48618	0.09316
3818.55762	0.09412
3816.62905	0.09331
3814.70049	0.09313
3812.77192	0.09333
3810.84336	0.09384
3808.91479	0.09501
3806.98623	0.09683
3805.05767	0.09880
3803.12910	0.10077
3801.20054	0.10320
3799.27197	0.10440
3797.34341	0.10402
3795.41484	0.10404
3793.48628	0.10437
3791.55771	0.10502
3789.62915	0.10612
3787.70059	0.10733
3785.77202	0.10898
3783.84346	0.11114
3781.91489	0.11313
3779.98633	0.11498
3778.05776	0.11669
3776.12920	0.11740
3774.20063	0.11797
3772.27207	0.11958
3770.34351	0.12237
3768.41494	0.12551
3766.48638	0.12763
3764.55781	0.12911
3762.62925	0.13060
3760.70068	0.13270
3758.77212	0.13587
3756.84355	0.13899
3754.91499	0.14131
3752.98643	0.14406
3751.05786	0.14817
3749.12930	0.15217
3747.20073	0.15420
3745.27217	0.15653
3743.34360	0.16076
3741.41504	0.16443
3739.48647	0.16686
3737.55791	0.17016
3735.62935	0.17577
3733.70078	0.18309
3731.77222	0.18868
3729.84365	0.19228
3727.91509	0.19596
3725.98652	0.20121
3724.05796	0.20745
3722.12939	0.21350
3720.20083	0.22008
3718.27227	0.22736
3716.34370	0.23474
3714.41514	0.24225
3712.48657	0.25205
3710.55801	0.26644
3708.62944	0.28114
3706.70088	0.29243
3704.77231	0.30328
3702.84375	0.31633
3700.91519	0.33359
3698.98662	0.35268
3697.05806	0.37031
3695.12949	0.38847
3693.20093	0.40807
3691.27236	0.42994
3689.34380	0.45852
3687.41523	0.49354
3685.48667	0.52397
3683.55811	0.55005
3681.62954	0.57803
3679.70098	0.60954
3677.77241	0.64259
3675.84385	0.68199
3673.91528	0.73638
3671.98672	0.78123
3670.05815	0.82015
3668.12959	0.87320
3666.20103	0.92168
3664.27246	0.96238
3662.34390	1.00650
3660.41533	1.05436
3658.48677	1.10135
3656.55820	1.15115
3654.62964	1.20704
3652.70107	1.25411
3650.77251	1.29452
3648.84395	1.35066
3646.91538	1.42116
3644.98682	1.47298
3643.05825	1.51293
3641.12969	1.55392
3639.20112	1.59836
3637.27256	1.64295
3635.34399	1.68705
3633.41543	1.73155
3631.48687	1.77286
3629.55830	1.81394
3627.62974	1.86854
3625.70117	1.91998
3623.77261	1.95382
3621.84404	1.98656
3619.91548	2.02509
3617.98691	2.07181
3616.05835	2.11628
3614.12979	2.15253
3612.20122	2.19047
3610.27266	2.22989
3608.34409	2.27105
3606.41553	2.31455
3604.48696	2.35372
3602.55840	2.38856
3600.62983	2.42717
3598.70127	2.47027
3596.77271	2.51259
3594.84414	2.55441
3592.91558	2.59533
3590.98701	2.63240
3589.05845	2.66746
3587.12988	2.71109
3585.20132	2.75994
3583.27275	2.80049
3581.34419	2.83777
3579.41562	2.87810
3577.48706	2.92062
3575.55850	2.96376
3573.62993	3.00809
3571.70137	3.05042
3569.77280	3.08989
3567.84424	3.13229
3565.91567	3.18607
3563.98711	3.23825
3562.05854	3.27916
3560.12998	3.31895
3558.20142	3.36089
3556.27285	3.40440
3554.34429	3.44870
3552.41572	3.49574
3550.48716	3.54522
3548.55859	3.59291
3546.63003	3.63863
3544.70146	3.68727
3542.77290	3.73649
3540.84434	3.78271
3538.91577	3.82895
3536.98721	3.87439
3535.05864	3.91922
3533.13008	3.96377
3531.20151	4.00820
3529.27295	4.05431
3527.34438	4.10509
3525.41582	4.15687
3523.48726	4.20421
3521.55869	4.25324
3519.63013	4.30579
3517.70156	4.35331
3515.77300	4.39522
3513.84443	4.44250
3511.91587	4.49477
3509.98730	4.54464
3508.05874	4.59382
3506.13018	4.64348
3504.20161	4.69138
3502.27305	4.73840
3500.34448	4.78540
3498.41592	4.82835
3496.48735	4.86906
3494.55879	4.91547
3492.63022	4.96757
3490.70166	5.02147
3488.77310	5.07176
3486.84453	5.11073
3484.91597	5.14991
3482.98740	5.20422
3481.05884	5.26365
3479.13027	5.31273
3477.20171	5.35651
3475.27314	5.40624
3473.34458	5.45770
3471.41602	5.50235
3469.48745	5.54267
3467.55889	5.58844
3465.63032	5.64443
3463.70176	5.70167
3461.77319	5.74845
3459.84463	5.78989
3457.91606	5.83514
3455.98750	5.88332
3454.05894	5.92901
3452.13037	5.97540
3450.20181	6.02963
3448.27324	6.08438
3446.34468	6.13680
3444.41611	6.19003
3442.48755	6.23495
3440.55898	6.27336
3438.63042	6.32564
3436.70186	6.38404
3434.77329	6.43902
3432.84473	6.49912
3430.91616	6.55383
3428.98760	6.59085
3427.05903	6.61620
3425.13047	6.65053
3423.20190	6.68734
3421.27334	6.73703
3419.34478	6.81497
3417.41621	6.88059
3415.48765	6.92855
3413.55908	6.98570
3411.63052	7.02931
3409.70195	7.05826
3407.77339	7.11715
3405.84482	7.16153
3403.91626	7.16963
3401.98770	7.20263
3400.05913	7.25603
3398.13057	7.28830
3396.20200	7.31568
3394.27344	7.35964
3392.34487	7.38739
3390.41631	7.40107
3388.48774	7.40845
3386.55918	7.42775
3384.63062	7.49139
3382.70205	7.57979
3380.77349	7.62170
3378.84492	7.60683
3376.91636	7.61870
3374.98779	7.66773
3373.05923	7.69065
3371.13066	7.66783
3369.20210	7.68411
3367.27354	7.74734
3365.34497	7.76870
3363.41641	7.73246
3361.48784	7.69020
3359.55928	7.70161
3357.63071	7.76663
3355.70215	7.84119
3353.77358	7.87246
3351.84502	7.87068
3349.91646	7.88868
3347.98789	7.93686
3346.05933	7.95848
3344.13076	7.93129
3342.20220	7.92075
3340.27363	7.95248
3338.34507	7.97569
3336.41650	7.94597
3334.48794	7.90099
3332.55937	7.85381
3330.63081	7.85606
3328.70225	7.98136
3326.77368	8.13770
3324.84512	8.15754
3322.91655	8.11392
3320.98799	8.10104
3319.05942	8.08440
3317.13086	8.10582
3315.20229	8.09841
3313.27373	8.00600
3311.34517	7.91584
3309.41660	7.86977
3307.48804	7.87431
3305.55947	7.92131
3303.63091	7.96399
3301.70234	7.95955
3299.77378	7.96841
3297.84521	8.01729
3295.91665	8.06018
3293.98809	8.04054
3292.05952	8.02291
3290.13096	8.09586
3288.20239	8.14149
3286.27383	8.07419
3284.34526	7.99462
3282.41670	7.98331
3280.48813	8.04208
3278.55957	8.14511
3276.63101	8.22275
3274.70244	8.24337
3272.77388	8.18154
3270.84531	8.06778
3268.91675	8.09919
3266.98818	8.29894
3265.05962	8.41766
3263.13105	8.39714
3261.20249	8.41486
3259.27393	8.45861
3257.34536	8.46387
3255.41680	8.39407
3253.48823	8.29458
3251.55967	8.19209
3249.63110	8.09019
3247.70254	8.09404
3245.77397	8.12301
3243.84541	8.07548
3241.91685	8.07466
3239.98828	8.16397
3238.05972	8.24964
3236.13115	8.30605
3234.20259	8.35712
3232.27402	8.35816
3230.34546	8.26919
3228.41689	8.14796
3226.48833	8.08231
3224.55977	8.01461
3222.63120	7.93939
3220.70264	7.93678
3218.77407	7.91442
3216.84551	7.83024
3214.91694	7.78774
3212.98838	7.76139
3211.05981	7.70005
3209.13125	7.66047
3207.20269	7.69176
3205.27412	7.77970
3203.34556	7.82928
3201.41699	7.80507
3199.48843	7.76645
3197.55986	7.69267
3195.63130	7.57264
3193.70273	7.48675
3191.77417	7.48544
3189.84561	7.51018
3187.91704	7.47945
3185.98848	7.41178
3184.05991	7.34032
3182.13135	7.25786
3180.20278	7.17283
3178.27422	7.10462
3176.34565	7.06827
3174.41709	7.05513
3172.48853	7.03237
3170.55996	6.97132
3168.63140	6.87932
3166.70283	6.79247
3164.77427	6.72301
3162.84570	6.66219
3160.91714	6.60045
3158.98857	6.53377
3157.06001	6.47199
3155.13145	6.41776
3153.20288	6.36079
3151.27432	6.30157
3149.34575	6.23856
3147.41719	6.16197
3145.48862	6.07816
3143.56006	6.00349
3141.63149	5.94247
3139.70293	5.88337
3137.77437	5.81457
3135.84580	5.73661
3133.91724	5.66099
3131.98867	5.59615
3130.06011	5.53937
3128.13154	5.47831
3126.20298	5.39998
3124.27441	5.30991
3122.34585	5.22709
3120.41729	5.16375
3118.48872	5.10959
3116.56016	5.04303
3114.63159	4.96296
3112.70303	4.88668
3110.77446	4.82064
3108.84590	4.75751
3106.91733	4.69277
3104.98877	4.62879
3103.06021	4.56985
3101.13164	4.51032
3099.20308	4.44456
3097.27451	4.37824
3095.34595	4.31355
3093.41738	4.24888
3091.48882	4.18418
3089.56025	4.12077
3087.63169	4.05987
3085.70312	3.99990
3083.77456	3.93997
3081.84600	3.88021
3079.91743	3.82024
3077.98887	3.76198
3076.06030	3.70664
3074.13174	3.65163
3072.20317	3.59487
3070.27461	3.53812
3068.34604	3.48316
3066.41748	3.42817
3064.48892	3.37245
3062.56035	3.31816
3060.63179	3.26489
3058.70322	3.21100
3056.77466	3.15795
3054.84609	3.10723
3052.91753	3.05729
3050.98896	3.00668
3049.06040	2.95611
3047.13184	2.90686
3045.20327	2.85864
3043.27471	2.81076
3041.34614	2.76358
3039.41758	2.71698
3037.48901	2.67099
3035.56045	2.62660
3033.63188	2.58367
3031.70332	2.54100
3029.77476	2.49797
3027.84619	2.45465
3025.91763	2.41155
3023.98906	2.36918
3022.06050	2.32822
3020.13193	2.28878
3018.20337	2.24984
3016.27480	2.21075
3014.34624	2.17185
3012.41768	2.13365
3010.48911	2.09640
3008.56055	2.06029
3006.63198	2.02520
3004.70342	1.99056
3002.77485	1.95605
3000.84629	1.92179
2998.91772	1.88826
2996.98916	1.85613
2995.06060	1.82539
2993.13203	1.79513
2991.20347	1.76484
2989.27490	1.73504
2987.34634	1.70615
2985.41777	1.67806
2983.48921	1.65049
2981.56064	1.62332
2979.63208	1.59701
2977.70352	1.57186
2975.77495	1.54729
2973.84639	1.52270
2971.91782	1.49820
2969.98926	1.47399
2968.06069	1.45024
2966.13213	1.42670
2964.20356	1.40266
2962.27500	1.37866
2960.34644	1.35553
2958.41787	1.33277
2956.48931	1.30988
2954.56074	1.28696
2952.63218	1.26409
2950.70361	1.24136
2948.77505	1.21913
2946.84648	1.19764
2944.91792	1.17653
2942.98936	1.15539
2941.06079	1.13458
2939.13223	1.11478
2937.20366	1.09589
2935.27510	1.07671
2933.34653	1.05666
2931.41797	1.03698
2929.48940	1.01825
2927.56084	0.99983
2925.63228	0.98171
2923.70371	0.96398
2921.77515	0.94647
2919.84658	0.92956
2917.91802	0.91321
2915.98945	0.89699
2914.06089	0.88122
2912.13232	0.86588
2910.20376	0.85028
2908.27520	0.83483
2906.34663	0.82043
2904.41807	0.80659
2902.48950	0.79261
2900.56094	0.77881
2898.63237	0.76568
2896.70381	0.75311
2894.77524	0.74090
2892.84668	0.72923
2890.91812	0.71801
2888.98955	0.70685
2887.06099	0.69571
2885.13242	0.68503
2883.20386	0.67502
2881.27529	0.66544
2879.34673	0.65598
2877.41816	0.64648
2875.48960	0.63676
2873.56104	0.62669
2871.63247	0.61619
2869.70391	0.60549
2867.77534	0.59465
2865.84678	0.58328
2863.91821	0.57153
2861.98965	0.56005
2860.06108	0.54910
2858.13252	0.53871
2856.20396	0.52886
2854.27539	0.51958
2852.34683	0.51094
2850.41826	0.50276
2848.48970	0.49486
2846.56113	0.48727
2844.63257	0.48002
2842.70400	0.47319
2840.77544	0.46679
2838.84687	0.46062
2836.91831	0.45453
2834.98975	0.44843
2833.06118	0.44232
2831.13262	0.43638
2829.20405	0.43060
2827.27549	0.42467
2825.34692	0.41855
2823.41836	0.41262
2821.48979	0.40700
2819.56123	0.40130
2817.63267	0.39549
2815.70410	0.39003
2813.77554	0.38475
2811.84697	0.37932
2809.91841	0.37390
2807.98984	0.36860
2806.06128	0.36339
2804.13271	0.35830
2802.20415	0.35333
2800.27559	0.34832
2798.34702	0.34329
2796.41846	0.33848
2794.48989	0.33381
2792.56133	0.32914
2790.63276	0.32458
2788.70420	0.32024
2786.77563	0.31611
2784.84707	0.31198
2782.91851	0.30765
2780.98994	0.30329
2779.06138	0.29907
2777.13281	0.29513
2775.20425	0.29159
2773.27568	0.28808
2771.34712	0.28434
2769.41855	0.28061
2767.48999	0.27705
2765.56143	0.27354
2763.63286	0.27015
2761.70430	0.26689
2759.77573	0.26365
2757.84717	0.26045
2755.91860	0.25729
2753.99004	0.25409
2752.06147	0.25093
2750.13291	0.24787
2748.20435	0.24491
2746.27578	0.24203
2744.34722	0.23936
2742.41865	0.23694
2740.49009	0.23442
2738.56152	0.23161
2736.63296	0.22889
2734.70439	0.22651
2732.77583	0.22425
2730.84727	0.22196
2728.91870	0.21964
2726.99014	0.21727
2725.06157	0.21497
2723.13301	0.21286
2721.20444	0.21088
2719.27588	0.20893
2717.34731	0.20698
2715.41875	0.20495
2713.49019	0.20295
2711.56162	0.20113
2709.63306	0.19948
2707.70449	0.19790
2705.77593	0.19625
2703.84736	0.19459
2701.91880	0.19302
2699.99023	0.19143
2698.06167	0.18973
2696.13311	0.18813
2694.20454	0.18682
2692.27598	0.18550
2690.34741	0.18408
2688.41885	0.18282
2686.49028	0.18167
2684.56172	0.18033
2682.63315	0.17896
2680.70459	0.17779
2678.77603	0.17673
2676.84746	0.17564
2674.91890	0.17461
2672.99033	0.17356
2671.06177	0.17232
2669.13320	0.17106
2667.20464	0.16996
2665.27607	0.16898
2663.34751	0.16811
2661.41895	0.16733
2659.49038	0.16652
2657.56182	0.16570
2655.63325	0.16497
2653.70469	0.16428
2651.77612	0.16352
2649.84756	0.16272
2647.91899	0.16204
2645.99043	0.16149
2644.06187	0.16084
2642.13330	0.16012
2640.20474	0.15957
2638.27617	0.15914
2636.34761	0.15864
2634.41904	0.15810
2632.49048	0.15762
2630.56191	0.15708
2628.63335	0.15654
2626.70479	0.15616
2624.77622	0.15589
2622.84766	0.15560
2620.91909	0.15531
2618.99053	0.15507
2617.06196	0.15478
2615.13340	0.15442
2613.20483	0.15414
2611.27627	0.15401
2609.34771	0.15400
2607.41914	0.15398
2605.49058	0.15380
2603.56201	0.15358
2601.63345	0.15352
2599.70488	0.15354
2597.77632	0.15348
2595.84775	0.15343
2593.91919	0.15351
2591.99062	0.15355
2590.06206	0.15350
2588.13350	0.15355
2586.20493	0.15372
2584.27637	0.15380
2582.34780	0.15388
2580.41924	0.15416
2578.49067	0.15446
2576.56211	0.15461
2574.63354	0.15472
2572.70498	0.15497
2570.77642	0.15538
2568.84785	0.15577
2566.91929	0.15608
2564.99072	0.15640
2563.06216	0.15670
2561.13359	0.15697
2559.20503	0.15730
2557.27646	0.15769
2555.34790	0.15811
2553.41934	0.15859
2551.49077	0.15919
2549.56221	0.15980
2547.63364	0.16028
2545.70508	0.16072
2543.77651	0.16120
2541.84795	0.16177
2539.91938	0.16240
2537.99082	0.16308
2536.06226	0.16374
2534.13369	0.16424
2532.20513	0.16466
2530.27656	0.16522
2528.34800	0.16595
2526.41943	0.16671
2524.49087	0.16740
2522.56230	0.16807
2520.63374	0.16885
2518.70518	0.16964
2516.77661	0.17031
2514.84805	0.17095
2512.91948	0.17162
2510.99092	0.17227
2509.06235	0.17303
2507.13379	0.17397
2505.20522	0.17484
2503.27666	0.17547
2501.34810	0.17612
2499.41953	0.17704
2497.49097	0.17800
2495.56240	0.17875
2493.63384	0.17940
2491.70527	0.18018
2489.77671	0.18098
2487.84814	0.18167
2485.91958	0.18239
2483.99102	0.18328
2482.06245	0.18420
2480.13389	0.18500
2478.20532	0.18570
2476.27676	0.18646
2474.34819	0.18735
2472.41963	0.18818
2470.49106	0.18891
2468.56250	0.18969
2466.63394	0.19059
2464.70537	0.19153
2462.77681	0.19242
2460.84824	0.19330
2458.91968	0.19428
2456.99111	0.19527
2455.06255	0.19617
2453.13398	0.19702
2451.20542	0.19787
2449.27686	0.19869
2447.34829	0.19957
2445.41973	0.20063
2443.49116	0.20171
2441.56260	0.20264
2439.63403	0.20352
2437.70547	0.20447
2435.77690	0.20552
2433.84834	0.20667
2431.91978	0.20778
2429.99121	0.20872
2428.06265	0.20963
2426.13408	0.21069
2424.20552	0.21177
2422.27695	0.21274
2420.34839	0.21368
2418.41982	0.21475
2416.49126	0.21592
2414.56270	0.21705
2412.63413	0.21810
2410.70557	0.21908
2408.77700	0.22017
2406.84844	0.22142
2404.91987	0.22262
2402.99131	0.22377
2401.06274	0.22503
2399.13418	0.22628
2397.20562	0.22750
2395.27705	0.22875
2393.34849	0.22991
2391.41992	0.23100
2389.49136	0.23217
2387.56279	0.23361
2385.63423	0.23554
2383.70566	0.23809
2381.77710	0.24122
2379.84854	0.24478
2377.91997	0.24865
2375.99141	0.25315
2374.06284	0.25857
2372.13428	0.26457
2370.20571	0.27096
2368.27715	0.27754
2366.34858	0.28379
2364.42002	0.28974
2362.49146	0.29494
2360.56289	0.29782
2358.63433	0.29866
2356.70576	0.29821
2354.77720	0.29551
2352.84863	0.29138
2350.92007	0.28715
2348.99150	0.28437
2347.06294	0.28483
2345.13437	0.28935
2343.20581	0.29554
2341.27725	0.29931
2339.34868	0.30064
2337.42012	0.30098
2335.49155	0.30145
2333.56299	0.30277
2331.63442	0.30452
2329.70586	0.30552
2327.77729	0.30576
2325.84873	0.30549
2323.92017	0.30479
2321.99160	0.30428
2320.06304	0.30403
2318.13447	0.30345
2316.20591	0.30275
2314.27734	0.30271
2312.34878	0.30345
2310.42021	0.30442
2308.49165	0.30523
2306.56309	0.30576
2304.63452	0.30599
2302.70596	0.30640
2300.77739	0.30738
2298.84883	0.30865
2296.92026	0.30999
2294.99170	0.31135
2293.06313	0.31264
2291.13457	0.31390
2289.20601	0.31527
2287.27744	0.31674
2285.34888	0.31819
2283.42031	0.31977
2281.49175	0.32164
2279.56318	0.32365
2277.63462	0.32568
2275.70605	0.32778
2273.77749	0.32980
2271.84893	0.33166
2269.92036	0.33359
2267.99180	0.33570
2266.06323	0.33787
2264.13467	0.33991
2262.20610	0.34188
2260.27754	0.34380
2258.34897	0.34575
2256.42041	0.34784
2254.49185	0.34997
2252.56328	0.35204
2250.63472	0.35404
2248.70615	0.35602
2246.77759	0.35809
2244.84902	0.36028
2242.92046	0.36245
2240.99189	0.36454
2239.06333	0.36666
2237.13477	0.36886
2235.20620	0.37098
2233.27764	0.37305
2231.34907	0.37520
2229.42051	0.37745
2227.49194	0.37967
2225.56338	0.38175
2223.63481	0.38385
2221.70625	0.38608
2219.77769	0.38838
2217.84912	0.39057
2215.92056	0.39257
2213.99199	0.39452
2212.06343	0.39657
2210.13486	0.39865
2208.20630	0.40082
2206.27773	0.40308
2204.34917	0.40522
2202.42061	0.40720
2200.49204	0.40915
2198.56348	0.41110
2196.63491	0.41300
2194.70635	0.41493
2192.77778	0.41690
2190.84922	0.41884
2188.92065	0.42080
2186.99209	0.42269
2185.06353	0.42437
2183.13496	0.42595
2181.20640	0.42752
2179.27783	0.42909
2177.34927	0.43071
2175.42070	0.43231
2173.49214	0.43384
2171.56357	0.43536
2169.63501	0.43684
2167.70645	0.43823
2165.77788	0.43950
2163.84932	0.44069
2161.92075	0.44185
2159.99219	0.44297
2158.06362	0.44405
2156.13506	0.44504
2154.20649	0.44593
2152.27793	0.44678
2150.34937	0.44753
2148.42080	0.44821
2146.49224	0.44884
2144.56367	0.44936
2142.63511	0.44983
2140.70654	0.45026
2138.77798	0.45057
2136.84941	0.45085
2134.92085	0.45114
2132.99229	0.45123
2131.06372	0.45107
2129.13516	0.45086
2127.20659	0.45075
2125.27803	0.45065
2123.34946	0.45037
2121.42090	0.44993
2119.49233	0.44948
2117.56377	0.44906
2115.63521	0.44853
2113.70664	0.44785
2111.77808	0.44713
2109.84951	0.44635
2107.92095	0.44540
2105.99238	0.44429
2104.06382	0.44315
2102.13525	0.44200
2100.20669	0.44081
2098.27812	0.43952
2096.34956	0.43805
2094.42100	0.43648
2092.49243	0.43496
2090.56387	0.43345
2088.63530	0.43189
2086.70674	0.43027
2084.77817	0.42847
2082.84961	0.42652
2080.92104	0.42460
2078.99248	0.42280
2077.06392	0.42095
2075.13535	0.41888
2073.20679	0.41672
2071.27822	0.41458
2069.34966	0.41240
2067.42109	0.41016
2065.49253	0.40798
2063.56396	0.40576
2061.63540	0.40334
2059.70684	0.40086
2057.77827	0.39860
2055.84971	0.39643
2053.92114	0.39409
2051.99258	0.39163
2050.06401	0.38902
2048.13545	0.38629
2046.20688	0.38365
2044.27832	0.38118
2042.34976	0.37866
2040.42119	0.37600
2038.49263	0.37335
2036.56406	0.37067
2034.63550	0.36788
2032.70693	0.36512
2030.77837	0.36247
2028.84980	0.35982
2026.92124	0.35712
2024.99268	0.35447
2023.06411	0.35188
2021.13555	0.34922
2019.20698	0.34651
2017.27842	0.34379
2015.34985	0.34092
2013.42129	0.33795
2011.49272	0.33512
2009.56416	0.33258
2007.63560	0.33014
2005.70703	0.32757
2003.77847	0.32484
2001.84990	0.32213
1999.92134	0.31957
1997.99277	0.31706
1996.06421	0.31460
1994.13564	0.31229
1992.20708	0.30996
1990.27852	0.30736
1988.34995	0.30471
1986.42139	0.30223
1984.49282	0.29987
1982.56426	0.29753
1980.63569	0.29520
1978.70713	0.29299
1976.77856	0.29083
1974.85000	0.28863
1972.92144	0.28637
1970.99287	0.28411
1969.06431	0.28206
1967.13574	0.28021
1965.20718	0.27827
1963.27861	0.27627
1961.35005	0.27435
1959.42148	0.27242
1957.49292	0.27048
1955.56436	0.26864
1953.63579	0.26690
1951.70723	0.26511
1949.77866	0.26338
1947.85010	0.26179
1945.92153	0.26034
1943.99297	0.25901
1942.06440	0.25760
1940.13584	0.25594
1938.20728	0.25434
1936.27871	0.25297
1934.35015	0.25169
1932.42158	0.25045
1930.49302	0.24921
1928.56445	0.24797
1926.63589	0.24679
1924.70732	0.24589
1922.77876	0.24512
1920.85020	0.24416
1918.92163	0.24317
1916.99307	0.24221
1915.06450	0.24116
1913.13594	0.24021
1911.20737	0.23955
1909.27881	0.23897
1907.35024	0.23820
1905.42168	0.23740
1903.49312	0.23679
1901.56455	0.23626
1899.63599	0.23570
1897.70742	0.23525
1895.77886	0.23492
1893.85029	0.23449
1891.92173	0.23403
1889.99316	0.23386
1888.06460	0.23367
1886.13604	0.23324
1884.20747	0.23286
1882.27891	0.23265
1880.35034	0.23250
1878.42178	0.23231
1876.49321	0.23221
1874.56465	0.23226
1872.63608	0.23250
1870.70752	0.23299
1868.77896	0.23374
1866.85039	0.23394
1864.92183	0.23349
1862.99326	0.23326
1861.06470	0.23347
1859.13613	0.23387
1857.20757	0.23421
1855.27900	0.23462
1853.35044	0.23512
1851.42187	0.23566
1849.49331	0.23620
1847.56475	0.23684
1845.63618	0.23778
1843.70762	0.23895
1841.77905	0.23968
1839.85049	0.23992
1837.92192	0.24052
1835.99336	0.24140
1834.06479	0.24231
1832.13623	0.24333
1830.20767	0.24485
1828.27910	0.24637
1826.35054	0.24733
1824.42197	0.24842
1822.49341	0.24950
1820.56484	0.25059
1818.63628	0.25193
1816.70771	0.25360
1814.77915	0.25528
1812.85059	0.25700
1810.92202	0.25900
1808.99346	0.26110
1807.06489	0.26304
1805.13633	0.26488
1803.20776	0.26708
1801.27920	0.26964
1799.35063	0.27236
1797.42207	0.27478
1795.49351	0.27713
1793.56494	0.27989
1791.63638	0.28349
1789.70781	0.28685
1787.77925	0.28929
1785.85068	0.29230
1783.92212	0.29597
1781.99355	0.29990
1780.06499	0.30404
1778.13643	0.30830
1776.20786	0.31231
1774.27930	0.31661
1772.35073	0.32234
1770.42217	0.32851
1768.49360	0.33361
1766.56504	0.33852
1764.63647	0.34364
1762.70791	0.34936
1760.77935	0.35670
1758.85078	0.36359
1756.92222	0.37052
1754.99365	0.37818
1753.06509	0.38511
1751.13652	0.39327
1749.20796	0.40366
1747.27939	0.41390
1745.35083	0.42278
1743.42227	0.43223
1741.49370	0.44267
1739.56514	0.45499
1737.63657	0.46734
1735.70801	0.47807
1733.77944	0.49431
1731.85088	0.51392
1729.92231	0.52929
1727.99375	0.54460
1726.06519	0.56097
1724.13662	0.57907
1722.20806	0.59883
1720.27949	0.61701
1718.35093	0.63827
1716.42236	0.67020
1714.49380	0.70059
1712.56523	0.72470
1710.63667	0.74805
1708.70811	0.77352
1706.77954	0.80281
1704.85098	0.83813
1702.92241	0.86958
1700.99385	0.90033
1699.06528	0.94684
1697.13672	0.99051
1695.20815	1.03544
1693.27959	1.07875
1691.35103	1.11366
1689.42246	1.15460
1687.49390	1.19842
1685.56533	1.24079
1683.63677	1.30642
1681.70820	1.37444
1679.77964	1.41724
1677.85107	1.45829
1675.92251	1.50654
1673.99395	1.56729
1672.06538	1.62122
1670.13682	1.67340
1668.20825	1.74233
1666.27969	1.79987
1664.35112	1.84957
1662.42256	1.91230
1660.49399	1.98322
1658.56543	2.03835
1656.63687	2.08242
1654.70830	2.12251
1652.77974	2.18526
1650.85117	2.24339
1648.92261	2.26335
1646.99404	2.29000
1645.06548	2.31708
1643.13691	2.33274
1641.20835	2.34166
1639.27979	2.35080
1637.35122	2.35609
1635.42266	2.35270
1633.49409	2.34002
1631.56553	2.32361
1629.63696	2.30644
1627.70840	2.27818
1625.77983	2.24383
1623.85127	2.19997
1621.92271	2.14604
1619.99414	2.09810
1618.06558	2.05162
1616.13701	1.98543
1614.20845	1.91781
1612.27988	1.86603
1610.35132	1.81177
1608.42275	1.75287
1606.49419	1.69513
1604.56562	1.64251
1602.63706	1.59237
1600.70850	1.54405
1598.77993	1.49971
1596.85137	1.45755
1594.92280	1.41632
1592.99424	1.37679
1591.06567	1.34101
1589.13711	1.30823
1587.20854	1.27844
1585.27998	1.25114
1583.35142	1.22556
1581.42285	1.20228
1579.49429	1.18263
1577.56572	1.16570
1575.63716	1.14630
1573.70859	1.12938
1571.78003	1.11825
1569.85146	1.10737
1567.92290	1.09620
1565.99434	1.08867
1564.06577	1.08388
1562.13721	1.08064
1560.20864	1.07949
1558.28008	1.08259
1556.35151	1.08734
1554.42295	1.08965
1552.49438	1.09129
1550.56582	1.09142
1548.63726	1.08943
1546.70869	1.08509
1544.78013	1.07742
1542.85156	1.06602
1540.92300	1.04840
1538.99443	1.01915
1537.06587	0.99697
1535.13730	0.98194
1533.20874	0.96184
1531.28018	0.94024
1529.35161	0.92482
1527.42305	0.91048
1525.49448	0.89538
1523.56592	0.88247
1521.63735	0.87056
1519.70879	0.85869
1517.78022	0.84865
1515.85166	0.83689
1513.92310	0.82421
1511.99453	0.81298
1510.06597	0.80282
1508.13740	0.79298
1506.20884	0.77755
1504.28027	0.76410
1502.35171	0.75670
1500.42314	0.75034
1498.49458	0.74358
1496.56602	0.73563
1494.63745	0.72760
1492.70889	0.72136
1490.78032	0.71602
1488.85176	0.71003
1486.92319	0.70416
1484.99463	0.69933
1483.06606	0.69557
1481.13750	0.69265
1479.20894	0.69068
1477.28037	0.68978
1475.35181	0.68957
1473.42324	0.68970
1471.49468	0.68916
1469.56611	0.68737
1467.63755	0.68523
1465.70898	0.68352
1463.78042	0.68242
1461.85186	0.68186
1459.92329	0.68188
1457.99473	0.68250
1456.06616	0.68260
1454.13760	0.68071
1452.20903	0.67827
1450.28047	0.67586
1448.35190	0.67349
1446.42334	0.67095
1444.49478	0.66855
1442.56621	0.66636
1440.63765	0.66404
1438.70908	0.66157
1436.78052	0.65840
1434.85195	0.65460
1432.92339	0.65156
1430.99482	0.64951
1429.06626	0.64827
1427.13770	0.64781
1425.20913	0.64814
1423.28057	0.64897
1421.35200	0.64967
1419.42344	0.65038
1417.49487	0.65065
1415.56631	0.64964
1413.63774	0.64868
1411.70918	0.64870
1409.78062	0.64956
1407.85205	0.65074
1405.92349	0.65227
1403.99492	0.65390
1402.06636	0.65469
1400.13779	0.65450
1398.20923	0.65328
1396.28066	0.65087
1394.35210	0.64728
1392.42354	0.64294
1390.49497	0.63871
1388.56641	0.63455
1386.63784	0.62972
1384.70928	0.62446
1382.78071	0.61954
1380.85215	0.61505
1378.92358	0.61119
1376.99502	0.60829
1375.06646	0.60645
1373.13789	0.60526
1371.20933	0.60438
1369.28076	0.60369
1367.35220	0.60267
1365.42363	0.60110
1363.49507	0.59933
1361.56650	0.59763
1359.63794	0.59611
1357.70937	0.59486
1355.78081	0.59372
1353.85225	0.59261
1351.92368	0.59164
1349.99512	0.59084
1348.06655	0.59010
1346.13799	0.58929
1344.20942	0.58848
1342.28086	0.58783
1340.35229	0.58745
1338.42373	0.58696
1336.49517	0.58618
1334.56660	0.58555
1332.63804	0.58535
1330.70947	0.58551
1328.78091	0.58589
1326.85234	0.58642
1324.92378	0.58708
1322.99521	0.58780
1321.06665	0.58854
1319.13809	0.58929
1317.20952	0.58981
1315.28096	0.58994
1313.35239	0.58970
1311.42383	0.58915
1309.49526	0.58852
1307.56670	0.58799
1305.63813	0.58749
1303.70957	0.58697
1301.78101	0.58635
1299.85244	0.58552
1297.92388	0.58454
1295.99531	0.58341
1294.06675	0.58219
1292.13818	0.58101
1290.20962	0.57987
1288.28105	0.57870
1286.35249	0.57753
1284.42393	0.57629
1282.49536	0.57488
1280.56680	0.57339
1278.63823	0.57207
1276.70967	0.57090
1274.78110	0.56978
1272.85254	0.56878
1270.92397	0.56804
1268.99541	0.56744
1267.06685	0.56675
1265.13828	0.56583
1263.20972	0.56491
1261.28115	0.56419
1259.35259	0.56346
1257.42402	0.56275
1255.49546	0.56235
1253.56689	0.56227
1251.63833	0.56235
1249.70977	0.56247
1247.78120	0.56251
1245.85264	0.56235
1243.92407	0.56185
1241.99551	0.56093
1240.06694	0.55961
1238.13838	0.55789
1236.20981	0.55582
1234.28125	0.55360
1232.35269	0.55142
1230.42412	0.54929
1228.49556	0.54728
1226.56699	0.54533
1224.63843	0.54347
1222.70986	0.54173
1220.78130	0.54002
1218.85273	0.53840
1216.92417	0.53702
1214.99561	0.53583
1213.06704	0.53473
1211.13848	0.53382
1209.20991	0.53317
1207.28135	0.53266
1205.35278	0.53204
1203.42422	0.53121
1201.49565	0.53030
1199.56709	0.52946
1197.63853	0.52864
1195.70996	0.52779
1193.78140	0.52700
1191.85283	0.52636
1189.92427	0.52603
1187.99570	0.52600
1186.06714	0.52600
1184.13857	0.52595
1182.21001	0.52607
1180.28145	0.52665
1178.35288	0.52786
1176.42432	0.52953
1174.49575	0.53113
1172.56719	0.53212
1170.63862	0.53244
1168.71006	0.53245
1166.78149	0.53235
1164.85293	0.53232
1162.92437	0.53255
1160.99580	0.53280
1159.06724	0.53255
1157.13867	0.53186
1155.21011	0.53100
1153.28154	0.52991
1151.35298	0.52837
1149.42441	0.52626
1147.49585	0.52360
1145.56729	0.52089
1143.63872	0.51859
1141.71016	0.51664
1139.78159	0.51484
1137.85303	0.51322
1135.92446	0.51191
1133.99590	0.51110
1132.06733	0.51082
1130.13877	0.51067
1128.21021	0.51037
1126.28164	0.51004
1124.35308	0.50975
1122.42451	0.50953
1120.49595	0.50960
1118.56738	0.50989
1116.63882	0.51023
1114.71025	0.51072
1112.78169	0.51143
1110.85312	0.51218
1108.92456	0.51285
1106.99600	0.51362
1105.06743	0.51464
1103.13887	0.51583
1101.21030	0.51718
1099.28174	0.51880
1097.35317	0.52077
1095.42461	0.52336
1093.49604	0.52697
1091.56748	0.53174
1089.63892	0.53750
1087.71035	0.54432
1085.78179	0.55223
1083.85322	0.56032
1081.92466	0.56740
1079.99609	0.57276
1078.06753	0.57579
1076.13896	0.57578
1074.21040	0.57269
1072.28184	0.56734
1070.35327	0.56074
1068.42471	0.55372
1066.49614	0.54681
1064.56758	0.54040
1062.63901	0.53483
1060.71045	0.53010
1058.78188	0.52579
1056.85332	0.52170
1054.92476	0.51815
1052.99619	0.51522
1051.06763	0.51280
1049.13906	0.51093
1047.21050	0.50959
1045.28193	0.50878
1043.35337	0.50842
1041.42480	0.50808
1039.49624	0.50738
1037.56768	0.50661
1035.63911	0.50627
1033.71055	0.50620
1031.78198	0.50570
1029.85342	0.50454
1027.92485	0.50308
1025.99629	0.50163
1024.06772	0.50046
1022.13916	0.49988
1020.21060	0.49970
1018.28203	0.49942
1016.35347	0.49914
1014.42490	0.49910
1012.49634	0.49922
1010.56777	0.49938
1008.63921	0.49967
1006.71064	0.50036
1004.78208	0.50156
1002.85352	0.50326
1000.92495	0.50545
998.99639	0.50828
997.06782	0.51202
995.13926	0.51650
993.21069	0.52098
991.28213	0.52453
989.35356	0.52661
987.42500	0.52742
985.49644	0.52752
983.56787	0.52729
981.63931	0.52726
979.71074	0.52790
977.78218	0.52899
975.85361	0.53051
973.92505	0.53286
971.99648	0.53597
970.06792	0.53942
968.13936	0.54302
966.21079	0.54681
964.28223	0.55092
962.35366	0.55552
960.42510	0.56059
958.49653	0.56586
956.56797	0.57110
954.63940	0.57649
952.71084	0.58244
950.78228	0.58860
948.85371	0.59459
946.92515	0.60064
944.99658	0.60700
943.06802	0.61374
941.13945	0.62030
939.21089	0.62586
937.28232	0.63089
935.35376	0.63632
933.42520	0.64206
931.49663	0.64770
929.56807	0.65336
927.63950	0.65899
925.71094	0.66423
923.78237	0.66959
921.85381	0.67583
919.92524	0.68249
917.99668	0.68915
916.06812	0.69653
914.13955	0.70464
912.21099	0.71256
910.28242	0.72021
908.35386	0.72794
906.42529	0.73610
904.49673	0.74521
902.56816	0.75463
900.63960	0.76311
898.71104	0.77128
896.78247	0.78134
894.85391	0.79310
892.92534	0.80380
890.99678	0.81261
889.06821	0.82173
887.13965	0.83302
885.21108	0.84489
883.28252	0.85498
881.35396	0.86489
879.42539	0.87679
877.49683	0.88964
875.56826	0.90251
873.63970	0.91396
871.71113	0.92340
869.78257	0.93321
867.85400	0.94350
865.92544	0.95379
863.99687	0.96520
862.06831	0.97731
860.13975	0.98852
858.21118	0.99879
856.28262	1.00943
854.35405	1.02117
852.42549	1.03367
850.49692	1.04563
848.56836	1.05785
846.63979	1.07153
844.71123	1.08401
842.78267	1.09410
840.85410	1.10461
838.92554	1.11585
836.99697	1.12666
835.06841	1.13955
833.13984	1.15512
831.21128	1.16738
829.28271	1.17432
827.35415	1.18214
825.42559	1.19422
823.49702	1.20914
821.56846	1.22133
819.63989	1.22729
817.71133	1.23064
815.78276	1.23714
813.85420	1.25580
811.92563	1.28114
809.99707	1.29350
808.06851	1.29773
806.13994	1.30844
804.21138	1.32419
802.28281	1.34458
800.35425	1.35790
798.42568	1.35729
796.49712	1.37996
794.56855	1.43862
792.63999	1.48448
790.71143	1.48812
788.78286	1.48273
786.85430	1.51319
784.92573	1.57758
782.99717	1.52612
781.06860	1.39861
779.14004	1.39202
777.21147	1.51928
775.28291	1.65037
773.35435	1.75376
771.42578	1.87961
769.49722	1.80451
767.56865	1.64536
765.64009	1.51624
763.71152	1.39255
761.78296	1.32010
759.85439	1.47341
757.92583	4.54755
755.99727	4.53598
754.06870	4.52441
752.14014	1.47917
750.21157	1.30587
748.28301	1.26533
746.35444	1.29966
744.42588	1.28497
742.49731	1.14162
740.56875	1.05052
738.64019	1.07684
736.71162	1.15615
734.78306	1.40357
732.85449	4.39713
730.92593	4.38556
728.99736	4.37398
727.06880	4.36241
725.14023	0.84810
723.21167	0.51326
721.28311	0.54425
719.35454	0.97264
717.42598	1.08388
715.49741	0.40642
713.56885	0.30493
711.64028	0.46711
709.71172	0.59202
707.78315	0.49435
705.85459	0.44426
703.92603	0.42521
701.99746	0.33847
700.06890	0.21859
698.14033	0.13214
696.21177	0.18735
694.28320	0.41582
692.35464	0.53301
690.42607	0.52828
688.49751	0.71600
686.56895	0.69207
684.64038	0.43738
682.71182	0.37544
680.78325	0.39286
678.85469	0.52793
676.92612	0.91840
674.99756	1.36713
673.06899	0.88147
671.14043	0.65412
669.21187	0.52660
667.28330	0.50117
665.35474	0.58942
663.42617	0.65277
661.49761	0.67229
659.56904	0.88355
657.64048	3.94584
655.71191	0.87582
653.78335	0.45704
651.85479	0.33584
649.92622	0.33182
647.99766	0.41258
646.06909	0.57157
644.14053	0.96997
642.21196	0.91905
640.28340	0.36807
638.35483	0.25563
636.42627	0.32952
634.49771	0.40920
632.56914	0.38812
630.64058	0.36201
628.71201	0.26399
626.78345	0.18672
624.85488	0.23609
622.92632	0.38409
620.99775	0.48947
619.06919	0.39544
617.14062	0.23609
615.21206	0.14321
613.28350	0.15491
611.35493	0.28539
609.42637	0.50438
607.49780	0.58206
605.56924	0.49505
603.64067	0.39816
601.71211	0.32978
599.78354	0.30484
597.85498	0.24462
595.92642	0.15881
593.99785	0.16286
592.06929	0.24445
590.14072	0.28201
588.21216	0.26606
586.28359	0.29181
584.35503	0.34650
582.42646	0.37207
580.49790	0.31730
578.56934	0.25923
576.64077	0.26392
574.71221	0.30212
572.78364	0.33900
570.85508	0.32769
568.92651	0.28084
566.99795	0.28913
565.06938	0.37629
563.14082	0.51168
561.21226	0.66128
559.28369	0.98809
557.35513	1.09374
555.42656	0.54477
553.49800	0.35347
551.56943	0.33971
549.64087	0.34837
547.71230	0.23207
545.78374	0.13108
543.85518	0.14491
541.92661	0.29501
539.99805	0.38509
538.06948	0.30787
536.14092	0.26937
534.21235	0.30167
532.28379	0.31224
530.35522	0.23573
528.42666	0.20326
526.49810	0.23468
524.56953	0.28241
522.64097	0.31685
520.71240	0.29083
518.78384	0.29214
516.85527	0.34532
514.92671	0.31427
512.99814	0.23673
511.06958	0.19922
509.14102	0.20100
507.21245	0.24064
505.28389	0.26407
503.35532	0.23863
501.42676	0.24030
499.49819	0.30126
