3997.91411	0.07078
3995.98555	0.07131
3994.05698	0.07210
3992.12842	0.07308
3990.19985	0.07374
3988.27129	0.07379
3986.34272	0.07353
3984.41416	0.07334
3982.48560	0.07359
3980.55703	0.07436
3978.62847	0.07498
3976.69990	0.07519
3974.77134	0.07533
3972.84277	0.07548
3970.91421	0.07552
3968.98564	0.07548
3967.05708	0.07539
3965.12852	0.07520
3963.19995	0.07496
3961.27139	0.07509
3959.34282	0.07583
3957.41426	0.07655
3955.48569	0.07670
3953.55713	0.07677
3951.62856	0.07743
3949.70000	0.07845
3947.77144	0.07885
3945.84287	0.07816
3943.91431	0.07757
3941.98574	0.07781
3940.05718	0.07757
3938.12861	0.07656
3936.20005	0.07594
3934.27148	0.07643
3932.34292	0.07784
3930.41436	0.07881
3928.48579	0.07848
3926.55723	0.07813
3924.62866	0.07877
3922.70010	0.07922
3920.77153	0.07890
3918.84297	0.07896
3916.91440	0.07935
3914.98584	0.07877
3913.05728	0.07720
3911.12871	0.07599
3909.20015	0.07565
3907.27158	0.07622
3905.34302	0.07825
3903.41445	0.08139
3901.48589	0.08310
3899.55732	0.08235
3897.62876	0.08065
3895.70020	0.07921
3893.77163	0.07908
3891.84307	0.08047
3889.91450	0.08111
3887.98594	0.08011
3886.05737	0.08006
3884.12881	0.08087
3882.20024	0.08084
3880.27168	0.08047
3878.34312	0.07943
3876.41455	0.07861
3874.48599	0.08011
3872.55742	0.08310
3870.62886	0.08539
3868.70029	0.08582
3866.77173	0.08473
3864.84316	0.08496
3862.91460	0.08587
3860.98604	0.08458
3859.05747	0.08297
3857.12891	0.08358
3855.20034	0.08659
3853.27178	0.09135
3851.34321	0.09279
3849.41465	0.08873
3847.48608	0.08519
3845.55752	0.08429
3843.62896	0.08578
3841.70039	0.08878
3839.77183	0.09273
3837.84326	0.09618
3835.91470	0.09604
3833.98613	0.09383
3832.05757	0.09250
3830.12900	0.09170
3828.20044	0.09131
3826.27187	0.09208
3824.34331	0.09351
3822.41475	0.09606
3820.48618	0.10052
3818.55762	0.10242
3816.62905	0.10145
3814.70049	0.10035
3812.77192	0.09818
3810.84336	0.09672
3808.91479	0.09781
3806.98623	0.10124
3805.05767	0.10467
3803.12910	0.10684
3801.20054	0.10944
3799.27197	0.11064
3797.34341	0.10951
3795.41484	0.10829
3793.48628	0.10701
3791.55771	0.10658
3789.62915	0.10791
3787.70059	0.11030
3785.77202	0.11293
3783.84346	0.11503
3781.91489	0.11622
3779.98633	0.11783
3778.05776	0.11991
3776.12920	0.12057
3774.20063	0.12074
3772.27207	0.12249
3770.34351	0.12610
3768.41494	0.12961
3766.48638	0.13167
3764.55781	0.13350
3762.62925	0.13510
3760.70068	0.13726
3758.77212	0.14113
3756.84355	0.14455
3754.91499	0.14636
3752.98643	0.14965
3751.05786	0.15634
3749.12930	0.16304
3747.20073	0.16561
3745.27217	0.16767
3743.34360	0.17145
3741.41504	0.17489
3739.48647	0.17830
3737.55791	0.18402
3735.62935	0.19301
3733.70078	0.20200
3731.77222	0.20629
3729.84365	0.20857
3727.91509	0.21207
3725.98652	0.21803
3724.05796	0.22526
3722.12939	0.23130
3720.20083	0.23593
3718.27227	0.23970
3716.34370	0.24357
3714.41514	0.24934
3712.48657	0.26027
3710.55801	0.27821
3708.62944	0.29509
3706.70088	0.30587
3704.77231	0.31606
3702.84375	0.32911
3700.91519	0.34582
3698.98662	0.36329
3697.05806	0.37998
3695.12949	0.39850
3693.20093	0.41890
3691.27236	0.44198
3689.34380	0.47164
3687.41523	0.50524
3685.48667	0.53283
3683.55811	0.55702
3681.62954	0.58440
3679.70098	0.61701
3677.77241	0.65285
3675.84385	0.69539
3673.91528	0.74993
3671.98672	0.79248
3670.05815	0.83075
3668.12959	0.88347
3666.20103	0.93020
3664.27246	0.96928
3662.34390	1.01220
3660.41533	1.05928
3658.48677	1.10669
3656.55820	1.15839
3654.62964	1.21595
3652.70107	1.26328
3650.77251	1.30511
3648.84395	1.36523
3646.91538	1.43674
3644.98682	1.48527
3643.05825	1.52236
3641.12969	1.56201
3639.20112	1.60707
3637.27256	1.65343
3635.34399	1.69894
3633.41543	1.74457
3631.48687	1.78761
3629.55830	1.83128
3627.62974	1.88709
3625.70117	1.93717
3623.77261	1.97002
3621.84404	2.00216
3619.91548	2.04037
3617.98691	2.08720
3616.05835	2.13126
3614.12979	2.16719
3612.20122	2.20569
3610.27266	2.24527
3608.34409	2.28589
3606.41553	2.32939
3604.48696	2.36885
3602.55840	2.40374
3600.62983	2.44259
3598.70127	2.48566
3596.77271	2.52703
3594.84414	2.56794
3592.91558	2.60924
3590.98701	2.64672
3589.05845	2.68119
3587.12988	2.72446
3585.20132	2.77345
3583.27275	2.81336
3581.34419	2.84924
3579.41562	2.88868
3577.48706	2.93125
3575.55850	2.97397
3573.62993	3.01714
3571.70137	3.05898
3569.77280	3.09952
3567.84424	3.14363
3565.91567	3.19772
3563.98711	3.24826
3562.05854	3.28786
3560.12998	3.32934
3558.20142	3.37461
3556.27285	3.41955
3554.34429	3.46361
3552.41572	3.50941
3550.48716	3.55561
3548.55859	3.59901
3546.63003	3.64293
3544.70146	3.69330
3542.77290	3.74474
3540.84434	3.79036
3538.91577	3.83371
3536.98721	3.87829
3535.05864	3.92672
3533.13008	3.97632
3531.20151	4.02559
3529.27295	4.07613
3527.34438	4.12509
3525.41582	4.16929
3523.48726	4.21475
3521.55869	4.26662
3519.63013	4.31740
3517.70156	4.36387
3515.77300	4.41105
3513.84443	4.45865
3511.91587	4.50248
3509.98730	4.54627
3508.05874	4.59516
3506.13018	4.64902
3504.20161	4.70360
3502.27305	4.75044
3500.34448	4.78847
3498.41592	4.82773
3496.48735	4.87428
3494.55879	4.92567
3492.63022	4.97963
3490.70166	5.03284
3488.77310	5.07774
3486.84453	5.11798
3484.91597	5.16687
3482.98740	5.22403
3481.05884	5.27972
3479.13027	5.32649
3477.20171	5.36330
3475.27314	5.40309
3473.34458	5.46020
3471.41602	5.52173
3469.48745	5.57207
3467.55889	5.62658
3465.63032	5.68901
3463.70176	5.73718
3461.77319	5.76675
3459.84463	5.80212
3457.91606	5.85390
3455.98750	5.91315
3454.05894	5.97565
3452.13037	6.03491
3450.20181	6.08125
3448.27324	6.11796
3446.34468	6.16145
3444.41611	6.21068
3442.48755	6.25351
3440.55898	6.28375
3438.63042	6.31689
3436.70186	6.37327
3434.77329	6.44198
3432.84473	6.49724
3430.91616	6.53575
3428.98760	6.58564
3427.05903	6.65709
3425.13047	6.73493
3423.20190	6.79111
3421.27334	6.83058
3419.34478	6.86898
3417.41621	6.88773
3415.48765	6.90264
3413.55908	6.94992
3411.63052	7.04038
3409.70195	7.14150
3407.77339	7.20234
3405.84482	7.20556
3403.91626	7.19668
3401.98770	7.21705
3400.05913	7.26987
3398.13057	7.33593
3396.20200	7.39096
3394.27344	7.43499
3392.34487	7.46171
3390.41631	7.48650
3388.48774	7.53421
3386.55918	7.60676
3384.63062	7.66498
3382.70205	7.71436
3380.77349	7.79473
3378.84492	7.83136
3376.91636	7.76683
3374.98779	7.69935
3373.05923	7.69587
3371.13066	7.69307
3369.20210	7.71313
3367.27354	7.79154
3365.34497	7.85796
3363.41641	7.90536
3361.48784	7.99935
3359.55928	8.09750
3357.63071	8.07073
3355.70215	7.99361
3353.77358	7.99023
3351.84502	8.05969
3349.91646	8.14602
3347.98789	8.16346
3346.05933	8.06561
3344.13076	7.99422
3342.20220	8.02098
3340.27363	8.02134
3338.34507	8.00146
3336.41650	8.04582
3334.48794	8.14760
3332.55937	8.23891
3330.63081	8.31391
3328.70225	8.35547
3326.77368	8.27167
3324.84512	8.12594
3322.91655	8.07856
3320.98799	8.17748
3319.05942	8.29171
3317.13086	8.30785
3315.20229	8.23369
3313.27373	8.17406
3311.34517	8.20216
3309.41660	8.24450
3307.48804	8.22887
3305.55947	8.22865
3303.63091	8.33165
3301.70234	8.42259
3299.77378	8.36777
3297.84521	8.22712
3295.91665	8.12663
3293.98809	8.10708
3292.05952	8.16713
3290.13096	8.27174
3288.20239	8.31702
3286.27383	8.31758
3284.34526	8.32920
3282.41670	8.31597
3280.48813	8.25407
3278.55957	8.24377
3276.63101	8.32209
3274.70244	8.33362
3272.77388	8.22664
3270.84531	8.15623
3268.91675	8.16326
3266.98818	8.14046
3265.05962	8.08342
3263.13105	8.05000
3261.20249	8.06935
3259.27393	8.17386
3257.34536	8.32075
3255.41680	8.38591
3253.48823	8.29619
3251.55967	8.13255
3249.63110	8.03156
3247.70254	8.03107
3245.77397	8.12096
3243.84541	8.26368
3241.91685	8.35631
3239.98828	8.40134
3238.05972	8.37924
3236.13115	8.24788
3234.20259	8.15921
3232.27402	8.19285
3230.34546	8.20477
3228.41689	8.08197
3226.48833	7.96134
3224.55977	7.93008
3222.63120	7.94991
3220.70264	7.96455
3218.77407	7.92856
3216.84551	7.87639
3214.91694	7.85996
3212.98838	7.88682
3211.05981	7.92807
3209.13125	7.92524
3207.20269	7.87743
3205.27412	7.83632
3203.34556	7.79361
3201.41699	7.72276
3199.48843	7.65226
3197.55986	7.59422
3195.63130	7.55954
3193.70273	7.56679
3191.77417	7.56585
3189.84561	7.52396
3187.91704	7.45170
3185.98848	7.35639
3184.05991	7.26278
3182.13135	7.20472
3180.20278	7.19225
3178.27422	7.18166
3176.34565	7.15848
3174.41709	7.12152
3172.48853	7.04682
3170.55996	6.98492
3168.63140	6.97460
3166.70283	6.94490
3164.77427	6.84758
3162.84570	6.74013
3160.91714	6.66003
3158.98857	6.58943
3157.06001	6.51357
3155.13145	6.44516
3153.20288	6.38822
3151.27432	6.33101
3149.34575	6.26786
3147.41719	6.19277
3145.48862	6.11514
3143.56006	6.04043
3141.63149	5.96011
3139.70293	5.88101
3137.77437	5.80971
3135.84580	5.74269
3133.91724	5.67932
3131.98867	5.61339
3130.06011	5.54178
3128.13154	5.47093
3126.20298	5.40320
3124.27441	5.33887
3122.34585	5.27344
3120.41729	5.20429
3118.48872	5.13469
3116.56016	5.06647
3114.63159	4.99851
3112.70303	4.92421
3110.77446	4.84455
3108.84590	4.77058
3106.91733	4.70465
3104.98877	4.64106
3103.06021	4.57655
3101.13164	4.50955
3099.20308	4.44383
3097.27451	4.38148
3095.34595	4.31812
3093.41738	4.25402
3091.48882	4.19002
3089.56025	4.12541
3087.63169	4.06107
3085.70312	3.99764
3083.77456	3.93741
3081.84600	3.88044
3079.91743	3.82250
3077.98887	3.76283
3076.06030	3.70452
3074.13174	3.64769
3072.20317	3.59070
3070.27461	3.53359
3068.34604	3.47679
3066.41748	3.42091
3064.48892	3.36624
3062.56035	3.31297
3060.63179	3.26118
3058.70322	3.20880
3056.77466	3.15496
3054.84609	3.10164
3052.91753	3.05008
3050.98896	3.00003
3049.06040	2.95034
3047.13184	2.90056
3045.20327	2.85157
3043.27471	2.80427
3041.34614	2.75823
3039.41758	2.71197
3037.48901	2.66513
3035.56045	2.61896
3033.63188	2.57501
3031.70332	2.53263
3029.77476	2.48949
3027.84619	2.44554
3025.91763	2.40264
3023.98906	2.36144
3022.06050	2.32112
3020.13193	2.28079
3018.20337	2.24023
3016.27480	2.20001
3014.34624	2.16143
3012.41768	2.12426
3010.48911	2.08731
3008.56055	2.05090
3006.63198	2.01484
3004.70342	1.97851
3002.77485	1.94328
3000.84629	1.91006
2998.91772	1.87777
2996.98916	1.84571
2995.06060	1.81424
2993.13203	1.78343
2991.20347	1.75334
2989.27490	1.72389
2987.34634	1.69468
2985.41777	1.66592
2983.48921	1.63773
2981.56064	1.60979
2979.63208	1.58238
2977.70352	1.55604
2975.77495	1.53050
2973.84639	1.50504
2971.91782	1.47935
2969.98926	1.45382
2968.06069	1.42885
2966.13213	1.40428
2964.20356	1.37994
2962.27500	1.35571
2960.34644	1.33143
2958.41787	1.30722
2956.48931	1.28306
2954.56074	1.25912
2952.63218	1.23618
2950.70361	1.21434
2948.77505	1.19272
2946.84648	1.17086
2944.91792	1.14914
2942.98936	1.12766
2941.06079	1.10610
2939.13223	1.08434
2937.20366	1.06249
2935.27510	1.04070
2933.34653	1.01928
2931.41797	0.99822
2929.48940	0.97702
2927.56084	0.95606
2925.63228	0.93612
2923.70371	0.91744
2921.77515	0.90041
2919.84658	0.88510
2917.91802	0.87079
2915.98945	0.85714
2914.06089	0.84428
2912.13232	0.83185
2910.20376	0.81930
2908.27520	0.80651
2906.34663	0.79379
2904.41807	0.78127
2902.48950	0.76876
2900.56094	0.75625
2898.63237	0.74394
2896.70381	0.73190
2894.77524	0.72015
2892.84668	0.70880
2890.91812	0.69785
2888.98955	0.68716
2887.06099	0.67678
2885.13242	0.66687
2883.20386	0.65713
2881.27529	0.64725
2879.34673	0.63744
2877.41816	0.62772
2875.48960	0.61789
2873.56104	0.60781
2871.63247	0.59728
2869.70391	0.58639
2867.77534	0.57525
2865.84678	0.56369
2863.91821	0.55183
2861.98965	0.53998
2860.06108	0.52819
2858.13252	0.51653
2856.20396	0.50513
2854.27539	0.49444
2852.34683	0.48517
2850.41826	0.47771
2848.48970	0.47164
2846.56113	0.46614
2844.63257	0.46102
2842.70400	0.45634
2840.77544	0.45186
2838.84687	0.44735
2836.91831	0.44262
2834.98975	0.43740
2833.06118	0.43184
2831.13262	0.42636
2829.20405	0.42099
2827.27549	0.41536
2825.34692	0.40950
2823.41836	0.40369
2821.48979	0.39809
2819.56123	0.39268
2817.63267	0.38725
2815.70410	0.38179
2813.77554	0.37662
2811.84697	0.37163
2809.91841	0.36640
2807.98984	0.36101
2806.06128	0.35579
2804.13271	0.35089
2802.20415	0.34605
2800.27559	0.34101
2798.34702	0.33600
2796.41846	0.33130
2794.48989	0.32683
2792.56133	0.32253
2790.63276	0.31830
2788.70420	0.31398
2786.77563	0.30962
2784.84707	0.30542
2782.91851	0.30138
2780.98994	0.29732
2779.06138	0.29324
2777.13281	0.28929
2775.20425	0.28560
2773.27568	0.28219
2771.34712	0.27886
2769.41855	0.27532
2767.48999	0.27156
2765.56143	0.26800
2763.63286	0.26479
2761.70430	0.26159
2759.77573	0.25832
2757.84717	0.25517
2755.91860	0.25209
2753.99004	0.24899
2752.06147	0.24594
2750.13291	0.24301
2748.20435	0.24028
2746.27578	0.23763
2744.34722	0.23496
2742.41865	0.23235
2740.49009	0.22977
2738.56152	0.22726
2736.63296	0.22493
2734.70439	0.22254
2732.77583	0.21996
2730.84727	0.21735
2728.91870	0.21485
2726.99014	0.21263
2725.06157	0.21071
2723.13301	0.20885
2721.20444	0.20685
2719.27588	0.20479
2717.34731	0.20278
2715.41875	0.20082
2713.49019	0.19892
2711.56162	0.19720
2709.63306	0.19567
2707.70449	0.19409
2705.77593	0.19234
2703.84736	0.19063
2701.91880	0.18904
2699.99023	0.18756
2698.06167	0.18621
2696.13311	0.18487
2694.20454	0.18342
2692.27598	0.18188
2690.34741	0.18036
2688.41885	0.17894
2686.49028	0.17767
2684.56172	0.17656
2682.63315	0.17556
2680.70459	0.17457
2678.77603	0.17349
2676.84746	0.17224
2674.91890	0.17087
2672.99033	0.16960
2671.06177	0.16867
2669.13320	0.16790
2667.20464	0.16695
2665.27607	0.16589
2663.34751	0.16494
2661.41895	0.16425
2659.49038	0.16371
2657.56182	0.16297
2655.63325	0.16199
2653.70469	0.16105
2651.77612	0.16032
2649.84756	0.15977
2647.91899	0.15920
2645.99043	0.15857
2644.06187	0.15806
2642.13330	0.15763
2640.20474	0.15712
2638.27617	0.15644
2636.34761	0.15569
2634.41904	0.15510
2632.49048	0.15466
2630.56191	0.15422
2628.63335	0.15388
2626.70479	0.15362
2624.77622	0.15332
2622.84766	0.15304
2620.91909	0.15279
2618.99053	0.15257
2617.06196	0.15239
2615.13340	0.15219
2613.20483	0.15194
2611.27627	0.15166
2609.34771	0.15155
2607.41914	0.15167
2605.49058	0.15163
2603.56201	0.15134
2601.63345	0.15113
2599.70488	0.15109
2597.77632	0.15108
2595.84775	0.15109
2593.91919	0.15127
2591.99062	0.15150
2590.06206	0.15151
2588.13350	0.15151
2586.20493	0.15167
2584.27637	0.15186
2582.34780	0.15210
2580.41924	0.15237
2578.49067	0.15256
2576.56211	0.15272
2574.63354	0.15293
2572.70498	0.15329
2570.77642	0.15368
2568.84785	0.15394
2566.91929	0.15422
2564.99072	0.15463
2563.06216	0.15504
2561.13359	0.15542
2559.20503	0.15577
2557.27646	0.15609
2555.34790	0.15654
2553.41934	0.15710
2551.49077	0.15764
2549.56221	0.15817
2547.63364	0.15875
2545.70508	0.15938
2543.77651	0.15993
2541.84795	0.16036
2539.91938	0.16081
2537.99082	0.16139
2536.06226	0.16206
2534.13369	0.16274
2532.20513	0.16335
2530.27656	0.16395
2528.34800	0.16459
2526.41943	0.16527
2524.49087	0.16598
2522.56230	0.16667
2520.63374	0.16738
2518.70518	0.16812
2516.77661	0.16888
2514.84805	0.16965
2512.91948	0.17036
2510.99092	0.17109
2509.06235	0.17191
2507.13379	0.17277
2505.20522	0.17359
2503.27666	0.17428
2501.34810	0.17495
2499.41953	0.17580
2497.49097	0.17669
2495.56240	0.17743
2493.63384	0.17817
2491.70527	0.17911
2489.77671	0.17996
2487.84814	0.18046
2485.91958	0.18105
2483.99102	0.18205
2482.06245	0.18315
2480.13389	0.18412
2478.20532	0.18494
2476.27676	0.18572
2474.34819	0.18658
2472.41963	0.18751
2470.49106	0.18839
2468.56250	0.18924
2466.63394	0.19018
2464.70537	0.19117
2462.77681	0.19205
2460.84824	0.19291
2458.91968	0.19382
2456.99111	0.19470
2455.06255	0.19558
2453.13398	0.19653
2451.20542	0.19743
2449.27686	0.19822
2447.34829	0.19910
2445.41973	0.20012
2443.49116	0.20111
2441.56260	0.20201
2439.63403	0.20291
2437.70547	0.20390
2435.77690	0.20499
2433.84834	0.20609
2431.91978	0.20716
2429.99121	0.20824
2428.06265	0.20928
2426.13408	0.21027
2424.20552	0.21128
2422.27695	0.21237
2420.34839	0.21341
2418.41982	0.21434
2416.49126	0.21535
2414.56270	0.21658
2412.63413	0.21774
2410.70557	0.21879
2408.77700	0.21994
2406.84844	0.22113
2404.91987	0.22227
2402.99131	0.22346
2401.06274	0.22468
2399.13418	0.22579
2397.20562	0.22689
2395.27705	0.22807
2393.34849	0.22928
2391.41992	0.23065
2389.49136	0.23236
2387.56279	0.23481
2385.63423	0.23879
2383.70566	0.24493
2381.77710	0.25330
2379.84854	0.26362
2377.91997	0.27564
2375.99141	0.28936
2374.06284	0.30514
2372.13428	0.32289
2370.20571	0.34181
2368.27715	0.36113
2366.34858	0.38002
2364.42002	0.39692
2362.49146	0.40965
2360.56289	0.41686
2358.63433	0.41804
2356.70576	0.41134
2354.77720	0.39685
2352.84863	0.37801
2350.92007	0.35855
2348.99150	0.34605
2347.06294	0.34610
2345.13437	0.35945
2343.20581	0.37802
2341.27725	0.38810
2339.34868	0.38897
2337.42012	0.38671
2335.49155	0.38444
2333.56299	0.38282
2331.63442	0.38209
2329.70586	0.38092
2327.77729	0.37791
2325.84873	0.37344
2323.92017	0.36834
2321.99160	0.36288
2320.06304	0.35656
2318.13447	0.34964
2316.20591	0.34383
2314.27734	0.34031
2312.34878	0.33852
2310.42021	0.33692
2308.49165	0.33423
2306.56309	0.33055
2304.63452	0.32706
2302.70596	0.32494
2300.77739	0.32413
2298.84883	0.32367
2296.92026	0.32313
2294.99170	0.32262
2293.06313	0.32228
2291.13457	0.32215
2289.20601	0.32209
2287.27744	0.32196
2285.34888	0.32185
2283.42031	0.32234
2281.49175	0.32392
2279.56318	0.32630
2277.63462	0.32879
2275.70605	0.33115
2273.77749	0.33342
2271.84893	0.33562
2269.92036	0.33763
2267.99180	0.33948
2266.06323	0.34132
2264.13467	0.34317
2262.20610	0.34505
2260.27754	0.34692
2258.34897	0.34865
2256.42041	0.35024
2254.49185	0.35187
2252.56328	0.35367
2250.63472	0.35555
2248.70615	0.35740
2246.77759	0.35926
2244.84902	0.36132
2242.92046	0.36344
2240.99189	0.36536
2239.06333	0.36722
2237.13477	0.36923
2235.20620	0.37131
2233.27764	0.37346
2231.34907	0.37571
2229.42051	0.37803
2227.49194	0.38020
2225.56338	0.38216
2223.63481	0.38414
2221.70625	0.38634
2219.77769	0.38857
2217.84912	0.39071
2215.92056	0.39292
2213.99199	0.39523
2212.06343	0.39739
2210.13486	0.39934
2208.20630	0.40133
2206.27773	0.40340
2204.34917	0.40541
2202.42061	0.40742
2200.49204	0.40949
2198.56348	0.41156
2196.63491	0.41357
2194.70635	0.41556
2192.77778	0.41753
2190.84922	0.41943
2188.92065	0.42123
2186.99209	0.42300
2185.06353	0.42478
2183.13496	0.42653
2181.20640	0.42816
2179.27783	0.42966
2177.34927	0.43123
2175.42070	0.43288
2173.49214	0.43445
2171.56357	0.43597
2169.63501	0.43738
2167.70645	0.43858
2165.77788	0.43969
2163.84932	0.44088
2161.92075	0.44206
2159.99219	0.44322
2158.06362	0.44433
2156.13506	0.44537
2154.20649	0.44629
2152.27793	0.44706
2150.34937	0.44784
2148.42080	0.44862
2146.49224	0.44927
2144.56367	0.44979
2142.63511	0.45028
2140.70654	0.45073
2138.77798	0.45105
2136.84941	0.45118
2134.92085	0.45119
2132.99229	0.45121
2131.06372	0.45137
2129.13516	0.45149
2127.20659	0.45137
2125.27803	0.45110
2123.34946	0.45083
2121.42090	0.45053
2119.49233	0.45008
2117.56377	0.44945
2115.63521	0.44879
2113.70664	0.44814
2111.77808	0.44740
2109.84951	0.44661
2107.92095	0.44580
2105.99238	0.44476
2104.06382	0.44357
2102.13525	0.44243
2100.20669	0.44131
2098.27812	0.44005
2096.34956	0.43868
2094.42100	0.43719
2092.49243	0.43556
2090.56387	0.43389
2088.63530	0.43227
2086.70674	0.43060
2084.77817	0.42877
2082.84961	0.42696
2080.92104	0.42525
2078.99248	0.42347
2077.06392	0.42162
2075.13535	0.41967
2073.20679	0.41757
2071.27822	0.41540
2069.34966	0.41325
2067.42109	0.41104
2065.49253	0.40875
2063.56396	0.40639
2061.63540	0.40409
2059.70684	0.40181
2057.77827	0.39945
2055.84971	0.39704
2053.92114	0.39461
2051.99258	0.39212
2050.06401	0.38943
2048.13545	0.38664
2046.20688	0.38408
2044.27832	0.38175
2042.34976	0.37933
2040.42119	0.37667
2038.49263	0.37388
2036.56406	0.37113
2034.63550	0.36845
2032.70693	0.36578
2030.77837	0.36319
2028.84980	0.36060
2026.92124	0.35785
2024.99268	0.35491
2023.06411	0.35205
2021.13555	0.34946
2019.20698	0.34708
2017.27842	0.34458
2015.34985	0.34168
2013.42129	0.33873
2011.49272	0.33601
2009.56416	0.33340
2007.63560	0.33080
2005.70703	0.32820
2003.77847	0.32559
2001.84990	0.32296
1999.92134	0.32023
1997.99277	0.31748
1996.06421	0.31494
1994.13564	0.31274
1992.20708	0.31062
1990.27852	0.30817
1988.34995	0.30547
1986.42139	0.30273
1984.49282	0.30012
1982.56426	0.29775
1980.63569	0.29554
1978.70713	0.29337
1976.77856	0.29118
1974.85000	0.28899
1972.92144	0.28682
1970.99287	0.28470
1969.06431	0.28277
1967.13574	0.28096
1965.20718	0.27888
1963.27861	0.27666
1961.35005	0.27463
1959.42148	0.27272
1957.49292	0.27091
1955.56436	0.26917
1953.63579	0.26735
1951.70723	0.26545
1949.77866	0.26368
1947.85010	0.26214
1945.92153	0.26088
1943.99297	0.25991
1942.06440	0.25870
1940.13584	0.25680
1938.20728	0.25483
1936.27871	0.25328
1934.35015	0.25193
1932.42158	0.25070
1930.49302	0.24954
1928.56445	0.24841
1926.63589	0.24736
1924.70732	0.24659
1922.77876	0.24596
1920.85020	0.24513
1918.92163	0.24428
1916.99307	0.24330
1915.06450	0.24193
1913.13594	0.24075
1911.20737	0.24013
1909.27881	0.23965
1907.35024	0.23888
1905.42168	0.23798
1903.49312	0.23725
1901.56455	0.23657
1899.63599	0.23598
1897.70742	0.23570
1895.77886	0.23552
1893.85029	0.23518
1891.92173	0.23490
1889.99316	0.23490
1888.06460	0.23460
1886.13604	0.23394
1884.20747	0.23352
1882.27891	0.23327
1880.35034	0.23302
1878.42178	0.23282
1876.49321	0.23269
1874.56465	0.23259
1872.63608	0.23286
1870.70752	0.23387
1868.77896	0.23530
1866.85039	0.23556
1864.92183	0.23462
1862.99326	0.23402
1861.06470	0.23409
1859.13613	0.23442
1857.20757	0.23467
1855.27900	0.23500
1853.35044	0.23543
1851.42187	0.23601
1849.49331	0.23680
1847.56475	0.23784
1845.63618	0.23922
1843.70762	0.24054
1841.77905	0.24081
1839.85049	0.24067
1837.92192	0.24124
1835.99336	0.24214
1834.06479	0.24302
1832.13623	0.24427
1830.20767	0.24626
1828.27910	0.24790
1826.35054	0.24867
1824.42197	0.24969
1822.49341	0.25056
1820.56484	0.25132
1818.63628	0.25251
1816.70771	0.25410
1814.77915	0.25577
1812.85059	0.25784
1810.92202	0.26026
1808.99346	0.26225
1807.06489	0.26380
1805.13633	0.26553
1803.20776	0.26796
1801.27920	0.27092
1799.35063	0.27381
1797.42207	0.27610
1795.49351	0.27856
1793.56494	0.28186
1791.63638	0.28570
1789.70781	0.28836
1787.77925	0.29011
1785.85068	0.29295
1783.92212	0.29670
1781.99355	0.30080
1780.06499	0.30513
1778.13643	0.30938
1776.20786	0.31351
1774.27930	0.31850
1772.35073	0.32516
1770.42217	0.33120
1768.49360	0.33540
1766.56504	0.33954
1764.63647	0.34432
1762.70791	0.35021
1760.77935	0.35760
1758.85078	0.36406
1756.92222	0.37042
1754.99365	0.37733
1753.06509	0.38385
1751.13652	0.39228
1749.20796	0.40285
1747.27939	0.41261
1745.35083	0.42081
1743.42227	0.42979
1741.49370	0.44024
1739.56514	0.45292
1737.63657	0.46562
1735.70801	0.47713
1733.77944	0.49473
1731.85088	0.51456
1729.92231	0.52923
1727.99375	0.54416
1726.06519	0.56055
1724.13662	0.57894
1722.20806	0.59904
1720.27949	0.61773
1718.35093	0.64019
1716.42236	0.67327
1714.49380	0.70324
1712.56523	0.72658
1710.63667	0.74976
1708.70811	0.77561
1706.77954	0.80548
1704.85098	0.84106
1702.92241	0.87270
1700.99385	0.90437
1699.06528	0.95191
1697.13672	0.99506
1695.20815	1.03826
1693.27959	1.08001
1691.35103	1.11453
1689.42246	1.15572
1687.49390	1.19966
1685.56533	1.24231
1683.63677	1.30845
1681.70820	1.37595
1679.77964	1.41757
1677.85107	1.45732
1675.92251	1.50411
1673.99395	1.56293
1672.06538	1.61576
1670.13682	1.66850
1668.20825	1.73642
1666.27969	1.79037
1664.35112	1.83687
1662.42256	1.89732
1660.49399	1.96615
1658.56543	2.01912
1656.63687	2.06183
1654.70830	2.10163
1652.77974	2.16258
1650.85117	2.21966
1648.92261	2.24173
1646.99404	2.27026
1645.06548	2.29852
1643.13691	2.31461
1641.20835	2.32254
1639.27979	2.33064
1637.35122	2.33813
1635.42266	2.34018
1633.49409	2.33079
1631.56553	2.31485
1629.63696	2.29722
1627.70840	2.26894
1625.77983	2.23621
1623.85127	2.19508
1621.92271	2.14230
1619.99414	2.09350
1618.06558	2.04676
1616.13701	1.98027
1614.20845	1.91172
1612.27988	1.86055
1610.35132	1.80826
1608.42275	1.75166
1606.49419	1.69594
1604.56562	1.64444
1602.63706	1.59429
1600.70850	1.54544
1598.77993	1.50072
1596.85137	1.45879
1594.92280	1.41794
1592.99424	1.37819
1591.06567	1.34171
1589.13711	1.30770
1587.20854	1.27612
1585.27998	1.24715
1583.35142	1.22050
1581.42285	1.19638
1579.49429	1.17607
1577.56572	1.15876
1575.63716	1.13781
1573.70859	1.11835
1571.78003	1.10598
1569.85146	1.09442
1567.92290	1.08162
1565.99434	1.07192
1564.06577	1.06531
1562.13721	1.06123
1560.20864	1.06073
1558.28008	1.06319
1556.35151	1.06292
1554.42295	1.06126
1552.49438	1.06035
1550.56582	1.05882
1548.63726	1.05539
1546.70869	1.05043
1544.78013	1.04376
1542.85156	1.03423
1540.92300	1.01852
1538.99443	0.99087
1537.06587	0.96901
1535.13730	0.95494
1533.20874	0.93720
1531.28018	0.91748
1529.35161	0.90311
1527.42305	0.89041
1525.49448	0.87752
1523.56592	0.86664
1521.63735	0.85642
1519.70879	0.84506
1517.78022	0.83468
1515.85166	0.82273
1513.92310	0.81032
1511.99453	0.80023
1510.06597	0.79208
1508.13740	0.78501
1506.20884	0.77171
1504.28027	0.75752
1502.35171	0.74958
1500.42314	0.74367
1498.49458	0.73797
1496.56602	0.73090
1494.63745	0.72296
1492.70889	0.71693
1490.78032	0.71268
1488.85176	0.70797
1486.92319	0.70222
1484.99463	0.69708
1483.06606	0.69333
1481.13750	0.69059
1479.20894	0.68864
1477.28037	0.68776
1475.35181	0.68797
1473.42324	0.68855
1471.49468	0.68698
1469.56611	0.68335
1467.63755	0.68046
1465.70898	0.67885
1463.78042	0.67759
1461.85186	0.67643
1459.92329	0.67646
1457.99473	0.67797
1456.06616	0.67787
1454.13760	0.67419
1452.20903	0.67076
1450.28047	0.66827
1448.35190	0.66613
1446.42334	0.66355
1444.49478	0.66078
1442.56621	0.65823
1440.63765	0.65573
1438.70908	0.65340
1436.78052	0.65076
1434.85195	0.64720
1432.92339	0.64409
1430.99482	0.64216
1429.06626	0.64098
1427.13770	0.64032
1425.20913	0.64046
1423.28057	0.64109
1421.35200	0.64152
1419.42344	0.64205
1417.49487	0.64178
1415.56631	0.63996
1413.63774	0.63849
1411.70918	0.63820
1409.78062	0.63876
1407.85205	0.63978
1405.92349	0.64120
1403.99492	0.64245
1402.06636	0.64278
1400.13779	0.64267
1398.20923	0.64204
1396.28066	0.64021
1394.35210	0.63672
1392.42354	0.63218
1390.49497	0.62812
1388.56641	0.62454
1386.63784	0.62021
1384.70928	0.61508
1382.78071	0.61032
1380.85215	0.60617
1378.92358	0.60270
1376.99502	0.60025
1375.06646	0.59895
1373.13789	0.59793
1371.20933	0.59672
1369.28076	0.59576
1367.35220	0.59463
1365.42363	0.59318
1363.49507	0.59204
1361.56650	0.59096
1359.63794	0.58937
1357.70937	0.58771
1355.78081	0.58627
1353.85225	0.58509
1351.92368	0.58422
1349.99512	0.58363
1348.06655	0.58298
1346.13799	0.58203
1344.20942	0.58117
1342.28086	0.58089
1340.35229	0.58103
1338.42373	0.58062
1336.49517	0.57947
1334.56660	0.57852
1332.63804	0.57819
1330.70947	0.57825
1328.78091	0.57844
1326.85234	0.57880
1324.92378	0.57937
1322.99521	0.57996
1321.06665	0.58061
1319.13809	0.58131
1317.20952	0.58156
1315.28096	0.58125
1313.35239	0.58076
1311.42383	0.58013
1309.49526	0.57936
1307.56670	0.57874
1305.63813	0.57837
1303.70957	0.57798
1301.78101	0.57735
1299.85244	0.57647
1297.92388	0.57557
1295.99531	0.57465
1294.06675	0.57350
1292.13818	0.57210
1290.20962	0.57079
1288.28105	0.56972
1286.35249	0.56859
1284.42393	0.56738
1282.49536	0.56626
1280.56680	0.56514
1278.63823	0.56395
1276.70967	0.56273
1274.78110	0.56167
1272.85254	0.56095
1270.92397	0.56048
1268.99541	0.55988
1267.06685	0.55913
1265.13828	0.55831
1263.20972	0.55747
1261.28115	0.55666
1259.35259	0.55596
1257.42402	0.55538
1255.49546	0.55496
1253.56689	0.55491
1251.63833	0.55519
1249.70977	0.55543
1247.78120	0.55551
1245.85264	0.55536
1243.92407	0.55479
1241.99551	0.55384
1240.06694	0.55269
1238.13838	0.55131
1236.20981	0.54964
1234.28125	0.54776
1232.35269	0.54582
1230.42412	0.54396
1228.49556	0.54221
1226.56699	0.54043
1224.63843	0.53857
1222.70986	0.53682
1220.78130	0.53545
1218.85273	0.53429
1216.92417	0.53302
1214.99561	0.53190
1213.06704	0.53118
1211.13848	0.53057
1209.20991	0.52979
1207.28135	0.52891
1205.35278	0.52799
1203.42422	0.52714
1201.49565	0.52655
1199.56709	0.52601
1197.63853	0.52525
1195.70996	0.52437
1193.78140	0.52368
1191.85283	0.52331
1189.92427	0.52316
1187.99570	0.52294
1186.06714	0.52272
1184.13857	0.52272
1182.21001	0.52311
1180.28145	0.52393
1178.35288	0.52510
1176.42432	0.52639
1174.49575	0.52757
1172.56719	0.52855
1170.63862	0.52918
1168.71006	0.52934
1166.78149	0.52925
1164.85293	0.52918
1162.92437	0.52913
1160.99580	0.52909
1159.06724	0.52899
1157.13867	0.52852
1155.21011	0.52758
1153.28154	0.52618
1151.35298	0.52428
1149.42441	0.52213
1147.49585	0.51986
1145.56729	0.51740
1143.63872	0.51485
1141.71016	0.51255
1139.78159	0.51072
1137.85303	0.50927
1135.92446	0.50810
1133.99590	0.50717
1132.06733	0.50652
1130.13877	0.50618
1128.21021	0.50576
1126.28164	0.50490
1124.35308	0.50397
1122.42451	0.50345
1120.49595	0.50338
1118.56738	0.50349
1116.63882	0.50374
1114.71025	0.50419
1112.78169	0.50478
1110.85312	0.50550
1108.92456	0.50637
1106.99600	0.50733
1105.06743	0.50844
1103.13887	0.50974
1101.21030	0.51108
1099.28174	0.51251
1097.35317	0.51445
1095.42461	0.51725
1093.49604	0.52099
1091.56748	0.52563
1089.63892	0.53116
1087.71035	0.53770
1085.78179	0.54516
1083.85322	0.55284
1081.92466	0.55990
1079.99609	0.56552
1078.06753	0.56874
1076.13896	0.56901
1074.21040	0.56630
1072.28184	0.56108
1070.35327	0.55444
1068.42471	0.54746
1066.49614	0.54070
1064.56758	0.53449
1062.63901	0.52912
1060.71045	0.52441
1058.78188	0.51999
1056.85332	0.51570
1054.92476	0.51177
1052.99619	0.50854
1051.06763	0.50610
1049.13906	0.50424
1047.21050	0.50275
1045.28193	0.50160
1043.35337	0.50075
1041.42480	0.50023
1039.49624	0.49983
1037.56768	0.49931
1035.63911	0.49878
1033.71055	0.49838
1031.78198	0.49783
1029.85342	0.49675
1027.92485	0.49539
1025.99629	0.49429
1024.06772	0.49352
1022.13916	0.49294
1020.21060	0.49269
1018.28203	0.49275
1016.35347	0.49302
1014.42490	0.49360
1012.49634	0.49431
1010.56777	0.49494
1008.63921	0.49565
1006.71064	0.49659
1004.78208	0.49787
1002.85352	0.49973
1000.92495	0.50231
998.99639	0.50561
997.06782	0.50947
995.13926	0.51362
993.21069	0.51766
991.28213	0.52100
989.35356	0.52315
987.42500	0.52423
985.49644	0.52473
983.56787	0.52496
981.63931	0.52528
979.71074	0.52610
977.78218	0.52755
975.85361	0.52958
973.92505	0.53199
971.99648	0.53456
970.06792	0.53753
968.13936	0.54119
966.21079	0.54536
964.28223	0.54964
962.35366	0.55399
960.42510	0.55872
958.49653	0.56390
956.56797	0.56940
954.63940	0.57535
952.71084	0.58161
950.78228	0.58795
948.85371	0.59429
946.92515	0.60048
944.99658	0.60662
943.06802	0.61309
941.13945	0.61962
939.21089	0.62571
937.28232	0.63139
935.35376	0.63670
933.42520	0.64192
931.49663	0.64729
929.56807	0.65254
927.63950	0.65787
925.71094	0.66375
923.78237	0.67015
921.85381	0.67677
919.92524	0.68326
917.99668	0.69010
916.06812	0.69736
914.13955	0.70441
912.21099	0.71133
910.28242	0.71880
908.35386	0.72751
906.42529	0.73657
904.49673	0.74468
902.56816	0.75271
900.63960	0.76179
898.71104	0.77175
896.78247	0.78200
894.85391	0.79185
892.92534	0.80091
890.99678	0.80978
889.06821	0.81897
887.13965	0.82897
885.21108	0.84026
883.28252	0.85214
881.35396	0.86427
879.42539	0.87695
877.49683	0.88913
875.56826	0.89990
873.63970	0.91027
871.71113	0.92185
869.78257	0.93377
867.85400	0.94496
865.92544	0.95650
863.99687	0.96793
862.06831	0.97851
860.13975	0.98924
858.21118	1.00117
856.28262	1.01425
854.35405	1.02753
852.42549	1.04015
850.49692	1.05151
848.56836	1.06227
846.63979	1.07309
844.71123	1.08382
842.78267	1.09493
840.85410	1.10660
838.92554	1.11852
836.99697	1.13022
835.06841	1.14122
833.13984	1.15198
831.21128	1.16229
829.28271	1.17162
827.35415	1.18150
825.42559	1.19209
823.49702	1.20268
821.56846	1.21257
819.63989	1.22378
817.71133	1.24234
815.78276	1.26639
813.85420	1.28457
811.92563	1.29424
809.99707	1.30518
808.06851	1.32398
806.13994	1.34847
804.21138	1.36190
802.28281	1.36074
800.35425	1.36412
798.42568	1.37802
796.49712	1.39761
794.56855	1.40261
792.63999	1.38278
790.71143	1.35433
788.78286	1.32892
786.85430	1.34904
784.92573	1.43644
782.99717	1.52668
781.06860	1.56520
779.14004	1.60337
777.21147	1.66483
775.28291	1.62169
773.35435	1.50838
771.42578	1.46793
769.49722	1.44222
767.56865	1.39838
765.64009	1.34403
763.71152	1.35216
761.78296	1.51096
759.85439	1.78144
757.92583	1.78666
755.99727	1.68146
754.06870	1.61864
752.14014	1.53299
750.21157	1.36113
748.28301	1.16517
746.35444	1.09752
744.42588	1.13040
742.49731	1.14144
740.56875	1.10788
738.64019	1.10590
736.71162	1.01044
734.78306	0.81049
732.85449	0.70393
730.92593	0.67429
728.99736	0.59592
727.06880	0.45943
725.14023	0.38942
723.21167	0.46497
721.28311	0.59392
719.35454	0.55849
717.42598	0.41684
715.49741	0.36570
713.56885	0.42136
711.64028	0.41613
709.71172	0.35775
707.78315	0.28620
705.85459	0.24976
703.92603	0.30143
701.99746	0.31454
700.06890	0.29245
698.14033	0.34173
696.21177	0.36497
694.28320	0.34788
692.35464	0.41382
690.42607	0.45789
688.49751	0.45238
686.56895	0.45905
684.64038	0.47406
682.71182	0.50058
680.78325	0.49488
678.85469	0.46132
676.92612	0.41770
674.99756	0.31762
673.06899	0.19758
671.14043	0.15379
669.21187	0.20824
667.28330	0.29268
665.35474	0.35942
663.42617	0.45582
661.49761	0.66777
659.56904	1.03763
657.64048	3.94584
655.71191	1.11776
653.78335	0.52508
651.85479	0.42360
649.92622	0.37683
647.99766	0.31951
646.06909	0.37814
644.14053	0.47973
642.21196	0.38122
640.28340	0.27031
638.35483	0.31200
636.42627	0.53126
634.49771	0.79075
632.56914	0.57573
630.64058	0.43243
628.71201	0.44366
626.78345	0.40485
624.85488	0.30832
622.92632	0.25933
620.99775	0.25324
619.06919	0.30254
617.14062	0.40083
615.21206	0.44098
613.28350	0.37712
611.35493	0.25978
609.42637	0.16368
607.49780	0.14104
605.56924	0.19195
603.64067	0.27464
601.71211	0.27876
599.78354	0.22675
597.85498	0.29129
595.92642	0.45304
593.99785	0.48412
592.06929	0.43026
590.14072	0.42200
588.21216	0.44775
586.28359	0.40799
584.35503	0.30008
582.42646	0.25788
580.49790	0.30152
578.56934	0.33347
576.64077	0.23967
574.71221	0.14407
572.78364	0.16782
570.85508	0.33292
568.92651	0.74245
566.99795	0.76202
565.06938	0.40862
563.14082	0.24208
561.21226	0.19047
559.28369	0.21283
557.35513	0.25951
555.42656	0.27602
553.49800	0.22955
551.56943	0.18181
549.64087	0.20104
547.71230	0.28768
545.78374	0.42379
543.85518	0.43319
541.92661	0.27824
539.99805	0.16668
538.06948	0.15060
536.14092	0.18668
534.21235	0.24142
532.28379	0.33811
530.35522	0.43476
528.42666	0.52972
526.49810	0.50674
524.56953	0.31913
522.64097	0.19316
520.71240	0.14787
518.78384	0.14324
516.85527	0.13712
514.92671	0.14604
512.99814	0.19023
511.06958	0.22896
509.14102	0.18852
507.21245	0.13407
505.28389	0.14054
503.35532	0.16036
501.42676	0.16255
499.49819	0.19623
