3997.91411	0.06980
3995.98555	0.06972
3994.05698	0.07027
3992.12842	0.07095
3990.19985	0.07147
3988.27129	0.07193
3986.34272	0.07214
3984.41416	0.07228
3982.48560	0.07251
3980.55703	0.07268
3978.62847	0.07291
3976.69990	0.07337
3974.77134	0.07371
3972.84277	0.07359
3970.91421	0.07326
3968.98564	0.07311
3967.05708	0.07337
3965.12852	0.07385
3963.19995	0.07403
3961.27139	0.07394
3959.34282	0.07414
3957.41426	0.07438
3955.48569	0.07427
3953.55713	0.07397
3951.62856	0.07379
3949.70000	0.07377
3947.77144	0.07373
3945.84287	0.07371
3943.91431	0.07383
3941.98574	0.07390
3940.05718	0.07392
3938.12861	0.07405
3936.20005	0.07413
3934.27148	0.07416
3932.34292	0.07428
3930.41436	0.07434
3928.48579	0.07415
3926.55723	0.07385
3924.62866	0.07383
3922.70010	0.07406
3920.77153	0.07408
3918.84297	0.07387
3916.91440	0.07366
3914.98584	0.07348
3913.05728	0.07317
3911.12871	0.07286
3909.20015	0.07279
3907.27158	0.07299
3905.34302	0.07339
3903.41445	0.07401
3901.48589	0.07476
3899.55732	0.07497
3897.62876	0.07425
3895.70020	0.07342
3893.77163	0.07312
3891.84307	0.07348
3889.91450	0.07419
3887.98594	0.07451
3886.05737	0.07482
3884.12881	0.07531
3882.20024	0.07525
3880.27168	0.07501
3878.34312	0.07492
3876.41455	0.07476
3874.48599	0.07486
3872.55742	0.07523
3870.62886	0.07551
3868.70029	0.07602
3866.77173	0.07651
3864.84316	0.07676
3862.91460	0.07698
3860.98604	0.07696
3859.05747	0.07697
3857.12891	0.07713
3855.20034	0.07738
3853.27178	0.07828
3851.34321	0.07954
3849.41465	0.07975
3847.48608	0.07962
3845.55752	0.07971
3843.62896	0.08021
3841.70039	0.08102
3839.77183	0.08189
3837.84326	0.08304
3835.91470	0.08401
3833.98613	0.08421
3832.05757	0.08440
3830.12900	0.08487
3828.20044	0.08530
3826.27187	0.08615
3824.34331	0.08757
3822.41475	0.08882
3820.48618	0.09020
3818.55762	0.09124
3816.62905	0.09158
3814.70049	0.09239
3812.77192	0.09322
3810.84336	0.09373
3808.91479	0.09465
3806.98623	0.09596
3805.05767	0.09690
3803.12910	0.09751
3801.20054	0.09893
3799.27197	0.10095
3797.34341	0.10217
3795.41484	0.10310
3793.48628	0.10405
3791.55771	0.10500
3789.62915	0.10604
3787.70059	0.10706
3785.77202	0.10831
3783.84346	0.11004
3781.91489	0.11190
3779.98633	0.11351
3778.05776	0.11492
3776.12920	0.11620
3774.20063	0.11773
3772.27207	0.11956
3770.34351	0.12156
3768.41494	0.12370
3766.48638	0.12563
3764.55781	0.12763
3762.62925	0.12955
3760.70068	0.13121
3758.77212	0.13350
3756.84355	0.13651
3754.91499	0.13905
3752.98643	0.14122
3751.05786	0.14428
3749.12930	0.14832
3747.20073	0.15075
3745.27217	0.15242
3743.34360	0.15534
3741.41504	0.15825
3739.48647	0.16039
3737.55791	0.16264
3735.62935	0.16559
3733.70078	0.16986
3731.77222	0.17430
3729.84365	0.17798
3727.91509	0.18158
3725.98652	0.18639
3724.05796	0.19307
3722.12939	0.20108
3720.20083	0.21009
3718.27227	0.21942
3716.34370	0.22859
3714.41514	0.23725
3712.48657	0.24618
3710.55801	0.25771
3708.62944	0.27088
3706.70088	0.28275
3704.77231	0.29406
3702.84375	0.30702
3700.91519	0.32428
3698.98662	0.34364
3697.05806	0.36210
3695.12949	0.38165
3693.20093	0.40207
3691.27236	0.42379
3689.34380	0.45204
3687.41523	0.48762
3685.48667	0.51942
3683.55811	0.54671
3681.62954	0.57541
3679.70098	0.60731
3677.77241	0.64080
3675.84385	0.68075
3673.91528	0.73514
3671.98672	0.77926
3670.05815	0.81787
3668.12959	0.87255
3666.20103	0.92329
3664.27246	0.96472
3662.34390	1.00858
3660.41533	1.05611
3658.48677	1.10285
3656.55820	1.15262
3654.62964	1.20895
3652.70107	1.25621
3650.77251	1.29585
3648.84395	1.35054
3646.91538	1.41987
3644.98682	1.47148
3643.05825	1.51133
3641.12969	1.55211
3639.20112	1.59667
3637.27256	1.64115
3635.34399	1.68392
3633.41543	1.72641
3631.48687	1.76653
3629.55830	1.80711
3627.62974	1.86026
3625.70117	1.91093
3623.77261	1.94525
3621.84404	1.97817
3619.91548	2.01684
3617.98691	2.06329
3616.05835	2.10667
3614.12979	2.14357
3612.20122	2.18438
3610.27266	2.22543
3608.34409	2.26491
3606.41553	2.30580
3604.48696	2.34479
3602.55840	2.38067
3600.62983	2.41825
3598.70127	2.45810
3596.77271	2.49778
3594.84414	2.53966
3592.91558	2.58430
3590.98701	2.62547
3589.05845	2.66092
3587.12988	2.70179
3585.20132	2.74953
3583.27275	2.79234
3581.34419	2.83147
3579.41562	2.87152
3577.48706	2.91267
3575.55850	2.95536
3573.62993	3.00070
3571.70137	3.04436
3569.77280	3.08455
3567.84424	3.12641
3565.91567	3.17766
3563.98711	3.22700
3562.05854	3.26734
3560.12998	3.31046
3558.20142	3.35760
3556.27285	3.40232
3554.34429	3.44523
3552.41572	3.49231
3550.48716	3.53937
3548.55859	3.58225
3546.63003	3.62598
3544.70146	3.67566
3542.77290	3.72729
3540.84434	3.77379
3538.91577	3.81756
3536.98721	3.86269
3535.05864	3.91064
3533.13008	3.95883
3531.20151	4.00514
3529.27295	4.04965
3527.34438	4.09667
3525.41582	4.14732
3523.48726	4.19778
3521.55869	4.24977
3519.63013	4.30215
3517.70156	4.34959
3515.77300	4.39166
3513.84443	4.43506
3511.91587	4.48194
3509.98730	4.52936
3508.05874	4.57924
3506.13018	4.63159
3504.20161	4.67799
3502.27305	4.72057
3500.34448	4.76747
3498.41592	4.81025
3496.48735	4.84928
3494.55879	4.89688
3492.63022	4.95055
3490.70166	5.00119
3488.77310	5.05129
3486.84453	5.10272
3484.91597	5.15227
3482.98740	5.20230
3481.05884	5.25656
3479.13027	5.31269
3477.20171	5.36700
3475.27314	5.41598
3473.34458	5.45305
3471.41602	5.48326
3469.48745	5.52106
3467.55889	5.56648
3465.63032	5.61565
3463.70176	5.67726
3461.77319	5.75138
3459.84463	5.82555
3457.91606	5.88125
3455.98750	5.90966
3454.05894	5.93716
3452.13037	5.98471
3450.20181	6.03669
3448.27324	6.08919
3446.34468	6.14608
3444.41611	6.19058
3442.48755	6.23279
3440.55898	6.28312
3438.63042	6.33145
3436.70186	6.37617
3434.77329	6.42084
3432.84473	6.47418
3430.91616	6.55167
3428.98760	6.64276
3427.05903	6.70111
3425.13047	6.73037
3423.20190	6.75876
3421.27334	6.79528
3419.34478	6.84150
3417.41621	6.89538
3415.48765	6.95082
3413.55908	6.99995
3411.63052	7.05916
3409.70195	7.11010
3407.77339	7.13487
3405.84482	7.16288
3403.91626	7.19949
3401.98770	7.21978
3400.05913	7.25523
3398.13057	7.32890
3396.20200	7.39220
3394.27344	7.42130
3392.34487	7.42700
3390.41631	7.44948
3388.48774	7.48745
3386.55918	7.52945
3384.63062	7.60613
3382.70205	7.68819
3380.77349	7.71024
3378.84492	7.74518
3376.91636	7.85360
3374.98779	7.88488
3373.05923	7.82812
3371.13066	7.82903
3369.20210	7.89165
3367.27354	7.94194
3365.34497	7.96075
3363.41641	7.97956
3361.48784	7.99452
3359.55928	7.96833
3357.63071	7.95433
3355.70215	8.04446
3353.77358	8.17514
3351.84502	8.22483
3349.91646	8.14810
3347.98789	8.07044
3346.05933	8.10450
3344.13076	8.16075
3342.20220	8.17193
3340.27363	8.20822
3338.34507	8.26119
3336.41650	8.21875
3334.48794	8.13589
3332.55937	8.11756
3330.63081	8.17025
3328.70225	8.23318
3326.77368	8.24613
3324.84512	8.21436
3322.91655	8.18738
3320.98799	8.20987
3319.05942	8.25192
3317.13086	8.28534
3315.20229	8.25858
3313.27373	8.16920
3311.34517	8.10226
3309.41660	8.12297
3307.48804	8.21283
3305.55947	8.29999
3303.63091	8.33909
3301.70234	8.29086
3299.77378	8.21640
3297.84521	8.16216
3295.91665	8.09198
3293.98809	8.02597
3292.05952	8.08093
3290.13096	8.23512
3288.20239	8.29504
3286.27383	8.26025
3284.34526	8.24746
3282.41670	8.29312
3280.48813	8.32457
3278.55957	8.25660
3276.63101	8.17398
3274.70244	8.25580
3272.77388	8.45031
3270.84531	8.49689
3268.91675	8.40170
3266.98818	8.29977
3265.05962	8.27928
3263.13105	8.34279
3261.20249	8.36884
3259.27393	8.30913
3257.34536	8.23872
3255.41680	8.16720
3253.48823	8.11052
3251.55967	8.13608
3249.63110	8.20353
3247.70254	8.25467
3245.77397	8.26264
3243.84541	8.24288
3241.91685	8.28707
3239.98828	8.36207
3238.05972	8.34083
3236.13115	8.24115
3234.20259	8.14945
3232.27402	8.12926
3230.34546	8.21582
3228.41689	8.29951
3226.48833	8.20487
3224.55977	8.07465
3222.63120	8.08166
3220.70264	8.09810
3218.77407	8.05963
3216.84551	8.04655
3214.91694	8.04802
3212.98838	8.07168
3211.05981	8.07004
3209.13125	7.94308
3207.20269	7.80727
3205.27412	7.80333
3203.34556	7.86227
3201.41699	7.87108
3199.48843	7.81664
3197.55986	7.75132
3195.63130	7.73801
3193.70273	7.73002
3191.77417	7.63315
3189.84561	7.51377
3187.91704	7.47264
3185.98848	7.44544
3184.05991	7.35898
3182.13135	7.28801
3180.20278	7.27074
3178.27422	7.24913
3176.34565	7.19384
3174.41709	7.11933
3172.48853	7.04744
3170.55996	6.99293
3168.63140	6.94912
3166.70283	6.90371
3164.77427	6.85675
3162.84570	6.79785
3160.91714	6.71628
3158.98857	6.63255
3157.06001	6.54692
3155.13145	6.45523
3153.20288	6.38582
3151.27432	6.34272
3149.34575	6.29098
3147.41719	6.21537
3145.48862	6.13822
3143.56006	6.06239
3141.63149	5.97940
3139.70293	5.90797
3137.77437	5.85176
3135.84580	5.78703
3133.91724	5.71646
3131.98867	5.65357
3130.06011	5.58601
3128.13154	5.51023
3126.20298	5.43651
3124.27441	5.36146
3122.34585	5.28424
3120.41729	5.21067
3118.48872	5.13564
3116.56016	5.06008
3114.63159	4.99021
3112.70303	4.92217
3110.77446	4.85055
3108.84590	4.77675
3106.91733	4.70798
3104.98877	4.64308
3103.06021	4.57671
3101.13164	4.51236
3099.20308	4.45084
3097.27451	4.38699
3095.34595	4.32046
3093.41738	4.25411
3091.48882	4.18946
3089.56025	4.12551
3087.63169	4.06006
3085.70312	3.99450
3083.77456	3.93093
3081.84600	3.87049
3079.91743	3.81203
3077.98887	3.75218
3076.06030	3.69230
3074.13174	3.63422
3072.20317	3.57626
3070.27461	3.51911
3068.34604	3.46438
3066.41748	3.41028
3064.48892	3.35480
3062.56035	3.29892
3060.63179	3.24439
3058.70322	3.19112
3056.77466	3.13879
3054.84609	3.08752
3052.91753	3.03641
3050.98896	2.98493
3049.06040	2.93414
3047.13184	2.88494
3045.20327	2.83619
3043.27471	2.78674
3041.34614	2.73788
3039.41758	2.69096
3037.48901	2.64526
3035.56045	2.60008
3033.63188	2.55590
3031.70332	2.51276
3029.77476	2.46947
3027.84619	2.42627
3025.91763	2.38440
3023.98906	2.34321
3022.06050	2.30213
3020.13193	2.26159
3018.20337	2.22156
3016.27480	2.18228
3014.34624	2.14393
3012.41768	2.10595
3010.48911	2.06831
3008.56055	2.03140
3006.63198	1.99549
3004.70342	1.96067
3002.77485	1.92640
3000.84629	1.89218
2998.91772	1.85832
2996.98916	1.82543
2995.06060	1.79385
2993.13203	1.76349
2991.20347	1.73346
2989.27490	1.70305
2987.34634	1.67290
2985.41777	1.64357
2983.48921	1.61468
2981.56064	1.58617
2979.63208	1.55825
2977.70352	1.53112
2975.77495	1.50490
2973.84639	1.47887
2971.91782	1.45265
2969.98926	1.42672
2968.06069	1.40145
2966.13213	1.37706
2964.20356	1.35313
2962.27500	1.32892
2960.34644	1.30450
2958.41787	1.28051
2956.48931	1.25738
2954.56074	1.23488
2952.63218	1.21253
2950.70361	1.19024
2948.77505	1.16809
2946.84648	1.14625
2944.91792	1.12526
2942.98936	1.10503
2941.06079	1.08507
2939.13223	1.06523
2937.20366	1.04553
2935.27510	1.02624
2933.34653	1.00730
2931.41797	0.98837
2929.48940	0.97004
2927.56084	0.95274
2925.63228	0.93564
2923.70371	0.91835
2921.77515	0.90177
2919.84658	0.88590
2917.91802	0.86970
2915.98945	0.85311
2914.06089	0.83715
2912.13232	0.82222
2910.20376	0.80768
2908.27520	0.79313
2906.34663	0.77891
2904.41807	0.76523
2902.48950	0.75217
2900.56094	0.73971
2898.63237	0.72738
2896.70381	0.71486
2894.77524	0.70236
2892.84668	0.69012
2890.91812	0.67826
2888.98955	0.66682
2887.06099	0.65583
2885.13242	0.64523
2883.20386	0.63485
2881.27529	0.62459
2879.34673	0.61441
2877.41816	0.60433
2875.48960	0.59459
2873.56104	0.58506
2871.63247	0.57524
2869.70391	0.56505
2867.77534	0.55485
2865.84678	0.54481
2863.91821	0.53474
2861.98965	0.52466
2860.06108	0.51506
2858.13252	0.50610
2856.20396	0.49744
2854.27539	0.48885
2852.34683	0.48057
2850.41826	0.47268
2848.48970	0.46492
2846.56113	0.45733
2844.63257	0.45011
2842.70400	0.44334
2840.77544	0.43699
2838.84687	0.43090
2836.91831	0.42495
2834.98975	0.41908
2833.06118	0.41326
2831.13262	0.40748
2829.20405	0.40180
2827.27549	0.39635
2825.34692	0.39086
2823.41836	0.38498
2821.48979	0.37913
2819.56123	0.37377
2817.63267	0.36852
2815.70410	0.36299
2813.77554	0.35743
2811.84697	0.35213
2809.91841	0.34701
2807.98984	0.34193
2806.06128	0.33691
2804.13271	0.33208
2802.20415	0.32755
2800.27559	0.32310
2798.34702	0.31843
2796.41846	0.31370
2794.48989	0.30918
2792.56133	0.30497
2790.63276	0.30094
2788.70420	0.29680
2786.77563	0.29251
2784.84707	0.28843
2782.91851	0.28466
2780.98994	0.28098
2779.06138	0.27727
2777.13281	0.27358
2775.20425	0.26993
2773.27568	0.26636
2771.34712	0.26290
2769.41855	0.25956
2767.48999	0.25628
2765.56143	0.25293
2763.63286	0.24970
2761.70430	0.24660
2759.77573	0.24346
2757.84717	0.24032
2755.91860	0.23736
2753.99004	0.23454
2752.06147	0.23170
2750.13291	0.22900
2748.20435	0.22643
2746.27578	0.22383
2744.34722	0.22137
2742.41865	0.21896
2740.49009	0.21636
2738.56152	0.21372
2736.63296	0.21121
2734.70439	0.20886
2732.77583	0.20665
2730.84727	0.20446
2728.91870	0.20220
2726.99014	0.20005
2725.06157	0.19803
2723.13301	0.19598
2721.20444	0.19395
2719.27588	0.19208
2717.34731	0.19029
2715.41875	0.18845
2713.49019	0.18669
2711.56162	0.18514
2709.63306	0.18368
2707.70449	0.18214
2705.77593	0.18058
2703.84736	0.17917
2701.91880	0.17784
2699.99023	0.17645
2698.06167	0.17495
2696.13311	0.17353
2694.20454	0.17226
2692.27598	0.17106
2690.34741	0.16978
2688.41885	0.16848
2686.49028	0.16729
2684.56172	0.16622
2682.63315	0.16514
2680.70459	0.16397
2678.77603	0.16292
2676.84746	0.16205
2674.91890	0.16109
2672.99033	0.15995
2671.06177	0.15886
2669.13320	0.15787
2667.20464	0.15689
2665.27607	0.15604
2663.34751	0.15535
2661.41895	0.15463
2659.49038	0.15388
2657.56182	0.15319
2655.63325	0.15245
2653.70469	0.15173
2651.77612	0.15124
2649.84756	0.15084
2647.91899	0.15034
2645.99043	0.14977
2644.06187	0.14922
2642.13330	0.14869
2640.20474	0.14818
2638.27617	0.14773
2636.34761	0.14735
2634.41904	0.14694
2632.49048	0.14654
2630.56191	0.14618
2628.63335	0.14584
2626.70479	0.14565
2624.77622	0.14555
2622.84766	0.14531
2620.91909	0.14497
2618.99053	0.14470
2617.06196	0.14454
2615.13340	0.14444
2613.20483	0.14431
2611.27627	0.14409
2609.34771	0.14389
2607.41914	0.14382
2605.49058	0.14381
2603.56201	0.14380
2601.63345	0.14384
2599.70488	0.14397
2597.77632	0.14413
2595.84775	0.14426
2593.91919	0.14432
2591.99062	0.14443
2590.06206	0.14464
2588.13350	0.14482
2586.20493	0.14492
2584.27637	0.14509
2582.34780	0.14539
2580.41924	0.14575
2578.49067	0.14612
2576.56211	0.14652
2574.63354	0.14686
2572.70498	0.14711
2570.77642	0.14744
2568.84785	0.14786
2566.91929	0.14828
2564.99072	0.14868
2563.06216	0.14904
2561.13359	0.14944
2559.20503	0.14999
2557.27646	0.15067
2555.34790	0.15120
2553.41934	0.15154
2551.49077	0.15200
2549.56221	0.15270
2547.63364	0.15336
2545.70508	0.15394
2543.77651	0.15452
2541.84795	0.15501
2539.91938	0.15550
2537.99082	0.15622
2536.06226	0.15707
2534.13369	0.15784
2532.20513	0.15852
2530.27656	0.15908
2528.34800	0.15955
2526.41943	0.16014
2524.49087	0.16092
2522.56230	0.16174
2520.63374	0.16265
2518.70518	0.16364
2516.77661	0.16449
2514.84805	0.16518
2512.91948	0.16593
2510.99092	0.16663
2509.06235	0.16724
2507.13379	0.16804
2505.20522	0.16902
2503.27666	0.16995
2501.34810	0.17078
2499.41953	0.17162
2497.49097	0.17248
2495.56240	0.17333
2493.63384	0.17412
2491.70527	0.17487
2489.77671	0.17571
2487.84814	0.17654
2485.91958	0.17734
2483.99102	0.17825
2482.06245	0.17924
2480.13389	0.18019
2478.20532	0.18110
2476.27676	0.18203
2474.34819	0.18302
2472.41963	0.18407
2470.49106	0.18501
2468.56250	0.18583
2466.63394	0.18671
2464.70537	0.18772
2462.77681	0.18869
2460.84824	0.18957
2458.91968	0.19046
2456.99111	0.19139
2455.06255	0.19231
2453.13398	0.19326
2451.20542	0.19428
2449.27686	0.19525
2447.34829	0.19615
2445.41973	0.19711
2443.49116	0.19816
2441.56260	0.19922
2439.63403	0.20029
2437.70547	0.20134
2435.77690	0.20232
2433.84834	0.20333
2431.91978	0.20436
2429.99121	0.20532
2428.06265	0.20635
2426.13408	0.20750
2424.20552	0.20866
2422.27695	0.20983
2420.34839	0.21092
2418.41982	0.21190
2416.49126	0.21293
2414.56270	0.21404
2412.63413	0.21519
2410.70557	0.21642
2408.77700	0.21778
2406.84844	0.21905
2404.91987	0.22012
2402.99131	0.22118
2401.06274	0.22235
2399.13418	0.22356
2397.20562	0.22479
2395.27705	0.22603
2393.34849	0.22723
2391.41992	0.22835
2389.49136	0.22933
2387.56279	0.23007
2385.63423	0.23006
2383.70566	0.22872
2381.77710	0.22599
2379.84854	0.22238
2377.91997	0.21813
2375.99141	0.21297
2374.06284	0.20661
2372.13428	0.19918
2370.20571	0.19119
2368.27715	0.18309
2366.34858	0.17570
2364.42002	0.17010
2362.49146	0.16629
2360.56289	0.16362
2358.63433	0.16371
2356.70576	0.16985
2354.77720	0.18145
2352.84863	0.19458
2350.92007	0.20645
2348.99150	0.21387
2347.06294	0.21479
2345.13437	0.20997
2343.20581	0.20401
2341.27725	0.20203
2339.34868	0.20386
2337.42012	0.20713
2335.49155	0.21055
2333.56299	0.21413
2331.63442	0.21777
2329.70586	0.22135
2327.77729	0.22497
2325.84873	0.22917
2323.92017	0.23404
2321.99160	0.23912
2320.06304	0.24446
2318.13447	0.25059
2316.20591	0.25684
2314.27734	0.26194
2312.34878	0.26586
2310.42021	0.26952
2308.49165	0.27346
2306.56309	0.27778
2304.63452	0.28218
2302.70596	0.28600
2300.77739	0.28916
2298.84883	0.29217
2296.92026	0.29528
2294.99170	0.29842
2293.06313	0.30153
2291.13457	0.30457
2289.20601	0.30759
2287.27744	0.31064
2285.34888	0.31354
2283.42031	0.31608
2281.49175	0.31823
2279.56318	0.32015
2277.63462	0.32198
2275.70605	0.32377
2273.77749	0.32550
2271.84893	0.32739
2269.92036	0.32949
2267.99180	0.33165
2266.06323	0.33381
2264.13467	0.33604
2262.20610	0.33835
2260.27754	0.34065
2258.34897	0.34299
2256.42041	0.34535
2254.49185	0.34766
2252.56328	0.34995
2250.63472	0.35229
2248.70615	0.35460
2246.77759	0.35691
2244.84902	0.35929
2242.92046	0.36159
2240.99189	0.36375
2239.06333	0.36589
2237.13477	0.36817
2235.20620	0.37051
2233.27764	0.37273
2231.34907	0.37485
2229.42051	0.37711
2227.49194	0.37946
2225.56338	0.38172
2223.63481	0.38388
2221.70625	0.38606
2219.77769	0.38822
2217.84912	0.39032
2215.92056	0.39240
2213.99199	0.39452
2212.06343	0.39675
2210.13486	0.39897
2208.20630	0.40101
2206.27773	0.40303
2204.34917	0.40526
2202.42061	0.40743
2200.49204	0.40935
2198.56348	0.41124
2196.63491	0.41323
2194.70635	0.41526
2192.77778	0.41723
2190.84922	0.41915
2188.92065	0.42103
2186.99209	0.42279
2185.06353	0.42445
2183.13496	0.42616
2181.20640	0.42786
2179.27783	0.42951
2177.34927	0.43124
2175.42070	0.43296
2173.49214	0.43454
2171.56357	0.43598
2169.63501	0.43727
2167.70645	0.43849
2165.77788	0.43975
2163.84932	0.44102
2161.92075	0.44221
2159.99219	0.44335
2158.06362	0.44447
2156.13506	0.44547
2154.20649	0.44642
2152.27793	0.44743
2150.34937	0.44828
2148.42080	0.44893
2146.49224	0.44958
2144.56367	0.45013
2142.63511	0.45055
2140.70654	0.45094
2138.77798	0.45125
2136.84941	0.45146
2134.92085	0.45172
2132.99229	0.45194
2131.06372	0.45196
2129.13516	0.45182
2127.20659	0.45162
2125.27803	0.45131
2123.34946	0.45092
2121.42090	0.45056
2119.49233	0.45017
2117.56377	0.44958
2115.63521	0.44886
2113.70664	0.44816
2111.77808	0.44745
2109.84951	0.44663
2107.92095	0.44570
2105.99238	0.44471
2104.06382	0.44364
2102.13525	0.44250
2100.20669	0.44132
2098.27812	0.44004
2096.34956	0.43870
2094.42100	0.43732
2092.49243	0.43585
2090.56387	0.43423
2088.63530	0.43251
2086.70674	0.43089
2084.77817	0.42926
2082.84961	0.42741
2080.92104	0.42544
2078.99248	0.42349
2077.06392	0.42151
2075.13535	0.41948
2073.20679	0.41744
2071.27822	0.41529
2069.34966	0.41306
2067.42109	0.41089
2065.49253	0.40875
2063.56396	0.40650
2061.63540	0.40421
2059.70684	0.40182
2057.77827	0.39934
2055.84971	0.39692
2053.92114	0.39453
2051.99258	0.39206
2050.06401	0.38952
2048.13545	0.38696
2046.20688	0.38437
2044.27832	0.38176
2042.34976	0.37915
2040.42119	0.37663
2038.49263	0.37413
2036.56406	0.37140
2034.63550	0.36849
2032.70693	0.36568
2030.77837	0.36306
2028.84980	0.36041
2026.92124	0.35768
2024.99268	0.35498
2023.06411	0.35234
2021.13555	0.34963
2019.20698	0.34684
2017.27842	0.34405
2015.34985	0.34122
2013.42129	0.33845
2011.49272	0.33580
2009.56416	0.33324
2007.63560	0.33069
2005.70703	0.32813
2003.77847	0.32554
2001.84990	0.32293
1999.92134	0.32033
1997.99277	0.31771
1996.06421	0.31511
1994.13564	0.31254
1992.20708	0.31000
1990.27852	0.30746
1988.34995	0.30492
1986.42139	0.30245
1984.49282	0.30012
1982.56426	0.29787
1980.63569	0.29558
1978.70713	0.29330
1976.77856	0.29104
1974.85000	0.28881
1972.92144	0.28661
1970.99287	0.28443
1969.06431	0.28233
1967.13574	0.28038
1965.20718	0.27837
1963.27861	0.27630
1961.35005	0.27428
1959.42148	0.27232
1957.49292	0.27047
1955.56436	0.26865
1953.63579	0.26683
1951.70723	0.26511
1949.77866	0.26353
1947.85010	0.26193
1945.92153	0.26031
1943.99297	0.25879
1942.06440	0.25738
1940.13584	0.25599
1938.20728	0.25457
1936.27871	0.25309
1934.35015	0.25166
1932.42158	0.25041
1930.49302	0.24926
1928.56445	0.24812
1926.63589	0.24693
1924.70732	0.24584
1922.77876	0.24492
1920.85020	0.24398
1918.92163	0.24297
1916.99307	0.24202
1915.06450	0.24117
1913.13594	0.24031
1911.20737	0.23947
1909.27881	0.23864
1907.35024	0.23787
1905.42168	0.23722
1903.49312	0.23673
1901.56455	0.23627
1899.63599	0.23572
1897.70742	0.23524
1895.77886	0.23492
1893.85029	0.23463
1891.92173	0.23422
1889.99316	0.23382
1888.06460	0.23353
1886.13604	0.23329
1884.20747	0.23300
1882.27891	0.23271
1880.35034	0.23256
1878.42178	0.23251
1876.49321	0.23256
1874.56465	0.23261
1872.63608	0.23264
1870.70752	0.23264
1868.77896	0.23289
1866.85039	0.23327
1864.92183	0.23336
1862.99326	0.23339
1861.06470	0.23358
1859.13613	0.23391
1857.20757	0.23427
1855.27900	0.23471
1853.35044	0.23515
1851.42187	0.23563
1849.49331	0.23609
1847.56475	0.23655
1845.63618	0.23715
1843.70762	0.23814
1841.77905	0.23920
1839.85049	0.23987
1837.92192	0.24057
1835.99336	0.24140
1834.06479	0.24231
1832.13623	0.24320
1830.20767	0.24439
1828.27910	0.24583
1826.35054	0.24700
1824.42197	0.24828
1822.49341	0.24963
1820.56484	0.25096
1818.63628	0.25241
1816.70771	0.25410
1814.77915	0.25569
1812.85059	0.25724
1810.92202	0.25901
1808.99346	0.26099
1807.06489	0.26303
1805.13633	0.26495
1803.20776	0.26697
1801.27920	0.26935
1799.35063	0.27227
1797.42207	0.27497
1795.49351	0.27735
1793.56494	0.27989
1791.63638	0.28325
1789.70781	0.28681
1787.77925	0.28960
1785.85068	0.29269
1783.92212	0.29630
1781.99355	0.30015
1780.06499	0.30424
1778.13643	0.30858
1776.20786	0.31263
1774.27930	0.31674
1772.35073	0.32222
1770.42217	0.32847
1768.49360	0.33400
1766.56504	0.33938
1764.63647	0.34475
1762.70791	0.35038
1760.77935	0.35755
1758.85078	0.36453
1756.92222	0.37169
1754.99365	0.37948
1753.06509	0.38639
1751.13652	0.39438
1749.20796	0.40458
1747.27939	0.41493
1745.35083	0.42409
1743.42227	0.43378
1741.49370	0.44451
1739.56514	0.45711
1737.63657	0.46960
1735.70801	0.48009
1733.77944	0.49578
1731.85088	0.51545
1729.92231	0.53143
1727.99375	0.54750
1726.06519	0.56444
1724.13662	0.58260
1722.20806	0.60220
1720.27949	0.62015
1718.35093	0.64086
1716.42236	0.67212
1714.49380	0.70283
1712.56523	0.72784
1710.63667	0.75181
1708.70811	0.77734
1706.77954	0.80619
1704.85098	0.84074
1702.92241	0.87173
1700.99385	0.90206
1699.06528	0.94701
1697.13672	0.98859
1695.20815	1.03172
1693.27959	1.07356
1691.35103	1.10674
1689.42246	1.14490
1687.49390	1.18529
1685.56533	1.22381
1683.63677	1.28335
1681.70820	1.34627
1679.77964	1.38666
1677.85107	1.42486
1675.92251	1.46871
1673.99395	1.52313
1672.06538	1.57146
1670.13682	1.61852
1668.20825	1.68020
1666.27969	1.73039
1664.35112	1.77212
1662.42256	1.82409
1660.49399	1.88335
1658.56543	1.92994
1656.63687	1.96738
1654.70830	2.00132
1652.77974	2.05673
1650.85117	2.11263
1648.92261	2.13435
1646.99404	2.16233
1645.06548	2.19451
1643.13691	2.21532
1641.20835	2.22774
1639.27979	2.23935
1637.35122	2.24720
1635.42266	2.24801
1633.49409	2.24031
1631.56553	2.22668
1629.63696	2.21159
1627.70840	2.18748
1625.77983	2.15786
1623.85127	2.11863
1621.92271	2.06962
1619.99414	2.02550
1618.06558	1.98248
1616.13701	1.92195
1614.20845	1.85986
1612.27988	1.81162
1610.35132	1.76072
1608.42275	1.70545
1606.49419	1.65086
1604.56562	1.60029
1602.63706	1.55136
1600.70850	1.50348
1598.77993	1.45939
1596.85137	1.41807
1594.92280	1.37793
1592.99424	1.33914
1591.06567	1.30390
1589.13711	1.27121
1587.20854	1.24049
1585.27998	1.21155
1583.35142	1.18436
1581.42285	1.15955
1579.49429	1.13814
1577.56572	1.11839
1575.63716	1.09385
1573.70859	1.07240
1571.78003	1.05876
1569.85146	1.04441
1567.92290	1.02803
1565.99434	1.01530
1564.06577	1.00507
1562.13721	0.99667
1560.20864	0.98979
1558.28008	0.97963
1556.35151	0.97134
1554.42295	0.96655
1552.49438	0.96162
1550.56582	0.95569
1548.63726	0.94839
1546.70869	0.94065
1544.78013	0.93173
1542.85156	0.92123
1540.92300	0.90822
1538.99443	0.88913
1537.06587	0.87478
1535.13730	0.86478
1533.20874	0.85174
1531.28018	0.83799
1529.35161	0.82810
1527.42305	0.81869
1525.49448	0.80866
1523.56592	0.79993
1521.63735	0.79159
1519.70879	0.78278
1517.78022	0.77507
1515.85166	0.76677
1513.92310	0.75845
1511.99453	0.75109
1510.06597	0.74416
1508.13740	0.73747
1506.20884	0.72804
1504.28027	0.71997
1502.35171	0.71498
1500.42314	0.71037
1498.49458	0.70554
1496.56602	0.70017
1494.63745	0.69498
1492.70889	0.69069
1490.78032	0.68654
1488.85176	0.68187
1486.92319	0.67771
1484.99463	0.67433
1483.06606	0.67138
1481.13750	0.66857
1479.20894	0.66604
1477.28037	0.66399
1475.35181	0.66212
1473.42324	0.66040
1471.49468	0.65844
1469.56611	0.65617
1467.63755	0.65390
1465.70898	0.65177
1463.78042	0.64988
1461.85186	0.64831
1459.92329	0.64715
1457.99473	0.64629
1456.06616	0.64503
1454.13760	0.64291
1452.20903	0.64078
1450.28047	0.63869
1448.35190	0.63673
1446.42334	0.63482
1444.49478	0.63291
1442.56621	0.63112
1440.63765	0.62931
1438.70908	0.62723
1436.78052	0.62464
1434.85195	0.62204
1432.92339	0.62002
1430.99482	0.61840
1429.06626	0.61709
1427.13770	0.61611
1425.20913	0.61539
1423.28057	0.61489
1421.35200	0.61442
1419.42344	0.61387
1417.49487	0.61320
1415.56631	0.61218
1413.63774	0.61109
1411.70918	0.61029
1409.78062	0.60995
1407.85205	0.60983
1405.92349	0.60980
1403.99492	0.60972
1402.06636	0.60928
1400.13779	0.60840
1398.20923	0.60697
1396.28066	0.60515
1394.35210	0.60301
1392.42354	0.60048
1390.49497	0.59791
1388.56641	0.59536
1386.63784	0.59251
1384.70928	0.58955
1382.78071	0.58683
1380.85215	0.58427
1378.92358	0.58206
1376.99502	0.58033
1375.06646	0.57900
1373.13789	0.57792
1371.20933	0.57693
1369.28076	0.57591
1367.35220	0.57477
1365.42363	0.57353
1363.49507	0.57226
1361.56650	0.57101
1359.63794	0.56995
1357.70937	0.56909
1355.78081	0.56821
1353.85225	0.56729
1351.92368	0.56642
1349.99512	0.56563
1348.06655	0.56487
1346.13799	0.56412
1344.20942	0.56332
1342.28086	0.56246
1340.35229	0.56174
1338.42373	0.56113
1336.49517	0.56045
1334.56660	0.55983
1332.63804	0.55936
1330.70947	0.55893
1328.78091	0.55857
1326.85234	0.55839
1324.92378	0.55830
1322.99521	0.55820
1321.06665	0.55801
1319.13809	0.55777
1317.20952	0.55747
1315.28096	0.55696
1313.35239	0.55645
1311.42383	0.55605
1309.49526	0.55561
1307.56670	0.55511
1305.63813	0.55458
1303.70957	0.55391
1301.78101	0.55315
1299.85244	0.55242
1297.92388	0.55169
1295.99531	0.55085
1294.06675	0.54986
1292.13818	0.54883
1290.20962	0.54786
1288.28105	0.54701
1286.35249	0.54622
1284.42393	0.54549
1282.49536	0.54479
1280.56680	0.54408
1278.63823	0.54325
1276.70967	0.54225
1274.78110	0.54134
1272.85254	0.54084
1270.92397	0.54058
1268.99541	0.54015
1267.06685	0.53950
1265.13828	0.53892
1263.20972	0.53841
1261.28115	0.53782
1259.35259	0.53726
1257.42402	0.53683
1255.49546	0.53648
1253.56689	0.53624
1251.63833	0.53614
1249.70977	0.53615
1247.78120	0.53614
1245.85264	0.53604
1243.92407	0.53567
1241.99551	0.53500
1240.06694	0.53419
1238.13838	0.53327
1236.20981	0.53216
1234.28125	0.53094
1232.35269	0.52968
1230.42412	0.52839
1228.49556	0.52710
1226.56699	0.52589
1224.63843	0.52492
1222.70986	0.52420
1220.78130	0.52340
1218.85273	0.52244
1216.92417	0.52144
1214.99561	0.52044
1213.06704	0.51954
1211.13848	0.51887
1209.20991	0.51830
1207.28135	0.51764
1205.35278	0.51693
1203.42422	0.51629
1201.49565	0.51568
1199.56709	0.51507
1197.63853	0.51437
1195.70996	0.51373
1193.78140	0.51329
1191.85283	0.51297
1189.92427	0.51262
1187.99570	0.51235
1186.06714	0.51236
1184.13857	0.51243
1182.21001	0.51239
1180.28145	0.51250
1178.35288	0.51294
1176.42432	0.51364
1174.49575	0.51446
1172.56719	0.51507
1170.63862	0.51519
1168.71006	0.51521
1166.78149	0.51542
1164.85293	0.51559
1162.92437	0.51540
1160.99580	0.51494
1159.06724	0.51443
1157.13867	0.51381
1155.21011	0.51295
1153.28154	0.51177
1151.35298	0.51021
1149.42441	0.50826
1147.49585	0.50608
1145.56729	0.50377
1143.63872	0.50148
1141.71016	0.49934
1139.78159	0.49729
1137.85303	0.49536
1135.92446	0.49362
1133.99590	0.49221
1132.06733	0.49117
1130.13877	0.49017
1128.21021	0.48903
1126.28164	0.48793
1124.35308	0.48697
1122.42451	0.48606
1120.49595	0.48532
1118.56738	0.48495
1116.63882	0.48475
1114.71025	0.48459
1112.78169	0.48473
1110.85312	0.48522
1108.92456	0.48601
1106.99600	0.48706
1105.06743	0.48801
1103.13887	0.48905
1101.21030	0.49074
1099.28174	0.49300
1097.35317	0.49556
1095.42461	0.49844
1093.49604	0.50179
1091.56748	0.50597
1089.63892	0.51109
1087.71035	0.51672
1085.78179	0.52275
1083.85322	0.52924
1081.92466	0.53568
1079.99609	0.54124
1078.06753	0.54500
1076.13896	0.54604
1074.21040	0.54407
1072.28184	0.53957
1070.35327	0.53343
1068.42471	0.52693
1066.49614	0.52073
1064.56758	0.51454
1062.63901	0.50857
1060.71045	0.50336
1058.78188	0.49903
1056.85332	0.49518
1054.92476	0.49158
1052.99619	0.48844
1051.06763	0.48591
1049.13906	0.48395
1047.21050	0.48244
1045.28193	0.48125
1043.35337	0.48013
1041.42480	0.47894
1039.49624	0.47782
1037.56768	0.47714
1035.63911	0.47707
1033.71055	0.47719
1031.78198	0.47709
1029.85342	0.47677
1027.92485	0.47644
1025.99629	0.47635
1024.06772	0.47663
1022.13916	0.47709
1020.21060	0.47758
1018.28203	0.47824
1016.35347	0.47920
1014.42490	0.48025
1012.49634	0.48109
1010.56777	0.48203
1008.63921	0.48342
1006.71064	0.48512
1004.78208	0.48702
1002.85352	0.48921
1000.92495	0.49165
998.99639	0.49448
997.06782	0.49803
995.13926	0.50206
993.21069	0.50606
991.28213	0.50954
989.35356	0.51207
987.42500	0.51362
985.49644	0.51444
983.56787	0.51498
981.63931	0.51579
979.71074	0.51710
977.78218	0.51898
975.85361	0.52143
973.92505	0.52418
971.99648	0.52714
970.06792	0.53048
968.13936	0.53426
966.21079	0.53848
964.28223	0.54305
962.35366	0.54774
960.42510	0.55266
958.49653	0.55814
956.56797	0.56414
954.63940	0.57023
952.71084	0.57612
950.78228	0.58208
948.85371	0.58824
946.92515	0.59431
944.99658	0.60022
943.06802	0.60633
941.13945	0.61284
939.21089	0.61927
937.28232	0.62530
935.35376	0.63093
933.42520	0.63605
931.49663	0.64112
929.56807	0.64688
927.63950	0.65296
925.71094	0.65887
923.78237	0.66503
921.85381	0.67150
919.92524	0.67790
917.99668	0.68433
916.06812	0.69098
914.13955	0.69800
912.21099	0.70584
910.28242	0.71452
908.35386	0.72327
906.42529	0.73199
904.49673	0.74093
902.56816	0.74923
900.63960	0.75700
898.71104	0.76640
896.78247	0.77740
894.85391	0.78724
892.92534	0.79593
890.99678	0.80534
889.06821	0.81615
887.13965	0.82805
885.21108	0.83968
883.28252	0.84992
881.35396	0.86005
879.42539	0.87225
877.49683	0.88521
875.56826	0.89646
873.63970	0.90696
871.71113	0.91836
869.78257	0.92945
867.85400	0.93988
865.92544	0.95157
863.99687	0.96341
862.06831	0.97400
860.13975	0.98475
858.21118	0.99635
856.28262	1.00825
854.35405	1.01977
852.42549	1.03062
850.49692	1.04202
848.56836	1.05554
846.63979	1.07024
844.71123	1.08297
842.78267	1.09233
840.85410	1.10088
838.92554	1.11109
836.99697	1.12358
835.06841	1.13655
833.13984	1.14715
831.21128	1.15632
829.28271	1.16623
827.35415	1.17846
825.42559	1.19343
823.49702	1.20753
821.56846	1.21956
819.63989	1.23532
817.71133	1.25380
815.78276	1.26603
813.85420	1.27337
811.92563	1.28343
809.99707	1.29288
808.06851	1.29753
806.13994	1.31089
804.21138	1.34493
802.28281	1.39150
800.35425	1.42763
798.42568	1.44616
796.49712	1.45839
794.56855	1.47939
792.63999	1.52175
790.71143	1.54148
788.78286	1.52204
786.85430	1.51342
784.92573	1.52245
782.99717	1.58811
781.06860	1.66590
779.14004	1.68187
777.21147	1.65822
775.28291	1.57227
773.35435	1.43630
771.42578	1.31485
769.49722	1.26814
767.56865	1.32256
765.64009	1.42107
763.71152	1.46020
761.78296	1.38468
759.85439	1.29585
757.92583	1.29738
755.99727	1.35550
754.06870	1.39763
752.14014	1.32599
750.21157	1.10653
748.28301	0.94110
746.35444	0.89219
744.42588	0.90827
742.49731	0.91798
740.56875	0.89412
738.64019	0.81936
736.71162	0.70888
734.78306	0.64422
732.85449	0.68702
730.92593	0.82376
728.99736	0.79349
727.06880	0.52364
725.14023	0.35277
723.21167	0.35763
721.28311	0.39966
719.35454	0.27483
717.42598	0.13582
715.49741	0.10889
713.56885	0.19297
711.64028	0.23066
709.71172	0.23299
707.78315	0.23214
705.85459	0.15485
703.92603	0.12932
701.99746	0.20592
700.06890	0.22994
698.14033	0.17951
696.21177	0.15889
694.28320	0.17494
692.35464	0.21671
690.42607	0.24171
688.49751	0.20102
686.56895	0.15661
684.64038	0.19992
682.71182	0.25225
680.78325	0.19218
678.85469	0.10531
676.92612	0.11147
674.99756	0.15779
673.06899	0.23065
671.14043	0.38902
669.21187	0.45221
667.28330	0.37637
665.35474	0.35315
663.42617	0.29060
661.49761	0.20582
659.56904	0.19324
657.64048	0.22545
655.71191	0.21789
653.78335	0.17098
651.85479	0.15955
649.92622	0.15790
647.99766	0.11451
646.06909	0.06333
644.14053	0.05736
642.21196	0.12209
640.28340	0.18468
638.35483	0.19757
636.42627	0.21702
634.49771	0.23000
632.56914	0.20060
630.64058	0.15007
628.71201	0.13820
626.78345	0.18457
624.85488	0.28372
622.92632	0.35167
620.99775	0.28128
619.06919	0.17316
617.14062	0.14636
615.21206	0.17097
613.28350	0.17040
611.35493	0.17238
609.42637	0.21549
607.49780	0.27076
605.56924	0.29070
603.64067	0.29740
601.71211	0.30190
599.78354	0.24434
597.85498	0.18506
595.92642	0.16197
593.99785	0.14396
592.06929	0.16246
590.14072	0.21781
588.21216	0.23850
586.28359	0.19692
584.35503	0.14819
582.42646	0.11765
580.49790	0.08613
578.56934	0.09078
576.64077	0.15262
574.71221	0.18598
572.78364	0.15965
570.85508	0.15754
568.92651	0.21535
566.99795	0.27016
565.06938	0.29137
563.14082	0.29416
561.21226	0.27195
559.28369	0.21202
557.35513	0.13240
555.42656	0.07115
553.49800	0.07756
551.56943	0.13409
549.64087	0.18252
547.71230	0.16422
545.78374	0.08066
543.85518	0.01422
541.92661	0.03775
539.99805	0.10886
538.06948	0.17542
536.14092	0.22376
534.21235	0.24540
532.28379	0.20980
530.35522	0.14390
528.42666	0.13995
526.49810	0.22407
524.56953	0.29766
522.64097	0.24435
520.71240	0.19307
518.78384	0.21922
516.85527	0.26320
514.92671	0.25678
512.99814	0.25601
511.06958	0.26621
509.14102	0.23327
507.21245	0.19124
505.28389	0.18819
503.35532	0.17613
501.42676	0.13005
499.49819	0.09915
