3997.91411	0.07343
3995.98555	0.07384
3994.05698	0.07409
3992.12842	0.07413
3990.19985	0.07435
3988.27129	0.07489
3986.34272	0.07533
3984.41416	0.07551
3982.48560	0.07559
3980.55703	0.07553
3978.62847	0.07543
3976.69990	0.07569
3974.77134	0.07613
3972.84277	0.07638
3970.91421	0.07635
3968.98564	0.07619
3967.05708	0.07630
3965.12852	0.07666
3963.19995	0.07684
3961.27139	0.07709
3959.34282	0.07756
3957.41426	0.07763
3955.48569	0.07728
3953.55713	0.07707
3951.62856	0.07725
3949.70000	0.07768
3947.77144	0.07799
3945.84287	0.07813
3943.91431	0.07837
3941.98574	0.07850
3940.05718	0.07798
3938.12861	0.07735
3936.20005	0.07728
3934.27148	0.07763
3932.34292	0.07830
3930.41436	0.07890
3928.48579	0.07872
3926.55723	0.07820
3924.62866	0.07815
3922.70010	0.07821
3920.77153	0.07801
3918.84297	0.07794
3916.91440	0.07807
3914.98584	0.07774
3913.05728	0.07673
3911.12871	0.07588
3909.20015	0.07600
3907.27158	0.07709
3905.34302	0.07861
3903.41445	0.08009
3901.48589	0.08078
3899.55732	0.08048
3897.62876	0.07948
3895.70020	0.07827
3893.77163	0.07783
3891.84307	0.07851
3889.91450	0.07924
3887.98594	0.07918
3886.05737	0.07927
3884.12881	0.07962
3882.20024	0.07955
3880.27168	0.07952
3878.34312	0.07938
3876.41455	0.07912
3874.48599	0.07955
3872.55742	0.08049
3870.62886	0.08156
3868.70029	0.08257
3866.77173	0.08260
3864.84316	0.08250
3862.91460	0.08259
3860.98604	0.08183
3859.05747	0.08109
3857.12891	0.08140
3855.20034	0.08303
3853.27178	0.08621
3851.34321	0.08774
3849.41465	0.08579
3847.48608	0.08412
3845.55752	0.08389
3843.62896	0.08514
3841.70039	0.08745
3839.77183	0.08981
3837.84326	0.09144
3835.91470	0.09156
3833.98613	0.09075
3832.05757	0.09015
3830.12900	0.08992
3828.20044	0.09003
3826.27187	0.09090
3824.34331	0.09215
3822.41475	0.09341
3820.48618	0.09545
3818.55762	0.09687
3816.62905	0.09700
3814.70049	0.09735
3812.77192	0.09736
3810.84336	0.09715
3808.91479	0.09789
3806.98623	0.09980
3805.05767	0.10159
3803.12910	0.10292
3801.20054	0.10511
3799.27197	0.10693
3797.34341	0.10719
3795.41484	0.10735
3793.48628	0.10744
3791.55771	0.10771
3789.62915	0.10874
3787.70059	0.11021
3785.77202	0.11185
3783.84346	0.11350
3781.91489	0.11504
3779.98633	0.11695
3778.05776	0.11897
3776.12920	0.11993
3774.20063	0.12068
3772.27207	0.12240
3770.34351	0.12497
3768.41494	0.12770
3766.48638	0.12991
3764.55781	0.13191
3762.62925	0.13356
3760.70068	0.13521
3758.77212	0.13804
3756.84355	0.14123
3754.91499	0.14355
3752.98643	0.14641
3751.05786	0.15112
3749.12930	0.15597
3747.20073	0.15819
3745.27217	0.15999
3743.34360	0.16330
3741.41504	0.16639
3739.48647	0.16876
3737.55791	0.17232
3735.62935	0.17820
3733.70078	0.18463
3731.77222	0.18849
3729.84365	0.19096
3727.91509	0.19417
3725.98652	0.19950
3724.05796	0.20642
3722.12939	0.21317
3720.20083	0.21999
3718.27227	0.22727
3716.34370	0.23491
3714.41514	0.24288
3712.48657	0.25266
3710.55801	0.26642
3708.62944	0.28084
3706.70088	0.29227
3704.77231	0.30320
3702.84375	0.31631
3700.91519	0.33351
3698.98662	0.35227
3697.05806	0.36990
3695.12949	0.38863
3693.20093	0.40869
3691.27236	0.43099
3689.34380	0.46022
3687.41523	0.49503
3685.48667	0.52485
3683.55811	0.55093
3681.62954	0.57906
3679.70098	0.61083
3677.77241	0.64485
3675.84385	0.68573
3673.91528	0.74041
3671.98672	0.78447
3670.05815	0.82322
3668.12959	0.87697
3666.20103	0.92607
3664.27246	0.96651
3662.34390	1.00955
3660.41533	1.05629
3658.48677	1.10304
3656.55820	1.15333
3654.62964	1.20935
3652.70107	1.25621
3650.77251	1.29704
3648.84395	1.35490
3646.91538	1.42693
3644.98682	1.47723
3643.05825	1.51425
3641.12969	1.55370
3639.20112	1.59854
3637.27256	1.64366
3635.34399	1.68755
3633.41543	1.73207
3631.48687	1.77394
3629.55830	1.81486
3627.62974	1.86723
3625.70117	1.91770
3623.77261	1.95248
3621.84404	1.98551
3619.91548	2.02419
3617.98691	2.07194
3616.05835	2.11708
3614.12979	2.15344
3612.20122	2.19150
3610.27266	2.23006
3608.34409	2.26943
3606.41553	2.31223
3604.48696	2.35172
3602.55840	2.38626
3600.62983	2.42430
3598.70127	2.46687
3596.77271	2.50814
3594.84414	2.54929
3592.91558	2.59214
3590.98701	2.63260
3589.05845	2.66920
3587.12988	2.71201
3585.20132	2.75963
3583.27275	2.79941
3581.34419	2.83568
3579.41562	2.87575
3577.48706	2.91890
3575.55850	2.96152
3573.62993	3.00453
3571.70137	3.04748
3569.77280	3.08937
3567.84424	3.13288
3565.91567	3.18691
3563.98711	3.24133
3562.05854	3.28305
3560.12998	3.32105
3558.20142	3.36105
3556.27285	3.40363
3554.34429	3.44832
3552.41572	3.49598
3550.48716	3.54379
3548.55859	3.58880
3546.63003	3.63298
3544.70146	3.68092
3542.77290	3.73194
3540.84434	3.78060
3538.91577	3.82660
3536.98721	3.87239
3535.05864	3.92051
3533.13008	3.96754
3531.20151	4.01230
3529.27295	4.05854
3527.34438	4.10664
3525.41582	4.15335
3523.48726	4.20002
3521.55869	4.25015
3519.63013	4.30040
3517.70156	4.34810
3515.77300	4.39354
3513.84443	4.43990
3511.91587	4.49053
3509.98730	4.54364
3508.05874	4.59259
3506.13018	4.63621
3504.20161	4.68144
3502.27305	4.73194
3500.34448	4.78195
3498.41592	4.82436
3496.48735	4.86430
3494.55879	4.91095
3492.63022	4.96359
3490.70166	5.01341
3488.77310	5.05918
3486.84453	5.10633
3484.91597	5.15348
3482.98740	5.20009
3481.05884	5.25241
3479.13027	5.30769
3477.20171	5.35928
3475.27314	5.40497
3473.34458	5.44712
3471.41602	5.49724
3469.48745	5.55207
3467.55889	5.60109
3465.63032	5.65046
3463.70176	5.70141
3461.77319	5.74774
3459.84463	5.78962
3457.91606	5.83053
3455.98750	5.88578
3454.05894	5.95138
3452.13037	6.00795
3450.20181	6.06272
3448.27324	6.12021
3446.34468	6.17134
3444.41611	6.21256
3442.48755	6.25418
3440.55898	6.29538
3438.63042	6.32980
3436.70186	6.35575
3434.77329	6.37631
3432.84473	6.41773
3430.91616	6.48310
3428.98760	6.54017
3427.05903	6.59203
3425.13047	6.67157
3423.20190	6.74401
3421.27334	6.77567
3419.34478	6.81120
3417.41621	6.87827
3415.48765	6.95413
3413.55908	7.01195
3411.63052	7.03086
3409.70195	7.00717
3407.77339	6.99241
3405.84482	7.01794
3403.91626	7.07351
3401.98770	7.12528
3400.05913	7.16860
3398.13057	7.24326
3396.20200	7.33402
3394.27344	7.38932
3392.34487	7.39660
3390.41631	7.40884
3388.48774	7.46229
3386.55918	7.54964
3384.63062	7.63909
3382.70205	7.70616
3380.77349	7.74276
3378.84492	7.76384
3376.91636	7.79233
3374.98779	7.79129
3373.05923	7.77540
3371.13066	7.77251
3369.20210	7.76626
3367.27354	7.76209
3365.34497	7.77655
3363.41641	7.76650
3361.48784	7.74663
3359.55928	7.79979
3357.63071	7.88117
3355.70215	7.92613
3353.77358	7.95391
3351.84502	8.01037
3349.91646	8.06787
3347.98789	8.07950
3346.05933	8.05575
3344.13076	7.99627
3342.20220	7.92978
3340.27363	7.93522
3338.34507	8.00872
3336.41650	8.02044
3334.48794	7.97483
3332.55937	7.94995
3330.63081	7.94222
3328.70225	7.92601
3326.77368	7.90589
3324.84512	7.92072
3322.91655	7.98136
3320.98799	8.03640
3319.05942	8.04110
3317.13086	8.03974
3315.20229	8.03138
3313.27373	8.04735
3311.34517	8.08409
3309.41660	8.05948
3307.48804	7.99576
3305.55947	7.95709
3303.63091	7.98452
3301.70234	8.02253
3299.77378	8.07800
3297.84521	8.20407
3295.91665	8.28677
3293.98809	8.24413
3292.05952	8.17015
3290.13096	8.14055
3288.20239	8.16202
3286.27383	8.19436
3284.34526	8.17675
3282.41670	8.12741
3280.48813	8.11071
3278.55957	8.16173
3276.63101	8.24768
3274.70244	8.35659
3272.77388	8.43222
3270.84531	8.31713
3268.91675	8.12582
3266.98818	8.07980
3265.05962	8.18303
3263.13105	8.29730
3261.20249	8.32798
3259.27393	8.26469
3257.34536	8.16697
3255.41680	8.07208
3253.48823	8.00274
3251.55967	7.99090
3249.63110	8.00414
3247.70254	8.01899
3245.77397	8.02747
3243.84541	8.02104
3241.91685	8.04877
3239.98828	8.15938
3238.05972	8.25732
3236.13115	8.21935
3234.20259	8.11302
3232.27402	8.04695
3230.34546	8.08918
3228.41689	8.20358
3226.48833	8.20866
3224.55977	8.10837
3222.63120	8.04757
3220.70264	8.00854
3218.77407	7.97629
3216.84551	7.96518
3214.91694	7.93182
3212.98838	7.86130
3211.05981	7.83948
3209.13125	7.92584
3207.20269	8.00124
3205.27412	7.95440
3203.34556	7.85045
3201.41699	7.76684
3199.48843	7.69954
3197.55986	7.60932
3195.63130	7.53291
3193.70273	7.54007
3191.77417	7.58287
3189.84561	7.55085
3187.91704	7.46575
3185.98848	7.42457
3184.05991	7.42785
3182.13135	7.36878
3180.20278	7.21619
3178.27422	7.08677
3176.34565	7.04042
3174.41709	7.02513
3172.48853	7.00476
3170.55996	6.95458
3168.63140	6.86700
3166.70283	6.79366
3164.77427	6.74438
3162.84570	6.69641
3160.91714	6.64481
3158.98857	6.58893
3157.06001	6.52722
3155.13145	6.45624
3153.20288	6.37526
3151.27432	6.28898
3149.34575	6.20620
3147.41719	6.13429
3145.48862	6.07601
3143.56006	6.02058
3141.63149	5.95856
3139.70293	5.89208
3137.77437	5.81921
3135.84580	5.74178
3133.91724	5.67264
3131.98867	5.61575
3130.06011	5.55639
3128.13154	5.48477
3126.20298	5.40728
3124.27441	5.32875
3122.34585	5.24879
3120.41729	5.17047
3118.48872	5.09845
3116.56016	5.03539
3114.63159	4.97615
3112.70303	4.91197
3110.77446	4.84362
3108.84590	4.77698
3106.91733	4.71092
3104.98877	4.64183
3103.06021	4.57318
3101.13164	4.50585
3099.20308	4.43776
3097.27451	4.37080
3095.34595	4.30603
3093.41738	4.24449
3091.48882	4.18450
3089.56025	4.12189
3087.63169	4.05783
3085.70312	3.99468
3083.77456	3.93393
3081.84600	3.87705
3079.91743	3.82069
3077.98887	3.76313
3076.06030	3.70650
3074.13174	3.64912
3072.20317	3.59048
3070.27461	3.53376
3068.34604	3.47916
3066.41748	3.42492
3064.48892	3.37093
3062.56035	3.31741
3060.63179	3.26387
3058.70322	3.21017
3056.77466	3.15724
3054.84609	3.10541
3052.91753	3.05452
3050.98896	3.00482
3049.06040	2.95584
3047.13184	2.90747
3045.20327	2.85986
3043.27471	2.81229
3041.34614	2.76456
3039.41758	2.71736
3037.48901	2.67111
3035.56045	2.62638
3033.63188	2.58360
3031.70332	2.54117
3029.77476	2.49796
3027.84619	2.45454
3025.91763	2.41117
3023.98906	2.36858
3022.06050	2.32752
3020.13193	2.28751
3018.20337	2.24816
3016.27480	2.20923
3014.34624	2.17081
3012.41768	2.13324
3010.48911	2.09623
3008.56055	2.05945
3006.63198	2.02341
3004.70342	1.98860
3002.77485	1.95415
3000.84629	1.91975
2998.91772	1.88663
2996.98916	1.85490
2995.06060	1.82379
2993.13203	1.79322
2991.20347	1.76355
2989.27490	1.73487
2987.34634	1.70666
2985.41777	1.67837
2983.48921	1.65052
2981.56064	1.62395
2979.63208	1.59818
2977.70352	1.57250
2975.77495	1.54738
2973.84639	1.52305
2971.91782	1.49894
2969.98926	1.47485
2968.06069	1.45101
2966.13213	1.42734
2964.20356	1.40404
2962.27500	1.38120
2960.34644	1.35832
2958.41787	1.33527
2956.48931	1.31223
2954.56074	1.28903
2952.63218	1.26578
2950.70361	1.24288
2948.77505	1.22030
2946.84648	1.19829
2944.91792	1.17723
2942.98936	1.15661
2941.06079	1.13631
2939.13223	1.11673
2937.20366	1.09755
2935.27510	1.07820
2933.34653	1.05862
2931.41797	1.03972
2929.48940	1.02163
2927.56084	1.00324
2925.63228	0.98484
2923.70371	0.96705
2921.77515	0.94952
2919.84658	0.93209
2917.91802	0.91481
2915.98945	0.89781
2914.06089	0.88093
2912.13232	0.86453
2910.20376	0.84931
2908.27520	0.83465
2906.34663	0.81976
2904.41807	0.80512
2902.48950	0.79117
2900.56094	0.77753
2898.63237	0.76412
2896.70381	0.75118
2894.77524	0.73851
2892.84668	0.72604
2890.91812	0.71404
2888.98955	0.70259
2887.06099	0.69161
2885.13242	0.68111
2883.20386	0.67110
2881.27529	0.66157
2879.34673	0.65234
2877.41816	0.64311
2875.48960	0.63363
2873.56104	0.62374
2871.63247	0.61341
2869.70391	0.60277
2867.77534	0.59180
2865.84678	0.58059
2863.91821	0.56936
2861.98965	0.55817
2860.06108	0.54741
2858.13252	0.53757
2856.20396	0.52834
2854.27539	0.51930
2852.34683	0.51058
2850.41826	0.50221
2848.48970	0.49381
2846.56113	0.48528
2844.63257	0.47716
2842.70400	0.46994
2840.77544	0.46351
2838.84687	0.45743
2836.91831	0.45133
2834.98975	0.44518
2833.06118	0.43916
2831.13262	0.43328
2829.20405	0.42755
2827.27549	0.42192
2825.34692	0.41611
2823.41836	0.41007
2821.48979	0.40412
2819.56123	0.39845
2817.63267	0.39286
2815.70410	0.38729
2813.77554	0.38186
2811.84697	0.37650
2809.91841	0.37115
2807.98984	0.36576
2806.06128	0.36035
2804.13271	0.35510
2802.20415	0.35018
2800.27559	0.34552
2798.34702	0.34087
2796.41846	0.33615
2794.48989	0.33146
2792.56133	0.32679
2790.63276	0.32218
2788.70420	0.31776
2786.77563	0.31355
2784.84707	0.30951
2782.91851	0.30548
2780.98994	0.30140
2779.06138	0.29733
2777.13281	0.29331
2775.20425	0.28936
2773.27568	0.28564
2771.34712	0.28220
2769.41855	0.27887
2767.48999	0.27544
2765.56143	0.27189
2763.63286	0.26841
2761.70430	0.26503
2759.77573	0.26167
2757.84717	0.25835
2755.91860	0.25513
2753.99004	0.25204
2752.06147	0.24906
2750.13291	0.24617
2748.20435	0.24334
2746.27578	0.24058
2744.34722	0.23794
2742.41865	0.23535
2740.49009	0.23268
2738.56152	0.22990
2736.63296	0.22719
2734.70439	0.22474
2732.77583	0.22245
2730.84727	0.22024
2728.91870	0.21795
2726.99014	0.21554
2725.06157	0.21334
2723.13301	0.21131
2721.20444	0.20910
2719.27588	0.20683
2717.34731	0.20475
2715.41875	0.20284
2713.49019	0.20111
2711.56162	0.19952
2709.63306	0.19798
2707.70449	0.19634
2705.77593	0.19462
2703.84736	0.19297
2701.91880	0.19137
2699.99023	0.18981
2698.06167	0.18837
2696.13311	0.18709
2694.20454	0.18584
2692.27598	0.18458
2690.34741	0.18333
2688.41885	0.18209
2686.49028	0.18074
2684.56172	0.17938
2682.63315	0.17821
2680.70459	0.17718
2678.77603	0.17619
2676.84746	0.17513
2674.91890	0.17392
2672.99033	0.17267
2671.06177	0.17159
2669.13320	0.17063
2667.20464	0.16956
2665.27607	0.16854
2663.34751	0.16774
2661.41895	0.16698
2659.49038	0.16610
2657.56182	0.16522
2655.63325	0.16444
2653.70469	0.16378
2651.77612	0.16325
2649.84756	0.16276
2647.91899	0.16221
2645.99043	0.16156
2644.06187	0.16086
2642.13330	0.16021
2640.20474	0.15971
2638.27617	0.15920
2636.34761	0.15868
2634.41904	0.15825
2632.49048	0.15780
2630.56191	0.15722
2628.63335	0.15673
2626.70479	0.15650
2624.77622	0.15638
2622.84766	0.15614
2620.91909	0.15581
2618.99053	0.15557
2617.06196	0.15539
2615.13340	0.15516
2613.20483	0.15485
2611.27627	0.15458
2609.34771	0.15441
2607.41914	0.15432
2605.49058	0.15418
2603.56201	0.15393
2601.63345	0.15374
2599.70488	0.15369
2597.77632	0.15375
2595.84775	0.15389
2593.91919	0.15403
2591.99062	0.15408
2590.06206	0.15405
2588.13350	0.15409
2586.20493	0.15437
2584.27637	0.15477
2582.34780	0.15504
2580.41924	0.15517
2578.49067	0.15530
2576.56211	0.15547
2574.63354	0.15566
2572.70498	0.15596
2570.77642	0.15638
2568.84785	0.15674
2566.91929	0.15700
2564.99072	0.15731
2563.06216	0.15766
2561.13359	0.15798
2559.20503	0.15831
2557.27646	0.15874
2555.34790	0.15926
2553.41934	0.15971
2551.49077	0.16008
2549.56221	0.16053
2547.63364	0.16109
2545.70508	0.16169
2543.77651	0.16224
2541.84795	0.16275
2539.91938	0.16334
2537.99082	0.16398
2536.06226	0.16454
2534.13369	0.16505
2532.20513	0.16566
2530.27656	0.16631
2528.34800	0.16693
2526.41943	0.16761
2524.49087	0.16829
2522.56230	0.16884
2520.63374	0.16947
2518.70518	0.17036
2516.77661	0.17135
2514.84805	0.17222
2512.91948	0.17288
2510.99092	0.17342
2509.06235	0.17413
2507.13379	0.17502
2505.20522	0.17588
2503.27666	0.17665
2501.34810	0.17733
2499.41953	0.17798
2497.49097	0.17876
2495.56240	0.17965
2493.63384	0.18050
2491.70527	0.18121
2489.77671	0.18188
2487.84814	0.18256
2485.91958	0.18333
2483.99102	0.18424
2482.06245	0.18520
2480.13389	0.18600
2478.20532	0.18669
2476.27676	0.18753
2474.34819	0.18851
2472.41963	0.18946
2470.49106	0.19040
2468.56250	0.19131
2466.63394	0.19216
2464.70537	0.19299
2462.77681	0.19383
2460.84824	0.19475
2458.91968	0.19578
2456.99111	0.19671
2455.06255	0.19743
2453.13398	0.19819
2451.20542	0.19916
2449.27686	0.20011
2447.34829	0.20100
2445.41973	0.20201
2443.49116	0.20307
2441.56260	0.20406
2439.63403	0.20511
2437.70547	0.20616
2435.77690	0.20708
2433.84834	0.20792
2431.91978	0.20879
2429.99121	0.20977
2428.06265	0.21094
2426.13408	0.21217
2424.20552	0.21328
2422.27695	0.21432
2420.34839	0.21532
2418.41982	0.21633
2416.49126	0.21737
2414.56270	0.21845
2412.63413	0.21959
2410.70557	0.22069
2408.77700	0.22174
2406.84844	0.22281
2404.91987	0.22392
2402.99131	0.22512
2401.06274	0.22638
2399.13418	0.22761
2397.20562	0.22879
2395.27705	0.22994
2393.34849	0.23108
2391.41992	0.23221
2389.49136	0.23333
2387.56279	0.23459
2385.63423	0.23600
2383.70566	0.23746
2381.77710	0.23896
2379.84854	0.24057
2377.91997	0.24215
2375.99141	0.24351
2374.06284	0.24493
2372.13428	0.24671
2370.20571	0.24851
2368.27715	0.24999
2366.34858	0.25183
2364.42002	0.25434
2362.49146	0.25665
2360.56289	0.25781
2358.63433	0.25802
2356.70576	0.25892
2354.77720	0.26095
2352.84863	0.26273
2350.92007	0.26370
2348.99150	0.26444
2347.06294	0.26530
2345.13437	0.26657
2343.20581	0.26837
2341.27725	0.27025
2339.34868	0.27190
2337.42012	0.27335
2335.49155	0.27485
2333.56299	0.27659
2331.63442	0.27870
2329.70586	0.28087
2327.77729	0.28257
2325.84873	0.28389
2323.92017	0.28524
2321.99160	0.28668
2320.06304	0.28812
2318.13447	0.28972
2316.20591	0.29146
2314.27734	0.29303
2312.34878	0.29455
2310.42021	0.29626
2308.49165	0.29801
2306.56309	0.29966
2304.63452	0.30128
2302.70596	0.30287
2300.77739	0.30440
2298.84883	0.30604
2296.92026	0.30789
2294.99170	0.30983
2293.06313	0.31169
2291.13457	0.31340
2289.20601	0.31515
2287.27744	0.31703
2285.34888	0.31881
2283.42031	0.32053
2281.49175	0.32243
2279.56318	0.32441
2277.63462	0.32642
2275.70605	0.32850
2273.77749	0.33060
2271.84893	0.33275
2269.92036	0.33474
2267.99180	0.33654
2266.06323	0.33847
2264.13467	0.34065
2262.20610	0.34289
2260.27754	0.34506
2258.34897	0.34719
2256.42041	0.34935
2254.49185	0.35152
2252.56328	0.35358
2250.63472	0.35559
2248.70615	0.35767
2246.77759	0.35985
2244.84902	0.36207
2242.92046	0.36428
2240.99189	0.36642
2239.06333	0.36855
2237.13477	0.37072
2235.20620	0.37293
2233.27764	0.37523
2231.34907	0.37752
2229.42051	0.37969
2227.49194	0.38184
2225.56338	0.38404
2223.63481	0.38623
2221.70625	0.38833
2219.77769	0.39036
2217.84912	0.39241
2215.92056	0.39457
2213.99199	0.39680
2212.06343	0.39902
2210.13486	0.40119
2208.20630	0.40324
2206.27773	0.40520
2204.34917	0.40715
2202.42061	0.40913
2200.49204	0.41119
2198.56348	0.41326
2196.63491	0.41527
2194.70635	0.41729
2192.77778	0.41927
2190.84922	0.42114
2188.92065	0.42297
2186.99209	0.42470
2185.06353	0.42636
2183.13496	0.42805
2181.20640	0.42973
2179.27783	0.43142
2177.34927	0.43315
2175.42070	0.43474
2173.49214	0.43617
2171.56357	0.43759
2169.63501	0.43896
2167.70645	0.44020
2165.77788	0.44141
2163.84932	0.44266
2161.92075	0.44384
2159.99219	0.44494
2158.06362	0.44600
2156.13506	0.44696
2154.20649	0.44791
2152.27793	0.44891
2150.34937	0.44977
2148.42080	0.45042
2146.49224	0.45099
2144.56367	0.45151
2142.63511	0.45199
2140.70654	0.45240
2138.77798	0.45270
2136.84941	0.45295
2134.92085	0.45321
2132.99229	0.45341
2131.06372	0.45347
2129.13516	0.45337
2127.20659	0.45320
2125.27803	0.45300
2123.34946	0.45261
2121.42090	0.45205
2119.49233	0.45151
2117.56377	0.45098
2115.63521	0.45037
2113.70664	0.44969
2111.77808	0.44894
2109.84951	0.44806
2107.92095	0.44708
2105.99238	0.44604
2104.06382	0.44494
2102.13525	0.44381
2100.20669	0.44270
2098.27812	0.44148
2096.34956	0.44002
2094.42100	0.43845
2092.49243	0.43693
2090.56387	0.43541
2088.63530	0.43380
2086.70674	0.43216
2084.77817	0.43047
2082.84961	0.42868
2080.92104	0.42672
2078.99248	0.42473
2077.06392	0.42278
2075.13535	0.42081
2073.20679	0.41880
2071.27822	0.41670
2069.34966	0.41444
2067.42109	0.41214
2065.49253	0.40992
2063.56396	0.40768
2061.63540	0.40529
2059.70684	0.40286
2057.77827	0.40049
2055.84971	0.39814
2053.92114	0.39569
2051.99258	0.39312
2050.06401	0.39052
2048.13545	0.38797
2046.20688	0.38538
2044.27832	0.38280
2042.34976	0.38028
2040.42119	0.37787
2038.49263	0.37540
2036.56406	0.37272
2034.63550	0.36989
2032.70693	0.36700
2030.77837	0.36423
2028.84980	0.36154
2026.92124	0.35887
2024.99268	0.35627
2023.06411	0.35373
2021.13555	0.35099
2019.20698	0.34808
2017.27842	0.34527
2015.34985	0.34260
2013.42129	0.33995
2011.49272	0.33725
2009.56416	0.33454
2007.63560	0.33186
2005.70703	0.32924
2003.77847	0.32667
2001.84990	0.32414
1999.92134	0.32166
1997.99277	0.31907
1996.06421	0.31640
1994.13564	0.31393
1992.20708	0.31162
1990.27852	0.30912
1988.34995	0.30646
1986.42139	0.30383
1984.49282	0.30131
1982.56426	0.29894
1980.63569	0.29669
1978.70713	0.29452
1976.77856	0.29235
1974.85000	0.29011
1972.92144	0.28786
1970.99287	0.28578
1969.06431	0.28388
1967.13574	0.28198
1965.20718	0.27992
1963.27861	0.27781
1961.35005	0.27576
1959.42148	0.27376
1957.49292	0.27195
1955.56436	0.27035
1953.63579	0.26868
1951.70723	0.26686
1949.77866	0.26511
1947.85010	0.26349
1945.92153	0.26197
1943.99297	0.26060
1942.06440	0.25922
1940.13584	0.25761
1938.20728	0.25598
1936.27871	0.25457
1934.35015	0.25328
1932.42158	0.25208
1930.49302	0.25087
1928.56445	0.24962
1926.63589	0.24840
1924.70732	0.24747
1922.77876	0.24681
1920.85020	0.24605
1918.92163	0.24517
1916.99307	0.24422
1915.06450	0.24312
1913.13594	0.24205
1911.20737	0.24129
1909.27881	0.24069
1907.35024	0.23997
1905.42168	0.23914
1903.49312	0.23847
1901.56455	0.23796
1899.63599	0.23749
1897.70742	0.23708
1895.77886	0.23674
1893.85029	0.23637
1891.92173	0.23589
1889.99316	0.23562
1888.06460	0.23543
1886.13604	0.23506
1884.20747	0.23458
1882.27891	0.23417
1880.35034	0.23397
1878.42178	0.23391
1876.49321	0.23394
1874.56465	0.23397
1872.63608	0.23409
1870.70752	0.23450
1868.77896	0.23530
1866.85039	0.23570
1864.92183	0.23536
1862.99326	0.23509
1861.06470	0.23514
1859.13613	0.23541
1857.20757	0.23579
1855.27900	0.23624
1853.35044	0.23664
1851.42187	0.23711
1849.49331	0.23772
1847.56475	0.23850
1845.63618	0.23946
1843.70762	0.24056
1841.77905	0.24127
1839.85049	0.24159
1837.92192	0.24220
1835.99336	0.24304
1834.06479	0.24394
1832.13623	0.24499
1830.20767	0.24656
1828.27910	0.24815
1826.35054	0.24914
1824.42197	0.25025
1822.49341	0.25134
1820.56484	0.25246
1818.63628	0.25388
1816.70771	0.25558
1814.77915	0.25722
1812.85059	0.25891
1810.92202	0.26086
1808.99346	0.26287
1807.06489	0.26474
1805.13633	0.26658
1803.20776	0.26876
1801.27920	0.27137
1799.35063	0.27428
1797.42207	0.27678
1795.49351	0.27910
1793.56494	0.28191
1791.63638	0.28551
1789.70781	0.28871
1787.77925	0.29102
1785.85068	0.29398
1783.92212	0.29762
1781.99355	0.30156
1780.06499	0.30573
1778.13643	0.31001
1776.20786	0.31405
1774.27930	0.31848
1772.35073	0.32448
1770.42217	0.33076
1768.49360	0.33573
1766.56504	0.34052
1764.63647	0.34565
1762.70791	0.35151
1760.77935	0.35901
1758.85078	0.36598
1756.92222	0.37292
1754.99365	0.38044
1753.06509	0.38725
1751.13652	0.39555
1749.20796	0.40624
1747.27939	0.41675
1745.35083	0.42583
1743.42227	0.43533
1741.49370	0.44579
1739.56514	0.45811
1737.63657	0.47035
1735.70801	0.48108
1733.77944	0.49736
1731.85088	0.51669
1729.92231	0.53177
1727.99375	0.54717
1726.06519	0.56381
1724.13662	0.58201
1722.20806	0.60164
1720.27949	0.61965
1718.35093	0.64091
1716.42236	0.67302
1714.49380	0.70349
1712.56523	0.72764
1710.63667	0.75104
1708.70811	0.77651
1706.77954	0.80571
1704.85098	0.84091
1702.92241	0.87251
1700.99385	0.90364
1699.06528	0.95017
1697.13672	0.99343
1695.20815	1.03819
1693.27959	1.08188
1691.35103	1.11727
1689.42246	1.15863
1687.49390	1.20284
1685.56533	1.24517
1683.63677	1.31076
1681.70820	1.38041
1679.77964	1.42473
1677.85107	1.46627
1675.92251	1.51435
1673.99395	1.57505
1672.06538	1.62981
1670.13682	1.68359
1668.20825	1.75432
1666.27969	1.81252
1664.35112	1.86203
1662.42256	1.92481
1660.49399	1.99686
1658.56543	2.05387
1656.63687	2.09980
1654.70830	2.14056
1652.77974	2.20063
1650.85117	2.25640
1648.92261	2.27567
1646.99404	2.30122
1645.06548	2.32998
1643.13691	2.34764
1641.20835	2.35517
1639.27979	2.36133
1637.35122	2.36491
1635.42266	2.36398
1633.49409	2.35619
1631.56553	2.34072
1629.63696	2.32161
1627.70840	2.29173
1625.77983	2.25743
1623.85127	2.21330
1621.92271	2.15854
1619.99414	2.11049
1618.06558	2.06359
1616.13701	1.99587
1614.20845	1.92743
1612.27988	1.87592
1610.35132	1.82232
1608.42275	1.76408
1606.49419	1.70624
1604.56562	1.65270
1602.63706	1.60162
1600.70850	1.55280
1598.77993	1.50831
1596.85137	1.46627
1594.92280	1.42499
1592.99424	1.38538
1591.06567	1.35002
1589.13711	1.31737
1587.20854	1.28668
1585.27998	1.25849
1583.35142	1.23286
1581.42285	1.20971
1579.49429	1.19007
1577.56572	1.17325
1575.63716	1.15378
1573.70859	1.13676
1571.78003	1.12609
1569.85146	1.11601
1567.92290	1.10524
1565.99434	1.09769
1564.06577	1.09302
1562.13721	1.09022
1560.20864	1.09021
1558.28008	1.09555
1556.35151	1.10121
1554.42295	1.10404
1552.49438	1.10685
1550.56582	1.10823
1548.63726	1.10698
1546.70869	1.10276
1544.78013	1.09501
1542.85156	1.08343
1540.92300	1.06514
1538.99443	1.03516
1537.06587	1.01242
1535.13730	0.99658
1533.20874	0.97554
1531.28018	0.95323
1529.35161	0.93719
1527.42305	0.92211
1525.49448	0.90658
1523.56592	0.89378
1521.63735	0.88177
1519.70879	0.86923
1517.78022	0.85861
1515.85166	0.84604
1513.92310	0.83235
1511.99453	0.82060
1510.06597	0.81047
1508.13740	0.80106
1506.20884	0.78568
1504.28027	0.77133
1502.35171	0.76323
1500.42314	0.75642
1498.49458	0.74928
1496.56602	0.74094
1494.63745	0.73255
1492.70889	0.72609
1490.78032	0.72062
1488.85176	0.71442
1486.92319	0.70843
1484.99463	0.70370
1483.06606	0.70009
1481.13750	0.69723
1479.20894	0.69513
1477.28037	0.69411
1475.35181	0.69405
1473.42324	0.69459
1471.49468	0.69434
1469.56611	0.69247
1467.63755	0.69009
1465.70898	0.68810
1463.78042	0.68669
1461.85186	0.68587
1459.92329	0.68578
1457.99473	0.68654
1456.06616	0.68678
1454.13760	0.68473
1452.20903	0.68205
1450.28047	0.67945
1448.35190	0.67695
1446.42334	0.67419
1444.49478	0.67135
1442.56621	0.66868
1440.63765	0.66612
1438.70908	0.66352
1436.78052	0.65998
1434.85195	0.65573
1432.92339	0.65256
1430.99482	0.65050
1429.06626	0.64928
1427.13770	0.64895
1425.20913	0.64934
1423.28057	0.65006
1421.35200	0.65062
1419.42344	0.65116
1417.49487	0.65129
1415.56631	0.65035
1413.63774	0.64957
1411.70918	0.64978
1409.78062	0.65099
1407.85205	0.65273
1405.92349	0.65475
1403.99492	0.65670
1402.06636	0.65768
1400.13779	0.65755
1398.20923	0.65638
1396.28066	0.65414
1394.35210	0.65051
1392.42354	0.64583
1390.49497	0.64127
1388.56641	0.63680
1386.63784	0.63161
1384.70928	0.62605
1382.78071	0.62085
1380.85215	0.61595
1378.92358	0.61174
1376.99502	0.60862
1375.06646	0.60649
1373.13789	0.60486
1371.20933	0.60347
1369.28076	0.60234
1367.35220	0.60112
1365.42363	0.59961
1363.49507	0.59804
1361.56650	0.59651
1359.63794	0.59515
1357.70937	0.59396
1355.78081	0.59272
1353.85225	0.59156
1351.92368	0.59068
1349.99512	0.59002
1348.06655	0.58941
1346.13799	0.58875
1344.20942	0.58807
1342.28086	0.58737
1340.35229	0.58686
1338.42373	0.58650
1336.49517	0.58602
1334.56660	0.58567
1332.63804	0.58566
1330.70947	0.58584
1328.78091	0.58614
1326.85234	0.58673
1324.92378	0.58763
1322.99521	0.58861
1321.06665	0.58946
1319.13809	0.59009
1317.20952	0.59046
1315.28096	0.59065
1313.35239	0.59073
1311.42383	0.59055
1309.49526	0.59002
1307.56670	0.58951
1305.63813	0.58924
1303.70957	0.58886
1301.78101	0.58820
1299.85244	0.58739
1297.92388	0.58644
1295.99531	0.58532
1294.06675	0.58417
1292.13818	0.58300
1290.20962	0.58177
1288.28105	0.58056
1286.35249	0.57931
1284.42393	0.57798
1282.49536	0.57662
1280.56680	0.57521
1278.63823	0.57374
1276.70967	0.57232
1274.78110	0.57117
1272.85254	0.57032
1270.92397	0.56964
1268.99541	0.56903
1267.06685	0.56838
1265.13828	0.56758
1263.20972	0.56672
1261.28115	0.56589
1259.35259	0.56510
1257.42402	0.56438
1255.49546	0.56393
1253.56689	0.56392
1251.63833	0.56418
1249.70977	0.56448
1247.78120	0.56457
1245.85264	0.56427
1243.92407	0.56364
1241.99551	0.56279
1240.06694	0.56156
1238.13838	0.55983
1236.20981	0.55776
1234.28125	0.55547
1232.35269	0.55306
1230.42412	0.55069
1228.49556	0.54852
1226.56699	0.54648
1224.63843	0.54464
1222.70986	0.54301
1220.78130	0.54152
1218.85273	0.54015
1216.92417	0.53886
1214.99561	0.53758
1213.06704	0.53633
1211.13848	0.53545
1209.20991	0.53502
1207.28135	0.53453
1205.35278	0.53367
1203.42422	0.53254
1201.49565	0.53140
1199.56709	0.53056
1197.63853	0.53004
1195.70996	0.52963
1193.78140	0.52915
1191.85283	0.52854
1189.92427	0.52795
1187.99570	0.52754
1186.06714	0.52740
1184.13857	0.52758
1182.21001	0.52810
1180.28145	0.52895
1178.35288	0.53014
1176.42432	0.53152
1174.49575	0.53275
1172.56719	0.53353
1170.63862	0.53373
1168.71006	0.53350
1166.78149	0.53311
1164.85293	0.53268
1162.92437	0.53211
1160.99580	0.53138
1159.06724	0.53058
1157.13867	0.52968
1155.21011	0.52856
1153.28154	0.52721
1151.35298	0.52570
1149.42441	0.52382
1147.49585	0.52135
1145.56729	0.51864
1143.63872	0.51616
1141.71016	0.51397
1139.78159	0.51191
1137.85303	0.51005
1135.92446	0.50856
1133.99590	0.50757
1132.06733	0.50705
1130.13877	0.50663
1128.21021	0.50603
1126.28164	0.50521
1124.35308	0.50426
1122.42451	0.50333
1120.49595	0.50271
1118.56738	0.50260
1116.63882	0.50275
1114.71025	0.50279
1112.78169	0.50287
1110.85312	0.50321
1108.92456	0.50408
1106.99600	0.50556
1105.06743	0.50717
1103.13887	0.50862
1101.21030	0.51001
1099.28174	0.51161
1097.35317	0.51368
1095.42461	0.51638
1093.49604	0.51971
1091.56748	0.52378
1089.63892	0.52878
1087.71035	0.53460
1085.78179	0.54091
1083.85322	0.54723
1081.92466	0.55325
1079.99609	0.55838
1078.06753	0.56155
1076.13896	0.56217
1074.21040	0.56020
1072.28184	0.55566
1070.35327	0.54944
1068.42471	0.54284
1066.49614	0.53621
1064.56758	0.52965
1062.63901	0.52363
1060.71045	0.51839
1058.78188	0.51386
1056.85332	0.51004
1054.92476	0.50673
1052.99619	0.50368
1051.06763	0.50094
1049.13906	0.49856
1047.21050	0.49646
1045.28193	0.49444
1043.35337	0.49260
1041.42480	0.49120
1039.49624	0.49000
1037.56768	0.48904
1035.63911	0.48876
1033.71055	0.48884
1031.78198	0.48854
1029.85342	0.48796
1027.92485	0.48763
1025.99629	0.48767
1024.06772	0.48788
1022.13916	0.48815
1020.21060	0.48857
1018.28203	0.48907
1016.35347	0.48964
1014.42490	0.49020
1012.49634	0.49070
1010.56777	0.49137
1008.63921	0.49245
1006.71064	0.49392
1004.78208	0.49566
1002.85352	0.49788
1000.92495	0.50070
998.99639	0.50391
997.06782	0.50746
995.13926	0.51126
993.21069	0.51514
991.28213	0.51875
989.35356	0.52163
987.42500	0.52348
985.49644	0.52444
983.56787	0.52498
981.63931	0.52565
979.71074	0.52674
977.78218	0.52830
975.85361	0.53034
973.92505	0.53270
971.99648	0.53547
970.06792	0.53868
968.13936	0.54226
966.21079	0.54629
964.28223	0.55070
962.35366	0.55530
960.42510	0.56010
958.49653	0.56516
956.56797	0.57058
954.63940	0.57643
952.71084	0.58270
950.78228	0.58920
948.85371	0.59548
946.92515	0.60135
944.99658	0.60713
943.06802	0.61322
941.13945	0.61952
939.21089	0.62570
937.28232	0.63186
935.35376	0.63785
933.42520	0.64308
931.49663	0.64800
929.56807	0.65361
927.63950	0.65994
925.71094	0.66618
923.78237	0.67184
921.85381	0.67757
919.92524	0.68407
917.99668	0.69101
916.06812	0.69805
914.13955	0.70522
912.21099	0.71250
910.28242	0.71986
908.35386	0.72771
906.42529	0.73667
904.49673	0.74619
902.56816	0.75504
900.63960	0.76353
898.71104	0.77319
896.78247	0.78355
894.85391	0.79291
892.92534	0.80214
890.99678	0.81202
889.06821	0.82156
887.13965	0.83186
885.21108	0.84378
883.28252	0.85572
881.35396	0.86749
879.42539	0.87981
877.49683	0.89152
875.56826	0.90184
873.63970	0.91213
871.71113	0.92347
869.78257	0.93553
867.85400	0.94731
865.92544	0.95836
863.99687	0.96908
862.06831	0.97943
860.13975	0.98893
858.21118	0.99841
856.28262	1.00966
854.35405	1.02307
852.42549	1.03678
850.49692	1.05006
848.56836	1.06420
846.63979	1.07834
844.71123	1.09062
842.78267	1.10086
840.85410	1.10891
838.92554	1.11545
836.99697	1.12397
835.06841	1.13691
833.13984	1.15283
831.21128	1.16715
829.28271	1.17513
827.35415	1.18086
825.42559	1.19541
823.49702	1.21802
821.56846	1.23668
819.63989	1.25029
817.71133	1.25795
815.78276	1.26052
813.85420	1.27164
811.92563	1.28634
809.99707	1.29111
808.06851	1.29596
806.13994	1.31296
804.21138	1.33223
802.28281	1.34135
800.35425	1.34332
798.42568	1.34936
796.49712	1.35970
794.56855	1.36883
792.63999	1.40224
790.71143	1.45757
788.78286	1.48790
786.85430	1.48516
784.92573	1.44371
782.99717	1.38516
781.06860	1.34465
779.14004	1.32714
777.21147	1.34477
775.28291	1.39553
773.35435	1.44031
771.42578	1.42563
769.49722	1.36031
767.56865	1.32114
765.64009	1.34024
763.71152	1.36626
761.78296	1.32333
759.85439	1.25908
757.92583	1.22421
755.99727	1.23662
754.06870	1.26263
752.14014	1.17995
750.21157	1.06506
748.28301	1.01681
746.35444	0.98624
744.42588	0.96553
742.49731	1.07944
740.56875	2.05562
738.64019	4.43184
736.71162	4.42027
734.78306	4.40870
732.85449	1.18854
730.92593	0.82285
728.99736	0.70442
727.06880	0.69937
725.14023	0.53257
723.21167	0.35876
721.28311	0.24561
719.35454	0.17534
717.42598	0.20376
715.49741	0.27073
713.56885	0.20342
711.64028	0.21268
709.71172	0.31421
707.78315	0.30845
705.85459	0.14336
703.92603	0.06023
701.99746	0.09045
700.06890	0.19353
698.14033	0.42119
696.21177	0.94635
694.28320	0.72851
692.35464	0.36683
690.42607	0.36436
688.49751	0.60531
686.56895	0.73264
684.64038	0.39250
682.71182	0.25509
680.78325	0.24018
678.85469	0.25222
676.92612	0.25667
674.99756	0.27061
673.06899	0.29748
671.14043	0.30002
669.21187	0.28415
667.28330	0.34783
665.35474	0.58177
663.42617	1.06216
661.49761	0.70170
659.56904	0.36397
657.64048	0.25000
655.71191	0.21457
653.78335	0.18305
651.85479	0.21720
649.92622	0.36635
647.99766	0.52709
646.06909	0.53336
644.14053	0.36281
642.21196	0.21133
640.28340	0.19691
638.35483	0.25938
636.42627	0.32623
634.49771	0.51928
632.56914	3.79541
630.64058	2.65050
628.71201	0.58399
626.78345	0.40600
624.85488	0.32833
622.92632	0.32672
620.99775	0.30498
619.06919	0.26013
617.14062	0.26357
615.21206	0.31427
613.28350	0.36022
611.35493	0.38926
609.42637	0.39689
607.49780	0.34350
605.56924	0.29089
603.64067	0.33492
601.71211	0.50311
599.78354	0.49946
597.85498	0.33748
595.92642	0.30409
593.99785	0.39137
592.06929	0.41585
590.14072	0.34495
588.21216	0.30655
586.28359	0.33184
584.35503	0.45671
582.42646	0.56565
580.49790	0.49661
578.56934	0.44447
576.64077	0.52519
574.71221	0.52817
572.78364	0.37215
570.85508	0.29629
568.92651	0.31573
566.99795	0.34773
565.06938	0.36721
563.14082	0.35996
561.21226	0.35532
559.28369	0.37361
557.35513	0.36264
555.42656	0.28704
553.49800	0.20803
551.56943	0.18544
549.64087	0.20102
547.71230	0.21619
545.78374	0.22331
543.85518	0.24663
541.92661	0.27563
539.99805	0.30597
538.06948	0.33223
536.14092	0.38463
534.21235	0.50323
532.28379	0.51218
530.35522	0.34461
528.42666	0.27134
526.49810	0.30633
524.56953	0.37315
522.64097	0.39234
520.71240	0.39637
518.78384	0.44539
516.85527	0.49876
514.92671	0.42567
512.99814	0.29909
511.06958	0.23946
509.14102	0.23832
507.21245	0.22038
505.28389	0.18196
503.35532	0.15869
501.42676	0.15277
499.49819	0.18769
