3997.91411	0.06911
3995.98555	0.06967
3994.05698	0.06981
3992.12842	0.06979
3990.19985	0.07002
3988.27129	0.07057
3986.34272	0.07118
3984.41416	0.07150
3982.48560	0.07163
3980.55703	0.07185
3978.62847	0.07197
3976.69990	0.07189
3974.77134	0.07192
3972.84277	0.07220
3970.91421	0.07267
3968.98564	0.07310
3967.05708	0.07323
3965.12852	0.07325
3963.19995	0.07360
3961.27139	0.07418
3959.34282	0.07448
3957.41426	0.07429
3955.48569	0.07397
3953.55713	0.07397
3951.62856	0.07442
3949.70000	0.07507
3947.77144	0.07554
3945.84287	0.07546
3943.91431	0.07511
3941.98574	0.07486
3940.05718	0.07445
3938.12861	0.07388
3936.20005	0.07358
3934.27148	0.07397
3932.34292	0.07484
3930.41436	0.07538
3928.48579	0.07511
3926.55723	0.07462
3924.62866	0.07452
3922.70010	0.07431
3920.77153	0.07377
3918.84297	0.07366
3916.91440	0.07389
3914.98584	0.07362
3913.05728	0.07298
3911.12871	0.07267
3909.20015	0.07268
3907.27158	0.07302
3905.34302	0.07430
3903.41445	0.07614
3901.48589	0.07699
3899.55732	0.07698
3897.62876	0.07637
3895.70020	0.07525
3893.77163	0.07493
3891.84307	0.07563
3889.91450	0.07577
3887.98594	0.07492
3886.05737	0.07494
3884.12881	0.07591
3882.20024	0.07649
3880.27168	0.07697
3878.34312	0.07662
3876.41455	0.07555
3874.48599	0.07585
3872.55742	0.07749
3870.62886	0.07914
3868.70029	0.07992
3866.77173	0.07956
3864.84316	0.07966
3862.91460	0.08010
3860.98604	0.07904
3859.05747	0.07788
3857.12891	0.07863
3855.20034	0.08097
3853.27178	0.08393
3851.34321	0.08474
3849.41465	0.08234
3847.48608	0.08027
3845.55752	0.08014
3843.62896	0.08183
3841.70039	0.08404
3839.77183	0.08581
3837.84326	0.08725
3835.91470	0.08762
3833.98613	0.08678
3832.05757	0.08630
3830.12900	0.08649
3828.20044	0.08688
3826.27187	0.08771
3824.34331	0.08873
3822.41475	0.09009
3820.48618	0.09229
3818.55762	0.09324
3816.62905	0.09292
3814.70049	0.09265
3812.77192	0.09191
3810.84336	0.09162
3808.91479	0.09285
3806.98623	0.09547
3805.05767	0.09828
3803.12910	0.10055
3801.20054	0.10284
3799.27197	0.10391
3797.34341	0.10370
3795.41484	0.10350
3793.48628	0.10322
3791.55771	0.10343
3789.62915	0.10431
3787.70059	0.10555
3785.77202	0.10733
3783.84346	0.10935
3781.91489	0.11083
3779.98633	0.11232
3778.05776	0.11431
3776.12920	0.11556
3774.20063	0.11620
3772.27207	0.11769
3770.34351	0.12062
3768.41494	0.12378
3766.48638	0.12569
3764.55781	0.12693
3762.62925	0.12818
3760.70068	0.13032
3758.77212	0.13374
3756.84355	0.13676
3754.91499	0.13862
3752.98643	0.14126
3751.05786	0.14610
3749.12930	0.15129
3747.20073	0.15378
3745.27217	0.15590
3743.34360	0.15958
3741.41504	0.16260
3739.48647	0.16525
3737.55791	0.16989
3735.62935	0.17707
3733.70078	0.18425
3731.77222	0.18863
3729.84365	0.19203
3727.91509	0.19617
3725.98652	0.20151
3724.05796	0.20737
3722.12939	0.21303
3720.20083	0.21858
3718.27227	0.22407
3716.34370	0.22995
3714.41514	0.23678
3712.48657	0.24684
3710.55801	0.26191
3708.62944	0.27662
3706.70088	0.28742
3704.77231	0.29770
3702.84375	0.31032
3700.91519	0.32694
3698.98662	0.34476
3697.05806	0.36136
3695.12949	0.37933
3693.20093	0.39913
3691.27236	0.42086
3689.34380	0.44784
3687.41523	0.47973
3685.48667	0.50837
3683.55811	0.53409
3681.62954	0.56209
3679.70098	0.59363
3677.77241	0.62682
3675.84385	0.66621
3673.91528	0.71801
3671.98672	0.76046
3670.05815	0.79846
3668.12959	0.84903
3666.20103	0.89521
3664.27246	0.93463
3662.34390	0.97723
3660.41533	1.02364
3658.48677	1.07001
3656.55820	1.11927
3654.62964	1.17353
3652.70107	1.21968
3650.77251	1.26098
3648.84395	1.31673
3646.91538	1.38206
3644.98682	1.43054
3643.05825	1.46898
3641.12969	1.50802
3639.20112	1.55061
3637.27256	1.59405
3635.34399	1.63722
3633.41543	1.68103
3631.48687	1.72269
3629.55830	1.76502
3627.62974	1.81836
3625.70117	1.86674
3623.77261	1.89908
3621.84404	1.93042
3619.91548	1.96774
3617.98691	2.01376
3616.05835	2.05773
3614.12979	2.09348
3612.20122	2.13033
3610.27266	2.16829
3608.34409	2.20761
3606.41553	2.24992
3604.48696	2.28958
3602.55840	2.32466
3600.62983	2.36167
3598.70127	2.40199
3596.77271	2.44209
3594.84414	2.48342
3592.91558	2.52613
3590.98701	2.56439
3589.05845	2.59852
3587.12988	2.64073
3585.20132	2.68884
3583.27275	2.72939
3581.34419	2.76560
3579.41562	2.80379
3577.48706	2.84545
3575.55850	2.88877
3573.62993	2.93249
3571.70137	2.97596
3569.77280	3.01946
3567.84424	3.06409
3565.91567	3.11459
3563.98711	3.16266
3562.05854	3.20191
3560.12998	3.24074
3558.20142	3.28263
3556.27285	3.32790
3554.34429	3.37510
3552.41572	3.42328
3550.48716	3.47018
3548.55859	3.51390
3546.63003	3.55759
3544.70146	3.60684
3542.77290	3.65890
3540.84434	3.70743
3538.91577	3.75297
3536.98721	3.79808
3535.05864	3.84507
3533.13008	3.89204
3531.20151	3.93804
3529.27295	3.98587
3527.34438	4.03811
3525.41582	4.08709
3523.48726	4.12823
3521.55869	4.17243
3519.63013	4.22185
3517.70156	4.27053
3515.77300	4.31843
3513.84443	4.36766
3511.91587	4.41841
3509.98730	4.47278
3508.05874	4.52644
3506.13018	4.57262
3504.20161	4.61525
3502.27305	4.65709
3500.34448	4.69933
3498.41592	4.74598
3496.48735	4.79869
3494.55879	4.85264
3492.63022	4.90233
3490.70166	4.95003
3488.77310	4.99837
3486.84453	5.04770
3484.91597	5.09904
3482.98740	5.14823
3481.05884	5.19290
3479.13027	5.23937
3477.20171	5.29028
3475.27314	5.34036
3473.34458	5.38893
3471.41602	5.43611
3469.48745	5.47618
3467.55889	5.51292
3465.63032	5.55960
3463.70176	5.61953
3461.77319	5.67924
3459.84463	5.73038
3457.91606	5.78260
3455.98750	5.83877
3454.05894	5.88679
3452.13037	5.93783
3450.20181	5.99673
3448.27324	6.03844
3446.34468	6.06972
3444.41611	6.11016
3442.48755	6.16711
3440.55898	6.23415
3438.63042	6.29163
3436.70186	6.32769
3434.77329	6.35131
3432.84473	6.39809
3430.91616	6.48229
3428.98760	6.56291
3427.05903	6.59726
3425.13047	6.61831
3423.20190	6.67293
3421.27334	6.75325
3419.34478	6.81514
3417.41621	6.84673
3415.48765	6.87279
3413.55908	6.90235
3411.63052	6.93778
3409.70195	6.97408
3407.77339	7.03395
3405.84482	7.12049
3403.91626	7.17947
3401.98770	7.17985
3400.05913	7.18716
3398.13057	7.25497
3396.20200	7.33926
3394.27344	7.41496
3392.34487	7.47377
3390.41631	7.50136
3388.48774	7.51318
3386.55918	7.52438
3384.63062	7.52537
3382.70205	7.53943
3380.77349	7.59323
3378.84492	7.66447
3376.91636	7.72133
3374.98779	7.73396
3373.05923	7.73712
3371.13066	7.76117
3369.20210	7.78345
3367.27354	7.78444
3365.34497	7.77978
3363.41641	7.78653
3361.48784	7.80270
3359.55928	7.80603
3357.63071	7.79934
3355.70215	7.83963
3353.77358	7.92633
3351.84502	8.02909
3349.91646	8.05928
3347.98789	8.03283
3346.05933	8.10346
3344.13076	8.22736
3342.20220	8.27446
3340.27363	8.25799
3338.34507	8.21125
3336.41650	8.13746
3334.48794	8.07427
3332.55937	8.05565
3330.63081	8.11911
3328.70225	8.21587
3326.77368	8.30001
3324.84512	8.36112
3322.91655	8.33708
3320.98799	8.29826
3319.05942	8.26864
3317.13086	8.20672
3315.20229	8.14705
3313.27373	8.15777
3311.34517	8.19229
3309.41660	8.12794
3307.48804	8.02553
3305.55947	7.99700
3303.63091	8.08541
3301.70234	8.25181
3299.77378	8.34436
3297.84521	8.32851
3295.91665	8.34763
3293.98809	8.38622
3292.05952	8.38919
3290.13096	8.41177
3288.20239	8.45700
3286.27383	8.45739
3284.34526	8.34925
3282.41670	8.19714
3280.48813	8.09386
3278.55957	8.07627
3276.63101	8.10510
3274.70244	8.14781
3272.77388	8.18243
3270.84531	8.17654
3268.91675	8.19281
3266.98818	8.25977
3265.05962	8.34576
3263.13105	8.35491
3261.20249	8.25780
3259.27393	8.23855
3257.34536	8.36234
3255.41680	8.43366
3253.48823	8.37553
3251.55967	8.32372
3249.63110	8.29846
3247.70254	8.29111
3245.77397	8.27143
3243.84541	8.21728
3241.91685	8.21050
3239.98828	8.23850
3238.05972	8.21054
3236.13115	8.16596
3234.20259	8.15524
3232.27402	8.17063
3230.34546	8.17042
3228.41689	8.10605
3226.48833	8.04623
3224.55977	8.00303
3222.63120	7.91301
3220.70264	7.84922
3218.77407	7.91051
3216.84551	8.03974
3214.91694	8.09626
3212.98838	8.06056
3211.05981	7.97960
3209.13125	7.89683
3207.20269	7.86595
3205.27412	7.86659
3203.34556	7.82110
3201.41699	7.76385
3199.48843	7.79197
3197.55986	7.84989
3195.63130	7.81766
3193.70273	7.72892
3191.77417	7.63465
3189.84561	7.54354
3187.91704	7.49593
3185.98848	7.47857
3184.05991	7.43758
3182.13135	7.40262
3180.20278	7.39737
3178.27422	7.34589
3176.34565	7.23790
3174.41709	7.15981
3172.48853	7.11972
3170.55996	7.06515
3168.63140	7.00656
3166.70283	6.98488
3164.77427	6.97172
3162.84570	6.89295
3160.91714	6.76890
3158.98857	6.68971
3157.06001	6.65395
3155.13145	6.59568
3153.20288	6.50374
3151.27432	6.42436
3149.34575	6.37122
3147.41719	6.31260
3145.48862	6.25101
3143.56006	6.19885
3141.63149	6.12566
3139.70293	6.03041
3137.77437	5.95421
3135.84580	5.89578
3133.91724	5.82897
3131.98867	5.75595
3130.06011	5.68567
3128.13154	5.61135
3126.20298	5.52805
3124.27441	5.44870
3122.34585	5.38696
3120.41729	5.33378
3118.48872	5.26188
3116.56016	5.17362
3114.63159	5.09931
3112.70303	5.03849
3110.77446	4.97173
3108.84590	4.89921
3106.91733	4.82687
3104.98877	4.75384
3103.06021	4.68104
3101.13164	4.61046
3099.20308	4.54254
3097.27451	4.47672
3095.34595	4.41206
3093.41738	4.34642
3091.48882	4.27922
3089.56025	4.21394
3087.63169	4.15183
3085.70312	4.08970
3083.77456	4.02583
3081.84600	3.96264
3079.91743	3.90036
3077.98887	3.83777
3076.06030	3.77644
3074.13174	3.71758
3072.20317	3.66021
3070.27461	3.60053
3068.34604	3.53897
3066.41748	3.48180
3064.48892	3.42878
3062.56035	3.37369
3060.63179	3.31589
3058.70322	3.25941
3056.77466	3.20536
3054.84609	3.15203
3052.91753	3.09895
3050.98896	3.04682
3049.06040	2.99551
3047.13184	2.94471
3045.20327	2.89387
3043.27471	2.84337
3041.34614	2.79414
3039.41758	2.74567
3037.48901	2.69854
3035.56045	2.65336
3033.63188	2.60794
3031.70332	2.56129
3029.77476	2.51576
3027.84619	2.47293
3025.91763	2.43077
3023.98906	2.38741
3022.06050	2.34435
3020.13193	2.30319
3018.20337	2.26317
3016.27480	2.22295
3014.34624	2.18289
3012.41768	2.14389
3010.48911	2.10566
3008.56055	2.06819
3006.63198	2.03153
3004.70342	1.99498
3002.77485	1.95884
3000.84629	1.92446
2998.91772	1.89147
2996.98916	1.85853
2995.06060	1.82529
2993.13203	1.79217
2991.20347	1.76000
2989.27490	1.72914
2987.34634	1.69905
2985.41777	1.66916
2983.48921	1.63944
2981.56064	1.61048
2979.63208	1.58242
2977.70352	1.55468
2975.77495	1.52717
2973.84639	1.50028
2971.91782	1.47381
2969.98926	1.44747
2968.06069	1.42170
2966.13213	1.39694
2964.20356	1.37251
2962.27500	1.34772
2960.34644	1.32300
2958.41787	1.29865
2956.48931	1.27463
2954.56074	1.25118
2952.63218	1.22833
2950.70361	1.20611
2948.77505	1.18431
2946.84648	1.16252
2944.91792	1.14089
2942.98936	1.11961
2941.06079	1.09863
2939.13223	1.07791
2937.20366	1.05755
2935.27510	1.03816
2933.34653	1.01970
2931.41797	1.00140
2929.48940	0.98285
2927.56084	0.96404
2925.63228	0.94572
2923.70371	0.92849
2921.77515	0.91169
2919.84658	0.89482
2917.91802	0.87819
2915.98945	0.86163
2914.06089	0.84515
2912.13232	0.82970
2910.20376	0.81529
2908.27520	0.80112
2906.34663	0.78695
2904.41807	0.77283
2902.48950	0.75909
2900.56094	0.74582
2898.63237	0.73284
2896.70381	0.72042
2894.77524	0.70854
2892.84668	0.69694
2890.91812	0.68546
2888.98955	0.67372
2887.06099	0.66187
2885.13242	0.65065
2883.20386	0.64016
2881.27529	0.62986
2879.34673	0.61952
2877.41816	0.60921
2875.48960	0.59902
2873.56104	0.58903
2871.63247	0.57917
2869.70391	0.56914
2867.77534	0.55895
2865.84678	0.54876
2863.91821	0.53870
2861.98965	0.52899
2860.06108	0.51948
2858.13252	0.50996
2856.20396	0.50085
2854.27539	0.49226
2852.34683	0.48381
2850.41826	0.47569
2848.48970	0.46802
2846.56113	0.46053
2844.63257	0.45324
2842.70400	0.44630
2840.77544	0.43983
2838.84687	0.43387
2836.91831	0.42829
2834.98975	0.42266
2833.06118	0.41670
2831.13262	0.41054
2829.20405	0.40447
2827.27549	0.39852
2825.34692	0.39268
2823.41836	0.38704
2821.48979	0.38142
2819.56123	0.37582
2817.63267	0.37031
2815.70410	0.36482
2813.77554	0.35945
2811.84697	0.35423
2809.91841	0.34917
2807.98984	0.34424
2806.06128	0.33916
2804.13271	0.33397
2802.20415	0.32907
2800.27559	0.32446
2798.34702	0.31996
2796.41846	0.31556
2794.48989	0.31108
2792.56133	0.30647
2790.63276	0.30195
2788.70420	0.29781
2786.77563	0.29401
2784.84707	0.29023
2782.91851	0.28623
2780.98994	0.28223
2779.06138	0.27836
2777.13281	0.27450
2775.20425	0.27080
2773.27568	0.26734
2771.34712	0.26398
2769.41855	0.26068
2767.48999	0.25735
2765.56143	0.25397
2763.63286	0.25087
2761.70430	0.24800
2759.77573	0.24510
2757.84717	0.24213
2755.91860	0.23907
2753.99004	0.23601
2752.06147	0.23309
2750.13291	0.23044
2748.20435	0.22796
2746.27578	0.22540
2744.34722	0.22273
2742.41865	0.22016
2740.49009	0.21783
2738.56152	0.21559
2736.63296	0.21324
2734.70439	0.21074
2732.77583	0.20830
2730.84727	0.20602
2728.91870	0.20384
2726.99014	0.20182
2725.06157	0.19993
2723.13301	0.19800
2721.20444	0.19606
2719.27588	0.19433
2717.34731	0.19262
2715.41875	0.19067
2713.49019	0.18874
2711.56162	0.18703
2709.63306	0.18557
2707.70449	0.18413
2705.77593	0.18254
2703.84736	0.18088
2701.91880	0.17924
2699.99023	0.17769
2698.06167	0.17636
2696.13311	0.17508
2694.20454	0.17366
2692.27598	0.17222
2690.34741	0.17089
2688.41885	0.16975
2686.49028	0.16866
2684.56172	0.16749
2682.63315	0.16643
2680.70459	0.16557
2678.77603	0.16473
2676.84746	0.16380
2674.91890	0.16285
2672.99033	0.16182
2671.06177	0.16077
2669.13320	0.15994
2667.20464	0.15924
2665.27607	0.15827
2663.34751	0.15715
2661.41895	0.15634
2659.49038	0.15578
2657.56182	0.15505
2655.63325	0.15427
2653.70469	0.15366
2651.77612	0.15300
2649.84756	0.15226
2647.91899	0.15167
2645.99043	0.15125
2644.06187	0.15088
2642.13330	0.15052
2640.20474	0.15021
2638.27617	0.14984
2636.34761	0.14938
2634.41904	0.14899
2632.49048	0.14869
2630.56191	0.14848
2628.63335	0.14824
2626.70479	0.14791
2624.77622	0.14760
2622.84766	0.14739
2620.91909	0.14719
2618.99053	0.14694
2617.06196	0.14673
2615.13340	0.14664
2613.20483	0.14664
2611.27627	0.14656
2609.34771	0.14639
2607.41914	0.14624
2605.49058	0.14619
2603.56201	0.14629
2601.63345	0.14645
2599.70488	0.14650
2597.77632	0.14643
2595.84775	0.14647
2593.91919	0.14675
2591.99062	0.14716
2590.06206	0.14751
2588.13350	0.14771
2586.20493	0.14782
2584.27637	0.14799
2582.34780	0.14823
2580.41924	0.14853
2578.49067	0.14894
2576.56211	0.14928
2574.63354	0.14947
2572.70498	0.14975
2570.77642	0.15018
2568.84785	0.15068
2566.91929	0.15117
2564.99072	0.15155
2563.06216	0.15178
2561.13359	0.15205
2559.20503	0.15255
2557.27646	0.15323
2555.34790	0.15393
2553.41934	0.15461
2551.49077	0.15532
2549.56221	0.15593
2547.63364	0.15637
2545.70508	0.15682
2543.77651	0.15744
2541.84795	0.15811
2539.91938	0.15872
2537.99082	0.15936
2536.06226	0.16008
2534.13369	0.16075
2532.20513	0.16142
2530.27656	0.16220
2528.34800	0.16307
2526.41943	0.16388
2524.49087	0.16458
2522.56230	0.16529
2520.63374	0.16604
2518.70518	0.16680
2516.77661	0.16751
2514.84805	0.16821
2512.91948	0.16903
2510.99092	0.16993
2509.06235	0.17080
2507.13379	0.17173
2505.20522	0.17271
2503.27666	0.17362
2501.34810	0.17446
2499.41953	0.17537
2497.49097	0.17630
2495.56240	0.17711
2493.63384	0.17790
2491.70527	0.17869
2489.77671	0.17941
2487.84814	0.18023
2485.91958	0.18127
2483.99102	0.18235
2482.06245	0.18328
2480.13389	0.18413
2478.20532	0.18509
2476.27676	0.18616
2474.34819	0.18719
2472.41963	0.18811
2470.49106	0.18896
2468.56250	0.18981
2466.63394	0.19065
2464.70537	0.19151
2462.77681	0.19247
2460.84824	0.19346
2458.91968	0.19438
2456.99111	0.19536
2455.06255	0.19642
2453.13398	0.19747
2451.20542	0.19848
2449.27686	0.19940
2447.34829	0.20032
2445.41973	0.20136
2443.49116	0.20241
2441.56260	0.20341
2439.63403	0.20444
2437.70547	0.20546
2435.77690	0.20646
2433.84834	0.20747
2431.91978	0.20846
2429.99121	0.20942
2428.06265	0.21047
2426.13408	0.21172
2424.20552	0.21299
2422.27695	0.21412
2420.34839	0.21530
2418.41982	0.21657
2416.49126	0.21780
2414.56270	0.21899
2412.63413	0.22011
2410.70557	0.22113
2408.77700	0.22218
2406.84844	0.22338
2404.91987	0.22473
2402.99131	0.22605
2401.06274	0.22728
2399.13418	0.22850
2397.20562	0.22961
2395.27705	0.23063
2393.34849	0.23189
2391.41992	0.23345
2389.49136	0.23507
2387.56279	0.23687
2385.63423	0.23939
2383.70566	0.24303
2381.77710	0.24771
2379.84854	0.25333
2377.91997	0.26005
2375.99141	0.26798
2374.06284	0.27693
2372.13428	0.28652
2370.20571	0.29676
2368.27715	0.30765
2366.34858	0.31844
2364.42002	0.32802
2362.49146	0.33562
2360.56289	0.34061
2358.63433	0.34204
2356.70576	0.33914
2354.77720	0.33227
2352.84863	0.32284
2350.92007	0.31333
2348.99150	0.30809
2347.06294	0.30939
2345.13437	0.31697
2343.20581	0.32662
2341.27725	0.33202
2339.34868	0.33324
2337.42012	0.33318
2335.49155	0.33309
2333.56299	0.33308
2331.63442	0.33358
2329.70586	0.33412
2327.77729	0.33376
2325.84873	0.33237
2323.92017	0.33045
2321.99160	0.32814
2320.06304	0.32561
2318.13447	0.32318
2316.20591	0.32106
2314.27734	0.31970
2312.34878	0.31938
2310.42021	0.31941
2308.49165	0.31901
2306.56309	0.31825
2304.63452	0.31759
2302.70596	0.31752
2300.77739	0.31810
2298.84883	0.31874
2296.92026	0.31928
2294.99170	0.32003
2293.06313	0.32090
2291.13457	0.32173
2289.20601	0.32269
2287.27744	0.32369
2285.34888	0.32450
2283.42031	0.32555
2281.49175	0.32730
2279.56318	0.32964
2277.63462	0.33211
2275.70605	0.33440
2273.77749	0.33654
2271.84893	0.33874
2269.92036	0.34089
2267.99180	0.34291
2266.06323	0.34492
2264.13467	0.34691
2262.20610	0.34886
2260.27754	0.35070
2258.34897	0.35242
2256.42041	0.35421
2254.49185	0.35624
2252.56328	0.35848
2250.63472	0.36077
2248.70615	0.36289
2246.77759	0.36486
2244.84902	0.36685
2242.92046	0.36881
2240.99189	0.37074
2239.06333	0.37286
2237.13477	0.37520
2235.20620	0.37748
2233.27764	0.37958
2231.34907	0.38173
2229.42051	0.38412
2227.49194	0.38643
2225.56338	0.38850
2223.63481	0.39058
2221.70625	0.39280
2219.77769	0.39508
2217.84912	0.39729
2215.92056	0.39949
2213.99199	0.40170
2212.06343	0.40381
2210.13486	0.40587
2208.20630	0.40797
2206.27773	0.41014
2204.34917	0.41235
2202.42061	0.41447
2200.49204	0.41646
2198.56348	0.41848
2196.63491	0.42047
2194.70635	0.42230
2192.77778	0.42402
2190.84922	0.42579
2188.92065	0.42768
2186.99209	0.42960
2185.06353	0.43140
2183.13496	0.43307
2181.20640	0.43476
2179.27783	0.43643
2177.34927	0.43802
2175.42070	0.43960
2173.49214	0.44121
2171.56357	0.44277
2169.63501	0.44422
2167.70645	0.44551
2165.77788	0.44675
2163.84932	0.44807
2161.92075	0.44938
2159.99219	0.45048
2158.06362	0.45136
2156.13506	0.45210
2154.20649	0.45276
2152.27793	0.45352
2150.34937	0.45440
2148.42080	0.45518
2146.49224	0.45580
2144.56367	0.45631
2142.63511	0.45674
2140.70654	0.45710
2138.77798	0.45738
2136.84941	0.45749
2134.92085	0.45736
2132.99229	0.45713
2131.06372	0.45699
2129.13516	0.45692
2127.20659	0.45673
2125.27803	0.45642
2123.34946	0.45601
2121.42090	0.45544
2119.49233	0.45471
2117.56377	0.45398
2115.63521	0.45333
2113.70664	0.45252
2111.77808	0.45150
2109.84951	0.45052
2107.92095	0.44959
2105.99238	0.44864
2104.06382	0.44764
2102.13525	0.44634
2100.20669	0.44470
2098.27812	0.44308
2096.34956	0.44161
2094.42100	0.44011
2092.49243	0.43852
2090.56387	0.43679
2088.63530	0.43494
2086.70674	0.43312
2084.77817	0.43123
2082.84961	0.42922
2080.92104	0.42714
2078.99248	0.42507
2077.06392	0.42306
2075.13535	0.42111
2073.20679	0.41905
2071.27822	0.41678
2069.34966	0.41447
2067.42109	0.41220
2065.49253	0.40978
2063.56396	0.40721
2061.63540	0.40465
2059.70684	0.40217
2057.77827	0.39979
2055.84971	0.39728
2053.92114	0.39456
2051.99258	0.39200
2050.06401	0.38960
2048.13545	0.38699
2046.20688	0.38417
2044.27832	0.38141
2042.34976	0.37878
2040.42119	0.37614
2038.49263	0.37340
2036.56406	0.37061
2034.63550	0.36784
2032.70693	0.36508
2030.77837	0.36233
2028.84980	0.35951
2026.92124	0.35661
2024.99268	0.35371
2023.06411	0.35095
2021.13555	0.34830
2019.20698	0.34562
2017.27842	0.34291
2015.34985	0.34017
2013.42129	0.33740
2011.49272	0.33471
2009.56416	0.33205
2007.63560	0.32924
2005.70703	0.32643
2003.77847	0.32382
2001.84990	0.32132
1999.92134	0.31871
1997.99277	0.31599
1996.06421	0.31340
1994.13564	0.31100
1992.20708	0.30864
1990.27852	0.30606
1988.34995	0.30339
1986.42139	0.30088
1984.49282	0.29848
1982.56426	0.29607
1980.63569	0.29369
1978.70713	0.29141
1976.77856	0.28912
1974.85000	0.28686
1972.92144	0.28479
1970.99287	0.28285
1969.06431	0.28093
1967.13574	0.27900
1965.20718	0.27692
1963.27861	0.27479
1961.35005	0.27279
1959.42148	0.27095
1957.49292	0.26921
1955.56436	0.26744
1953.63579	0.26560
1951.70723	0.26385
1949.77866	0.26229
1947.85010	0.26079
1945.92153	0.25935
1943.99297	0.25804
1942.06440	0.25665
1940.13584	0.25501
1938.20728	0.25344
1936.27871	0.25211
1934.35015	0.25090
1932.42158	0.24972
1930.49302	0.24859
1928.56445	0.24746
1926.63589	0.24633
1924.70732	0.24537
1922.77876	0.24452
1920.85020	0.24354
1918.92163	0.24263
1916.99307	0.24179
1915.06450	0.24078
1913.13594	0.23981
1911.20737	0.23912
1909.27881	0.23849
1907.35024	0.23771
1905.42168	0.23694
1903.49312	0.23638
1901.56455	0.23594
1899.63599	0.23551
1897.70742	0.23518
1895.77886	0.23491
1893.85029	0.23455
1891.92173	0.23422
1889.99316	0.23414
1888.06460	0.23389
1886.13604	0.23348
1884.20747	0.23320
1882.27891	0.23294
1880.35034	0.23273
1878.42178	0.23267
1876.49321	0.23268
1874.56465	0.23269
1872.63608	0.23293
1870.70752	0.23356
1868.77896	0.23447
1866.85039	0.23475
1864.92183	0.23427
1862.99326	0.23402
1861.06470	0.23414
1859.13613	0.23444
1857.20757	0.23477
1855.27900	0.23522
1853.35044	0.23573
1851.42187	0.23626
1849.49331	0.23682
1847.56475	0.23767
1845.63618	0.23886
1843.70762	0.24000
1841.77905	0.24054
1839.85049	0.24075
1837.92192	0.24146
1835.99336	0.24241
1834.06479	0.24331
1832.13623	0.24443
1830.20767	0.24622
1828.27910	0.24790
1826.35054	0.24887
1824.42197	0.24992
1822.49341	0.25090
1820.56484	0.25192
1818.63628	0.25329
1816.70771	0.25498
1814.77915	0.25666
1812.85059	0.25853
1810.92202	0.26078
1808.99346	0.26289
1807.06489	0.26465
1805.13633	0.26639
1803.20776	0.26863
1801.27920	0.27139
1799.35063	0.27442
1797.42207	0.27698
1795.49351	0.27938
1793.56494	0.28237
1791.63638	0.28609
1789.70781	0.28931
1787.77925	0.29164
1785.85068	0.29461
1783.92212	0.29838
1781.99355	0.30256
1780.06499	0.30686
1778.13643	0.31107
1776.20786	0.31511
1774.27930	0.31977
1772.35073	0.32604
1770.42217	0.33235
1768.49360	0.33739
1766.56504	0.34230
1764.63647	0.34747
1762.70791	0.35338
1760.77935	0.36084
1758.85078	0.36779
1756.92222	0.37485
1754.99365	0.38264
1753.06509	0.38988
1751.13652	0.39872
1749.20796	0.40973
1747.27939	0.42026
1745.35083	0.42935
1743.42227	0.43888
1741.49370	0.44935
1739.56514	0.46193
1737.63657	0.47486
1735.70801	0.48629
1733.77944	0.50276
1731.85088	0.52195
1729.92231	0.53723
1727.99375	0.55282
1726.06519	0.56981
1724.13662	0.58837
1722.20806	0.60832
1720.27949	0.62717
1718.35093	0.64951
1716.42236	0.68137
1714.49380	0.71098
1712.56523	0.73519
1710.63667	0.75903
1708.70811	0.78494
1706.77954	0.81447
1704.85098	0.84941
1702.92241	0.88059
1700.99385	0.91167
1699.06528	0.95713
1697.13672	0.99843
1695.20815	1.04036
1693.27959	1.08145
1691.35103	1.11513
1689.42246	1.15396
1687.49390	1.19458
1685.56533	1.23364
1683.63677	1.29255
1681.70820	1.35338
1679.77964	1.39346
1677.85107	1.43162
1675.92251	1.47457
1673.99395	1.52668
1672.06538	1.57381
1670.13682	1.62110
1668.20825	1.68145
1666.27969	1.73001
1664.35112	1.77059
1662.42256	1.82081
1660.49399	1.87789
1658.56543	1.92377
1656.63687	1.96105
1654.70830	1.99485
1652.77974	2.04711
1650.85117	2.09856
1648.92261	2.11923
1646.99404	2.14430
1645.06548	2.17393
1643.13691	2.19418
1641.20835	2.20527
1639.27979	2.21474
1637.35122	2.22022
1635.42266	2.21772
1633.49409	2.20841
1631.56553	2.19546
1629.63696	2.18052
1627.70840	2.15595
1625.77983	2.12582
1623.85127	2.08768
1621.92271	2.04073
1619.99414	1.99788
1618.06558	1.95603
1616.13701	1.89625
1614.20845	1.83408
1612.27988	1.78699
1610.35132	1.73880
1608.42275	1.68602
1606.49419	1.63299
1604.56562	1.58375
1602.63706	1.53644
1600.70850	1.49005
1598.77993	1.44698
1596.85137	1.40646
1594.92280	1.36722
1592.99424	1.32949
1591.06567	1.29511
1589.13711	1.26315
1587.20854	1.23311
1585.27998	1.20496
1583.35142	1.17866
1581.42285	1.15459
1579.49429	1.13391
1577.56572	1.11551
1575.63716	1.09300
1573.70859	1.07208
1571.78003	1.05795
1569.85146	1.04383
1567.92290	1.02833
1565.99434	1.01606
1564.06577	1.00610
1562.13721	0.99827
1560.20864	0.99268
1558.28008	0.98425
1556.35151	0.97528
1554.42295	0.96922
1552.49438	0.96369
1550.56582	0.95785
1548.63726	0.95059
1546.70869	0.94276
1544.78013	0.93467
1542.85156	0.92546
1540.92300	0.91258
1538.99443	0.89252
1537.06587	0.87723
1535.13730	0.86741
1533.20874	0.85536
1531.28018	0.84194
1529.35161	0.83162
1527.42305	0.82207
1525.49448	0.81242
1523.56592	0.80422
1521.63735	0.79634
1519.70879	0.78780
1517.78022	0.78015
1515.85166	0.77152
1513.92310	0.76261
1511.99453	0.75538
1510.06597	0.74943
1508.13740	0.74396
1506.20884	0.73467
1504.28027	0.72511
1502.35171	0.71955
1500.42314	0.71523
1498.49458	0.71088
1496.56602	0.70549
1494.63745	0.69974
1492.70889	0.69541
1490.78032	0.69207
1488.85176	0.68784
1486.92319	0.68272
1484.99463	0.67828
1483.06606	0.67486
1481.13750	0.67196
1479.20894	0.66948
1477.28037	0.66773
1475.35181	0.66657
1473.42324	0.66541
1471.49468	0.66293
1469.56611	0.65958
1467.63755	0.65686
1465.70898	0.65492
1463.78042	0.65315
1461.85186	0.65172
1459.92329	0.65123
1457.99473	0.65117
1456.06616	0.64968
1454.13760	0.64697
1452.20903	0.64458
1450.28047	0.64239
1448.35190	0.64030
1446.42334	0.63803
1444.49478	0.63567
1442.56621	0.63351
1440.63765	0.63160
1438.70908	0.62989
1436.78052	0.62779
1434.85195	0.62510
1432.92339	0.62272
1430.99482	0.62105
1429.06626	0.61991
1427.13770	0.61895
1425.20913	0.61817
1423.28057	0.61778
1421.35200	0.61754
1419.42344	0.61720
1417.49487	0.61638
1415.56631	0.61495
1413.63774	0.61359
1411.70918	0.61261
1409.78062	0.61202
1407.85205	0.61178
1405.92349	0.61190
1403.99492	0.61192
1402.06636	0.61134
1400.13779	0.61047
1398.20923	0.60945
1396.28066	0.60793
1394.35210	0.60556
1392.42354	0.60258
1390.49497	0.59973
1388.56641	0.59727
1386.63784	0.59477
1384.70928	0.59183
1382.78071	0.58879
1380.85215	0.58602
1378.92358	0.58372
1376.99502	0.58201
1375.06646	0.58087
1373.13789	0.57972
1371.20933	0.57842
1369.28076	0.57734
1367.35220	0.57625
1365.42363	0.57498
1363.49507	0.57380
1361.56650	0.57275
1359.63794	0.57147
1357.70937	0.57016
1355.78081	0.56915
1353.85225	0.56835
1351.92368	0.56746
1349.99512	0.56658
1348.06655	0.56584
1346.13799	0.56509
1344.20942	0.56425
1342.28086	0.56351
1340.35229	0.56298
1338.42373	0.56236
1336.49517	0.56145
1334.56660	0.56055
1332.63804	0.55988
1330.70947	0.55945
1328.78091	0.55915
1326.85234	0.55892
1324.92378	0.55872
1322.99521	0.55850
1321.06665	0.55833
1319.13809	0.55823
1317.20952	0.55799
1315.28096	0.55754
1313.35239	0.55701
1311.42383	0.55635
1309.49526	0.55555
1307.56670	0.55485
1305.63813	0.55435
1303.70957	0.55385
1301.78101	0.55320
1299.85244	0.55234
1297.92388	0.55137
1295.99531	0.55043
1294.06675	0.54941
1292.13818	0.54837
1290.20962	0.54759
1288.28105	0.54702
1286.35249	0.54633
1284.42393	0.54541
1282.49536	0.54444
1280.56680	0.54358
1278.63823	0.54282
1276.70967	0.54201
1274.78110	0.54121
1272.85254	0.54057
1270.92397	0.54008
1268.99541	0.53965
1267.06685	0.53922
1265.13828	0.53870
1263.20972	0.53804
1261.28115	0.53740
1259.35259	0.53695
1257.42402	0.53652
1255.49546	0.53599
1253.56689	0.53559
1251.63833	0.53540
1249.70977	0.53531
1247.78120	0.53524
1245.85264	0.53518
1243.92407	0.53489
1241.99551	0.53420
1240.06694	0.53323
1238.13838	0.53215
1236.20981	0.53098
1234.28125	0.52969
1232.35269	0.52838
1230.42412	0.52711
1228.49556	0.52587
1226.56699	0.52470
1224.63843	0.52372
1222.70986	0.52284
1220.78130	0.52189
1218.85273	0.52078
1216.92417	0.51974
1214.99561	0.51899
1213.06704	0.51842
1211.13848	0.51775
1209.20991	0.51696
1207.28135	0.51617
1205.35278	0.51539
1203.42422	0.51467
1201.49565	0.51403
1199.56709	0.51344
1197.63853	0.51285
1195.70996	0.51233
1193.78140	0.51192
1191.85283	0.51144
1189.92427	0.51089
1187.99570	0.51043
1186.06714	0.51023
1184.13857	0.51026
1182.21001	0.51033
1180.28145	0.51051
1178.35288	0.51101
1176.42432	0.51169
1174.49575	0.51223
1172.56719	0.51258
1170.63862	0.51275
1168.71006	0.51276
1166.78149	0.51282
1164.85293	0.51310
1162.92437	0.51326
1160.99580	0.51306
1159.06724	0.51265
1157.13867	0.51208
1155.21011	0.51124
1153.28154	0.51009
1151.35298	0.50866
1149.42441	0.50697
1147.49585	0.50503
1145.56729	0.50276
1143.63872	0.50025
1141.71016	0.49791
1139.78159	0.49584
1137.85303	0.49384
1135.92446	0.49214
1133.99590	0.49098
1132.06733	0.49002
1130.13877	0.48878
1128.21021	0.48729
1126.28164	0.48601
1124.35308	0.48509
1122.42451	0.48437
1120.49595	0.48374
1118.56738	0.48325
1116.63882	0.48295
1114.71025	0.48292
1112.78169	0.48313
1110.85312	0.48343
1108.92456	0.48397
1106.99600	0.48499
1105.06743	0.48623
1103.13887	0.48738
1101.21030	0.48873
1099.28174	0.49066
1097.35317	0.49306
1095.42461	0.49597
1093.49604	0.49966
1091.56748	0.50409
1089.63892	0.50904
1087.71035	0.51448
1085.78179	0.52055
1083.85322	0.52724
1081.92466	0.53394
1079.99609	0.53952
1078.06753	0.54292
1076.13896	0.54373
1074.21040	0.54200
1072.28184	0.53772
1070.35327	0.53149
1068.42471	0.52450
1066.49614	0.51752
1064.56758	0.51104
1062.63901	0.50551
1060.71045	0.50077
1058.78188	0.49640
1056.85332	0.49241
1054.92476	0.48903
1052.99619	0.48620
1051.06763	0.48385
1049.13906	0.48184
1047.21050	0.47990
1045.28193	0.47824
1043.35337	0.47710
1041.42480	0.47629
1039.49624	0.47561
1037.56768	0.47499
1035.63911	0.47443
1033.71055	0.47408
1031.78198	0.47393
1029.85342	0.47380
1027.92485	0.47369
1025.99629	0.47389
1024.06772	0.47439
1022.13916	0.47487
1020.21060	0.47530
1018.28203	0.47585
1016.35347	0.47658
1014.42490	0.47754
1012.49634	0.47870
1010.56777	0.47990
1008.63921	0.48119
1006.71064	0.48272
1004.78208	0.48443
1002.85352	0.48654
1000.92495	0.48925
998.99639	0.49240
997.06782	0.49600
995.13926	0.49999
993.21069	0.50396
991.28213	0.50750
989.35356	0.51015
987.42500	0.51176
985.49644	0.51275
983.56787	0.51359
981.63931	0.51461
979.71074	0.51609
977.78218	0.51801
975.85361	0.52026
973.92505	0.52299
971.99648	0.52630
970.06792	0.53001
968.13936	0.53388
966.21079	0.53793
964.28223	0.54230
962.35366	0.54710
960.42510	0.55248
958.49653	0.55819
956.56797	0.56393
954.63940	0.56993
952.71084	0.57628
950.78228	0.58266
948.85371	0.58893
946.92515	0.59507
944.99658	0.60124
943.06802	0.60750
941.13945	0.61365
939.21089	0.61962
937.28232	0.62538
935.35376	0.63094
933.42520	0.63639
931.49663	0.64181
929.56807	0.64740
927.63950	0.65324
925.71094	0.65939
923.78237	0.66577
921.85381	0.67204
919.92524	0.67841
917.99668	0.68563
916.06812	0.69362
914.13955	0.70171
912.21099	0.70991
910.28242	0.71845
908.35386	0.72697
906.42529	0.73501
904.49673	0.74285
902.56816	0.75126
900.63960	0.76067
898.71104	0.77032
896.78247	0.77934
894.85391	0.78840
892.92534	0.79868
890.99678	0.81045
889.06821	0.82229
887.13965	0.83340
885.21108	0.84512
883.28252	0.85728
881.35396	0.86911
879.42539	0.88172
877.49683	0.89420
875.56826	0.90459
873.63970	0.91455
871.71113	0.92542
869.78257	0.93606
867.85400	0.94748
865.92544	0.96117
863.99687	0.97492
862.06831	0.98663
860.13975	0.99769
858.21118	1.00955
856.28262	1.02090
854.35405	1.03043
852.42549	1.03966
850.49692	1.05100
848.56836	1.06370
846.63979	1.07617
844.71123	1.08821
842.78267	1.09822
840.85410	1.10625
838.92554	1.11527
836.99697	1.12574
835.06841	1.13648
833.13984	1.15015
831.21128	1.16690
829.28271	1.18017
827.35415	1.18851
825.42559	1.19895
823.49702	1.21321
821.56846	1.22130
819.63989	1.22441
817.71133	1.23754
815.78276	1.25685
813.85420	1.26742
811.92563	1.27676
809.99707	1.28898
808.06851	1.28889
806.13994	1.27911
804.21138	1.27229
802.28281	1.28272
800.35425	1.31901
798.42568	1.35417
796.49712	1.35403
794.56855	1.32325
792.63999	1.28252
790.71143	1.26426
788.78286	1.29836
786.85430	1.36920
784.92573	1.42610
782.99717	1.45985
781.06860	1.48265
779.14004	1.45847
777.21147	1.38339
775.28291	1.33805
773.35435	1.41886
771.42578	1.60128
769.49722	1.55506
767.56865	1.42233
765.64009	1.37411
763.71152	1.34826
761.78296	1.29718
759.85439	1.24617
757.92583	1.24973
755.99727	1.24958
754.06870	1.23208
752.14014	1.31222
750.21157	1.46066
748.28301	1.39519
746.35444	1.28232
744.42588	1.23209
742.49731	1.14011
740.56875	1.05883
738.64019	0.98113
736.71162	0.89565
734.78306	0.87263
732.85449	0.82547
730.92593	0.67757
728.99736	0.56938
727.06880	0.51878
725.14023	0.49863
723.21167	0.48674
721.28311	0.39697
719.35454	0.26592
717.42598	0.20525
715.49741	0.18558
713.56885	0.14087
711.64028	0.10854
709.71172	-0.03334
707.78315	-0.07689
705.85459	-0.00328
703.92603	0.06793
701.99746	0.02949
700.06890	-0.01535
698.14033	0.11058
696.21177	0.24348
694.28320	0.16731
692.35464	0.05748
690.42607	0.01867
688.49751	0.07323
686.56895	0.20573
684.64038	0.47054
682.71182	0.84509
680.78325	1.07851
678.85469	0.74877
676.92612	0.46006
674.99756	0.37729
673.06899	0.32426
671.14043	0.27375
669.21187	0.25505
667.28330	0.17516
665.35474	0.09739
663.42617	0.08820
661.49761	0.13137
659.56904	0.18531
657.64048	0.27078
655.71191	0.41424
653.78335	0.57277
651.85479	0.60792
649.92622	0.42048
647.99766	0.19653
646.06909	0.09448
644.14053	0.04152
642.21196	0.05626
640.28340	0.16401
638.35483	0.28582
636.42627	0.35630
634.49771	0.29251
632.56914	0.18655
630.64058	0.13492
628.71201	0.13926
626.78345	0.23164
624.85488	0.28337
622.92632	0.16427
620.99775	0.10811
619.06919	0.17960
617.14062	0.27015
615.21206	0.25214
613.28350	0.20620
611.35493	0.25683
609.42637	0.27099
607.49780	0.18329
605.56924	0.15008
603.64067	0.14095
601.71211	0.11999
599.78354	0.16864
597.85498	0.25075
595.92642	0.24176
593.99785	0.22877
592.06929	0.30882
590.14072	0.37560
588.21216	0.38910
586.28359	0.41225
584.35503	0.43055
582.42646	0.40611
580.49790	0.40501
578.56934	0.42617
576.64077	0.36236
574.71221	0.29523
572.78364	0.34026
570.85508	0.31650
568.92651	0.25829
566.99795	0.20303
565.06938	0.17663
563.14082	0.27228
561.21226	0.36131
559.28369	0.26307
557.35513	0.21840
555.42656	0.27708
553.49800	0.27750
551.56943	0.25066
549.64087	0.34821
547.71230	0.49213
545.78374	0.40102
543.85518	0.25153
541.92661	0.18534
539.99805	0.20306
538.06948	0.34251
536.14092	0.69320
534.21235	0.99784
532.28379	0.51263
530.35522	0.38167
528.42666	0.36508
526.49810	0.29896
524.56953	0.19488
522.64097	0.14999
520.71240	0.19322
518.78384	0.31363
516.85527	0.39113
514.92671	0.32152
512.99814	0.27858
511.06958	0.28329
509.14102	0.29960
507.21245	0.36845
505.28389	0.41833
503.35532	0.30839
501.42676	0.19878
499.49819	0.13703
