3997.91411	0.06058
3995.98555	0.06125
3994.05698	0.06142
3992.12842	0.06134
3990.19985	0.06153
3988.27129	0.06199
3986.34272	0.06243
3984.41416	0.06256
3982.48560	0.06255
3980.55703	0.06275
3978.62847	0.06308
3976.69990	0.06341
3974.77134	0.06378
3972.84277	0.06402
3970.91421	0.06408
3968.98564	0.06415
3967.05708	0.06429
3965.12852	0.06451
3963.19995	0.06471
3961.27139	0.06474
3959.34282	0.06471
3957.41426	0.06488
3955.48569	0.06514
3953.55713	0.06505
3951.62856	0.06470
3949.70000	0.06468
3947.77144	0.06526
3945.84287	0.06597
3943.91431	0.06592
3941.98574	0.06504
3940.05718	0.06425
3938.12861	0.06425
3936.20005	0.06463
3934.27148	0.06488
3932.34292	0.06497
3930.41436	0.06511
3928.48579	0.06528
3926.55723	0.06499
3924.62866	0.06440
3922.70010	0.06417
3920.77153	0.06429
3918.84297	0.06446
3916.91440	0.06454
3914.98584	0.06438
3913.05728	0.06412
3911.12871	0.06413
3909.20015	0.06424
3907.27158	0.06404
3905.34302	0.06360
3903.41445	0.06326
3901.48589	0.06304
3899.55732	0.06329
3897.62876	0.06399
3895.70020	0.06426
3893.77163	0.06409
3891.84307	0.06400
3889.91450	0.06407
3887.98594	0.06394
3886.05737	0.06378
3884.12881	0.06407
3882.20024	0.06469
3880.27168	0.06506
3878.34312	0.06482
3876.41455	0.06443
3874.48599	0.06460
3872.55742	0.06517
3870.62886	0.06561
3868.70029	0.06558
3866.77173	0.06514
3864.84316	0.06542
3862.91460	0.06644
3860.98604	0.06689
3859.05747	0.06675
3857.12891	0.06674
3855.20034	0.06674
3853.27178	0.06683
3851.34321	0.06803
3849.41465	0.06940
3847.48608	0.07008
3845.55752	0.07043
3843.62896	0.07077
3841.70039	0.07118
3839.77183	0.07176
3837.84326	0.07286
3835.91470	0.07404
3833.98613	0.07454
3832.05757	0.07489
3830.12900	0.07549
3828.20044	0.07604
3826.27187	0.07680
3824.34331	0.07764
3822.41475	0.07796
3820.48618	0.07844
3818.55762	0.07940
3816.62905	0.07996
3814.70049	0.08060
3812.77192	0.08165
3810.84336	0.08267
3808.91479	0.08377
3806.98623	0.08511
3805.05767	0.08635
3803.12910	0.08714
3801.20054	0.08837
3799.27197	0.09031
3797.34341	0.09153
3795.41484	0.09232
3793.48628	0.09332
3791.55771	0.09451
3789.62915	0.09572
3787.70059	0.09665
3785.77202	0.09752
3783.84346	0.09902
3781.91489	0.10091
3779.98633	0.10245
3778.05776	0.10403
3776.12920	0.10564
3774.20063	0.10692
3772.27207	0.10808
3770.34351	0.10973
3768.41494	0.11210
3766.48638	0.11431
3764.55781	0.11603
3762.62925	0.11752
3760.70068	0.11939
3758.77212	0.12224
3756.84355	0.12516
3754.91499	0.12695
3752.98643	0.12864
3751.05786	0.13168
3749.12930	0.13544
3747.20073	0.13786
3745.27217	0.14006
3743.34360	0.14380
3741.41504	0.14731
3739.48647	0.14951
3737.55791	0.15225
3735.62935	0.15695
3733.70078	0.16314
3731.77222	0.16843
3729.84365	0.17267
3727.91509	0.17678
3725.98652	0.18171
3724.05796	0.18790
3722.12939	0.19473
3720.20083	0.20194
3718.27227	0.20930
3716.34370	0.21632
3714.41514	0.22303
3712.48657	0.23138
3710.55801	0.24400
3708.62944	0.25859
3706.70088	0.27096
3704.77231	0.28209
3702.84375	0.29476
3700.91519	0.31120
3698.98662	0.32883
3697.05806	0.34548
3695.12949	0.36376
3693.20093	0.38342
3691.27236	0.40405
3689.34380	0.43033
3687.41523	0.46370
3685.48667	0.49452
3683.55811	0.52139
3681.62954	0.54936
3679.70098	0.58018
3677.77241	0.61226
3675.84385	0.64961
3673.91528	0.70000
3671.98672	0.74336
3670.05815	0.78246
3668.12959	0.83420
3666.20103	0.88185
3664.27246	0.92234
3662.34390	0.96557
3660.41533	1.01186
3658.48677	1.05704
3656.55820	1.10467
3654.62964	1.15799
3652.70107	1.20361
3650.77251	1.24295
3648.84395	1.29522
3646.91538	1.36018
3644.98682	1.41200
3643.05825	1.45307
3641.12969	1.49341
3639.20112	1.53675
3637.27256	1.58074
3635.34399	1.62397
3633.41543	1.66651
3631.48687	1.70498
3629.55830	1.74315
3627.62974	1.79455
3625.70117	1.84509
3623.77261	1.88036
3621.84404	1.91343
3619.91548	1.95045
3617.98691	1.99508
3616.05835	2.03898
3614.12979	2.07564
3612.20122	2.11367
3610.27266	2.15274
3608.34409	2.19261
3606.41553	2.23510
3604.48696	2.27424
3602.55840	2.30856
3600.62983	2.34528
3598.70127	2.38600
3596.77271	2.42627
3594.84414	2.46562
3592.91558	2.50668
3590.98701	2.54764
3589.05845	2.58493
3587.12988	2.62603
3585.20132	2.67228
3583.27275	2.71413
3581.34419	2.75246
3579.41562	2.79196
3577.48706	2.83299
3575.55850	2.87513
3573.62993	2.91918
3571.70137	2.96057
3569.77280	2.99761
3567.84424	3.03682
3565.91567	3.08813
3563.98711	3.14283
3562.05854	3.18881
3560.12998	3.23141
3558.20142	3.27477
3556.27285	3.31819
3554.34429	3.36038
3552.41572	3.40471
3550.48716	3.45130
3548.55859	3.49733
3546.63003	3.54329
3544.70146	3.59044
3542.77290	3.63801
3540.84434	3.68689
3538.91577	3.73543
3536.98721	3.78147
3535.05864	3.82987
3533.13008	3.87914
3531.20151	3.92563
3529.27295	3.97037
3527.34438	4.01551
3525.41582	4.06198
3523.48726	4.11018
3521.55869	4.16153
3519.63013	4.21332
3517.70156	4.26229
3515.77300	4.30724
3513.84443	4.34976
3511.91587	4.39405
3509.98730	4.44428
3508.05874	4.49805
3506.13018	4.54834
3504.20161	4.59290
3502.27305	4.63518
3500.34448	4.67837
3498.41592	4.72352
3496.48735	4.77329
3494.55879	4.82594
3492.63022	4.87678
3490.70166	4.92353
3488.77310	4.97092
3486.84453	5.02335
3484.91597	5.06759
3482.98740	5.09927
3481.05884	5.13918
3479.13027	5.19278
3477.20171	5.24848
3475.27314	5.30055
3473.34458	5.34435
3471.41602	5.38692
3469.48745	5.43386
3467.55889	5.47756
3465.63032	5.51941
3463.70176	5.56119
3461.77319	5.60563
3459.84463	5.66538
3457.91606	5.73516
3455.98750	5.80163
3454.05894	5.85322
3452.13037	5.88668
3450.20181	5.92314
3448.27324	5.97084
3446.34468	6.01683
3444.41611	6.05234
3442.48755	6.09017
3440.55898	6.14994
3438.63042	6.22519
3436.70186	6.27725
3434.77329	6.30329
3432.84473	6.34606
3430.91616	6.40175
3428.98760	6.44373
3427.05903	6.49110
3425.13047	6.55882
3423.20190	6.62328
3421.27334	6.68387
3419.34478	6.74520
3417.41621	6.79834
3415.48765	6.82253
3413.55908	6.82334
3411.63052	6.86250
3409.70195	6.91980
3407.77339	6.94322
3405.84482	6.95741
3403.91626	6.97979
3401.98770	7.00683
3400.05913	7.06175
3398.13057	7.13422
3396.20200	7.19279
3394.27344	7.23193
3392.34487	7.24210
3390.41631	7.25586
3388.48774	7.29572
3386.55918	7.36474
3384.63062	7.44845
3382.70205	7.51356
3380.77349	7.52687
3378.84492	7.49512
3376.91636	7.50314
3374.98779	7.56282
3373.05923	7.62476
3371.13066	7.64499
3369.20210	7.63289
3367.27354	7.63498
3365.34497	7.63229
3363.41641	7.61649
3361.48784	7.64849
3359.55928	7.71099
3357.63071	7.73175
3355.70215	7.72483
3353.77358	7.69608
3351.84502	7.68701
3349.91646	7.73928
3347.98789	7.78320
3346.05933	7.76901
3344.13076	7.76183
3342.20220	7.78720
3340.27363	7.83366
3338.34507	7.88996
3336.41650	7.88038
3334.48794	7.86929
3332.55937	7.91559
3330.63081	7.93347
3328.70225	7.87331
3326.77368	7.77490
3324.84512	7.74691
3322.91655	7.82428
3320.98799	7.87258
3319.05942	7.83944
3317.13086	7.87194
3315.20229	7.94429
3313.27373	7.92742
3311.34517	7.86522
3309.41660	7.87020
3307.48804	7.92817
3305.55947	7.95050
3303.63091	7.92180
3301.70234	7.84044
3299.77378	7.78784
3297.84521	7.77906
3295.91665	7.74745
3293.98809	7.75031
3292.05952	7.83791
3290.13096	7.93599
3288.20239	7.97258
3286.27383	7.98123
3284.34526	8.00524
3282.41670	8.00175
3280.48813	7.90844
3278.55957	7.83891
3276.63101	7.83446
3274.70244	7.81765
3272.77388	7.84313
3270.84531	7.90928
3268.91675	7.90952
3266.98818	7.87896
3265.05962	7.89612
3263.13105	7.90517
3261.20249	7.89253
3259.27393	7.91768
3257.34536	7.93953
3255.41680	7.88989
3253.48823	7.83210
3251.55967	7.82054
3249.63110	7.78123
3247.70254	7.75829
3245.77397	7.85373
3243.84541	7.98259
3241.91685	7.99223
3239.98828	7.88133
3238.05972	7.77962
3236.13115	7.77516
3234.20259	7.81434
3232.27402	7.81674
3230.34546	7.80164
3228.41689	7.81206
3226.48833	7.85138
3224.55977	7.87260
3222.63120	7.84302
3220.70264	7.82368
3218.77407	7.83476
3216.84551	7.80546
3214.91694	7.76015
3212.98838	7.76034
3211.05981	7.74893
3209.13125	7.68513
3207.20269	7.64595
3205.27412	7.63420
3203.34556	7.58431
3201.41699	7.53941
3199.48843	7.51403
3197.55986	7.44014
3195.63130	7.33613
3193.70273	7.28040
3191.77417	7.28159
3189.84561	7.29490
3187.91704	7.29748
3185.98848	7.30406
3184.05991	7.31048
3182.13135	7.26989
3180.20278	7.20347
3178.27422	7.15571
3176.34565	7.11276
3174.41709	7.05078
3172.48853	6.95860
3170.55996	6.89036
3168.63140	6.88167
3166.70283	6.85630
3164.77427	6.78298
3162.84570	6.71346
3160.91714	6.64440
3158.98857	6.57677
3157.06001	6.54133
3155.13145	6.51187
3153.20288	6.45062
3151.27432	6.36147
3149.34575	6.26068
3147.41719	6.17509
3145.48862	6.11607
3143.56006	6.06583
3141.63149	6.00874
3139.70293	5.94542
3137.77437	5.88606
3135.84580	5.82329
3133.91724	5.74549
3131.98867	5.66291
3130.06011	5.58939
3128.13154	5.52617
3126.20298	5.46349
3124.27441	5.40112
3122.34585	5.34311
3120.41729	5.27631
3118.48872	5.19727
3116.56016	5.12003
3114.63159	5.04712
3112.70303	4.97778
3110.77446	4.91486
3108.84590	4.85336
3106.91733	4.78767
3104.98877	4.71841
3103.06021	4.64968
3101.13164	4.58297
3099.20308	4.51551
3097.27451	4.44765
3095.34595	4.38236
3093.41738	4.31843
3091.48882	4.25463
3089.56025	4.19264
3087.63169	4.13220
3085.70312	4.07008
3083.77456	4.00529
3081.84600	3.94161
3079.91743	3.88068
3077.98887	3.82106
3076.06030	3.76244
3074.13174	3.70485
3072.20317	3.64758
3070.27461	3.59061
3068.34604	3.53347
3066.41748	3.47546
3064.48892	3.41821
3062.56035	3.36263
3060.63179	3.30784
3058.70322	3.25266
3056.77466	3.19782
3054.84609	3.14590
3052.91753	3.09665
3050.98896	3.04652
3049.06040	2.99401
3047.13184	2.94226
3045.20327	2.89275
3043.27471	2.84382
3041.34614	2.79548
3039.41758	2.74802
3037.48901	2.70062
3035.56045	2.65358
3033.63188	2.60794
3031.70332	2.56384
3029.77476	2.52034
3027.84619	2.47665
3025.91763	2.43294
3023.98906	2.38931
3022.06050	2.34633
3020.13193	2.30492
3018.20337	2.26492
3016.27480	2.22547
3014.34624	2.18601
3012.41768	2.14714
3010.48911	2.10927
3008.56055	2.07209
3006.63198	2.03589
3004.70342	2.00042
3002.77485	1.96515
3000.84629	1.93085
2998.91772	1.89746
2996.98916	1.86407
2995.06060	1.83094
2993.13203	1.79869
2991.20347	1.76772
2989.27490	1.73775
2987.34634	1.70827
2985.41777	1.67910
2983.48921	1.65011
2981.56064	1.62156
2979.63208	1.59376
2977.70352	1.56688
2975.77495	1.54101
2973.84639	1.51558
2971.91782	1.49012
2969.98926	1.46519
2968.06069	1.44072
2966.13213	1.41613
2964.20356	1.39179
2962.27500	1.36788
2960.34644	1.34402
2958.41787	1.31997
2956.48931	1.29560
2954.56074	1.27180
2952.63218	1.24916
2950.70361	1.22675
2948.77505	1.20379
2946.84648	1.18093
2944.91792	1.15927
2942.98936	1.13843
2941.06079	1.11771
2939.13223	1.09778
2937.20366	1.07874
2935.27510	1.05992
2933.34653	1.04102
2931.41797	1.02187
2929.48940	1.00272
2927.56084	0.98371
2925.63228	0.96503
2923.70371	0.94718
2921.77515	0.92990
2919.84658	0.91277
2917.91802	0.89586
2915.98945	0.87890
2914.06089	0.86212
2912.13232	0.84642
2910.20376	0.83151
2908.27520	0.81661
2906.34663	0.80176
2904.41807	0.78709
2902.48950	0.77294
2900.56094	0.75945
2898.63237	0.74604
2896.70381	0.73260
2894.77524	0.71981
2892.84668	0.70776
2890.91812	0.69610
2888.98955	0.68467
2887.06099	0.67329
2885.13242	0.66208
2883.20386	0.65165
2881.27529	0.64194
2879.34673	0.63225
2877.41816	0.62243
2875.48960	0.61281
2873.56104	0.60309
2871.63247	0.59265
2869.70391	0.58166
2867.77534	0.57080
2865.84678	0.56034
2863.91821	0.54978
2861.98965	0.53899
2860.06108	0.52867
2858.13252	0.51897
2856.20396	0.50970
2854.27539	0.50085
2852.34683	0.49218
2850.41826	0.48358
2848.48970	0.47525
2846.56113	0.46749
2844.63257	0.46023
2842.70400	0.45325
2840.77544	0.44667
2838.84687	0.44044
2836.91831	0.43430
2834.98975	0.42824
2833.06118	0.42228
2831.13262	0.41637
2829.20405	0.41053
2827.27549	0.40460
2825.34692	0.39841
2823.41836	0.39224
2821.48979	0.38646
2819.56123	0.38099
2817.63267	0.37557
2815.70410	0.37013
2813.77554	0.36477
2811.84697	0.35947
2809.91841	0.35431
2807.98984	0.34926
2806.06128	0.34399
2804.13271	0.33861
2802.20415	0.33354
2800.27559	0.32884
2798.34702	0.32434
2796.41846	0.31989
2794.48989	0.31525
2792.56133	0.31046
2790.63276	0.30594
2788.70420	0.30171
2786.77563	0.29766
2784.84707	0.29381
2782.91851	0.28991
2780.98994	0.28591
2779.06138	0.28197
2777.13281	0.27800
2775.20425	0.27415
2773.27568	0.27058
2771.34712	0.26709
2769.41855	0.26359
2767.48999	0.26015
2765.56143	0.25676
2763.63286	0.25348
2761.70430	0.25037
2759.77573	0.24731
2757.84717	0.24422
2755.91860	0.24103
2753.99004	0.23776
2752.06147	0.23464
2750.13291	0.23187
2748.20435	0.22932
2746.27578	0.22662
2744.34722	0.22386
2742.41865	0.22138
2740.49009	0.21904
2738.56152	0.21644
2736.63296	0.21376
2734.70439	0.21138
2732.77583	0.20915
2730.84727	0.20697
2728.91870	0.20498
2726.99014	0.20306
2725.06157	0.20093
2723.13301	0.19858
2721.20444	0.19628
2719.27588	0.19434
2717.34731	0.19260
2715.41875	0.19082
2713.49019	0.18908
2711.56162	0.18743
2709.63306	0.18583
2707.70449	0.18419
2705.77593	0.18246
2703.84736	0.18076
2701.91880	0.17914
2699.99023	0.17760
2698.06167	0.17620
2696.13311	0.17487
2694.20454	0.17355
2692.27598	0.17218
2690.34741	0.17081
2688.41885	0.16960
2686.49028	0.16849
2684.56172	0.16733
2682.63315	0.16625
2680.70459	0.16530
2678.77603	0.16433
2676.84746	0.16326
2674.91890	0.16223
2672.99033	0.16133
2671.06177	0.16040
2669.13320	0.15938
2667.20464	0.15840
2665.27607	0.15741
2663.34751	0.15643
2661.41895	0.15569
2659.49038	0.15511
2657.56182	0.15438
2655.63325	0.15355
2653.70469	0.15284
2651.77612	0.15215
2649.84756	0.15147
2647.91899	0.15089
2645.99043	0.15036
2644.06187	0.14993
2642.13330	0.14955
2640.20474	0.14904
2638.27617	0.14849
2636.34761	0.14810
2634.41904	0.14784
2632.49048	0.14761
2630.56191	0.14731
2628.63335	0.14682
2626.70479	0.14627
2624.77622	0.14592
2622.84766	0.14577
2620.91909	0.14573
2618.99053	0.14565
2617.06196	0.14541
2615.13340	0.14515
2613.20483	0.14493
2611.27627	0.14471
2609.34771	0.14457
2607.41914	0.14455
2605.49058	0.14452
2603.56201	0.14456
2601.63345	0.14469
2599.70488	0.14471
2597.77632	0.14454
2595.84775	0.14446
2593.91919	0.14459
2591.99062	0.14482
2590.06206	0.14501
2588.13350	0.14517
2586.20493	0.14540
2584.27637	0.14570
2582.34780	0.14590
2580.41924	0.14604
2578.49067	0.14629
2576.56211	0.14663
2574.63354	0.14692
2572.70498	0.14720
2570.77642	0.14746
2568.84785	0.14787
2566.91929	0.14847
2564.99072	0.14894
2563.06216	0.14923
2561.13359	0.14959
2559.20503	0.15007
2557.27646	0.15051
2555.34790	0.15097
2553.41934	0.15158
2551.49077	0.15228
2549.56221	0.15288
2547.63364	0.15334
2545.70508	0.15383
2543.77651	0.15439
2541.84795	0.15493
2539.91938	0.15553
2537.99082	0.15620
2536.06226	0.15687
2534.13369	0.15758
2532.20513	0.15830
2530.27656	0.15895
2528.34800	0.15957
2526.41943	0.16029
2524.49087	0.16114
2522.56230	0.16196
2520.63374	0.16269
2518.70518	0.16329
2516.77661	0.16383
2514.84805	0.16447
2512.91948	0.16525
2510.99092	0.16608
2509.06235	0.16703
2507.13379	0.16801
2505.20522	0.16887
2503.27666	0.16969
2501.34810	0.17050
2499.41953	0.17131
2497.49097	0.17224
2495.56240	0.17319
2493.63384	0.17399
2491.70527	0.17474
2489.77671	0.17555
2487.84814	0.17640
2485.91958	0.17733
2483.99102	0.17833
2482.06245	0.17918
2480.13389	0.17986
2478.20532	0.18066
2476.27676	0.18160
2474.34819	0.18253
2472.41963	0.18351
2470.49106	0.18450
2468.56250	0.18533
2466.63394	0.18605
2464.70537	0.18681
2462.77681	0.18776
2460.84824	0.18894
2458.91968	0.19016
2456.99111	0.19118
2455.06255	0.19206
2453.13398	0.19300
2451.20542	0.19403
2449.27686	0.19495
2447.34829	0.19577
2445.41973	0.19659
2443.49116	0.19749
2441.56260	0.19855
2439.63403	0.19969
2437.70547	0.20072
2435.77690	0.20177
2433.84834	0.20286
2431.91978	0.20395
2429.99121	0.20511
2428.06265	0.20619
2426.13408	0.20718
2424.20552	0.20828
2422.27695	0.20941
2420.34839	0.21049
2418.41982	0.21163
2416.49126	0.21278
2414.56270	0.21390
2412.63413	0.21502
2410.70557	0.21609
2408.77700	0.21714
2406.84844	0.21837
2404.91987	0.21980
2402.99131	0.22113
2401.06274	0.22221
2399.13418	0.22325
2397.20562	0.22435
2395.27705	0.22555
2393.34849	0.22685
2391.41992	0.22824
2389.49136	0.22959
2387.56279	0.23089
2385.63423	0.23232
2383.70566	0.23386
2381.77710	0.23543
2379.84854	0.23714
2377.91997	0.23915
2375.99141	0.24145
2374.06284	0.24377
2372.13428	0.24589
2370.20571	0.24810
2368.27715	0.25049
2366.34858	0.25275
2364.42002	0.25495
2362.49146	0.25728
2360.56289	0.25959
2358.63433	0.26162
2356.70576	0.26255
2354.77720	0.26251
2352.84863	0.26324
2350.92007	0.26434
2348.99150	0.26492
2347.06294	0.26557
2345.13437	0.26718
2343.20581	0.26979
2341.27725	0.27221
2339.34868	0.27387
2337.42012	0.27480
2335.49155	0.27553
2333.56299	0.27684
2331.63442	0.27877
2329.70586	0.28048
2327.77729	0.28188
2325.84873	0.28354
2323.92017	0.28523
2321.99160	0.28651
2320.06304	0.28751
2318.13447	0.28859
2316.20591	0.28990
2314.27734	0.29136
2312.34878	0.29294
2310.42021	0.29448
2308.49165	0.29589
2306.56309	0.29737
2304.63452	0.29904
2302.70596	0.30076
2300.77739	0.30239
2298.84883	0.30399
2296.92026	0.30571
2294.99170	0.30751
2293.06313	0.30926
2291.13457	0.31099
2289.20601	0.31285
2287.27744	0.31482
2285.34888	0.31670
2283.42031	0.31852
2281.49175	0.32051
2279.56318	0.32269
2277.63462	0.32493
2275.70605	0.32709
2273.77749	0.32906
2271.84893	0.33101
2269.92036	0.33315
2267.99180	0.33531
2266.06323	0.33729
2264.13467	0.33917
2262.20610	0.34112
2260.27754	0.34327
2258.34897	0.34553
2256.42041	0.34764
2254.49185	0.34967
2252.56328	0.35181
2250.63472	0.35399
2248.70615	0.35607
2246.77759	0.35815
2244.84902	0.36043
2242.92046	0.36280
2240.99189	0.36495
2239.06333	0.36702
2237.13477	0.36922
2235.20620	0.37151
2233.27764	0.37375
2231.34907	0.37595
2229.42051	0.37817
2227.49194	0.38036
2225.56338	0.38250
2223.63481	0.38465
2221.70625	0.38694
2219.77769	0.38925
2217.84912	0.39136
2215.92056	0.39336
2213.99199	0.39542
2212.06343	0.39749
2210.13486	0.39964
2208.20630	0.40189
2206.27773	0.40407
2204.34917	0.40613
2202.42061	0.40817
2200.49204	0.41021
2198.56348	0.41232
2196.63491	0.41448
2194.70635	0.41644
2192.77778	0.41817
2190.84922	0.41987
2188.92065	0.42169
2186.99209	0.42362
2185.06353	0.42547
2183.13496	0.42710
2181.20640	0.42868
2179.27783	0.43035
2177.34927	0.43202
2175.42070	0.43352
2173.49214	0.43493
2171.56357	0.43637
2169.63501	0.43779
2167.70645	0.43914
2165.77788	0.44038
2163.84932	0.44159
2161.92075	0.44284
2159.99219	0.44406
2158.06362	0.44509
2156.13506	0.44597
2154.20649	0.44671
2152.27793	0.44741
2150.34937	0.44819
2148.42080	0.44890
2146.49224	0.44944
2144.56367	0.44990
2142.63511	0.45023
2140.70654	0.45050
2138.77798	0.45086
2136.84941	0.45117
2134.92085	0.45125
2132.99229	0.45107
2131.06372	0.45073
2129.13516	0.45046
2127.20659	0.45032
2125.27803	0.45007
2123.34946	0.44958
2121.42090	0.44898
2119.49233	0.44840
2117.56377	0.44782
2115.63521	0.44711
2113.70664	0.44627
2111.77808	0.44539
2109.84951	0.44448
2107.92095	0.44350
2105.99238	0.44244
2104.06382	0.44129
2102.13525	0.43994
2100.20669	0.43846
2098.27812	0.43703
2096.34956	0.43562
2094.42100	0.43403
2092.49243	0.43236
2090.56387	0.43070
2088.63530	0.42890
2086.70674	0.42705
2084.77817	0.42522
2082.84961	0.42328
2080.92104	0.42119
2078.99248	0.41906
2077.06392	0.41698
2075.13535	0.41495
2073.20679	0.41289
2071.27822	0.41060
2069.34966	0.40823
2067.42109	0.40591
2065.49253	0.40352
2063.56396	0.40110
2061.63540	0.39870
2059.70684	0.39622
2057.77827	0.39375
2055.84971	0.39118
2053.92114	0.38846
2051.99258	0.38593
2050.06401	0.38356
2048.13545	0.38111
2046.20688	0.37852
2044.27832	0.37583
2042.34976	0.37306
2040.42119	0.37030
2038.49263	0.36757
2036.56406	0.36476
2034.63550	0.36188
2032.70693	0.35901
2030.77837	0.35621
2028.84980	0.35342
2026.92124	0.35063
2024.99268	0.34782
2023.06411	0.34506
2021.13555	0.34236
2019.20698	0.33963
2017.27842	0.33684
2015.34985	0.33404
2013.42129	0.33132
2011.49272	0.32863
2009.56416	0.32592
2007.63560	0.32324
2005.70703	0.32063
2003.77847	0.31804
2001.84990	0.31546
1999.92134	0.31293
1997.99277	0.31044
1996.06421	0.30797
1994.13564	0.30544
1992.20708	0.30283
1990.27852	0.30021
1988.34995	0.29773
1986.42139	0.29538
1984.49282	0.29300
1982.56426	0.29058
1980.63569	0.28824
1978.70713	0.28598
1976.77856	0.28373
1974.85000	0.28158
1972.92144	0.27957
1970.99287	0.27756
1969.06431	0.27543
1967.13574	0.27329
1965.20718	0.27128
1963.27861	0.26934
1961.35005	0.26746
1959.42148	0.26564
1957.49292	0.26381
1955.56436	0.26194
1953.63579	0.26016
1951.70723	0.25854
1949.77866	0.25697
1947.85010	0.25537
1945.92153	0.25379
1943.99297	0.25230
1942.06440	0.25089
1940.13584	0.24955
1938.20728	0.24825
1936.27871	0.24690
1934.35015	0.24551
1932.42158	0.24423
1930.49302	0.24314
1928.56445	0.24209
1926.63589	0.24095
1924.70732	0.23985
1922.77876	0.23883
1920.85020	0.23782
1918.92163	0.23690
1916.99307	0.23610
1915.06450	0.23535
1913.13594	0.23455
1911.20737	0.23376
1909.27881	0.23301
1907.35024	0.23238
1905.42168	0.23185
1903.49312	0.23129
1901.56455	0.23071
1899.63599	0.23023
1897.70742	0.22988
1895.77886	0.22954
1893.85029	0.22919
1891.92173	0.22883
1889.99316	0.22854
1888.06460	0.22826
1886.13604	0.22804
1884.20747	0.22788
1882.27891	0.22772
1880.35034	0.22760
1878.42178	0.22752
1876.49321	0.22747
1874.56465	0.22741
1872.63608	0.22749
1870.70752	0.22763
1868.77896	0.22799
1866.85039	0.22842
1864.92183	0.22859
1862.99326	0.22873
1861.06470	0.22898
1859.13613	0.22928
1857.20757	0.22956
1855.27900	0.22998
1853.35044	0.23052
1851.42187	0.23108
1849.49331	0.23155
1847.56475	0.23213
1845.63618	0.23293
1843.70762	0.23397
1841.77905	0.23491
1839.85049	0.23546
1837.92192	0.23616
1835.99336	0.23710
1834.06479	0.23810
1832.13623	0.23900
1830.20767	0.24019
1828.27910	0.24170
1826.35054	0.24297
1824.42197	0.24423
1822.49341	0.24550
1820.56484	0.24678
1818.63628	0.24814
1816.70771	0.24974
1814.77915	0.25142
1812.85059	0.25318
1810.92202	0.25512
1808.99346	0.25716
1807.06489	0.25915
1805.13633	0.26100
1803.20776	0.26301
1801.27920	0.26537
1799.35063	0.26822
1797.42207	0.27088
1795.49351	0.27327
1793.56494	0.27589
1791.63638	0.27938
1789.70781	0.28308
1787.77925	0.28597
1785.85068	0.28910
1783.92212	0.29274
1781.99355	0.29666
1780.06499	0.30073
1778.13643	0.30490
1776.20786	0.30886
1774.27930	0.31299
1772.35073	0.31854
1770.42217	0.32496
1768.49360	0.33073
1766.56504	0.33615
1764.63647	0.34145
1762.70791	0.34709
1760.77935	0.35436
1758.85078	0.36143
1756.92222	0.36852
1754.99365	0.37629
1753.06509	0.38331
1751.13652	0.39136
1749.20796	0.40151
1747.27939	0.41191
1745.35083	0.42127
1743.42227	0.43101
1741.49370	0.44167
1739.56514	0.45435
1737.63657	0.46713
1735.70801	0.47787
1733.77944	0.49336
1731.85088	0.51274
1729.92231	0.52888
1727.99375	0.54507
1726.06519	0.56225
1724.13662	0.58066
1722.20806	0.60038
1720.27949	0.61865
1718.35093	0.63961
1716.42236	0.67016
1714.49380	0.70041
1712.56523	0.72606
1710.63667	0.75079
1708.70811	0.77677
1706.77954	0.80584
1704.85098	0.84039
1702.92241	0.87137
1700.99385	0.90204
1699.06528	0.94745
1697.13672	0.98963
1695.20815	1.03355
1693.27959	1.07751
1691.35103	1.11329
1689.42246	1.15326
1687.49390	1.19458
1685.56533	1.23430
1683.63677	1.29575
1681.70820	1.36128
1679.77964	1.40427
1677.85107	1.44414
1675.92251	1.48952
1673.99395	1.54614
1672.06538	1.59711
1670.13682	1.64621
1668.20825	1.70987
1666.27969	1.76381
1664.35112	1.81040
1662.42256	1.86838
1660.49399	1.93332
1658.56543	1.98370
1656.63687	2.02320
1654.70830	2.05688
1652.77974	2.10789
1650.85117	2.16353
1648.92261	2.18773
1646.99404	2.21259
1645.06548	2.23819
1643.13691	2.25535
1641.20835	2.26462
1639.27979	2.27143
1637.35122	2.27279
1635.42266	2.26821
1633.49409	2.26203
1631.56553	2.25110
1629.63696	2.23374
1627.70840	2.20401
1625.77983	2.16998
1623.85127	2.12728
1621.92271	2.07571
1619.99414	2.03200
1618.06558	1.99020
1616.13701	1.92848
1614.20845	1.86414
1612.27988	1.81558
1610.35132	1.76557
1608.42275	1.71079
1606.49419	1.65648
1604.56562	1.60671
1602.63706	1.55913
1600.70850	1.51273
1598.77993	1.46984
1596.85137	1.42945
1594.92280	1.39011
1592.99424	1.35210
1591.06567	1.31766
1589.13711	1.28594
1587.20854	1.25652
1585.27998	1.22948
1583.35142	1.20448
1581.42285	1.18167
1579.49429	1.16191
1577.56572	1.14389
1575.63716	1.12302
1573.70859	1.10564
1571.78003	1.09414
1569.85146	1.08192
1567.92290	1.06906
1565.99434	1.05997
1564.06577	1.05326
1562.13721	1.04794
1560.20864	1.04407
1558.28008	1.04175
1556.35151	1.04184
1554.42295	1.04167
1552.49438	1.04113
1550.56582	1.03910
1548.63726	1.03444
1546.70869	1.02772
1544.78013	1.01866
1542.85156	1.00637
1540.92300	0.98864
1538.99443	0.96374
1537.06587	0.94611
1535.13730	0.93358
1533.20874	0.91680
1531.28018	0.89893
1529.35161	0.88537
1527.42305	0.87201
1525.49448	0.85836
1523.56592	0.84698
1521.63735	0.83640
1519.70879	0.82638
1517.78022	0.81779
1515.85166	0.80742
1513.92310	0.79651
1511.99453	0.78700
1510.06597	0.77828
1508.13740	0.76954
1506.20884	0.75672
1504.28027	0.74591
1502.35171	0.73972
1500.42314	0.73404
1498.49458	0.72779
1496.56602	0.72063
1494.63745	0.71373
1492.70889	0.70823
1490.78032	0.70310
1488.85176	0.69743
1486.92319	0.69243
1484.99463	0.68841
1483.06606	0.68506
1481.13750	0.68223
1479.20894	0.68012
1477.28037	0.67874
1475.35181	0.67771
1473.42324	0.67683
1471.49468	0.67570
1469.56611	0.67405
1467.63755	0.67198
1465.70898	0.66973
1463.78042	0.66785
1461.85186	0.66700
1459.92329	0.66681
1457.99473	0.66644
1456.06616	0.66528
1454.13760	0.66347
1452.20903	0.66126
1450.28047	0.65876
1448.35190	0.65645
1446.42334	0.65420
1444.49478	0.65174
1442.56621	0.64909
1440.63765	0.64644
1438.70908	0.64391
1436.78052	0.64085
1434.85195	0.63749
1432.92339	0.63504
1430.99482	0.63340
1429.06626	0.63234
1427.13770	0.63193
1425.20913	0.63217
1423.28057	0.63280
1421.35200	0.63312
1419.42344	0.63295
1417.49487	0.63244
1415.56631	0.63161
1413.63774	0.63099
1411.70918	0.63080
1409.78062	0.63110
1407.85205	0.63192
1405.92349	0.63298
1403.99492	0.63373
1402.06636	0.63366
1400.13779	0.63279
1398.20923	0.63118
1396.28066	0.62899
1394.35210	0.62606
1392.42354	0.62261
1390.49497	0.61923
1388.56641	0.61560
1386.63784	0.61132
1384.70928	0.60695
1382.78071	0.60279
1380.85215	0.59878
1378.92358	0.59532
1376.99502	0.59268
1375.06646	0.59072
1373.13789	0.58918
1371.20933	0.58811
1369.28076	0.58729
1367.35220	0.58621
1365.42363	0.58473
1363.49507	0.58323
1361.56650	0.58195
1359.63794	0.58070
1357.70937	0.57953
1355.78081	0.57848
1353.85225	0.57751
1351.92368	0.57671
1349.99512	0.57604
1348.06655	0.57525
1346.13799	0.57433
1344.20942	0.57353
1342.28086	0.57283
1340.35229	0.57204
1338.42373	0.57124
1336.49517	0.57071
1334.56660	0.57042
1332.63804	0.57019
1330.70947	0.57008
1328.78091	0.57026
1326.85234	0.57073
1324.92378	0.57132
1322.99521	0.57189
1321.06665	0.57231
1319.13809	0.57251
1317.20952	0.57246
1315.28096	0.57227
1313.35239	0.57201
1311.42383	0.57153
1309.49526	0.57088
1307.56670	0.57029
1305.63813	0.56988
1303.70957	0.56947
1301.78101	0.56877
1299.85244	0.56789
1297.92388	0.56704
1295.99531	0.56600
1294.06675	0.56469
1292.13818	0.56335
1290.20962	0.56216
1288.28105	0.56112
1286.35249	0.56014
1284.42393	0.55915
1282.49536	0.55802
1280.56680	0.55684
1278.63823	0.55571
1276.70967	0.55455
1274.78110	0.55352
1272.85254	0.55276
1270.92397	0.55211
1268.99541	0.55143
1267.06685	0.55066
1265.13828	0.54985
1263.20972	0.54911
1261.28115	0.54845
1259.35259	0.54773
1257.42402	0.54695
1255.49546	0.54638
1253.56689	0.54618
1251.63833	0.54634
1249.70977	0.54658
1247.78120	0.54661
1245.85264	0.54632
1243.92407	0.54575
1241.99551	0.54506
1240.06694	0.54414
1238.13838	0.54276
1236.20981	0.54110
1234.28125	0.53942
1232.35269	0.53768
1230.42412	0.53577
1228.49556	0.53388
1226.56699	0.53219
1224.63843	0.53066
1222.70986	0.52924
1220.78130	0.52790
1218.85273	0.52663
1216.92417	0.52555
1214.99561	0.52465
1213.06704	0.52387
1211.13848	0.52314
1209.20991	0.52241
1207.28135	0.52164
1205.35278	0.52065
1203.42422	0.51945
1201.49565	0.51853
1199.56709	0.51803
1197.63853	0.51758
1195.70996	0.51700
1193.78140	0.51640
1191.85283	0.51588
1189.92427	0.51557
1187.99570	0.51545
1186.06714	0.51544
1184.13857	0.51551
1182.21001	0.51568
1180.28145	0.51621
1178.35288	0.51725
1176.42432	0.51846
1174.49575	0.51928
1172.56719	0.51958
1170.63862	0.51962
1168.71006	0.51957
1166.78149	0.51946
1164.85293	0.51926
1162.92437	0.51895
1160.99580	0.51846
1159.06724	0.51776
1157.13867	0.51684
1155.21011	0.51575
1153.28154	0.51447
1151.35298	0.51288
1149.42441	0.51101
1147.49585	0.50901
1145.56729	0.50690
1143.63872	0.50465
1141.71016	0.50229
1139.78159	0.50018
1137.85303	0.49860
1135.92446	0.49745
1133.99590	0.49655
1132.06733	0.49567
1130.13877	0.49485
1128.21021	0.49412
1126.28164	0.49328
1124.35308	0.49227
1122.42451	0.49135
1120.49595	0.49066
1118.56738	0.49011
1116.63882	0.48976
1114.71025	0.48951
1112.78169	0.48910
1110.85312	0.48874
1108.92456	0.48885
1106.99600	0.48959
1105.06743	0.49100
1103.13887	0.49276
1101.21030	0.49459
1099.28174	0.49661
1097.35317	0.49905
1095.42461	0.50198
1093.49604	0.50541
1091.56748	0.50936
1089.63892	0.51405
1087.71035	0.51971
1085.78179	0.52607
1083.85322	0.53263
1081.92466	0.53889
1079.99609	0.54421
1078.06753	0.54760
1076.13896	0.54827
1074.21040	0.54618
1072.28184	0.54191
1070.35327	0.53616
1068.42471	0.52938
1066.49614	0.52213
1064.56758	0.51540
1062.63901	0.50973
1060.71045	0.50477
1058.78188	0.50008
1056.85332	0.49572
1054.92476	0.49199
1052.99619	0.48888
1051.06763	0.48630
1049.13906	0.48422
1047.21050	0.48238
1045.28193	0.48077
1043.35337	0.47950
1041.42480	0.47822
1039.49624	0.47692
1037.56768	0.47595
1035.63911	0.47543
1033.71055	0.47514
1031.78198	0.47482
1029.85342	0.47445
1027.92485	0.47422
1025.99629	0.47423
1024.06772	0.47437
1022.13916	0.47463
1020.21060	0.47527
1018.28203	0.47625
1016.35347	0.47727
1014.42490	0.47826
1012.49634	0.47923
1010.56777	0.48032
1008.63921	0.48176
1006.71064	0.48332
1004.78208	0.48490
1002.85352	0.48692
1000.92495	0.48957
998.99639	0.49276
997.06782	0.49649
995.13926	0.50048
993.21069	0.50425
991.28213	0.50761
989.35356	0.51033
987.42500	0.51207
985.49644	0.51307
983.56787	0.51393
981.63931	0.51499
979.71074	0.51620
977.78218	0.51767
975.85361	0.51972
973.92505	0.52239
971.99648	0.52557
970.06792	0.52925
968.13936	0.53340
966.21079	0.53775
964.28223	0.54213
962.35366	0.54676
960.42510	0.55185
958.49653	0.55752
956.56797	0.56355
954.63940	0.56961
952.71084	0.57569
950.78228	0.58201
948.85371	0.58853
946.92515	0.59487
944.99658	0.60101
943.06802	0.60707
941.13945	0.61301
939.21089	0.61913
937.28232	0.62536
935.35376	0.63118
933.42520	0.63663
931.49663	0.64190
929.56807	0.64714
927.63950	0.65254
925.71094	0.65841
923.78237	0.66458
921.85381	0.67056
919.92524	0.67691
917.99668	0.68410
916.06812	0.69152
914.13955	0.69937
912.21099	0.70777
910.28242	0.71566
908.35386	0.72288
906.42529	0.73082
904.49673	0.74018
902.56816	0.74984
900.63960	0.75813
898.71104	0.76542
896.78247	0.77384
894.85391	0.78410
892.92534	0.79516
890.99678	0.80643
889.06821	0.81790
887.13965	0.82950
885.21108	0.84135
883.28252	0.85257
881.35396	0.86262
879.42539	0.87270
877.49683	0.88382
875.56826	0.89619
873.63970	0.90846
871.71113	0.91949
869.78257	0.93040
867.85400	0.94187
865.92544	0.95377
863.99687	0.96541
862.06831	0.97678
860.13975	0.98945
858.21118	1.00265
856.28262	1.01265
854.35405	1.01956
852.42549	1.02794
850.49692	1.03944
848.56836	1.05230
846.63979	1.06519
844.71123	1.07667
842.78267	1.08620
840.85410	1.09564
838.92554	1.10614
836.99697	1.11730
835.06841	1.12912
833.13984	1.14131
831.21128	1.15054
829.28271	1.15504
827.35415	1.15903
825.42559	1.16650
823.49702	1.17766
821.56846	1.18341
819.63989	1.18031
817.71133	1.18517
815.78276	1.20462
813.85420	1.22780
811.92563	1.24900
809.99707	1.26230
808.06851	1.25706
806.13994	1.23657
804.21138	1.21633
802.28281	1.20986
800.35425	1.21574
798.42568	1.22466
796.49712	1.22704
794.56855	1.21157
792.63999	1.19070
790.71143	1.18923
788.78286	1.20059
786.85430	1.20868
784.92573	1.22230
782.99717	1.21108
781.06860	1.16046
779.14004	1.12673
777.21147	1.11762
775.28291	1.11679
773.35435	1.12570
771.42578	1.11702
769.49722	1.07638
767.56865	1.03880
765.64009	1.02420
763.71152	1.02294
761.78296	0.99124
759.85439	0.92817
757.92583	0.88809
755.99727	0.88398
754.06870	0.90378
752.14014	0.92426
750.21157	0.89895
748.28301	0.84141
746.35444	0.80940
744.42588	0.80130
742.49731	0.79461
740.56875	0.76147
738.64019	0.67957
736.71162	0.59914
734.78306	0.53343
732.85449	0.44431
730.92593	0.35226
728.99736	0.28854
727.06880	0.23752
725.14023	0.18127
723.21167	0.13556
721.28311	0.10373
719.35454	0.05052
717.42598	-0.02189
715.49741	-0.09190
713.56885	-0.21612
711.64028	-0.40235
709.71172	-0.46295
707.78315	-0.30483
705.85459	-0.14928
703.92603	-0.09863
701.99746	-0.17326
700.06890	-0.26774
698.14033	-0.24463
696.21177	-0.13120
694.28320	-0.06606
692.35464	-0.07941
690.42607	-0.09997
688.49751	-0.09898
686.56895	-0.09995
684.64038	-0.07073
682.71182	-0.03469
680.78325	-0.08932
678.85469	-0.15791
676.92612	-0.11447
674.99756	-0.02646
673.06899	-0.00286
671.14043	-0.07660
669.21187	-0.15426
667.28330	-0.14822
665.35474	-0.14881
663.42617	-0.16502
661.49761	-0.12515
659.56904	-0.04314
657.64048	0.02900
655.71191	0.03418
653.78335	-0.04777
651.85479	-0.15891
649.92622	-0.21417
647.99766	-0.17225
646.06909	-0.14171
644.14053	-0.14468
642.21196	-0.11855
640.28340	-0.07040
638.35483	-0.10220
636.42627	-0.18195
634.49771	-0.15440
632.56914	-0.07412
630.64058	-0.08019
628.71201	-0.09984
626.78345	-0.04946
624.85488	-0.03266
622.92632	-0.07116
620.99775	-0.04410
619.06919	0.04794
617.14062	0.08593
615.21206	0.03389
613.28350	-0.01743
611.35493	-0.03288
609.42637	-0.04748
607.49780	-0.06140
605.56924	-0.03318
603.64067	0.01283
601.71211	0.01557
599.78354	0.01673
597.85498	0.05003
595.92642	0.00949
593.99785	-0.09823
592.06929	-0.11522
590.14072	-0.03393
588.21216	-0.00755
586.28359	-0.06342
584.35503	-0.10609
582.42646	-0.08244
580.49790	-0.03216
578.56934	0.01407
576.64077	0.02222
574.71221	-0.04002
572.78364	-0.10529
570.85508	-0.11417
568.92651	-0.09133
566.99795	-0.06627
565.06938	-0.06340
563.14082	-0.06076
561.21226	-0.02666
559.28369	-0.02006
557.35513	-0.05971
555.42656	-0.07722
553.49800	-0.06017
551.56943	-0.04905
549.64087	-0.02324
547.71230	-0.00663
545.78374	-0.02313
543.85518	-0.01986
541.92661	0.01754
539.99805	0.02740
538.06948	-0.00519
536.14092	-0.02201
534.21235	-0.02144
532.28379	-0.03158
530.35522	-0.05345
528.42666	-0.07160
526.49810	-0.06344
524.56953	-0.04476
522.64097	-0.03703
520.71240	-0.01964
518.78384	0.00036
516.85527	0.01472
514.92671	0.01740
512.99814	-0.00401
511.06958	-0.04391
509.14102	-0.07108
507.21245	-0.06878
505.28389	-0.04825
503.35532	-0.02308
501.42676	-0.01975
499.49819	-0.03065
