3997.91411	0.06217
3995.98555	0.06265
3994.05698	0.06311
3992.12842	0.06365
3990.19985	0.06374
3988.27129	0.06350
3986.34272	0.06340
3984.41416	0.06337
3982.48560	0.06345
3980.55703	0.06406
3978.62847	0.06500
3976.69990	0.06557
3974.77134	0.06553
3972.84277	0.06525
3970.91421	0.06524
3968.98564	0.06545
3967.05708	0.06555
3965.12852	0.06547
3963.19995	0.06528
3961.27139	0.06508
3959.34282	0.06523
3957.41426	0.06593
3955.48569	0.06668
3953.55713	0.06703
3951.62856	0.06724
3949.70000	0.06763
3947.77144	0.06775
3945.84287	0.06745
3943.91431	0.06737
3941.98574	0.06746
3940.05718	0.06740
3938.12861	0.06737
3936.20005	0.06706
3934.27148	0.06641
3932.34292	0.06625
3930.41436	0.06680
3928.48579	0.06715
3926.55723	0.06700
3924.62866	0.06715
3922.70010	0.06761
3920.77153	0.06742
3918.84297	0.06674
3916.91440	0.06632
3914.98584	0.06587
3913.05728	0.06528
3911.12871	0.06521
3909.20015	0.06573
3907.27158	0.06643
3905.34302	0.06744
3903.41445	0.06885
3901.48589	0.06968
3899.55732	0.06936
3897.62876	0.06813
3895.70020	0.06667
3893.77163	0.06608
3891.84307	0.06661
3889.91450	0.06683
3887.98594	0.06612
3886.05737	0.06626
3884.12881	0.06735
3882.20024	0.06781
3880.27168	0.06801
3878.34312	0.06802
3876.41455	0.06786
3874.48599	0.06861
3872.55742	0.06963
3870.62886	0.06987
3868.70029	0.06998
3866.77173	0.07021
3864.84316	0.07069
3862.91460	0.07126
3860.98604	0.07078
3859.05747	0.06996
3857.12891	0.07018
3855.20034	0.07152
3853.27178	0.07386
3851.34321	0.07500
3849.41465	0.07336
3847.48608	0.07208
3845.55752	0.07215
3843.62896	0.07323
3841.70039	0.07508
3839.77183	0.07708
3837.84326	0.07843
3835.91470	0.07848
3833.98613	0.07792
3832.05757	0.07775
3830.12900	0.07785
3828.20044	0.07801
3826.27187	0.07868
3824.34331	0.07983
3822.41475	0.08124
3820.48618	0.08305
3818.55762	0.08392
3816.62905	0.08394
3814.70049	0.08418
3812.77192	0.08406
3810.84336	0.08406
3808.91479	0.08532
3806.98623	0.08783
3805.05767	0.08994
3803.12910	0.09124
3801.20054	0.09323
3799.27197	0.09459
3797.34341	0.09428
3795.41484	0.09417
3793.48628	0.09447
3791.55771	0.09496
3789.62915	0.09588
3787.70059	0.09716
3785.77202	0.09902
3783.84346	0.10130
3781.91489	0.10319
3779.98633	0.10498
3778.05776	0.10684
3776.12920	0.10777
3774.20063	0.10847
3772.27207	0.11005
3770.34351	0.11237
3768.41494	0.11473
3766.48638	0.11656
3764.55781	0.11843
3762.62925	0.12035
3760.70068	0.12226
3758.77212	0.12465
3756.84355	0.12709
3754.91499	0.12955
3752.98643	0.13305
3751.05786	0.13784
3749.12930	0.14193
3747.20073	0.14334
3745.27217	0.14435
3743.34360	0.14688
3741.41504	0.14970
3739.48647	0.15202
3737.55791	0.15499
3735.62935	0.15967
3733.70078	0.16568
3731.77222	0.17031
3729.84365	0.17293
3727.91509	0.17554
3725.98652	0.18019
3724.05796	0.18676
3722.12939	0.19373
3720.20083	0.20094
3718.27227	0.20847
3716.34370	0.21618
3714.41514	0.22409
3712.48657	0.23377
3710.55801	0.24656
3708.62944	0.25894
3706.70088	0.26916
3704.77231	0.27979
3702.84375	0.29256
3700.91519	0.30898
3698.98662	0.32696
3697.05806	0.34425
3695.12949	0.36282
3693.20093	0.38273
3691.27236	0.40464
3689.34380	0.43285
3687.41523	0.46620
3685.48667	0.49507
3683.55811	0.52066
3681.62954	0.54873
3679.70098	0.58044
3677.77241	0.61352
3675.84385	0.65197
3673.91528	0.70312
3671.98672	0.74638
3670.05815	0.78518
3668.12959	0.83599
3666.20103	0.88242
3664.27246	0.92237
3662.34390	0.96553
3660.41533	1.01192
3658.48677	1.05742
3656.55820	1.10566
3654.62964	1.15967
3652.70107	1.20568
3650.77251	1.24544
3648.84395	1.29907
3646.91538	1.36523
3644.98682	1.41534
3643.05825	1.45385
3641.12969	1.49286
3639.20112	1.53614
3637.27256	1.58049
3635.34399	1.62383
3633.41543	1.66641
3631.48687	1.70590
3629.55830	1.74552
3627.62974	1.79574
3625.70117	1.84408
3623.77261	1.87959
3621.84404	1.91358
3619.91548	1.95137
3617.98691	1.99633
3616.05835	2.03941
3614.12979	2.07558
3612.20122	2.11417
3610.27266	2.15358
3608.34409	2.19291
3606.41553	2.23434
3604.48696	2.27287
3602.55840	2.30805
3600.62983	2.34682
3598.70127	2.38782
3596.77271	2.42620
3594.84414	2.46499
3592.91558	2.50610
3590.98701	2.54608
3589.05845	2.58425
3587.12988	2.62898
3585.20132	2.67711
3583.27275	2.71806
3581.34419	2.75570
3579.41562	2.79493
3577.48706	2.83626
3575.55850	2.87895
3573.62993	2.92334
3571.70137	2.96705
3569.77280	3.00793
3567.84424	3.04904
3565.91567	3.09872
3563.98711	3.14926
3562.05854	3.19262
3560.12998	3.23504
3558.20142	3.27837
3556.27285	3.32360
3554.34429	3.36996
3552.41572	3.41558
3550.48716	3.45822
3548.55859	3.49994
3546.63003	3.54567
3544.70146	3.59564
3542.77290	3.64505
3540.84434	3.69185
3538.91577	3.73762
3536.98721	3.78376
3535.05864	3.83246
3533.13008	3.88260
3531.20151	3.93299
3529.27295	3.98274
3527.34438	4.03119
3525.41582	4.07769
3523.48726	4.12427
3521.55869	4.17347
3519.63013	4.22174
3517.70156	4.27051
3515.77300	4.32304
3513.84443	4.37327
3511.91587	4.41625
3509.98730	4.45973
3508.05874	4.50685
3506.13018	4.54933
3504.20161	4.59014
3502.27305	4.64146
3500.34448	4.69926
3498.41592	4.74939
3496.48735	4.79210
3494.55879	4.83588
3492.63022	4.88678
3490.70166	4.94140
3488.77310	4.99237
3486.84453	5.03895
3484.91597	5.08072
3482.98740	5.11633
3481.05884	5.15836
3479.13027	5.21357
3477.20171	5.26459
3475.27314	5.30643
3473.34458	5.35278
3471.41602	5.40703
3469.48745	5.46137
3467.55889	5.51160
3465.63032	5.56065
3463.70176	5.60947
3461.77319	5.65474
3459.84463	5.70001
3457.91606	5.74507
3455.98750	5.78999
3454.05894	5.83698
3452.13037	5.87973
3450.20181	5.92311
3448.27324	5.97870
3446.34468	6.03575
3444.41611	6.07193
3442.48755	6.10457
3440.55898	6.15445
3438.63042	6.20305
3436.70186	6.23294
3434.77329	6.26183
3432.84473	6.31517
3430.91616	6.39108
3428.98760	6.46147
3427.05903	6.50904
3425.13047	6.56377
3423.20190	6.63371
3421.27334	6.69075
3419.34478	6.72818
3417.41621	6.76750
3415.48765	6.82046
3413.55908	6.88570
3411.63052	6.94542
3409.70195	6.95822
3407.77339	6.95885
3405.84482	6.99463
3403.91626	7.04765
3401.98770	7.08832
3400.05913	7.13626
3398.13057	7.20907
3396.20200	7.26156
3394.27344	7.27947
3392.34487	7.27855
3390.41631	7.29435
3388.48774	7.35334
3386.55918	7.41536
3384.63062	7.44187
3382.70205	7.46130
3380.77349	7.47744
3378.84492	7.47628
3376.91636	7.48039
3374.98779	7.49941
3373.05923	7.51883
3371.13066	7.50501
3369.20210	7.50698
3367.27354	7.55430
3365.34497	7.62544
3363.41641	7.71374
3361.48784	7.74451
3359.55928	7.69897
3357.63071	7.69805
3355.70215	7.79306
3353.77358	7.83135
3351.84502	7.75419
3349.91646	7.71419
3347.98789	7.77357
3346.05933	7.84236
3344.13076	7.87094
3342.20220	7.86767
3340.27363	7.79620
3338.34507	7.72248
3336.41650	7.72943
3334.48794	7.82273
3332.55937	7.93309
3330.63081	7.98573
3328.70225	7.94984
3326.77368	7.86488
3324.84512	7.82926
3322.91655	7.86011
3320.98799	7.89704
3319.05942	7.88572
3317.13086	7.86604
3315.20229	7.88039
3313.27373	7.95077
3311.34517	8.03472
3309.41660	8.04241
3307.48804	8.00692
3305.55947	7.96983
3303.63091	7.94894
3301.70234	7.96848
3299.77378	8.01042
3297.84521	8.01802
3295.91665	8.00849
3293.98809	7.96749
3292.05952	7.87666
3290.13096	7.85965
3288.20239	7.92923
3286.27383	7.96028
3284.34526	7.93462
3282.41670	7.91432
3280.48813	7.87932
3278.55957	7.82903
3276.63101	7.79993
3274.70244	7.80110
3272.77388	7.82288
3270.84531	7.85149
3268.91675	7.91252
3266.98818	7.97101
3265.05962	7.94859
3263.13105	7.91282
3261.20249	7.94871
3259.27393	7.95999
3257.34536	7.92084
3255.41680	7.96357
3253.48823	8.04796
3251.55967	8.03012
3249.63110	7.97402
3247.70254	7.99301
3245.77397	8.07702
3243.84541	8.11522
3241.91685	7.97398
3239.98828	7.81496
3238.05972	7.79295
3236.13115	7.82190
3234.20259	7.81136
3232.27402	7.75776
3230.34546	7.74174
3228.41689	7.77481
3226.48833	7.81282
3224.55977	7.89836
3222.63120	7.95780
3220.70264	7.90120
3218.77407	7.82694
3216.84551	7.74432
3214.91694	7.62804
3212.98838	7.60976
3211.05981	7.74696
3209.13125	7.87020
3207.20269	7.84929
3205.27412	7.78576
3203.34556	7.72087
3201.41699	7.62622
3199.48843	7.52340
3197.55986	7.41798
3195.63130	7.37837
3193.70273	7.45037
3191.77417	7.50630
3189.84561	7.47341
3187.91704	7.42507
3185.98848	7.38795
3184.05991	7.32869
3182.13135	7.23717
3180.20278	7.14903
3178.27422	7.07272
3176.34565	7.02304
3174.41709	7.01813
3172.48853	7.01106
3170.55996	6.95438
3168.63140	6.85532
3166.70283	6.75128
3164.77427	6.68628
3162.84570	6.67086
3160.91714	6.67913
3158.98857	6.66160
3157.06001	6.58346
3155.13145	6.49298
3153.20288	6.42697
3151.27432	6.35551
3149.34575	6.27832
3147.41719	6.22191
3145.48862	6.17069
3143.56006	6.10134
3141.63149	6.02040
3139.70293	5.93549
3137.77437	5.86188
3135.84580	5.80977
3133.91724	5.76091
3131.98867	5.69879
3130.06011	5.62706
3128.13154	5.55315
3126.20298	5.48524
3124.27441	5.42558
3122.34585	5.35914
3120.41729	5.28588
3118.48872	5.21829
3116.56016	5.15106
3114.63159	5.07823
3112.70303	5.00358
3110.77446	4.93101
3108.84590	4.85903
3106.91733	4.78577
3104.98877	4.71654
3103.06021	4.65270
3101.13164	4.58820
3099.20308	4.52313
3097.27451	4.45987
3095.34595	4.39644
3093.41738	4.33195
3091.48882	4.26781
3089.56025	4.20549
3087.63169	4.14562
3085.70312	4.08557
3083.77456	4.02267
3081.84600	3.96010
3079.91743	3.89890
3077.98887	3.83684
3076.06030	3.77575
3074.13174	3.71667
3072.20317	3.65829
3070.27461	3.60177
3068.34604	3.54774
3066.41748	3.49342
3064.48892	3.43761
3062.56035	3.38117
3060.63179	3.32503
3058.70322	3.27052
3056.77466	3.21700
3054.84609	3.16280
3052.91753	3.10933
3050.98896	3.05886
3049.06040	3.00998
3047.13184	2.96014
3045.20327	2.90948
3043.27471	2.85977
3041.34614	2.81165
3039.41758	2.76459
3037.48901	2.71795
3035.56045	2.67145
3033.63188	2.62560
3031.70332	2.58028
3029.77476	2.53541
3027.84619	2.49205
3025.91763	2.44979
3023.98906	2.40711
3022.06050	2.36444
3020.13193	2.32284
3018.20337	2.28180
3016.27480	2.24061
3014.34624	2.20014
3012.41768	2.16140
3010.48911	2.12370
3008.56055	2.08667
3006.63198	2.05069
3004.70342	2.01531
3002.77485	1.98007
3000.84629	1.94559
2998.91772	1.91183
2996.98916	1.87865
2995.06060	1.84683
2993.13203	1.81570
2991.20347	1.78438
2989.27490	1.75398
2987.34634	1.72491
2985.41777	1.69634
2983.48921	1.66820
2981.56064	1.64066
2979.63208	1.61386
2977.70352	1.58787
2975.77495	1.56212
2973.84639	1.53648
2971.91782	1.51156
2969.98926	1.48728
2968.06069	1.46331
2966.13213	1.43984
2964.20356	1.41681
2962.27500	1.39338
2960.34644	1.36907
2958.41787	1.34474
2956.48931	1.32126
2954.56074	1.29831
2952.63218	1.27518
2950.70361	1.25184
2948.77505	1.22858
2946.84648	1.20573
2944.91792	1.18392
2942.98936	1.16342
2941.06079	1.14379
2939.13223	1.12396
2937.20366	1.10358
2935.27510	1.08374
2933.34653	1.06450
2931.41797	1.04514
2929.48940	1.02596
2927.56084	1.00684
2925.63228	0.98758
2923.70371	0.96901
2921.77515	0.95126
2919.84658	0.93397
2917.91802	0.91689
2915.98945	0.89975
2914.06089	0.88288
2912.13232	0.86664
2910.20376	0.85073
2908.27520	0.83484
2906.34663	0.81953
2904.41807	0.80519
2902.48950	0.79120
2900.56094	0.77711
2898.63237	0.76328
2896.70381	0.75009
2894.77524	0.73711
2892.84668	0.72422
2890.91812	0.71204
2888.98955	0.70055
2887.06099	0.68956
2885.13242	0.67930
2883.20386	0.66958
2881.27529	0.66007
2879.34673	0.65048
2877.41816	0.64062
2875.48960	0.63065
2873.56104	0.62058
2871.63247	0.61017
2869.70391	0.59932
2867.77534	0.58808
2865.84678	0.57664
2863.91821	0.56541
2861.98965	0.55463
2860.06108	0.54414
2858.13252	0.53376
2856.20396	0.52375
2854.27539	0.51431
2852.34683	0.50532
2850.41826	0.49662
2848.48970	0.48810
2846.56113	0.47996
2844.63257	0.47236
2842.70400	0.46512
2840.77544	0.45827
2838.84687	0.45193
2836.91831	0.44583
2834.98975	0.43977
2833.06118	0.43384
2831.13262	0.42790
2829.20405	0.42185
2827.27549	0.41582
2825.34692	0.40988
2823.41836	0.40406
2821.48979	0.39837
2819.56123	0.39257
2817.63267	0.38671
2815.70410	0.38107
2813.77554	0.37575
2811.84697	0.37056
2809.91841	0.36525
2807.98984	0.35993
2806.06128	0.35483
2804.13271	0.34979
2802.20415	0.34473
2800.27559	0.33981
2798.34702	0.33494
2796.41846	0.32997
2794.48989	0.32511
2792.56133	0.32054
2790.63276	0.31609
2788.70420	0.31171
2786.77563	0.30743
2784.84707	0.30322
2782.91851	0.29904
2780.98994	0.29498
2779.06138	0.29092
2777.13281	0.28692
2775.20425	0.28321
2773.27568	0.27962
2771.34712	0.27604
2769.41855	0.27237
2767.48999	0.26844
2765.56143	0.26467
2763.63286	0.26144
2761.70430	0.25839
2759.77573	0.25519
2757.84717	0.25193
2755.91860	0.24889
2753.99004	0.24612
2752.06147	0.24334
2750.13291	0.24041
2748.20435	0.23753
2746.27578	0.23479
2744.34722	0.23201
2742.41865	0.22907
2740.49009	0.22612
2738.56152	0.22343
2736.63296	0.22092
2734.70439	0.21842
2732.77583	0.21593
2730.84727	0.21358
2728.91870	0.21146
2726.99014	0.20940
2725.06157	0.20736
2723.13301	0.20547
2721.20444	0.20359
2719.27588	0.20155
2717.34731	0.19937
2715.41875	0.19722
2713.49019	0.19531
2711.56162	0.19352
2709.63306	0.19172
2707.70449	0.18998
2705.77593	0.18824
2703.84736	0.18653
2701.91880	0.18511
2699.99023	0.18397
2698.06167	0.18272
2696.13311	0.18121
2694.20454	0.17975
2692.27598	0.17850
2690.34741	0.17725
2688.41885	0.17586
2686.49028	0.17449
2684.56172	0.17325
2682.63315	0.17216
2680.70459	0.17104
2678.77603	0.16987
2676.84746	0.16880
2674.91890	0.16786
2672.99033	0.16692
2671.06177	0.16589
2669.13320	0.16481
2667.20464	0.16372
2665.27607	0.16273
2663.34751	0.16186
2661.41895	0.16103
2659.49038	0.16030
2657.56182	0.15964
2655.63325	0.15890
2653.70469	0.15820
2651.77612	0.15754
2649.84756	0.15677
2647.91899	0.15615
2645.99043	0.15578
2644.06187	0.15525
2642.13330	0.15442
2640.20474	0.15369
2638.27617	0.15320
2636.34761	0.15268
2634.41904	0.15219
2632.49048	0.15197
2630.56191	0.15187
2628.63335	0.15173
2626.70479	0.15144
2624.77622	0.15104
2622.84766	0.15066
2620.91909	0.15029
2618.99053	0.15001
2617.06196	0.14984
2615.13340	0.14978
2613.20483	0.14974
2611.27627	0.14952
2609.34771	0.14927
2607.41914	0.14913
2605.49058	0.14896
2603.56201	0.14874
2601.63345	0.14868
2599.70488	0.14880
2597.77632	0.14881
2595.84775	0.14876
2593.91919	0.14881
2591.99062	0.14890
2590.06206	0.14900
2588.13350	0.14916
2586.20493	0.14931
2584.27637	0.14955
2582.34780	0.14991
2580.41924	0.15019
2578.49067	0.15039
2576.56211	0.15061
2574.63354	0.15078
2572.70498	0.15098
2570.77642	0.15134
2568.84785	0.15180
2566.91929	0.15220
2564.99072	0.15255
2563.06216	0.15294
2561.13359	0.15330
2559.20503	0.15361
2557.27646	0.15403
2555.34790	0.15462
2553.41934	0.15528
2551.49077	0.15591
2549.56221	0.15646
2547.63364	0.15702
2545.70508	0.15757
2543.77651	0.15799
2541.84795	0.15836
2539.91938	0.15883
2537.99082	0.15944
2536.06226	0.16016
2534.13369	0.16090
2532.20513	0.16153
2530.27656	0.16204
2528.34800	0.16264
2526.41943	0.16336
2524.49087	0.16410
2522.56230	0.16484
2520.63374	0.16564
2518.70518	0.16641
2516.77661	0.16712
2514.84805	0.16784
2512.91948	0.16864
2510.99092	0.16945
2509.06235	0.17013
2507.13379	0.17088
2505.20522	0.17178
2503.27666	0.17258
2501.34810	0.17325
2499.41953	0.17397
2497.49097	0.17471
2495.56240	0.17557
2493.63384	0.17657
2491.70527	0.17741
2489.77671	0.17816
2487.84814	0.17909
2485.91958	0.18007
2483.99102	0.18092
2482.06245	0.18173
2480.13389	0.18259
2478.20532	0.18348
2476.27676	0.18436
2474.34819	0.18512
2472.41963	0.18580
2470.49106	0.18658
2468.56250	0.18748
2466.63394	0.18837
2464.70537	0.18921
2462.77681	0.19015
2460.84824	0.19125
2458.91968	0.19235
2456.99111	0.19331
2455.06255	0.19424
2453.13398	0.19516
2451.20542	0.19604
2449.27686	0.19693
2447.34829	0.19784
2445.41973	0.19874
2443.49116	0.19969
2441.56260	0.20070
2439.63403	0.20176
2437.70547	0.20280
2435.77690	0.20384
2433.84834	0.20495
2431.91978	0.20615
2429.99121	0.20734
2428.06265	0.20836
2426.13408	0.20920
2424.20552	0.21012
2422.27695	0.21125
2420.34839	0.21242
2418.41982	0.21354
2416.49126	0.21467
2414.56270	0.21579
2412.63413	0.21686
2410.70557	0.21794
2408.77700	0.21902
2406.84844	0.22018
2404.91987	0.22147
2402.99131	0.22273
2401.06274	0.22393
2399.13418	0.22521
2397.20562	0.22658
2395.27705	0.22782
2393.34849	0.22893
2391.41992	0.23008
2389.49136	0.23117
2387.56279	0.23209
2385.63423	0.23267
2383.70566	0.23278
2381.77710	0.23257
2379.84854	0.23211
2377.91997	0.23116
2375.99141	0.22978
2374.06284	0.22844
2372.13428	0.22710
2370.20571	0.22522
2368.27715	0.22301
2366.34858	0.22119
2364.42002	0.21987
2362.49146	0.21860
2360.56289	0.21732
2358.63433	0.21780
2356.70576	0.22202
2354.77720	0.22890
2352.84863	0.23582
2350.92007	0.24123
2348.99150	0.24445
2347.06294	0.24513
2345.13437	0.24343
2343.20581	0.24133
2341.27725	0.24150
2339.34868	0.24350
2337.42012	0.24616
2335.49155	0.24889
2333.56299	0.25131
2331.63442	0.25373
2329.70586	0.25618
2327.77729	0.25850
2325.84873	0.26083
2323.92017	0.26357
2321.99160	0.26700
2320.06304	0.27075
2318.13447	0.27432
2316.20591	0.27737
2314.27734	0.27993
2312.34878	0.28243
2310.42021	0.28520
2308.49165	0.28796
2306.56309	0.29062
2304.63452	0.29337
2302.70596	0.29602
2300.77739	0.29834
2298.84883	0.30040
2296.92026	0.30254
2294.99170	0.30500
2293.06313	0.30764
2291.13457	0.31015
2289.20601	0.31248
2287.27744	0.31468
2285.34888	0.31685
2283.42031	0.31914
2281.49175	0.32140
2279.56318	0.32338
2277.63462	0.32512
2275.70605	0.32691
2273.77749	0.32890
2271.84893	0.33094
2269.92036	0.33297
2267.99180	0.33507
2266.06323	0.33720
2264.13467	0.33931
2262.20610	0.34152
2260.27754	0.34378
2258.34897	0.34601
2256.42041	0.34815
2254.49185	0.35024
2252.56328	0.35237
2250.63472	0.35455
2248.70615	0.35676
2246.77759	0.35898
2244.84902	0.36128
2242.92046	0.36366
2240.99189	0.36598
2239.06333	0.36823
2237.13477	0.37044
2235.20620	0.37257
2233.27764	0.37468
2231.34907	0.37692
2229.42051	0.37935
2227.49194	0.38180
2225.56338	0.38406
2223.63481	0.38619
2221.70625	0.38823
2219.77769	0.39034
2217.84912	0.39253
2215.92056	0.39472
2213.99199	0.39693
2212.06343	0.39914
2210.13486	0.40123
2208.20630	0.40326
2206.27773	0.40531
2204.34917	0.40733
2202.42061	0.40935
2200.49204	0.41137
2198.56348	0.41336
2196.63491	0.41534
2194.70635	0.41727
2192.77778	0.41923
2190.84922	0.42127
2188.92065	0.42318
2186.99209	0.42490
2185.06353	0.42661
2183.13496	0.42835
2181.20640	0.43005
2179.27783	0.43164
2177.34927	0.43315
2175.42070	0.43464
2173.49214	0.43606
2171.56357	0.43735
2169.63501	0.43864
2167.70645	0.44001
2165.77788	0.44141
2163.84932	0.44268
2161.92075	0.44365
2159.99219	0.44450
2158.06362	0.44555
2156.13506	0.44685
2154.20649	0.44805
2152.27793	0.44886
2150.34937	0.44941
2148.42080	0.44994
2146.49224	0.45042
2144.56367	0.45076
2142.63511	0.45107
2140.70654	0.45141
2138.77798	0.45172
2136.84941	0.45192
2134.92085	0.45200
2132.99229	0.45198
2131.06372	0.45186
2129.13516	0.45169
2127.20659	0.45146
2125.27803	0.45119
2123.34946	0.45088
2121.42090	0.45039
2119.49233	0.44968
2117.56377	0.44895
2115.63521	0.44823
2113.70664	0.44741
2111.77808	0.44644
2109.84951	0.44547
2107.92095	0.44454
2105.99238	0.44344
2104.06382	0.44206
2102.13525	0.44053
2100.20669	0.43906
2098.27812	0.43765
2096.34956	0.43623
2094.42100	0.43472
2092.49243	0.43308
2090.56387	0.43141
2088.63530	0.42970
2086.70674	0.42789
2084.77817	0.42594
2082.84961	0.42393
2080.92104	0.42197
2078.99248	0.42002
2077.06392	0.41798
2075.13535	0.41583
2073.20679	0.41359
2071.27822	0.41124
2069.34966	0.40886
2067.42109	0.40657
2065.49253	0.40430
2063.56396	0.40197
2061.63540	0.39961
2059.70684	0.39714
2057.77827	0.39457
2055.84971	0.39193
2053.92114	0.38922
2051.99258	0.38661
2050.06401	0.38412
2048.13545	0.38161
2046.20688	0.37905
2044.27832	0.37643
2042.34976	0.37366
2040.42119	0.37079
2038.49263	0.36796
2036.56406	0.36523
2034.63550	0.36248
2032.70693	0.35969
2030.77837	0.35690
2028.84980	0.35411
2026.92124	0.35138
2024.99268	0.34870
2023.06411	0.34598
2021.13555	0.34324
2019.20698	0.34054
2017.27842	0.33784
2015.34985	0.33496
2013.42129	0.33206
2011.49272	0.32931
2009.56416	0.32664
2007.63560	0.32393
2005.70703	0.32119
2003.77847	0.31847
2001.84990	0.31587
1999.92134	0.31340
1997.99277	0.31096
1996.06421	0.30844
1994.13564	0.30591
1992.20708	0.30345
1990.27852	0.30093
1988.34995	0.29833
1986.42139	0.29573
1984.49282	0.29325
1982.56426	0.29091
1980.63569	0.28862
1978.70713	0.28643
1976.77856	0.28428
1974.85000	0.28209
1972.92144	0.27990
1970.99287	0.27779
1969.06431	0.27582
1967.13574	0.27391
1965.20718	0.27185
1963.27861	0.26980
1961.35005	0.26791
1959.42148	0.26606
1957.49292	0.26431
1955.56436	0.26269
1953.63579	0.26102
1951.70723	0.25927
1949.77866	0.25760
1947.85010	0.25603
1945.92153	0.25452
1943.99297	0.25308
1942.06440	0.25162
1940.13584	0.25005
1938.20728	0.24857
1936.27871	0.24729
1934.35015	0.24605
1932.42158	0.24475
1930.49302	0.24345
1928.56445	0.24227
1926.63589	0.24123
1924.70732	0.24035
1922.77876	0.23956
1920.85020	0.23876
1918.92163	0.23796
1916.99307	0.23701
1915.06450	0.23593
1913.13594	0.23503
1911.20737	0.23445
1909.27881	0.23388
1907.35024	0.23311
1905.42168	0.23240
1903.49312	0.23191
1901.56455	0.23143
1899.63599	0.23093
1897.70742	0.23059
1895.77886	0.23027
1893.85029	0.22984
1891.92173	0.22942
1889.99316	0.22928
1888.06460	0.22912
1886.13604	0.22880
1884.20747	0.22861
1882.27891	0.22849
1880.35034	0.22829
1878.42178	0.22804
1876.49321	0.22792
1874.56465	0.22798
1872.63608	0.22825
1870.70752	0.22865
1868.77896	0.22925
1866.85039	0.22952
1864.92183	0.22931
1862.99326	0.22923
1861.06470	0.22950
1859.13613	0.22996
1857.20757	0.23034
1855.27900	0.23072
1853.35044	0.23109
1851.42187	0.23159
1849.49331	0.23236
1847.56475	0.23329
1845.63618	0.23423
1843.70762	0.23521
1841.77905	0.23585
1839.85049	0.23612
1837.92192	0.23678
1835.99336	0.23774
1834.06479	0.23868
1832.13623	0.23974
1830.20767	0.24134
1828.27910	0.24295
1826.35054	0.24398
1824.42197	0.24508
1822.49341	0.24622
1820.56484	0.24740
1818.63628	0.24879
1816.70771	0.25043
1814.77915	0.25206
1812.85059	0.25378
1810.92202	0.25583
1808.99346	0.25799
1807.06489	0.25999
1805.13633	0.26186
1803.20776	0.26405
1801.27920	0.26662
1799.35063	0.26942
1797.42207	0.27186
1795.49351	0.27425
1793.56494	0.27723
1791.63638	0.28102
1789.70781	0.28439
1787.77925	0.28684
1785.85068	0.28978
1783.92212	0.29331
1781.99355	0.29724
1780.06499	0.30149
1778.13643	0.30582
1776.20786	0.30997
1774.27930	0.31455
1772.35073	0.32053
1770.42217	0.32663
1768.49360	0.33162
1766.56504	0.33653
1764.63647	0.34178
1762.70791	0.34772
1760.77935	0.35518
1758.85078	0.36214
1756.92222	0.36914
1754.99365	0.37683
1753.06509	0.38395
1751.13652	0.39238
1749.20796	0.40278
1747.27939	0.41306
1745.35083	0.42228
1743.42227	0.43194
1741.49370	0.44243
1739.56514	0.45476
1737.63657	0.46720
1735.70801	0.47820
1733.77944	0.49466
1731.85088	0.51418
1729.92231	0.52958
1727.99375	0.54506
1726.06519	0.56178
1724.13662	0.58001
1722.20806	0.59980
1720.27949	0.61847
1718.35093	0.64040
1716.42236	0.67192
1714.49380	0.70174
1712.56523	0.72635
1710.63667	0.75053
1708.70811	0.77660
1706.77954	0.80604
1704.85098	0.84110
1702.92241	0.87275
1700.99385	0.90424
1699.06528	0.95010
1697.13672	0.99249
1695.20815	1.03701
1693.27959	1.08121
1691.35103	1.11734
1689.42246	1.15871
1687.49390	1.20244
1685.56533	1.24546
1683.63677	1.31073
1681.70820	1.37765
1679.77964	1.42114
1677.85107	1.46258
1675.92251	1.51020
1673.99395	1.56916
1672.06538	1.62279
1670.13682	1.67588
1668.20825	1.74353
1666.27969	1.79984
1664.35112	1.84940
1662.42256	1.91203
1660.49399	1.98249
1658.56543	2.03775
1656.63687	2.08147
1654.70830	2.11939
1652.77974	2.17646
1650.85117	2.23271
1648.92261	2.25212
1646.99404	2.27282
1645.06548	2.29802
1643.13691	2.31813
1641.20835	2.32807
1639.27979	2.33279
1637.35122	2.33285
1635.42266	2.32782
1633.49409	2.31849
1631.56553	2.30492
1629.63696	2.28657
1627.70840	2.25560
1625.77983	2.21948
1623.85127	2.17481
1621.92271	2.12129
1619.99414	2.07360
1618.06558	2.02653
1616.13701	1.96144
1614.20845	1.89634
1612.27988	1.84580
1610.35132	1.79235
1608.42275	1.73441
1606.49419	1.67819
1604.56562	1.62764
1602.63706	1.57944
1600.70850	1.53194
1598.77993	1.48813
1596.85137	1.44762
1594.92280	1.40847
1592.99424	1.37043
1591.06567	1.33559
1589.13711	1.30333
1587.20854	1.27370
1585.27998	1.24675
1583.35142	1.22181
1581.42285	1.19919
1579.49429	1.18025
1577.56572	1.16386
1575.63716	1.14507
1573.70859	1.12894
1571.78003	1.11872
1569.85146	1.10910
1567.92290	1.09928
1565.99434	1.09269
1564.06577	1.08894
1562.13721	1.08672
1560.20864	1.08668
1558.28008	1.09186
1556.35151	1.09786
1554.42295	1.10109
1552.49438	1.10429
1550.56582	1.10571
1548.63726	1.10387
1546.70869	1.09888
1544.78013	1.09044
1542.85156	1.07822
1540.92300	1.05951
1538.99443	1.03008
1537.06587	1.00776
1535.13730	0.99240
1533.20874	0.97230
1531.28018	0.95042
1529.35161	0.93385
1527.42305	0.91839
1525.49448	0.90286
1523.56592	0.88977
1521.63735	0.87747
1519.70879	0.86520
1517.78022	0.85449
1515.85166	0.84186
1513.92310	0.82859
1511.99453	0.81706
1510.06597	0.80671
1508.13740	0.79680
1506.20884	0.78178
1504.28027	0.76812
1502.35171	0.76030
1500.42314	0.75383
1498.49458	0.74707
1496.56602	0.73880
1494.63745	0.73024
1492.70889	0.72366
1490.78032	0.71814
1488.85176	0.71208
1486.92319	0.70622
1484.99463	0.70135
1483.06606	0.69764
1481.13750	0.69484
1479.20894	0.69285
1477.28037	0.69190
1475.35181	0.69175
1473.42324	0.69191
1471.49468	0.69142
1469.56611	0.68988
1467.63755	0.68794
1465.70898	0.68610
1463.78042	0.68454
1461.85186	0.68364
1459.92329	0.68365
1457.99473	0.68446
1456.06616	0.68439
1454.13760	0.68214
1452.20903	0.67942
1450.28047	0.67668
1448.35190	0.67397
1446.42334	0.67120
1444.49478	0.66856
1442.56621	0.66603
1440.63765	0.66338
1438.70908	0.66058
1436.78052	0.65710
1434.85195	0.65301
1432.92339	0.64983
1430.99482	0.64782
1429.06626	0.64666
1427.13770	0.64612
1425.20913	0.64627
1423.28057	0.64699
1421.35200	0.64772
1419.42344	0.64832
1417.49487	0.64842
1415.56631	0.64763
1413.63774	0.64696
1411.70918	0.64714
1409.78062	0.64839
1407.85205	0.65025
1405.92349	0.65231
1403.99492	0.65417
1402.06636	0.65507
1400.13779	0.65486
1398.20923	0.65345
1396.28066	0.65077
1394.35210	0.64698
1392.42354	0.64258
1390.49497	0.63819
1388.56641	0.63358
1386.63784	0.62833
1384.70928	0.62289
1382.78071	0.61777
1380.85215	0.61290
1378.92358	0.60857
1376.99502	0.60517
1375.06646	0.60273
1373.13789	0.60088
1371.20933	0.59960
1369.28076	0.59875
1367.35220	0.59764
1365.42363	0.59604
1363.49507	0.59438
1361.56650	0.59279
1359.63794	0.59120
1357.70937	0.58976
1355.78081	0.58844
1353.85225	0.58729
1351.92368	0.58642
1349.99512	0.58578
1348.06655	0.58523
1346.13799	0.58470
1344.20942	0.58413
1342.28086	0.58351
1340.35229	0.58300
1338.42373	0.58250
1336.49517	0.58181
1334.56660	0.58121
1332.63804	0.58114
1330.70947	0.58148
1328.78091	0.58189
1326.85234	0.58251
1324.92378	0.58338
1322.99521	0.58431
1321.06665	0.58523
1319.13809	0.58601
1317.20952	0.58644
1315.28096	0.58654
1313.35239	0.58644
1311.42383	0.58613
1309.49526	0.58556
1307.56670	0.58496
1305.63813	0.58456
1303.70957	0.58420
1301.78101	0.58370
1299.85244	0.58300
1297.92388	0.58208
1295.99531	0.58099
1294.06675	0.57989
1292.13818	0.57887
1290.20962	0.57771
1288.28105	0.57626
1286.35249	0.57482
1284.42393	0.57349
1282.49536	0.57208
1280.56680	0.57063
1278.63823	0.56927
1276.70967	0.56799
1274.78110	0.56676
1272.85254	0.56567
1270.92397	0.56492
1268.99541	0.56438
1267.06685	0.56367
1265.13828	0.56283
1263.20972	0.56201
1261.28115	0.56108
1259.35259	0.56005
1257.42402	0.55921
1255.49546	0.55870
1253.56689	0.55852
1251.63833	0.55869
1249.70977	0.55909
1247.78120	0.55940
1245.85264	0.55925
1243.92407	0.55848
1241.99551	0.55733
1240.06694	0.55606
1238.13838	0.55456
1236.20981	0.55246
1234.28125	0.55001
1232.35269	0.54763
1230.42412	0.54525
1228.49556	0.54296
1226.56699	0.54103
1224.63843	0.53930
1222.70986	0.53757
1220.78130	0.53592
1218.85273	0.53447
1216.92417	0.53327
1214.99561	0.53223
1213.06704	0.53121
1211.13848	0.53034
1209.20991	0.52965
1207.28135	0.52898
1205.35278	0.52828
1203.42422	0.52752
1201.49565	0.52658
1199.56709	0.52551
1197.63853	0.52456
1195.70996	0.52395
1193.78140	0.52355
1191.85283	0.52311
1189.92427	0.52265
1187.99570	0.52228
1186.06714	0.52209
1184.13857	0.52223
1182.21001	0.52280
1180.28145	0.52377
1178.35288	0.52509
1176.42432	0.52652
1174.49575	0.52765
1172.56719	0.52820
1170.63862	0.52820
1168.71006	0.52790
1166.78149	0.52746
1164.85293	0.52708
1162.92437	0.52673
1160.99580	0.52617
1159.06724	0.52541
1157.13867	0.52457
1155.21011	0.52350
1153.28154	0.52205
1151.35298	0.52037
1149.42441	0.51849
1147.49585	0.51632
1145.56729	0.51394
1143.63872	0.51142
1141.71016	0.50896
1139.78159	0.50690
1137.85303	0.50533
1135.92446	0.50421
1133.99590	0.50333
1132.06733	0.50240
1130.13877	0.50153
1128.21021	0.50094
1126.28164	0.50032
1124.35308	0.49935
1122.42451	0.49831
1120.49595	0.49774
1118.56738	0.49777
1116.63882	0.49797
1114.71025	0.49785
1112.78169	0.49754
1110.85312	0.49761
1108.92456	0.49834
1106.99600	0.49951
1105.06743	0.50093
1103.13887	0.50249
1101.21030	0.50406
1099.28174	0.50552
1097.35317	0.50726
1095.42461	0.50999
1093.49604	0.51378
1091.56748	0.51841
1089.63892	0.52364
1087.71035	0.52926
1085.78179	0.53533
1083.85322	0.54179
1081.92466	0.54809
1079.99609	0.55330
1078.06753	0.55634
1076.13896	0.55669
1074.21040	0.55456
1072.28184	0.55025
1070.35327	0.54418
1068.42471	0.53723
1066.49614	0.53030
1064.56758	0.52389
1062.63901	0.51811
1060.71045	0.51299
1058.78188	0.50836
1056.85332	0.50412
1054.92476	0.50041
1052.99619	0.49716
1051.06763	0.49434
1049.13906	0.49200
1047.21050	0.48985
1045.28193	0.48791
1043.35337	0.48642
1041.42480	0.48506
1039.49624	0.48379
1037.56768	0.48300
1035.63911	0.48261
1033.71055	0.48230
1031.78198	0.48201
1029.85342	0.48167
1027.92485	0.48123
1025.99629	0.48085
1024.06772	0.48074
1022.13916	0.48100
1020.21060	0.48155
1018.28203	0.48209
1016.35347	0.48258
1014.42490	0.48328
1012.49634	0.48412
1010.56777	0.48491
1008.63921	0.48579
1006.71064	0.48692
1004.78208	0.48853
1002.85352	0.49088
1000.92495	0.49381
998.99639	0.49705
997.06782	0.50078
995.13926	0.50499
993.21069	0.50913
991.28213	0.51265
989.35356	0.51523
987.42500	0.51668
985.49644	0.51735
983.56787	0.51784
981.63931	0.51862
979.71074	0.51992
977.78218	0.52177
975.85361	0.52414
973.92505	0.52689
971.99648	0.52981
970.06792	0.53289
968.13936	0.53649
966.21079	0.54074
964.28223	0.54533
962.35366	0.55012
960.42510	0.55526
958.49653	0.56070
956.56797	0.56624
954.63940	0.57206
952.71084	0.57833
950.78228	0.58469
948.85371	0.59105
946.92515	0.59763
944.99658	0.60416
943.06802	0.61034
941.13945	0.61635
939.21089	0.62222
937.28232	0.62776
935.35376	0.63341
933.42520	0.63921
931.49663	0.64444
929.56807	0.64945
927.63950	0.65518
925.71094	0.66182
923.78237	0.66888
921.85381	0.67552
919.92524	0.68205
917.99668	0.68927
916.06812	0.69691
914.13955	0.70497
912.21099	0.71369
910.28242	0.72195
908.35386	0.72885
906.42529	0.73572
904.49673	0.74387
902.56816	0.75294
900.63960	0.76275
898.71104	0.77260
896.78247	0.78170
894.85391	0.79100
892.92534	0.80067
890.99678	0.81066
889.06821	0.82194
887.13965	0.83363
885.21108	0.84475
883.28252	0.85574
881.35396	0.86665
879.42539	0.87779
877.49683	0.88919
875.56826	0.90060
873.63970	0.91237
871.71113	0.92350
869.78257	0.93363
867.85400	0.94443
865.92544	0.95623
863.99687	0.96808
862.06831	0.97978
860.13975	0.99145
858.21118	1.00297
856.28262	1.01454
854.35405	1.02668
852.42549	1.03846
850.49692	1.04963
848.56836	1.06125
846.63979	1.07365
844.71123	1.08692
842.78267	1.09957
840.85410	1.10991
838.92554	1.11812
836.99697	1.12460
835.06841	1.13234
833.13984	1.14421
831.21128	1.15362
829.28271	1.15707
827.35415	1.16273
825.42559	1.17180
823.49702	1.18064
821.56846	1.18996
819.63989	1.19899
817.71133	1.20597
815.78276	1.21522
813.85420	1.22808
811.92563	1.23601
809.99707	1.23896
808.06851	1.24712
806.13994	1.25749
804.21138	1.25587
802.28281	1.25057
800.35425	1.24823
798.42568	1.23755
796.49712	1.22786
794.56855	1.21725
792.63999	1.20280
790.71143	1.21987
788.78286	1.25610
786.85430	1.24625
784.92573	1.19750
782.99717	1.15065
781.06860	1.13935
779.14004	1.17000
777.21147	1.19401
775.28291	1.16993
773.35435	1.12697
771.42578	1.12456
769.49722	1.16619
767.56865	1.17534
765.64009	1.13242
763.71152	1.09309
761.78296	1.06149
759.85439	1.01540
757.92583	0.95436
755.99727	0.92158
754.06870	0.93432
752.14014	0.94809
750.21157	0.93557
748.28301	0.92035
746.35444	0.91727
744.42588	0.88489
742.49731	0.81205
740.56875	0.74840
738.64019	0.71614
736.71162	0.69447
734.78306	0.65975
732.85449	0.65677
730.92593	0.66881
728.99736	0.55997
727.06880	0.38135
725.14023	0.27253
723.21167	0.26187
721.28311	0.23823
719.35454	0.16203
717.42598	0.11976
715.49741	0.10439
713.56885	0.05048
711.64028	-0.02888
709.71172	-0.07949
707.78315	-0.11125
705.85459	-0.15604
703.92603	-0.13208
701.99746	-0.08503
700.06890	-0.11579
698.14033	-0.19596
696.21177	-0.23631
694.28320	-0.20527
692.35464	-0.15969
690.42607	-0.10867
688.49751	-0.02781
686.56895	0.04267
684.64038	0.01369
682.71182	-0.05827
680.78325	-0.06281
678.85469	-0.05824
676.92612	-0.12458
674.99756	-0.19151
673.06899	-0.13238
671.14043	-0.05581
669.21187	-0.04176
667.28330	-0.04792
665.35474	-0.03331
663.42617	0.00918
661.49761	0.05005
659.56904	0.02878
657.64048	-0.02292
655.71191	-0.08270
653.78335	-0.11192
651.85479	-0.04167
649.92622	0.09150
647.99766	0.10614
646.06909	-0.06094
644.14053	-0.15326
642.21196	-0.09053
640.28340	-0.00252
638.35483	0.03278
636.42627	-0.01132
634.49771	-0.05935
632.56914	-0.04659
630.64058	-0.02462
628.71201	-0.02407
626.78345	-0.03113
624.85488	-0.03988
622.92632	-0.04007
620.99775	0.00357
619.06919	0.08154
617.14062	0.07018
615.21206	0.00747
613.28350	0.01791
611.35493	0.09148
609.42637	0.11195
607.49780	0.07024
605.56924	0.01018
603.64067	-0.01233
601.71211	0.01820
599.78354	0.03573
597.85498	0.00941
595.92642	-0.00770
593.99785	0.02959
592.06929	0.04850
590.14072	0.02629
588.21216	0.01150
586.28359	-0.01712
584.35503	-0.07063
582.42646	-0.07455
580.49790	-0.01668
578.56934	0.04010
576.64077	0.04449
574.71221	-0.00466
572.78364	-0.01851
570.85508	-0.02195
568.92651	-0.06072
566.99795	-0.07925
565.06938	-0.05166
563.14082	-0.01428
561.21226	0.01466
559.28369	0.00934
557.35513	0.01120
555.42656	0.05915
553.49800	0.05980
551.56943	-0.02132
549.64087	-0.11056
547.71230	-0.11710
545.78374	-0.05162
543.85518	0.00900
541.92661	0.00932
539.99805	-0.01504
538.06948	-0.02639
536.14092	-0.03524
534.21235	-0.01705
532.28379	0.02358
530.35522	0.04136
528.42666	0.01916
526.49810	-0.03203
524.56953	-0.05670
522.64097	-0.00365
520.71240	0.07720
518.78384	0.09873
516.85527	0.07454
514.92671	0.04422
512.99814	0.02850
511.06958	0.01830
509.14102	0.00129
507.21245	0.00595
505.28389	0.00863
503.35532	-0.01420
501.42676	0.00165
499.49819	0.04829
