3997.91411	0.05807
3995.98555	0.05786
3994.05698	0.05810
3992.12842	0.05883
3990.19985	0.05929
3988.27129	0.05935
3986.34272	0.05930
3984.41416	0.05928
3982.48560	0.05951
3980.55703	0.06027
3978.62847	0.06132
3976.69990	0.06185
3974.77134	0.06148
3972.84277	0.06094
3970.91421	0.06096
3968.98564	0.06121
3967.05708	0.06119
3965.12852	0.06085
3963.19995	0.06074
3961.27139	0.06122
3959.34282	0.06195
3957.41426	0.06246
3955.48569	0.06276
3953.55713	0.06289
3951.62856	0.06292
3949.70000	0.06316
3947.77144	0.06331
3945.84287	0.06311
3943.91431	0.06334
3941.98574	0.06413
3940.05718	0.06422
3938.12861	0.06332
3936.20005	0.06250
3934.27148	0.06258
3932.34292	0.06344
3930.41436	0.06413
3928.48579	0.06397
3926.55723	0.06362
3924.62866	0.06382
3922.70010	0.06416
3920.77153	0.06400
3918.84297	0.06384
3916.91440	0.06386
3914.98584	0.06315
3913.05728	0.06171
3911.12871	0.06079
3909.20015	0.06104
3907.27158	0.06219
3905.34302	0.06408
3903.41445	0.06656
3901.48589	0.06822
3899.55732	0.06803
3897.62876	0.06649
3895.70020	0.06461
3893.77163	0.06367
3891.84307	0.06402
3889.91450	0.06414
3887.98594	0.06320
3886.05737	0.06327
3884.12881	0.06485
3882.20024	0.06584
3880.27168	0.06604
3878.34312	0.06545
3876.41455	0.06441
3874.48599	0.06486
3872.55742	0.06655
3870.62886	0.06795
3868.70029	0.06879
3866.77173	0.06893
3864.84316	0.06930
3862.91460	0.06980
3860.98604	0.06897
3859.05747	0.06798
3857.12891	0.06848
3855.20034	0.07077
3853.27178	0.07472
3851.34321	0.07614
3849.41465	0.07309
3847.48608	0.07056
3845.55752	0.06980
3843.62896	0.07080
3841.70039	0.07335
3839.77183	0.07596
3837.84326	0.07759
3835.91470	0.07783
3833.98613	0.07690
3832.05757	0.07616
3830.12900	0.07630
3828.20044	0.07683
3826.27187	0.07752
3824.34331	0.07852
3822.41475	0.08041
3820.48618	0.08340
3818.55762	0.08464
3816.62905	0.08405
3814.70049	0.08368
3812.77192	0.08293
3810.84336	0.08225
3808.91479	0.08307
3806.98623	0.08585
3805.05767	0.08868
3803.12910	0.09038
3801.20054	0.09288
3799.27197	0.09468
3797.34341	0.09420
3795.41484	0.09364
3793.48628	0.09322
3791.55771	0.09304
3789.62915	0.09368
3787.70059	0.09489
3785.77202	0.09657
3783.84346	0.09859
3781.91489	0.10048
3779.98633	0.10257
3778.05776	0.10483
3776.12920	0.10598
3774.20063	0.10659
3772.27207	0.10801
3770.34351	0.11066
3768.41494	0.11376
3766.48638	0.11589
3764.55781	0.11764
3762.62925	0.11932
3760.70068	0.12127
3758.77212	0.12443
3756.84355	0.12753
3754.91499	0.12959
3752.98643	0.13258
3751.05786	0.13818
3749.12930	0.14399
3747.20073	0.14580
3745.27217	0.14642
3743.34360	0.14867
3741.41504	0.15115
3739.48647	0.15313
3737.55791	0.15642
3735.62935	0.16244
3733.70078	0.16920
3731.77222	0.17261
3729.84365	0.17414
3727.91509	0.17678
3725.98652	0.18203
3724.05796	0.18894
3722.12939	0.19559
3720.20083	0.20256
3718.27227	0.21014
3716.34370	0.21777
3714.41514	0.22571
3712.48657	0.23605
3710.55801	0.25001
3708.62944	0.26288
3706.70088	0.27250
3704.77231	0.28238
3702.84375	0.29505
3700.91519	0.31212
3698.98662	0.33059
3697.05806	0.34771
3695.12949	0.36619
3693.20093	0.38660
3691.27236	0.40946
3689.34380	0.43857
3687.41523	0.47259
3685.48667	0.50208
3683.55811	0.52794
3681.62954	0.55609
3679.70098	0.58830
3677.77241	0.62230
3675.84385	0.66198
3673.91528	0.71405
3671.98672	0.75671
3670.05815	0.79529
3668.12959	0.84732
3666.20103	0.89434
3664.27246	0.93391
3662.34390	0.97675
3660.41533	1.02331
3658.48677	1.06929
3656.55820	1.11794
3654.62964	1.17191
3652.70107	1.21774
3650.77251	1.25840
3648.84395	1.31393
3646.91538	1.37970
3644.98682	1.42807
3643.05825	1.46641
3641.12969	1.50564
3639.20112	1.54820
3637.27256	1.59119
3635.34399	1.63314
3633.41543	1.67490
3631.48687	1.71460
3629.55830	1.75545
3627.62974	1.80714
3625.70117	1.85455
3623.77261	1.88782
3621.84404	1.92074
3619.91548	1.95877
3617.98691	2.00419
3616.05835	2.04802
3614.12979	2.08513
3612.20122	2.12292
3610.27266	2.16059
3608.34409	2.20020
3606.41553	2.24226
3604.48696	2.27989
3602.55840	2.31409
3600.62983	2.35160
3598.70127	2.39166
3596.77271	2.43154
3594.84414	2.47331
3592.91558	2.51577
3590.98701	2.55402
3589.05845	2.58909
3587.12988	2.63067
3585.20132	2.67586
3583.27275	2.71569
3581.34419	2.75395
3579.41562	2.79403
3577.48706	2.83630
3575.55850	2.87967
3573.62993	2.92320
3571.70137	2.96435
3569.77280	3.00279
3567.84424	3.04456
3565.91567	3.09815
3563.98711	3.15043
3562.05854	3.19078
3560.12998	3.22963
3558.20142	3.27326
3556.27285	3.32015
3554.34429	3.36506
3552.41572	3.40930
3550.48716	3.45618
3548.55859	3.50332
3546.63003	3.54934
3544.70146	3.59753
3542.77290	3.64534
3540.84434	3.68977
3538.91577	3.73466
3536.98721	3.78200
3535.05864	3.83141
3533.13008	3.88039
3531.20151	3.92823
3529.27295	3.97157
3527.34438	4.01166
3525.41582	4.05744
3523.48726	4.10892
3521.55869	4.16047
3519.63013	4.21113
3517.70156	4.26158
3515.77300	4.30932
3513.84443	4.35441
3511.91587	4.39958
3509.98730	4.44943
3508.05874	4.50301
3506.13018	4.55296
3504.20161	4.59833
3502.27305	4.64438
3500.34448	4.69358
3498.41592	4.74171
3496.48735	4.78656
3494.55879	4.82675
3492.63022	4.86495
3490.70166	4.91101
3488.77310	4.96660
3486.84453	5.02546
3484.91597	5.08673
3482.98740	5.14269
3481.05884	5.18235
3479.13027	5.21734
3477.20171	5.26271
3475.27314	5.31588
3473.34458	5.36886
3471.41602	5.41592
3469.48745	5.45976
3467.55889	5.50462
3465.63032	5.55338
3463.70176	5.61487
3461.77319	5.67965
3459.84463	5.72661
3457.91606	5.76570
3455.98750	5.81756
3454.05894	5.87115
3452.13037	5.91638
3450.20181	5.96074
3448.27324	6.00602
3446.34468	6.06221
3444.41611	6.12413
3442.48755	6.17253
3440.55898	6.21048
3438.63042	6.24409
3436.70186	6.27464
3434.77329	6.32150
3432.84473	6.38970
3430.91616	6.45287
3428.98760	6.49657
3427.05903	6.53044
3425.13047	6.58660
3423.20190	6.66091
3421.27334	6.71151
3419.34478	6.73125
3417.41621	6.74867
3415.48765	6.78503
3413.55908	6.84449
3411.63052	6.90402
3409.70195	6.93781
3407.77339	6.97217
3405.84482	7.01730
3403.91626	7.07003
3401.98770	7.12798
3400.05913	7.18248
3398.13057	7.23275
3396.20200	7.28033
3394.27344	7.33116
3392.34487	7.36063
3390.41631	7.37512
3388.48774	7.40132
3386.55918	7.42639
3384.63062	7.42362
3382.70205	7.41543
3380.77349	7.42581
3378.84492	7.46856
3376.91636	7.54789
3374.98779	7.61664
3373.05923	7.66344
3371.13066	7.67199
3369.20210	7.65633
3367.27354	7.64084
3365.34497	7.62863
3363.41641	7.64933
3361.48784	7.71925
3359.55928	7.81909
3357.63071	7.88296
3355.70215	7.92374
3353.77358	7.96695
3351.84502	7.96729
3349.91646	7.92555
3347.98789	7.90369
3346.05933	7.89736
3344.13076	7.88107
3342.20220	7.86156
3340.27363	7.85452
3338.34507	7.91752
3336.41650	7.97983
3334.48794	7.95770
3332.55937	7.93426
3330.63081	7.97247
3328.70225	8.02291
3326.77368	8.03829
3324.84512	8.02170
3322.91655	7.96964
3320.98799	7.93920
3319.05942	7.95058
3317.13086	7.95453
3315.20229	7.92117
3313.27373	7.90436
3311.34517	7.92672
3309.41660	7.93344
3307.48804	7.92737
3305.55947	7.94262
3303.63091	8.00550
3301.70234	8.06758
3299.77378	8.06591
3297.84521	8.02848
3295.91665	7.97149
3293.98809	7.90379
3292.05952	7.89856
3290.13096	7.96143
3288.20239	8.01746
3286.27383	8.04214
3284.34526	8.03194
3282.41670	8.01147
3280.48813	7.98798
3278.55957	7.98359
3276.63101	8.01815
3274.70244	8.02974
3272.77388	7.98632
3270.84531	7.92593
3268.91675	7.91972
3266.98818	7.98234
3265.05962	8.04908
3263.13105	8.11795
3261.20249	8.20347
3259.27393	8.20195
3257.34536	8.12568
3255.41680	8.10062
3253.48823	8.11855
3251.55967	8.08933
3249.63110	7.99074
3247.70254	7.88733
3245.77397	7.82957
3243.84541	7.86240
3241.91685	7.99630
3239.98828	8.12676
3238.05972	8.11588
3236.13115	7.98423
3234.20259	7.89591
3232.27402	7.93656
3230.34546	8.00716
3228.41689	7.99020
3226.48833	7.94856
3224.55977	7.92260
3222.63120	7.86689
3220.70264	7.83785
3218.77407	7.92156
3216.84551	8.04644
3214.91694	8.02112
3212.98838	7.86235
3211.05981	7.77934
3209.13125	7.81021
3207.20269	7.85078
3205.27412	7.86169
3203.34556	7.83229
3201.41699	7.76818
3199.48843	7.71177
3197.55986	7.66992
3195.63130	7.63792
3193.70273	7.60505
3191.77417	7.55302
3189.84561	7.47905
3187.91704	7.38966
3185.98848	7.34043
3184.05991	7.36544
3182.13135	7.39158
3180.20278	7.35501
3178.27422	7.28156
3176.34565	7.22195
3174.41709	7.16841
3172.48853	7.08857
3170.55996	7.01023
3168.63140	6.94410
3166.70283	6.87460
3164.77427	6.81583
3162.84570	6.77376
3160.91714	6.73809
3158.98857	6.69015
3157.06001	6.61714
3155.13145	6.53135
3153.20288	6.44646
3151.27432	6.36695
3149.34575	6.29009
3147.41719	6.22801
3145.48862	6.18488
3143.56006	6.13282
3141.63149	6.06012
3139.70293	5.98388
3137.77437	5.91366
3135.84580	5.83683
3133.91724	5.75442
3131.98867	5.67779
3130.06011	5.60702
3128.13154	5.54029
3126.20298	5.47050
3124.27441	5.39653
3122.34585	5.32204
3120.41729	5.24664
3118.48872	5.17335
3116.56016	5.10806
3114.63159	5.04908
3112.70303	4.98673
3110.77446	4.91351
3108.84590	4.83174
3106.91733	4.75311
3104.98877	4.68313
3103.06021	4.61775
3101.13164	4.55112
3099.20308	4.48151
3097.27451	4.41284
3095.34595	4.34452
3093.41738	4.27297
3091.48882	4.20310
3089.56025	4.13834
3087.63169	4.07363
3085.70312	4.00706
3083.77456	3.94085
3081.84600	3.87590
3079.91743	3.81026
3077.98887	3.74463
3076.06030	3.68232
3074.13174	3.62123
3072.20317	3.55931
3070.27461	3.49942
3068.34604	3.44295
3066.41748	3.38605
3064.48892	3.32650
3062.56035	3.26806
3060.63179	3.21286
3058.70322	3.15730
3056.77466	3.10064
3054.84609	3.04699
3052.91753	2.99555
3050.98896	2.94223
3049.06040	2.88753
3047.13184	2.83528
3045.20327	2.78651
3043.27471	2.73829
3041.34614	2.68891
3039.41758	2.63937
3037.48901	2.59082
3035.56045	2.54362
3033.63188	2.49792
3031.70332	2.45267
3029.77476	2.40726
3027.84619	2.36372
3025.91763	2.32218
3023.98906	2.28024
3022.06050	2.23787
3020.13193	2.19660
3018.20337	2.15597
3016.27480	2.11552
3014.34624	2.07618
3012.41768	2.03768
3010.48911	1.99936
3008.56055	1.96177
3006.63198	1.92493
3004.70342	1.88852
3002.77485	1.85275
3000.84629	1.81782
2998.91772	1.78364
2996.98916	1.74993
2995.06060	1.71654
2993.13203	1.68378
2991.20347	1.65178
2989.27490	1.62041
2987.34634	1.58966
2985.41777	1.55934
2983.48921	1.52886
2981.56064	1.49830
2979.63208	1.46861
2977.70352	1.44019
2975.77495	1.41234
2973.84639	1.38449
2971.91782	1.35709
2969.98926	1.33015
2968.06069	1.30340
2966.13213	1.27758
2964.20356	1.25270
2962.27500	1.22809
2960.34644	1.20387
2958.41787	1.18041
2956.48931	1.15744
2954.56074	1.13465
2952.63218	1.11220
2950.70361	1.09010
2948.77505	1.06821
2946.84648	1.04669
2944.91792	1.02571
2942.98936	1.00508
2941.06079	0.98477
2939.13223	0.96493
2937.20366	0.94560
2935.27510	0.92650
2933.34653	0.90760
2931.41797	0.88949
2929.48940	0.87220
2927.56084	0.85525
2925.63228	0.83863
2923.70371	0.82256
2921.77515	0.80692
2919.84658	0.79160
2917.91802	0.77645
2915.98945	0.76112
2914.06089	0.74578
2912.13232	0.73096
2910.20376	0.71675
2908.27520	0.70314
2906.34663	0.69014
2904.41807	0.67759
2902.48950	0.66538
2900.56094	0.65333
2898.63237	0.64135
2896.70381	0.62944
2894.77524	0.61760
2892.84668	0.60604
2890.91812	0.59480
2888.98955	0.58371
2887.06099	0.57297
2885.13242	0.56284
2883.20386	0.55297
2881.27529	0.54297
2879.34673	0.53297
2877.41816	0.52283
2875.48960	0.51258
2873.56104	0.50286
2871.63247	0.49371
2869.70391	0.48455
2867.77534	0.47531
2865.84678	0.46636
2863.91821	0.45799
2861.98965	0.44989
2860.06108	0.44148
2858.13252	0.43292
2856.20396	0.42465
2854.27539	0.41677
2852.34683	0.40924
2850.41826	0.40229
2848.48970	0.39584
2846.56113	0.38928
2844.63257	0.38268
2842.70400	0.37650
2840.77544	0.37066
2838.84687	0.36497
2836.91831	0.35954
2834.98975	0.35441
2833.06118	0.34932
2831.13262	0.34416
2829.20405	0.33898
2827.27549	0.33386
2825.34692	0.32877
2823.41836	0.32362
2821.48979	0.31843
2819.56123	0.31319
2817.63267	0.30787
2815.70410	0.30274
2813.77554	0.29804
2811.84697	0.29359
2809.91841	0.28924
2807.98984	0.28496
2806.06128	0.28067
2804.13271	0.27613
2802.20415	0.27156
2800.27559	0.26737
2798.34702	0.26342
2796.41846	0.25937
2794.48989	0.25527
2792.56133	0.25143
2790.63276	0.24787
2788.70420	0.24426
2786.77563	0.24063
2784.84707	0.23716
2782.91851	0.23393
2780.98994	0.23077
2779.06138	0.22744
2777.13281	0.22412
2775.20425	0.22114
2773.27568	0.21830
2771.34712	0.21529
2769.41855	0.21220
2767.48999	0.20925
2765.56143	0.20640
2763.63286	0.20357
2761.70430	0.20083
2759.77573	0.19825
2757.84717	0.19591
2755.91860	0.19375
2753.99004	0.19145
2752.06147	0.18886
2750.13291	0.18624
2748.20435	0.18399
2746.27578	0.18211
2744.34722	0.18024
2742.41865	0.17805
2740.49009	0.17571
2738.56152	0.17352
2736.63296	0.17154
2734.70439	0.16964
2732.77583	0.16776
2730.84727	0.16589
2728.91870	0.16407
2726.99014	0.16248
2725.06157	0.16113
2723.13301	0.15969
2721.20444	0.15798
2719.27588	0.15623
2717.34731	0.15461
2715.41875	0.15310
2713.49019	0.15169
2711.56162	0.15037
2709.63306	0.14905
2707.70449	0.14763
2705.77593	0.14615
2703.84736	0.14487
2701.91880	0.14380
2699.99023	0.14285
2698.06167	0.14188
2696.13311	0.14074
2694.20454	0.13957
2692.27598	0.13861
2690.34741	0.13776
2688.41885	0.13676
2686.49028	0.13554
2684.56172	0.13437
2682.63315	0.13337
2680.70459	0.13250
2678.77603	0.13177
2676.84746	0.13117
2674.91890	0.13052
2672.99033	0.12982
2671.06177	0.12906
2669.13320	0.12825
2667.20464	0.12749
2665.27607	0.12686
2663.34751	0.12629
2661.41895	0.12575
2659.49038	0.12524
2657.56182	0.12466
2655.63325	0.12409
2653.70469	0.12383
2651.77612	0.12365
2649.84756	0.12329
2647.91899	0.12295
2645.99043	0.12275
2644.06187	0.12243
2642.13330	0.12192
2640.20474	0.12159
2638.27617	0.12140
2636.34761	0.12108
2634.41904	0.12082
2632.49048	0.12083
2630.56191	0.12093
2628.63335	0.12083
2626.70479	0.12051
2624.77622	0.12017
2622.84766	0.12002
2620.91909	0.12014
2618.99053	0.12046
2617.06196	0.12066
2615.13340	0.12061
2613.20483	0.12047
2611.27627	0.12039
2609.34771	0.12047
2607.41914	0.12065
2605.49058	0.12077
2603.56201	0.12086
2601.63345	0.12108
2599.70488	0.12144
2597.77632	0.12171
2595.84775	0.12186
2593.91919	0.12200
2591.99062	0.12216
2590.06206	0.12238
2588.13350	0.12272
2586.20493	0.12319
2584.27637	0.12382
2582.34780	0.12446
2580.41924	0.12483
2578.49067	0.12505
2576.56211	0.12544
2574.63354	0.12600
2572.70498	0.12656
2570.77642	0.12710
2568.84785	0.12766
2566.91929	0.12813
2564.99072	0.12846
2563.06216	0.12891
2561.13359	0.12955
2559.20503	0.13018
2557.27646	0.13070
2555.34790	0.13125
2553.41934	0.13194
2551.49077	0.13266
2549.56221	0.13327
2547.63364	0.13391
2545.70508	0.13476
2543.77651	0.13559
2541.84795	0.13617
2539.91938	0.13672
2537.99082	0.13740
2536.06226	0.13822
2534.13369	0.13906
2532.20513	0.13979
2530.27656	0.14042
2528.34800	0.14114
2526.41943	0.14211
2524.49087	0.14310
2522.56230	0.14387
2520.63374	0.14452
2518.70518	0.14522
2516.77661	0.14604
2514.84805	0.14695
2512.91948	0.14789
2510.99092	0.14878
2509.06235	0.14961
2507.13379	0.15048
2505.20522	0.15136
2503.27666	0.15219
2501.34810	0.15305
2499.41953	0.15391
2497.49097	0.15475
2495.56240	0.15570
2493.63384	0.15682
2491.70527	0.15781
2489.77671	0.15858
2487.84814	0.15952
2485.91958	0.16068
2483.99102	0.16174
2482.06245	0.16259
2480.13389	0.16345
2478.20532	0.16439
2476.27676	0.16531
2474.34819	0.16616
2472.41963	0.16701
2470.49106	0.16795
2468.56250	0.16906
2466.63394	0.17014
2464.70537	0.17115
2462.77681	0.17225
2460.84824	0.17346
2458.91968	0.17465
2456.99111	0.17578
2455.06255	0.17688
2453.13398	0.17794
2451.20542	0.17901
2449.27686	0.18002
2447.34829	0.18090
2445.41973	0.18181
2443.49116	0.18276
2441.56260	0.18373
2439.63403	0.18488
2437.70547	0.18621
2435.77690	0.18756
2433.84834	0.18878
2431.91978	0.18989
2429.99121	0.19105
2428.06265	0.19227
2426.13408	0.19355
2424.20552	0.19483
2422.27695	0.19596
2420.34839	0.19689
2418.41982	0.19788
2416.49126	0.19906
2414.56270	0.20037
2412.63413	0.20164
2410.70557	0.20283
2408.77700	0.20404
2406.84844	0.20539
2404.91987	0.20686
2402.99131	0.20822
2401.06274	0.20943
2399.13418	0.21069
2397.20562	0.21212
2395.27705	0.21351
2393.34849	0.21473
2391.41992	0.21592
2389.49136	0.21718
2387.56279	0.21842
2385.63423	0.21944
2383.70566	0.22017
2381.77710	0.22063
2379.84854	0.22079
2377.91997	0.22067
2375.99141	0.22037
2374.06284	0.22010
2372.13428	0.21970
2370.20571	0.21878
2368.27715	0.21765
2366.34858	0.21700
2364.42002	0.21666
2362.49146	0.21600
2360.56289	0.21521
2358.63433	0.21589
2356.70576	0.21986
2354.77720	0.22567
2352.84863	0.23104
2350.92007	0.23547
2348.99150	0.23817
2347.06294	0.23881
2345.13437	0.23789
2343.20581	0.23709
2341.27725	0.23836
2339.34868	0.24076
2337.42012	0.24281
2335.49155	0.24481
2333.56299	0.24726
2331.63442	0.24990
2329.70586	0.25194
2327.77729	0.25348
2325.84873	0.25571
2323.92017	0.25896
2321.99160	0.26258
2320.06304	0.26595
2318.13447	0.26899
2316.20591	0.27166
2314.27734	0.27395
2312.34878	0.27613
2310.42021	0.27860
2308.49165	0.28126
2306.56309	0.28375
2304.63452	0.28614
2302.70596	0.28850
2300.77739	0.29071
2298.84883	0.29276
2296.92026	0.29486
2294.99170	0.29714
2293.06313	0.29945
2291.13457	0.30171
2289.20601	0.30392
2287.27744	0.30606
2285.34888	0.30833
2283.42031	0.31067
2281.49175	0.31275
2279.56318	0.31468
2277.63462	0.31663
2275.70605	0.31862
2273.77749	0.32069
2271.84893	0.32284
2269.92036	0.32497
2267.99180	0.32706
2266.06323	0.32917
2264.13467	0.33143
2262.20610	0.33386
2260.27754	0.33622
2258.34897	0.33846
2256.42041	0.34061
2254.49185	0.34270
2252.56328	0.34489
2250.63472	0.34723
2248.70615	0.34962
2246.77759	0.35184
2244.84902	0.35402
2242.92046	0.35640
2240.99189	0.35890
2239.06333	0.36123
2237.13477	0.36337
2235.20620	0.36547
2233.27764	0.36772
2231.34907	0.37020
2229.42051	0.37263
2227.49194	0.37472
2225.56338	0.37673
2223.63481	0.37901
2221.70625	0.38145
2219.77769	0.38377
2217.84912	0.38592
2215.92056	0.38804
2213.99199	0.39028
2212.06343	0.39262
2210.13486	0.39492
2208.20630	0.39703
2206.27773	0.39907
2204.34917	0.40120
2202.42061	0.40333
2200.49204	0.40547
2198.56348	0.40765
2196.63491	0.40978
2194.70635	0.41176
2192.77778	0.41369
2190.84922	0.41562
2188.92065	0.41745
2186.99209	0.41923
2185.06353	0.42107
2183.13496	0.42291
2181.20640	0.42478
2179.27783	0.42665
2177.34927	0.42835
2175.42070	0.42985
2173.49214	0.43134
2171.56357	0.43277
2169.63501	0.43405
2167.70645	0.43531
2165.77788	0.43667
2163.84932	0.43801
2161.92075	0.43913
2159.99219	0.44020
2158.06362	0.44140
2156.13506	0.44258
2154.20649	0.44351
2152.27793	0.44427
2150.34937	0.44497
2148.42080	0.44563
2146.49224	0.44621
2144.56367	0.44674
2142.63511	0.44726
2140.70654	0.44770
2138.77798	0.44809
2136.84941	0.44842
2134.92085	0.44849
2132.99229	0.44825
2131.06372	0.44801
2129.13516	0.44786
2127.20659	0.44768
2125.27803	0.44737
2123.34946	0.44693
2121.42090	0.44651
2119.49233	0.44608
2117.56377	0.44549
2115.63521	0.44474
2113.70664	0.44397
2111.77808	0.44325
2109.84951	0.44245
2107.92095	0.44134
2105.99238	0.44000
2104.06382	0.43870
2102.13525	0.43742
2100.20669	0.43614
2098.27812	0.43491
2096.34956	0.43357
2094.42100	0.43197
2092.49243	0.43022
2090.56387	0.42850
2088.63530	0.42679
2086.70674	0.42503
2084.77817	0.42320
2082.84961	0.42131
2080.92104	0.41934
2078.99248	0.41725
2077.06392	0.41516
2075.13535	0.41322
2073.20679	0.41118
2071.27822	0.40878
2069.34966	0.40628
2067.42109	0.40402
2065.49253	0.40188
2063.56396	0.39955
2061.63540	0.39708
2059.70684	0.39465
2057.77827	0.39211
2055.84971	0.38939
2053.92114	0.38670
2051.99258	0.38418
2050.06401	0.38167
2048.13545	0.37911
2046.20688	0.37656
2044.27832	0.37396
2042.34976	0.37133
2040.42119	0.36872
2038.49263	0.36604
2036.56406	0.36330
2034.63550	0.36049
2032.70693	0.35756
2030.77837	0.35467
2028.84980	0.35198
2026.92124	0.34943
2024.99268	0.34678
2023.06411	0.34398
2021.13555	0.34121
2019.20698	0.33860
2017.27842	0.33594
2015.34985	0.33297
2013.42129	0.32997
2011.49272	0.32722
2009.56416	0.32452
2007.63560	0.32178
2005.70703	0.31917
2003.77847	0.31661
2001.84990	0.31394
1999.92134	0.31129
1997.99277	0.30878
1996.06421	0.30635
1994.13564	0.30402
1992.20708	0.30165
1990.27852	0.29898
1988.34995	0.29623
1986.42139	0.29367
1984.49282	0.29121
1982.56426	0.28875
1980.63569	0.28638
1978.70713	0.28421
1976.77856	0.28215
1974.85000	0.28001
1972.92144	0.27774
1970.99287	0.27551
1969.06431	0.27350
1967.13574	0.27161
1965.20718	0.26957
1963.27861	0.26747
1961.35005	0.26546
1959.42148	0.26352
1957.49292	0.26179
1955.56436	0.26021
1953.63579	0.25855
1951.70723	0.25675
1949.77866	0.25494
1947.85010	0.25328
1945.92153	0.25192
1943.99297	0.25075
1942.06440	0.24945
1940.13584	0.24777
1938.20728	0.24607
1936.27871	0.24470
1934.35015	0.24352
1932.42158	0.24238
1930.49302	0.24114
1928.56445	0.23984
1926.63589	0.23867
1924.70732	0.23781
1922.77876	0.23714
1920.85020	0.23637
1918.92163	0.23553
1916.99307	0.23460
1915.06450	0.23339
1913.13594	0.23225
1911.20737	0.23161
1909.27881	0.23119
1907.35024	0.23052
1905.42168	0.22972
1903.49312	0.22910
1901.56455	0.22858
1899.63599	0.22809
1897.70742	0.22774
1895.77886	0.22749
1893.85029	0.22715
1891.92173	0.22677
1889.99316	0.22667
1888.06460	0.22642
1886.13604	0.22588
1884.20747	0.22555
1882.27891	0.22544
1880.35034	0.22537
1878.42178	0.22524
1876.49321	0.22521
1874.56465	0.22531
1872.63608	0.22557
1870.70752	0.22611
1868.77896	0.22702
1866.85039	0.22736
1864.92183	0.22691
1862.99326	0.22660
1861.06470	0.22674
1859.13613	0.22712
1857.20757	0.22750
1855.27900	0.22798
1853.35044	0.22846
1851.42187	0.22897
1849.49331	0.22966
1847.56475	0.23061
1845.63618	0.23179
1843.70762	0.23299
1841.77905	0.23349
1839.85049	0.23353
1837.92192	0.23409
1835.99336	0.23501
1834.06479	0.23601
1832.13623	0.23729
1830.20767	0.23914
1828.27910	0.24076
1826.35054	0.24167
1824.42197	0.24279
1822.49341	0.24384
1820.56484	0.24478
1818.63628	0.24600
1816.70771	0.24760
1814.77915	0.24920
1812.85059	0.25100
1810.92202	0.25325
1808.99346	0.25544
1807.06489	0.25730
1805.13633	0.25914
1803.20776	0.26146
1801.27920	0.26423
1799.35063	0.26718
1797.42207	0.26969
1795.49351	0.27209
1793.56494	0.27514
1791.63638	0.27896
1789.70781	0.28216
1787.77925	0.28441
1785.85068	0.28741
1783.92212	0.29119
1781.99355	0.29534
1780.06499	0.29971
1778.13643	0.30399
1776.20786	0.30809
1774.27930	0.31288
1772.35073	0.31923
1770.42217	0.32536
1768.49360	0.33015
1766.56504	0.33499
1764.63647	0.34031
1762.70791	0.34647
1760.77935	0.35421
1758.85078	0.36138
1756.92222	0.36851
1754.99365	0.37624
1753.06509	0.38345
1751.13652	0.39226
1749.20796	0.40323
1747.27939	0.41369
1745.35083	0.42278
1743.42227	0.43246
1741.49370	0.44312
1739.56514	0.45555
1737.63657	0.46796
1735.70801	0.47908
1733.77944	0.49585
1731.85088	0.51529
1729.92231	0.53033
1727.99375	0.54571
1726.06519	0.56262
1724.13662	0.58125
1722.20806	0.60143
1720.27949	0.62040
1718.35093	0.64276
1716.42236	0.67489
1714.49380	0.70488
1712.56523	0.72901
1710.63667	0.75252
1708.70811	0.77811
1706.77954	0.80748
1704.85098	0.84227
1702.92241	0.87311
1700.99385	0.90337
1699.06528	0.94726
1697.13672	0.98690
1695.20815	1.02694
1693.27959	1.06602
1691.35103	1.09783
1689.42246	1.13400
1687.49390	1.17133
1685.56533	1.20733
1683.63677	1.26216
1681.70820	1.31833
1679.77964	1.35457
1677.85107	1.38893
1675.92251	1.42832
1673.99395	1.47677
1672.06538	1.52027
1670.13682	1.56251
1668.20825	1.61460
1666.27969	1.65583
1664.35112	1.69054
1662.42256	1.73330
1660.49399	1.78040
1658.56543	1.81726
1656.63687	1.84800
1654.70830	1.87735
1652.77974	1.92573
1650.85117	1.97613
1648.92261	1.99916
1646.99404	2.02790
1645.06548	2.06067
1643.13691	2.08235
1641.20835	2.09637
1639.27979	2.10858
1637.35122	2.11617
1635.42266	2.11914
1633.49409	2.11694
1631.56553	2.10676
1629.63696	2.09175
1627.70840	2.06854
1625.77983	2.04332
1623.85127	2.01174
1621.92271	1.97068
1619.99414	1.93168
1618.06558	1.89230
1616.13701	1.83622
1614.20845	1.77840
1612.27988	1.73419
1610.35132	1.68845
1608.42275	1.63789
1606.49419	1.58669
1604.56562	1.53911
1602.63706	1.49348
1600.70850	1.44853
1598.77993	1.40642
1596.85137	1.36666
1594.92280	1.32822
1592.99424	1.29106
1591.06567	1.25650
1589.13711	1.22328
1587.20854	1.19172
1585.27998	1.16230
1583.35142	1.13445
1581.42285	1.10851
1579.49429	1.08577
1577.56572	1.06468
1575.63716	1.03855
1573.70859	1.01504
1571.78003	0.99931
1569.85146	0.98220
1567.92290	0.96211
1565.99434	0.94544
1564.06577	0.93093
1562.13721	0.91874
1560.20864	0.90841
1558.28008	0.89071
1556.35151	0.87360
1554.42295	0.86265
1552.49438	0.85196
1550.56582	0.84147
1548.63726	0.83103
1546.70869	0.82199
1544.78013	0.81416
1542.85156	0.80677
1540.92300	0.79871
1538.99443	0.78661
1537.06587	0.77660
1535.13730	0.77019
1533.20874	0.76332
1531.28018	0.75591
1529.35161	0.75010
1527.42305	0.74483
1525.49448	0.73934
1523.56592	0.73418
1521.63735	0.72876
1519.70879	0.72246
1517.78022	0.71687
1515.85166	0.71118
1513.92310	0.70564
1511.99453	0.70136
1510.06597	0.69807
1508.13740	0.69544
1506.20884	0.69072
1504.28027	0.68476
1502.35171	0.68076
1500.42314	0.67778
1498.49458	0.67505
1496.56602	0.67162
1494.63745	0.66772
1492.70889	0.66473
1490.78032	0.66267
1488.85176	0.66012
1486.92319	0.65638
1484.99463	0.65266
1483.06606	0.64964
1481.13750	0.64687
1479.20894	0.64411
1477.28037	0.64173
1475.35181	0.63972
1473.42324	0.63746
1471.49468	0.63401
1469.56611	0.63032
1467.63755	0.62737
1465.70898	0.62487
1463.78042	0.62234
1461.85186	0.62020
1459.92329	0.61896
1457.99473	0.61797
1456.06616	0.61537
1454.13760	0.61188
1452.20903	0.60942
1450.28047	0.60771
1448.35190	0.60641
1446.42334	0.60487
1444.49478	0.60289
1442.56621	0.60105
1440.63765	0.59963
1438.70908	0.59868
1436.78052	0.59784
1434.85195	0.59641
1432.92339	0.59464
1430.99482	0.59306
1429.06626	0.59135
1427.13770	0.58955
1425.20913	0.58818
1423.28057	0.58704
1421.35200	0.58585
1419.42344	0.58479
1417.49487	0.58346
1415.56631	0.58166
1413.63774	0.57999
1411.70918	0.57850
1409.78062	0.57703
1407.85205	0.57573
1405.92349	0.57466
1403.99492	0.57337
1402.06636	0.57179
1400.13779	0.57056
1398.20923	0.56960
1396.28066	0.56847
1394.35210	0.56710
1392.42354	0.56560
1390.49497	0.56432
1388.56641	0.56333
1386.63784	0.56226
1384.70928	0.56089
1382.78071	0.55957
1380.85215	0.55854
1378.92358	0.55763
1376.99502	0.55672
1375.06646	0.55593
1373.13789	0.55505
1371.20933	0.55390
1369.28076	0.55266
1367.35220	0.55134
1365.42363	0.55026
1363.49507	0.54964
1361.56650	0.54890
1359.63794	0.54779
1357.70937	0.54674
1355.78081	0.54584
1353.85225	0.54497
1351.92368	0.54403
1349.99512	0.54311
1348.06655	0.54234
1346.13799	0.54162
1344.20942	0.54074
1342.28086	0.53989
1340.35229	0.53935
1338.42373	0.53874
1336.49517	0.53762
1334.56660	0.53631
1332.63804	0.53525
1330.70947	0.53443
1328.78091	0.53358
1326.85234	0.53259
1324.92378	0.53154
1322.99521	0.53065
1321.06665	0.52990
1319.13809	0.52914
1317.20952	0.52824
1315.28096	0.52728
1313.35239	0.52634
1311.42383	0.52541
1309.49526	0.52443
1307.56670	0.52353
1305.63813	0.52282
1303.70957	0.52210
1301.78101	0.52120
1299.85244	0.52017
1297.92388	0.51918
1295.99531	0.51835
1294.06675	0.51757
1292.13818	0.51683
1290.20962	0.51615
1288.28105	0.51546
1286.35249	0.51487
1284.42393	0.51429
1282.49536	0.51349
1280.56680	0.51258
1278.63823	0.51182
1276.70967	0.51127
1274.78110	0.51071
1272.85254	0.51008
1270.92397	0.50950
1268.99541	0.50879
1267.06685	0.50788
1265.13828	0.50708
1263.20972	0.50648
1261.28115	0.50579
1259.35259	0.50491
1257.42402	0.50403
1255.49546	0.50330
1253.56689	0.50272
1251.63833	0.50213
1249.70977	0.50150
1247.78120	0.50094
1245.85264	0.50042
1243.92407	0.49971
1241.99551	0.49891
1240.06694	0.49829
1238.13838	0.49774
1236.20981	0.49710
1234.28125	0.49633
1232.35269	0.49547
1230.42412	0.49461
1228.49556	0.49376
1226.56699	0.49284
1224.63843	0.49199
1222.70986	0.49125
1220.78130	0.49052
1218.85273	0.48982
1216.92417	0.48914
1214.99561	0.48838
1213.06704	0.48752
1211.13848	0.48664
1209.20991	0.48572
1207.28135	0.48477
1205.35278	0.48386
1203.42422	0.48308
1201.49565	0.48234
1199.56709	0.48147
1197.63853	0.48054
1195.70996	0.47960
1193.78140	0.47863
1191.85283	0.47765
1189.92427	0.47666
1187.99570	0.47561
1186.06714	0.47460
1184.13857	0.47372
1182.21001	0.47283
1180.28145	0.47186
1178.35288	0.47093
1176.42432	0.47002
1174.49575	0.46903
1172.56719	0.46797
1170.63862	0.46695
1168.71006	0.46601
1166.78149	0.46506
1164.85293	0.46397
1162.92437	0.46292
1160.99580	0.46211
1159.06724	0.46146
1157.13867	0.46079
1155.21011	0.45995
1153.28154	0.45890
1151.35298	0.45784
1149.42441	0.45702
1147.49585	0.45637
1145.56729	0.45566
1143.63872	0.45493
1141.71016	0.45437
1139.78159	0.45368
1137.85303	0.45270
1135.92446	0.45185
1133.99590	0.45118
1132.06733	0.45040
1130.13877	0.44961
1128.21021	0.44904
1126.28164	0.44847
1124.35308	0.44762
1122.42451	0.44650
1120.49595	0.44544
1118.56738	0.44486
1116.63882	0.44464
1114.71025	0.44435
1112.78169	0.44390
1110.85312	0.44346
1108.92456	0.44303
1106.99600	0.44256
1105.06743	0.44213
1103.13887	0.44178
1101.21030	0.44148
1099.28174	0.44103
1097.35317	0.44043
1095.42461	0.44001
1093.49604	0.43980
1091.56748	0.43975
1089.63892	0.43967
1087.71035	0.43934
1085.78179	0.43892
1083.85322	0.43858
1081.92466	0.43809
1079.99609	0.43748
1078.06753	0.43707
1076.13896	0.43704
1074.21040	0.43727
1072.28184	0.43749
1070.35327	0.43757
1068.42471	0.43758
1066.49614	0.43771
1064.56758	0.43792
1062.63901	0.43809
1060.71045	0.43829
1058.78188	0.43852
1056.85332	0.43868
1054.92476	0.43885
1052.99619	0.43907
1051.06763	0.43938
1049.13906	0.43987
1047.21050	0.44036
1045.28193	0.44064
1043.35337	0.44090
1041.42480	0.44135
1039.49624	0.44200
1037.56768	0.44272
1035.63911	0.44348
1033.71055	0.44438
1031.78198	0.44544
1029.85342	0.44650
1027.92485	0.44762
1025.99629	0.44884
1024.06772	0.44984
1022.13916	0.45057
1020.21060	0.45151
1018.28203	0.45289
1016.35347	0.45445
1014.42490	0.45590
1012.49634	0.45721
1010.56777	0.45871
1008.63921	0.46039
1006.71064	0.46189
1004.78208	0.46321
1002.85352	0.46481
1000.92495	0.46693
998.99639	0.46918
997.06782	0.47126
995.13926	0.47317
993.21069	0.47517
991.28213	0.47738
989.35356	0.47975
987.42500	0.48242
985.49644	0.48526
983.56787	0.48801
981.63931	0.49077
979.71074	0.49375
977.78218	0.49688
975.85361	0.50004
973.92505	0.50330
971.99648	0.50670
970.06792	0.51019
968.13936	0.51400
966.21079	0.51803
964.28223	0.52188
962.35366	0.52566
960.42510	0.52977
958.49653	0.53423
956.56797	0.53879
954.63940	0.54349
952.71084	0.54845
950.78228	0.55338
948.85371	0.55825
946.92515	0.56337
944.99658	0.56859
943.06802	0.57364
941.13945	0.57899
939.21089	0.58531
937.28232	0.59241
935.35376	0.59949
933.42520	0.60593
931.49663	0.61181
929.56807	0.61810
927.63950	0.62522
925.71094	0.63237
923.78237	0.63907
921.85381	0.64628
919.92524	0.65426
917.99668	0.66217
916.06812	0.67039
914.13955	0.67926
912.21099	0.68821
910.28242	0.69700
908.35386	0.70570
906.42529	0.71434
904.49673	0.72284
902.56816	0.73154
900.63960	0.74102
898.71104	0.75060
896.78247	0.75993
894.85391	0.77041
892.92534	0.78138
890.99678	0.79089
889.06821	0.80008
887.13965	0.81040
885.21108	0.82101
883.28252	0.83115
881.35396	0.84144
879.42539	0.85256
877.49683	0.86389
875.56826	0.87551
873.63970	0.88787
871.71113	0.90007
869.78257	0.91149
867.85400	0.92249
865.92544	0.93408
863.99687	0.94649
862.06831	0.95874
860.13975	0.97079
858.21118	0.98319
856.28262	0.99500
854.35405	1.00503
852.42549	1.01443
850.49692	1.02512
848.56836	1.03668
846.63979	1.04738
844.71123	1.05641
842.78267	1.06628
840.85410	1.07997
838.92554	1.09265
836.99697	1.10085
835.06841	1.10957
833.13984	1.11887
831.21128	1.12662
829.28271	1.13624
827.35415	1.14759
825.42559	1.15768
823.49702	1.16755
821.56846	1.17893
819.63989	1.19025
817.71133	1.19784
815.78276	1.20330
813.85420	1.20789
811.92563	1.20357
809.99707	1.19243
808.06851	1.19416
806.13994	1.21169
804.21138	1.22545
802.28281	1.22847
800.35425	1.22537
798.42568	1.21841
796.49712	1.21289
794.56855	1.22514
792.63999	1.25722
790.71143	1.27503
788.78286	1.26394
786.85430	1.24711
784.92573	1.23386
782.99717	1.21854
781.06860	1.21440
779.14004	1.20942
777.21147	1.16486
775.28291	1.11364
773.35435	1.09948
771.42578	1.09969
769.49722	1.08873
767.56865	1.08828
765.64009	1.08958
763.71152	1.06319
761.78296	1.02622
759.85439	1.04458
757.92583	1.14576
755.99727	1.20415
754.06870	1.11606
752.14014	1.01954
750.21157	0.95061
748.28301	0.89453
746.35444	0.89680
744.42588	0.91227
742.49731	0.81814
740.56875	0.69173
738.64019	0.60869
736.71162	0.57367
734.78306	0.59034
732.85449	0.61843
730.92593	0.57666
728.99736	0.44780
727.06880	0.29498
725.14023	0.16336
723.21167	0.08833
721.28311	0.07936
719.35454	0.06190
717.42598	0.03826
715.49741	0.04677
713.56885	0.01182
711.64028	-0.07479
709.71172	-0.12576
707.78315	-0.10558
705.85459	-0.05458
703.92603	-0.02310
701.99746	-0.03935
700.06890	-0.08263
698.14033	-0.15249
696.21177	-0.20919
694.28320	-0.20089
692.35464	-0.18626
690.42607	-0.17897
688.49751	-0.11267
686.56895	-0.01511
684.64038	-0.02103
682.71182	-0.10973
680.78325	-0.14166
678.85469	-0.12910
676.92612	-0.12371
674.99756	-0.11675
673.06899	-0.10598
671.14043	-0.10965
669.21187	-0.11961
667.28330	-0.10725
665.35474	-0.07522
663.42617	-0.05682
661.49761	-0.06106
659.56904	-0.09601
657.64048	-0.14884
655.71191	-0.19179
653.78335	-0.17808
651.85479	-0.10944
649.92622	-0.07034
647.99766	-0.10469
646.06909	-0.18357
644.14053	-0.20077
642.21196	-0.11770
640.28340	-0.04250
638.35483	-0.03501
636.42627	-0.08828
634.49771	-0.12011
632.56914	-0.10419
630.64058	-0.10435
628.71201	-0.11499
626.78345	-0.09102
624.85488	-0.03966
622.92632	-0.01172
620.99775	-0.01356
619.06919	0.00058
617.14062	0.02273
615.21206	0.01674
613.28350	-0.02647
611.35493	-0.02943
609.42637	0.01886
607.49780	0.02131
605.56924	-0.03996
603.64067	-0.06342
601.71211	-0.01412
599.78354	0.02071
597.85498	0.00072
595.92642	-0.02560
593.99785	-0.00447
592.06929	0.03852
590.14072	0.05507
588.21216	0.03214
586.28359	-0.04044
584.35503	-0.10327
582.42646	-0.05550
580.49790	0.01538
578.56934	0.01652
576.64077	-0.02739
574.71221	-0.07726
572.78364	-0.04393
570.85508	-0.01023
568.92651	-0.08810
566.99795	-0.14717
565.06938	-0.11747
563.14082	-0.09891
561.21226	-0.11236
559.28369	-0.13440
557.35513	-0.14177
555.42656	-0.11668
553.49800	-0.10108
551.56943	-0.11839
549.64087	-0.13723
547.71230	-0.12937
545.78374	-0.11870
543.85518	-0.11160
541.92661	-0.08472
539.99805	-0.03626
538.06948	-0.02944
536.14092	-0.06016
534.21235	-0.04970
532.28379	0.00546
530.35522	0.04340
528.42666	0.01496
526.49810	-0.05565
524.56953	-0.09782
522.64097	-0.07433
520.71240	-0.02146
518.78384	0.00373
516.85527	-0.00847
514.92671	-0.03613
512.99814	-0.04521
511.06958	-0.03212
509.14102	-0.05200
507.21245	-0.09839
505.28389	-0.10363
503.35532	-0.08144
501.42676	-0.06814
499.49819	-0.05565
