3997.91411	0.08109
3995.98555	0.08169
3994.05698	0.08257
3992.12842	0.08335
3990.19985	0.08377
3988.27129	0.08385
3986.34272	0.08385
3984.41416	0.08392
3982.48560	0.08407
3980.55703	0.08446
3978.62847	0.08493
3976.69990	0.08520
3974.77134	0.08537
3972.84277	0.08551
3970.91421	0.08545
3968.98564	0.08516
3967.05708	0.08486
3965.12852	0.08479
3963.19995	0.08504
3961.27139	0.08549
3959.34282	0.08605
3957.41426	0.08642
3955.48569	0.08633
3953.55713	0.08610
3951.62856	0.08634
3949.70000	0.08705
3947.77144	0.08764
3945.84287	0.08759
3943.91431	0.08735
3941.98574	0.08720
3940.05718	0.08658
3938.12861	0.08569
3936.20005	0.08523
3934.27148	0.08576
3932.34292	0.08712
3930.41436	0.08796
3928.48579	0.08745
3926.55723	0.08666
3924.62866	0.08680
3922.70010	0.08715
3920.77153	0.08678
3918.84297	0.08679
3916.91440	0.08757
3914.98584	0.08746
3913.05728	0.08618
3911.12871	0.08522
3909.20015	0.08506
3907.27158	0.08595
3905.34302	0.08821
3903.41445	0.09077
3901.48589	0.09153
3899.55732	0.09045
3897.62876	0.08854
3895.70020	0.08679
3893.77163	0.08642
3891.84307	0.08735
3889.91450	0.08776
3887.98594	0.08715
3886.05737	0.08758
3884.12881	0.08909
3882.20024	0.08986
3880.27168	0.08995
3878.34312	0.08899
3876.41455	0.08762
3874.48599	0.08812
3872.55742	0.09039
3870.62886	0.09288
3868.70029	0.09391
3866.77173	0.09227
3864.84316	0.09085
3862.91460	0.09118
3860.98604	0.09099
3859.05747	0.09011
3857.12891	0.09052
3855.20034	0.09317
3853.27178	0.09771
3851.34321	0.09919
3849.41465	0.09568
3847.48608	0.09273
3845.55752	0.09212
3843.62896	0.09344
3841.70039	0.09571
3839.77183	0.09834
3837.84326	0.10060
3835.91470	0.10072
3833.98613	0.09951
3832.05757	0.09889
3830.12900	0.09868
3828.20044	0.09857
3826.27187	0.09895
3824.34331	0.09990
3822.41475	0.10184
3820.48618	0.10494
3818.55762	0.10656
3816.62905	0.10697
3814.70049	0.10714
3812.77192	0.10557
3810.84336	0.10399
3808.91479	0.10425
3806.98623	0.10647
3805.05767	0.10917
3803.12910	0.11139
3801.20054	0.11412
3799.27197	0.11534
3797.34341	0.11438
3795.41484	0.11367
3793.48628	0.11341
3791.55771	0.11377
3789.62915	0.11498
3787.70059	0.11651
3785.77202	0.11832
3783.84346	0.12039
3781.91489	0.12183
3779.98633	0.12313
3778.05776	0.12513
3776.12920	0.12639
3774.20063	0.12682
3772.27207	0.12830
3770.34351	0.13161
3768.41494	0.13496
3766.48638	0.13655
3764.55781	0.13780
3762.62925	0.13942
3760.70068	0.14171
3758.77212	0.14508
3756.84355	0.14809
3754.91499	0.15016
3752.98643	0.15333
3751.05786	0.15900
3749.12930	0.16413
3747.20073	0.16509
3745.27217	0.16605
3743.34360	0.16952
3741.41504	0.17257
3739.48647	0.17478
3737.55791	0.17852
3735.62935	0.18493
3733.70078	0.19155
3731.77222	0.19419
3729.84365	0.19488
3727.91509	0.19695
3725.98652	0.20175
3724.05796	0.20847
3722.12939	0.21547
3720.20083	0.22260
3718.27227	0.22940
3716.34370	0.23591
3714.41514	0.24335
3712.48657	0.25387
3710.55801	0.26855
3708.62944	0.28188
3706.70088	0.29088
3704.77231	0.29997
3702.84375	0.31240
3700.91519	0.32907
3698.98662	0.34652
3697.05806	0.36298
3695.12949	0.38117
3693.20093	0.40143
3691.27236	0.42427
3689.34380	0.45274
3687.41523	0.48513
3685.48667	0.51318
3683.55811	0.53836
3681.62954	0.56618
3679.70098	0.59786
3677.77241	0.63182
3675.84385	0.67257
3673.91528	0.72479
3671.98672	0.76629
3670.05815	0.80398
3668.12959	0.85476
3666.20103	0.90030
3664.27246	0.93869
3662.34390	0.98049
3660.41533	1.02631
3658.48677	1.07260
3656.55820	1.12243
3654.62964	1.17720
3652.70107	1.22347
3650.77251	1.26487
3648.84395	1.32119
3646.91538	1.38656
3644.98682	1.43329
3643.05825	1.47017
3641.12969	1.50894
3639.20112	1.55207
3637.27256	1.59620
3635.34399	1.63962
3633.41543	1.68275
3631.48687	1.72337
3629.55830	1.76540
3627.62974	1.81894
3625.70117	1.86666
3623.77261	1.89848
3621.84404	1.93051
3619.91548	1.96925
3617.98691	2.01585
3616.05835	2.06001
3614.12979	2.09698
3612.20122	2.13494
3610.27266	2.17360
3608.34409	2.21386
3606.41553	2.25511
3604.48696	2.29225
3602.55840	2.32751
3600.62983	2.36710
3598.70127	2.40889
3596.77271	2.44810
3594.84414	2.48790
3592.91558	2.53004
3590.98701	2.56960
3589.05845	2.60599
3587.12988	2.64865
3585.20132	2.69504
3583.27275	2.73532
3581.34419	2.77346
3579.41562	2.81424
3577.48706	2.85757
3575.55850	2.90222
3573.62993	2.94788
3571.70137	2.99098
3569.77280	3.03157
3567.84424	3.07647
3565.91567	3.13001
3563.98711	3.17680
3562.05854	3.21340
3560.12998	3.25294
3558.20142	3.29725
3556.27285	3.34201
3554.34429	3.38636
3552.41572	3.43422
3550.48716	3.48268
3548.55859	3.52737
3546.63003	3.57299
3544.70146	3.62341
3542.77290	3.67223
3540.84434	3.71719
3538.91577	3.76269
3536.98721	3.80942
3535.05864	3.85946
3533.13008	3.90974
3531.20151	3.95621
3529.27295	4.00393
3527.34438	4.05803
3525.41582	4.11047
3523.48726	4.15487
3521.55869	4.19891
3519.63013	4.24550
3517.70156	4.29137
3515.77300	4.33840
3513.84443	4.39027
3511.91587	4.44160
3509.98730	4.49010
3508.05874	4.54106
3506.13018	4.59097
3504.20161	4.63496
3502.27305	4.67785
3500.34448	4.72426
3498.41592	4.77332
3496.48735	4.82341
3494.55879	4.87028
3492.63022	4.91245
3490.70166	4.95680
3488.77310	5.01081
3486.84453	5.07009
3484.91597	5.12698
3482.98740	5.18313
3481.05884	5.23233
3479.13027	5.26668
3477.20171	5.30433
3475.27314	5.36081
3473.34458	5.41831
3471.41602	5.45652
3469.48745	5.48941
3467.55889	5.53833
3465.63032	5.59389
3463.70176	5.64342
3461.77319	5.70126
3459.84463	5.77098
3457.91606	5.83375
3455.98750	5.88686
3454.05894	5.92847
3452.13037	5.95978
3450.20181	5.99985
3448.27324	6.05448
3446.34468	6.11404
3444.41611	6.17299
3442.48755	6.24096
3440.55898	6.30707
3438.63042	6.35094
3436.70186	6.37943
3434.77329	6.41389
3432.84473	6.45850
3430.91616	6.50686
3428.98760	6.56693
3427.05903	6.62200
3425.13047	6.66949
3423.20190	6.73007
3421.27334	6.79271
3419.34478	6.83490
3417.41621	6.87242
3415.48765	6.91004
3413.55908	6.93403
3411.63052	6.98334
3409.70195	7.06063
3407.77339	7.13153
3405.84482	7.18569
3403.91626	7.23363
3401.98770	7.28992
3400.05913	7.35622
3398.13057	7.41792
3396.20200	7.45106
3394.27344	7.47115
3392.34487	7.49659
3390.41631	7.52630
3388.48774	7.55642
3386.55918	7.60348
3384.63062	7.66027
3382.70205	7.69680
3380.77349	7.69822
3378.84492	7.67672
3376.91636	7.67882
3374.98779	7.72223
3373.05923	7.79369
3371.13066	7.84472
3369.20210	7.86987
3367.27354	7.89434
3365.34497	7.93757
3363.41641	8.01651
3361.48784	8.07907
3359.55928	8.09124
3357.63071	8.12746
3355.70215	8.21003
3353.77358	8.21511
3351.84502	8.14609
3349.91646	8.07650
3347.98789	8.02935
3346.05933	8.01865
3344.13076	8.03265
3342.20220	8.09527
3340.27363	8.23518
3338.34507	8.41111
3336.41650	8.50391
3334.48794	8.47592
3332.55937	8.36597
3330.63081	8.29685
3328.70225	8.31228
3326.77368	8.31785
3324.84512	8.32528
3322.91655	8.38633
3320.98799	8.49992
3319.05942	8.57434
3317.13086	8.55134
3315.20229	8.48686
3313.27373	8.40476
3311.34517	8.38104
3309.41660	8.47341
3307.48804	8.49666
3305.55947	8.35354
3303.63091	8.24178
3301.70234	8.23087
3299.77378	8.26265
3297.84521	8.28300
3295.91665	8.37258
3293.98809	8.54968
3292.05952	8.57378
3290.13096	8.42095
3288.20239	8.38896
3286.27383	8.56162
3284.34526	8.71467
3282.41670	8.69062
3280.48813	8.59014
3278.55957	8.53326
3276.63101	8.49426
3274.70244	8.42029
3272.77388	8.37501
3270.84531	8.43215
3268.91675	8.55552
3266.98818	8.59641
3265.05962	8.59570
3263.13105	8.66575
3261.20249	8.73398
3259.27393	8.71384
3257.34536	8.64012
3255.41680	8.60685
3253.48823	8.67105
3251.55967	8.80258
3249.63110	8.84476
3247.70254	8.75010
3245.77397	8.73368
3243.84541	8.85059
3241.91685	8.86200
3239.98828	8.77124
3238.05972	8.70829
3236.13115	8.60707
3234.20259	8.55302
3232.27402	8.59261
3230.34546	8.59221
3228.41689	8.58546
3226.48833	8.63179
3224.55977	8.59694
3222.63120	8.49687
3220.70264	8.45227
3218.77407	8.37478
3216.84551	8.23758
3214.91694	8.17642
3212.98838	8.17029
3211.05981	8.16694
3209.13125	8.22916
3207.20269	8.30525
3205.27412	8.28773
3203.34556	8.23784
3201.41699	8.22238
3199.48843	8.17603
3197.55986	8.04620
3195.63130	7.89644
3193.70273	7.79328
3191.77417	7.74990
3189.84561	7.76259
3187.91704	7.78279
3185.98848	7.73537
3184.05991	7.61057
3182.13135	7.46970
3180.20278	7.40150
3178.27422	7.40346
3176.34565	7.35791
3174.41709	7.25799
3172.48853	7.20839
3170.55996	7.20056
3168.63140	7.16439
3166.70283	7.08760
3164.77427	6.99701
3162.84570	6.90874
3160.91714	6.81673
3158.98857	6.73548
3157.06001	6.68228
3155.13145	6.63907
3153.20288	6.57141
3151.27432	6.47575
3149.34575	6.38575
3147.41719	6.32210
3145.48862	6.26928
3143.56006	6.20278
3141.63149	6.11631
3139.70293	6.01591
3137.77437	5.92024
3135.84580	5.84715
3133.91724	5.79038
3131.98867	5.73072
3130.06011	5.67065
3128.13154	5.62007
3126.20298	5.56007
3124.27441	5.47340
3122.34585	5.37616
3120.41729	5.29298
3118.48872	5.22800
3116.56016	5.16761
3114.63159	5.09646
3112.70303	5.01693
3110.77446	4.94289
3108.84590	4.87577
3106.91733	4.81130
3104.98877	4.74750
3103.06021	4.68100
3101.13164	4.60937
3099.20308	4.53858
3097.27451	4.47501
3095.34595	4.41433
3093.41738	4.35073
3091.48882	4.28439
3089.56025	4.21880
3087.63169	4.15537
3085.70312	4.09286
3083.77456	4.03106
3081.84600	3.97031
3079.91743	3.91002
3077.98887	3.85017
3076.06030	3.79155
3074.13174	3.73465
3072.20317	3.67747
3070.27461	3.61824
3068.34604	3.56023
3066.41748	3.50587
3064.48892	3.45318
3062.56035	3.39872
3060.63179	3.34145
3058.70322	3.28436
3056.77466	3.22936
3054.84609	3.17624
3052.91753	3.12546
3050.98896	3.07619
3049.06040	3.02599
3047.13184	2.97450
3045.20327	2.92385
3043.27471	2.87503
3041.34614	2.82680
3039.41758	2.77911
3037.48901	2.73264
3035.56045	2.68647
3033.63188	2.64071
3031.70332	2.59657
3029.77476	2.55384
3027.84619	2.51064
3025.91763	2.46633
3023.98906	2.42302
3022.06050	2.38137
3020.13193	2.33971
3018.20337	2.29808
3016.27480	2.25804
3014.34624	2.21975
3012.41768	2.18167
3010.48911	2.14304
3008.56055	2.10515
3006.63198	2.06881
3004.70342	2.03336
3002.77485	1.99834
3000.84629	1.96381
2998.91772	1.92997
2996.98916	1.89721
2995.06060	1.86552
2993.13203	1.83436
2991.20347	1.80390
2989.27490	1.77482
2987.34634	1.74652
2985.41777	1.71803
2983.48921	1.69008
2981.56064	1.66337
2979.63208	1.63725
2977.70352	1.61166
2975.77495	1.58692
2973.84639	1.56241
2971.91782	1.53815
2969.98926	1.51506
2968.06069	1.49330
2966.13213	1.47171
2964.20356	1.44940
2962.27500	1.42695
2960.34644	1.40480
2958.41787	1.38257
2956.48931	1.35972
2954.56074	1.33623
2952.63218	1.31269
2950.70361	1.28934
2948.77505	1.26595
2946.84648	1.24297
2944.91792	1.22132
2942.98936	1.20129
2941.06079	1.18238
2939.13223	1.16386
2937.20366	1.14578
2935.27510	1.12840
2933.34653	1.11108
2931.41797	1.09356
2929.48940	1.07633
2927.56084	1.05949
2925.63228	1.04245
2923.70371	1.02484
2921.77515	1.00678
2919.84658	0.98799
2917.91802	0.96849
2915.98945	0.94895
2914.06089	0.92940
2912.13232	0.91031
2910.20376	0.89237
2908.27520	0.87529
2906.34663	0.85889
2904.41807	0.84323
2902.48950	0.82831
2900.56094	0.81385
2898.63237	0.79964
2896.70381	0.78585
2894.77524	0.77219
2892.84668	0.75861
2890.91812	0.74577
2888.98955	0.73357
2887.06099	0.72170
2885.13242	0.71059
2883.20386	0.70038
2881.27529	0.69072
2879.34673	0.68147
2877.41816	0.67247
2875.48960	0.66341
2873.56104	0.65399
2871.63247	0.64407
2869.70391	0.63367
2867.77534	0.62254
2865.84678	0.61062
2863.91821	0.59882
2861.98965	0.58803
2860.06108	0.57822
2858.13252	0.56893
2856.20396	0.56007
2854.27539	0.55167
2852.34683	0.54331
2850.41826	0.53451
2848.48970	0.52499
2846.56113	0.51491
2844.63257	0.50476
2842.70400	0.49507
2840.77544	0.48642
2838.84687	0.47883
2836.91831	0.47166
2834.98975	0.46479
2833.06118	0.45845
2831.13262	0.45232
2829.20405	0.44615
2827.27549	0.43999
2825.34692	0.43372
2823.41836	0.42734
2821.48979	0.42111
2819.56123	0.41506
2817.63267	0.40912
2815.70410	0.40342
2813.77554	0.39792
2811.84697	0.39246
2809.91841	0.38706
2807.98984	0.38174
2806.06128	0.37655
2804.13271	0.37143
2802.20415	0.36613
2800.27559	0.36083
2798.34702	0.35590
2796.41846	0.35116
2794.48989	0.34631
2792.56133	0.34155
2790.63276	0.33714
2788.70420	0.33284
2786.77563	0.32840
2784.84707	0.32396
2782.91851	0.31969
2780.98994	0.31546
2779.06138	0.31118
2777.13281	0.30704
2775.20425	0.30316
2773.27568	0.29941
2771.34712	0.29575
2769.41855	0.29214
2767.48999	0.28845
2765.56143	0.28475
2763.63286	0.28122
2761.70430	0.27793
2759.77573	0.27473
2757.84717	0.27139
2755.91860	0.26794
2753.99004	0.26470
2752.06147	0.26183
2750.13291	0.25909
2748.20435	0.25611
2746.27578	0.25309
2744.34722	0.25033
2742.41865	0.24764
2740.49009	0.24495
2738.56152	0.24237
2736.63296	0.23991
2734.70439	0.23754
2732.77583	0.23515
2730.84727	0.23276
2728.91870	0.23051
2726.99014	0.22826
2725.06157	0.22584
2723.13301	0.22341
2721.20444	0.22116
2719.27588	0.21907
2717.34731	0.21710
2715.41875	0.21524
2713.49019	0.21339
2711.56162	0.21150
2709.63306	0.20959
2707.70449	0.20776
2705.77593	0.20617
2703.84736	0.20460
2701.91880	0.20289
2699.99023	0.20138
2698.06167	0.20017
2696.13311	0.19885
2694.20454	0.19733
2692.27598	0.19582
2690.34741	0.19439
2688.41885	0.19308
2686.49028	0.19194
2684.56172	0.19094
2682.63315	0.18980
2680.70459	0.18849
2678.77603	0.18722
2676.84746	0.18609
2674.91890	0.18506
2672.99033	0.18399
2671.06177	0.18286
2669.13320	0.18178
2667.20464	0.18083
2665.27607	0.17994
2663.34751	0.17901
2661.41895	0.17807
2659.49038	0.17719
2657.56182	0.17627
2655.63325	0.17533
2653.70469	0.17451
2651.77612	0.17387
2649.84756	0.17333
2647.91899	0.17273
2645.99043	0.17203
2644.06187	0.17145
2642.13330	0.17094
2640.20474	0.17030
2638.27617	0.16965
2636.34761	0.16906
2634.41904	0.16845
2632.49048	0.16788
2630.56191	0.16741
2628.63335	0.16703
2626.70479	0.16667
2624.77622	0.16635
2622.84766	0.16625
2620.91909	0.16627
2618.99053	0.16611
2617.06196	0.16568
2615.13340	0.16518
2613.20483	0.16478
2611.27627	0.16450
2609.34771	0.16420
2607.41914	0.16391
2605.49058	0.16390
2603.56201	0.16404
2601.63345	0.16405
2599.70488	0.16395
2597.77632	0.16391
2595.84775	0.16394
2593.91919	0.16393
2591.99062	0.16395
2590.06206	0.16399
2588.13350	0.16400
2586.20493	0.16414
2584.27637	0.16445
2582.34780	0.16473
2580.41924	0.16484
2578.49067	0.16487
2576.56211	0.16503
2574.63354	0.16535
2572.70498	0.16572
2570.77642	0.16603
2568.84785	0.16626
2566.91929	0.16643
2564.99072	0.16661
2563.06216	0.16694
2561.13359	0.16737
2559.20503	0.16776
2557.27646	0.16818
2555.34790	0.16873
2553.41934	0.16926
2551.49077	0.16961
2549.56221	0.16994
2547.63364	0.17043
2545.70508	0.17103
2543.77651	0.17163
2541.84795	0.17213
2539.91938	0.17258
2537.99082	0.17318
2536.06226	0.17390
2534.13369	0.17454
2532.20513	0.17503
2530.27656	0.17547
2528.34800	0.17603
2526.41943	0.17674
2524.49087	0.17748
2522.56230	0.17820
2520.63374	0.17889
2518.70518	0.17956
2516.77661	0.18032
2514.84805	0.18113
2512.91948	0.18193
2510.99092	0.18269
2509.06235	0.18338
2507.13379	0.18408
2505.20522	0.18492
2503.27666	0.18578
2501.34810	0.18650
2499.41953	0.18721
2497.49097	0.18802
2495.56240	0.18874
2493.63384	0.18935
2491.70527	0.19003
2489.77671	0.19084
2487.84814	0.19172
2485.91958	0.19258
2483.99102	0.19340
2482.06245	0.19416
2480.13389	0.19494
2478.20532	0.19593
2476.27676	0.19699
2474.34819	0.19787
2472.41963	0.19855
2470.49106	0.19916
2468.56250	0.19995
2466.63394	0.20080
2464.70537	0.20154
2462.77681	0.20238
2460.84824	0.20337
2458.91968	0.20430
2456.99111	0.20512
2455.06255	0.20599
2453.13398	0.20692
2451.20542	0.20794
2449.27686	0.20900
2447.34829	0.20998
2445.41973	0.21091
2443.49116	0.21189
2441.56260	0.21290
2439.63403	0.21388
2437.70547	0.21483
2435.77690	0.21573
2433.84834	0.21667
2431.91978	0.21781
2429.99121	0.21904
2428.06265	0.22007
2426.13408	0.22097
2424.20552	0.22194
2422.27695	0.22290
2420.34839	0.22373
2418.41982	0.22455
2416.49126	0.22556
2414.56270	0.22678
2412.63413	0.22809
2410.70557	0.22935
2408.77700	0.23050
2406.84844	0.23163
2404.91987	0.23289
2402.99131	0.23420
2401.06274	0.23549
2399.13418	0.23665
2397.20562	0.23764
2395.27705	0.23864
2393.34849	0.23977
2391.41992	0.24107
2389.49136	0.24245
2387.56279	0.24375
2385.63423	0.24492
2383.70566	0.24606
2381.77710	0.24705
2379.84854	0.24794
2377.91997	0.24906
2375.99141	0.25042
2374.06284	0.25166
2372.13428	0.25267
2370.20571	0.25377
2368.27715	0.25485
2366.34858	0.25580
2364.42002	0.25716
2362.49146	0.25907
2360.56289	0.26077
2358.63433	0.26206
2356.70576	0.26391
2354.77720	0.26627
2352.84863	0.26812
2350.92007	0.26940
2348.99150	0.27054
2347.06294	0.27178
2345.13437	0.27354
2343.20581	0.27563
2341.27725	0.27679
2339.34868	0.27715
2337.42012	0.27833
2335.49155	0.28067
2333.56299	0.28269
2331.63442	0.28436
2329.70586	0.28642
2327.77729	0.28809
2325.84873	0.28929
2323.92017	0.29103
2321.99160	0.29319
2320.06304	0.29510
2318.13447	0.29681
2316.20591	0.29855
2314.27734	0.30028
2312.34878	0.30195
2310.42021	0.30362
2308.49165	0.30532
2306.56309	0.30709
2304.63452	0.30894
2302.70596	0.31078
2300.77739	0.31257
2298.84883	0.31437
2296.92026	0.31626
2294.99170	0.31825
2293.06313	0.32025
2291.13457	0.32216
2289.20601	0.32396
2287.27744	0.32575
2285.34888	0.32760
2283.42031	0.32960
2281.49175	0.33170
2279.56318	0.33366
2277.63462	0.33542
2275.70605	0.33718
2273.77749	0.33912
2271.84893	0.34120
2269.92036	0.34335
2267.99180	0.34551
2266.06323	0.34768
2264.13467	0.34981
2262.20610	0.35189
2260.27754	0.35399
2258.34897	0.35607
2256.42041	0.35807
2254.49185	0.36021
2252.56328	0.36252
2250.63472	0.36474
2248.70615	0.36690
2246.77759	0.36919
2244.84902	0.37151
2242.92046	0.37374
2240.99189	0.37588
2239.06333	0.37793
2237.13477	0.37996
2235.20620	0.38215
2233.27764	0.38447
2231.34907	0.38672
2229.42051	0.38883
2227.49194	0.39091
2225.56338	0.39299
2223.63481	0.39511
2221.70625	0.39734
2219.77769	0.39959
2217.84912	0.40174
2215.92056	0.40390
2213.99199	0.40604
2212.06343	0.40810
2210.13486	0.41021
2208.20630	0.41240
2206.27773	0.41446
2204.34917	0.41638
2202.42061	0.41838
2200.49204	0.42050
2198.56348	0.42255
2196.63491	0.42453
2194.70635	0.42655
2192.77778	0.42852
2190.84922	0.43030
2188.92065	0.43197
2186.99209	0.43384
2185.06353	0.43582
2183.13496	0.43758
2181.20640	0.43906
2179.27783	0.44051
2177.34927	0.44209
2175.42070	0.44363
2173.49214	0.44502
2171.56357	0.44632
2169.63501	0.44760
2167.70645	0.44885
2165.77788	0.45011
2163.84932	0.45144
2161.92075	0.45272
2159.99219	0.45380
2158.06362	0.45476
2156.13506	0.45577
2154.20649	0.45670
2152.27793	0.45739
2150.34937	0.45788
2148.42080	0.45834
2146.49224	0.45890
2144.56367	0.45948
2142.63511	0.45989
2140.70654	0.46012
2138.77798	0.46028
2136.84941	0.46044
2134.92085	0.46058
2132.99229	0.46062
2131.06372	0.46045
2129.13516	0.46007
2127.20659	0.45969
2125.27803	0.45952
2123.34946	0.45926
2121.42090	0.45868
2119.49233	0.45800
2117.56377	0.45736
2115.63521	0.45670
2113.70664	0.45596
2111.77808	0.45513
2109.84951	0.45417
2107.92095	0.45309
2105.99238	0.45185
2104.06382	0.45054
2102.13525	0.44922
2100.20669	0.44788
2098.27812	0.44645
2096.34956	0.44489
2094.42100	0.44326
2092.49243	0.44161
2090.56387	0.43995
2088.63530	0.43826
2086.70674	0.43654
2084.77817	0.43473
2082.84961	0.43283
2080.92104	0.43088
2078.99248	0.42883
2077.06392	0.42668
2075.13535	0.42448
2073.20679	0.42225
2071.27822	0.41994
2069.34966	0.41764
2067.42109	0.41533
2065.49253	0.41299
2063.56396	0.41056
2061.63540	0.40805
2059.70684	0.40551
2057.77827	0.40299
2055.84971	0.40050
2053.92114	0.39800
2051.99258	0.39547
2050.06401	0.39284
2048.13545	0.39012
2046.20688	0.38737
2044.27832	0.38473
2042.34976	0.38216
2040.42119	0.37960
2038.49263	0.37692
2036.56406	0.37404
2034.63550	0.37114
2032.70693	0.36841
2030.77837	0.36575
2028.84980	0.36299
2026.92124	0.36015
2024.99268	0.35732
2023.06411	0.35454
2021.13555	0.35179
2019.20698	0.34916
2017.27842	0.34665
2015.34985	0.34396
2013.42129	0.34106
2011.49272	0.33816
2009.56416	0.33532
2007.63560	0.33256
2005.70703	0.32992
2003.77847	0.32729
2001.84990	0.32468
1999.92134	0.32214
1997.99277	0.31961
1996.06421	0.31710
1994.13564	0.31473
1992.20708	0.31241
1990.27852	0.30987
1988.34995	0.30720
1986.42139	0.30464
1984.49282	0.30217
1982.56426	0.29982
1980.63569	0.29758
1978.70713	0.29536
1976.77856	0.29313
1974.85000	0.29097
1972.92144	0.28885
1970.99287	0.28678
1969.06431	0.28491
1967.13574	0.28314
1965.20718	0.28109
1963.27861	0.27888
1961.35005	0.27690
1959.42148	0.27506
1957.49292	0.27327
1955.56436	0.27154
1953.63579	0.26983
1951.70723	0.26810
1949.77866	0.26646
1947.85010	0.26501
1945.92153	0.26370
1943.99297	0.26241
1942.06440	0.26098
1940.13584	0.25931
1938.20728	0.25770
1936.27871	0.25629
1934.35015	0.25497
1932.42158	0.25369
1930.49302	0.25245
1928.56445	0.25128
1926.63589	0.25019
1924.70732	0.24935
1922.77876	0.24865
1920.85020	0.24779
1918.92163	0.24694
1916.99307	0.24602
1915.06450	0.24490
1913.13594	0.24397
1911.20737	0.24340
1909.27881	0.24287
1907.35024	0.24218
1905.42168	0.24136
1903.49312	0.24063
1901.56455	0.24000
1899.63599	0.23944
1897.70742	0.23909
1895.77886	0.23894
1893.85029	0.23877
1891.92173	0.23855
1889.99316	0.23853
1888.06460	0.23837
1886.13604	0.23789
1884.20747	0.23742
1882.27891	0.23712
1880.35034	0.23700
1878.42178	0.23693
1876.49321	0.23685
1874.56465	0.23674
1872.63608	0.23680
1870.70752	0.23730
1868.77896	0.23831
1866.85039	0.23878
1864.92183	0.23835
1862.99326	0.23803
1861.06470	0.23821
1859.13613	0.23864
1857.20757	0.23902
1855.27900	0.23934
1853.35044	0.23963
1851.42187	0.24018
1849.49331	0.24104
1847.56475	0.24207
1845.63618	0.24325
1843.70762	0.24440
1841.77905	0.24489
1839.85049	0.24504
1837.92192	0.24566
1835.99336	0.24650
1834.06479	0.24739
1832.13623	0.24863
1830.20767	0.25052
1828.27910	0.25218
1826.35054	0.25307
1824.42197	0.25408
1822.49341	0.25501
1820.56484	0.25601
1818.63628	0.25735
1816.70771	0.25898
1814.77915	0.26062
1812.85059	0.26245
1810.92202	0.26461
1808.99346	0.26662
1807.06489	0.26838
1805.13633	0.27025
1803.20776	0.27262
1801.27920	0.27536
1799.35063	0.27820
1797.42207	0.28063
1795.49351	0.28310
1793.56494	0.28623
1791.63638	0.29001
1789.70781	0.29301
1787.77925	0.29508
1785.85068	0.29801
1783.92212	0.30176
1781.99355	0.30589
1780.06499	0.31022
1778.13643	0.31443
1776.20786	0.31840
1774.27930	0.32303
1772.35073	0.32943
1770.42217	0.33579
1768.49360	0.34057
1766.56504	0.34513
1764.63647	0.35017
1762.70791	0.35622
1760.77935	0.36397
1758.85078	0.37123
1756.92222	0.37862
1754.99365	0.38665
1753.06509	0.39403
1751.13652	0.40307
1749.20796	0.41429
1747.27939	0.42486
1745.35083	0.43384
1743.42227	0.44327
1741.49370	0.45370
1739.56514	0.46585
1737.63657	0.47788
1735.70801	0.48886
1733.77944	0.50538
1731.85088	0.52411
1729.92231	0.53860
1727.99375	0.55346
1726.06519	0.56986
1724.13662	0.58812
1722.20806	0.60795
1720.27949	0.62667
1718.35093	0.64918
1716.42236	0.68143
1714.49380	0.71093
1712.56523	0.73454
1710.63667	0.75784
1708.70811	0.78372
1706.77954	0.81371
1704.85098	0.84932
1702.92241	0.88129
1700.99385	0.91393
1699.06528	0.96181
1697.13672	1.00502
1695.20815	1.04882
1693.27959	1.09176
1691.35103	1.12753
1689.42246	1.16985
1687.49390	1.21503
1685.56533	1.25963
1683.63677	1.32661
1681.70820	1.39389
1679.77964	1.43765
1677.85107	1.48058
1675.92251	1.53081
1673.99395	1.59210
1672.06538	1.64667
1670.13682	1.70101
1668.20825	1.77117
1666.27969	1.82966
1664.35112	1.88095
1662.42256	1.94629
1660.49399	2.02093
1658.56543	2.07994
1656.63687	2.12741
1654.70830	2.17173
1652.77974	2.23515
1650.85117	2.28771
1648.92261	2.30564
1646.99404	2.32943
1645.06548	2.35101
1643.13691	2.36247
1641.20835	2.36840
1639.27979	2.37497
1637.35122	2.37967
1635.42266	2.37806
1633.49409	2.36456
1631.56553	2.34453
1629.63696	2.32338
1627.70840	2.29253
1625.77983	2.25673
1623.85127	2.21097
1621.92271	2.15434
1619.99414	2.10381
1618.06558	2.05616
1616.13701	1.98990
1614.20845	1.92122
1612.27988	1.86855
1610.35132	1.81502
1608.42275	1.75726
1606.49419	1.70008
1604.56562	1.64745
1602.63706	1.59741
1600.70850	1.54960
1598.77993	1.50612
1596.85137	1.46543
1594.92280	1.42592
1592.99424	1.38779
1591.06567	1.35307
1589.13711	1.32124
1587.20854	1.29227
1585.27998	1.26584
1583.35142	1.24154
1581.42285	1.21991
1579.49429	1.20212
1577.56572	1.18710
1575.63716	1.16979
1573.70859	1.15440
1571.78003	1.14461
1569.85146	1.13599
1567.92290	1.12737
1565.99434	1.12155
1564.06577	1.11881
1562.13721	1.11854
1560.20864	1.12230
1558.28008	1.13300
1556.35151	1.14050
1554.42295	1.14399
1552.49438	1.14807
1550.56582	1.15040
1548.63726	1.14945
1546.70869	1.14520
1544.78013	1.13776
1542.85156	1.12699
1540.92300	1.10866
1538.99443	1.07588
1537.06587	1.04944
1535.13730	1.03150
1533.20874	1.00889
1531.28018	0.98461
1529.35161	0.96678
1527.42305	0.95064
1525.49448	0.93412
1523.56592	0.92028
1521.63735	0.90796
1519.70879	0.89526
1517.78022	0.88376
1515.85166	0.87023
1513.92310	0.85546
1511.99453	0.84248
1510.06597	0.83154
1508.13740	0.82179
1506.20884	0.80546
1504.28027	0.78875
1502.35171	0.77915
1500.42314	0.77180
1498.49458	0.76456
1496.56602	0.75594
1494.63745	0.74680
1492.70889	0.73970
1490.78032	0.73412
1488.85176	0.72799
1486.92319	0.72135
1484.99463	0.71571
1483.06606	0.71163
1481.13750	0.70862
1479.20894	0.70657
1477.28037	0.70593
1475.35181	0.70669
1473.42324	0.70825
1471.49468	0.70879
1469.56611	0.70729
1467.63755	0.70527
1465.70898	0.70367
1463.78042	0.70261
1461.85186	0.70225
1459.92329	0.70308
1457.99473	0.70519
1456.06616	0.70571
1454.13760	0.70250
1452.20903	0.69889
1450.28047	0.69579
1448.35190	0.69299
1446.42334	0.68993
1444.49478	0.68682
1442.56621	0.68381
1440.63765	0.68076
1438.70908	0.67786
1436.78052	0.67422
1434.85195	0.66960
1432.92339	0.66603
1430.99482	0.66388
1429.06626	0.66264
1427.13770	0.66243
1425.20913	0.66332
1423.28057	0.66463
1421.35200	0.66567
1419.42344	0.66690
1417.49487	0.66748
1415.56631	0.66636
1413.63774	0.66540
1411.70918	0.66562
1409.78062	0.66690
1407.85205	0.66907
1405.92349	0.67185
1403.99492	0.67408
1402.06636	0.67482
1400.13779	0.67470
1398.20923	0.67385
1396.28066	0.67159
1394.35210	0.66737
1392.42354	0.66192
1390.49497	0.65677
1388.56641	0.65181
1386.63784	0.64611
1384.70928	0.63995
1382.78071	0.63405
1380.85215	0.62853
1378.92358	0.62393
1376.99502	0.62075
1375.06646	0.61864
1373.13789	0.61677
1371.20933	0.61523
1369.28076	0.61431
1367.35220	0.61326
1365.42363	0.61172
1363.49507	0.61014
1361.56650	0.60848
1359.63794	0.60661
1357.70937	0.60496
1355.78081	0.60358
1353.85225	0.60238
1351.92368	0.60149
1349.99512	0.60079
1348.06655	0.59997
1346.13799	0.59903
1344.20942	0.59821
1342.28086	0.59768
1340.35229	0.59744
1338.42373	0.59700
1336.49517	0.59621
1334.56660	0.59571
1332.63804	0.59572
1330.70947	0.59606
1328.78091	0.59661
1326.85234	0.59739
1324.92378	0.59845
1322.99521	0.59974
1321.06665	0.60106
1319.13809	0.60212
1317.20952	0.60267
1315.28096	0.60272
1313.35239	0.60244
1311.42383	0.60200
1309.49526	0.60159
1307.56670	0.60125
1305.63813	0.60090
1303.70957	0.60047
1301.78101	0.59992
1299.85244	0.59909
1297.92388	0.59800
1295.99531	0.59681
1294.06675	0.59552
1292.13818	0.59406
1290.20962	0.59261
1288.28105	0.59125
1286.35249	0.58990
1284.42393	0.58847
1282.49536	0.58697
1280.56680	0.58552
1278.63823	0.58404
1276.70967	0.58257
1274.78110	0.58134
1272.85254	0.58039
1270.92397	0.57957
1268.99541	0.57877
1267.06685	0.57799
1265.13828	0.57710
1263.20972	0.57606
1261.28115	0.57499
1259.35259	0.57399
1257.42402	0.57324
1255.49546	0.57291
1253.56689	0.57294
1251.63833	0.57310
1249.70977	0.57320
1247.78120	0.57321
1245.85264	0.57305
1243.92407	0.57240
1241.99551	0.57125
1240.06694	0.56971
1238.13838	0.56765
1236.20981	0.56518
1234.28125	0.56256
1232.35269	0.55999
1230.42412	0.55765
1228.49556	0.55540
1226.56699	0.55301
1224.63843	0.55071
1222.70986	0.54867
1220.78130	0.54690
1218.85273	0.54540
1216.92417	0.54409
1214.99561	0.54293
1213.06704	0.54190
1211.13848	0.54114
1209.20991	0.54049
1207.28135	0.53964
1205.35278	0.53846
1203.42422	0.53717
1201.49565	0.53622
1199.56709	0.53554
1197.63853	0.53483
1195.70996	0.53422
1193.78140	0.53384
1191.85283	0.53351
1189.92427	0.53301
1187.99570	0.53245
1186.06714	0.53232
1184.13857	0.53265
1182.21001	0.53306
1180.28145	0.53376
1178.35288	0.53510
1176.42432	0.53682
1174.49575	0.53826
1172.56719	0.53912
1170.63862	0.53955
1168.71006	0.53962
1166.78149	0.53930
1164.85293	0.53891
1162.92437	0.53860
1160.99580	0.53809
1159.06724	0.53727
1157.13867	0.53625
1155.21011	0.53510
1153.28154	0.53398
1151.35298	0.53272
1149.42441	0.53092
1147.49585	0.52852
1145.56729	0.52577
1143.63872	0.52308
1141.71016	0.52085
1139.78159	0.51905
1137.85303	0.51745
1135.92446	0.51614
1133.99590	0.51534
1132.06733	0.51503
1130.13877	0.51497
1128.21021	0.51481
1126.28164	0.51439
1124.35308	0.51375
1122.42451	0.51298
1120.49595	0.51241
1118.56738	0.51230
1116.63882	0.51258
1114.71025	0.51301
1112.78169	0.51337
1110.85312	0.51372
1108.92456	0.51424
1106.99600	0.51506
1105.06743	0.51628
1103.13887	0.51776
1101.21030	0.51920
1099.28174	0.52075
1097.35317	0.52287
1095.42461	0.52575
1093.49604	0.52932
1091.56748	0.53360
1089.63892	0.53872
1087.71035	0.54493
1085.78179	0.55215
1083.85322	0.55960
1081.92466	0.56626
1079.99609	0.57155
1078.06753	0.57483
1076.13896	0.57521
1074.21040	0.57244
1072.28184	0.56713
1070.35327	0.56047
1068.42471	0.55352
1066.49614	0.54662
1064.56758	0.54008
1062.63901	0.53424
1060.71045	0.52904
1058.78188	0.52439
1056.85332	0.52044
1054.92476	0.51690
1052.99619	0.51336
1051.06763	0.51033
1049.13906	0.50811
1047.21050	0.50625
1045.28193	0.50477
1043.35337	0.50369
1041.42480	0.50260
1039.49624	0.50158
1037.56768	0.50071
1035.63911	0.49985
1033.71055	0.49901
1031.78198	0.49820
1029.85342	0.49739
1027.92485	0.49684
1025.99629	0.49645
1024.06772	0.49592
1022.13916	0.49556
1020.21060	0.49575
1018.28203	0.49610
1016.35347	0.49630
1014.42490	0.49643
1012.49634	0.49663
1010.56777	0.49696
1008.63921	0.49760
1006.71064	0.49871
1004.78208	0.50017
1002.85352	0.50216
1000.92495	0.50489
998.99639	0.50828
997.06782	0.51225
995.13926	0.51662
993.21069	0.52080
991.28213	0.52417
989.35356	0.52645
987.42500	0.52767
985.49644	0.52813
983.56787	0.52846
981.63931	0.52909
979.71074	0.53004
977.78218	0.53141
975.85361	0.53344
973.92505	0.53603
971.99648	0.53891
970.06792	0.54197
968.13936	0.54542
966.21079	0.54942
964.28223	0.55373
962.35366	0.55838
960.42510	0.56360
958.49653	0.56915
956.56797	0.57483
954.63940	0.58102
952.71084	0.58778
950.78228	0.59455
948.85371	0.60102
946.92515	0.60716
944.99658	0.61331
943.06802	0.61981
941.13945	0.62646
939.21089	0.63283
937.28232	0.63887
935.35376	0.64454
933.42520	0.64980
931.49663	0.65521
929.56807	0.66129
927.63950	0.66776
925.71094	0.67451
923.78237	0.68134
921.85381	0.68764
919.92524	0.69425
917.99668	0.70174
916.06812	0.70916
914.13955	0.71633
912.21099	0.72407
910.28242	0.73282
908.35386	0.74173
906.42529	0.75033
904.49673	0.75930
902.56816	0.76877
900.63960	0.77842
898.71104	0.78832
896.78247	0.79837
894.85391	0.80825
892.92534	0.81805
890.99678	0.82885
889.06821	0.84040
887.13965	0.84985
885.21108	0.85806
883.28252	0.86889
881.35396	0.88184
879.42539	0.89502
877.49683	0.90814
875.56826	0.92093
873.63970	0.93363
871.71113	0.94573
869.78257	0.95662
867.85400	0.96766
865.92544	0.97876
863.99687	0.98933
862.06831	1.00029
860.13975	1.01162
858.21118	1.02327
856.28262	1.03518
854.35405	1.04705
852.42549	1.05929
850.49692	1.07332
848.56836	1.08882
846.63979	1.10204
844.71123	1.11341
842.78267	1.12777
840.85410	1.14426
838.92554	1.15647
836.99697	1.16384
835.06841	1.17208
833.13984	1.18564
831.21128	1.20217
829.28271	1.21686
827.35415	1.23380
825.42559	1.25394
823.49702	1.27075
821.56846	1.28559
819.63989	1.30262
817.71133	1.31445
815.78276	1.32259
813.85420	1.34347
811.92563	1.36719
809.99707	1.37792
808.06851	1.38785
806.13994	1.39857
804.21138	1.40594
802.28281	1.43685
800.35425	1.49442
798.42568	1.53206
796.49712	1.54963
794.56855	1.61681
792.63999	1.80348
790.71143	2.09342
788.78286	2.25972
786.85430	2.78513
784.92573	4.70955
782.99717	3.90378
781.06860	2.39009
779.14004	2.07982
777.21147	1.92665
775.28291	1.80864
773.35435	1.64141
771.42578	1.54733
769.49722	1.55037
767.56865	1.50747
765.64009	1.37391
763.71152	1.28986
761.78296	1.29117
759.85439	1.26905
757.92583	1.22868
755.99727	1.26812
754.06870	1.31402
752.14014	1.25077
750.21157	1.10308
748.28301	0.93512
746.35444	0.83441
744.42588	0.81918
742.49731	0.83727
740.56875	0.84340
738.64019	0.83969
736.71162	0.77617
734.78306	0.65727
732.85449	0.58530
730.92593	0.58031
728.99736	0.57894
727.06880	0.51221
725.14023	0.43347
723.21167	0.38391
721.28311	0.33619
719.35454	0.27207
717.42598	0.16603
715.49741	0.06655
713.56885	0.03609
711.64028	0.00859
709.71172	-0.04659
707.78315	-0.07947
705.85459	-0.13265
703.92603	-0.25277
701.99746	-0.27764
700.06890	-0.13609
698.14033	-0.03779
696.21177	-0.05592
694.28320	-0.15681
692.35464	-0.24467
690.42607	-0.20459
688.49751	-0.08248
686.56895	0.02145
684.64038	0.05266
682.71182	0.01015
680.78325	-0.11416
678.85469	-0.23425
676.92612	-0.23966
674.99756	-0.21211
673.06899	-0.21784
671.14043	-0.19145
669.21187	-0.13182
667.28330	-0.06712
665.35474	0.01782
663.42617	0.07828
661.49761	0.06059
659.56904	0.03162
657.64048	0.07023
655.71191	0.10128
653.78335	0.04902
651.85479	-0.05217
649.92622	-0.12256
647.99766	-0.10095
646.06909	-0.01557
644.14053	0.09743
642.21196	0.12067
640.28340	0.04107
638.35483	-0.03020
636.42627	-0.05269
634.49771	-0.07621
632.56914	-0.13207
630.64058	-0.17156
628.71201	-0.17676
626.78345	-0.14125
624.85488	-0.05290
622.92632	-0.01643
620.99775	-0.03516
619.06919	-0.01689
617.14062	0.01483
615.21206	0.02072
613.28350	0.02852
611.35493	0.03336
609.42637	0.02620
607.49780	0.03522
605.56924	0.05841
603.64067	0.03985
601.71211	-0.01803
599.78354	-0.06930
597.85498	-0.08758
595.92642	-0.06467
593.99785	0.02543
592.06929	0.09053
590.14072	0.06019
588.21216	-0.02828
586.28359	-0.12086
584.35503	-0.13601
582.42646	-0.07746
580.49790	-0.02315
578.56934	0.02408
576.64077	0.07882
574.71221	0.07981
572.78364	0.04358
570.85508	0.07240
568.92651	0.11463
566.99795	0.00750
565.06938	-0.09207
563.14082	-0.08797
561.21226	-0.04887
559.28369	-0.03954
557.35513	-0.04991
555.42656	-0.01868
553.49800	0.04416
551.56943	0.06262
549.64087	0.05018
547.71230	0.04490
545.78374	0.03461
543.85518	0.00906
541.92661	-0.04965
539.99805	-0.09283
538.06948	-0.06418
536.14092	-0.02418
534.21235	-0.01767
532.28379	-0.00229
530.35522	0.03865
528.42666	0.03201
526.49810	-0.03525
524.56953	-0.08251
522.64097	-0.08105
520.71240	-0.10394
518.78384	-0.13677
516.85527	-0.05711
514.92671	0.05170
512.99814	0.06662
511.06958	0.04964
509.14102	0.01695
507.21245	-0.02921
505.28389	-0.04232
503.35532	0.00024
501.42676	0.01881
499.49819	0.02842
