3997.91411	0.06744
3995.98555	0.06790
3994.05698	0.06790
3992.12842	0.06770
3990.19985	0.06771
3988.27129	0.06809
3986.34272	0.06871
3984.41416	0.06922
3982.48560	0.06933
3980.55703	0.06926
3978.62847	0.06933
3976.69990	0.06971
3974.77134	0.07018
3972.84277	0.07055
3970.91421	0.07110
3968.98564	0.07185
3967.05708	0.07228
3965.12852	0.07218
3963.19995	0.07200
3961.27139	0.07195
3959.34282	0.07194
3957.41426	0.07212
3955.48569	0.07238
3953.55713	0.07215
3951.62856	0.07159
3949.70000	0.07152
3947.77144	0.07188
3945.84287	0.07201
3943.91431	0.07180
3941.98574	0.07189
3940.05718	0.07225
3938.12861	0.07210
3936.20005	0.07158
3934.27148	0.07137
3932.34292	0.07163
3930.41436	0.07179
3928.48579	0.07134
3926.55723	0.07097
3924.62866	0.07117
3922.70010	0.07133
3920.77153	0.07134
3918.84297	0.07160
3916.91440	0.07191
3914.98584	0.07181
3913.05728	0.07125
3911.12871	0.07071
3909.20015	0.07055
3907.27158	0.07056
3905.34302	0.07072
3903.41445	0.07104
3901.48589	0.07138
3899.55732	0.07193
3897.62876	0.07218
3895.70020	0.07178
3893.77163	0.07160
3891.84307	0.07189
3889.91450	0.07195
3887.98594	0.07149
3886.05737	0.07121
3884.12881	0.07155
3882.20024	0.07208
3880.27168	0.07241
3878.34312	0.07235
3876.41455	0.07212
3874.48599	0.07230
3872.55742	0.07266
3870.62886	0.07324
3868.70029	0.07439
3866.77173	0.07476
3864.84316	0.07449
3862.91460	0.07466
3860.98604	0.07468
3859.05747	0.07443
3857.12891	0.07441
3855.20034	0.07481
3853.27178	0.07644
3851.34321	0.07831
3849.41465	0.07777
3847.48608	0.07694
3845.55752	0.07703
3843.62896	0.07787
3841.70039	0.07918
3839.77183	0.08046
3837.84326	0.08131
3835.91470	0.08147
3833.98613	0.08129
3832.05757	0.08128
3830.12900	0.08156
3828.20044	0.08238
3826.27187	0.08374
3824.34331	0.08490
3822.41475	0.08570
3820.48618	0.08699
3818.55762	0.08764
3816.62905	0.08750
3814.70049	0.08839
3812.77192	0.08948
3810.84336	0.08989
3808.91479	0.09060
3806.98623	0.09220
3805.05767	0.09396
3803.12910	0.09531
3801.20054	0.09715
3799.27197	0.09883
3797.34341	0.09939
3795.41484	0.10001
3793.48628	0.10062
3791.55771	0.10114
3789.62915	0.10194
3787.70059	0.10277
3785.77202	0.10384
3783.84346	0.10557
3781.91489	0.10740
3779.98633	0.10897
3778.05776	0.11064
3776.12920	0.11223
3774.20063	0.11347
3772.27207	0.11478
3770.34351	0.11692
3768.41494	0.11957
3766.48638	0.12149
3764.55781	0.12333
3762.62925	0.12521
3760.70068	0.12684
3758.77212	0.12918
3756.84355	0.13214
3754.91499	0.13422
3752.98643	0.13589
3751.05786	0.13901
3749.12930	0.14373
3747.20073	0.14681
3745.27217	0.14872
3743.34360	0.15176
3741.41504	0.15498
3739.48647	0.15773
3737.55791	0.16122
3735.62935	0.16627
3733.70078	0.17287
3731.77222	0.17866
3729.84365	0.18263
3727.91509	0.18628
3725.98652	0.19145
3724.05796	0.19801
3722.12939	0.20456
3720.20083	0.21117
3718.27227	0.21790
3716.34370	0.22443
3714.41514	0.23111
3712.48657	0.24009
3710.55801	0.25360
3708.62944	0.26804
3706.70088	0.27950
3704.77231	0.29038
3702.84375	0.30335
3700.91519	0.32009
3698.98662	0.33833
3697.05806	0.35555
3695.12949	0.37346
3693.20093	0.39225
3691.27236	0.41262
3689.34380	0.43926
3687.41523	0.47269
3685.48667	0.50297
3683.55811	0.52946
3681.62954	0.55762
3679.70098	0.58892
3677.77241	0.62165
3675.84385	0.65985
3673.91528	0.71020
3671.98672	0.75255
3670.05815	0.79122
3668.12959	0.84331
3666.20103	0.89116
3664.27246	0.93149
3662.34390	0.97456
3660.41533	1.02072
3658.48677	1.06566
3656.55820	1.11324
3654.62964	1.16716
3652.70107	1.21348
3650.77251	1.25366
3648.84395	1.30796
3646.91538	1.37433
3644.98682	1.42441
3643.05825	1.46338
3641.12969	1.50330
3639.20112	1.54736
3637.27256	1.59154
3635.34399	1.63382
3633.41543	1.67558
3631.48687	1.71524
3629.55830	1.75597
3627.62974	1.80873
3625.70117	1.85844
3623.77261	1.89236
3621.84404	1.92487
3619.91548	1.96253
3617.98691	2.00688
3616.05835	2.04914
3614.12979	2.08606
3612.20122	2.12507
3610.27266	2.16348
3608.34409	2.20287
3606.41553	2.24613
3604.48696	2.28593
3602.55840	2.32069
3600.62983	2.35886
3598.70127	2.40066
3596.77271	2.44042
3594.84414	2.48062
3592.91558	2.52233
3590.98701	2.56065
3589.05845	2.59532
3587.12988	2.63627
3585.20132	2.68341
3583.27275	2.72531
3581.34419	2.76388
3579.41562	2.80523
3577.48706	2.84897
3575.55850	2.89224
3573.62993	2.93540
3571.70137	2.97816
3569.77280	3.02106
3567.84424	3.06656
3565.91567	3.11742
3563.98711	3.16326
3562.05854	3.20229
3560.12998	3.24437
3558.20142	3.28994
3556.27285	3.33613
3554.34429	3.38128
3552.41572	3.42740
3550.48716	3.47431
3548.55859	3.51962
3546.63003	3.56432
3544.70146	3.61165
3542.77290	3.65814
3540.84434	3.70058
3538.91577	3.74463
3536.98721	3.79307
3535.05864	3.84451
3533.13008	3.89505
3531.20151	3.94429
3529.27295	3.99389
3527.34438	4.04418
3525.41582	4.09206
3523.48726	4.13647
3521.55869	4.18292
3519.63013	4.23165
3517.70156	4.28046
3515.77300	4.32937
3513.84443	4.38066
3511.91587	4.43336
3509.98730	4.48157
3508.05874	4.52794
3506.13018	4.57859
3504.20161	4.62948
3502.27305	4.67693
3500.34448	4.71993
3498.41592	4.75886
3496.48735	4.80016
3494.55879	4.84661
3492.63022	4.89512
3490.70166	4.94420
3488.77310	4.99747
3486.84453	5.05403
3484.91597	5.10575
3482.98740	5.15114
3481.05884	5.19765
3479.13027	5.25111
3477.20171	5.30399
3475.27314	5.34821
3473.34458	5.38984
3471.41602	5.43681
3469.48745	5.49210
3467.55889	5.54797
3465.63032	5.59461
3463.70176	5.63723
3461.77319	5.68127
3459.84463	5.73507
3457.91606	5.80028
3455.98750	5.86284
3454.05894	5.91451
3452.13037	5.95836
3450.20181	5.99836
3448.27324	6.04638
3446.34468	6.11515
3444.41611	6.17222
3442.48755	6.19871
3440.55898	6.23220
3438.63042	6.28832
3436.70186	6.34903
3434.77329	6.40996
3432.84473	6.45888
3430.91616	6.48209
3428.98760	6.51105
3427.05903	6.57238
3425.13047	6.66539
3423.20190	6.75681
3421.27334	6.82569
3419.34478	6.88696
3417.41621	6.93139
3415.48765	6.94616
3413.55908	6.95737
3411.63052	6.99044
3409.70195	7.03864
3407.77339	7.11287
3405.84482	7.19170
3403.91626	7.23590
3401.98770	7.24880
3400.05913	7.25728
3398.13057	7.29806
3396.20200	7.36738
3394.27344	7.42387
3392.34487	7.44609
3390.41631	7.46841
3388.48774	7.50048
3386.55918	7.52661
3384.63062	7.55704
3382.70205	7.61508
3380.77349	7.66424
3378.84492	7.68184
3376.91636	7.74321
3374.98779	7.84252
3373.05923	7.88789
3371.13066	7.85177
3369.20210	7.82744
3367.27354	7.86799
3365.34497	7.96303
3363.41641	8.04509
3361.48784	7.99542
3359.55928	7.92059
3357.63071	7.98210
3355.70215	8.07984
3353.77358	8.02310
3351.84502	7.91873
3349.91646	7.88933
3347.98789	7.90608
3346.05933	7.96368
3344.13076	8.10722
3342.20220	8.29505
3340.27363	8.33587
3338.34507	8.21108
3336.41650	8.11060
3334.48794	8.12878
3332.55937	8.17833
3330.63081	8.20147
3328.70225	8.20575
3326.77368	8.18053
3324.84512	8.14416
3322.91655	8.10422
3320.98799	8.10116
3319.05942	8.12999
3317.13086	8.18764
3315.20229	8.27431
3313.27373	8.34230
3311.34517	8.37819
3309.41660	8.32726
3307.48804	8.18224
3305.55947	8.10641
3303.63091	8.16221
3301.70234	8.22601
3299.77378	8.26740
3297.84521	8.35681
3295.91665	8.52129
3293.98809	8.67182
3292.05952	8.67922
3290.13096	8.60679
3288.20239	8.53601
3286.27383	8.45625
3284.34526	8.39023
3282.41670	8.39297
3280.48813	8.43257
3278.55957	8.45201
3276.63101	8.40744
3274.70244	8.36259
3272.77388	8.43285
3270.84531	8.56145
3268.91675	8.62476
3266.98818	8.55691
3265.05962	8.44773
3263.13105	8.48310
3261.20249	8.65291
3259.27393	8.72899
3257.34536	8.61269
3255.41680	8.40571
3253.48823	8.28492
3251.55967	8.37865
3249.63110	8.55982
3247.70254	8.62207
3245.77397	8.55157
3243.84541	8.39515
3241.91685	8.27633
3239.98828	8.25098
3238.05972	8.18507
3236.13115	8.07200
3234.20259	8.06031
3232.27402	8.16365
3230.34546	8.28804
3228.41689	8.35416
3226.48833	8.30649
3224.55977	8.18604
3222.63120	8.09715
3220.70264	8.06351
3218.77407	8.05803
3216.84551	8.08925
3214.91694	8.18995
3212.98838	8.27161
3211.05981	8.22351
3209.13125	8.12000
3207.20269	8.04810
3205.27412	7.99516
3203.34556	7.93199
3201.41699	7.92292
3199.48843	7.95049
3197.55986	7.89578
3195.63130	7.80767
3193.70273	7.78342
3191.77417	7.79968
3189.84561	7.76397
3187.91704	7.66138
3185.98848	7.58938
3184.05991	7.57393
3182.13135	7.55073
3180.20278	7.48998
3178.27422	7.41746
3176.34565	7.36391
3174.41709	7.31457
3172.48853	7.24186
3170.55996	7.15096
3168.63140	7.06208
3166.70283	6.99375
3164.77427	6.95574
3162.84570	6.93523
3160.91714	6.87344
3158.98857	6.76913
3157.06001	6.70208
3155.13145	6.67684
3153.20288	6.63665
3151.27432	6.56061
3149.34575	6.45181
3147.41719	6.33684
3145.48862	6.25396
3143.56006	6.19781
3141.63149	6.13222
3139.70293	6.04885
3137.77437	5.96796
3135.84580	5.90017
3133.91724	5.84041
3131.98867	5.77223
3130.06011	5.69220
3128.13154	5.61541
3126.20298	5.54157
3124.27441	5.46462
3122.34585	5.38864
3120.41729	5.31608
3118.48872	5.24395
3116.56016	5.17134
3114.63159	5.10063
3112.70303	5.03169
3110.77446	4.96541
3108.84590	4.90348
3106.91733	4.83816
3104.98877	4.76629
3103.06021	4.69581
3101.13164	4.62498
3099.20308	4.55435
3097.27451	4.49144
3095.34595	4.43068
3093.41738	4.36398
3091.48882	4.29322
3089.56025	4.22182
3087.63169	4.15380
3085.70312	4.09203
3083.77456	4.03087
3081.84600	3.96709
3079.91743	3.90523
3077.98887	3.84629
3076.06030	3.78725
3074.13174	3.72776
3072.20317	3.66839
3070.27461	3.60836
3068.34604	3.54838
3066.41748	3.48954
3064.48892	3.43176
3062.56035	3.37482
3060.63179	3.31926
3058.70322	3.26522
3056.77466	3.21181
3054.84609	3.15866
3052.91753	3.10518
3050.98896	3.05210
3049.06040	3.00079
3047.13184	2.95093
3045.20327	2.90147
3043.27471	2.85184
3041.34614	2.80295
3039.41758	2.75548
3037.48901	2.70826
3035.56045	2.66077
3033.63188	2.61409
3031.70332	2.56930
3029.77476	2.52620
3027.84619	2.48347
3025.91763	2.43965
3023.98906	2.39503
3022.06050	2.35159
3020.13193	2.31040
3018.20337	2.27063
3016.27480	2.23074
3014.34624	2.19021
3012.41768	2.15033
3010.48911	2.11214
3008.56055	2.07497
3006.63198	2.03841
3004.70342	2.00293
3002.77485	1.96786
3000.84629	1.93241
2998.91772	1.89734
2996.98916	1.86356
2995.06060	1.83107
2993.13203	1.79942
2991.20347	1.76850
2989.27490	1.73802
2987.34634	1.70754
2985.41777	1.67735
2983.48921	1.64762
2981.56064	1.61840
2979.63208	1.59018
2977.70352	1.56258
2975.77495	1.53502
2973.84639	1.50809
2971.91782	1.48180
2969.98926	1.45566
2968.06069	1.42964
2966.13213	1.40383
2964.20356	1.37850
2962.27500	1.35361
2960.34644	1.32878
2958.41787	1.30411
2956.48931	1.27970
2954.56074	1.25584
2952.63218	1.23288
2950.70361	1.21029
2948.77505	1.18782
2946.84648	1.16605
2944.91792	1.14466
2942.98936	1.12291
2941.06079	1.10106
2939.13223	1.07953
2937.20366	1.05812
2935.27510	1.03630
2933.34653	1.01383
2931.41797	0.99183
2929.48940	0.97128
2927.56084	0.95122
2925.63228	0.93091
2923.70371	0.91175
2921.77515	0.89490
2919.84658	0.87982
2917.91802	0.86564
2915.98945	0.85176
2914.06089	0.83762
2912.13232	0.82333
2910.20376	0.80967
2908.27520	0.79674
2906.34663	0.78400
2904.41807	0.77123
2902.48950	0.75847
2900.56094	0.74595
2898.63237	0.73373
2896.70381	0.72136
2894.77524	0.70883
2892.84668	0.69672
2890.91812	0.68519
2888.98955	0.67403
2887.06099	0.66326
2885.13242	0.65312
2883.20386	0.64325
2881.27529	0.63305
2879.34673	0.62269
2877.41816	0.61265
2875.48960	0.60293
2873.56104	0.59305
2871.63247	0.58260
2869.70391	0.57174
2867.77534	0.56064
2865.84678	0.54934
2863.91821	0.53803
2861.98965	0.52676
2860.06108	0.51552
2858.13252	0.50447
2856.20396	0.49373
2854.27539	0.48354
2852.34683	0.47470
2850.41826	0.46760
2848.48970	0.46149
2846.56113	0.45565
2844.63257	0.45028
2842.70400	0.44519
2840.77544	0.43993
2838.84687	0.43480
2836.91831	0.42990
2834.98975	0.42464
2833.06118	0.41911
2831.13262	0.41366
2829.20405	0.40820
2827.27549	0.40264
2825.34692	0.39689
2823.41836	0.39105
2821.48979	0.38543
2819.56123	0.37997
2817.63267	0.37454
2815.70410	0.36929
2813.77554	0.36416
2811.84697	0.35890
2809.91841	0.35346
2807.98984	0.34817
2806.06128	0.34315
2804.13271	0.33831
2802.20415	0.33365
2800.27559	0.32906
2798.34702	0.32439
2796.41846	0.31969
2794.48989	0.31509
2792.56133	0.31075
2790.63276	0.30661
2788.70420	0.30250
2786.77563	0.29844
2784.84707	0.29449
2782.91851	0.29064
2780.98994	0.28683
2779.06138	0.28294
2777.13281	0.27902
2775.20425	0.27525
2773.27568	0.27158
2771.34712	0.26792
2769.41855	0.26435
2767.48999	0.26087
2765.56143	0.25745
2763.63286	0.25421
2761.70430	0.25120
2759.77573	0.24837
2757.84717	0.24551
2755.91860	0.24241
2753.99004	0.23922
2752.06147	0.23623
2750.13291	0.23341
2748.20435	0.23072
2746.27578	0.22821
2744.34722	0.22562
2742.41865	0.22282
2740.49009	0.22018
2738.56152	0.21793
2736.63296	0.21572
2734.70439	0.21327
2732.77583	0.21080
2730.84727	0.20853
2728.91870	0.20639
2726.99014	0.20430
2725.06157	0.20238
2723.13301	0.20056
2721.20444	0.19861
2719.27588	0.19657
2717.34731	0.19462
2715.41875	0.19273
2713.49019	0.19087
2711.56162	0.18910
2709.63306	0.18739
2707.70449	0.18572
2705.77593	0.18413
2703.84736	0.18251
2701.91880	0.18079
2699.99023	0.17915
2698.06167	0.17782
2696.13311	0.17672
2694.20454	0.17559
2692.27598	0.17441
2690.34741	0.17305
2688.41885	0.17164
2686.49028	0.17047
2684.56172	0.16952
2682.63315	0.16860
2680.70459	0.16767
2678.77603	0.16654
2676.84746	0.16535
2674.91890	0.16435
2672.99033	0.16336
2671.06177	0.16227
2669.13320	0.16121
2667.20464	0.16028
2665.27607	0.15954
2663.34751	0.15884
2661.41895	0.15804
2659.49038	0.15727
2657.56182	0.15666
2655.63325	0.15612
2653.70469	0.15549
2651.77612	0.15480
2649.84756	0.15416
2647.91899	0.15354
2645.99043	0.15288
2644.06187	0.15223
2642.13330	0.15176
2640.20474	0.15162
2638.27617	0.15157
2636.34761	0.15123
2634.41904	0.15061
2632.49048	0.15008
2630.56191	0.14974
2628.63335	0.14941
2626.70479	0.14898
2624.77622	0.14856
2622.84766	0.14828
2620.91909	0.14811
2618.99053	0.14801
2617.06196	0.14796
2615.13340	0.14787
2613.20483	0.14774
2611.27627	0.14766
2609.34771	0.14762
2607.41914	0.14749
2605.49058	0.14739
2603.56201	0.14744
2601.63345	0.14752
2599.70488	0.14752
2597.77632	0.14753
2595.84775	0.14761
2593.91919	0.14772
2591.99062	0.14781
2590.06206	0.14789
2588.13350	0.14807
2586.20493	0.14838
2584.27637	0.14873
2582.34780	0.14893
2580.41924	0.14907
2578.49067	0.14937
2576.56211	0.14979
2574.63354	0.15010
2572.70498	0.15030
2570.77642	0.15054
2568.84785	0.15096
2566.91929	0.15147
2564.99072	0.15193
2563.06216	0.15237
2561.13359	0.15283
2559.20503	0.15332
2557.27646	0.15388
2555.34790	0.15451
2553.41934	0.15510
2551.49077	0.15561
2549.56221	0.15612
2547.63364	0.15680
2545.70508	0.15761
2543.77651	0.15830
2541.84795	0.15888
2539.91938	0.15947
2537.99082	0.16005
2536.06226	0.16063
2534.13369	0.16115
2532.20513	0.16168
2530.27656	0.16245
2528.34800	0.16341
2526.41943	0.16427
2524.49087	0.16490
2522.56230	0.16547
2520.63374	0.16617
2518.70518	0.16710
2516.77661	0.16805
2514.84805	0.16870
2512.91948	0.16930
2510.99092	0.17012
2509.06235	0.17098
2507.13379	0.17181
2505.20522	0.17269
2503.27666	0.17364
2501.34810	0.17462
2499.41953	0.17554
2497.49097	0.17632
2495.56240	0.17701
2493.63384	0.17777
2491.70527	0.17862
2489.77671	0.17945
2487.84814	0.18032
2485.91958	0.18130
2483.99102	0.18234
2482.06245	0.18333
2480.13389	0.18420
2478.20532	0.18502
2476.27676	0.18593
2474.34819	0.18699
2472.41963	0.18813
2470.49106	0.18911
2468.56250	0.18983
2466.63394	0.19053
2464.70537	0.19133
2462.77681	0.19222
2460.84824	0.19315
2458.91968	0.19417
2456.99111	0.19529
2455.06255	0.19639
2453.13398	0.19744
2451.20542	0.19848
2449.27686	0.19943
2447.34829	0.20029
2445.41973	0.20117
2443.49116	0.20209
2441.56260	0.20310
2439.63403	0.20427
2437.70547	0.20542
2435.77690	0.20637
2433.84834	0.20727
2431.91978	0.20827
2429.99121	0.20934
2428.06265	0.21050
2426.13408	0.21172
2424.20552	0.21297
2422.27695	0.21418
2420.34839	0.21523
2418.41982	0.21616
2416.49126	0.21721
2414.56270	0.21835
2412.63413	0.21944
2410.70557	0.22056
2408.77700	0.22177
2406.84844	0.22302
2404.91987	0.22425
2402.99131	0.22546
2401.06274	0.22672
2399.13418	0.22803
2397.20562	0.22929
2395.27705	0.23042
2393.34849	0.23149
2391.41992	0.23270
2389.49136	0.23412
2387.56279	0.23568
2385.63423	0.23742
2383.70566	0.23953
2381.77710	0.24211
2379.84854	0.24512
2377.91997	0.24843
2375.99141	0.25209
2374.06284	0.25641
2372.13428	0.26130
2370.20571	0.26616
2368.27715	0.27041
2366.34858	0.27418
2364.42002	0.27788
2362.49146	0.28157
2360.56289	0.28507
2358.63433	0.28782
2356.70576	0.28859
2354.77720	0.28671
2352.84863	0.28365
2350.92007	0.28110
2348.99150	0.28008
2347.06294	0.28131
2345.13437	0.28518
2343.20581	0.29027
2341.27725	0.29389
2339.34868	0.29570
2337.42012	0.29675
2335.49155	0.29781
2333.56299	0.29862
2331.63442	0.29884
2329.70586	0.29882
2327.77729	0.29937
2325.84873	0.30041
2323.92017	0.30129
2321.99160	0.30178
2320.06304	0.30194
2318.13447	0.30184
2316.20591	0.30188
2314.27734	0.30265
2312.34878	0.30404
2310.42021	0.30537
2308.49165	0.30627
2306.56309	0.30700
2304.63452	0.30776
2302.70596	0.30872
2300.77739	0.31015
2298.84883	0.31184
2296.92026	0.31336
2294.99170	0.31478
2293.06313	0.31630
2291.13457	0.31775
2289.20601	0.31907
2287.27744	0.32041
2285.34888	0.32183
2283.42031	0.32346
2281.49175	0.32548
2279.56318	0.32776
2277.63462	0.33007
2275.70605	0.33225
2273.77749	0.33426
2271.84893	0.33626
2269.92036	0.33834
2267.99180	0.34036
2266.06323	0.34233
2264.13467	0.34440
2262.20610	0.34659
2260.27754	0.34873
2258.34897	0.35074
2256.42041	0.35276
2254.49185	0.35473
2252.56328	0.35670
2250.63472	0.35878
2248.70615	0.36093
2246.77759	0.36317
2244.84902	0.36547
2242.92046	0.36772
2240.99189	0.36998
2239.06333	0.37225
2237.13477	0.37437
2235.20620	0.37647
2233.27764	0.37864
2231.34907	0.38086
2229.42051	0.38307
2227.49194	0.38524
2225.56338	0.38747
2223.63481	0.38976
2221.70625	0.39199
2219.77769	0.39421
2217.84912	0.39642
2215.92056	0.39860
2213.99199	0.40070
2212.06343	0.40273
2210.13486	0.40484
2208.20630	0.40696
2206.27773	0.40900
2204.34917	0.41107
2202.42061	0.41317
2200.49204	0.41529
2198.56348	0.41742
2196.63491	0.41941
2194.70635	0.42133
2192.77778	0.42318
2190.84922	0.42491
2188.92065	0.42661
2186.99209	0.42831
2185.06353	0.43004
2183.13496	0.43192
2181.20640	0.43379
2179.27783	0.43542
2177.34927	0.43696
2175.42070	0.43851
2173.49214	0.44004
2171.56357	0.44149
2169.63501	0.44278
2167.70645	0.44398
2165.77788	0.44523
2163.84932	0.44655
2161.92075	0.44780
2159.99219	0.44893
2158.06362	0.44996
2156.13506	0.45085
2154.20649	0.45160
2152.27793	0.45225
2150.34937	0.45293
2148.42080	0.45381
2146.49224	0.45462
2144.56367	0.45505
2142.63511	0.45528
2140.70654	0.45560
2138.77798	0.45590
2136.84941	0.45602
2134.92085	0.45604
2132.99229	0.45607
2131.06372	0.45600
2129.13516	0.45572
2127.20659	0.45540
2125.27803	0.45514
2123.34946	0.45465
2121.42090	0.45392
2119.49233	0.45333
2117.56377	0.45294
2115.63521	0.45240
2113.70664	0.45158
2111.77808	0.45058
2109.84951	0.44944
2107.92095	0.44820
2105.99238	0.44703
2104.06382	0.44594
2102.13525	0.44470
2100.20669	0.44333
2098.27812	0.44198
2096.34956	0.44059
2094.42100	0.43903
2092.49243	0.43733
2090.56387	0.43552
2088.63530	0.43362
2086.70674	0.43174
2084.77817	0.42993
2082.84961	0.42810
2080.92104	0.42615
2078.99248	0.42411
2077.06392	0.42200
2075.13535	0.41984
2073.20679	0.41766
2071.27822	0.41543
2069.34966	0.41312
2067.42109	0.41080
2065.49253	0.40850
2063.56396	0.40607
2061.63540	0.40344
2059.70684	0.40075
2057.77827	0.39828
2055.84971	0.39598
2053.92114	0.39357
2051.99258	0.39094
2050.06401	0.38811
2048.13545	0.38529
2046.20688	0.38264
2044.27832	0.38006
2042.34976	0.37744
2040.42119	0.37474
2038.49263	0.37197
2036.56406	0.36923
2034.63550	0.36652
2032.70693	0.36371
2030.77837	0.36087
2028.84980	0.35808
2026.92124	0.35533
2024.99268	0.35256
2023.06411	0.34974
2021.13555	0.34700
2019.20698	0.34436
2017.27842	0.34161
2015.34985	0.33874
2013.42129	0.33596
2011.49272	0.33320
2009.56416	0.33047
2007.63560	0.32785
2005.70703	0.32523
2003.77847	0.32248
2001.84990	0.31976
1999.92134	0.31719
1997.99277	0.31463
1996.06421	0.31205
1994.13564	0.30957
1992.20708	0.30719
1990.27852	0.30475
1988.34995	0.30229
1986.42139	0.29980
1984.49282	0.29733
1982.56426	0.29495
1980.63569	0.29264
1978.70713	0.29041
1976.77856	0.28821
1974.85000	0.28591
1972.92144	0.28363
1970.99287	0.28156
1969.06431	0.27958
1967.13574	0.27751
1965.20718	0.27534
1963.27861	0.27329
1961.35005	0.27142
1959.42148	0.26963
1957.49292	0.26785
1955.56436	0.26612
1953.63579	0.26454
1951.70723	0.26292
1949.77866	0.26117
1947.85010	0.25944
1945.92153	0.25792
1943.99297	0.25655
1942.06440	0.25510
1940.13584	0.25348
1938.20728	0.25194
1936.27871	0.25057
1934.35015	0.24927
1932.42158	0.24812
1930.49302	0.24706
1928.56445	0.24598
1926.63589	0.24492
1924.70732	0.24397
1922.77876	0.24310
1920.85020	0.24216
1918.92163	0.24121
1916.99307	0.24031
1915.06450	0.23941
1913.13594	0.23859
1911.20737	0.23794
1909.27881	0.23729
1907.35024	0.23661
1905.42168	0.23594
1903.49312	0.23531
1901.56455	0.23476
1899.63599	0.23429
1897.70742	0.23387
1895.77886	0.23347
1893.85029	0.23306
1891.92173	0.23262
1889.99316	0.23230
1888.06460	0.23203
1886.13604	0.23179
1884.20747	0.23162
1882.27891	0.23146
1880.35034	0.23139
1878.42178	0.23144
1876.49321	0.23150
1874.56465	0.23146
1872.63608	0.23151
1870.70752	0.23171
1868.77896	0.23208
1866.85039	0.23236
1864.92183	0.23238
1862.99326	0.23245
1861.06470	0.23272
1859.13613	0.23314
1857.20757	0.23354
1855.27900	0.23400
1853.35044	0.23444
1851.42187	0.23488
1849.49331	0.23542
1847.56475	0.23611
1845.63618	0.23697
1843.70762	0.23797
1841.77905	0.23882
1839.85049	0.23938
1837.92192	0.24013
1835.99336	0.24100
1834.06479	0.24187
1832.13623	0.24285
1830.20767	0.24429
1828.27910	0.24579
1826.35054	0.24681
1824.42197	0.24803
1822.49341	0.24934
1820.56484	0.25052
1818.63628	0.25179
1816.70771	0.25341
1814.77915	0.25508
1812.85059	0.25683
1810.92202	0.25884
1808.99346	0.26085
1807.06489	0.26272
1805.13633	0.26461
1803.20776	0.26693
1801.27920	0.26954
1799.35063	0.27225
1797.42207	0.27467
1795.49351	0.27708
1793.56494	0.27997
1791.63638	0.28373
1789.70781	0.28728
1787.77925	0.28988
1785.85068	0.29294
1783.92212	0.29662
1781.99355	0.30046
1780.06499	0.30456
1778.13643	0.30895
1776.20786	0.31308
1774.27930	0.31739
1772.35073	0.32310
1770.42217	0.32927
1768.49360	0.33450
1766.56504	0.33950
1764.63647	0.34475
1762.70791	0.35056
1760.77935	0.35778
1758.85078	0.36452
1756.92222	0.37120
1754.99365	0.37853
1753.06509	0.38531
1751.13652	0.39316
1749.20796	0.40282
1747.27939	0.41266
1745.35083	0.42170
1743.42227	0.43123
1741.49370	0.44174
1739.56514	0.45446
1737.63657	0.46752
1735.70801	0.47906
1733.77944	0.49586
1731.85088	0.51572
1729.92231	0.53161
1727.99375	0.54759
1726.06519	0.56462
1724.13662	0.58310
1722.20806	0.60304
1720.27949	0.62171
1718.35093	0.64358
1716.42236	0.67512
1714.49380	0.70529
1712.56523	0.73037
1710.63667	0.75480
1708.70811	0.78088
1706.77954	0.81026
1704.85098	0.84496
1702.92241	0.87597
1700.99385	0.90691
1699.06528	0.95269
1697.13672	0.99491
1695.20815	1.03828
1693.27959	1.08099
1691.35103	1.11580
1689.42246	1.15578
1687.49390	1.19775
1685.56533	1.23792
1683.63677	1.29837
1681.70820	1.36174
1679.77964	1.40379
1677.85107	1.44344
1675.92251	1.48839
1673.99395	1.54352
1672.06538	1.59305
1670.13682	1.64203
1668.20825	1.70486
1666.27969	1.75618
1664.35112	1.79985
1662.42256	1.85463
1660.49399	1.91653
1658.56543	1.96559
1656.63687	2.00554
1654.70830	2.04233
1652.77974	2.09865
1650.85117	2.15270
1648.92261	2.17451
1646.99404	2.20036
1645.06548	2.22574
1643.13691	2.24118
1641.20835	2.25077
1639.27979	2.26009
1637.35122	2.26633
1635.42266	2.26637
1633.49409	2.25780
1631.56553	2.24291
1629.63696	2.22456
1627.70840	2.19573
1625.77983	2.16264
1623.85127	2.12164
1621.92271	2.07167
1619.99414	2.02744
1618.06558	1.98477
1616.13701	1.92386
1614.20845	1.86020
1612.27988	1.81040
1610.35132	1.75914
1608.42275	1.70462
1606.49419	1.65124
1604.56562	1.60190
1602.63706	1.55408
1600.70850	1.50714
1598.77993	1.46398
1596.85137	1.42355
1594.92280	1.38398
1592.99424	1.34580
1591.06567	1.31119
1589.13711	1.27887
1587.20854	1.24862
1585.27998	1.22066
1583.35142	1.19473
1581.42285	1.17128
1579.49429	1.15101
1577.56572	1.13231
1575.63716	1.11014
1573.70859	1.09123
1571.78003	1.07901
1569.85146	1.06653
1567.92290	1.05294
1565.99434	1.04259
1564.06577	1.03444
1562.13721	1.02811
1560.20864	1.02394
1558.28008	1.01984
1556.35151	1.01661
1554.42295	1.01451
1552.49438	1.01242
1550.56582	1.00924
1548.63726	1.00394
1546.70869	0.99674
1544.78013	0.98767
1542.85156	0.97681
1540.92300	0.96213
1538.99443	0.93954
1537.06587	0.92205
1535.13730	0.90997
1533.20874	0.89455
1531.28018	0.87807
1529.35161	0.86587
1527.42305	0.85442
1525.49448	0.84258
1523.56592	0.83244
1521.63735	0.82279
1519.70879	0.81279
1517.78022	0.80426
1515.85166	0.79504
1513.92310	0.78518
1511.99453	0.77612
1510.06597	0.76786
1508.13740	0.76015
1506.20884	0.74926
1504.28027	0.73945
1502.35171	0.73346
1500.42314	0.72808
1498.49458	0.72231
1496.56602	0.71580
1494.63745	0.70953
1492.70889	0.70467
1490.78032	0.70037
1488.85176	0.69531
1486.92319	0.69029
1484.99463	0.68615
1483.06606	0.68282
1481.13750	0.68005
1479.20894	0.67774
1477.28037	0.67597
1475.35181	0.67458
1473.42324	0.67323
1471.49468	0.67100
1469.56611	0.66823
1467.63755	0.66561
1465.70898	0.66334
1463.78042	0.66155
1461.85186	0.66025
1459.92329	0.65947
1457.99473	0.65907
1456.06616	0.65823
1454.13760	0.65621
1452.20903	0.65401
1450.28047	0.65199
1448.35190	0.65001
1446.42334	0.64768
1444.49478	0.64526
1442.56621	0.64296
1440.63765	0.64064
1438.70908	0.63838
1436.78052	0.63583
1434.85195	0.63291
1432.92339	0.63052
1430.99482	0.62887
1429.06626	0.62770
1427.13770	0.62689
1425.20913	0.62648
1423.28057	0.62636
1421.35200	0.62628
1419.42344	0.62623
1417.49487	0.62581
1415.56631	0.62467
1413.63774	0.62363
1411.70918	0.62317
1409.78062	0.62326
1407.85205	0.62377
1405.92349	0.62467
1403.99492	0.62550
1402.06636	0.62557
1400.13779	0.62487
1398.20923	0.62356
1396.28066	0.62161
1394.35210	0.61876
1392.42354	0.61532
1390.49497	0.61208
1388.56641	0.60889
1386.63784	0.60518
1384.70928	0.60102
1382.78071	0.59697
1380.85215	0.59338
1378.92358	0.59041
1376.99502	0.58804
1375.06646	0.58633
1373.13789	0.58505
1371.20933	0.58402
1369.28076	0.58312
1367.35220	0.58192
1365.42363	0.58043
1363.49507	0.57909
1361.56650	0.57784
1359.63794	0.57650
1357.70937	0.57536
1355.78081	0.57441
1353.85225	0.57355
1351.92368	0.57276
1349.99512	0.57205
1348.06655	0.57140
1346.13799	0.57070
1344.20942	0.56993
1342.28086	0.56929
1340.35229	0.56887
1338.42373	0.56832
1336.49517	0.56748
1334.56660	0.56663
1332.63804	0.56605
1330.70947	0.56580
1328.78091	0.56574
1326.85234	0.56583
1324.92378	0.56616
1322.99521	0.56662
1321.06665	0.56690
1319.13809	0.56689
1317.20952	0.56671
1315.28096	0.56652
1313.35239	0.56615
1311.42383	0.56550
1309.49526	0.56483
1307.56670	0.56436
1305.63813	0.56404
1303.70957	0.56358
1301.78101	0.56288
1299.85244	0.56212
1297.92388	0.56132
1295.99531	0.56034
1294.06675	0.55923
1292.13818	0.55812
1290.20962	0.55706
1288.28105	0.55619
1286.35249	0.55539
1284.42393	0.55446
1282.49536	0.55346
1280.56680	0.55247
1278.63823	0.55136
1276.70967	0.55021
1274.78110	0.54917
1272.85254	0.54842
1270.92397	0.54789
1268.99541	0.54731
1267.06685	0.54678
1265.13828	0.54634
1263.20972	0.54565
1261.28115	0.54467
1259.35259	0.54383
1257.42402	0.54330
1255.49546	0.54303
1253.56689	0.54298
1251.63833	0.54300
1249.70977	0.54295
1247.78120	0.54278
1245.85264	0.54252
1243.92407	0.54207
1241.99551	0.54138
1240.06694	0.54041
1238.13838	0.53910
1236.20981	0.53750
1234.28125	0.53588
1232.35269	0.53438
1230.42412	0.53295
1228.49556	0.53153
1226.56699	0.53005
1224.63843	0.52853
1222.70986	0.52714
1220.78130	0.52599
1218.85273	0.52498
1216.92417	0.52401
1214.99561	0.52316
1213.06704	0.52257
1211.13848	0.52209
1209.20991	0.52151
1207.28135	0.52081
1205.35278	0.51992
1203.42422	0.51897
1201.49565	0.51810
1199.56709	0.51732
1197.63853	0.51673
1195.70996	0.51632
1193.78140	0.51588
1191.85283	0.51540
1189.92427	0.51509
1187.99570	0.51489
1186.06714	0.51464
1184.13857	0.51445
1182.21001	0.51462
1180.28145	0.51514
1178.35288	0.51581
1176.42432	0.51665
1174.49575	0.51753
1172.56719	0.51815
1170.63862	0.51841
1168.71006	0.51832
1166.78149	0.51795
1164.85293	0.51765
1162.92437	0.51749
1160.99580	0.51722
1159.06724	0.51670
1157.13867	0.51587
1155.21011	0.51475
1153.28154	0.51346
1151.35298	0.51200
1149.42441	0.51019
1147.49585	0.50804
1145.56729	0.50590
1143.63872	0.50383
1141.71016	0.50174
1139.78159	0.49997
1137.85303	0.49864
1135.92446	0.49712
1133.99590	0.49535
1132.06733	0.49404
1130.13877	0.49315
1128.21021	0.49213
1126.28164	0.49087
1124.35308	0.48972
1122.42451	0.48888
1120.49595	0.48814
1118.56738	0.48736
1116.63882	0.48680
1114.71025	0.48658
1112.78169	0.48675
1110.85312	0.48729
1108.92456	0.48799
1106.99600	0.48877
1105.06743	0.48990
1103.13887	0.49146
1101.21030	0.49339
1099.28174	0.49565
1097.35317	0.49836
1095.42461	0.50167
1093.49604	0.50542
1091.56748	0.50936
1089.63892	0.51367
1087.71035	0.51893
1085.78179	0.52508
1083.85322	0.53155
1081.92466	0.53795
1079.99609	0.54353
1078.06753	0.54710
1076.13896	0.54790
1074.21040	0.54599
1072.28184	0.54206
1070.35327	0.53652
1068.42471	0.52979
1066.49614	0.52278
1064.56758	0.51611
1062.63901	0.50994
1060.71045	0.50465
1058.78188	0.50042
1056.85332	0.49667
1054.92476	0.49304
1052.99619	0.48977
1051.06763	0.48696
1049.13906	0.48442
1047.21050	0.48214
1045.28193	0.48018
1043.35337	0.47844
1041.42480	0.47691
1039.49624	0.47578
1037.56768	0.47509
1035.63911	0.47470
1033.71055	0.47455
1031.78198	0.47457
1029.85342	0.47460
1027.92485	0.47470
1025.99629	0.47486
1024.06772	0.47501
1022.13916	0.47532
1020.21060	0.47593
1018.28203	0.47681
1016.35347	0.47799
1014.42490	0.47917
1012.49634	0.48015
1010.56777	0.48146
1008.63921	0.48312
1006.71064	0.48472
1004.78208	0.48644
1002.85352	0.48866
1000.92495	0.49146
998.99639	0.49486
997.06782	0.49865
995.13926	0.50239
993.21069	0.50593
991.28213	0.50926
989.35356	0.51208
987.42500	0.51406
985.49644	0.51520
983.56787	0.51584
981.63931	0.51668
979.71074	0.51805
977.78218	0.51975
975.85361	0.52204
973.92505	0.52519
971.99648	0.52859
970.06792	0.53188
968.13936	0.53557
966.21079	0.54000
964.28223	0.54476
962.35366	0.54953
960.42510	0.55451
958.49653	0.56006
956.56797	0.56600
954.63940	0.57168
952.71084	0.57731
950.78228	0.58355
948.85371	0.59024
946.92515	0.59695
944.99658	0.60338
943.06802	0.60922
941.13945	0.61479
939.21089	0.62070
937.28232	0.62691
935.35376	0.63296
933.42520	0.63867
931.49663	0.64451
929.56807	0.65056
927.63950	0.65630
925.71094	0.66171
923.78237	0.66734
921.85381	0.67409
919.92524	0.68166
917.99668	0.68876
916.06812	0.69556
914.13955	0.70321
912.21099	0.71147
910.28242	0.71946
908.35386	0.72791
906.42529	0.73716
904.49673	0.74621
902.56816	0.75506
900.63960	0.76417
898.71104	0.77374
896.78247	0.78443
894.85391	0.79553
892.92534	0.80538
890.99678	0.81450
889.06821	0.82460
887.13965	0.83658
885.21108	0.84953
883.28252	0.86213
881.35396	0.87416
879.42539	0.88504
877.49683	0.89570
875.56826	0.90788
873.63970	0.92037
871.71113	0.93229
869.78257	0.94332
867.85400	0.95281
865.92544	0.96320
863.99687	0.97560
862.06831	0.98761
860.13975	0.99890
858.21118	1.01055
856.28262	1.02220
854.35405	1.03431
852.42549	1.04768
850.49692	1.06155
848.56836	1.07440
846.63979	1.08569
844.71123	1.09646
842.78267	1.10843
840.85410	1.12188
838.92554	1.13427
836.99697	1.14578
835.06841	1.15903
833.13984	1.17238
831.21128	1.18425
829.28271	1.19526
827.35415	1.20357
825.42559	1.21312
823.49702	1.23209
821.56846	1.25143
819.63989	1.25931
817.71133	1.26375
815.78276	1.27169
813.85420	1.27817
811.92563	1.28189
809.99707	1.29575
808.06851	1.32940
806.13994	1.36341
804.21138	1.37650
802.28281	1.39403
800.35425	1.43522
798.42568	1.46637
796.49712	1.46130
794.56855	1.47096
792.63999	1.53875
790.71143	1.59435
788.78286	1.56965
786.85430	1.55979
784.92573	1.57687
782.99717	1.59601
781.06860	1.56265
779.14004	1.50546
777.21147	1.53312
775.28291	1.61540
773.35435	1.58457
771.42578	1.50027
769.49722	1.46062
767.56865	1.40573
765.64009	1.30014
763.71152	1.21975
761.78296	1.22113
759.85439	1.33435
757.92583	1.48824
755.99727	1.45438
754.06870	1.34047
752.14014	1.21954
750.21157	1.09770
748.28301	1.01086
746.35444	0.95673
744.42588	0.90977
742.49731	0.87423
740.56875	0.84123
738.64019	0.77577
736.71162	0.69840
734.78306	0.63689
732.85449	0.56869
730.92593	0.45176
728.99736	0.31500
727.06880	0.25622
725.14023	0.28915
723.21167	0.15896
721.28311	-0.06737
719.35454	-0.17607
717.42598	-0.21217
715.49741	-0.20089
713.56885	-0.08164
711.64028	0.06338
709.71172	0.07178
707.78315	0.01610
705.85459	0.03746
703.92603	0.11720
701.99746	0.20343
700.06890	0.36652
698.14033	0.62813
696.21177	0.59358
694.28320	0.35212
692.35464	0.25946
690.42607	0.24638
688.49751	0.21168
686.56895	0.17017
684.64038	0.18094
682.71182	0.24503
680.78325	0.31008
678.85469	0.37751
676.92612	0.46749
674.99756	0.51557
673.06899	0.48798
671.14043	0.44142
669.21187	0.36988
667.28330	0.33295
665.35474	0.32137
663.42617	0.29575
661.49761	0.28453
659.56904	0.29760
657.64048	0.34102
655.71191	0.40315
653.78335	0.39808
651.85479	0.30854
649.92622	0.24904
647.99766	0.34551
646.06909	0.64163
644.14053	0.55318
642.21196	0.30018
640.28340	0.19986
638.35483	0.19008
636.42627	0.24079
634.49771	0.31358
632.56914	0.33680
630.64058	0.26479
628.71201	0.19584
626.78345	0.20944
624.85488	0.24631
622.92632	0.24834
620.99775	0.27193
619.06919	0.32753
617.14062	0.30991
615.21206	0.24980
613.28350	0.25267
611.35493	0.36031
609.42637	0.48454
607.49780	0.42941
605.56924	0.33962
603.64067	0.28959
601.71211	0.25447
599.78354	0.22579
597.85498	0.20545
595.92642	0.22258
593.99785	0.26952
592.06929	0.30710
590.14072	0.30481
588.21216	0.27642
586.28359	0.25941
584.35503	0.27533
582.42646	0.29245
580.49790	0.25382
578.56934	0.23094
576.64077	0.25956
574.71221	0.26217
572.78364	0.24449
570.85508	0.24193
568.92651	0.22577
566.99795	0.24028
565.06938	0.31899
563.14082	0.33840
561.21226	0.26381
559.28369	0.23269
557.35513	0.24259
555.42656	0.26193
553.49800	0.26422
551.56943	0.20891
549.64087	0.15236
547.71230	0.14932
545.78374	0.16051
543.85518	0.14025
541.92661	0.13225
539.99805	0.17374
538.06948	0.27883
536.14092	0.37013
534.21235	0.32951
532.28379	0.26058
530.35522	0.24436
528.42666	0.23465
526.49810	0.20523
524.56953	0.19389
522.64097	0.19261
520.71240	0.20203
518.78384	0.25498
516.85527	0.33896
514.92671	0.35455
512.99814	0.23086
511.06958	0.14271
509.14102	0.14286
507.21245	0.19994
505.28389	0.27036
503.35532	0.31845
501.42676	0.27984
499.49819	0.19900
