3997.91411	0.08457
3995.98555	0.08548
3994.05698	0.08625
3992.12842	0.08650
3990.19985	0.08634
3988.27129	0.08618
3986.34272	0.08631
3984.41416	0.08677
3982.48560	0.08723
3980.55703	0.08744
3978.62847	0.08750
3976.69990	0.08777
3974.77134	0.08821
3972.84277	0.08825
3970.91421	0.08804
3968.98564	0.08807
3967.05708	0.08824
3965.12852	0.08839
3963.19995	0.08857
3961.27139	0.08879
3959.34282	0.08909
3957.41426	0.08943
3955.48569	0.08949
3953.55713	0.08946
3951.62856	0.08998
3949.70000	0.09108
3947.77144	0.09191
3945.84287	0.09162
3943.91431	0.09105
3941.98574	0.09102
3940.05718	0.09039
3938.12861	0.08910
3936.20005	0.08862
3934.27148	0.08967
3932.34292	0.09184
3930.41436	0.09340
3928.48579	0.09288
3926.55723	0.09167
3924.62866	0.09158
3922.70010	0.09171
3920.77153	0.09123
3918.84297	0.09145
3916.91440	0.09209
3914.98584	0.09118
3913.05728	0.08926
3911.12871	0.08815
3909.20015	0.08828
3907.27158	0.08989
3905.34302	0.09344
3903.41445	0.09746
3901.48589	0.09880
3899.55732	0.09725
3897.62876	0.09420
3895.70020	0.09126
3893.77163	0.09072
3891.84307	0.09258
3889.91450	0.09341
3887.98594	0.09240
3886.05737	0.09307
3884.12881	0.09488
3882.20024	0.09542
3880.27168	0.09564
3878.34312	0.09465
3876.41455	0.09297
3874.48599	0.09364
3872.55742	0.09619
3870.62886	0.09887
3868.70029	0.10003
3866.77173	0.09860
3864.84316	0.09814
3862.91460	0.09872
3860.98604	0.09689
3859.05747	0.09486
3857.12891	0.09598
3855.20034	0.10061
3853.27178	0.10755
3851.34321	0.10871
3849.41465	0.10234
3847.48608	0.09740
3845.55752	0.09636
3843.62896	0.09889
3841.70039	0.10330
3839.77183	0.10793
3837.84326	0.11130
3835.91470	0.11069
3833.98613	0.10766
3832.05757	0.10558
3830.12900	0.10446
3828.20044	0.10402
3826.27187	0.10444
3824.34331	0.10553
3822.41475	0.10861
3820.48618	0.11369
3818.55762	0.11522
3816.62905	0.11413
3814.70049	0.11318
3812.77192	0.11039
3810.84336	0.10800
3808.91479	0.10883
3806.98623	0.11271
3805.05767	0.11637
3803.12910	0.11884
3801.20054	0.12221
3799.27197	0.12345
3797.34341	0.12158
3795.41484	0.11972
3793.48628	0.11803
3791.55771	0.11716
3789.62915	0.11785
3787.70059	0.11965
3785.77202	0.12230
3783.84346	0.12499
3781.91489	0.12672
3779.98633	0.12854
3778.05776	0.13050
3776.12920	0.13074
3774.20063	0.13057
3772.27207	0.13232
3770.34351	0.13644
3768.41494	0.14039
3766.48638	0.14204
3764.55781	0.14305
3762.62925	0.14430
3760.70068	0.14677
3758.77212	0.15101
3756.84355	0.15465
3754.91499	0.15718
3752.98643	0.16175
3751.05786	0.16984
3749.12930	0.17640
3747.20073	0.17698
3745.27217	0.17785
3743.34360	0.18151
3741.41504	0.18380
3739.48647	0.18550
3737.55791	0.19043
3735.62935	0.19981
3733.70078	0.20862
3731.77222	0.21064
3729.84365	0.21046
3727.91509	0.21302
3725.98652	0.21913
3724.05796	0.22646
3722.12939	0.23224
3720.20083	0.23686
3718.27227	0.24106
3716.34370	0.24574
3714.41514	0.25274
3712.48657	0.26481
3710.55801	0.28225
3708.62944	0.29654
3706.70088	0.30465
3704.77231	0.31340
3702.84375	0.32642
3700.91519	0.34348
3698.98662	0.36061
3697.05806	0.37662
3695.12949	0.39448
3693.20093	0.41479
3691.27236	0.43858
3689.34380	0.46843
3687.41523	0.50062
3685.48667	0.52656
3683.55811	0.54974
3681.62954	0.57685
3679.70098	0.60936
3677.77241	0.64518
3675.84385	0.68793
3673.91528	0.74044
3671.98672	0.78055
3670.05815	0.81739
3668.12959	0.86754
3666.20103	0.91200
3664.27246	0.94964
3662.34390	0.99151
3660.41533	1.03798
3658.48677	1.08500
3656.55820	1.13543
3654.62964	1.19028
3652.70107	1.23707
3650.77251	1.28161
3648.84395	1.34262
3646.91538	1.40852
3644.98682	1.45209
3643.05825	1.48694
3641.12969	1.52564
3639.20112	1.56922
3637.27256	1.61293
3635.34399	1.65639
3633.41543	1.70186
3631.48687	1.74579
3629.55830	1.79037
3627.62974	1.84430
3625.70117	1.88954
3623.77261	1.91940
3621.84404	1.95125
3619.91548	1.99191
3617.98691	2.04090
3616.05835	2.08405
3614.12979	2.11875
3612.20122	2.15672
3610.27266	2.19610
3608.34409	2.23615
3606.41553	2.27859
3604.48696	2.31791
3602.55840	2.35334
3600.62983	2.39122
3598.70127	2.43193
3596.77271	2.47284
3594.84414	2.51458
3592.91558	2.55548
3590.98701	2.59315
3589.05845	2.63077
3587.12988	2.67642
3585.20132	2.72202
3583.27275	2.75819
3581.34419	2.79337
3579.41562	2.83298
3577.48706	2.87667
3575.55850	2.92198
3573.62993	2.96646
3571.70137	3.00848
3569.77280	3.05103
3567.84424	3.09867
3565.91567	3.15339
3563.98711	3.20132
3562.05854	3.23823
3560.12998	3.27652
3558.20142	3.32062
3556.27285	3.36645
3554.34429	3.40987
3552.41572	3.45507
3550.48716	3.50300
3548.55859	3.54864
3546.63003	3.59181
3544.70146	3.63756
3542.77290	3.68663
3540.84434	3.73592
3538.91577	3.78424
3536.98721	3.83185
3535.05864	3.88181
3533.13008	3.93299
3531.20151	3.98399
3529.27295	4.03487
3527.34438	4.08514
3525.41582	4.13136
3523.48726	4.17479
3521.55869	4.22294
3519.63013	4.27250
3517.70156	4.31991
3515.77300	4.36782
3513.84443	4.41510
3511.91587	4.45944
3509.98730	4.50646
3508.05874	4.56130
3506.13018	4.61665
3504.20161	4.66438
3502.27305	4.70782
3500.34448	4.75447
3498.41592	4.80135
3496.48735	4.84359
3494.55879	4.88770
3492.63022	4.93772
3490.70166	4.98985
3488.77310	5.04631
3486.84453	5.10280
3484.91597	5.15317
3482.98740	5.20327
3481.05884	5.25135
3479.13027	5.29406
3477.20171	5.34115
3475.27314	5.39501
3473.34458	5.44327
3471.41602	5.47960
3469.48745	5.51121
3467.55889	5.54831
3465.63032	5.59922
3463.70176	5.66196
3461.77319	5.72797
3459.84463	5.79856
3457.91606	5.86170
3455.98750	5.90326
3454.05894	5.94435
3452.13037	6.00217
3450.20181	6.05887
3448.27324	6.10022
3446.34468	6.14007
3444.41611	6.18889
3442.48755	6.24460
3440.55898	6.30799
3438.63042	6.37343
3436.70186	6.41323
3434.77329	6.43601
3432.84473	6.48255
3430.91616	6.55005
3428.98760	6.62344
3427.05903	6.69574
3425.13047	6.74421
3423.20190	6.76249
3421.27334	6.80805
3419.34478	6.90582
3417.41621	6.99849
3415.48765	7.04551
3413.55908	7.06478
3411.63052	7.08806
3409.70195	7.12707
3407.77339	7.18688
3405.84482	7.23094
3403.91626	7.25540
3401.98770	7.31797
3400.05913	7.42475
3398.13057	7.49508
3396.20200	7.50064
3394.27344	7.51916
3392.34487	7.54467
3390.41631	7.55190
3388.48774	7.58079
3386.55918	7.66319
3384.63062	7.76636
3382.70205	7.84614
3380.77349	7.91595
3378.84492	7.98118
3376.91636	7.98565
3374.98779	7.93340
3373.05923	7.92937
3371.13066	7.94920
3369.20210	7.94671
3367.27354	7.94468
3365.34497	7.96520
3363.41641	8.02836
3361.48784	8.11681
3359.55928	8.16924
3357.63071	8.14323
3355.70215	8.08759
3353.77358	8.01932
3351.84502	7.99257
3349.91646	8.05559
3347.98789	8.16759
3346.05933	8.27110
3344.13076	8.34792
3342.20220	8.40756
3340.27363	8.38140
3338.34507	8.26835
3336.41650	8.20380
3334.48794	8.29585
3332.55937	8.49606
3330.63081	8.66334
3328.70225	8.66534
3326.77368	8.52271
3324.84512	8.39545
3322.91655	8.33932
3320.98799	8.35236
3319.05942	8.41060
3317.13086	8.47877
3315.20229	8.47107
3313.27373	8.40804
3311.34517	8.40740
3309.41660	8.43008
3307.48804	8.37139
3305.55947	8.31000
3303.63091	8.38352
3301.70234	8.52057
3299.77378	8.60078
3297.84521	8.63281
3295.91665	8.66516
3293.98809	8.61159
3292.05952	8.45101
3290.13096	8.42789
3288.20239	8.63990
3286.27383	8.91153
3284.34526	8.99224
3282.41670	8.87333
3280.48813	8.70642
3278.55957	8.58766
3276.63101	8.53986
3274.70244	8.54163
3272.77388	8.50422
3270.84531	8.39053
3268.91675	8.30789
3266.98818	8.31436
3265.05962	8.42255
3263.13105	8.53920
3261.20249	8.53913
3259.27393	8.54060
3257.34536	8.55836
3255.41680	8.52299
3253.48823	8.57213
3251.55967	8.67420
3249.63110	8.62515
3247.70254	8.46970
3245.77397	8.39603
3243.84541	8.51362
3241.91685	8.70226
3239.98828	8.70810
3238.05972	8.58590
3236.13115	8.50150
3234.20259	8.48740
3232.27402	8.61286
3230.34546	8.77594
3228.41689	8.73235
3226.48833	8.56565
3224.55977	8.39327
3222.63120	8.27812
3220.70264	8.20200
3218.77407	8.11520
3216.84551	8.07218
3214.91694	8.09124
3212.98838	8.15578
3211.05981	8.20020
3209.13125	8.17959
3207.20269	8.17580
3205.27412	8.18368
3203.34556	8.10908
3201.41699	8.00339
3199.48843	7.99079
3197.55986	8.03698
3195.63130	8.00208
3193.70273	7.91279
3191.77417	7.84913
3189.84561	7.77930
3187.91704	7.68705
3185.98848	7.61703
3184.05991	7.59707
3182.13135	7.57309
3180.20278	7.51028
3178.27422	7.46046
3176.34565	7.42753
3174.41709	7.38035
3172.48853	7.34000
3170.55996	7.32434
3168.63140	7.29124
3166.70283	7.19447
3164.77427	7.06166
3162.84570	6.94105
3160.91714	6.85339
3158.98857	6.79361
3157.06001	6.73086
3155.13145	6.66195
3153.20288	6.60513
3151.27432	6.55130
3149.34575	6.48530
3147.41719	6.40297
3145.48862	6.31247
3143.56006	6.23340
3141.63149	6.16430
3139.70293	6.08871
3137.77437	6.00675
3135.84580	5.92604
3133.91724	5.85531
3131.98867	5.78912
3130.06011	5.71319
3128.13154	5.62975
3126.20298	5.55343
3124.27441	5.49277
3122.34585	5.43340
3120.41729	5.35892
3118.48872	5.27321
3116.56016	5.18997
3114.63159	5.11740
3112.70303	5.05489
3110.77446	4.99375
3108.84590	4.92647
3106.91733	4.85686
3104.98877	4.78537
3103.06021	4.71007
3101.13164	4.63706
3099.20308	4.57144
3097.27451	4.50939
3095.34595	4.44330
3093.41738	4.37362
3091.48882	4.30716
3089.56025	4.24318
3087.63169	4.17622
3085.70312	4.10985
3083.77456	4.04774
3081.84600	3.98662
3079.91743	3.92545
3077.98887	3.86456
3076.06030	3.80414
3074.13174	3.74511
3072.20317	3.68577
3070.27461	3.62558
3068.34604	3.56778
3066.41748	3.51307
3064.48892	3.45805
3062.56035	3.40091
3060.63179	3.34384
3058.70322	3.28899
3056.77466	3.23567
3054.84609	3.18266
3052.91753	3.13034
3050.98896	3.07848
3049.06040	3.02629
3047.13184	2.97476
3045.20327	2.92481
3043.27471	2.87558
3041.34614	2.82611
3039.41758	2.77744
3037.48901	2.73068
3035.56045	2.68463
3033.63188	2.63844
3031.70332	2.59299
3029.77476	2.54880
3027.84619	2.50540
3025.91763	2.46230
3023.98906	2.41967
3022.06050	2.37814
3020.13193	2.33718
3018.20337	2.29560
3016.27480	2.25406
3014.34624	2.21400
3012.41768	2.17540
3010.48911	2.13716
3008.56055	2.09928
3006.63198	2.06248
3004.70342	2.02672
3002.77485	1.99166
3000.84629	1.95733
2998.91772	1.92373
2996.98916	1.89073
2995.06060	1.85829
2993.13203	1.82627
2991.20347	1.79527
2989.27490	1.76562
2987.34634	1.73587
2985.41777	1.70569
2983.48921	1.67642
2981.56064	1.64849
2979.63208	1.62154
2977.70352	1.59485
2975.77495	1.56782
2973.84639	1.54115
2971.91782	1.51553
2969.98926	1.49059
2968.06069	1.46578
2966.13213	1.44115
2964.20356	1.41714
2962.27500	1.39352
2960.34644	1.36951
2958.41787	1.34545
2956.48931	1.32196
2954.56074	1.29840
2952.63218	1.27476
2950.70361	1.25199
2948.77505	1.23028
2946.84648	1.20906
2944.91792	1.18754
2942.98936	1.16578
2941.06079	1.14474
2939.13223	1.12430
2937.20366	1.10396
2935.27510	1.08374
2933.34653	1.06332
2931.41797	1.04292
2929.48940	1.02321
2927.56084	1.00376
2925.63228	0.98445
2923.70371	0.96635
2921.77515	0.94949
2919.84658	0.93274
2917.91802	0.91584
2915.98945	0.89948
2914.06089	0.88421
2912.13232	0.86961
2910.20376	0.85494
2908.27520	0.84002
2906.34663	0.82532
2904.41807	0.81136
2902.48950	0.79810
2900.56094	0.78498
2898.63237	0.77173
2896.70381	0.75870
2894.77524	0.74597
2892.84668	0.73346
2890.91812	0.72161
2888.98955	0.71078
2887.06099	0.70043
2885.13242	0.68994
2883.20386	0.67953
2881.27529	0.66941
2879.34673	0.65942
2877.41816	0.64958
2875.48960	0.63976
2873.56104	0.62968
2871.63247	0.61934
2869.70391	0.60870
2867.77534	0.59754
2865.84678	0.58580
2863.91821	0.57391
2861.98965	0.56231
2860.06108	0.55116
2858.13252	0.54062
2856.20396	0.53062
2854.27539	0.52102
2852.34683	0.51229
2850.41826	0.50458
2848.48970	0.49719
2846.56113	0.48983
2844.63257	0.48288
2842.70400	0.47636
2840.77544	0.47011
2838.84687	0.46407
2836.91831	0.45810
2834.98975	0.45223
2833.06118	0.44647
2831.13262	0.44065
2829.20405	0.43486
2827.27549	0.42934
2825.34692	0.42388
2823.41836	0.41808
2821.48979	0.41204
2819.56123	0.40601
2817.63267	0.39999
2815.70410	0.39421
2813.77554	0.38881
2811.84697	0.38345
2809.91841	0.37807
2807.98984	0.37283
2806.06128	0.36772
2804.13271	0.36270
2802.20415	0.35777
2800.27559	0.35289
2798.34702	0.34807
2796.41846	0.34320
2794.48989	0.33832
2792.56133	0.33377
2790.63276	0.32952
2788.70420	0.32526
2786.77563	0.32103
2784.84707	0.31692
2782.91851	0.31275
2780.98994	0.30851
2779.06138	0.30450
2777.13281	0.30075
2775.20425	0.29699
2773.27568	0.29325
2771.34712	0.28962
2769.41855	0.28603
2767.48999	0.28250
2765.56143	0.27909
2763.63286	0.27573
2761.70430	0.27246
2759.77573	0.26939
2757.84717	0.26631
2755.91860	0.26303
2753.99004	0.25974
2752.06147	0.25683
2750.13291	0.25422
2748.20435	0.25143
2746.27578	0.24834
2744.34722	0.24532
2742.41865	0.24261
2740.49009	0.23999
2738.56152	0.23737
2736.63296	0.23495
2734.70439	0.23269
2732.77583	0.23032
2730.84727	0.22786
2728.91870	0.22566
2726.99014	0.22373
2725.06157	0.22168
2723.13301	0.21949
2721.20444	0.21738
2719.27588	0.21527
2717.34731	0.21320
2715.41875	0.21129
2713.49019	0.20947
2711.56162	0.20765
2709.63306	0.20595
2707.70449	0.20444
2705.77593	0.20294
2703.84736	0.20131
2701.91880	0.19966
2699.99023	0.19815
2698.06167	0.19674
2696.13311	0.19526
2694.20454	0.19373
2692.27598	0.19226
2690.34741	0.19082
2688.41885	0.18957
2686.49028	0.18861
2684.56172	0.18762
2682.63315	0.18638
2680.70459	0.18508
2678.77603	0.18392
2676.84746	0.18283
2674.91890	0.18168
2672.99033	0.18049
2671.06177	0.17942
2669.13320	0.17843
2667.20464	0.17743
2665.27607	0.17647
2663.34751	0.17558
2661.41895	0.17474
2659.49038	0.17390
2657.56182	0.17305
2655.63325	0.17225
2653.70469	0.17161
2651.77612	0.17099
2649.84756	0.17019
2647.91899	0.16941
2645.99043	0.16882
2644.06187	0.16831
2642.13330	0.16778
2640.20474	0.16721
2638.27617	0.16674
2636.34761	0.16638
2634.41904	0.16592
2632.49048	0.16538
2630.56191	0.16485
2628.63335	0.16439
2626.70479	0.16404
2624.77622	0.16370
2622.84766	0.16342
2620.91909	0.16329
2618.99053	0.16324
2617.06196	0.16316
2615.13340	0.16286
2613.20483	0.16239
2611.27627	0.16214
2609.34771	0.16206
2607.41914	0.16185
2605.49058	0.16160
2603.56201	0.16151
2601.63345	0.16161
2599.70488	0.16176
2597.77632	0.16181
2595.84775	0.16175
2593.91919	0.16173
2591.99062	0.16182
2590.06206	0.16192
2588.13350	0.16201
2586.20493	0.16218
2584.27637	0.16250
2582.34780	0.16278
2580.41924	0.16288
2578.49067	0.16294
2576.56211	0.16317
2574.63354	0.16364
2572.70498	0.16415
2570.77642	0.16451
2568.84785	0.16480
2566.91929	0.16513
2564.99072	0.16544
2563.06216	0.16577
2561.13359	0.16622
2559.20503	0.16664
2557.27646	0.16692
2555.34790	0.16725
2553.41934	0.16775
2551.49077	0.16834
2549.56221	0.16893
2547.63364	0.16953
2545.70508	0.17017
2543.77651	0.17078
2541.84795	0.17129
2539.91938	0.17181
2537.99082	0.17244
2536.06226	0.17311
2534.13369	0.17381
2532.20513	0.17460
2530.27656	0.17536
2528.34800	0.17592
2526.41943	0.17645
2524.49087	0.17712
2522.56230	0.17779
2520.63374	0.17836
2518.70518	0.17901
2516.77661	0.17982
2514.84805	0.18070
2512.91948	0.18160
2510.99092	0.18244
2509.06235	0.18319
2507.13379	0.18391
2505.20522	0.18468
2503.27666	0.18540
2501.34810	0.18602
2499.41953	0.18678
2497.49097	0.18779
2495.56240	0.18873
2493.63384	0.18943
2491.70527	0.19011
2489.77671	0.19097
2487.84814	0.19194
2485.91958	0.19284
2483.99102	0.19361
2482.06245	0.19434
2480.13389	0.19514
2478.20532	0.19604
2476.27676	0.19701
2474.34819	0.19801
2472.41963	0.19890
2470.49106	0.19971
2468.56250	0.20062
2466.63394	0.20154
2464.70537	0.20235
2462.77681	0.20315
2460.84824	0.20400
2458.91968	0.20489
2456.99111	0.20582
2455.06255	0.20674
2453.13398	0.20760
2451.20542	0.20845
2449.27686	0.20945
2447.34829	0.21057
2445.41973	0.21171
2443.49116	0.21280
2441.56260	0.21377
2439.63403	0.21466
2437.70547	0.21562
2435.77690	0.21664
2433.84834	0.21774
2431.91978	0.21891
2429.99121	0.21995
2428.06265	0.22086
2426.13408	0.22180
2424.20552	0.22284
2422.27695	0.22388
2420.34839	0.22482
2418.41982	0.22571
2416.49126	0.22671
2414.56270	0.22791
2412.63413	0.22924
2410.70557	0.23052
2408.77700	0.23172
2406.84844	0.23290
2404.91987	0.23400
2402.99131	0.23511
2401.06274	0.23635
2399.13418	0.23757
2397.20562	0.23864
2395.27705	0.23970
2393.34849	0.24085
2391.41992	0.24214
2389.49136	0.24372
2387.56279	0.24577
2385.63423	0.24858
2383.70566	0.25258
2381.77710	0.25797
2379.84854	0.26451
2377.91997	0.27188
2375.99141	0.28017
2374.06284	0.28975
2372.13428	0.30081
2370.20571	0.31322
2368.27715	0.32597
2366.34858	0.33800
2364.42002	0.34875
2362.49146	0.35714
2360.56289	0.36241
2358.63433	0.36367
2356.70576	0.35992
2354.77720	0.35170
2352.84863	0.34066
2350.92007	0.32920
2348.99150	0.32213
2347.06294	0.32268
2345.13437	0.33136
2343.20581	0.34326
2341.27725	0.34972
2339.34868	0.35049
2337.42012	0.34975
2335.49155	0.34943
2333.56299	0.34948
2331.63442	0.34974
2329.70586	0.34938
2327.77729	0.34789
2325.84873	0.34593
2323.92017	0.34409
2321.99160	0.34192
2320.06304	0.33884
2318.13447	0.33544
2316.20591	0.33280
2314.27734	0.33144
2312.34878	0.33096
2310.42021	0.33052
2308.49165	0.32961
2306.56309	0.32829
2304.63452	0.32711
2302.70596	0.32668
2300.77739	0.32686
2298.84883	0.32722
2296.92026	0.32769
2294.99170	0.32828
2293.06313	0.32893
2291.13457	0.32964
2289.20601	0.33043
2287.27744	0.33136
2285.34888	0.33238
2283.42031	0.33365
2281.49175	0.33548
2279.56318	0.33767
2277.63462	0.33984
2275.70605	0.34193
2273.77749	0.34405
2271.84893	0.34625
2269.92036	0.34843
2267.99180	0.35043
2266.06323	0.35232
2264.13467	0.35419
2262.20610	0.35606
2260.27754	0.35799
2258.34897	0.35993
2256.42041	0.36181
2254.49185	0.36378
2252.56328	0.36590
2250.63472	0.36802
2248.70615	0.37007
2246.77759	0.37215
2244.84902	0.37428
2242.92046	0.37638
2240.99189	0.37838
2239.06333	0.38033
2237.13477	0.38237
2235.20620	0.38455
2233.27764	0.38676
2231.34907	0.38892
2229.42051	0.39100
2227.49194	0.39301
2225.56338	0.39519
2223.63481	0.39762
2221.70625	0.40001
2219.77769	0.40213
2217.84912	0.40418
2215.92056	0.40634
2213.99199	0.40854
2212.06343	0.41074
2210.13486	0.41290
2208.20630	0.41493
2206.27773	0.41694
2204.34917	0.41902
2202.42061	0.42109
2200.49204	0.42308
2198.56348	0.42494
2196.63491	0.42676
2194.70635	0.42879
2192.77778	0.43089
2190.84922	0.43284
2188.92065	0.43474
2186.99209	0.43658
2185.06353	0.43826
2183.13496	0.43986
2181.20640	0.44152
2179.27783	0.44321
2177.34927	0.44483
2175.42070	0.44636
2173.49214	0.44781
2171.56357	0.44922
2169.63501	0.45063
2167.70645	0.45203
2165.77788	0.45332
2163.84932	0.45440
2161.92075	0.45536
2159.99219	0.45635
2158.06362	0.45740
2156.13506	0.45844
2154.20649	0.45933
2152.27793	0.46009
2150.34937	0.46079
2148.42080	0.46143
2146.49224	0.46197
2144.56367	0.46235
2142.63511	0.46258
2140.70654	0.46273
2138.77798	0.46290
2136.84941	0.46311
2134.92085	0.46332
2132.99229	0.46343
2131.06372	0.46328
2129.13516	0.46288
2127.20659	0.46241
2125.27803	0.46207
2123.34946	0.46176
2121.42090	0.46135
2119.49233	0.46076
2117.56377	0.46012
2115.63521	0.45956
2113.70664	0.45899
2111.77808	0.45816
2109.84951	0.45711
2107.92095	0.45600
2105.99238	0.45476
2104.06382	0.45333
2102.13525	0.45188
2100.20669	0.45048
2098.27812	0.44908
2096.34956	0.44762
2094.42100	0.44613
2092.49243	0.44462
2090.56387	0.44298
2088.63530	0.44109
2086.70674	0.43913
2084.77817	0.43720
2082.84961	0.43533
2080.92104	0.43342
2078.99248	0.43149
2077.06392	0.42961
2075.13535	0.42762
2073.20679	0.42533
2071.27822	0.42288
2069.34966	0.42048
2067.42109	0.41821
2065.49253	0.41600
2063.56396	0.41361
2061.63540	0.41114
2059.70684	0.40869
2057.77827	0.40619
2055.84971	0.40361
2053.92114	0.40094
2051.99258	0.39831
2050.06401	0.39571
2048.13545	0.39305
2046.20688	0.39032
2044.27832	0.38770
2042.34976	0.38517
2040.42119	0.38254
2038.49263	0.37974
2036.56406	0.37691
2034.63550	0.37419
2032.70693	0.37143
2030.77837	0.36855
2028.84980	0.36567
2026.92124	0.36284
2024.99268	0.35995
2023.06411	0.35708
2021.13555	0.35440
2019.20698	0.35194
2017.27842	0.34948
2015.34985	0.34670
2013.42129	0.34372
2011.49272	0.34081
2009.56416	0.33799
2007.63560	0.33525
2005.70703	0.33258
2003.77847	0.32994
2001.84990	0.32738
1999.92134	0.32492
1997.99277	0.32238
1996.06421	0.31975
1994.13564	0.31746
1992.20708	0.31548
1990.27852	0.31298
1988.34995	0.31003
1986.42139	0.30722
1984.49282	0.30462
1982.56426	0.30224
1980.63569	0.30009
1978.70713	0.29790
1976.77856	0.29557
1974.85000	0.29332
1972.92144	0.29123
1970.99287	0.28921
1969.06431	0.28740
1967.13574	0.28569
1965.20718	0.28363
1963.27861	0.28130
1961.35005	0.27916
1959.42148	0.27728
1957.49292	0.27561
1955.56436	0.27400
1953.63579	0.27221
1951.70723	0.27026
1949.77866	0.26842
1947.85010	0.26692
1945.92153	0.26581
1943.99297	0.26495
1942.06440	0.26373
1940.13584	0.26176
1938.20728	0.25984
1936.27871	0.25848
1934.35015	0.25729
1932.42158	0.25599
1930.49302	0.25468
1928.56445	0.25352
1926.63589	0.25245
1924.70732	0.25176
1922.77876	0.25135
1920.85020	0.25059
1918.92163	0.24969
1916.99307	0.24867
1915.06450	0.24726
1913.13594	0.24609
1911.20737	0.24553
1909.27881	0.24512
1907.35024	0.24444
1905.42168	0.24358
1903.49312	0.24282
1901.56455	0.24218
1899.63599	0.24161
1897.70742	0.24128
1895.77886	0.24117
1893.85029	0.24099
1891.92173	0.24080
1889.99316	0.24091
1888.06460	0.24066
1886.13604	0.23999
1884.20747	0.23958
1882.27891	0.23939
1880.35034	0.23920
1878.42178	0.23897
1876.49321	0.23874
1874.56465	0.23861
1872.63608	0.23889
1870.70752	0.23998
1868.77896	0.24165
1866.85039	0.24202
1864.92183	0.24093
1862.99326	0.24020
1861.06470	0.24028
1859.13613	0.24070
1857.20757	0.24108
1855.27900	0.24142
1853.35044	0.24173
1851.42187	0.24227
1849.49331	0.24326
1847.56475	0.24463
1845.63618	0.24622
1843.70762	0.24742
1841.77905	0.24742
1839.85049	0.24718
1837.92192	0.24786
1835.99336	0.24887
1834.06479	0.24987
1832.13623	0.25143
1830.20767	0.25385
1828.27910	0.25558
1826.35054	0.25618
1824.42197	0.25696
1822.49341	0.25757
1820.56484	0.25826
1818.63628	0.25950
1816.70771	0.26111
1814.77915	0.26271
1812.85059	0.26472
1810.92202	0.26723
1808.99346	0.26934
1807.06489	0.27093
1805.13633	0.27272
1803.20776	0.27532
1801.27920	0.27844
1799.35063	0.28140
1797.42207	0.28378
1795.49351	0.28644
1793.56494	0.29005
1791.63638	0.29407
1789.70781	0.29652
1787.77925	0.29802
1785.85068	0.30085
1783.92212	0.30468
1781.99355	0.30883
1780.06499	0.31310
1778.13643	0.31726
1776.20786	0.32150
1774.27930	0.32683
1772.35073	0.33389
1770.42217	0.34006
1768.49360	0.34425
1766.56504	0.34832
1764.63647	0.35307
1762.70791	0.35918
1760.77935	0.36690
1758.85078	0.37381
1756.92222	0.38074
1754.99365	0.38816
1753.06509	0.39533
1751.13652	0.40489
1749.20796	0.41673
1747.27939	0.42703
1745.35083	0.43529
1743.42227	0.44431
1741.49370	0.45471
1739.56514	0.46701
1737.63657	0.47930
1735.70801	0.49092
1733.77944	0.50863
1731.85088	0.52781
1729.92231	0.54180
1727.99375	0.55616
1726.06519	0.57236
1724.13662	0.59084
1722.20806	0.61111
1720.27949	0.63055
1718.35093	0.65433
1716.42236	0.68755
1714.49380	0.71653
1712.56523	0.73946
1710.63667	0.76273
1708.70811	0.78890
1706.77954	0.81933
1704.85098	0.85526
1702.92241	0.88708
1700.99385	0.91937
1699.06528	0.96693
1697.13672	1.00980
1695.20815	1.05266
1693.27959	1.09409
1691.35103	1.12849
1689.42246	1.16913
1687.49390	1.21260
1685.56533	1.25631
1683.63677	1.32142
1681.70820	1.38496
1679.77964	1.42599
1677.85107	1.46662
1675.92251	1.51372
1673.99395	1.57133
1672.06538	1.62390
1670.13682	1.67648
1668.20825	1.74164
1666.27969	1.79429
1664.35112	1.84101
1662.42256	1.90104
1660.49399	1.96826
1658.56543	2.02013
1656.63687	2.06167
1654.70830	2.10097
1652.77974	2.16149
1650.85117	2.21641
1648.92261	2.23787
1646.99404	2.26490
1645.06548	2.28869
1643.13691	2.30074
1641.20835	2.30837
1639.27979	2.31749
1637.35122	2.32408
1635.42266	2.32351
1633.49409	2.31299
1631.56553	2.29605
1629.63696	2.27656
1627.70840	2.24699
1625.77983	2.21298
1623.85127	2.17048
1621.92271	2.11698
1619.99414	2.06874
1618.06558	2.02401
1616.13701	1.96106
1614.20845	1.89405
1612.27988	1.84195
1610.35132	1.78938
1608.42275	1.73351
1606.49419	1.67830
1604.56562	1.62721
1602.63706	1.57851
1600.70850	1.53111
1598.77993	1.48720
1596.85137	1.44639
1594.92280	1.40740
1592.99424	1.36977
1591.06567	1.33493
1589.13711	1.30223
1587.20854	1.27212
1585.27998	1.24479
1583.35142	1.21951
1581.42285	1.19655
1579.49429	1.17770
1577.56572	1.16203
1575.63716	1.14272
1573.70859	1.12391
1571.78003	1.11182
1569.85146	1.10138
1567.92290	1.09009
1565.99434	1.08114
1564.06577	1.07491
1562.13721	1.07145
1560.20864	1.07258
1558.28008	1.07682
1556.35151	1.07564
1554.42295	1.07337
1552.49438	1.07246
1550.56582	1.07089
1548.63726	1.06719
1546.70869	1.06156
1544.78013	1.05435
1542.85156	1.04531
1540.92300	1.03104
1538.99443	1.00361
1537.06587	0.98002
1535.13730	0.96477
1533.20874	0.94647
1531.28018	0.92637
1529.35161	0.91180
1527.42305	0.89941
1525.49448	0.88698
1523.56592	0.87634
1521.63735	0.86622
1519.70879	0.85493
1517.78022	0.84476
1515.85166	0.83272
1513.92310	0.81929
1511.99453	0.80822
1510.06597	0.80004
1508.13740	0.79377
1506.20884	0.78147
1504.28027	0.76650
1502.35171	0.75759
1500.42314	0.75142
1498.49458	0.74589
1496.56602	0.73893
1494.63745	0.73079
1492.70889	0.72466
1490.78032	0.72068
1488.85176	0.71601
1486.92319	0.70966
1484.99463	0.70387
1483.06606	0.69969
1481.13750	0.69670
1479.20894	0.69466
1477.28037	0.69408
1475.35181	0.69502
1473.42324	0.69626
1471.49468	0.69472
1469.56611	0.69074
1467.63755	0.68779
1465.70898	0.68644
1463.78042	0.68521
1461.85186	0.68406
1459.92329	0.68466
1457.99473	0.68700
1456.06616	0.68695
1454.13760	0.68303
1452.20903	0.67951
1450.28047	0.67686
1448.35190	0.67459
1446.42334	0.67197
1444.49478	0.66902
1442.56621	0.66625
1440.63765	0.66379
1438.70908	0.66172
1436.78052	0.65919
1434.85195	0.65549
1432.92339	0.65235
1430.99482	0.65057
1429.06626	0.64945
1427.13770	0.64866
1425.20913	0.64882
1423.28057	0.64972
1421.35200	0.65042
1419.42344	0.65107
1417.49487	0.65080
1415.56631	0.64892
1413.63774	0.64737
1411.70918	0.64706
1409.78062	0.64760
1407.85205	0.64860
1405.92349	0.65013
1403.99492	0.65140
1402.06636	0.65149
1400.13779	0.65112
1398.20923	0.65054
1396.28066	0.64886
1394.35210	0.64530
1392.42354	0.64051
1390.49497	0.63620
1388.56641	0.63257
1386.63784	0.62834
1384.70928	0.62320
1382.78071	0.61838
1380.85215	0.61429
1378.92358	0.61093
1376.99502	0.60855
1375.06646	0.60708
1373.13789	0.60566
1371.20933	0.60414
1369.28076	0.60307
1367.35220	0.60196
1365.42363	0.60063
1363.49507	0.59958
1361.56650	0.59838
1359.63794	0.59651
1357.70937	0.59467
1355.78081	0.59320
1353.85225	0.59196
1351.92368	0.59101
1349.99512	0.59044
1348.06655	0.58982
1346.13799	0.58888
1344.20942	0.58802
1342.28086	0.58759
1340.35229	0.58753
1338.42373	0.58712
1336.49517	0.58594
1334.56660	0.58474
1332.63804	0.58405
1330.70947	0.58389
1328.78091	0.58414
1326.85234	0.58460
1324.92378	0.58510
1322.99521	0.58574
1321.06665	0.58658
1319.13809	0.58741
1317.20952	0.58774
1315.28096	0.58744
1313.35239	0.58684
1311.42383	0.58606
1309.49526	0.58524
1307.56670	0.58461
1305.63813	0.58400
1303.70957	0.58332
1301.78101	0.58268
1299.85244	0.58188
1297.92388	0.58097
1295.99531	0.58008
1294.06675	0.57898
1292.13818	0.57763
1290.20962	0.57628
1288.28105	0.57494
1286.35249	0.57366
1284.42393	0.57258
1282.49536	0.57159
1280.56680	0.57054
1278.63823	0.56930
1276.70967	0.56798
1274.78110	0.56685
1272.85254	0.56599
1270.92397	0.56531
1268.99541	0.56467
1267.06685	0.56385
1265.13828	0.56300
1263.20972	0.56232
1261.28115	0.56166
1259.35259	0.56089
1257.42402	0.56011
1255.49546	0.55957
1253.56689	0.55940
1251.63833	0.55941
1249.70977	0.55937
1247.78120	0.55921
1245.85264	0.55896
1243.92407	0.55853
1241.99551	0.55776
1240.06694	0.55659
1238.13838	0.55504
1236.20981	0.55317
1234.28125	0.55118
1232.35269	0.54916
1230.42412	0.54711
1228.49556	0.54512
1226.56699	0.54332
1224.63843	0.54171
1222.70986	0.54017
1220.78130	0.53865
1218.85273	0.53727
1216.92417	0.53609
1214.99561	0.53502
1213.06704	0.53409
1211.13848	0.53334
1209.20991	0.53264
1207.28135	0.53188
1205.35278	0.53106
1203.42422	0.53027
1201.49565	0.52938
1199.56709	0.52833
1197.63853	0.52744
1195.70996	0.52686
1193.78140	0.52647
1191.85283	0.52605
1189.92427	0.52545
1187.99570	0.52482
1186.06714	0.52451
1184.13857	0.52464
1182.21001	0.52511
1180.28145	0.52584
1178.35288	0.52686
1176.42432	0.52810
1174.49575	0.52923
1172.56719	0.52993
1170.63862	0.53028
1168.71006	0.53054
1166.78149	0.53072
1164.85293	0.53086
1162.92437	0.53094
1160.99580	0.53080
1159.06724	0.53043
1157.13867	0.53001
1155.21011	0.52932
1153.28154	0.52815
1151.35298	0.52664
1149.42441	0.52462
1147.49585	0.52193
1145.56729	0.51910
1143.63872	0.51669
1141.71016	0.51474
1139.78159	0.51297
1137.85303	0.51141
1135.92446	0.51026
1133.99590	0.50961
1132.06733	0.50928
1130.13877	0.50905
1128.21021	0.50858
1126.28164	0.50771
1124.35308	0.50679
1122.42451	0.50619
1120.49595	0.50597
1118.56738	0.50593
1116.63882	0.50602
1114.71025	0.50641
1112.78169	0.50699
1110.85312	0.50770
1108.92456	0.50865
1106.99600	0.50968
1105.06743	0.51068
1103.13887	0.51182
1101.21030	0.51317
1099.28174	0.51483
1097.35317	0.51696
1095.42461	0.51971
1093.49604	0.52314
1091.56748	0.52742
1089.63892	0.53298
1087.71035	0.53994
1085.78179	0.54790
1083.85322	0.55602
1081.92466	0.56325
1079.99609	0.56868
1078.06753	0.57180
1076.13896	0.57211
1074.21040	0.56932
1072.28184	0.56417
1070.35327	0.55771
1068.42471	0.55064
1066.49614	0.54367
1064.56758	0.53736
1062.63901	0.53175
1060.71045	0.52655
1058.78188	0.52189
1056.85332	0.51794
1054.92476	0.51439
1052.99619	0.51118
1051.06763	0.50853
1049.13906	0.50640
1047.21050	0.50485
1045.28193	0.50398
1043.35337	0.50329
1041.42480	0.50240
1039.49624	0.50174
1037.56768	0.50157
1035.63911	0.50148
1033.71055	0.50100
1031.78198	0.50009
1029.85342	0.49887
1027.92485	0.49752
1025.99629	0.49637
1024.06772	0.49562
1022.13916	0.49515
1020.21060	0.49510
1018.28203	0.49546
1016.35347	0.49579
1014.42490	0.49600
1012.49634	0.49629
1010.56777	0.49677
1008.63921	0.49728
1006.71064	0.49791
1004.78208	0.49899
1002.85352	0.50081
1000.92495	0.50355
998.99639	0.50701
997.06782	0.51098
995.13926	0.51541
993.21069	0.51967
991.28213	0.52286
989.35356	0.52486
987.42500	0.52601
985.49644	0.52641
983.56787	0.52632
981.63931	0.52652
979.71074	0.52754
977.78218	0.52922
975.85361	0.53125
973.92505	0.53361
971.99648	0.53645
970.06792	0.53975
968.13936	0.54342
966.21079	0.54747
964.28223	0.55183
962.35366	0.55669
960.42510	0.56217
958.49653	0.56776
956.56797	0.57315
954.63940	0.57883
952.71084	0.58511
950.78228	0.59158
948.85371	0.59805
946.92515	0.60474
944.99658	0.61141
943.06802	0.61755
941.13945	0.62337
939.21089	0.62935
937.28232	0.63564
935.35376	0.64190
933.42520	0.64750
931.49663	0.65281
929.56807	0.65848
927.63950	0.66437
925.71094	0.67054
923.78237	0.67715
921.85381	0.68424
919.92524	0.69177
917.99668	0.69974
916.06812	0.70764
914.13955	0.71466
912.21099	0.72135
910.28242	0.72869
908.35386	0.73673
906.42529	0.74561
904.49673	0.75504
902.56816	0.76439
900.63960	0.77416
898.71104	0.78495
896.78247	0.79601
894.85391	0.80650
892.92534	0.81657
890.99678	0.82712
889.06821	0.83867
887.13965	0.85039
885.21108	0.86222
883.28252	0.87386
881.35396	0.88410
879.42539	0.89365
877.49683	0.90400
875.56826	0.91603
873.63970	0.92911
871.71113	0.94127
869.78257	0.95198
867.85400	0.96270
865.92544	0.97499
863.99687	0.98802
862.06831	0.99968
860.13975	1.01122
858.21118	1.02451
856.28262	1.03759
854.35405	1.04894
852.42549	1.06000
850.49692	1.07218
848.56836	1.08423
846.63979	1.09620
844.71123	1.10955
842.78267	1.12288
840.85410	1.13668
838.92554	1.14979
836.99697	1.16000
835.06841	1.17118
833.13984	1.18575
831.21128	1.20520
829.28271	1.22842
827.35415	1.24500
825.42559	1.25042
823.49702	1.25106
821.56846	1.25591
819.63989	1.27300
817.71133	1.29891
815.78276	1.32901
813.85420	1.36150
811.92563	1.38750
809.99707	1.40015
808.06851	1.39283
806.13994	1.37425
804.21138	1.37415
802.28281	1.40759
800.35425	1.44359
798.42568	1.45467
796.49712	1.47672
794.56855	1.55580
792.63999	1.72021
790.71143	1.98421
788.78286	2.35946
786.85430	2.35278
784.92573	2.23258
782.99717	4.69798
781.06860	4.68641
779.14004	2.05004
777.21147	1.63777
775.28291	1.49681
773.35435	1.49336
771.42578	1.54031
769.49722	1.54482
767.56865	1.45151
765.64009	1.34036
763.71152	1.31087
761.78296	1.35384
759.85439	1.32697
757.92583	1.21971
755.99727	1.16135
754.06870	1.11916
752.14014	1.05377
750.21157	1.00734
748.28301	0.98880
746.35444	0.98839
744.42588	1.04796
742.49731	1.16746
740.56875	1.10864
738.64019	0.85305
736.71162	0.65622
734.78306	0.53976
732.85449	0.45880
730.92593	0.41053
728.99736	0.41387
727.06880	0.40744
725.14023	0.34926
723.21167	0.29883
721.28311	0.26975
719.35454	0.24990
717.42598	0.22433
715.49741	0.17624
713.56885	0.16177
711.64028	0.17406
709.71172	0.11672
707.78315	0.00476
705.85459	-0.11937
703.92603	-0.27030
701.99746	-0.26986
700.06890	-0.07186
698.14033	0.07900
696.21177	0.07221
694.28320	-0.04904
692.35464	-0.15151
690.42607	-0.13173
688.49751	-0.07701
686.56895	-0.06400
684.64038	-0.06492
682.71182	-0.08816
680.78325	-0.15315
678.85469	-0.21569
676.92612	-0.23619
674.99756	-0.23671
673.06899	-0.23092
671.14043	-0.17465
669.21187	-0.07378
667.28330	0.03008
665.35474	0.08491
663.42617	0.08485
661.49761	0.06154
659.56904	0.00910
657.64048	0.00869
655.71191	0.06818
653.78335	0.06617
651.85479	-0.03841
649.92622	-0.13583
647.99766	-0.11675
646.06909	-0.03444
644.14053	0.05319
642.21196	0.09894
640.28340	0.11229
638.35483	0.11072
636.42627	0.07888
634.49771	0.01166
632.56914	-0.05904
630.64058	-0.07383
628.71201	-0.07018
626.78345	-0.10725
624.85488	-0.10527
622.92632	-0.06724
620.99775	-0.06005
619.06919	-0.06178
617.14062	-0.05204
615.21206	-0.02540
613.28350	0.00883
611.35493	0.02167
609.42637	0.00526
607.49780	-0.02515
605.56924	-0.04388
603.64067	-0.02587
601.71211	0.01711
599.78354	0.02324
597.85498	-0.03181
595.92642	-0.08659
593.99785	-0.09394
592.06929	-0.07784
590.14072	-0.07447
588.21216	-0.09436
586.28359	-0.12671
584.35503	-0.11551
582.42646	-0.05078
580.49790	0.02154
578.56934	0.04678
576.64077	0.02297
574.71221	0.01387
572.78364	0.02115
570.85508	-0.00580
568.92651	-0.06778
566.99795	-0.12526
565.06938	-0.15604
563.14082	-0.13645
561.21226	-0.05646
559.28369	0.04598
557.35513	0.05639
555.42656	0.02926
553.49800	0.03143
551.56943	0.01651
549.64087	0.00083
547.71230	-0.00537
545.78374	-0.03891
543.85518	-0.08813
541.92661	-0.11616
539.99805	-0.10299
538.06948	-0.05334
536.14092	-0.00622
534.21235	0.00162
532.28379	-0.04620
530.35522	-0.06154
528.42666	-0.04815
526.49810	-0.04288
524.56953	-0.01986
522.64097	-0.00395
520.71240	-0.06901
518.78384	-0.13473
516.85527	-0.08763
514.92671	0.00694
512.99814	0.04224
511.06958	-0.00654
509.14102	-0.05785
507.21245	-0.08562
505.28389	-0.09331
503.35532	-0.05184
501.42676	-0.02364
499.49819	-0.01617
