3997.91411	0.07455
3995.98555	0.07450
3994.05698	0.07426
3992.12842	0.07430
3990.19985	0.07478
3988.27129	0.07542
3986.34272	0.07602
3984.41416	0.07632
3982.48560	0.07632
3980.55703	0.07643
3978.62847	0.07661
3976.69990	0.07664
3974.77134	0.07647
3972.84277	0.07636
3970.91421	0.07664
3968.98564	0.07714
3967.05708	0.07751
3965.12852	0.07772
3963.19995	0.07785
3961.27139	0.07786
3959.34282	0.07788
3957.41426	0.07827
3955.48569	0.07884
3953.55713	0.07890
3951.62856	0.07853
3949.70000	0.07843
3947.77144	0.07855
3945.84287	0.07832
3943.91431	0.07788
3941.98574	0.07788
3940.05718	0.07822
3938.12861	0.07832
3936.20005	0.07816
3934.27148	0.07803
3932.34292	0.07819
3930.41436	0.07835
3928.48579	0.07813
3926.55723	0.07808
3924.62866	0.07836
3922.70010	0.07819
3920.77153	0.07773
3918.84297	0.07773
3916.91440	0.07797
3914.98584	0.07780
3913.05728	0.07720
3911.12871	0.07694
3909.20015	0.07725
3907.27158	0.07747
3905.34302	0.07754
3903.41445	0.07808
3901.48589	0.07885
3899.55732	0.07917
3897.62876	0.07886
3895.70020	0.07816
3893.77163	0.07776
3891.84307	0.07791
3889.91450	0.07814
3887.98594	0.07801
3886.05737	0.07804
3884.12881	0.07852
3882.20024	0.07905
3880.27168	0.07965
3878.34312	0.07987
3876.41455	0.07950
3874.48599	0.07928
3872.55742	0.07926
3870.62886	0.07985
3868.70029	0.08137
3866.77173	0.08178
3864.84316	0.08130
3862.91460	0.08114
3860.98604	0.08059
3859.05747	0.08014
3857.12891	0.08037
3855.20034	0.08101
3853.27178	0.08258
3851.34321	0.08444
3849.41465	0.08416
3847.48608	0.08335
3845.55752	0.08340
3843.62896	0.08438
3841.70039	0.08552
3839.77183	0.08637
3837.84326	0.08770
3835.91470	0.08908
3833.98613	0.08923
3832.05757	0.08863
3830.12900	0.08818
3828.20044	0.08860
3826.27187	0.09013
3824.34331	0.09185
3822.41475	0.09333
3820.48618	0.09502
3818.55762	0.09541
3816.62905	0.09512
3814.70049	0.09597
3812.77192	0.09649
3810.84336	0.09628
3808.91479	0.09674
3806.98623	0.09832
3805.05767	0.10006
3803.12910	0.10137
3801.20054	0.10338
3799.27197	0.10490
3797.34341	0.10484
3795.41484	0.10521
3793.48628	0.10613
3791.55771	0.10698
3789.62915	0.10807
3787.70059	0.10935
3785.77202	0.11065
3783.84346	0.11210
3781.91489	0.11370
3779.98633	0.11554
3778.05776	0.11735
3776.12920	0.11825
3774.20063	0.11892
3772.27207	0.12060
3770.34351	0.12353
3768.41494	0.12648
3766.48638	0.12816
3764.55781	0.12983
3762.62925	0.13181
3760.70068	0.13360
3758.77212	0.13591
3756.84355	0.13877
3754.91499	0.14099
3752.98643	0.14270
3751.05786	0.14552
3749.12930	0.14980
3747.20073	0.15285
3745.27217	0.15522
3743.34360	0.15892
3741.41504	0.16230
3739.48647	0.16474
3737.55791	0.16800
3735.62935	0.17309
3733.70078	0.17928
3731.77222	0.18397
3729.84365	0.18715
3727.91509	0.19050
3725.98652	0.19531
3724.05796	0.20142
3722.12939	0.20811
3720.20083	0.21520
3718.27227	0.22214
3716.34370	0.22891
3714.41514	0.23604
3712.48657	0.24525
3710.55801	0.25847
3708.62944	0.27258
3706.70088	0.28406
3704.77231	0.29476
3702.84375	0.30735
3700.91519	0.32406
3698.98662	0.34246
3697.05806	0.35941
3695.12949	0.37693
3693.20093	0.39562
3691.27236	0.41618
3689.34380	0.44328
3687.41523	0.47736
3685.48667	0.50763
3683.55811	0.53328
3681.62954	0.56045
3679.70098	0.59115
3677.77241	0.62366
3675.84385	0.66216
3673.91528	0.71363
3671.98672	0.75650
3670.05815	0.79475
3668.12959	0.84615
3666.20103	0.89338
3664.27246	0.93342
3662.34390	0.97661
3660.41533	1.02327
3658.48677	1.06920
3656.55820	1.11785
3654.62964	1.17182
3652.70107	1.21763
3650.77251	1.25807
3648.84395	1.31263
3646.91538	1.37808
3644.98682	1.42766
3643.05825	1.46677
3641.12969	1.50635
3639.20112	1.54950
3637.27256	1.59304
3635.34399	1.63608
3633.41543	1.67996
3631.48687	1.72104
3629.55830	1.76160
3627.62974	1.81391
3625.70117	1.86326
3623.77261	1.89713
3621.84404	1.93010
3619.91548	1.96818
3617.98691	2.01256
3616.05835	2.05489
3614.12979	2.09251
3612.20122	2.13291
3610.27266	2.17166
3608.34409	2.20960
3606.41553	2.25161
3604.48696	2.29146
3602.55840	2.32678
3600.62983	2.36470
3598.70127	2.40595
3596.77271	2.44679
3594.84414	2.48875
3592.91558	2.53153
3590.98701	2.57026
3589.05845	2.60596
3587.12988	2.64926
3585.20132	2.69735
3583.27275	2.73867
3581.34419	2.77636
3579.41562	2.81617
3577.48706	2.85902
3575.55850	2.90316
3573.62993	2.94748
3571.70137	2.98892
3569.77280	3.02864
3567.84424	3.07282
3565.91567	3.12573
3563.98711	3.17456
3562.05854	3.21556
3560.12998	3.25934
3558.20142	3.30496
3556.27285	3.34889
3554.34429	3.39344
3552.41572	3.44136
3550.48716	3.48881
3548.55859	3.53351
3546.63003	3.57846
3544.70146	3.62460
3542.77290	3.67094
3540.84434	3.72026
3538.91577	3.77172
3536.98721	3.81955
3535.05864	3.86257
3533.13008	3.90430
3531.20151	3.95223
3529.27295	4.00506
3527.34438	4.05528
3525.41582	4.10211
3523.48726	4.15292
3521.55869	4.21057
3519.63013	4.26477
3517.70156	4.31193
3515.77300	4.35640
3513.84443	4.40159
3511.91587	4.44916
3509.98730	4.49967
3508.05874	4.55226
3506.13018	4.60257
3504.20161	4.64810
3502.27305	4.69162
3500.34448	4.73554
3498.41592	4.78271
3496.48735	4.83647
3494.55879	4.89052
3492.63022	4.93896
3490.70166	4.98211
3488.77310	5.02247
3486.84453	5.06877
3484.91597	5.12204
3482.98740	5.17642
3481.05884	5.23061
3479.13027	5.27981
3477.20171	5.32694
3475.27314	5.37685
3473.34458	5.42452
3471.41602	5.46873
3469.48745	5.51140
3467.55889	5.55141
3465.63032	5.59051
3463.70176	5.63977
3461.77319	5.69672
3459.84463	5.75087
3457.91606	5.80952
3455.98750	5.87483
3454.05894	5.93201
3452.13037	5.98513
3450.20181	6.04585
3448.27324	6.09602
3446.34468	6.13189
3444.41611	6.17319
3442.48755	6.23498
3440.55898	6.31106
3438.63042	6.36624
3436.70186	6.39750
3434.77329	6.44257
3432.84473	6.50312
3430.91616	6.55889
3428.98760	6.61717
3427.05903	6.67165
3425.13047	6.71417
3423.20190	6.76441
3421.27334	6.82132
3419.34478	6.85380
3417.41621	6.88820
3415.48765	6.95932
3413.55908	7.02744
3411.63052	7.06417
3409.70195	7.08588
3407.77339	7.11169
3405.84482	7.13640
3403.91626	7.17797
3401.98770	7.24651
3400.05913	7.32321
3398.13057	7.40774
3396.20200	7.47663
3394.27344	7.51929
3392.34487	7.57323
3390.41631	7.63499
3388.48774	7.66008
3386.55918	7.70860
3384.63062	7.78172
3382.70205	7.77590
3380.77349	7.73609
3378.84492	7.73825
3376.91636	7.77399
3374.98779	7.83115
3373.05923	7.89843
3371.13066	7.93819
3369.20210	7.96497
3367.27354	7.98488
3365.34497	7.97138
3363.41641	7.94905
3361.48784	7.94693
3359.55928	7.93513
3357.63071	7.92714
3355.70215	7.99357
3353.77358	8.07621
3351.84502	8.12206
3349.91646	8.15981
3347.98789	8.16237
3346.05933	8.11050
3344.13076	8.11248
3342.20220	8.19924
3340.27363	8.20678
3338.34507	8.15548
3336.41650	8.18721
3334.48794	8.29342
3332.55937	8.37284
3330.63081	8.38790
3328.70225	8.37610
3326.77368	8.35639
3324.84512	8.32620
3322.91655	8.25880
3320.98799	8.20140
3319.05942	8.25696
3317.13086	8.38999
3315.20229	8.40841
3313.27373	8.31529
3311.34517	8.26842
3309.41660	8.30125
3307.48804	8.36506
3305.55947	8.43619
3303.63091	8.47188
3301.70234	8.44537
3299.77378	8.43641
3297.84521	8.40289
3295.91665	8.30313
3293.98809	8.24177
3292.05952	8.28716
3290.13096	8.42493
3288.20239	8.59503
3286.27383	8.69092
3284.34526	8.70527
3282.41670	8.77757
3280.48813	8.89470
3278.55957	8.83456
3276.63101	8.56200
3274.70244	8.39226
3272.77388	8.41360
3270.84531	8.46599
3268.91675	8.49225
3266.98818	8.53133
3265.05962	8.57425
3263.13105	8.55047
3261.20249	8.52878
3259.27393	8.56475
3257.34536	8.55580
3255.41680	8.53967
3253.48823	8.61552
3251.55967	8.68087
3249.63110	8.66646
3247.70254	8.65945
3245.77397	8.73230
3243.84541	8.92916
3241.91685	9.01356
3239.98828	8.77958
3238.05972	8.50752
3236.13115	8.35503
3234.20259	8.29874
3232.27402	8.34168
3230.34546	8.43615
3228.41689	8.46684
3226.48833	8.45560
3224.55977	8.46709
3222.63120	8.52455
3220.70264	8.59690
3218.77407	8.59662
3216.84551	8.48191
3214.91694	8.34518
3212.98838	8.32045
3211.05981	8.37537
3209.13125	8.40532
3207.20269	8.36814
3205.27412	8.25472
3203.34556	8.13709
3201.41699	8.04549
3199.48843	7.94995
3197.55986	7.88143
3195.63130	7.80861
3193.70273	7.69546
3191.77417	7.62132
3189.84561	7.62382
3187.91704	7.65774
3185.98848	7.64444
3184.05991	7.57616
3182.13135	7.52774
3180.20278	7.50390
3178.27422	7.47346
3176.34565	7.45096
3174.41709	7.41826
3172.48853	7.33916
3170.55996	7.24225
3168.63140	7.16919
3166.70283	7.12111
3164.77427	7.04768
3162.84570	6.90624
3160.91714	6.76623
3158.98857	6.70652
3157.06001	6.68649
3155.13145	6.63234
3153.20288	6.55933
3151.27432	6.50917
3149.34575	6.45734
3147.41719	6.37403
3145.48862	6.28444
3143.56006	6.20904
3141.63149	6.13092
3139.70293	6.03662
3137.77437	5.94854
3135.84580	5.88223
3133.91724	5.82224
3131.98867	5.75133
3130.06011	5.67646
3128.13154	5.61268
3126.20298	5.55466
3124.27441	5.49321
3122.34585	5.42077
3120.41729	5.33475
3118.48872	5.25260
3116.56016	5.18582
3114.63159	5.11914
3112.70303	5.04448
3110.77446	4.97420
3108.84590	4.91028
3106.91733	4.84378
3104.98877	4.77183
3103.06021	4.70029
3101.13164	4.63301
3099.20308	4.56891
3097.27451	4.50548
3095.34595	4.43896
3093.41738	4.36883
3091.48882	4.29773
3089.56025	4.23015
3087.63169	4.16870
3085.70312	4.10916
3083.77456	4.04674
3081.84600	3.98267
3079.91743	3.91910
3077.98887	3.85731
3076.06030	3.79801
3074.13174	3.73984
3072.20317	3.68181
3070.27461	3.62391
3068.34604	3.56717
3066.41748	3.51146
3064.48892	3.45544
3062.56035	3.39963
3060.63179	3.34517
3058.70322	3.29225
3056.77466	3.23954
3054.84609	3.18579
3052.91753	3.13235
3050.98896	3.08045
3049.06040	3.02861
3047.13184	2.97684
3045.20327	2.92730
3043.27471	2.87978
3041.34614	2.83220
3039.41758	2.78457
3037.48901	2.73776
3035.56045	2.69041
3033.63188	2.64284
3031.70332	2.59727
3029.77476	2.55344
3027.84619	2.51066
3025.91763	2.46829
3023.98906	2.42548
3022.06050	2.38269
3020.13193	2.34070
3018.20337	2.29954
3016.27480	2.25895
3014.34624	2.21893
3012.41768	2.17981
3010.48911	2.14180
3008.56055	2.10452
3006.63198	2.06785
3004.70342	2.03215
3002.77485	1.99725
3000.84629	1.96246
2998.91772	1.92797
2996.98916	1.89503
2995.06060	1.86399
2993.13203	1.83363
2991.20347	1.80350
2989.27490	1.77406
2987.34634	1.74482
2985.41777	1.71537
2983.48921	1.68647
2981.56064	1.65882
2979.63208	1.63229
2977.70352	1.60644
2975.77495	1.58099
2973.84639	1.55604
2971.91782	1.53133
2969.98926	1.50652
2968.06069	1.48207
2966.13213	1.45841
2964.20356	1.43516
2962.27500	1.41144
2960.34644	1.38698
2958.41787	1.36234
2956.48931	1.33795
2954.56074	1.31424
2952.63218	1.29134
2950.70361	1.26859
2948.77505	1.24576
2946.84648	1.22359
2944.91792	1.20206
2942.98936	1.18041
2941.06079	1.15930
2939.13223	1.13911
2937.20366	1.11853
2935.27510	1.09689
2933.34653	1.07506
2931.41797	1.05358
2929.48940	1.03252
2927.56084	1.01196
2925.63228	0.99185
2923.70371	0.97258
2921.77515	0.95468
2919.84658	0.93791
2917.91802	0.92200
2915.98945	0.90699
2914.06089	0.89219
2912.13232	0.87749
2910.20376	0.86336
2908.27520	0.84938
2906.34663	0.83531
2904.41807	0.82114
2902.48950	0.80696
2900.56094	0.79330
2898.63237	0.78054
2896.70381	0.76812
2894.77524	0.75540
2892.84668	0.74288
2890.91812	0.73110
2888.98955	0.71979
2887.06099	0.70908
2885.13242	0.69934
2883.20386	0.69004
2881.27529	0.68050
2879.34673	0.67087
2877.41816	0.66145
2875.48960	0.65193
2873.56104	0.64171
2871.63247	0.63074
2869.70391	0.61931
2867.77534	0.60728
2865.84678	0.59470
2863.91821	0.58222
2861.98965	0.57020
2860.06108	0.55855
2858.13252	0.54703
2856.20396	0.53539
2854.27539	0.52436
2852.34683	0.51493
2850.41826	0.50681
2848.48970	0.49928
2846.56113	0.49235
2844.63257	0.48631
2842.70400	0.48093
2840.77544	0.47550
2838.84687	0.46974
2836.91831	0.46404
2834.98975	0.45847
2833.06118	0.45275
2831.13262	0.44688
2829.20405	0.44103
2827.27549	0.43520
2825.34692	0.42919
2823.41836	0.42312
2821.48979	0.41737
2819.56123	0.41179
2817.63267	0.40601
2815.70410	0.40019
2813.77554	0.39468
2811.84697	0.38940
2809.91841	0.38415
2807.98984	0.37879
2806.06128	0.37328
2804.13271	0.36791
2802.20415	0.36290
2800.27559	0.35805
2798.34702	0.35303
2796.41846	0.34786
2794.48989	0.34285
2792.56133	0.33826
2790.63276	0.33396
2788.70420	0.32962
2786.77563	0.32526
2784.84707	0.32114
2782.91851	0.31710
2780.98994	0.31289
2779.06138	0.30863
2777.13281	0.30447
2775.20425	0.30044
2773.27568	0.29657
2771.34712	0.29293
2769.41855	0.28934
2767.48999	0.28553
2765.56143	0.28168
2763.63286	0.27809
2761.70430	0.27476
2759.77573	0.27164
2757.84717	0.26858
2755.91860	0.26538
2753.99004	0.26209
2752.06147	0.25894
2750.13291	0.25591
2748.20435	0.25300
2746.27578	0.25034
2744.34722	0.24775
2742.41865	0.24494
2740.49009	0.24217
2738.56152	0.23968
2736.63296	0.23717
2734.70439	0.23453
2732.77583	0.23200
2730.84727	0.22966
2728.91870	0.22747
2726.99014	0.22525
2725.06157	0.22284
2723.13301	0.22043
2721.20444	0.21831
2719.27588	0.21632
2717.34731	0.21427
2715.41875	0.21227
2713.49019	0.21041
2711.56162	0.20866
2709.63306	0.20687
2707.70449	0.20495
2705.77593	0.20315
2703.84736	0.20152
2701.91880	0.19996
2699.99023	0.19839
2698.06167	0.19681
2696.13311	0.19539
2694.20454	0.19422
2692.27598	0.19308
2690.34741	0.19175
2688.41885	0.19027
2686.49028	0.18886
2684.56172	0.18764
2682.63315	0.18652
2680.70459	0.18532
2678.77603	0.18399
2676.84746	0.18274
2674.91890	0.18171
2672.99033	0.18065
2671.06177	0.17946
2669.13320	0.17831
2667.20464	0.17727
2665.27607	0.17632
2663.34751	0.17539
2661.41895	0.17454
2659.49038	0.17373
2657.56182	0.17286
2655.63325	0.17204
2653.70469	0.17143
2651.77612	0.17084
2649.84756	0.17011
2647.91899	0.16931
2645.99043	0.16850
2644.06187	0.16775
2642.13330	0.16711
2640.20474	0.16655
2638.27617	0.16612
2636.34761	0.16578
2634.41904	0.16528
2632.49048	0.16469
2630.56191	0.16421
2628.63335	0.16386
2626.70479	0.16351
2624.77622	0.16311
2622.84766	0.16290
2620.91909	0.16270
2618.99053	0.16233
2617.06196	0.16201
2615.13340	0.16183
2613.20483	0.16161
2611.27627	0.16130
2609.34771	0.16104
2607.41914	0.16092
2605.49058	0.16085
2603.56201	0.16076
2601.63345	0.16072
2599.70488	0.16071
2597.77632	0.16063
2595.84775	0.16056
2593.91919	0.16061
2591.99062	0.16067
2590.06206	0.16060
2588.13350	0.16054
2586.20493	0.16070
2584.27637	0.16101
2582.34780	0.16118
2580.41924	0.16120
2578.49067	0.16142
2576.56211	0.16183
2574.63354	0.16211
2572.70498	0.16224
2570.77642	0.16245
2568.84785	0.16288
2566.91929	0.16338
2564.99072	0.16378
2563.06216	0.16410
2561.13359	0.16445
2559.20503	0.16487
2557.27646	0.16527
2555.34790	0.16561
2553.41934	0.16603
2551.49077	0.16654
2549.56221	0.16707
2547.63364	0.16770
2545.70508	0.16835
2543.77651	0.16886
2541.84795	0.16932
2539.91938	0.16981
2537.99082	0.17030
2536.06226	0.17092
2534.13369	0.17160
2532.20513	0.17214
2530.27656	0.17267
2528.34800	0.17338
2526.41943	0.17418
2524.49087	0.17486
2522.56230	0.17544
2520.63374	0.17613
2518.70518	0.17698
2516.77661	0.17775
2514.84805	0.17826
2512.91948	0.17883
2510.99092	0.17961
2509.06235	0.18039
2507.13379	0.18108
2505.20522	0.18178
2503.27666	0.18255
2501.34810	0.18346
2499.41953	0.18442
2497.49097	0.18515
2495.56240	0.18572
2493.63384	0.18655
2491.70527	0.18754
2489.77671	0.18829
2487.84814	0.18896
2485.91958	0.18987
2483.99102	0.19089
2482.06245	0.19179
2480.13389	0.19256
2478.20532	0.19325
2476.27676	0.19391
2474.34819	0.19472
2472.41963	0.19578
2470.49106	0.19686
2468.56250	0.19767
2466.63394	0.19833
2464.70537	0.19911
2462.77681	0.20000
2460.84824	0.20084
2458.91968	0.20168
2456.99111	0.20260
2455.06255	0.20357
2453.13398	0.20454
2451.20542	0.20549
2449.27686	0.20643
2447.34829	0.20742
2445.41973	0.20850
2443.49116	0.20956
2441.56260	0.21053
2439.63403	0.21155
2437.70547	0.21255
2435.77690	0.21344
2433.84834	0.21429
2431.91978	0.21519
2429.99121	0.21615
2428.06265	0.21712
2426.13408	0.21810
2424.20552	0.21919
2422.27695	0.22035
2420.34839	0.22139
2418.41982	0.22231
2416.49126	0.22330
2414.56270	0.22444
2412.63413	0.22568
2410.70557	0.22693
2408.77700	0.22818
2406.84844	0.22936
2404.91987	0.23048
2402.99131	0.23162
2401.06274	0.23287
2399.13418	0.23416
2397.20562	0.23532
2395.27705	0.23631
2393.34849	0.23730
2391.41992	0.23849
2389.49136	0.23994
2387.56279	0.24141
2385.63423	0.24286
2383.70566	0.24447
2381.77710	0.24635
2379.84854	0.24851
2377.91997	0.25084
2375.99141	0.25333
2374.06284	0.25625
2372.13428	0.25951
2370.20571	0.26263
2368.27715	0.26542
2366.34858	0.26841
2364.42002	0.27182
2362.49146	0.27513
2360.56289	0.27829
2358.63433	0.28086
2356.70576	0.28154
2354.77720	0.28044
2352.84863	0.27899
2350.92007	0.27797
2348.99150	0.27770
2347.06294	0.27860
2345.13437	0.28112
2343.20581	0.28477
2341.27725	0.28783
2339.34868	0.28929
2337.42012	0.28984
2335.49155	0.29083
2333.56299	0.29203
2331.63442	0.29301
2329.70586	0.29399
2327.77729	0.29523
2325.84873	0.29651
2323.92017	0.29778
2321.99160	0.29913
2320.06304	0.30031
2318.13447	0.30123
2316.20591	0.30205
2314.27734	0.30313
2312.34878	0.30466
2310.42021	0.30630
2308.49165	0.30757
2306.56309	0.30857
2304.63452	0.30971
2302.70596	0.31122
2300.77739	0.31304
2298.84883	0.31485
2296.92026	0.31650
2294.99170	0.31805
2293.06313	0.31959
2291.13457	0.32114
2289.20601	0.32278
2287.27744	0.32444
2285.34888	0.32609
2283.42031	0.32784
2281.49175	0.32980
2279.56318	0.33197
2277.63462	0.33420
2275.70605	0.33627
2273.77749	0.33813
2271.84893	0.33997
2269.92036	0.34200
2267.99180	0.34411
2266.06323	0.34618
2264.13467	0.34826
2262.20610	0.35038
2260.27754	0.35248
2258.34897	0.35451
2256.42041	0.35646
2254.49185	0.35833
2252.56328	0.36036
2250.63472	0.36265
2248.70615	0.36502
2246.77759	0.36741
2244.84902	0.36971
2242.92046	0.37186
2240.99189	0.37402
2239.06333	0.37622
2237.13477	0.37837
2235.20620	0.38045
2233.27764	0.38258
2231.34907	0.38483
2229.42051	0.38710
2227.49194	0.38926
2225.56338	0.39136
2223.63481	0.39355
2221.70625	0.39582
2219.77769	0.39807
2217.84912	0.40024
2215.92056	0.40231
2213.99199	0.40429
2212.06343	0.40632
2210.13486	0.40845
2208.20630	0.41063
2206.27773	0.41283
2204.34917	0.41496
2202.42061	0.41698
2200.49204	0.41898
2198.56348	0.42106
2196.63491	0.42307
2194.70635	0.42490
2192.77778	0.42662
2190.84922	0.42839
2188.92065	0.43023
2186.99209	0.43201
2185.06353	0.43370
2183.13496	0.43542
2181.20640	0.43723
2179.27783	0.43892
2177.34927	0.44050
2175.42070	0.44205
2173.49214	0.44355
2171.56357	0.44498
2169.63501	0.44622
2167.70645	0.44728
2165.77788	0.44841
2163.84932	0.44972
2161.92075	0.45105
2159.99219	0.45226
2158.06362	0.45333
2156.13506	0.45421
2154.20649	0.45488
2152.27793	0.45545
2150.34937	0.45602
2148.42080	0.45661
2146.49224	0.45721
2144.56367	0.45788
2142.63511	0.45850
2140.70654	0.45887
2138.77798	0.45911
2136.84941	0.45930
2134.92085	0.45936
2132.99229	0.45921
2131.06372	0.45894
2129.13516	0.45870
2127.20659	0.45856
2125.27803	0.45835
2123.34946	0.45787
2121.42090	0.45722
2119.49233	0.45666
2117.56377	0.45613
2115.63521	0.45540
2113.70664	0.45448
2111.77808	0.45345
2109.84951	0.45233
2107.92095	0.45122
2105.99238	0.45018
2104.06382	0.44916
2102.13525	0.44794
2100.20669	0.44650
2098.27812	0.44510
2096.34956	0.44372
2094.42100	0.44208
2092.49243	0.44033
2090.56387	0.43863
2088.63530	0.43682
2086.70674	0.43489
2084.77817	0.43298
2082.84961	0.43109
2080.92104	0.42918
2078.99248	0.42728
2077.06392	0.42529
2075.13535	0.42318
2073.20679	0.42092
2071.27822	0.41857
2069.34966	0.41633
2067.42109	0.41407
2065.49253	0.41170
2063.56396	0.40928
2061.63540	0.40681
2059.70684	0.40425
2057.77827	0.40169
2055.84971	0.39919
2053.92114	0.39673
2051.99258	0.39421
2050.06401	0.39149
2048.13545	0.38867
2046.20688	0.38595
2044.27832	0.38336
2042.34976	0.38080
2040.42119	0.37823
2038.49263	0.37557
2036.56406	0.37278
2034.63550	0.36990
2032.70693	0.36706
2030.77837	0.36435
2028.84980	0.36158
2026.92124	0.35875
2024.99268	0.35593
2023.06411	0.35313
2021.13555	0.35038
2019.20698	0.34770
2017.27842	0.34502
2015.34985	0.34219
2013.42129	0.33932
2011.49272	0.33650
2009.56416	0.33383
2007.63560	0.33130
2005.70703	0.32877
2003.77847	0.32614
2001.84990	0.32344
1999.92134	0.32077
1997.99277	0.31823
1996.06421	0.31575
1994.13564	0.31326
1992.20708	0.31082
1990.27852	0.30834
1988.34995	0.30580
1986.42139	0.30333
1984.49282	0.30096
1982.56426	0.29860
1980.63569	0.29622
1978.70713	0.29393
1976.77856	0.29172
1974.85000	0.28953
1972.92144	0.28732
1970.99287	0.28515
1969.06431	0.28311
1967.13574	0.28117
1965.20718	0.27922
1963.27861	0.27729
1961.35005	0.27551
1959.42148	0.27376
1957.49292	0.27193
1955.56436	0.27009
1953.63579	0.26838
1951.70723	0.26676
1949.77866	0.26514
1947.85010	0.26350
1945.92153	0.26193
1943.99297	0.26047
1942.06440	0.25899
1940.13584	0.25739
1938.20728	0.25587
1936.27871	0.25455
1934.35015	0.25329
1932.42158	0.25207
1930.49302	0.25088
1928.56445	0.24968
1926.63589	0.24854
1924.70732	0.24764
1922.77876	0.24688
1920.85020	0.24602
1918.92163	0.24514
1916.99307	0.24426
1915.06450	0.24336
1913.13594	0.24258
1911.20737	0.24194
1909.27881	0.24118
1907.35024	0.24035
1905.42168	0.23961
1903.49312	0.23905
1901.56455	0.23862
1899.63599	0.23821
1897.70742	0.23779
1895.77886	0.23738
1893.85029	0.23705
1891.92173	0.23671
1889.99316	0.23647
1888.06460	0.23624
1886.13604	0.23594
1884.20747	0.23563
1882.27891	0.23535
1880.35034	0.23522
1878.42178	0.23519
1876.49321	0.23522
1874.56465	0.23524
1872.63608	0.23526
1870.70752	0.23537
1868.77896	0.23582
1866.85039	0.23618
1864.92183	0.23613
1862.99326	0.23619
1861.06470	0.23654
1859.13613	0.23707
1857.20757	0.23755
1855.27900	0.23800
1853.35044	0.23840
1851.42187	0.23892
1849.49331	0.23953
1847.56475	0.24016
1845.63618	0.24093
1843.70762	0.24191
1841.77905	0.24272
1839.85049	0.24316
1837.92192	0.24385
1835.99336	0.24480
1834.06479	0.24577
1832.13623	0.24675
1830.20767	0.24815
1828.27910	0.24961
1826.35054	0.25066
1824.42197	0.25195
1822.49341	0.25326
1820.56484	0.25446
1818.63628	0.25579
1816.70771	0.25745
1814.77915	0.25909
1812.85059	0.26074
1810.92202	0.26263
1808.99346	0.26464
1807.06489	0.26658
1805.13633	0.26850
1803.20776	0.27073
1801.27920	0.27325
1799.35063	0.27599
1797.42207	0.27846
1795.49351	0.28081
1793.56494	0.28360
1791.63638	0.28729
1789.70781	0.29076
1787.77925	0.29327
1785.85068	0.29625
1783.92212	0.29988
1781.99355	0.30382
1780.06499	0.30800
1778.13643	0.31226
1776.20786	0.31624
1774.27930	0.32059
1772.35073	0.32648
1770.42217	0.33273
1768.49360	0.33790
1766.56504	0.34284
1764.63647	0.34794
1762.70791	0.35361
1760.77935	0.36079
1758.85078	0.36766
1756.92222	0.37442
1754.99365	0.38153
1753.06509	0.38800
1751.13652	0.39587
1749.20796	0.40576
1747.27939	0.41556
1745.35083	0.42445
1743.42227	0.43405
1741.49370	0.44472
1739.56514	0.45745
1737.63657	0.47028
1735.70801	0.48148
1733.77944	0.49790
1731.85088	0.51747
1729.92231	0.53316
1727.99375	0.54891
1726.06519	0.56578
1724.13662	0.58425
1722.20806	0.60427
1720.27949	0.62288
1718.35093	0.64472
1716.42236	0.67634
1714.49380	0.70648
1712.56523	0.73141
1710.63667	0.75558
1708.70811	0.78157
1706.77954	0.81123
1704.85098	0.84644
1702.92241	0.87787
1700.99385	0.90939
1699.06528	0.95638
1697.13672	1.00032
1695.20815	1.04555
1693.27959	1.08968
1691.35103	1.12612
1689.42246	1.16868
1687.49390	1.21363
1685.56533	1.25741
1683.63677	1.32395
1681.70820	1.39271
1679.77964	1.43767
1677.85107	1.48062
1675.92251	1.53015
1673.99395	1.59131
1672.06538	1.64641
1670.13682	1.70144
1668.20825	1.77265
1666.27969	1.83092
1664.35112	1.88119
1662.42256	1.94619
1660.49399	2.02044
1658.56543	2.07881
1656.63687	2.12654
1654.70830	2.17106
1652.77974	2.23281
1650.85117	2.28419
1648.92261	2.30215
1646.99404	2.32642
1645.06548	2.35097
1643.13691	2.36580
1641.20835	2.37306
1639.27979	2.37951
1637.35122	2.38293
1635.42266	2.37967
1633.49409	2.36840
1631.56553	2.35244
1629.63696	2.33346
1627.70840	2.30071
1625.77983	2.26028
1623.85127	2.21122
1621.92271	2.15486
1619.99414	2.10639
1618.06558	2.06023
1616.13701	1.99541
1614.20845	1.92824
1612.27988	1.87532
1610.35132	1.81997
1608.42275	1.76115
1606.49419	1.70457
1604.56562	1.65289
1602.63706	1.60334
1600.70850	1.55535
1598.77993	1.51121
1596.85137	1.47011
1594.92280	1.43075
1592.99424	1.39262
1591.06567	1.35703
1589.13711	1.32373
1587.20854	1.29342
1585.27998	1.26622
1583.35142	1.24149
1581.42285	1.21927
1579.49429	1.20055
1577.56572	1.18407
1575.63716	1.16512
1573.70859	1.14947
1571.78003	1.13992
1569.85146	1.13100
1567.92290	1.12217
1565.99434	1.11674
1564.06577	1.11403
1562.13721	1.11274
1560.20864	1.11433
1558.28008	1.12311
1556.35151	1.13109
1554.42295	1.13467
1552.49438	1.13860
1550.56582	1.14131
1548.63726	1.14092
1546.70869	1.13674
1544.78013	1.12865
1542.85156	1.11683
1540.92300	1.09792
1538.99443	1.06579
1537.06587	1.04065
1535.13730	1.02379
1533.20874	1.00227
1531.28018	0.97904
1529.35161	0.96170
1527.42305	0.94545
1525.49448	0.92860
1523.56592	0.91417
1521.63735	0.90096
1519.70879	0.88822
1517.78022	0.87737
1515.85166	0.86455
1513.92310	0.85059
1511.99453	0.83806
1510.06597	0.82671
1508.13740	0.81583
1506.20884	0.79962
1504.28027	0.78495
1502.35171	0.77645
1500.42314	0.76917
1498.49458	0.76166
1496.56602	0.75334
1494.63745	0.74498
1492.70889	0.73826
1490.78032	0.73243
1488.85176	0.72609
1486.92319	0.72018
1484.99463	0.71552
1483.06606	0.71202
1481.13750	0.70939
1479.20894	0.70769
1477.28037	0.70714
1475.35181	0.70741
1473.42324	0.70805
1471.49468	0.70787
1469.56611	0.70619
1467.63755	0.70412
1465.70898	0.70249
1463.78042	0.70141
1461.85186	0.70098
1459.92329	0.70134
1457.99473	0.70239
1456.06616	0.70273
1454.13760	0.70074
1452.20903	0.69799
1450.28047	0.69511
1448.35190	0.69228
1446.42334	0.68948
1444.49478	0.68667
1442.56621	0.68373
1440.63765	0.68075
1438.70908	0.67774
1436.78052	0.67387
1434.85195	0.66952
1432.92339	0.66635
1430.99482	0.66434
1429.06626	0.66311
1427.13770	0.66254
1425.20913	0.66283
1423.28057	0.66390
1421.35200	0.66498
1419.42344	0.66576
1417.49487	0.66586
1415.56631	0.66495
1413.63774	0.66416
1411.70918	0.66438
1409.78062	0.66581
1407.85205	0.66802
1405.92349	0.67060
1403.99492	0.67296
1402.06636	0.67399
1400.13779	0.67366
1398.20923	0.67227
1396.28066	0.66978
1394.35210	0.66582
1392.42354	0.66084
1390.49497	0.65592
1388.56641	0.65089
1386.63784	0.64500
1384.70928	0.63887
1382.78071	0.63329
1380.85215	0.62815
1378.92358	0.62375
1376.99502	0.62054
1375.06646	0.61842
1373.13789	0.61693
1371.20933	0.61586
1369.28076	0.61501
1367.35220	0.61388
1365.42363	0.61237
1363.49507	0.61070
1361.56650	0.60888
1359.63794	0.60705
1357.70937	0.60546
1355.78081	0.60415
1353.85225	0.60310
1351.92368	0.60226
1349.99512	0.60151
1348.06655	0.60071
1346.13799	0.59983
1344.20942	0.59902
1342.28086	0.59831
1340.35229	0.59774
1338.42373	0.59722
1336.49517	0.59673
1334.56660	0.59634
1332.63804	0.59635
1330.70947	0.59678
1328.78091	0.59739
1326.85234	0.59814
1324.92378	0.59904
1322.99521	0.59998
1321.06665	0.60087
1319.13809	0.60168
1317.20952	0.60230
1315.28096	0.60259
1313.35239	0.60253
1311.42383	0.60213
1309.49526	0.60156
1307.56670	0.60103
1305.63813	0.60059
1303.70957	0.60012
1301.78101	0.59945
1299.85244	0.59863
1297.92388	0.59779
1295.99531	0.59670
1294.06675	0.59530
1292.13818	0.59389
1290.20962	0.59252
1288.28105	0.59119
1286.35249	0.58996
1284.42393	0.58868
1282.49536	0.58716
1280.56680	0.58546
1278.63823	0.58371
1276.70967	0.58202
1274.78110	0.58056
1272.85254	0.57945
1270.92397	0.57872
1268.99541	0.57809
1267.06685	0.57730
1265.13828	0.57644
1263.20972	0.57553
1261.28115	0.57452
1259.35259	0.57368
1257.42402	0.57305
1255.49546	0.57252
1253.56689	0.57233
1251.63833	0.57243
1249.70977	0.57252
1247.78120	0.57250
1245.85264	0.57231
1243.92407	0.57180
1241.99551	0.57089
1240.06694	0.56945
1238.13838	0.56752
1236.20981	0.56513
1234.28125	0.56246
1232.35269	0.55990
1230.42412	0.55754
1228.49556	0.55529
1226.56699	0.55305
1224.63843	0.55082
1222.70986	0.54874
1220.78130	0.54692
1218.85273	0.54527
1216.92417	0.54376
1214.99561	0.54253
1213.06704	0.54162
1211.13848	0.54097
1209.20991	0.54037
1207.28135	0.53963
1205.35278	0.53872
1203.42422	0.53777
1201.49565	0.53684
1199.56709	0.53588
1197.63853	0.53491
1195.70996	0.53403
1193.78140	0.53333
1191.85283	0.53276
1189.92427	0.53237
1187.99570	0.53221
1186.06714	0.53211
1184.13857	0.53212
1182.21001	0.53261
1180.28145	0.53359
1178.35288	0.53491
1176.42432	0.53651
1174.49575	0.53801
1172.56719	0.53906
1170.63862	0.53957
1168.71006	0.53959
1166.78149	0.53945
1164.85293	0.53953
1162.92437	0.53959
1160.99580	0.53927
1159.06724	0.53871
1157.13867	0.53814
1155.21011	0.53760
1153.28154	0.53671
1151.35298	0.53514
1149.42441	0.53293
1147.49585	0.53041
1145.56729	0.52786
1143.63872	0.52542
1141.71016	0.52312
1139.78159	0.52107
1137.85303	0.51950
1135.92446	0.51856
1133.99590	0.51826
1132.06733	0.51830
1130.13877	0.51821
1128.21021	0.51773
1126.28164	0.51690
1124.35308	0.51616
1122.42451	0.51586
1120.49595	0.51583
1118.56738	0.51591
1116.63882	0.51626
1114.71025	0.51690
1112.78169	0.51755
1110.85312	0.51823
1108.92456	0.51932
1106.99600	0.52067
1105.06743	0.52175
1103.13887	0.52267
1101.21030	0.52378
1099.28174	0.52527
1097.35317	0.52737
1095.42461	0.53006
1093.49604	0.53343
1091.56748	0.53780
1089.63892	0.54351
1087.71035	0.55081
1085.78179	0.55907
1083.85322	0.56694
1081.92466	0.57378
1079.99609	0.57930
1078.06753	0.58247
1076.13896	0.58244
1074.21040	0.57940
1072.28184	0.57415
1070.35327	0.56760
1068.42471	0.56047
1066.49614	0.55343
1064.56758	0.54688
1062.63901	0.54099
1060.71045	0.53595
1058.78188	0.53175
1056.85332	0.52792
1054.92476	0.52430
1052.99619	0.52117
1051.06763	0.51847
1049.13906	0.51618
1047.21050	0.51448
1045.28193	0.51335
1043.35337	0.51255
1041.42480	0.51205
1039.49624	0.51198
1037.56768	0.51201
1035.63911	0.51170
1033.71055	0.51101
1031.78198	0.51004
1029.85342	0.50890
1027.92485	0.50764
1025.99629	0.50638
1024.06772	0.50520
1022.13916	0.50421
1020.21060	0.50349
1018.28203	0.50301
1016.35347	0.50284
1014.42490	0.50297
1012.49634	0.50318
1010.56777	0.50336
1008.63921	0.50348
1006.71064	0.50375
1004.78208	0.50450
1002.85352	0.50597
1000.92495	0.50848
998.99639	0.51214
997.06782	0.51641
995.13926	0.52066
993.21069	0.52466
991.28213	0.52815
989.35356	0.53049
987.42500	0.53131
985.49644	0.53123
983.56787	0.53117
981.63931	0.53142
979.71074	0.53211
977.78218	0.53353
975.85361	0.53537
973.92505	0.53743
971.99648	0.54027
970.06792	0.54368
968.13936	0.54706
966.21079	0.55085
964.28223	0.55542
962.35366	0.56044
960.42510	0.56558
958.49653	0.57078
956.56797	0.57648
954.63940	0.58287
952.71084	0.58958
950.78228	0.59620
948.85371	0.60241
946.92515	0.60848
944.99658	0.61471
943.06802	0.62062
941.13945	0.62619
939.21089	0.63222
937.28232	0.63871
935.35376	0.64464
933.42520	0.65016
931.49663	0.65594
929.56807	0.66163
927.63950	0.66727
925.71094	0.67388
923.78237	0.68142
921.85381	0.68839
919.92524	0.69485
917.99668	0.70198
916.06812	0.70932
914.13955	0.71657
912.21099	0.72458
910.28242	0.73307
908.35386	0.74111
906.42529	0.74924
904.49673	0.75818
902.56816	0.76767
900.63960	0.77729
898.71104	0.78699
896.78247	0.79735
894.85391	0.80788
892.92534	0.81724
890.99678	0.82650
889.06821	0.83818
887.13965	0.85215
885.21108	0.86582
883.28252	0.87715
881.35396	0.88675
879.42539	0.89676
877.49683	0.90767
875.56826	0.91928
873.63970	0.93094
871.71113	0.94197
869.78257	0.95304
867.85400	0.96514
865.92544	0.97799
863.99687	0.99057
862.06831	1.00323
860.13975	1.01565
858.21118	1.02776
856.28262	1.04075
854.35405	1.05412
852.42549	1.06701
850.49692	1.08009
848.56836	1.09341
846.63979	1.10476
844.71123	1.11315
842.78267	1.12164
840.85410	1.13397
838.92554	1.14959
836.99697	1.16477
835.06841	1.17744
833.13984	1.18869
831.21128	1.20099
829.28271	1.21468
827.35415	1.22656
825.42559	1.23809
823.49702	1.25502
821.56846	1.27491
819.63989	1.29568
817.71133	1.31059
815.78276	1.31411
813.85420	1.32513
811.92563	1.35318
809.99707	1.38818
808.06851	1.42158
806.13994	1.44117
804.21138	1.44064
802.28281	1.45006
800.35425	1.49449
798.42568	1.54762
796.49712	1.58589
794.56855	1.62735
792.63999	1.68121
790.71143	1.80199
788.78286	2.19908
786.85430	4.72113
784.92573	2.13950
782.99717	1.77086
781.06860	1.61027
779.14004	1.48898
777.21147	1.44396
775.28291	1.51253
773.35435	1.65553
771.42578	2.00953
769.49722	4.61698
767.56865	4.60541
765.64009	1.75445
763.71152	1.55618
761.78296	1.54187
759.85439	1.41784
757.92583	1.23738
755.99727	1.14151
754.06870	1.08727
752.14014	1.02943
750.21157	0.98092
748.28301	0.93621
746.35444	0.90653
744.42588	0.91697
742.49731	0.90589
740.56875	0.81593
738.64019	0.75356
736.71162	0.73904
734.78306	0.68413
732.85449	0.55114
730.92593	0.39281
728.99736	0.22078
727.06880	0.01968
725.14023	-0.12021
723.21167	-0.19505
721.28311	-0.28568
719.35454	-0.29485
717.42598	-0.26705
715.49741	-0.25730
713.56885	-0.14733
711.64028	0.01731
709.71172	0.09257
707.78315	0.07028
705.85459	0.02597
703.92603	0.02112
701.99746	0.08949
700.06890	0.18267
698.14033	0.20521
696.21177	0.12710
694.28320	0.06378
692.35464	0.06070
690.42607	0.07301
688.49751	0.07801
686.56895	0.07031
684.64038	0.08741
682.71182	0.19453
680.78325	0.33190
678.85469	0.33795
676.92612	0.28132
674.99756	0.24355
673.06899	0.20947
671.14043	0.19205
669.21187	0.17501
667.28330	0.12889
665.35474	0.08494
663.42617	0.06189
661.49761	0.08111
659.56904	0.11601
657.64048	0.13109
655.71191	0.16870
653.78335	0.21125
651.85479	0.21408
649.92622	0.16216
647.99766	0.11804
646.06909	0.12605
644.14053	0.17683
642.21196	0.23272
640.28340	0.23542
638.35483	0.19355
636.42627	0.18592
634.49771	0.22443
632.56914	0.23385
630.64058	0.19373
628.71201	0.15872
626.78345	0.15812
624.85488	0.16152
622.92632	0.13763
620.99775	0.11466
619.06919	0.11598
617.14062	0.12523
615.21206	0.13230
613.28350	0.14914
611.35493	0.17114
609.42637	0.17436
607.49780	0.19128
605.56924	0.20948
603.64067	0.18521
601.71211	0.14554
599.78354	0.09907
597.85498	0.06684
595.92642	0.10499
593.99785	0.16176
592.06929	0.15325
590.14072	0.09858
588.21216	0.05965
586.28359	0.07267
584.35503	0.11995
582.42646	0.14852
580.49790	0.15631
578.56934	0.19443
576.64077	0.24519
574.71221	0.23831
572.78364	0.20990
570.85508	0.21339
568.92651	0.22270
566.99795	0.20532
565.06938	0.16087
563.14082	0.12627
561.21226	0.15627
559.28369	0.22977
557.35513	0.29453
555.42656	0.32753
553.49800	0.25175
551.56943	0.15153
549.64087	0.11147
547.71230	0.11225
545.78374	0.12280
543.85518	0.12454
541.92661	0.10532
539.99805	0.09825
538.06948	0.16137
536.14092	0.25614
534.21235	0.25329
532.28379	0.20899
530.35522	0.20448
528.42666	0.21185
526.49810	0.21177
524.56953	0.21163
522.64097	0.21954
520.71240	0.24586
518.78384	0.26236
516.85527	0.22454
514.92671	0.15811
512.99814	0.12896
511.06958	0.13091
509.14102	0.13187
507.21245	0.14822
505.28389	0.17339
503.35532	0.17504
501.42676	0.15645
499.49819	0.12680
