3997.91411	0.06196
3995.98555	0.06224
3994.05698	0.06286
3992.12842	0.06346
3990.19985	0.06368
3988.27129	0.06374
3986.34272	0.06398
3984.41416	0.06421
3982.48560	0.06408
3980.55703	0.06403
3978.62847	0.06460
3976.69990	0.06531
3974.77134	0.06527
3972.84277	0.06482
3970.91421	0.06498
3968.98564	0.06570
3967.05708	0.06621
3965.12852	0.06607
3963.19995	0.06543
3961.27139	0.06493
3959.34282	0.06511
3957.41426	0.06582
3955.48569	0.06634
3953.55713	0.06636
3951.62856	0.06630
3949.70000	0.06641
3947.77144	0.06634
3945.84287	0.06601
3943.91431	0.06584
3941.98574	0.06620
3940.05718	0.06690
3938.12861	0.06716
3936.20005	0.06662
3934.27148	0.06573
3932.34292	0.06525
3930.41436	0.06538
3928.48579	0.06564
3926.55723	0.06560
3924.62866	0.06538
3922.70010	0.06541
3920.77153	0.06569
3918.84297	0.06570
3916.91440	0.06519
3914.98584	0.06462
3913.05728	0.06446
3911.12871	0.06460
3909.20015	0.06502
3907.27158	0.06552
3905.34302	0.06561
3903.41445	0.06541
3901.48589	0.06530
3899.55732	0.06537
3897.62876	0.06539
3895.70020	0.06520
3893.77163	0.06490
3891.84307	0.06464
3889.91450	0.06440
3887.98594	0.06385
3886.05737	0.06340
3884.12881	0.06387
3882.20024	0.06459
3880.27168	0.06495
3878.34312	0.06535
3876.41455	0.06563
3874.48599	0.06571
3872.55742	0.06545
3870.62886	0.06480
3868.70029	0.06496
3866.77173	0.06602
3864.84316	0.06653
3862.91460	0.06650
3860.98604	0.06662
3859.05747	0.06699
3857.12891	0.06731
3855.20034	0.06734
3853.27178	0.06763
3851.34321	0.06865
3849.41465	0.06897
3847.48608	0.06930
3845.55752	0.07009
3843.62896	0.07074
3841.70039	0.07133
3839.77183	0.07212
3837.84326	0.07303
3835.91470	0.07373
3833.98613	0.07414
3832.05757	0.07456
3830.12900	0.07506
3828.20044	0.07564
3826.27187	0.07638
3824.34331	0.07714
3822.41475	0.07776
3820.48618	0.07862
3818.55762	0.07967
3816.62905	0.08044
3814.70049	0.08149
3812.77192	0.08282
3810.84336	0.08371
3808.91479	0.08438
3806.98623	0.08539
3805.05767	0.08648
3803.12910	0.08729
3801.20054	0.08874
3799.27197	0.09057
3797.34341	0.09143
3795.41484	0.09246
3793.48628	0.09383
3791.55771	0.09482
3789.62915	0.09584
3787.70059	0.09690
3785.77202	0.09787
3783.84346	0.09931
3781.91489	0.10095
3779.98633	0.10232
3778.05776	0.10403
3776.12920	0.10592
3774.20063	0.10749
3772.27207	0.10888
3770.34351	0.11042
3768.41494	0.11249
3766.48638	0.11459
3764.55781	0.11661
3762.62925	0.11853
3760.70068	0.11993
3758.77212	0.12152
3756.84355	0.12393
3754.91499	0.12642
3752.98643	0.12851
3751.05786	0.13055
3749.12930	0.13358
3747.20073	0.13661
3745.27217	0.13873
3743.34360	0.14186
3741.41504	0.14579
3739.48647	0.14862
3737.55791	0.15111
3735.62935	0.15464
3733.70078	0.15951
3731.77222	0.16465
3729.84365	0.16966
3727.91509	0.17413
3725.98652	0.17874
3724.05796	0.18444
3722.12939	0.19114
3720.20083	0.19853
3718.27227	0.20627
3716.34370	0.21404
3714.41514	0.22147
3712.48657	0.22972
3710.55801	0.24109
3708.62944	0.25424
3706.70088	0.26635
3704.77231	0.27809
3702.84375	0.29113
3700.91519	0.30765
3698.98662	0.32599
3697.05806	0.34342
3695.12949	0.36150
3693.20093	0.38034
3691.27236	0.40048
3689.34380	0.42648
3687.41523	0.45957
3685.48667	0.49067
3683.55811	0.51801
3681.62954	0.54627
3679.70098	0.57717
3677.77241	0.60875
3675.84385	0.64538
3673.91528	0.69597
3671.98672	0.73961
3670.05815	0.77823
3668.12959	0.82976
3666.20103	0.87804
3664.27246	0.91917
3662.34390	0.96268
3660.41533	1.00898
3658.48677	1.05394
3656.55820	1.10117
3654.62964	1.15443
3652.70107	1.20052
3650.77251	1.23993
3648.84395	1.29177
3646.91538	1.35684
3644.98682	1.40824
3643.05825	1.44865
3641.12969	1.48945
3639.20112	1.53401
3637.27256	1.57871
3635.34399	1.62164
3633.41543	1.66343
3631.48687	1.70139
3629.55830	1.73837
3627.62974	1.78762
3625.70117	1.83886
3623.77261	1.87680
3621.84404	1.91109
3619.91548	1.94716
3617.98691	1.98956
3616.05835	2.03190
3614.12979	2.06916
3612.20122	2.10986
3610.27266	2.15132
3608.34409	2.19022
3606.41553	2.23034
3604.48696	2.27052
3602.55840	2.30772
3600.62983	2.34585
3598.70127	2.38674
3596.77271	2.42754
3594.84414	2.46783
3592.91558	2.50897
3590.98701	2.54864
3589.05845	2.58430
3587.12988	2.62496
3585.20132	2.67216
3583.27275	2.71425
3581.34419	2.75221
3579.41562	2.79264
3577.48706	2.83601
3575.55850	2.87952
3573.62993	2.92330
3571.70137	2.96584
3569.77280	3.00664
3567.84424	3.04840
3565.91567	3.09725
3563.98711	3.14708
3562.05854	3.19022
3560.12998	3.23218
3558.20142	3.27607
3556.27285	3.32169
3554.34429	3.36661
3552.41572	3.41098
3550.48716	3.45639
3548.55859	3.50276
3546.63003	3.54973
3544.70146	3.59717
3542.77290	3.64275
3540.84434	3.68907
3538.91577	3.73891
3536.98721	3.78885
3535.05864	3.83719
3533.13008	3.88371
3531.20151	3.93137
3529.27295	3.97954
3527.34438	4.02735
3525.41582	4.07634
3523.48726	4.12384
3521.55869	4.16878
3519.63013	4.21430
3517.70156	4.26374
3515.77300	4.31293
3513.84443	4.35857
3511.91587	4.40573
3509.98730	4.45787
3508.05874	4.51108
3506.13018	4.55974
3504.20161	4.60053
3502.27305	4.63801
3500.34448	4.68122
3498.41592	4.72888
3496.48735	4.77831
3494.55879	4.82780
3492.63022	4.87706
3490.70166	4.92947
3488.77310	4.98107
3486.84453	5.02989
3484.91597	5.07966
3482.98740	5.12425
3481.05884	5.16281
3479.13027	5.20851
3477.20171	5.26319
3475.27314	5.31623
3473.34458	5.36480
3471.41602	5.40765
3469.48745	5.44259
3467.55889	5.48073
3465.63032	5.53391
3463.70176	5.59740
3461.77319	5.65218
3459.84463	5.69675
3457.91606	5.74900
3455.98750	5.80919
3454.05894	5.86531
3452.13037	5.91507
3450.20181	5.95655
3448.27324	5.99266
3446.34468	6.04505
3444.41611	6.10491
3442.48755	6.13762
3440.55898	6.15572
3438.63042	6.19400
3436.70186	6.25165
3434.77329	6.31041
3432.84473	6.35132
3430.91616	6.37940
3428.98760	6.42895
3427.05903	6.49241
3425.13047	6.54643
3423.20190	6.59382
3421.27334	6.63602
3419.34478	6.65855
3417.41621	6.67073
3415.48765	6.69930
3413.55908	6.74287
3411.63052	6.79600
3409.70195	6.85330
3407.77339	6.90972
3405.84482	6.96776
3403.91626	7.03461
3401.98770	7.06468
3400.05913	7.03978
3398.13057	7.03301
3396.20200	7.08346
3394.27344	7.15612
3392.34487	7.19293
3390.41631	7.22834
3388.48774	7.30197
3386.55918	7.36079
3384.63062	7.36118
3382.70205	7.35491
3380.77349	7.38021
3378.84492	7.41041
3376.91636	7.45085
3374.98779	7.49933
3373.05923	7.53478
3371.13066	7.56511
3369.20210	7.63183
3367.27354	7.69024
3365.34497	7.66711
3363.41641	7.64419
3361.48784	7.70496
3359.55928	7.79500
3357.63071	7.80059
3355.70215	7.72018
3353.77358	7.64793
3351.84502	7.64793
3349.91646	7.68473
3347.98789	7.72925
3346.05933	7.78150
3344.13076	7.81461
3342.20220	7.81717
3340.27363	7.79419
3338.34507	7.77805
3336.41650	7.75157
3334.48794	7.70851
3332.55937	7.69486
3330.63081	7.71795
3328.70225	7.73141
3326.77368	7.76425
3324.84512	7.87514
3322.91655	7.95020
3320.98799	7.91049
3319.05942	7.84487
3317.13086	7.82304
3315.20229	7.87352
3313.27373	7.97146
3311.34517	7.98559
3309.41660	7.88087
3307.48804	7.80788
3305.55947	7.83461
3303.63091	7.90131
3301.70234	7.96715
3299.77378	7.99898
3297.84521	7.92142
3295.91665	7.84253
3293.98809	7.84526
3292.05952	7.81771
3290.13096	7.74023
3288.20239	7.72978
3286.27383	7.79370
3284.34526	7.82412
3282.41670	7.82661
3280.48813	7.84723
3278.55957	7.87429
3276.63101	7.88919
3274.70244	7.88540
3272.77388	7.89372
3270.84531	7.92398
3268.91675	7.98014
3266.98818	8.05345
3265.05962	8.04333
3263.13105	7.92877
3261.20249	7.86801
3259.27393	7.87751
3257.34536	7.85759
3255.41680	7.81063
3253.48823	7.75734
3251.55967	7.70620
3249.63110	7.70806
3247.70254	7.77984
3245.77397	7.86183
3243.84541	7.93512
3241.91685	7.99075
3239.98828	7.95892
3238.05972	7.87865
3236.13115	7.82865
3234.20259	7.79536
3232.27402	7.80670
3230.34546	7.87649
3228.41689	7.86628
3226.48833	7.76103
3224.55977	7.68793
3222.63120	7.65317
3220.70264	7.64028
3218.77407	7.65757
3216.84551	7.66885
3214.91694	7.64372
3212.98838	7.61275
3211.05981	7.61091
3209.13125	7.59109
3207.20269	7.53125
3205.27412	7.49324
3203.34556	7.46304
3201.41699	7.42587
3199.48843	7.43618
3197.55986	7.46280
3195.63130	7.42793
3193.70273	7.34122
3191.77417	7.27011
3189.84561	7.25860
3187.91704	7.28868
3185.98848	7.33313
3184.05991	7.33862
3182.13135	7.26649
3180.20278	7.18713
3178.27422	7.12054
3176.34565	7.03021
3174.41709	6.93991
3172.48853	6.89569
3170.55996	6.90331
3168.63140	6.90653
3166.70283	6.85418
3164.77427	6.78251
3162.84570	6.73401
3160.91714	6.68388
3158.98857	6.59897
3157.06001	6.51382
3155.13145	6.47372
3153.20288	6.44012
3151.27432	6.37306
3149.34575	6.30556
3147.41719	6.25913
3145.48862	6.20112
3143.56006	6.11793
3141.63149	6.04017
3139.70293	5.97118
3137.77437	5.89916
3135.84580	5.82641
3133.91724	5.75618
3131.98867	5.68671
3130.06011	5.62072
3128.13154	5.55783
3126.20298	5.48403
3124.27441	5.40085
3122.34585	5.32300
3120.41729	5.25785
3118.48872	5.19965
3116.56016	5.13772
3114.63159	5.06680
3112.70303	4.99153
3110.77446	4.92097
3108.84590	4.85506
3106.91733	4.79399
3104.98877	4.73418
3103.06021	4.66695
3101.13164	4.59380
3099.20308	4.52293
3097.27451	4.46056
3095.34595	4.40287
3093.41738	4.34010
3091.48882	4.27364
3089.56025	4.20916
3087.63169	4.14579
3085.70312	4.08437
3083.77456	4.02376
3081.84600	3.96119
3079.91743	3.89861
3077.98887	3.83809
3076.06030	3.77927
3074.13174	3.72049
3072.20317	3.66220
3070.27461	3.60481
3068.34604	3.54649
3066.41748	3.48818
3064.48892	3.43311
3062.56035	3.38031
3060.63179	3.32668
3058.70322	3.27253
3056.77466	3.21919
3054.84609	3.16648
3052.91753	3.11341
3050.98896	3.06084
3049.06040	3.01045
3047.13184	2.96112
3045.20327	2.91218
3043.27471	2.86404
3041.34614	2.81575
3039.41758	2.76749
3037.48901	2.72001
3035.56045	2.67352
3033.63188	2.62819
3031.70332	2.58362
3029.77476	2.53941
3027.84619	2.49479
3025.91763	2.45002
3023.98906	2.40651
3022.06050	2.36457
3020.13193	2.32396
3018.20337	2.28400
3016.27480	2.24423
3014.34624	2.20512
3012.41768	2.16634
3010.48911	2.12716
3008.56055	2.08847
3006.63198	2.05166
3004.70342	2.01644
3002.77485	1.98200
3000.84629	1.94817
2998.91772	1.91459
2996.98916	1.88129
2995.06060	1.84898
2993.13203	1.81776
2991.20347	1.78693
2989.27490	1.75610
2987.34634	1.72600
2985.41777	1.69715
2983.48921	1.66891
2981.56064	1.64115
2979.63208	1.61434
2977.70352	1.58824
2975.77495	1.56221
2973.84639	1.53602
2971.91782	1.51022
2969.98926	1.48540
2968.06069	1.46151
2966.13213	1.43815
2964.20356	1.41473
2962.27500	1.39103
2960.34644	1.36733
2958.41787	1.34415
2956.48931	1.32123
2954.56074	1.29762
2952.63218	1.27377
2950.70361	1.25086
2948.77505	1.22875
2946.84648	1.20690
2944.91792	1.18556
2942.98936	1.16502
2941.06079	1.14514
2939.13223	1.12556
2937.20366	1.10600
2935.27510	1.08643
2933.34653	1.06731
2931.41797	1.04868
2929.48940	1.03023
2927.56084	1.01169
2925.63228	0.99308
2923.70371	0.97496
2921.77515	0.95746
2919.84658	0.94036
2917.91802	0.92349
2915.98945	0.90666
2914.06089	0.88973
2912.13232	0.87285
2910.20376	0.85671
2908.27520	0.84142
2906.34663	0.82632
2904.41807	0.81141
2902.48950	0.79732
2900.56094	0.78397
2898.63237	0.77070
2896.70381	0.75741
2894.77524	0.74451
2892.84668	0.73221
2890.91812	0.72058
2888.98955	0.70947
2887.06099	0.69855
2885.13242	0.68796
2883.20386	0.67782
2881.27529	0.66775
2879.34673	0.65757
2877.41816	0.64745
2875.48960	0.63745
2873.56104	0.62748
2871.63247	0.61731
2869.70391	0.60652
2867.77534	0.59538
2865.84678	0.58438
2863.91821	0.57338
2861.98965	0.56231
2860.06108	0.55162
2858.13252	0.54145
2856.20396	0.53182
2854.27539	0.52271
2852.34683	0.51375
2850.41826	0.50482
2848.48970	0.49608
2846.56113	0.48769
2844.63257	0.47971
2842.70400	0.47231
2840.77544	0.46564
2838.84687	0.45929
2836.91831	0.45274
2834.98975	0.44609
2833.06118	0.43978
2831.13262	0.43382
2829.20405	0.42787
2827.27549	0.42181
2825.34692	0.41571
2823.41836	0.40963
2821.48979	0.40369
2819.56123	0.39784
2817.63267	0.39192
2815.70410	0.38614
2813.77554	0.38065
2811.84697	0.37517
2809.91841	0.36974
2807.98984	0.36457
2806.06128	0.35955
2804.13271	0.35440
2802.20415	0.34912
2800.27559	0.34402
2798.34702	0.33914
2796.41846	0.33425
2794.48989	0.32944
2792.56133	0.32484
2790.63276	0.32032
2788.70420	0.31584
2786.77563	0.31150
2784.84707	0.30716
2782.91851	0.30285
2780.98994	0.29872
2779.06138	0.29460
2777.13281	0.29059
2775.20425	0.28698
2773.27568	0.28359
2771.34712	0.27998
2769.41855	0.27604
2767.48999	0.27207
2765.56143	0.26837
2763.63286	0.26502
2761.70430	0.26181
2759.77573	0.25851
2757.84717	0.25528
2755.91860	0.25234
2753.99004	0.24954
2752.06147	0.24659
2750.13291	0.24355
2748.20435	0.24070
2746.27578	0.23813
2744.34722	0.23557
2742.41865	0.23273
2740.49009	0.22970
2738.56152	0.22683
2736.63296	0.22436
2734.70439	0.22214
2732.77583	0.21983
2730.84727	0.21744
2728.91870	0.21523
2726.99014	0.21316
2725.06157	0.21105
2723.13301	0.20891
2721.20444	0.20676
2719.27588	0.20475
2717.34731	0.20283
2715.41875	0.20085
2713.49019	0.19889
2711.56162	0.19705
2709.63306	0.19531
2707.70449	0.19362
2705.77593	0.19188
2703.84736	0.19019
2701.91880	0.18875
2699.99023	0.18753
2698.06167	0.18618
2696.13311	0.18456
2694.20454	0.18306
2692.27598	0.18179
2690.34741	0.18046
2688.41885	0.17905
2686.49028	0.17765
2684.56172	0.17636
2682.63315	0.17509
2680.70459	0.17376
2678.77603	0.17253
2676.84746	0.17146
2674.91890	0.17049
2672.99033	0.16954
2671.06177	0.16847
2669.13320	0.16722
2667.20464	0.16603
2665.27607	0.16498
2663.34751	0.16397
2661.41895	0.16300
2659.49038	0.16216
2657.56182	0.16146
2655.63325	0.16083
2653.70469	0.16024
2651.77612	0.15957
2649.84756	0.15873
2647.91899	0.15805
2645.99043	0.15759
2644.06187	0.15692
2642.13330	0.15604
2640.20474	0.15534
2638.27617	0.15481
2636.34761	0.15419
2634.41904	0.15353
2632.49048	0.15315
2630.56191	0.15304
2628.63335	0.15285
2626.70479	0.15238
2624.77622	0.15187
2622.84766	0.15150
2620.91909	0.15127
2618.99053	0.15112
2617.06196	0.15096
2615.13340	0.15073
2613.20483	0.15047
2611.27627	0.15021
2609.34771	0.15002
2607.41914	0.14992
2605.49058	0.14981
2603.56201	0.14958
2601.63345	0.14945
2599.70488	0.14950
2597.77632	0.14952
2595.84775	0.14950
2593.91919	0.14952
2591.99062	0.14957
2590.06206	0.14968
2588.13350	0.14985
2586.20493	0.15001
2584.27637	0.15023
2582.34780	0.15045
2580.41924	0.15056
2578.49067	0.15074
2576.56211	0.15113
2574.63354	0.15154
2572.70498	0.15183
2570.77642	0.15210
2568.84785	0.15246
2566.91929	0.15286
2564.99072	0.15322
2563.06216	0.15357
2561.13359	0.15394
2559.20503	0.15424
2557.27646	0.15453
2555.34790	0.15494
2553.41934	0.15559
2551.49077	0.15634
2549.56221	0.15690
2547.63364	0.15731
2545.70508	0.15781
2543.77651	0.15837
2541.84795	0.15887
2539.91938	0.15937
2537.99082	0.15999
2536.06226	0.16077
2534.13369	0.16150
2532.20513	0.16205
2530.27656	0.16251
2528.34800	0.16310
2526.41943	0.16394
2524.49087	0.16483
2522.56230	0.16560
2520.63374	0.16631
2518.70518	0.16698
2516.77661	0.16760
2514.84805	0.16826
2512.91948	0.16910
2510.99092	0.17007
2509.06235	0.17091
2507.13379	0.17163
2505.20522	0.17231
2503.27666	0.17296
2501.34810	0.17369
2499.41953	0.17454
2497.49097	0.17541
2495.56240	0.17637
2493.63384	0.17732
2491.70527	0.17801
2489.77671	0.17859
2487.84814	0.17944
2485.91958	0.18044
2483.99102	0.18126
2482.06245	0.18196
2480.13389	0.18276
2478.20532	0.18368
2476.27676	0.18463
2474.34819	0.18553
2472.41963	0.18628
2470.49106	0.18692
2468.56250	0.18763
2466.63394	0.18841
2464.70537	0.18931
2462.77681	0.19041
2460.84824	0.19162
2458.91968	0.19268
2456.99111	0.19356
2455.06255	0.19447
2453.13398	0.19543
2451.20542	0.19634
2449.27686	0.19726
2447.34829	0.19823
2445.41973	0.19915
2443.49116	0.20006
2441.56260	0.20097
2439.63403	0.20192
2437.70547	0.20298
2435.77690	0.20409
2433.84834	0.20514
2431.91978	0.20617
2429.99121	0.20719
2428.06265	0.20819
2426.13408	0.20923
2424.20552	0.21024
2422.27695	0.21125
2420.34839	0.21238
2418.41982	0.21351
2416.49126	0.21458
2414.56270	0.21563
2412.63413	0.21666
2410.70557	0.21770
2408.77700	0.21879
2406.84844	0.21997
2404.91987	0.22126
2402.99131	0.22250
2401.06274	0.22362
2399.13418	0.22480
2397.20562	0.22614
2395.27705	0.22747
2393.34849	0.22860
2391.41992	0.22969
2389.49136	0.23083
2387.56279	0.23186
2385.63423	0.23257
2383.70566	0.23302
2381.77710	0.23331
2379.84854	0.23328
2377.91997	0.23266
2375.99141	0.23145
2374.06284	0.23008
2372.13428	0.22861
2370.20571	0.22691
2368.27715	0.22537
2366.34858	0.22462
2364.42002	0.22421
2362.49146	0.22316
2360.56289	0.22197
2358.63433	0.22284
2356.70576	0.22666
2354.77720	0.23172
2352.84863	0.23717
2350.92007	0.24272
2348.99150	0.24645
2347.06294	0.24745
2345.13437	0.24637
2343.20581	0.24505
2341.27725	0.24546
2339.34868	0.24777
2337.42012	0.25053
2335.49155	0.25259
2333.56299	0.25437
2331.63442	0.25637
2329.70586	0.25847
2327.77729	0.26081
2325.84873	0.26353
2323.92017	0.26671
2321.99160	0.27011
2320.06304	0.27334
2318.13447	0.27642
2316.20591	0.27915
2314.27734	0.28144
2312.34878	0.28376
2310.42021	0.28641
2308.49165	0.28922
2306.56309	0.29202
2304.63452	0.29448
2302.70596	0.29662
2300.77739	0.29879
2298.84883	0.30100
2296.92026	0.30319
2294.99170	0.30541
2293.06313	0.30768
2291.13457	0.30999
2289.20601	0.31229
2287.27744	0.31454
2285.34888	0.31676
2283.42031	0.31894
2281.49175	0.32100
2279.56318	0.32293
2277.63462	0.32476
2275.70605	0.32658
2273.77749	0.32850
2271.84893	0.33057
2269.92036	0.33277
2267.99180	0.33501
2266.06323	0.33716
2264.13467	0.33925
2262.20610	0.34145
2260.27754	0.34372
2258.34897	0.34596
2256.42041	0.34814
2254.49185	0.35024
2252.56328	0.35237
2250.63472	0.35456
2248.70615	0.35663
2246.77759	0.35864
2244.84902	0.36084
2242.92046	0.36321
2240.99189	0.36557
2239.06333	0.36784
2237.13477	0.37004
2235.20620	0.37221
2233.27764	0.37435
2231.34907	0.37660
2229.42051	0.37897
2227.49194	0.38120
2225.56338	0.38328
2223.63481	0.38549
2221.70625	0.38778
2219.77769	0.39002
2217.84912	0.39216
2215.92056	0.39427
2213.99199	0.39640
2212.06343	0.39857
2210.13486	0.40079
2208.20630	0.40298
2206.27773	0.40511
2204.34917	0.40723
2202.42061	0.40928
2200.49204	0.41130
2198.56348	0.41333
2196.63491	0.41529
2194.70635	0.41711
2192.77778	0.41884
2190.84922	0.42069
2188.92065	0.42263
2186.99209	0.42446
2185.06353	0.42622
2183.13496	0.42810
2181.20640	0.42995
2179.27783	0.43152
2177.34927	0.43290
2175.42070	0.43432
2173.49214	0.43575
2171.56357	0.43706
2169.63501	0.43834
2167.70645	0.43968
2165.77788	0.44098
2163.84932	0.44220
2161.92075	0.44337
2159.99219	0.44448
2158.06362	0.44553
2156.13506	0.44658
2154.20649	0.44755
2152.27793	0.44830
2150.34937	0.44888
2148.42080	0.44945
2146.49224	0.45001
2144.56367	0.45053
2142.63511	0.45100
2140.70654	0.45133
2138.77798	0.45154
2136.84941	0.45167
2134.92085	0.45170
2132.99229	0.45165
2131.06372	0.45147
2129.13516	0.45111
2127.20659	0.45078
2125.27803	0.45057
2123.34946	0.45031
2121.42090	0.44991
2119.49233	0.44930
2117.56377	0.44857
2115.63521	0.44779
2113.70664	0.44694
2111.77808	0.44604
2109.84951	0.44505
2107.92095	0.44393
2105.99238	0.44269
2104.06382	0.44141
2102.13525	0.44010
2100.20669	0.43883
2098.27812	0.43756
2096.34956	0.43616
2094.42100	0.43459
2092.49243	0.43286
2090.56387	0.43106
2088.63530	0.42923
2086.70674	0.42741
2084.77817	0.42561
2082.84961	0.42375
2080.92104	0.42179
2078.99248	0.41976
2077.06392	0.41776
2075.13535	0.41575
2073.20679	0.41356
2071.27822	0.41120
2069.34966	0.40883
2067.42109	0.40651
2065.49253	0.40423
2063.56396	0.40190
2061.63540	0.39949
2059.70684	0.39699
2057.77827	0.39440
2055.84971	0.39174
2053.92114	0.38907
2051.99258	0.38648
2050.06401	0.38391
2048.13545	0.38130
2046.20688	0.37866
2044.27832	0.37611
2042.34976	0.37358
2040.42119	0.37090
2038.49263	0.36811
2036.56406	0.36533
2034.63550	0.36261
2032.70693	0.35988
2030.77837	0.35708
2028.84980	0.35423
2026.92124	0.35144
2024.99268	0.34870
2023.06411	0.34589
2021.13555	0.34308
2019.20698	0.34038
2017.27842	0.33764
2015.34985	0.33472
2013.42129	0.33180
2011.49272	0.32912
2009.56416	0.32662
2007.63560	0.32406
2005.70703	0.32144
2003.77847	0.31879
2001.84990	0.31608
1999.92134	0.31346
1997.99277	0.31095
1996.06421	0.30844
1994.13564	0.30588
1992.20708	0.30326
1990.27852	0.30063
1988.34995	0.29814
1986.42139	0.29583
1984.49282	0.29358
1982.56426	0.29119
1980.63569	0.28878
1978.70713	0.28660
1976.77856	0.28460
1974.85000	0.28259
1972.92144	0.28045
1970.99287	0.27822
1969.06431	0.27598
1967.13574	0.27383
1965.20718	0.27179
1963.27861	0.26984
1961.35005	0.26800
1959.42148	0.26622
1957.49292	0.26452
1955.56436	0.26287
1953.63579	0.26119
1951.70723	0.25943
1949.77866	0.25769
1947.85010	0.25607
1945.92153	0.25451
1943.99297	0.25290
1942.06440	0.25132
1940.13584	0.24991
1938.20728	0.24862
1936.27871	0.24740
1934.35015	0.24620
1932.42158	0.24502
1930.49302	0.24383
1928.56445	0.24267
1926.63589	0.24153
1924.70732	0.24036
1922.77876	0.23926
1920.85020	0.23846
1918.92163	0.23779
1916.99307	0.23701
1915.06450	0.23621
1913.13594	0.23540
1911.20737	0.23461
1909.27881	0.23387
1907.35024	0.23323
1905.42168	0.23264
1903.49312	0.23213
1901.56455	0.23169
1899.63599	0.23128
1897.70742	0.23091
1895.77886	0.23040
1893.85029	0.22983
1891.92173	0.22934
1889.99316	0.22909
1888.06460	0.22899
1886.13604	0.22884
1884.20747	0.22865
1882.27891	0.22857
1880.35034	0.22860
1878.42178	0.22858
1876.49321	0.22855
1874.56465	0.22853
1872.63608	0.22852
1870.70752	0.22843
1868.77896	0.22848
1866.85039	0.22883
1864.92183	0.22920
1862.99326	0.22946
1861.06470	0.22971
1859.13613	0.23012
1857.20757	0.23059
1855.27900	0.23107
1853.35044	0.23146
1851.42187	0.23189
1849.49331	0.23241
1847.56475	0.23298
1845.63618	0.23361
1843.70762	0.23444
1841.77905	0.23535
1839.85049	0.23598
1837.92192	0.23675
1835.99336	0.23771
1834.06479	0.23873
1832.13623	0.23967
1830.20767	0.24083
1828.27910	0.24223
1826.35054	0.24347
1824.42197	0.24484
1822.49341	0.24629
1820.56484	0.24771
1818.63628	0.24920
1816.70771	0.25088
1814.77915	0.25242
1812.85059	0.25391
1810.92202	0.25578
1808.99346	0.25798
1807.06489	0.26008
1805.13633	0.26195
1803.20776	0.26398
1801.27920	0.26621
1799.35063	0.26887
1797.42207	0.27153
1795.49351	0.27398
1793.56494	0.27650
1791.63638	0.27982
1789.70781	0.28360
1787.77925	0.28670
1785.85068	0.28988
1783.92212	0.29339
1781.99355	0.29720
1780.06499	0.30134
1778.13643	0.30566
1776.20786	0.30967
1774.27930	0.31368
1772.35073	0.31899
1770.42217	0.32516
1768.49360	0.33080
1766.56504	0.33623
1764.63647	0.34166
1762.70791	0.34752
1760.77935	0.35500
1758.85078	0.36210
1756.92222	0.36904
1754.99365	0.37665
1753.06509	0.38356
1751.13652	0.39140
1749.20796	0.40134
1747.27939	0.41177
1745.35083	0.42122
1743.42227	0.43096
1741.49370	0.44146
1739.56514	0.45382
1737.63657	0.46644
1735.70801	0.47746
1733.77944	0.49344
1731.85088	0.51282
1729.92231	0.52863
1727.99375	0.54454
1726.06519	0.56151
1724.13662	0.57985
1722.20806	0.59964
1720.27949	0.61791
1718.35093	0.63888
1716.42236	0.66967
1714.49380	0.69999
1712.56523	0.72543
1710.63667	0.75012
1708.70811	0.77634
1706.77954	0.80567
1704.85098	0.84021
1702.92241	0.87116
1700.99385	0.90197
1699.06528	0.94755
1697.13672	0.98996
1695.20815	1.03442
1693.27959	1.07927
1691.35103	1.11597
1689.42246	1.15708
1687.49390	1.19986
1685.56533	1.24102
1683.63677	1.30383
1681.70820	1.37055
1679.77964	1.41490
1677.85107	1.45666
1675.92251	1.50419
1673.99395	1.56250
1672.06538	1.61452
1670.13682	1.66579
1668.20825	1.73304
1666.27969	1.78907
1664.35112	1.83637
1662.42256	1.89488
1660.49399	1.96090
1658.56543	2.01273
1656.63687	2.05357
1654.70830	2.08865
1652.77974	2.14130
1650.85117	2.19576
1648.92261	2.21794
1646.99404	2.24252
1645.06548	2.26959
1643.13691	2.28807
1641.20835	2.29746
1639.27979	2.30488
1637.35122	2.30742
1635.42266	2.30147
1633.49409	2.29333
1631.56553	2.28246
1629.63696	2.26562
1627.70840	2.23707
1625.77983	2.20477
1623.85127	2.16318
1621.92271	2.11116
1619.99414	2.06393
1618.06558	2.01609
1616.13701	1.95070
1614.20845	1.88838
1612.27988	1.84113
1610.35132	1.79018
1608.42275	1.73458
1606.49419	1.68048
1604.56562	1.63095
1602.63706	1.58293
1600.70850	1.53647
1598.77993	1.49444
1596.85137	1.45497
1594.92280	1.41634
1592.99424	1.37884
1591.06567	1.34442
1589.13711	1.31226
1587.20854	1.28203
1585.27998	1.25377
1583.35142	1.22766
1581.42285	1.20421
1579.49429	1.18411
1577.56572	1.16564
1575.63716	1.14391
1573.70859	1.12596
1571.78003	1.11454
1569.85146	1.10293
1567.92290	1.09109
1565.99434	1.08271
1564.06577	1.07633
1562.13721	1.07118
1560.20864	1.06753
1558.28008	1.06654
1556.35151	1.06899
1554.42295	1.07088
1552.49438	1.07216
1550.56582	1.07131
1548.63726	1.06725
1546.70869	1.06046
1544.78013	1.05063
1542.85156	1.03767
1540.92300	1.01948
1538.99443	0.99238
1537.06587	0.97257
1535.13730	0.95892
1533.20874	0.94074
1531.28018	0.92138
1529.35161	0.90711
1527.42305	0.89343
1525.49448	0.87896
1523.56592	0.86625
1521.63735	0.85426
1519.70879	0.84282
1517.78022	0.83331
1515.85166	0.82261
1513.92310	0.81146
1511.99453	0.80132
1510.06597	0.79145
1508.13740	0.78103
1506.20884	0.76698
1504.28027	0.75672
1502.35171	0.75105
1500.42314	0.74550
1498.49458	0.73901
1496.56602	0.73156
1494.63745	0.72489
1492.70889	0.71964
1490.78032	0.71447
1488.85176	0.70878
1486.92319	0.70426
1484.99463	0.70118
1483.06606	0.69883
1481.13750	0.69680
1479.20894	0.69517
1477.28037	0.69422
1475.35181	0.69386
1473.42324	0.69403
1471.49468	0.69424
1469.56611	0.69366
1467.63755	0.69217
1465.70898	0.69036
1463.78042	0.68891
1461.85186	0.68810
1459.92329	0.68748
1457.99473	0.68664
1456.06616	0.68557
1454.13760	0.68411
1452.20903	0.68205
1450.28047	0.67947
1448.35190	0.67640
1446.42334	0.67304
1444.49478	0.67019
1442.56621	0.66769
1440.63765	0.66495
1438.70908	0.66183
1436.78052	0.65787
1434.85195	0.65395
1432.92339	0.65133
1430.99482	0.64950
1429.06626	0.64836
1427.13770	0.64797
1425.20913	0.64816
1423.28057	0.64879
1421.35200	0.64912
1419.42344	0.64883
1417.49487	0.64831
1415.56631	0.64769
1413.63774	0.64719
1411.70918	0.64708
1409.78062	0.64752
1407.85205	0.64836
1405.92349	0.64936
1403.99492	0.65016
1402.06636	0.65011
1400.13779	0.64899
1398.20923	0.64703
1396.28066	0.64451
1394.35210	0.64123
1392.42354	0.63757
1390.49497	0.63404
1388.56641	0.63021
1386.63784	0.62579
1384.70928	0.62135
1382.78071	0.61716
1380.85215	0.61316
1378.92358	0.60979
1376.99502	0.60719
1375.06646	0.60527
1373.13789	0.60398
1371.20933	0.60319
1369.28076	0.60270
1367.35220	0.60195
1365.42363	0.60053
1363.49507	0.59869
1361.56650	0.59696
1359.63794	0.59552
1357.70937	0.59414
1355.78081	0.59278
1353.85225	0.59161
1351.92368	0.59070
1349.99512	0.58996
1348.06655	0.58930
1346.13799	0.58843
1344.20942	0.58731
1342.28086	0.58624
1340.35229	0.58534
1338.42373	0.58453
1336.49517	0.58393
1334.56660	0.58357
1332.63804	0.58336
1330.70947	0.58335
1328.78091	0.58358
1326.85234	0.58406
1324.92378	0.58471
1322.99521	0.58536
1321.06665	0.58592
1319.13809	0.58647
1317.20952	0.58678
1315.28096	0.58655
1313.35239	0.58600
1311.42383	0.58545
1309.49526	0.58480
1307.56670	0.58395
1305.63813	0.58314
1303.70957	0.58246
1301.78101	0.58162
1299.85244	0.58056
1297.92388	0.57958
1295.99531	0.57867
1294.06675	0.57760
1292.13818	0.57621
1290.20962	0.57475
1288.28105	0.57373
1286.35249	0.57301
1284.42393	0.57197
1282.49536	0.57049
1280.56680	0.56896
1278.63823	0.56765
1276.70967	0.56642
1274.78110	0.56516
1272.85254	0.56409
1270.92397	0.56343
1268.99541	0.56304
1267.06685	0.56257
1265.13828	0.56176
1263.20972	0.56075
1261.28115	0.55979
1259.35259	0.55888
1257.42402	0.55809
1255.49546	0.55765
1253.56689	0.55741
1251.63833	0.55725
1249.70977	0.55733
1247.78120	0.55740
1245.85264	0.55701
1243.92407	0.55622
1241.99551	0.55531
1240.06694	0.55419
1238.13838	0.55265
1236.20981	0.55076
1234.28125	0.54876
1232.35269	0.54671
1230.42412	0.54457
1228.49556	0.54246
1226.56699	0.54044
1224.63843	0.53854
1222.70986	0.53677
1220.78130	0.53509
1218.85273	0.53364
1216.92417	0.53252
1214.99561	0.53145
1213.06704	0.53040
1211.13848	0.52964
1209.20991	0.52918
1207.28135	0.52872
1205.35278	0.52805
1203.42422	0.52723
1201.49565	0.52636
1199.56709	0.52542
1197.63853	0.52443
1195.70996	0.52363
1193.78140	0.52307
1191.85283	0.52262
1189.92427	0.52212
1187.99570	0.52162
1186.06714	0.52134
1184.13857	0.52145
1182.21001	0.52197
1180.28145	0.52281
1178.35288	0.52395
1176.42432	0.52536
1174.49575	0.52670
1172.56719	0.52762
1170.63862	0.52817
1168.71006	0.52865
1166.78149	0.52922
1164.85293	0.52983
1162.92437	0.53031
1160.99580	0.53060
1159.06724	0.53074
1157.13867	0.53074
1155.21011	0.53043
1153.28154	0.52953
1151.35298	0.52783
1149.42441	0.52530
1147.49585	0.52242
1145.56729	0.51958
1143.63872	0.51690
1141.71016	0.51450
1139.78159	0.51252
1137.85303	0.51105
1135.92446	0.51019
1133.99590	0.50982
1132.06733	0.50967
1130.13877	0.50972
1128.21021	0.50996
1126.28164	0.50990
1124.35308	0.50941
1122.42451	0.50897
1120.49595	0.50883
1118.56738	0.50888
1116.63882	0.50930
1114.71025	0.51009
1112.78169	0.51075
1110.85312	0.51120
1108.92456	0.51179
1106.99600	0.51255
1105.06743	0.51336
1103.13887	0.51420
1101.21030	0.51522
1099.28174	0.51659
1097.35317	0.51820
1095.42461	0.52020
1093.49604	0.52335
1091.56748	0.52844
1089.63892	0.53541
1087.71035	0.54356
1085.78179	0.55231
1083.85322	0.56109
1081.92466	0.56889
1079.99609	0.57449
1078.06753	0.57704
1076.13896	0.57654
1074.21040	0.57337
1072.28184	0.56779
1070.35327	0.56046
1068.42471	0.55278
1066.49614	0.54569
1064.56758	0.53928
1062.63901	0.53358
1060.71045	0.52883
1058.78188	0.52490
1056.85332	0.52125
1054.92476	0.51779
1052.99619	0.51488
1051.06763	0.51263
1049.13906	0.51116
1047.21050	0.51051
1045.28193	0.51051
1043.35337	0.51075
1041.42480	0.51098
1039.49624	0.51113
1037.56768	0.51113
1035.63911	0.51096
1033.71055	0.51056
1031.78198	0.50966
1029.85342	0.50803
1027.92485	0.50580
1025.99629	0.50364
1024.06772	0.50196
1022.13916	0.50076
1020.21060	0.50003
1018.28203	0.49957
1016.35347	0.49926
1014.42490	0.49898
1012.49634	0.49854
1010.56777	0.49808
1008.63921	0.49779
1006.71064	0.49770
1004.78208	0.49810
1002.85352	0.49951
1000.92495	0.50208
998.99639	0.50548
997.06782	0.50942
995.13926	0.51376
993.21069	0.51803
991.28213	0.52140
989.35356	0.52342
987.42500	0.52417
985.49644	0.52397
983.56787	0.52356
981.63931	0.52359
979.71074	0.52409
977.78218	0.52510
975.85361	0.52680
973.92505	0.52914
971.99648	0.53205
970.06792	0.53540
968.13936	0.53906
966.21079	0.54319
964.28223	0.54770
962.35366	0.55228
960.42510	0.55696
958.49653	0.56209
956.56797	0.56781
954.63940	0.57394
952.71084	0.58028
950.78228	0.58669
948.85371	0.59284
946.92515	0.59877
944.99658	0.60486
943.06802	0.61102
941.13945	0.61702
939.21089	0.62288
937.28232	0.62867
935.35376	0.63438
933.42520	0.64017
931.49663	0.64626
929.56807	0.65233
927.63950	0.65808
925.71094	0.66409
923.78237	0.67045
921.85381	0.67667
919.92524	0.68316
917.99668	0.69020
916.06812	0.69765
914.13955	0.70538
912.21099	0.71265
910.28242	0.71927
908.35386	0.72665
906.42529	0.73576
904.49673	0.74563
902.56816	0.75486
900.63960	0.76321
898.71104	0.77188
896.78247	0.78192
894.85391	0.79189
892.92534	0.80076
890.99678	0.80983
889.06821	0.81993
887.13965	0.83133
885.21108	0.84341
883.28252	0.85546
881.35396	0.86733
879.42539	0.87765
877.49683	0.88763
875.56826	0.90014
873.63970	0.91253
871.71113	0.92215
869.78257	0.93181
867.85400	0.94243
865.92544	0.95280
863.99687	0.96445
862.06831	0.97716
860.13975	0.98870
858.21118	0.99953
856.28262	1.01035
854.35405	1.02138
852.42549	1.03262
850.49692	1.04415
848.56836	1.05641
846.63979	1.06781
844.71123	1.07819
842.78267	1.08966
840.85410	1.10118
838.92554	1.10969
836.99697	1.11628
835.06841	1.12588
833.13984	1.13756
831.21128	1.14511
829.28271	1.15055
827.35415	1.15871
825.42559	1.16621
823.49702	1.17136
821.56846	1.18115
819.63989	1.19911
817.71133	1.21455
815.78276	1.21781
813.85420	1.21303
811.92563	1.21530
809.99707	1.23178
808.06851	1.24278
806.13994	1.23922
804.21138	1.23754
802.28281	1.24115
800.35425	1.24039
798.42568	1.23664
796.49712	1.23719
794.56855	1.23800
792.63999	1.23647
790.71143	1.23363
788.78286	1.22446
786.85430	1.20924
784.92573	1.20160
782.99717	1.19077
781.06860	1.14423
779.14004	1.09259
777.21147	1.08746
775.28291	1.12200
773.35435	1.15622
771.42578	1.16040
769.49722	1.11119
767.56865	1.03014
765.64009	0.98282
763.71152	0.98559
761.78296	0.98017
759.85439	0.96218
757.92583	0.98835
755.99727	1.01437
754.06870	0.96058
752.14014	0.88296
750.21157	0.85253
748.28301	0.85403
746.35444	0.81947
744.42588	0.76379
742.49731	0.75121
740.56875	0.73703
738.64019	0.64093
736.71162	0.53688
734.78306	0.48756
732.85449	0.47949
730.92593	0.46802
728.99736	0.42102
727.06880	0.34461
725.14023	0.26141
723.21167	0.18094
721.28311	0.11730
719.35454	0.06332
717.42598	0.01014
715.49741	-0.02146
713.56885	-0.04883
711.64028	-0.09417
709.71172	-0.13165
707.78315	-0.14609
705.85459	-0.14965
703.92603	-0.07393
701.99746	0.01581
700.06890	-0.02819
698.14033	-0.15208
696.21177	-0.20274
694.28320	-0.16510
692.35464	-0.17827
690.42607	-0.21875
688.49751	-0.20102
686.56895	-0.13904
684.64038	-0.10639
682.71182	-0.11233
680.78325	-0.11072
678.85469	-0.13770
676.92612	-0.21230
674.99756	-0.21866
673.06899	-0.08390
671.14043	-0.01443
669.21187	-0.06659
667.28330	-0.14222
665.35474	-0.16983
663.42617	-0.14031
661.49761	-0.07109
659.56904	-0.02730
657.64048	-0.03437
655.71191	-0.07562
653.78335	-0.08634
651.85479	-0.00849
649.92622	0.03968
647.99766	-0.04570
646.06909	-0.16705
644.14053	-0.17957
642.21196	-0.06419
640.28340	0.00402
638.35483	-0.02443
636.42627	-0.09155
634.49771	-0.14545
632.56914	-0.16585
630.64058	-0.16179
628.71201	-0.12764
626.78345	-0.08631
624.85488	-0.08071
622.92632	-0.08733
620.99775	-0.08472
619.06919	-0.07441
617.14062	-0.06475
615.21206	-0.05636
613.28350	-0.03353
611.35493	0.00936
609.42637	0.02330
607.49780	-0.00831
605.56924	-0.04994
603.64067	-0.05563
601.71211	-0.01936
599.78354	0.00284
597.85498	-0.01772
595.92642	-0.04064
593.99785	-0.01908
592.06929	0.01688
590.14072	0.02578
588.21216	0.00904
586.28359	-0.02660
584.35503	-0.08582
582.42646	-0.10110
580.49790	-0.03669
578.56934	0.00997
576.64077	-0.01074
574.71221	-0.05854
572.78364	-0.04488
570.85508	0.00197
568.92651	0.00155
566.99795	-0.02362
565.06938	0.01119
563.14082	0.04258
561.21226	0.00883
559.28369	-0.06956
557.35513	-0.13073
555.42656	-0.11103
553.49800	-0.06097
551.56943	-0.07606
549.64087	-0.13743
547.71230	-0.14094
545.78374	-0.09695
543.85518	-0.07917
541.92661	-0.08387
539.99805	-0.07684
538.06948	-0.06719
536.14092	-0.04480
534.21235	-0.00387
532.28379	0.01321
530.35522	0.00812
528.42666	-0.00836
526.49810	-0.03927
524.56953	-0.04393
522.64097	0.00036
520.71240	0.02600
518.78384	-0.01602
516.85527	-0.07000
514.92671	-0.08451
512.99814	-0.07510
511.06958	-0.07984
509.14102	-0.09723
507.21245	-0.08340
505.28389	-0.03474
503.35532	-0.02386
501.42676	-0.03840
499.49819	-0.01603
