3997.91411	0.06039
3995.98555	0.06098
3994.05698	0.06120
3992.12842	0.06123
3990.19985	0.06147
3988.27129	0.06187
3986.34272	0.06238
3984.41416	0.06300
3982.48560	0.06345
3980.55703	0.06354
3978.62847	0.06340
3976.69990	0.06353
3974.77134	0.06389
3972.84277	0.06418
3970.91421	0.06466
3968.98564	0.06530
3967.05708	0.06567
3965.12852	0.06562
3963.19995	0.06554
3961.27139	0.06569
3959.34282	0.06607
3957.41426	0.06666
3955.48569	0.06687
3953.55713	0.06629
3951.62856	0.06593
3949.70000	0.06667
3947.77144	0.06738
3945.84287	0.06716
3943.91431	0.06710
3941.98574	0.06753
3940.05718	0.06738
3938.12861	0.06682
3936.20005	0.06650
3934.27148	0.06658
3932.34292	0.06738
3930.41436	0.06796
3928.48579	0.06707
3926.55723	0.06630
3924.62866	0.06703
3922.70010	0.06758
3920.77153	0.06713
3918.84297	0.06719
3916.91440	0.06777
3914.98584	0.06728
3913.05728	0.06561
3911.12871	0.06437
3909.20015	0.06430
3907.27158	0.06524
3905.34302	0.06745
3903.41445	0.07035
3901.48589	0.07203
3899.55732	0.07199
3897.62876	0.07033
3895.70020	0.06806
3893.77163	0.06730
3891.84307	0.06830
3889.91450	0.06882
3887.98594	0.06810
3886.05737	0.06851
3884.12881	0.07018
3882.20024	0.07112
3880.27168	0.07135
3878.34312	0.07035
3876.41455	0.06916
3874.48599	0.07000
3872.55742	0.07154
3870.62886	0.07268
3868.70029	0.07412
3866.77173	0.07420
3864.84316	0.07431
3862.91460	0.07526
3860.98604	0.07392
3859.05747	0.07158
3857.12891	0.07136
3855.20034	0.07381
3853.27178	0.07879
3851.34321	0.08102
3849.41465	0.07724
3847.48608	0.07370
3845.55752	0.07282
3843.62896	0.07449
3841.70039	0.07750
3839.77183	0.08074
3837.84326	0.08343
3835.91470	0.08354
3833.98613	0.08160
3832.05757	0.07995
3830.12900	0.07898
3828.20044	0.07894
3826.27187	0.08018
3824.34331	0.08211
3822.41475	0.08526
3820.48618	0.08983
3818.55762	0.09125
3816.62905	0.08987
3814.70049	0.08854
3812.77192	0.08632
3810.84336	0.08473
3808.91479	0.08559
3806.98623	0.08858
3805.05767	0.09142
3803.12910	0.09349
3801.20054	0.09662
3799.27197	0.09829
3797.34341	0.09746
3795.41484	0.09701
3793.48628	0.09646
3791.55771	0.09580
3789.62915	0.09597
3787.70059	0.09703
3785.77202	0.09909
3783.84346	0.10158
3781.91489	0.10365
3779.98633	0.10585
3778.05776	0.10772
3776.12920	0.10788
3774.20063	0.10781
3772.27207	0.10935
3770.34351	0.11281
3768.41494	0.11656
3766.48638	0.11866
3764.55781	0.12017
3762.62925	0.12160
3760.70068	0.12347
3758.77212	0.12702
3756.84355	0.13094
3754.91499	0.13357
3752.98643	0.13681
3751.05786	0.14296
3749.12930	0.14984
3747.20073	0.15271
3745.27217	0.15464
3743.34360	0.15840
3741.41504	0.16164
3739.48647	0.16477
3737.55791	0.17059
3735.62935	0.18010
3733.70078	0.18989
3731.77222	0.19479
3729.84365	0.19703
3727.91509	0.20021
3725.98652	0.20574
3724.05796	0.21201
3722.12939	0.21672
3720.20083	0.22021
3718.27227	0.22311
3716.34370	0.22649
3714.41514	0.23221
3712.48657	0.24332
3710.55801	0.26105
3708.62944	0.27688
3706.70088	0.28636
3704.77231	0.29567
3702.84375	0.30861
3700.91519	0.32558
3698.98662	0.34302
3697.05806	0.35915
3695.12949	0.37633
3693.20093	0.39515
3691.27236	0.41711
3689.34380	0.44540
3687.41523	0.47712
3685.48667	0.50368
3683.55811	0.52725
3681.62954	0.55375
3679.70098	0.58477
3677.77241	0.61856
3675.84385	0.65881
3673.91528	0.70996
3671.98672	0.75098
3670.05815	0.78886
3668.12959	0.83963
3666.20103	0.88452
3664.27246	0.92257
3662.34390	0.96484
3660.41533	1.01105
3658.48677	1.05664
3656.55820	1.10548
3654.62964	1.16010
3652.70107	1.20649
3650.77251	1.24841
3648.84395	1.30608
3646.91538	1.37260
3644.98682	1.41940
3643.05825	1.45591
3641.12969	1.49503
3639.20112	1.53939
3637.27256	1.58446
3635.34399	1.62845
3633.41543	1.67263
3631.48687	1.71421
3629.55830	1.75679
3627.62974	1.81207
3625.70117	1.86226
3623.77261	1.89495
3621.84404	1.92585
3619.91548	1.96216
3617.98691	2.00687
3616.05835	2.04980
3614.12979	2.08536
3612.20122	2.12287
3610.27266	2.16157
3608.34409	2.20106
3606.41553	2.24307
3604.48696	2.28256
3602.55840	2.31904
3600.62983	2.35932
3598.70127	2.40173
3596.77271	2.44050
3594.84414	2.47924
3592.91558	2.52017
3590.98701	2.55845
3589.05845	2.59495
3587.12988	2.63997
3585.20132	2.68757
3583.27275	2.72530
3581.34419	2.75978
3579.41562	2.79780
3577.48706	2.83986
3575.55850	2.88398
3573.62993	2.92762
3571.70137	2.96818
3569.77280	3.00899
3567.84424	3.05613
3565.91567	3.11208
3563.98711	3.16134
3562.05854	3.19911
3560.12998	3.23864
3558.20142	3.28354
3556.27285	3.32844
3554.34429	3.37102
3552.41572	3.41749
3550.48716	3.46760
3548.55859	3.51467
3546.63003	3.55837
3544.70146	3.60325
3542.77290	3.65094
3540.84434	3.69962
3538.91577	3.74692
3536.98721	3.79176
3535.05864	3.83712
3533.13008	3.88497
3531.20151	3.93603
3529.27295	3.98563
3527.34438	4.03193
3525.41582	4.07733
3523.48726	4.12090
3521.55869	4.16703
3519.63013	4.21938
3517.70156	4.27232
3515.77300	4.31917
3513.84443	4.36389
3511.91587	4.41091
3509.98730	4.46078
3508.05874	4.51359
3506.13018	4.56447
3504.20161	4.61147
3502.27305	4.65882
3500.34448	4.70943
3498.41592	4.75801
3496.48735	4.80025
3494.55879	4.84510
3492.63022	4.89945
3490.70166	4.95177
3488.77310	4.99544
3486.84453	5.03961
3484.91597	5.08772
3482.98740	5.13885
3481.05884	5.19094
3479.13027	5.23626
3477.20171	5.27831
3475.27314	5.32418
3473.34458	5.37785
3471.41602	5.43425
3469.48745	5.47820
3467.55889	5.51841
3465.63032	5.56729
3463.70176	5.61759
3461.77319	5.66297
3459.84463	5.70409
3457.91606	5.75014
3455.98750	5.80799
3454.05894	5.85899
3452.13037	5.89503
3450.20181	5.93979
3448.27324	5.99719
3446.34468	6.04876
3444.41611	6.08588
3442.48755	6.13060
3440.55898	6.19380
3438.63042	6.25241
3436.70186	6.29707
3434.77329	6.34083
3432.84473	6.38658
3430.91616	6.43153
3428.98760	6.48262
3427.05903	6.53827
3425.13047	6.59685
3423.20190	6.65777
3421.27334	6.71940
3419.34478	6.76289
3417.41621	6.79636
3415.48765	6.86739
3413.55908	6.95222
3411.63052	6.99697
3409.70195	7.01969
3407.77339	7.05985
3405.84482	7.10171
3403.91626	7.12129
3401.98770	7.12664
3400.05913	7.16273
3398.13057	7.23630
3396.20200	7.28436
3394.27344	7.30903
3392.34487	7.34483
3390.41631	7.37161
3388.48774	7.38337
3386.55918	7.43668
3384.63062	7.52588
3382.70205	7.56593
3380.77349	7.54262
3378.84492	7.52288
3376.91636	7.53923
3374.98779	7.58861
3373.05923	7.65310
3371.13066	7.65517
3369.20210	7.61931
3367.27354	7.64121
3365.34497	7.72660
3363.41641	7.79698
3361.48784	7.80278
3359.55928	7.80428
3357.63071	7.87491
3355.70215	7.95804
3353.77358	7.89738
3351.84502	7.78344
3349.91646	7.73354
3347.98789	7.71450
3346.05933	7.72933
3344.13076	7.79987
3342.20220	7.88104
3340.27363	7.93620
3338.34507	7.95900
3336.41650	7.89668
3334.48794	7.81022
3332.55937	7.78489
3330.63081	7.84126
3328.70225	7.89117
3326.77368	7.84872
3324.84512	7.83728
3322.91655	7.89545
3320.98799	7.94834
3319.05942	8.00124
3317.13086	8.09029
3315.20229	8.14720
3313.27373	8.12788
3311.34517	8.07919
3309.41660	8.02288
3307.48804	7.98894
3305.55947	7.99471
3303.63091	8.02821
3301.70234	8.03727
3299.77378	8.01630
3297.84521	8.00831
3295.91665	8.03211
3293.98809	8.07396
3292.05952	8.06102
3290.13096	8.02186
3288.20239	8.09965
3286.27383	8.26235
3284.34526	8.34976
3282.41670	8.32675
3280.48813	8.19585
3278.55957	8.04378
3276.63101	7.94917
3274.70244	7.90211
3272.77388	7.91558
3270.84531	7.98056
3268.91675	8.03003
3266.98818	8.04915
3265.05962	8.07164
3263.13105	8.07164
3261.20249	8.07250
3259.27393	8.07402
3257.34536	8.02683
3255.41680	8.03296
3253.48823	8.16513
3251.55967	8.24880
3249.63110	8.14385
3247.70254	8.03568
3245.77397	8.02287
3243.84541	8.02648
3241.91685	8.07022
3239.98828	8.16393
3238.05972	8.15994
3236.13115	8.09596
3234.20259	8.09794
3232.27402	8.11425
3230.34546	8.07111
3228.41689	8.00072
3226.48833	7.98840
3224.55977	7.99476
3222.63120	7.91960
3220.70264	7.84738
3218.77407	7.89995
3216.84551	8.00936
3214.91694	8.07126
3212.98838	8.12016
3211.05981	8.11776
3209.13125	8.01122
3207.20269	7.90794
3205.27412	7.84438
3203.34556	7.76011
3201.41699	7.67672
3199.48843	7.63884
3197.55986	7.63289
3195.63130	7.65358
3193.70273	7.69626
3191.77417	7.68330
3189.84561	7.58108
3187.91704	7.46459
3185.98848	7.39038
3184.05991	7.37203
3182.13135	7.37562
3180.20278	7.34403
3178.27422	7.27452
3176.34565	7.21663
3174.41709	7.17386
3172.48853	7.10767
3170.55996	7.03569
3168.63140	6.99557
3166.70283	6.97145
3164.77427	6.91922
3162.84570	6.82501
3160.91714	6.71914
3158.98857	6.63744
3157.06001	6.58311
3155.13145	6.53807
3153.20288	6.48931
3151.27432	6.43288
3149.34575	6.35902
3147.41719	6.27664
3145.48862	6.20785
3143.56006	6.14177
3141.63149	6.07018
3139.70293	5.99618
3137.77437	5.92189
3135.84580	5.86221
3133.91724	5.81141
3131.98867	5.73976
3130.06011	5.65007
3128.13154	5.57391
3126.20298	5.51513
3124.27441	5.45235
3122.34585	5.37629
3120.41729	5.30093
3118.48872	5.23409
3116.56016	5.16222
3114.63159	5.08150
3112.70303	5.00712
3110.77446	4.94269
3108.84590	4.87900
3106.91733	4.81335
3104.98877	4.74534
3103.06021	4.67768
3101.13164	4.61296
3099.20308	4.54792
3097.27451	4.48139
3095.34595	4.41330
3093.41738	4.34701
3091.48882	4.28565
3089.56025	4.22517
3087.63169	4.16190
3085.70312	4.09597
3083.77456	4.03098
3081.84600	3.97013
3079.91743	3.91013
3077.98887	3.84768
3076.06030	3.78569
3074.13174	3.72793
3072.20317	3.67332
3070.27461	3.61806
3068.34604	3.56099
3066.41748	3.50337
3064.48892	3.44571
3062.56035	3.38965
3060.63179	3.33689
3058.70322	3.28470
3056.77466	3.23034
3054.84609	3.17582
3052.91753	3.12317
3050.98896	3.07133
3049.06040	3.01976
3047.13184	2.96941
3045.20327	2.92006
3043.27471	2.87115
3041.34614	2.82262
3039.41758	2.77454
3037.48901	2.72793
3035.56045	2.68282
3033.63188	2.63715
3031.70332	2.59025
3029.77476	2.54398
3027.84619	2.49940
3025.91763	2.45578
3023.98906	2.41295
3022.06050	2.37168
3020.13193	2.33132
3018.20337	2.29054
3016.27480	2.24969
3014.34624	2.20986
3012.41768	2.17112
3010.48911	2.13292
3008.56055	2.09514
3006.63198	2.05834
3004.70342	2.02260
3002.77485	1.98711
3000.84629	1.95192
2998.91772	1.91761
2996.98916	1.88449
2995.06060	1.85263
2993.13203	1.82151
2991.20347	1.79094
2989.27490	1.76116
2987.34634	1.73173
2985.41777	1.70224
2983.48921	1.67304
2981.56064	1.64467
2979.63208	1.61728
2977.70352	1.59053
2975.77495	1.56461
2973.84639	1.53968
2971.91782	1.51468
2969.98926	1.48906
2968.06069	1.46377
2966.13213	1.43940
2964.20356	1.41508
2962.27500	1.39049
2960.34644	1.36623
2958.41787	1.34216
2956.48931	1.31799
2954.56074	1.29409
2952.63218	1.27063
2950.70361	1.24746
2948.77505	1.22481
2946.84648	1.20243
2944.91792	1.18007
2942.98936	1.15859
2941.06079	1.13787
2939.13223	1.11666
2937.20366	1.09505
2935.27510	1.07363
2933.34653	1.05209
2931.41797	1.03051
2929.48940	1.00935
2927.56084	0.98874
2925.63228	0.96874
2923.70371	0.94964
2921.77515	0.93180
2919.84658	0.91510
2917.91802	0.89931
2915.98945	0.88462
2914.06089	0.87063
2912.13232	0.85651
2910.20376	0.84238
2908.27520	0.82851
2906.34663	0.81479
2904.41807	0.80109
2902.48950	0.78739
2900.56094	0.77405
2898.63237	0.76127
2896.70381	0.74857
2894.77524	0.73578
2892.84668	0.72341
2890.91812	0.71177
2888.98955	0.70082
2887.06099	0.69036
2885.13242	0.68020
2883.20386	0.67027
2881.27529	0.66056
2879.34673	0.65106
2877.41816	0.64154
2875.48960	0.63173
2873.56104	0.62141
2871.63247	0.61048
2869.70391	0.59925
2867.77534	0.58777
2865.84678	0.57579
2863.91821	0.56351
2861.98965	0.55131
2860.06108	0.53918
2858.13252	0.52733
2856.20396	0.51597
2854.27539	0.50539
2852.34683	0.49625
2850.41826	0.48834
2848.48970	0.48095
2846.56113	0.47438
2844.63257	0.46885
2842.70400	0.46378
2840.77544	0.45861
2838.84687	0.45330
2836.91831	0.44794
2834.98975	0.44240
2833.06118	0.43669
2831.13262	0.43083
2829.20405	0.42488
2827.27549	0.41904
2825.34692	0.41334
2823.41836	0.40756
2821.48979	0.40167
2819.56123	0.39590
2817.63267	0.39032
2815.70410	0.38492
2813.77554	0.37958
2811.84697	0.37422
2809.91841	0.36893
2807.98984	0.36368
2806.06128	0.35837
2804.13271	0.35318
2802.20415	0.34827
2800.27559	0.34343
2798.34702	0.33845
2796.41846	0.33347
2794.48989	0.32867
2792.56133	0.32407
2790.63276	0.31960
2788.70420	0.31534
2786.77563	0.31118
2784.84707	0.30699
2782.91851	0.30284
2780.98994	0.29873
2779.06138	0.29467
2777.13281	0.29076
2775.20425	0.28695
2773.27568	0.28310
2771.34712	0.27924
2769.41855	0.27546
2767.48999	0.27184
2765.56143	0.26840
2763.63286	0.26507
2761.70430	0.26179
2759.77573	0.25861
2757.84717	0.25553
2755.91860	0.25254
2753.99004	0.24948
2752.06147	0.24630
2750.13291	0.24326
2748.20435	0.24050
2746.27578	0.23785
2744.34722	0.23512
2742.41865	0.23225
2740.49009	0.22942
2738.56152	0.22686
2736.63296	0.22439
2734.70439	0.22181
2732.77583	0.21924
2730.84727	0.21679
2728.91870	0.21455
2726.99014	0.21249
2725.06157	0.21040
2723.13301	0.20829
2721.20444	0.20627
2719.27588	0.20431
2717.34731	0.20231
2715.41875	0.20027
2713.49019	0.19830
2711.56162	0.19646
2709.63306	0.19466
2707.70449	0.19289
2705.77593	0.19126
2703.84736	0.18965
2701.91880	0.18792
2699.99023	0.18622
2698.06167	0.18486
2696.13311	0.18372
2694.20454	0.18249
2692.27598	0.18116
2690.34741	0.17967
2688.41885	0.17819
2686.49028	0.17693
2684.56172	0.17577
2682.63315	0.17466
2680.70459	0.17358
2678.77603	0.17243
2676.84746	0.17134
2674.91890	0.17037
2672.99033	0.16930
2671.06177	0.16812
2669.13320	0.16704
2667.20464	0.16614
2665.27607	0.16530
2663.34751	0.16433
2661.41895	0.16336
2659.49038	0.16261
2657.56182	0.16200
2655.63325	0.16134
2653.70469	0.16058
2651.77612	0.15978
2649.84756	0.15907
2647.91899	0.15837
2645.99043	0.15766
2644.06187	0.15704
2642.13330	0.15647
2640.20474	0.15592
2638.27617	0.15542
2636.34761	0.15499
2634.41904	0.15462
2632.49048	0.15426
2630.56191	0.15382
2628.63335	0.15339
2626.70479	0.15296
2624.77622	0.15248
2622.84766	0.15209
2620.91909	0.15180
2618.99053	0.15157
2617.06196	0.15143
2615.13340	0.15130
2613.20483	0.15115
2611.27627	0.15099
2609.34771	0.15083
2607.41914	0.15071
2605.49058	0.15059
2603.56201	0.15050
2601.63345	0.15055
2599.70488	0.15069
2597.77632	0.15072
2595.84775	0.15070
2593.91919	0.15077
2591.99062	0.15082
2590.06206	0.15072
2588.13350	0.15062
2586.20493	0.15074
2584.27637	0.15105
2582.34780	0.15129
2580.41924	0.15146
2578.49067	0.15177
2576.56211	0.15221
2574.63354	0.15252
2572.70498	0.15270
2570.77642	0.15294
2568.84785	0.15335
2566.91929	0.15381
2564.99072	0.15422
2563.06216	0.15455
2561.13359	0.15488
2559.20503	0.15536
2557.27646	0.15595
2555.34790	0.15639
2553.41934	0.15676
2551.49077	0.15727
2549.56221	0.15786
2547.63364	0.15853
2545.70508	0.15919
2543.77651	0.15973
2541.84795	0.16029
2539.91938	0.16100
2537.99082	0.16163
2536.06226	0.16205
2534.13369	0.16238
2532.20513	0.16283
2530.27656	0.16359
2528.34800	0.16446
2526.41943	0.16523
2524.49087	0.16594
2522.56230	0.16667
2520.63374	0.16743
2518.70518	0.16825
2516.77661	0.16903
2514.84805	0.16964
2512.91948	0.17024
2510.99092	0.17101
2509.06235	0.17182
2507.13379	0.17259
2505.20522	0.17337
2503.27666	0.17417
2501.34810	0.17493
2499.41953	0.17575
2497.49097	0.17662
2495.56240	0.17746
2493.63384	0.17832
2491.70527	0.17913
2489.77671	0.17988
2487.84814	0.18073
2485.91958	0.18179
2483.99102	0.18282
2482.06245	0.18359
2480.13389	0.18422
2478.20532	0.18494
2476.27676	0.18576
2474.34819	0.18667
2472.41963	0.18766
2470.49106	0.18861
2468.56250	0.18945
2466.63394	0.19025
2464.70537	0.19113
2462.77681	0.19202
2460.84824	0.19297
2458.91968	0.19402
2456.99111	0.19497
2455.06255	0.19582
2453.13398	0.19681
2451.20542	0.19793
2449.27686	0.19893
2447.34829	0.19980
2445.41973	0.20070
2443.49116	0.20171
2441.56260	0.20277
2439.63403	0.20378
2437.70547	0.20471
2435.77690	0.20562
2433.84834	0.20652
2431.91978	0.20740
2429.99121	0.20839
2428.06265	0.20953
2426.13408	0.21072
2424.20552	0.21196
2422.27695	0.21323
2420.34839	0.21428
2418.41982	0.21502
2416.49126	0.21586
2414.56270	0.21699
2412.63413	0.21820
2410.70557	0.21936
2408.77700	0.22064
2406.84844	0.22204
2404.91987	0.22337
2402.99131	0.22451
2401.06274	0.22557
2399.13418	0.22674
2397.20562	0.22800
2395.27705	0.22927
2393.34849	0.23053
2391.41992	0.23184
2389.49136	0.23350
2387.56279	0.23614
2385.63423	0.24051
2383.70566	0.24729
2381.77710	0.25664
2379.84854	0.26818
2377.91997	0.28155
2375.99141	0.29695
2374.06284	0.31495
2372.13428	0.33542
2370.20571	0.35705
2368.27715	0.37827
2366.34858	0.39914
2364.42002	0.41890
2362.49146	0.43357
2360.56289	0.44158
2358.63433	0.44266
2356.70576	0.43408
2354.77720	0.41692
2352.84863	0.39510
2350.92007	0.37281
2348.99150	0.35916
2347.06294	0.35992
2345.13437	0.37549
2343.20581	0.39672
2341.27725	0.40810
2339.34868	0.40862
2337.42012	0.40564
2335.49155	0.40297
2333.56299	0.40021
2331.63442	0.39777
2329.70586	0.39569
2327.77729	0.39273
2325.84873	0.38816
2323.92017	0.38225
2321.99160	0.37533
2320.06304	0.36766
2318.13447	0.35990
2316.20591	0.35329
2314.27734	0.34910
2312.34878	0.34700
2310.42021	0.34497
2308.49165	0.34154
2306.56309	0.33697
2304.63452	0.33267
2302.70596	0.33004
2300.77739	0.32904
2298.84883	0.32850
2296.92026	0.32792
2294.99170	0.32740
2293.06313	0.32688
2291.13457	0.32630
2289.20601	0.32571
2287.27744	0.32508
2285.34888	0.32451
2283.42031	0.32480
2281.49175	0.32656
2279.56318	0.32927
2277.63462	0.33208
2275.70605	0.33462
2273.77749	0.33681
2271.84893	0.33882
2269.92036	0.34091
2267.99180	0.34301
2266.06323	0.34485
2264.13467	0.34651
2262.20610	0.34825
2260.27754	0.35001
2258.34897	0.35168
2256.42041	0.35334
2254.49185	0.35503
2252.56328	0.35674
2250.63472	0.35850
2248.70615	0.36032
2246.77759	0.36220
2244.84902	0.36419
2242.92046	0.36625
2240.99189	0.36836
2239.06333	0.37048
2237.13477	0.37254
2235.20620	0.37460
2233.27764	0.37682
2231.34907	0.37911
2229.42051	0.38125
2227.49194	0.38327
2225.56338	0.38540
2223.63481	0.38768
2221.70625	0.38996
2219.77769	0.39212
2217.84912	0.39419
2215.92056	0.39627
2213.99199	0.39842
2212.06343	0.40061
2210.13486	0.40276
2208.20630	0.40489
2206.27773	0.40704
2204.34917	0.40920
2202.42061	0.41125
2200.49204	0.41319
2198.56348	0.41513
2196.63491	0.41709
2194.70635	0.41897
2192.77778	0.42085
2190.84922	0.42277
2188.92065	0.42467
2186.99209	0.42644
2185.06353	0.42805
2183.13496	0.42970
2181.20640	0.43153
2179.27783	0.43327
2177.34927	0.43483
2175.42070	0.43628
2173.49214	0.43774
2171.56357	0.43926
2169.63501	0.44064
2167.70645	0.44184
2165.77788	0.44307
2163.84932	0.44432
2161.92075	0.44544
2159.99219	0.44651
2158.06362	0.44755
2156.13506	0.44849
2154.20649	0.44929
2152.27793	0.45002
2150.34937	0.45078
2148.42080	0.45152
2146.49224	0.45210
2144.56367	0.45250
2142.63511	0.45286
2140.70654	0.45320
2138.77798	0.45347
2136.84941	0.45368
2134.92085	0.45375
2132.99229	0.45365
2131.06372	0.45340
2129.13516	0.45299
2127.20659	0.45262
2125.27803	0.45241
2123.34946	0.45216
2121.42090	0.45174
2119.49233	0.45114
2117.56377	0.45039
2115.63521	0.44957
2113.70664	0.44870
2111.77808	0.44771
2109.84951	0.44666
2107.92095	0.44571
2105.99238	0.44475
2104.06382	0.44358
2102.13525	0.44214
2100.20669	0.44064
2098.27812	0.43923
2096.34956	0.43782
2094.42100	0.43631
2092.49243	0.43468
2090.56387	0.43292
2088.63530	0.43108
2086.70674	0.42925
2084.77817	0.42732
2082.84961	0.42530
2080.92104	0.42329
2078.99248	0.42131
2077.06392	0.41930
2075.13535	0.41717
2073.20679	0.41490
2071.27822	0.41253
2069.34966	0.41012
2067.42109	0.40785
2065.49253	0.40573
2063.56396	0.40353
2061.63540	0.40110
2059.70684	0.39848
2057.77827	0.39585
2055.84971	0.39328
2053.92114	0.39067
2051.99258	0.38800
2050.06401	0.38536
2048.13545	0.38271
2046.20688	0.38004
2044.27832	0.37746
2042.34976	0.37495
2040.42119	0.37239
2038.49263	0.36962
2036.56406	0.36671
2034.63550	0.36381
2032.70693	0.36089
2030.77837	0.35805
2028.84980	0.35536
2026.92124	0.35269
2024.99268	0.34985
2023.06411	0.34692
2021.13555	0.34411
2019.20698	0.34158
2017.27842	0.33910
2015.34985	0.33632
2013.42129	0.33331
2011.49272	0.33031
2009.56416	0.32753
2007.63560	0.32499
2005.70703	0.32243
2003.77847	0.31972
2001.84990	0.31704
1999.92134	0.31442
1997.99277	0.31182
1996.06421	0.30937
1994.13564	0.30718
1992.20708	0.30510
1990.27852	0.30268
1988.34995	0.29996
1986.42139	0.29724
1984.49282	0.29473
1982.56426	0.29238
1980.63569	0.29005
1978.70713	0.28776
1976.77856	0.28559
1974.85000	0.28339
1972.92144	0.28114
1970.99287	0.27910
1969.06431	0.27737
1967.13574	0.27561
1965.20718	0.27344
1963.27861	0.27117
1961.35005	0.26923
1959.42148	0.26751
1957.49292	0.26579
1955.56436	0.26404
1953.63579	0.26224
1951.70723	0.26045
1949.77866	0.25883
1947.85010	0.25737
1945.92153	0.25606
1943.99297	0.25498
1942.06440	0.25379
1940.13584	0.25198
1938.20728	0.25006
1936.27871	0.24861
1934.35015	0.24739
1932.42158	0.24617
1930.49302	0.24494
1928.56445	0.24378
1926.63589	0.24281
1924.70732	0.24222
1922.77876	0.24172
1920.85020	0.24081
1918.92163	0.23990
1916.99307	0.23902
1915.06450	0.23768
1913.13594	0.23645
1911.20737	0.23591
1909.27881	0.23560
1907.35024	0.23498
1905.42168	0.23405
1903.49312	0.23320
1901.56455	0.23260
1899.63599	0.23218
1897.70742	0.23188
1895.77886	0.23170
1893.85029	0.23149
1891.92173	0.23132
1889.99316	0.23143
1888.06460	0.23111
1886.13604	0.23027
1884.20747	0.22971
1882.27891	0.22951
1880.35034	0.22947
1878.42178	0.22952
1876.49321	0.22954
1874.56465	0.22950
1872.63608	0.22971
1870.70752	0.23050
1868.77896	0.23181
1866.85039	0.23214
1864.92183	0.23129
1862.99326	0.23073
1861.06470	0.23088
1859.13613	0.23132
1857.20757	0.23169
1855.27900	0.23206
1853.35044	0.23243
1851.42187	0.23296
1849.49331	0.23384
1847.56475	0.23502
1845.63618	0.23640
1843.70762	0.23777
1841.77905	0.23824
1839.85049	0.23815
1837.92192	0.23867
1835.99336	0.23960
1834.06479	0.24058
1832.13623	0.24198
1830.20767	0.24419
1828.27910	0.24596
1826.35054	0.24668
1824.42197	0.24756
1822.49341	0.24841
1820.56484	0.24925
1818.63628	0.25051
1816.70771	0.25211
1814.77915	0.25371
1812.85059	0.25569
1810.92202	0.25817
1808.99346	0.26030
1807.06489	0.26192
1805.13633	0.26362
1803.20776	0.26602
1801.27920	0.26902
1799.35063	0.27201
1797.42207	0.27435
1795.49351	0.27672
1793.56494	0.28000
1791.63638	0.28405
1789.70781	0.28692
1787.77925	0.28870
1785.85068	0.29156
1783.92212	0.29536
1781.99355	0.29951
1780.06499	0.30389
1778.13643	0.30822
1776.20786	0.31238
1774.27930	0.31729
1772.35073	0.32386
1770.42217	0.32998
1768.49360	0.33437
1766.56504	0.33863
1764.63647	0.34351
1762.70791	0.34951
1760.77935	0.35699
1758.85078	0.36363
1756.92222	0.37021
1754.99365	0.37738
1753.06509	0.38420
1751.13652	0.39288
1749.20796	0.40352
1747.27939	0.41331
1745.35083	0.42180
1743.42227	0.43108
1741.49370	0.44168
1739.56514	0.45442
1737.63657	0.46731
1735.70801	0.47908
1733.77944	0.49648
1731.85088	0.51584
1729.92231	0.53044
1727.99375	0.54531
1726.06519	0.56191
1724.13662	0.58060
1722.20806	0.60070
1720.27949	0.61968
1718.35093	0.64301
1716.42236	0.67620
1714.49380	0.70570
1712.56523	0.72930
1710.63667	0.75289
1708.70811	0.77890
1706.77954	0.80892
1704.85098	0.84472
1702.92241	0.87672
1700.99385	0.90890
1699.06528	0.95618
1697.13672	0.99896
1695.20815	1.04250
1693.27959	1.08544
1691.35103	1.12106
1689.42246	1.16274
1687.49390	1.20683
1685.56533	1.24976
1683.63677	1.31493
1681.70820	1.38154
1679.77964	1.42432
1677.85107	1.46533
1675.92251	1.51333
1673.99395	1.57289
1672.06538	1.62661
1670.13682	1.67990
1668.20825	1.74718
1666.27969	1.80234
1664.35112	1.85165
1662.42256	1.91478
1660.49399	1.98522
1658.56543	2.04065
1656.63687	2.08591
1654.70830	2.12636
1652.77974	2.18453
1650.85117	2.23915
1648.92261	2.25990
1646.99404	2.28416
1645.06548	2.30672
1643.13691	2.31888
1641.20835	2.32442
1639.27979	2.32986
1637.35122	2.33275
1635.42266	2.32990
1633.49409	2.31994
1631.56553	2.30417
1629.63696	2.28445
1627.70840	2.25302
1625.77983	2.21775
1623.85127	2.17521
1621.92271	2.12136
1619.99414	2.07181
1618.06558	2.02523
1616.13701	1.96125
1614.20845	1.89455
1612.27988	1.84222
1610.35132	1.78915
1608.42275	1.73312
1606.49419	1.67831
1604.56562	1.62796
1602.63706	1.57927
1600.70850	1.53161
1598.77993	1.48767
1596.85137	1.44638
1594.92280	1.40642
1592.99424	1.36803
1591.06567	1.33337
1589.13711	1.30176
1587.20854	1.27303
1585.27998	1.24695
1583.35142	1.22291
1581.42285	1.20125
1579.49429	1.18315
1577.56572	1.16788
1575.63716	1.15013
1573.70859	1.13366
1571.78003	1.12284
1569.85146	1.11323
1567.92290	1.10346
1565.99434	1.09644
1564.06577	1.09216
1562.13721	1.09021
1560.20864	1.09213
1558.28008	1.09954
1556.35151	1.10385
1554.42295	1.10493
1552.49438	1.10670
1550.56582	1.10748
1548.63726	1.10553
1546.70869	1.10060
1544.78013	1.09269
1542.85156	1.08145
1540.92300	1.06359
1538.99443	1.03381
1537.06587	1.01033
1535.13730	0.99467
1533.20874	0.97464
1531.28018	0.95224
1529.35161	0.93542
1527.42305	0.92044
1525.49448	0.90558
1523.56592	0.89327
1521.63735	0.88181
1519.70879	0.86974
1517.78022	0.85913
1515.85166	0.84655
1513.92310	0.83267
1511.99453	0.82063
1510.06597	0.81075
1508.13740	0.80216
1506.20884	0.78747
1504.28027	0.77208
1502.35171	0.76305
1500.42314	0.75597
1498.49458	0.74920
1496.56602	0.74142
1494.63745	0.73295
1492.70889	0.72647
1490.78032	0.72176
1488.85176	0.71632
1486.92319	0.70976
1484.99463	0.70398
1483.06606	0.69983
1481.13750	0.69691
1479.20894	0.69478
1477.28037	0.69383
1475.35181	0.69417
1473.42324	0.69507
1471.49468	0.69434
1469.56611	0.69131
1467.63755	0.68838
1465.70898	0.68679
1463.78042	0.68599
1461.85186	0.68550
1459.92329	0.68610
1457.99473	0.68778
1456.06616	0.68775
1454.13760	0.68477
1452.20903	0.68174
1450.28047	0.67927
1448.35190	0.67713
1446.42334	0.67458
1444.49478	0.67160
1442.56621	0.66871
1440.63765	0.66602
1438.70908	0.66367
1436.78052	0.66093
1434.85195	0.65705
1432.92339	0.65362
1430.99482	0.65167
1429.06626	0.65078
1427.13770	0.65040
1425.20913	0.65081
1423.28057	0.65207
1421.35200	0.65344
1419.42344	0.65463
1417.49487	0.65460
1415.56631	0.65298
1413.63774	0.65177
1411.70918	0.65175
1409.78062	0.65269
1407.85205	0.65439
1405.92349	0.65672
1403.99492	0.65866
1402.06636	0.65920
1400.13779	0.65894
1398.20923	0.65802
1396.28066	0.65593
1394.35210	0.65220
1392.42354	0.64706
1390.49497	0.64203
1388.56641	0.63749
1386.63784	0.63247
1384.70928	0.62673
1382.78071	0.62127
1380.85215	0.61658
1378.92358	0.61271
1376.99502	0.60979
1375.06646	0.60800
1373.13789	0.60672
1371.20933	0.60547
1369.28076	0.60437
1367.35220	0.60308
1365.42363	0.60165
1363.49507	0.60033
1361.56650	0.59860
1359.63794	0.59655
1357.70937	0.59500
1355.78081	0.59389
1353.85225	0.59286
1351.92368	0.59198
1349.99512	0.59134
1348.06655	0.59063
1346.13799	0.58966
1344.20942	0.58879
1342.28086	0.58839
1340.35229	0.58843
1338.42373	0.58811
1336.49517	0.58717
1334.56660	0.58631
1332.63804	0.58585
1330.70947	0.58582
1328.78091	0.58622
1326.85234	0.58691
1324.92378	0.58770
1322.99521	0.58859
1321.06665	0.58967
1319.13809	0.59075
1317.20952	0.59120
1315.28096	0.59100
1313.35239	0.59063
1311.42383	0.59010
1309.49526	0.58939
1307.56670	0.58876
1305.63813	0.58836
1303.70957	0.58798
1301.78101	0.58743
1299.85244	0.58664
1297.92388	0.58564
1295.99531	0.58442
1294.06675	0.58313
1292.13818	0.58189
1290.20962	0.58060
1288.28105	0.57924
1286.35249	0.57788
1284.42393	0.57655
1282.49536	0.57526
1280.56680	0.57383
1278.63823	0.57232
1276.70967	0.57098
1274.78110	0.56994
1272.85254	0.56913
1270.92397	0.56836
1268.99541	0.56747
1267.06685	0.56652
1265.13828	0.56565
1263.20972	0.56475
1261.28115	0.56367
1259.35259	0.56262
1257.42402	0.56180
1255.49546	0.56137
1253.56689	0.56141
1251.63833	0.56166
1249.70977	0.56188
1247.78120	0.56194
1245.85264	0.56176
1243.92407	0.56124
1241.99551	0.56036
1240.06694	0.55902
1238.13838	0.55707
1236.20981	0.55467
1234.28125	0.55217
1232.35269	0.54980
1230.42412	0.54774
1228.49556	0.54585
1226.56699	0.54381
1224.63843	0.54173
1222.70986	0.53993
1220.78130	0.53843
1218.85273	0.53713
1216.92417	0.53589
1214.99561	0.53473
1213.06704	0.53382
1211.13848	0.53312
1209.20991	0.53235
1207.28135	0.53154
1205.35278	0.53075
1203.42422	0.52989
1201.49565	0.52886
1199.56709	0.52780
1197.63853	0.52693
1195.70996	0.52630
1193.78140	0.52582
1191.85283	0.52540
1189.92427	0.52494
1187.99570	0.52453
1186.06714	0.52425
1184.13857	0.52415
1182.21001	0.52443
1180.28145	0.52520
1178.35288	0.52634
1176.42432	0.52773
1174.49575	0.52907
1172.56719	0.52982
1170.63862	0.52991
1168.71006	0.52980
1166.78149	0.52968
1164.85293	0.52950
1162.92437	0.52932
1160.99580	0.52917
1159.06724	0.52895
1157.13867	0.52849
1155.21011	0.52767
1153.28154	0.52635
1151.35298	0.52459
1149.42441	0.52249
1147.49585	0.52020
1145.56729	0.51784
1143.63872	0.51555
1141.71016	0.51348
1139.78159	0.51181
1137.85303	0.51069
1135.92446	0.50991
1133.99590	0.50910
1132.06733	0.50835
1130.13877	0.50786
1128.21021	0.50751
1126.28164	0.50704
1124.35308	0.50644
1122.42451	0.50595
1120.49595	0.50566
1118.56738	0.50554
1116.63882	0.50579
1114.71025	0.50628
1112.78169	0.50658
1110.85312	0.50677
1108.92456	0.50722
1106.99600	0.50809
1105.06743	0.50921
1103.13887	0.51049
1101.21030	0.51197
1099.28174	0.51362
1097.35317	0.51558
1095.42461	0.51836
1093.49604	0.52218
1091.56748	0.52683
1089.63892	0.53234
1087.71035	0.53886
1085.78179	0.54630
1083.85322	0.55400
1081.92466	0.56100
1079.99609	0.56641
1078.06753	0.56927
1076.13896	0.56907
1074.21040	0.56636
1072.28184	0.56174
1070.35327	0.55551
1068.42471	0.54845
1066.49614	0.54143
1064.56758	0.53492
1062.63901	0.52930
1060.71045	0.52447
1058.78188	0.52006
1056.85332	0.51583
1054.92476	0.51190
1052.99619	0.50874
1051.06763	0.50649
1049.13906	0.50462
1047.21050	0.50275
1045.28193	0.50119
1043.35337	0.50026
1041.42480	0.49986
1039.49624	0.49950
1037.56768	0.49893
1035.63911	0.49839
1033.71055	0.49789
1031.78198	0.49720
1029.85342	0.49633
1027.92485	0.49522
1025.99629	0.49398
1024.06772	0.49300
1022.13916	0.49247
1020.21060	0.49229
1018.28203	0.49238
1016.35347	0.49252
1014.42490	0.49260
1012.49634	0.49296
1010.56777	0.49367
1008.63921	0.49443
1006.71064	0.49531
1004.78208	0.49655
1002.85352	0.49819
1000.92495	0.50043
998.99639	0.50374
997.06782	0.50795
995.13926	0.51258
993.21069	0.51695
991.28213	0.52026
989.35356	0.52225
987.42500	0.52312
985.49644	0.52338
983.56787	0.52366
981.63931	0.52412
979.71074	0.52479
977.78218	0.52610
975.85361	0.52822
973.92505	0.53085
971.99648	0.53379
970.06792	0.53707
968.13936	0.54063
966.21079	0.54458
964.28223	0.54895
962.35366	0.55361
960.42510	0.55870
958.49653	0.56426
956.56797	0.57016
954.63940	0.57633
952.71084	0.58260
950.78228	0.58900
948.85371	0.59560
946.92515	0.60198
944.99658	0.60813
943.06802	0.61426
941.13945	0.62007
939.21089	0.62560
937.28232	0.63139
935.35376	0.63732
933.42520	0.64300
931.49663	0.64846
929.56807	0.65391
927.63950	0.65947
925.71094	0.66530
923.78237	0.67168
921.85381	0.67862
919.92524	0.68566
917.99668	0.69246
916.06812	0.69921
914.13955	0.70659
912.21099	0.71509
910.28242	0.72384
908.35386	0.73197
906.42529	0.74007
904.49673	0.74868
902.56816	0.75729
900.63960	0.76535
898.71104	0.77352
896.78247	0.78357
894.85391	0.79503
892.92534	0.80598
890.99678	0.81695
889.06821	0.82791
887.13965	0.83829
885.21108	0.84955
883.28252	0.86143
881.35396	0.87300
879.42539	0.88475
877.49683	0.89636
875.56826	0.90714
873.63970	0.91698
871.71113	0.92727
869.78257	0.93963
867.85400	0.95262
865.92544	0.96434
863.99687	0.97657
862.06831	0.99062
860.13975	1.00397
858.21118	1.01554
856.28262	1.02701
854.35405	1.03788
852.42549	1.04728
850.49692	1.05836
848.56836	1.07166
846.63979	1.08305
844.71123	1.09306
842.78267	1.10490
840.85410	1.11752
838.92554	1.12853
836.99697	1.13793
835.06841	1.14661
833.13984	1.15715
831.21128	1.17069
829.28271	1.18236
827.35415	1.19075
825.42559	1.19921
823.49702	1.20606
821.56846	1.21040
819.63989	1.21967
817.71133	1.23532
815.78276	1.24598
813.85420	1.24966
811.92563	1.26020
809.99707	1.28021
808.06851	1.29669
806.13994	1.30009
804.21138	1.29221
802.28281	1.28905
800.35425	1.29729
798.42568	1.30843
796.49712	1.30420
794.56855	1.27512
792.63999	1.26035
790.71143	1.28447
788.78286	1.30312
786.85430	1.27749
784.92573	1.25764
782.99717	1.26073
781.06860	1.24317
779.14004	1.21763
777.21147	1.21724
775.28291	1.23891
773.35435	1.27580
771.42578	1.30404
769.49722	1.29465
767.56865	1.25107
765.64009	1.19805
763.71152	1.18717
761.78296	1.21634
759.85439	1.19864
757.92583	1.13024
755.99727	1.09822
754.06870	1.15235
752.14014	1.23993
750.21157	1.15961
748.28301	1.00517
746.35444	0.94118
744.42588	0.95943
742.49731	1.00830
740.56875	0.97720
738.64019	0.86499
736.71162	0.78510
734.78306	0.74621
732.85449	0.71677
730.92593	0.65244
728.99736	0.50826
727.06880	0.36247
725.14023	0.39409
723.21167	0.37587
721.28311	0.03708
719.35454	-0.11619
717.42598	-0.10896
715.49741	-0.10081
713.56885	-0.12893
711.64028	-0.13679
709.71172	-0.09403
707.78315	-0.03213
705.85459	0.06048
703.92603	0.29734
701.99746	0.72270
700.06890	0.65357
698.14033	0.48414
696.21177	0.46893
694.28320	0.43525
692.35464	0.33754
690.42607	0.29933
688.49751	0.30782
686.56895	0.29030
684.64038	0.26966
682.71182	0.34470
680.78325	0.49388
678.85469	0.53322
676.92612	0.49848
674.99756	0.52735
673.06899	0.50153
671.14043	0.30662
669.21187	0.19894
667.28330	0.23173
665.35474	0.30034
663.42617	0.29542
661.49761	0.25192
659.56904	0.29759
657.64048	0.38382
655.71191	0.36450
653.78335	0.35404
651.85479	0.40469
649.92622	0.36733
647.99766	0.25010
646.06909	0.20506
644.14053	0.20821
642.21196	0.20380
640.28340	0.18481
638.35483	0.17703
636.42627	0.21351
634.49771	0.30169
632.56914	0.35342
630.64058	0.33783
628.71201	0.32617
626.78345	0.29818
624.85488	0.26419
622.92632	0.26885
620.99775	0.32504
619.06919	0.43820
617.14062	0.47115
615.21206	0.30668
613.28350	0.19232
611.35493	0.21431
609.42637	0.29803
607.49780	0.35168
605.56924	0.43642
603.64067	0.52547
601.71211	0.46578
599.78354	0.31221
597.85498	0.20780
595.92642	0.23353
593.99785	0.29938
592.06929	0.26418
590.14072	0.20039
588.21216	0.20697
586.28359	0.22587
584.35503	0.18694
582.42646	0.16334
580.49790	0.17869
578.56934	0.21454
576.64077	0.25626
574.71221	0.26489
572.78364	0.21156
570.85508	0.16589
568.92651	0.17714
566.99795	0.26151
565.06938	0.39381
563.14082	0.42227
561.21226	0.37717
559.28369	0.38912
557.35513	0.36110
555.42656	0.32661
553.49800	0.38715
551.56943	0.43445
549.64087	0.31129
547.71230	0.18161
545.78374	0.12650
543.85518	0.12879
541.92661	0.14317
539.99805	0.14898
538.06948	0.17007
536.14092	0.19814
534.21235	0.19866
532.28379	0.19737
530.35522	0.21999
528.42666	0.25433
526.49810	0.28031
524.56953	0.31523
522.64097	0.32639
520.71240	0.28854
518.78384	0.31097
516.85527	0.33836
514.92671	0.25358
512.99814	0.18397
511.06958	0.16409
509.14102	0.15812
507.21245	0.19816
505.28389	0.27901
503.35532	0.31353
501.42676	0.30210
499.49819	0.27448
