3997.91411	0.06875
3995.98555	0.06942
3994.05698	0.07016
3992.12842	0.07053
3990.19985	0.07073
3988.27129	0.07100
3986.34272	0.07119
3984.41416	0.07144
3982.48560	0.07185
3980.55703	0.07229
3978.62847	0.07266
3976.69990	0.07265
3974.77134	0.07226
3972.84277	0.07211
3970.91421	0.07233
3968.98564	0.07252
3967.05708	0.07274
3965.12852	0.07293
3963.19995	0.07291
3961.27139	0.07292
3959.34282	0.07324
3957.41426	0.07373
3955.48569	0.07403
3953.55713	0.07401
3951.62856	0.07380
3949.70000	0.07371
3947.77144	0.07399
3945.84287	0.07427
3943.91431	0.07424
3941.98574	0.07428
3940.05718	0.07427
3938.12861	0.07416
3936.20005	0.07425
3934.27148	0.07433
3932.34292	0.07413
3930.41436	0.07380
3928.48579	0.07350
3926.55723	0.07321
3924.62866	0.07314
3922.70010	0.07333
3920.77153	0.07352
3918.84297	0.07370
3916.91440	0.07384
3914.98584	0.07376
3913.05728	0.07359
3911.12871	0.07345
3909.20015	0.07313
3907.27158	0.07280
3905.34302	0.07267
3903.41445	0.07283
3901.48589	0.07326
3899.55732	0.07360
3897.62876	0.07363
3895.70020	0.07321
3893.77163	0.07275
3891.84307	0.07270
3889.91450	0.07267
3887.98594	0.07262
3886.05737	0.07340
3884.12881	0.07424
3882.20024	0.07395
3880.27168	0.07357
3878.34312	0.07363
3876.41455	0.07399
3874.48599	0.07463
3872.55742	0.07512
3870.62886	0.07537
3868.70029	0.07565
3866.77173	0.07585
3864.84316	0.07646
3862.91460	0.07719
3860.98604	0.07693
3859.05747	0.07627
3857.12891	0.07619
3855.20034	0.07685
3853.27178	0.07867
3851.34321	0.08044
3849.41465	0.07991
3847.48608	0.07888
3845.55752	0.07852
3843.62896	0.07903
3841.70039	0.08029
3839.77183	0.08165
3837.84326	0.08274
3835.91470	0.08320
3833.98613	0.08316
3832.05757	0.08362
3830.12900	0.08473
3828.20044	0.08558
3826.27187	0.08615
3824.34331	0.08667
3822.41475	0.08720
3820.48618	0.08825
3818.55762	0.08919
3816.62905	0.08991
3814.70049	0.09108
3812.77192	0.09185
3810.84336	0.09233
3808.91479	0.09320
3806.98623	0.09439
3805.05767	0.09546
3803.12910	0.09665
3801.20054	0.09876
3799.27197	0.10052
3797.34341	0.10100
3795.41484	0.10145
3793.48628	0.10185
3791.55771	0.10258
3789.62915	0.10386
3787.70059	0.10506
3785.77202	0.10628
3783.84346	0.10792
3781.91489	0.10978
3779.98633	0.11155
3778.05776	0.11321
3776.12920	0.11462
3774.20063	0.11594
3772.27207	0.11749
3770.34351	0.11932
3768.41494	0.12144
3766.48638	0.12363
3764.55781	0.12564
3762.62925	0.12728
3760.70068	0.12923
3758.77212	0.13216
3756.84355	0.13491
3754.91499	0.13664
3752.98643	0.13861
3751.05786	0.14175
3749.12930	0.14516
3747.20073	0.14715
3745.27217	0.14907
3743.34360	0.15273
3741.41504	0.15635
3739.48647	0.15853
3737.55791	0.16072
3735.62935	0.16441
3733.70078	0.16958
3731.77222	0.17429
3729.84365	0.17845
3727.91509	0.18255
3725.98652	0.18737
3724.05796	0.19366
3722.12939	0.20099
3720.20083	0.20870
3718.27227	0.21656
3716.34370	0.22467
3714.41514	0.23277
3712.48657	0.24187
3710.55801	0.25383
3708.62944	0.26694
3706.70088	0.27856
3704.77231	0.28975
3702.84375	0.30266
3700.91519	0.31930
3698.98662	0.33746
3697.05806	0.35469
3695.12949	0.37295
3693.20093	0.39258
3691.27236	0.41404
3689.34380	0.44161
3687.41523	0.47552
3685.48667	0.50574
3683.55811	0.53212
3681.62954	0.56048
3679.70098	0.59212
3677.77241	0.62492
3675.84385	0.66349
3673.91528	0.71509
3671.98672	0.75793
3670.05815	0.79651
3668.12959	0.84952
3666.20103	0.89860
3664.27246	0.93907
3662.34390	0.98143
3660.41533	1.02739
3658.48677	1.07388
3656.55820	1.12328
3654.62964	1.17649
3652.70107	1.22122
3650.77251	1.26135
3648.84395	1.31587
3646.91538	1.38106
3644.98682	1.43026
3643.05825	1.46973
3641.12969	1.51036
3639.20112	1.55415
3637.27256	1.59744
3635.34399	1.63940
3633.41543	1.68178
3631.48687	1.72250
3629.55830	1.76404
3627.62974	1.81597
3625.70117	1.86387
3623.77261	1.89768
3621.84404	1.93086
3619.91548	1.96871
3617.98691	2.01337
3616.05835	2.05627
3614.12979	2.09391
3612.20122	2.13403
3610.27266	2.17268
3608.34409	2.21041
3606.41553	2.25192
3604.48696	2.29138
3602.55840	2.32630
3600.62983	2.36445
3598.70127	2.40662
3596.77271	2.44746
3594.84414	2.48765
3592.91558	2.52880
3590.98701	2.56831
3589.05845	2.60424
3587.12988	2.64539
3585.20132	2.69328
3583.27275	2.73643
3581.34419	2.77494
3579.41562	2.81446
3577.48706	2.85631
3575.55850	2.90043
3573.62993	2.94659
3571.70137	2.98940
3569.77280	3.02807
3567.84424	3.06905
3565.91567	3.11947
3563.98711	3.16886
3562.05854	3.21009
3560.12998	3.25199
3558.20142	3.29716
3556.27285	3.34238
3554.34429	3.38387
3552.41572	3.42579
3550.48716	3.47277
3548.55859	3.52078
3546.63003	3.56667
3544.70146	3.61555
3542.77290	3.66741
3540.84434	3.71498
3538.91577	3.75797
3536.98721	3.80205
3535.05864	3.85193
3533.13008	3.90394
3531.20151	3.95513
3529.27295	4.00370
3527.34438	4.04855
3525.41582	4.09332
3523.48726	4.14119
3521.55869	4.19135
3519.63013	4.24041
3517.70156	4.28770
3515.77300	4.33306
3513.84443	4.38012
3511.91587	4.43207
3509.98730	4.48462
3508.05874	4.53351
3506.13018	4.57827
3504.20161	4.62028
3502.27305	4.66733
3500.34448	4.72334
3498.41592	4.77509
3496.48735	4.81581
3494.55879	4.85850
3492.63022	4.91516
3490.70166	4.97546
3488.77310	5.02663
3486.84453	5.07297
3484.91597	5.11930
3482.98740	5.16425
3481.05884	5.21180
3479.13027	5.26397
3477.20171	5.31174
3475.27314	5.35663
3473.34458	5.40947
3471.41602	5.46758
3469.48745	5.52588
3467.55889	5.57950
3465.63032	5.62377
3463.70176	5.67063
3461.77319	5.72798
3459.84463	5.78857
3457.91606	5.83835
3455.98750	5.87284
3454.05894	5.90657
3452.13037	5.95720
3450.20181	6.01959
3448.27324	6.06903
3446.34468	6.10477
3444.41611	6.14073
3442.48755	6.18638
3440.55898	6.25114
3438.63042	6.32606
3436.70186	6.38495
3434.77329	6.42570
3432.84473	6.45830
3430.91616	6.48874
3428.98760	6.53217
3427.05903	6.57915
3425.13047	6.61917
3423.20190	6.66463
3421.27334	6.73493
3419.34478	6.81752
3417.41621	6.88240
3415.48765	6.93425
3413.55908	6.98299
3411.63052	7.02951
3409.70195	7.06864
3407.77339	7.09544
3405.84482	7.10996
3403.91626	7.14622
3401.98770	7.20662
3400.05913	7.27112
3398.13057	7.34004
3396.20200	7.39881
3394.27344	7.45622
3392.34487	7.50535
3390.41631	7.53970
3388.48774	7.57652
3386.55918	7.61478
3384.63062	7.60705
3382.70205	7.57302
3380.77349	7.59195
3378.84492	7.66011
3376.91636	7.74177
3374.98779	7.79973
3373.05923	7.82332
3371.13066	7.82668
3369.20210	7.82769
3367.27354	7.81022
3365.34497	7.79628
3363.41641	7.83019
3361.48784	7.87900
3359.55928	7.93081
3357.63071	7.98236
3355.70215	8.01215
3353.77358	8.00971
3351.84502	7.98851
3349.91646	7.97734
3347.98789	8.03452
3346.05933	8.16168
3344.13076	8.23554
3342.20220	8.17844
3340.27363	8.05924
3338.34507	7.99279
3336.41650	8.04803
3334.48794	8.19415
3332.55937	8.28996
3330.63081	8.27804
3328.70225	8.19741
3326.77368	8.17741
3324.84512	8.28563
3322.91655	8.33871
3320.98799	8.27147
3319.05942	8.21020
3317.13086	8.22764
3315.20229	8.30639
3313.27373	8.33843
3311.34517	8.23511
3309.41660	8.10152
3307.48804	8.10548
3305.55947	8.27104
3303.63091	8.42257
3301.70234	8.35581
3299.77378	8.21101
3297.84521	8.16999
3295.91665	8.22367
3293.98809	8.25884
3292.05952	8.26443
3290.13096	8.31723
3288.20239	8.35101
3286.27383	8.28251
3284.34526	8.18291
3282.41670	8.16010
3280.48813	8.19742
3278.55957	8.22406
3276.63101	8.17143
3274.70244	8.13681
3272.77388	8.25368
3270.84531	8.37415
3268.91675	8.39363
3266.98818	8.38254
3265.05962	8.35848
3263.13105	8.40722
3261.20249	8.53200
3259.27393	8.56136
3257.34536	8.49183
3255.41680	8.44032
3253.48823	8.43875
3251.55967	8.46824
3249.63110	8.44224
3247.70254	8.36788
3245.77397	8.34940
3243.84541	8.38382
3241.91685	8.41061
3239.98828	8.41621
3238.05972	8.39809
3236.13115	8.38769
3234.20259	8.43776
3232.27402	8.52289
3230.34546	8.53204
3228.41689	8.38651
3226.48833	8.19632
3224.55977	8.14233
3222.63120	8.19722
3220.70264	8.18686
3218.77407	8.12706
3216.84551	8.10416
3214.91694	8.10468
3212.98838	8.09104
3211.05981	8.06262
3209.13125	8.07319
3207.20269	8.10964
3205.27412	8.06264
3203.34556	7.92206
3201.41699	7.82034
3199.48843	7.82851
3197.55986	7.90150
3195.63130	7.90566
3193.70273	7.81655
3191.77417	7.77408
3189.84561	7.77485
3187.91704	7.71106
3185.98848	7.60936
3184.05991	7.55083
3182.13135	7.52050
3180.20278	7.47994
3178.27422	7.44813
3176.34565	7.41164
3174.41709	7.31969
3172.48853	7.19974
3170.55996	7.09657
3168.63140	7.01084
3166.70283	6.95490
3164.77427	6.92809
3162.84570	6.88479
3160.91714	6.80150
3158.98857	6.71399
3157.06001	6.65137
3155.13145	6.60028
3153.20288	6.53610
3151.27432	6.46023
3149.34575	6.39149
3147.41719	6.33155
3145.48862	6.26891
3143.56006	6.19132
3141.63149	6.10313
3139.70293	6.02616
3137.77437	5.96687
3135.84580	5.90746
3133.91724	5.83542
3131.98867	5.76382
3130.06011	5.70208
3128.13154	5.64085
3126.20298	5.56927
3124.27441	5.48678
3122.34585	5.40961
3120.41729	5.34318
3118.48872	5.26943
3116.56016	5.18449
3114.63159	5.10573
3112.70303	5.04041
3110.77446	4.97613
3108.84590	4.90680
3106.91733	4.83787
3104.98877	4.76725
3103.06021	4.69337
3101.13164	4.62144
3099.20308	4.55379
3097.27451	4.48760
3095.34595	4.42067
3093.41738	4.35369
3091.48882	4.28821
3089.56025	4.22307
3087.63169	4.15477
3085.70312	4.08539
3083.77456	4.01984
3081.84600	3.95752
3079.91743	3.89606
3077.98887	3.83393
3076.06030	3.76971
3074.13174	3.70696
3072.20317	3.64816
3070.27461	3.58940
3068.34604	3.52917
3066.41748	3.46963
3064.48892	3.41250
3062.56035	3.35760
3060.63179	3.30243
3058.70322	3.24511
3056.77466	3.18714
3054.84609	3.13139
3052.91753	3.07879
3050.98896	3.02838
3049.06040	2.97816
3047.13184	2.92703
3045.20327	2.87640
3043.27471	2.82762
3041.34614	2.77964
3039.41758	2.73126
3037.48901	2.68319
3035.56045	2.63693
3033.63188	2.59182
3031.70332	2.54570
3029.77476	2.49922
3027.84619	2.45456
3025.91763	2.41187
3023.98906	2.36970
3022.06050	2.32733
3020.13193	2.28512
3018.20337	2.24350
3016.27480	2.20285
3014.34624	2.16369
3012.41768	2.12595
3010.48911	2.08865
3008.56055	2.05141
3006.63198	2.01468
3004.70342	1.97859
3002.77485	1.94301
3000.84629	1.90772
2998.91772	1.87289
2996.98916	1.83895
2995.06060	1.80558
2993.13203	1.77256
2991.20347	1.74021
2989.27490	1.70855
2987.34634	1.67744
2985.41777	1.64660
2983.48921	1.61618
2981.56064	1.58686
2979.63208	1.55825
2977.70352	1.52949
2975.77495	1.50088
2973.84639	1.47284
2971.91782	1.44535
2969.98926	1.41840
2968.06069	1.39188
2966.13213	1.36570
2964.20356	1.34009
2962.27500	1.31523
2960.34644	1.29063
2958.41787	1.26611
2956.48931	1.24246
2954.56074	1.21990
2952.63218	1.19779
2950.70361	1.17582
2948.77505	1.15430
2946.84648	1.13317
2944.91792	1.11186
2942.98936	1.09060
2941.06079	1.06999
2939.13223	1.05011
2937.20366	1.03086
2935.27510	1.01194
2933.34653	0.99323
2931.41797	0.97483
2929.48940	0.95656
2927.56084	0.93847
2925.63228	0.92102
2923.70371	0.90444
2921.77515	0.88847
2919.84658	0.87280
2917.91802	0.85734
2915.98945	0.84177
2914.06089	0.82607
2912.13232	0.81098
2910.20376	0.79696
2908.27520	0.78352
2906.34663	0.76993
2904.41807	0.75622
2902.48950	0.74286
2900.56094	0.72990
2898.63237	0.71740
2896.70381	0.70539
2894.77524	0.69354
2892.84668	0.68166
2890.91812	0.66988
2888.98955	0.65821
2887.06099	0.64658
2885.13242	0.63550
2883.20386	0.62519
2881.27529	0.61487
2879.34673	0.60414
2877.41816	0.59364
2875.48960	0.58361
2873.56104	0.57363
2871.63247	0.56347
2869.70391	0.55340
2867.77534	0.54379
2865.84678	0.53458
2863.91821	0.52546
2861.98965	0.51624
2860.06108	0.50701
2858.13252	0.49797
2856.20396	0.48938
2854.27539	0.48131
2852.34683	0.47347
2850.41826	0.46561
2848.48970	0.45771
2846.56113	0.44999
2844.63257	0.44281
2842.70400	0.43626
2840.77544	0.43028
2838.84687	0.42455
2836.91831	0.41856
2834.98975	0.41252
2833.06118	0.40682
2831.13262	0.40115
2829.20405	0.39525
2827.27549	0.38930
2825.34692	0.38345
2823.41836	0.37771
2821.48979	0.37201
2819.56123	0.36633
2817.63267	0.36072
2815.70410	0.35522
2813.77554	0.34991
2811.84697	0.34492
2809.91841	0.34000
2807.98984	0.33495
2806.06128	0.33007
2804.13271	0.32538
2802.20415	0.32060
2800.27559	0.31587
2798.34702	0.31140
2796.41846	0.30701
2794.48989	0.30258
2792.56133	0.29826
2790.63276	0.29416
2788.70420	0.29012
2786.77563	0.28604
2784.84707	0.28217
2782.91851	0.27861
2780.98994	0.27513
2779.06138	0.27143
2777.13281	0.26760
2775.20425	0.26393
2773.27568	0.26043
2771.34712	0.25697
2769.41855	0.25359
2767.48999	0.25047
2765.56143	0.24754
2763.63286	0.24457
2761.70430	0.24154
2759.77573	0.23846
2757.84717	0.23534
2755.91860	0.23246
2753.99004	0.22989
2752.06147	0.22725
2750.13291	0.22443
2748.20435	0.22164
2746.27578	0.21914
2744.34722	0.21694
2742.41865	0.21480
2740.49009	0.21243
2738.56152	0.20979
2736.63296	0.20726
2734.70439	0.20515
2732.77583	0.20318
2730.84727	0.20115
2728.91870	0.19922
2726.99014	0.19743
2725.06157	0.19556
2723.13301	0.19355
2721.20444	0.19156
2719.27588	0.18957
2717.34731	0.18763
2715.41875	0.18592
2713.49019	0.18444
2711.56162	0.18295
2709.63306	0.18132
2707.70449	0.17969
2705.77593	0.17809
2703.84736	0.17648
2701.91880	0.17487
2699.99023	0.17334
2698.06167	0.17203
2696.13311	0.17086
2694.20454	0.16958
2692.27598	0.16826
2690.34741	0.16704
2688.41885	0.16589
2686.49028	0.16474
2684.56172	0.16352
2682.63315	0.16229
2680.70459	0.16115
2678.77603	0.16010
2676.84746	0.15913
2674.91890	0.15825
2672.99033	0.15738
2671.06177	0.15638
2669.13320	0.15532
2667.20464	0.15436
2665.27607	0.15362
2663.34751	0.15299
2661.41895	0.15220
2659.49038	0.15132
2657.56182	0.15059
2655.63325	0.15004
2653.70469	0.14952
2651.77612	0.14887
2649.84756	0.14817
2647.91899	0.14755
2645.99043	0.14692
2644.06187	0.14624
2642.13330	0.14567
2640.20474	0.14539
2638.27617	0.14522
2636.34761	0.14487
2634.41904	0.14442
2632.49048	0.14401
2630.56191	0.14368
2628.63335	0.14336
2626.70479	0.14304
2624.77622	0.14289
2622.84766	0.14281
2620.91909	0.14260
2618.99053	0.14249
2617.06196	0.14252
2615.13340	0.14249
2613.20483	0.14241
2611.27627	0.14235
2609.34771	0.14222
2607.41914	0.14203
2605.49058	0.14192
2603.56201	0.14195
2601.63345	0.14211
2599.70488	0.14234
2597.77632	0.14250
2595.84775	0.14258
2593.91919	0.14269
2591.99062	0.14283
2590.06206	0.14300
2588.13350	0.14327
2586.20493	0.14366
2584.27637	0.14405
2582.34780	0.14438
2580.41924	0.14459
2578.49067	0.14473
2576.56211	0.14500
2574.63354	0.14543
2572.70498	0.14589
2570.77642	0.14637
2568.84785	0.14685
2566.91929	0.14732
2564.99072	0.14774
2563.06216	0.14814
2561.13359	0.14864
2559.20503	0.14927
2557.27646	0.14987
2555.34790	0.15034
2553.41934	0.15089
2551.49077	0.15162
2549.56221	0.15228
2547.63364	0.15289
2545.70508	0.15364
2543.77651	0.15425
2541.84795	0.15465
2539.91938	0.15516
2537.99082	0.15593
2536.06226	0.15677
2534.13369	0.15754
2532.20513	0.15829
2530.27656	0.15910
2528.34800	0.15984
2526.41943	0.16045
2524.49087	0.16118
2522.56230	0.16203
2520.63374	0.16288
2518.70518	0.16375
2516.77661	0.16457
2514.84805	0.16534
2512.91948	0.16616
2510.99092	0.16702
2509.06235	0.16781
2507.13379	0.16857
2505.20522	0.16938
2503.27666	0.17023
2501.34810	0.17108
2499.41953	0.17196
2497.49097	0.17295
2495.56240	0.17398
2493.63384	0.17499
2491.70527	0.17590
2489.77671	0.17665
2487.84814	0.17738
2485.91958	0.17830
2483.99102	0.17930
2482.06245	0.18021
2480.13389	0.18113
2478.20532	0.18218
2476.27676	0.18322
2474.34819	0.18417
2472.41963	0.18518
2470.49106	0.18628
2468.56250	0.18737
2466.63394	0.18831
2464.70537	0.18917
2462.77681	0.19008
2460.84824	0.19099
2458.91968	0.19183
2456.99111	0.19273
2455.06255	0.19385
2453.13398	0.19496
2451.20542	0.19601
2449.27686	0.19711
2447.34829	0.19817
2445.41973	0.19916
2443.49116	0.20021
2441.56260	0.20130
2439.63403	0.20229
2437.70547	0.20324
2435.77690	0.20430
2433.84834	0.20542
2431.91978	0.20656
2429.99121	0.20763
2428.06265	0.20862
2426.13408	0.20969
2424.20552	0.21078
2422.27695	0.21188
2420.34839	0.21299
2418.41982	0.21415
2416.49126	0.21543
2414.56270	0.21678
2412.63413	0.21794
2410.70557	0.21890
2408.77700	0.21990
2406.84844	0.22102
2404.91987	0.22228
2402.99131	0.22369
2401.06274	0.22515
2399.13418	0.22642
2397.20562	0.22755
2395.27705	0.22881
2393.34849	0.23006
2391.41992	0.23115
2389.49136	0.23221
2387.56279	0.23321
2385.63423	0.23378
2383.70566	0.23379
2381.77710	0.23344
2379.84854	0.23272
2377.91997	0.23142
2375.99141	0.22961
2374.06284	0.22738
2372.13428	0.22439
2370.20571	0.22080
2368.27715	0.21734
2366.34858	0.21464
2364.42002	0.21304
2362.49146	0.21272
2360.56289	0.21350
2358.63433	0.21478
2356.70576	0.21784
2354.77720	0.22373
2352.84863	0.23068
2350.92007	0.23707
2348.99150	0.24115
2347.06294	0.24206
2345.13437	0.24061
2343.20581	0.23898
2341.27725	0.23874
2339.34868	0.23955
2337.42012	0.24118
2335.49155	0.24382
2333.56299	0.24695
2331.63442	0.24944
2329.70586	0.25156
2327.77729	0.25463
2325.84873	0.25847
2323.92017	0.26216
2321.99160	0.26577
2320.06304	0.26974
2318.13447	0.27379
2316.20591	0.27725
2314.27734	0.27997
2312.34878	0.28246
2310.42021	0.28533
2308.49165	0.28852
2306.56309	0.29159
2304.63452	0.29438
2302.70596	0.29692
2300.77739	0.29936
2298.84883	0.30186
2296.92026	0.30439
2294.99170	0.30685
2293.06313	0.30929
2291.13457	0.31180
2289.20601	0.31434
2287.27744	0.31678
2285.34888	0.31918
2283.42031	0.32148
2281.49175	0.32350
2279.56318	0.32536
2277.63462	0.32721
2275.70605	0.32900
2273.77749	0.33085
2271.84893	0.33294
2269.92036	0.33520
2267.99180	0.33748
2266.06323	0.33970
2264.13467	0.34187
2262.20610	0.34410
2260.27754	0.34643
2258.34897	0.34874
2256.42041	0.35094
2254.49185	0.35311
2252.56328	0.35531
2250.63472	0.35747
2248.70615	0.35967
2246.77759	0.36206
2244.84902	0.36450
2242.92046	0.36673
2240.99189	0.36872
2239.06333	0.37068
2237.13477	0.37294
2235.20620	0.37544
2233.27764	0.37792
2231.34907	0.38029
2229.42051	0.38257
2227.49194	0.38475
2225.56338	0.38684
2223.63481	0.38895
2221.70625	0.39119
2219.77769	0.39350
2217.84912	0.39567
2215.92056	0.39785
2213.99199	0.40018
2212.06343	0.40249
2210.13486	0.40462
2208.20630	0.40671
2206.27773	0.40881
2204.34917	0.41082
2202.42061	0.41282
2200.49204	0.41500
2198.56348	0.41725
2196.63491	0.41934
2194.70635	0.42131
2192.77778	0.42318
2190.84922	0.42498
2188.92065	0.42676
2186.99209	0.42853
2185.06353	0.43032
2183.13496	0.43201
2181.20640	0.43363
2179.27783	0.43537
2177.34927	0.43705
2175.42070	0.43853
2173.49214	0.43994
2171.56357	0.44128
2169.63501	0.44256
2167.70645	0.44377
2165.77788	0.44491
2163.84932	0.44606
2161.92075	0.44732
2159.99219	0.44862
2158.06362	0.44977
2156.13506	0.45075
2154.20649	0.45168
2152.27793	0.45254
2150.34937	0.45321
2148.42080	0.45378
2146.49224	0.45440
2144.56367	0.45495
2142.63511	0.45526
2140.70654	0.45547
2138.77798	0.45567
2136.84941	0.45578
2134.92085	0.45599
2132.99229	0.45627
2131.06372	0.45624
2129.13516	0.45592
2127.20659	0.45562
2125.27803	0.45541
2123.34946	0.45502
2121.42090	0.45433
2119.49233	0.45359
2117.56377	0.45303
2115.63521	0.45249
2113.70664	0.45173
2111.77808	0.45076
2109.84951	0.44972
2107.92095	0.44864
2105.99238	0.44759
2104.06382	0.44655
2102.13525	0.44533
2100.20669	0.44389
2098.27812	0.44232
2096.34956	0.44078
2094.42100	0.43929
2092.49243	0.43777
2090.56387	0.43610
2088.63530	0.43424
2086.70674	0.43243
2084.77817	0.43087
2082.84961	0.42926
2080.92104	0.42725
2078.99248	0.42506
2077.06392	0.42288
2075.13535	0.42062
2073.20679	0.41833
2071.27822	0.41607
2069.34966	0.41377
2067.42109	0.41149
2065.49253	0.40926
2063.56396	0.40687
2061.63540	0.40440
2059.70684	0.40201
2057.77827	0.39954
2055.84971	0.39698
2053.92114	0.39447
2051.99258	0.39199
2050.06401	0.38938
2048.13545	0.38671
2046.20688	0.38402
2044.27832	0.38128
2042.34976	0.37852
2040.42119	0.37590
2038.49263	0.37331
2036.56406	0.37055
2034.63550	0.36769
2032.70693	0.36484
2030.77837	0.36201
2028.84980	0.35928
2026.92124	0.35663
2024.99268	0.35390
2023.06411	0.35105
2021.13555	0.34815
2019.20698	0.34530
2017.27842	0.34261
2015.34985	0.33998
2013.42129	0.33724
2011.49272	0.33439
2009.56416	0.33166
2007.63560	0.32903
2005.70703	0.32626
2003.77847	0.32339
2001.84990	0.32067
1999.92134	0.31810
1997.99277	0.31560
1996.06421	0.31313
1994.13564	0.31066
1992.20708	0.30818
1990.27852	0.30564
1988.34995	0.30307
1986.42139	0.30063
1984.49282	0.29833
1982.56426	0.29598
1980.63569	0.29350
1978.70713	0.29112
1976.77856	0.28896
1974.85000	0.28690
1972.92144	0.28474
1970.99287	0.28256
1969.06431	0.28050
1967.13574	0.27852
1965.20718	0.27647
1963.27861	0.27441
1961.35005	0.27247
1959.42148	0.27065
1957.49292	0.26889
1955.56436	0.26705
1953.63579	0.26514
1951.70723	0.26336
1949.77866	0.26174
1947.85010	0.26016
1945.92153	0.25865
1943.99297	0.25717
1942.06440	0.25569
1940.13584	0.25424
1938.20728	0.25290
1936.27871	0.25165
1934.35015	0.25034
1932.42158	0.24904
1930.49302	0.24784
1928.56445	0.24674
1926.63589	0.24571
1924.70732	0.24469
1922.77876	0.24363
1920.85020	0.24263
1918.92163	0.24176
1916.99307	0.24090
1915.06450	0.24001
1913.13594	0.23926
1911.20737	0.23866
1909.27881	0.23806
1907.35024	0.23738
1905.42168	0.23668
1903.49312	0.23601
1901.56455	0.23538
1899.63599	0.23485
1897.70742	0.23446
1895.77886	0.23411
1893.85029	0.23371
1891.92173	0.23327
1889.99316	0.23298
1888.06460	0.23280
1886.13604	0.23260
1884.20747	0.23237
1882.27891	0.23218
1880.35034	0.23212
1878.42178	0.23212
1876.49321	0.23211
1874.56465	0.23212
1872.63608	0.23219
1870.70752	0.23229
1868.77896	0.23271
1866.85039	0.23316
1864.92183	0.23323
1862.99326	0.23329
1861.06470	0.23350
1859.13613	0.23385
1857.20757	0.23421
1855.27900	0.23464
1853.35044	0.23508
1851.42187	0.23551
1849.49331	0.23603
1847.56475	0.23679
1845.63618	0.23775
1843.70762	0.23872
1841.77905	0.23944
1839.85049	0.23990
1837.92192	0.24062
1835.99336	0.24158
1834.06479	0.24262
1832.13623	0.24364
1830.20767	0.24492
1828.27910	0.24624
1826.35054	0.24728
1824.42197	0.24863
1822.49341	0.25005
1820.56484	0.25132
1818.63628	0.25263
1816.70771	0.25424
1814.77915	0.25596
1812.85059	0.25776
1810.92202	0.25975
1808.99346	0.26176
1807.06489	0.26374
1805.13633	0.26569
1803.20776	0.26787
1801.27920	0.27032
1799.35063	0.27312
1797.42207	0.27570
1795.49351	0.27811
1793.56494	0.28091
1791.63638	0.28456
1789.70781	0.28811
1787.77925	0.29083
1785.85068	0.29397
1783.92212	0.29762
1781.99355	0.30152
1780.06499	0.30571
1778.13643	0.31001
1776.20786	0.31398
1774.27930	0.31826
1772.35073	0.32422
1770.42217	0.33070
1768.49360	0.33614
1766.56504	0.34138
1764.63647	0.34673
1762.70791	0.35250
1760.77935	0.35974
1758.85078	0.36664
1756.92222	0.37374
1754.99365	0.38177
1753.06509	0.38918
1751.13652	0.39753
1749.20796	0.40778
1747.27939	0.41830
1745.35083	0.42781
1743.42227	0.43752
1741.49370	0.44801
1739.56514	0.46049
1737.63657	0.47330
1735.70801	0.48459
1733.77944	0.50083
1731.85088	0.52009
1729.92231	0.53581
1727.99375	0.55193
1726.06519	0.56919
1724.13662	0.58773
1722.20806	0.60756
1720.27949	0.62596
1718.35093	0.64740
1716.42236	0.67877
1714.49380	0.70910
1712.56523	0.73418
1710.63667	0.75846
1708.70811	0.78420
1706.77954	0.81314
1704.85098	0.84748
1702.92241	0.87824
1700.99385	0.90845
1699.06528	0.95246
1697.13672	0.99299
1695.20815	1.03470
1693.27959	1.07542
1691.35103	1.10789
1689.42246	1.14447
1687.49390	1.18268
1685.56533	1.21963
1683.63677	1.27556
1681.70820	1.33333
1679.77964	1.37088
1677.85107	1.40642
1675.92251	1.44723
1673.99395	1.49706
1672.06538	1.54109
1670.13682	1.58404
1668.20825	1.63860
1666.27969	1.68219
1664.35112	1.71794
1662.42256	1.76125
1660.49399	1.80934
1658.56543	1.84709
1656.63687	1.87815
1654.70830	1.90862
1652.77974	1.96045
1650.85117	2.01199
1648.92261	2.03379
1646.99404	2.06178
1645.06548	2.09411
1643.13691	2.11557
1641.20835	2.12907
1639.27979	2.14091
1637.35122	2.14921
1635.42266	2.15262
1633.49409	2.14919
1631.56553	2.13969
1629.63696	2.12743
1627.70840	2.10559
1625.77983	2.07885
1623.85127	2.04490
1621.92271	2.00219
1619.99414	1.96286
1618.06558	1.92398
1616.13701	1.86802
1614.20845	1.80945
1612.27988	1.76394
1610.35132	1.71643
1608.42275	1.66539
1606.49419	1.61547
1604.56562	1.56880
1602.63706	1.52288
1600.70850	1.47765
1598.77993	1.43585
1596.85137	1.39634
1594.92280	1.35767
1592.99424	1.31974
1591.06567	1.28436
1589.13711	1.25080
1587.20854	1.21883
1585.27998	1.18842
1583.35142	1.15946
1581.42285	1.13255
1579.49429	1.10886
1577.56572	1.08679
1575.63716	1.05997
1573.70859	1.03593
1571.78003	1.01935
1569.85146	1.00119
1567.92290	0.98033
1565.99434	0.96342
1564.06577	0.94885
1562.13721	0.93645
1560.20864	0.92549
1558.28008	0.90661
1556.35151	0.88890
1554.42295	0.87791
1552.49438	0.86737
1550.56582	0.85691
1548.63726	0.84611
1546.70869	0.83649
1544.78013	0.82794
1542.85156	0.81949
1540.92300	0.81004
1538.99443	0.79804
1537.06587	0.78940
1535.13730	0.78329
1533.20874	0.77567
1531.28018	0.76768
1529.35161	0.76176
1527.42305	0.75611
1525.49448	0.75017
1523.56592	0.74466
1521.63735	0.73875
1519.70879	0.73226
1517.78022	0.72684
1515.85166	0.72159
1513.92310	0.71656
1511.99453	0.71234
1510.06597	0.70850
1508.13740	0.70480
1506.20884	0.69961
1504.28027	0.69459
1502.35171	0.69117
1500.42314	0.68820
1498.49458	0.68530
1496.56602	0.68217
1494.63745	0.67899
1492.70889	0.67622
1490.78032	0.67386
1488.85176	0.67134
1486.92319	0.66857
1484.99463	0.66598
1483.06606	0.66374
1481.13750	0.66152
1479.20894	0.65928
1477.28037	0.65730
1475.35181	0.65553
1473.42324	0.65365
1471.49468	0.65098
1469.56611	0.64809
1467.63755	0.64562
1465.70898	0.64332
1463.78042	0.64099
1461.85186	0.63894
1459.92329	0.63735
1457.99473	0.63553
1456.06616	0.63247
1454.13760	0.62946
1452.20903	0.62728
1450.28047	0.62530
1448.35190	0.62319
1446.42334	0.62081
1444.49478	0.61862
1442.56621	0.61688
1440.63765	0.61534
1438.70908	0.61378
1436.78052	0.61204
1434.85195	0.61022
1432.92339	0.60849
1430.99482	0.60693
1429.06626	0.60551
1427.13770	0.60418
1425.20913	0.60279
1423.28057	0.60116
1421.35200	0.59951
1419.42344	0.59801
1417.49487	0.59643
1415.56631	0.59473
1413.63774	0.59318
1411.70918	0.59164
1409.78062	0.59000
1407.85205	0.58843
1405.92349	0.58690
1403.99492	0.58526
1402.06636	0.58372
1400.13779	0.58238
1398.20923	0.58119
1396.28066	0.58005
1394.35210	0.57860
1392.42354	0.57698
1390.49497	0.57568
1388.56641	0.57469
1386.63784	0.57382
1384.70928	0.57287
1382.78071	0.57181
1380.85215	0.57061
1378.92358	0.56944
1376.99502	0.56858
1375.06646	0.56793
1373.13789	0.56709
1371.20933	0.56618
1369.28076	0.56548
1367.35220	0.56478
1365.42363	0.56394
1363.49507	0.56303
1361.56650	0.56197
1359.63794	0.56086
1357.70937	0.55988
1355.78081	0.55888
1353.85225	0.55783
1351.92368	0.55693
1349.99512	0.55613
1348.06655	0.55514
1346.13799	0.55405
1344.20942	0.55306
1342.28086	0.55217
1340.35229	0.55125
1338.42373	0.55017
1336.49517	0.54912
1334.56660	0.54821
1332.63804	0.54729
1330.70947	0.54629
1328.78091	0.54538
1326.85234	0.54458
1324.92378	0.54379
1322.99521	0.54306
1321.06665	0.54231
1319.13809	0.54142
1317.20952	0.54053
1315.28096	0.53978
1313.35239	0.53902
1311.42383	0.53814
1309.49526	0.53721
1307.56670	0.53635
1305.63813	0.53558
1303.70957	0.53482
1301.78101	0.53398
1299.85244	0.53316
1297.92388	0.53242
1295.99531	0.53165
1294.06675	0.53091
1292.13818	0.53029
1290.20962	0.52970
1288.28105	0.52919
1286.35249	0.52877
1284.42393	0.52821
1282.49536	0.52762
1280.56680	0.52721
1278.63823	0.52666
1276.70967	0.52592
1274.78110	0.52544
1272.85254	0.52531
1270.92397	0.52516
1268.99541	0.52468
1267.06685	0.52401
1265.13828	0.52355
1263.20972	0.52340
1261.28115	0.52312
1259.35259	0.52263
1257.42402	0.52204
1255.49546	0.52144
1253.56689	0.52104
1251.63833	0.52086
1249.70977	0.52072
1247.78120	0.52048
1245.85264	0.52019
1243.92407	0.51976
1241.99551	0.51915
1240.06694	0.51854
1238.13838	0.51807
1236.20981	0.51754
1234.28125	0.51693
1232.35269	0.51638
1230.42412	0.51584
1228.49556	0.51521
1226.56699	0.51445
1224.63843	0.51369
1222.70986	0.51292
1220.78130	0.51218
1218.85273	0.51162
1216.92417	0.51117
1214.99561	0.51062
1213.06704	0.50997
1211.13848	0.50933
1209.20991	0.50880
1207.28135	0.50830
1205.35278	0.50767
1203.42422	0.50710
1201.49565	0.50665
1199.56709	0.50614
1197.63853	0.50561
1195.70996	0.50512
1193.78140	0.50459
1191.85283	0.50402
1189.92427	0.50353
1187.99570	0.50322
1186.06714	0.50309
1184.13857	0.50313
1182.21001	0.50329
1180.28145	0.50347
1178.35288	0.50373
1176.42432	0.50421
1174.49575	0.50479
1172.56719	0.50540
1170.63862	0.50611
1168.71006	0.50691
1166.78149	0.50777
1164.85293	0.50852
1162.92437	0.50913
1160.99580	0.50974
1159.06724	0.51017
1157.13867	0.51010
1155.21011	0.50955
1153.28154	0.50858
1151.35298	0.50710
1149.42441	0.50508
1147.49585	0.50289
1145.56729	0.50070
1143.63872	0.49831
1141.71016	0.49576
1139.78159	0.49348
1137.85303	0.49164
1135.92446	0.48999
1133.99590	0.48842
1132.06733	0.48703
1130.13877	0.48585
1128.21021	0.48486
1126.28164	0.48393
1124.35308	0.48295
1122.42451	0.48218
1120.49595	0.48179
1118.56738	0.48162
1116.63882	0.48166
1114.71025	0.48195
1112.78169	0.48246
1110.85312	0.48321
1108.92456	0.48408
1106.99600	0.48485
1105.06743	0.48558
1103.13887	0.48658
1101.21030	0.48789
1099.28174	0.48955
1097.35317	0.49181
1095.42461	0.49462
1093.49604	0.49809
1091.56748	0.50273
1089.63892	0.50878
1087.71035	0.51613
1085.78179	0.52434
1083.85322	0.53245
1081.92466	0.53956
1079.99609	0.54523
1078.06753	0.54892
1076.13896	0.54980
1074.21040	0.54753
1072.28184	0.54271
1070.35327	0.53633
1068.42471	0.52924
1066.49614	0.52216
1064.56758	0.51566
1062.63901	0.51019
1060.71045	0.50567
1058.78188	0.50168
1056.85332	0.49786
1054.92476	0.49434
1052.99619	0.49150
1051.06763	0.48937
1049.13906	0.48792
1047.21050	0.48713
1045.28193	0.48684
1043.35337	0.48702
1041.42480	0.48747
1039.49624	0.48760
1037.56768	0.48739
1035.63911	0.48715
1033.71055	0.48680
1031.78198	0.48636
1029.85342	0.48579
1027.92485	0.48497
1025.99629	0.48410
1024.06772	0.48332
1022.13916	0.48277
1020.21060	0.48254
1018.28203	0.48255
1016.35347	0.48279
1014.42490	0.48320
1012.49634	0.48373
1010.56777	0.48434
1008.63921	0.48504
1006.71064	0.48596
1004.78208	0.48713
1002.85352	0.48877
1000.92495	0.49122
998.99639	0.49444
997.06782	0.49810
995.13926	0.50190
993.21069	0.50566
991.28213	0.50895
989.35356	0.51126
987.42500	0.51245
985.49644	0.51283
983.56787	0.51302
981.63931	0.51366
979.71074	0.51496
977.78218	0.51672
975.85361	0.51895
973.92505	0.52172
971.99648	0.52484
970.06792	0.52817
968.13936	0.53181
966.21079	0.53602
964.28223	0.54071
962.35366	0.54568
960.42510	0.55091
958.49653	0.55629
956.56797	0.56150
954.63940	0.56698
952.71084	0.57339
950.78228	0.58027
948.85371	0.58682
946.92515	0.59314
944.99658	0.59943
943.06802	0.60549
941.13945	0.61128
939.21089	0.61694
937.28232	0.62268
935.35376	0.62863
933.42520	0.63436
931.49663	0.63950
929.56807	0.64475
927.63950	0.65118
925.71094	0.65857
923.78237	0.66581
921.85381	0.67233
919.92524	0.67834
917.99668	0.68432
916.06812	0.69109
914.13955	0.69922
912.21099	0.70791
910.28242	0.71650
908.35386	0.72447
906.42529	0.73191
904.49673	0.74017
902.56816	0.74915
900.63960	0.75823
898.71104	0.76827
896.78247	0.77942
894.85391	0.78981
892.92534	0.79906
890.99678	0.80906
889.06821	0.82002
887.13965	0.83109
885.21108	0.84246
883.28252	0.85416
881.35396	0.86493
879.42539	0.87553
877.49683	0.88830
875.56826	0.90138
873.63970	0.91218
871.71113	0.92220
869.78257	0.93355
867.85400	0.94655
865.92544	0.95935
863.99687	0.97052
862.06831	0.98125
860.13975	0.99250
858.21118	1.00381
856.28262	1.01425
854.35405	1.02504
852.42549	1.03727
850.49692	1.04865
848.56836	1.05939
846.63979	1.07210
844.71123	1.08649
842.78267	1.10122
840.85410	1.11528
838.92554	1.12615
836.99697	1.13408
835.06841	1.14246
833.13984	1.15243
831.21128	1.16402
829.28271	1.17692
827.35415	1.18900
825.42559	1.19864
823.49702	1.21068
821.56846	1.22600
819.63989	1.23945
817.71133	1.25889
815.78276	1.28545
813.85420	1.29656
811.92563	1.28845
809.99707	1.28891
808.06851	1.31424
806.13994	1.34562
804.21138	1.35342
802.28281	1.34991
800.35425	1.35639
798.42568	1.36196
796.49712	1.36463
794.56855	1.39210
792.63999	1.44571
790.71143	1.50683
788.78286	1.54214
786.85430	1.50806
784.92573	1.51862
782.99717	1.63825
781.06860	1.76715
779.14004	1.72322
777.21147	1.47574
775.28291	1.33462
773.35435	1.34941
771.42578	1.40122
769.49722	1.39262
767.56865	1.37005
765.64009	1.33541
763.71152	1.34246
761.78296	1.47827
759.85439	1.66166
757.92583	1.50538
755.99727	1.30876
754.06870	1.27252
752.14014	1.30392
750.21157	1.24162
748.28301	1.09722
746.35444	1.00424
744.42588	1.01229
742.49731	1.07547
740.56875	1.05869
738.64019	0.92661
736.71162	0.76152
734.78306	0.66201
732.85449	0.67685
730.92593	0.77666
728.99736	0.86326
727.06880	0.87924
725.14023	0.73670
723.21167	0.53005
721.28311	0.50813
719.35454	0.70477
717.42598	0.62642
715.49741	0.33889
713.56885	0.29342
711.64028	0.27993
709.71172	0.02628
707.78315	-0.13678
705.85459	-0.10753
703.92603	0.05002
701.99746	0.22699
700.06890	0.17330
698.14033	0.10901
696.21177	0.18441
694.28320	0.28705
692.35464	0.25470
690.42607	0.17168
688.49751	0.17970
686.56895	0.26603
684.64038	0.31386
682.71182	0.22091
680.78325	0.12245
678.85469	0.08804
676.92612	0.10608
674.99756	0.21543
673.06899	0.37903
671.14043	0.34369
669.21187	0.27463
667.28330	0.22490
665.35474	0.17401
663.42617	0.16625
661.49761	0.02654
659.56904	-0.07702
657.64048	-0.01912
655.71191	0.09982
653.78335	0.21568
651.85479	0.21439
649.92622	0.07122
647.99766	-0.00082
646.06909	0.07622
644.14053	0.24597
642.21196	0.38243
640.28340	0.30227
638.35483	0.14237
636.42627	0.10468
634.49771	0.17260
632.56914	0.34359
630.64058	0.57749
628.71201	0.54160
626.78345	0.27936
624.85488	0.14245
622.92632	0.16098
620.99775	0.24609
619.06919	0.29882
617.14062	0.27901
615.21206	0.24089
613.28350	0.30850
611.35493	0.39229
609.42637	0.16239
607.49780	-0.00732
605.56924	0.08668
603.64067	0.25625
601.71211	0.33515
599.78354	0.26072
597.85498	0.22417
595.92642	0.28198
593.99785	0.28593
592.06929	0.29308
590.14072	0.37028
588.21216	0.36879
586.28359	0.23978
584.35503	0.12209
582.42646	0.07489
580.49790	0.07829
578.56934	0.12129
576.64077	0.28173
574.71221	0.40634
572.78364	0.26955
570.85508	0.10709
568.92651	0.07180
566.99795	0.09499
565.06938	0.11567
563.14082	0.19683
561.21226	0.30572
559.28369	0.33946
557.35513	0.31639
555.42656	0.30977
553.49800	0.28998
551.56943	0.23058
549.64087	0.19956
547.71230	0.22445
545.78374	0.25307
543.85518	0.24215
541.92661	0.22693
539.99805	0.21538
538.06948	0.22722
536.14092	0.24052
534.21235	0.18901
532.28379	0.10568
530.35522	0.10512
528.42666	0.17187
526.49810	0.21903
524.56953	0.18551
522.64097	0.13620
520.71240	0.14351
518.78384	0.19125
516.85527	0.19732
514.92671	0.17778
512.99814	0.13589
511.06958	0.08982
509.14102	0.11249
507.21245	0.12438
505.28389	0.07729
503.35532	0.06282
501.42676	0.06832
499.49819	0.08240
