3997.91411	0.06889
3995.98555	0.06861
3994.05698	0.06878
3992.12842	0.06924
3990.19985	0.06963
3988.27129	0.07022
3986.34272	0.07065
3984.41416	0.07078
3982.48560	0.07090
3980.55703	0.07100
3978.62847	0.07106
3976.69990	0.07129
3974.77134	0.07169
3972.84277	0.07196
3970.91421	0.07188
3968.98564	0.07157
3967.05708	0.07133
3965.12852	0.07149
3963.19995	0.07199
3961.27139	0.07250
3959.34282	0.07308
3957.41426	0.07368
3955.48569	0.07359
3953.55713	0.07292
3951.62856	0.07270
3949.70000	0.07292
3947.77144	0.07309
3945.84287	0.07327
3943.91431	0.07344
3941.98574	0.07336
3940.05718	0.07294
3938.12861	0.07237
3936.20005	0.07204
3934.27148	0.07239
3932.34292	0.07320
3930.41436	0.07363
3928.48579	0.07337
3926.55723	0.07285
3924.62866	0.07268
3922.70010	0.07285
3920.77153	0.07283
3918.84297	0.07290
3916.91440	0.07341
3914.98584	0.07356
3913.05728	0.07276
3911.12871	0.07184
3909.20015	0.07163
3907.27158	0.07219
3905.34302	0.07297
3903.41445	0.07355
3901.48589	0.07383
3899.55732	0.07389
3897.62876	0.07351
3895.70020	0.07280
3893.77163	0.07225
3891.84307	0.07216
3889.91450	0.07251
3887.98594	0.07298
3886.05737	0.07369
3884.12881	0.07436
3882.20024	0.07446
3880.27168	0.07438
3878.34312	0.07410
3876.41455	0.07362
3874.48599	0.07371
3872.55742	0.07460
3870.62886	0.07593
3868.70029	0.07675
3866.77173	0.07603
3864.84316	0.07520
3862.91460	0.07530
3860.98604	0.07540
3859.05747	0.07546
3857.12891	0.07605
3855.20034	0.07706
3853.27178	0.07864
3851.34321	0.07958
3849.41465	0.07869
3847.48608	0.07805
3845.55752	0.07839
3843.62896	0.07949
3841.70039	0.08100
3839.77183	0.08258
3837.84326	0.08416
3835.91470	0.08482
3833.98613	0.08427
3832.05757	0.08392
3830.12900	0.08434
3828.20044	0.08483
3826.27187	0.08505
3824.34331	0.08521
3822.41475	0.08592
3820.48618	0.08787
3818.55762	0.08961
3816.62905	0.09025
3814.70049	0.09086
3812.77192	0.09109
3810.84336	0.09104
3808.91479	0.09149
3806.98623	0.09286
3805.05767	0.09478
3803.12910	0.09632
3801.20054	0.09786
3799.27197	0.09940
3797.34341	0.10002
3795.41484	0.10040
3793.48628	0.10121
3791.55771	0.10227
3789.62915	0.10343
3787.70059	0.10480
3785.77202	0.10646
3783.84346	0.10811
3781.91489	0.10945
3779.98633	0.11093
3778.05776	0.11265
3776.12920	0.11369
3774.20063	0.11464
3772.27207	0.11641
3770.34351	0.11875
3768.41494	0.12100
3766.48638	0.12264
3764.55781	0.12430
3762.62925	0.12636
3760.70068	0.12866
3758.77212	0.13124
3756.84355	0.13383
3754.91499	0.13624
3752.98643	0.13872
3751.05786	0.14179
3749.12930	0.14512
3747.20073	0.14736
3745.27217	0.14965
3743.34360	0.15360
3741.41504	0.15708
3739.48647	0.15899
3737.55791	0.16116
3735.62935	0.16516
3733.70078	0.17045
3731.77222	0.17429
3729.84365	0.17730
3727.91509	0.18100
3725.98652	0.18609
3724.05796	0.19256
3722.12939	0.19968
3720.20083	0.20754
3718.27227	0.21610
3716.34370	0.22466
3714.41514	0.23282
3712.48657	0.24205
3710.55801	0.25448
3708.62944	0.26776
3706.70088	0.27870
3704.77231	0.28919
3702.84375	0.30187
3700.91519	0.31850
3698.98662	0.33677
3697.05806	0.35421
3695.12949	0.37265
3693.20093	0.39251
3691.27236	0.41425
3689.34380	0.44162
3687.41523	0.47523
3685.48667	0.50581
3683.55811	0.53248
3681.62954	0.56075
3679.70098	0.59221
3677.77241	0.62543
3675.84385	0.66488
3673.91528	0.71678
3671.98672	0.75994
3670.05815	0.79904
3668.12959	0.85089
3666.20103	0.89786
3664.27246	0.93773
3662.34390	0.98112
3660.41533	1.02828
3658.48677	1.07466
3656.55820	1.12329
3654.62964	1.17696
3652.70107	1.22309
3650.77251	1.26403
3648.84395	1.31802
3646.91538	1.38190
3644.98682	1.43078
3643.05825	1.46996
3641.12969	1.50982
3639.20112	1.55319
3637.27256	1.59661
3635.34399	1.63892
3633.41543	1.68141
3631.48687	1.72126
3629.55830	1.76157
3627.62974	1.81338
3625.70117	1.86165
3623.77261	1.89520
3621.84404	1.92823
3619.91548	1.96653
3617.98691	2.01180
3616.05835	2.05479
3614.12979	2.09074
3612.20122	2.12861
3610.27266	2.16749
3608.34409	2.20661
3606.41553	2.24781
3604.48696	2.28719
3602.55840	2.32360
3600.62983	2.36191
3598.70127	2.40189
3596.77271	2.44016
3594.84414	2.47849
3592.91558	2.51864
3590.98701	2.55723
3589.05845	2.59309
3587.12988	2.63572
3585.20132	2.68382
3583.27275	2.72656
3581.34419	2.76658
3579.41562	2.80824
3577.48706	2.85175
3575.55850	2.89506
3573.62993	2.93669
3571.70137	2.97604
3569.77280	3.01523
3567.84424	3.05850
3565.91567	3.11011
3563.98711	3.15896
3562.05854	3.19911
3560.12998	3.24052
3558.20142	3.28629
3556.27285	3.33122
3554.34429	3.37296
3552.41572	3.41798
3550.48716	3.46675
3548.55859	3.51342
3546.63003	3.55837
3544.70146	3.60541
3542.77290	3.65196
3540.84434	3.69687
3538.91577	3.74297
3536.98721	3.78948
3535.05864	3.83809
3533.13008	3.88844
3531.20151	3.93809
3529.27295	3.98433
3527.34438	4.02759
3525.41582	4.07216
3523.48726	4.11932
3521.55869	4.16892
3519.63013	4.21936
3517.70156	4.26914
3515.77300	4.31598
3513.84443	4.35962
3511.91587	4.40477
3509.98730	4.45465
3508.05874	4.50554
3506.13018	4.55322
3504.20161	4.59765
3502.27305	4.64502
3500.34448	4.69960
3498.41592	4.75198
3496.48735	4.79938
3494.55879	4.84709
3492.63022	4.89218
3490.70166	4.93396
3488.77310	4.97859
3486.84453	5.02541
3484.91597	5.07044
3482.98740	5.11437
3481.05884	5.16170
3479.13027	5.21397
3477.20171	5.26907
3475.27314	5.32595
3473.34458	5.37854
3471.41602	5.42322
3469.48745	5.46728
3467.55889	5.51648
3465.63032	5.56866
3463.70176	5.61780
3461.77319	5.66047
3459.84463	5.70612
3457.91606	5.75461
3455.98750	5.79918
3454.05894	5.84561
3452.13037	5.89311
3450.20181	5.94231
3448.27324	6.00360
3446.34468	6.07273
3444.41611	6.11976
3442.48755	6.14624
3440.55898	6.18349
3438.63042	6.23346
3436.70186	6.27803
3434.77329	6.31529
3432.84473	6.36520
3430.91616	6.43550
3428.98760	6.50041
3427.05903	6.53979
3425.13047	6.57137
3423.20190	6.60511
3421.27334	6.64287
3419.34478	6.68943
3417.41621	6.73868
3415.48765	6.77610
3413.55908	6.81458
3411.63052	6.87639
3409.70195	6.93380
3407.77339	6.98936
3405.84482	7.06427
3403.91626	7.12368
3401.98770	7.13777
3400.05913	7.15793
3398.13057	7.21473
3396.20200	7.26471
3394.27344	7.29831
3392.34487	7.32917
3390.41631	7.36260
3388.48774	7.39329
3386.55918	7.41788
3384.63062	7.41738
3382.70205	7.41885
3380.77349	7.45759
3378.84492	7.48789
3376.91636	7.51461
3374.98779	7.59037
3373.05923	7.69732
3371.13066	7.74084
3369.20210	7.71683
3367.27354	7.69002
3365.34497	7.68677
3363.41641	7.69424
3361.48784	7.70269
3359.55928	7.74221
3357.63071	7.79177
3355.70215	7.80666
3353.77358	7.78374
3351.84502	7.81298
3349.91646	7.92526
3347.98789	8.00312
3346.05933	7.97896
3344.13076	7.93486
3342.20220	7.92552
3340.27363	7.91299
3338.34507	7.91608
3336.41650	7.95581
3334.48794	8.01582
3332.55937	8.05321
3330.63081	8.03933
3328.70225	7.98854
3326.77368	7.90320
3324.84512	7.80801
3322.91655	7.75413
3320.98799	7.79468
3319.05942	7.90884
3317.13086	7.97680
3315.20229	7.94921
3313.27373	7.96705
3311.34517	8.02663
3309.41660	8.02348
3307.48804	8.02121
3305.55947	7.97718
3303.63091	7.86886
3301.70234	7.82747
3299.77378	7.89193
3297.84521	7.98296
3295.91665	8.01246
3293.98809	7.98237
3292.05952	7.95141
3290.13096	7.91787
3288.20239	7.87642
3286.27383	7.86020
3284.34526	7.86724
3282.41670	7.89748
3280.48813	7.94553
3278.55957	8.01520
3276.63101	8.08058
3274.70244	8.05915
3272.77388	7.96383
3270.84531	7.90952
3268.91675	7.95440
3266.98818	7.99962
3265.05962	7.97270
3263.13105	7.94786
3261.20249	7.93032
3259.27393	7.86835
3257.34536	7.83481
3255.41680	7.88992
3253.48823	7.91886
3251.55967	7.84386
3249.63110	7.78314
3247.70254	7.80313
3245.77397	7.85407
3243.84541	7.88890
3241.91685	7.90307
3239.98828	7.94360
3238.05972	8.01643
3236.13115	8.06154
3234.20259	8.02205
3232.27402	7.88578
3230.34546	7.76999
3228.41689	7.79048
3226.48833	7.90972
3224.55977	7.99264
3222.63120	8.02066
3220.70264	8.05799
3218.77407	8.05344
3216.84551	7.97282
3214.91694	7.89672
3212.98838	7.88268
3211.05981	7.88942
3209.13125	7.84642
3207.20269	7.77979
3205.27412	7.75830
3203.34556	7.78385
3201.41699	7.77785
3199.48843	7.71288
3197.55986	7.64019
3195.63130	7.56835
3193.70273	7.51238
3191.77417	7.48192
3189.84561	7.43427
3187.91704	7.37306
3185.98848	7.35772
3184.05991	7.37214
3182.13135	7.35206
3180.20278	7.31759
3178.27422	7.29779
3176.34565	7.25031
3174.41709	7.15572
3172.48853	7.06924
3170.55996	7.01089
3168.63140	6.95621
3166.70283	6.89036
3164.77427	6.82571
3162.84570	6.78257
3160.91714	6.72037
3158.98857	6.62428
3157.06001	6.54784
3155.13145	6.51403
3153.20288	6.49982
3151.27432	6.45892
3149.34575	6.38499
3147.41719	6.31945
3145.48862	6.25604
3143.56006	6.16131
3141.63149	6.05735
3139.70293	5.97628
3137.77437	5.91618
3135.84580	5.86388
3133.91724	5.80822
3131.98867	5.74235
3130.06011	5.67242
3128.13154	5.60180
3126.20298	5.52416
3124.27441	5.44520
3122.34585	5.37113
3120.41729	5.30225
3118.48872	5.23712
3116.56016	5.16737
3114.63159	5.09296
3112.70303	5.02156
3110.77446	4.94781
3108.84590	4.87114
3106.91733	4.80412
3104.98877	4.74332
3103.06021	4.67653
3101.13164	4.60388
3099.20308	4.53187
3097.27451	4.46324
3095.34595	4.39612
3093.41738	4.32758
3091.48882	4.25837
3089.56025	4.19294
3087.63169	4.13126
3085.70312	4.07004
3083.77456	4.00828
3081.84600	3.94644
3079.91743	3.88410
3077.98887	3.82084
3076.06030	3.75842
3074.13174	3.69773
3072.20317	3.63743
3070.27461	3.57784
3068.34604	3.51929
3066.41748	3.46004
3064.48892	3.40139
3062.56035	3.34491
3060.63179	3.28906
3058.70322	3.23340
3056.77466	3.17917
3054.84609	3.12687
3052.91753	3.07542
3050.98896	3.02355
3049.06040	2.97035
3047.13184	2.91706
3045.20327	2.86625
3043.27471	2.81762
3041.34614	2.76996
3039.41758	2.72298
3037.48901	2.67623
3035.56045	2.62945
3033.63188	2.58284
3031.70332	2.53686
3029.77476	2.49157
3027.84619	2.44729
3025.91763	2.40492
3023.98906	2.36332
3022.06050	2.32121
3020.13193	2.27936
3018.20337	2.23870
3016.27480	2.19890
3014.34624	2.15950
3012.41768	2.12083
3010.48911	2.08254
3008.56055	2.04456
3006.63198	2.00796
3004.70342	1.97243
3002.77485	1.93673
3000.84629	1.90100
2998.91772	1.86613
2996.98916	1.83233
2995.06060	1.79934
2993.13203	1.76658
2991.20347	1.73355
2989.27490	1.70084
2987.34634	1.66936
2985.41777	1.63888
2983.48921	1.60860
2981.56064	1.57847
2979.63208	1.54897
2977.70352	1.52058
2975.77495	1.49284
2973.84639	1.46489
2971.91782	1.43708
2969.98926	1.40950
2968.06069	1.38179
2966.13213	1.35459
2964.20356	1.32869
2962.27500	1.30375
2960.34644	1.27917
2958.41787	1.25543
2956.48931	1.23287
2954.56074	1.21035
2952.63218	1.18747
2950.70361	1.16526
2948.77505	1.14395
2946.84648	1.12281
2944.91792	1.10148
2942.98936	1.08018
2941.06079	1.05925
2939.13223	1.03854
2937.20366	1.01830
2935.27510	0.99921
2933.34653	0.98065
2931.41797	0.96202
2929.48940	0.94399
2927.56084	0.92646
2925.63228	0.90902
2923.70371	0.89230
2921.77515	0.87636
2919.84658	0.86083
2917.91802	0.84562
2915.98945	0.83026
2914.06089	0.81434
2912.13232	0.79876
2910.20376	0.78432
2908.27520	0.77045
2906.34663	0.75680
2904.41807	0.74358
2902.48950	0.73082
2900.56094	0.71820
2898.63237	0.70547
2896.70381	0.69308
2894.77524	0.68120
2892.84668	0.66943
2890.91812	0.65775
2888.98955	0.64619
2887.06099	0.63478
2885.13242	0.62374
2883.20386	0.61305
2881.27529	0.60250
2879.34673	0.59199
2877.41816	0.58162
2875.48960	0.57139
2873.56104	0.56133
2871.63247	0.55161
2869.70391	0.54208
2867.77534	0.53249
2865.84678	0.52288
2863.91821	0.51355
2861.98965	0.50457
2860.06108	0.49565
2858.13252	0.48682
2856.20396	0.47825
2854.27539	0.47014
2852.34683	0.46270
2850.41826	0.45560
2848.48970	0.44832
2846.56113	0.44103
2844.63257	0.43406
2842.70400	0.42740
2840.77544	0.42117
2838.84687	0.41538
2836.91831	0.40967
2834.98975	0.40389
2833.06118	0.39825
2831.13262	0.39262
2829.20405	0.38683
2827.27549	0.38111
2825.34692	0.37556
2823.41836	0.36997
2821.48979	0.36433
2819.56123	0.35875
2817.63267	0.35324
2815.70410	0.34790
2813.77554	0.34284
2811.84697	0.33780
2809.91841	0.33254
2807.98984	0.32752
2806.06128	0.32306
2804.13271	0.31868
2802.20415	0.31399
2800.27559	0.30930
2798.34702	0.30475
2796.41846	0.30020
2794.48989	0.29575
2792.56133	0.29160
2790.63276	0.28772
2788.70420	0.28390
2786.77563	0.28003
2784.84707	0.27622
2782.91851	0.27244
2780.98994	0.26858
2779.06138	0.26491
2777.13281	0.26156
2775.20425	0.25821
2773.27568	0.25476
2771.34712	0.25140
2769.41855	0.24803
2767.48999	0.24465
2765.56143	0.24150
2763.63286	0.23853
2761.70430	0.23570
2759.77573	0.23301
2757.84717	0.23023
2755.91860	0.22737
2753.99004	0.22458
2752.06147	0.22196
2750.13291	0.21955
2748.20435	0.21706
2746.27578	0.21432
2744.34722	0.21164
2742.41865	0.20930
2740.49009	0.20721
2738.56152	0.20502
2736.63296	0.20267
2734.70439	0.20037
2732.77583	0.19825
2730.84727	0.19629
2728.91870	0.19441
2726.99014	0.19250
2725.06157	0.19043
2723.13301	0.18838
2721.20444	0.18645
2719.27588	0.18459
2717.34731	0.18288
2715.41875	0.18130
2713.49019	0.17972
2711.56162	0.17815
2709.63306	0.17664
2707.70449	0.17507
2705.77593	0.17346
2703.84736	0.17200
2701.91880	0.17067
2699.99023	0.16936
2698.06167	0.16806
2696.13311	0.16680
2694.20454	0.16555
2692.27598	0.16430
2690.34741	0.16303
2688.41885	0.16173
2686.49028	0.16051
2684.56172	0.15938
2682.63315	0.15827
2680.70459	0.15722
2678.77603	0.15630
2676.84746	0.15544
2674.91890	0.15457
2672.99033	0.15367
2671.06177	0.15278
2669.13320	0.15185
2667.20464	0.15096
2665.27607	0.15018
2663.34751	0.14946
2661.41895	0.14893
2659.49038	0.14853
2657.56182	0.14791
2655.63325	0.14709
2653.70469	0.14644
2651.77612	0.14586
2649.84756	0.14520
2647.91899	0.14458
2645.99043	0.14405
2644.06187	0.14364
2642.13330	0.14333
2640.20474	0.14298
2638.27617	0.14260
2636.34761	0.14232
2634.41904	0.14210
2632.49048	0.14175
2630.56191	0.14134
2628.63335	0.14105
2626.70479	0.14083
2624.77622	0.14065
2622.84766	0.14063
2620.91909	0.14062
2618.99053	0.14049
2617.06196	0.14042
2615.13340	0.14042
2613.20483	0.14028
2611.27627	0.14012
2609.34771	0.14006
2607.41914	0.14006
2605.49058	0.14019
2603.56201	0.14042
2601.63345	0.14060
2599.70488	0.14075
2597.77632	0.14093
2595.84775	0.14109
2593.91919	0.14121
2591.99062	0.14134
2590.06206	0.14146
2588.13350	0.14161
2586.20493	0.14195
2584.27637	0.14250
2582.34780	0.14296
2580.41924	0.14313
2578.49067	0.14331
2576.56211	0.14369
2574.63354	0.14413
2572.70498	0.14458
2570.77642	0.14504
2568.84785	0.14537
2566.91929	0.14571
2564.99072	0.14621
2563.06216	0.14685
2561.13359	0.14752
2559.20503	0.14808
2557.27646	0.14849
2555.34790	0.14891
2553.41934	0.14945
2551.49077	0.15005
2549.56221	0.15074
2547.63364	0.15156
2545.70508	0.15239
2543.77651	0.15312
2541.84795	0.15380
2539.91938	0.15444
2537.99082	0.15507
2536.06226	0.15577
2534.13369	0.15651
2532.20513	0.15717
2530.27656	0.15782
2528.34800	0.15856
2526.41943	0.15937
2524.49087	0.16023
2522.56230	0.16103
2520.63374	0.16179
2518.70518	0.16260
2516.77661	0.16344
2514.84805	0.16434
2512.91948	0.16534
2510.99092	0.16629
2509.06235	0.16703
2507.13379	0.16777
2505.20522	0.16872
2503.27666	0.16974
2501.34810	0.17066
2499.41953	0.17151
2497.49097	0.17239
2495.56240	0.17327
2493.63384	0.17416
2491.70527	0.17506
2489.77671	0.17593
2487.84814	0.17687
2485.91958	0.17783
2483.99102	0.17873
2482.06245	0.17964
2480.13389	0.18065
2478.20532	0.18176
2476.27676	0.18283
2474.34819	0.18381
2472.41963	0.18480
2470.49106	0.18569
2468.56250	0.18649
2466.63394	0.18742
2464.70537	0.18848
2462.77681	0.18954
2460.84824	0.19059
2458.91968	0.19163
2456.99111	0.19262
2455.06255	0.19358
2453.13398	0.19460
2451.20542	0.19568
2449.27686	0.19674
2447.34829	0.19781
2445.41973	0.19886
2443.49116	0.19989
2441.56260	0.20097
2439.63403	0.20207
2437.70547	0.20321
2435.77690	0.20439
2433.84834	0.20548
2431.91978	0.20657
2429.99121	0.20771
2428.06265	0.20868
2426.13408	0.20958
2424.20552	0.21068
2422.27695	0.21191
2420.34839	0.21313
2418.41982	0.21424
2416.49126	0.21527
2414.56270	0.21635
2412.63413	0.21760
2410.70557	0.21897
2408.77700	0.22030
2406.84844	0.22145
2404.91987	0.22261
2402.99131	0.22395
2401.06274	0.22537
2399.13418	0.22667
2397.20562	0.22774
2395.27705	0.22873
2393.34849	0.22985
2391.41992	0.23118
2389.49136	0.23252
2387.56279	0.23358
2385.63423	0.23421
2383.70566	0.23431
2381.77710	0.23372
2379.84854	0.23252
2377.91997	0.23085
2375.99141	0.22877
2374.06284	0.22623
2372.13428	0.22316
2370.20571	0.21950
2368.27715	0.21578
2366.34858	0.21303
2364.42002	0.21097
2362.49146	0.20913
2360.56289	0.20863
2358.63433	0.21005
2356.70576	0.21430
2354.77720	0.22139
2352.84863	0.22942
2350.92007	0.23658
2348.99150	0.24085
2347.06294	0.24154
2345.13437	0.23963
2343.20581	0.23741
2341.27725	0.23695
2339.34868	0.23851
2337.42012	0.24136
2335.49155	0.24410
2333.56299	0.24612
2331.63442	0.24827
2329.70586	0.25111
2327.77729	0.25398
2325.84873	0.25691
2323.92017	0.26070
2321.99160	0.26516
2320.06304	0.26928
2318.13447	0.27304
2316.20591	0.27668
2314.27734	0.27978
2312.34878	0.28244
2310.42021	0.28530
2308.49165	0.28844
2306.56309	0.29160
2304.63452	0.29453
2302.70596	0.29716
2300.77739	0.29956
2298.84883	0.30183
2296.92026	0.30423
2294.99170	0.30694
2293.06313	0.30973
2291.13457	0.31228
2289.20601	0.31469
2287.27744	0.31720
2285.34888	0.31972
2283.42031	0.32195
2281.49175	0.32386
2279.56318	0.32576
2277.63462	0.32773
2275.70605	0.32965
2273.77749	0.33162
2271.84893	0.33372
2269.92036	0.33591
2267.99180	0.33808
2266.06323	0.34025
2264.13467	0.34242
2262.20610	0.34448
2260.27754	0.34660
2258.34897	0.34896
2256.42041	0.35129
2254.49185	0.35351
2252.56328	0.35582
2250.63472	0.35819
2248.70615	0.36050
2246.77759	0.36282
2244.84902	0.36513
2242.92046	0.36737
2240.99189	0.36960
2239.06333	0.37185
2237.13477	0.37402
2235.20620	0.37615
2233.27764	0.37839
2231.34907	0.38071
2229.42051	0.38303
2227.49194	0.38525
2225.56338	0.38736
2223.63481	0.38948
2221.70625	0.39166
2219.77769	0.39388
2217.84912	0.39613
2215.92056	0.39837
2213.99199	0.40058
2212.06343	0.40278
2210.13486	0.40495
2208.20630	0.40716
2206.27773	0.40936
2204.34917	0.41138
2202.42061	0.41341
2200.49204	0.41554
2198.56348	0.41754
2196.63491	0.41939
2194.70635	0.42131
2192.77778	0.42343
2190.84922	0.42557
2188.92065	0.42746
2186.99209	0.42922
2185.06353	0.43096
2183.13496	0.43255
2181.20640	0.43416
2179.27783	0.43590
2177.34927	0.43759
2175.42070	0.43914
2173.49214	0.44064
2171.56357	0.44204
2169.63501	0.44341
2167.70645	0.44479
2165.77788	0.44602
2163.84932	0.44715
2161.92075	0.44834
2159.99219	0.44952
2158.06362	0.45053
2156.13506	0.45141
2154.20649	0.45227
2152.27793	0.45309
2150.34937	0.45386
2148.42080	0.45456
2146.49224	0.45508
2144.56367	0.45545
2142.63511	0.45581
2140.70654	0.45616
2138.77798	0.45641
2136.84941	0.45661
2134.92085	0.45680
2132.99229	0.45683
2131.06372	0.45668
2129.13516	0.45640
2127.20659	0.45612
2125.27803	0.45586
2123.34946	0.45544
2121.42090	0.45488
2119.49233	0.45428
2117.56377	0.45366
2115.63521	0.45302
2113.70664	0.45236
2111.77808	0.45158
2109.84951	0.45055
2107.92095	0.44929
2105.99238	0.44806
2104.06382	0.44698
2102.13525	0.44586
2100.20669	0.44451
2098.27812	0.44298
2096.34956	0.44138
2094.42100	0.43985
2092.49243	0.43834
2090.56387	0.43674
2088.63530	0.43502
2086.70674	0.43314
2084.77817	0.43115
2082.84961	0.42915
2080.92104	0.42708
2078.99248	0.42498
2077.06392	0.42303
2075.13535	0.42108
2073.20679	0.41898
2071.27822	0.41678
2069.34966	0.41451
2067.42109	0.41213
2065.49253	0.40966
2063.56396	0.40713
2061.63540	0.40466
2059.70684	0.40221
2057.77827	0.39977
2055.84971	0.39734
2053.92114	0.39485
2051.99258	0.39225
2050.06401	0.38952
2048.13545	0.38681
2046.20688	0.38425
2044.27832	0.38170
2042.34976	0.37897
2040.42119	0.37621
2038.49263	0.37349
2036.56406	0.37072
2034.63550	0.36794
2032.70693	0.36517
2030.77837	0.36237
2028.84980	0.35952
2026.92124	0.35662
2024.99268	0.35370
2023.06411	0.35092
2021.13555	0.34827
2019.20698	0.34569
2017.27842	0.34309
2015.34985	0.34028
2013.42129	0.33735
2011.49272	0.33453
2009.56416	0.33181
2007.63560	0.32910
2005.70703	0.32639
2003.77847	0.32368
2001.84990	0.32098
1999.92134	0.31838
1997.99277	0.31583
1996.06421	0.31329
1994.13564	0.31080
1992.20708	0.30837
1990.27852	0.30579
1988.34995	0.30318
1986.42139	0.30073
1984.49282	0.29837
1982.56426	0.29594
1980.63569	0.29356
1978.70713	0.29127
1976.77856	0.28897
1974.85000	0.28672
1972.92144	0.28453
1970.99287	0.28240
1969.06431	0.28039
1967.13574	0.27854
1965.20718	0.27666
1963.27861	0.27467
1961.35005	0.27270
1959.42148	0.27079
1957.49292	0.26896
1955.56436	0.26718
1953.63579	0.26538
1951.70723	0.26352
1949.77866	0.26174
1947.85010	0.26017
1945.92153	0.25882
1943.99297	0.25751
1942.06440	0.25606
1940.13584	0.25452
1938.20728	0.25310
1936.27871	0.25179
1934.35015	0.25045
1932.42158	0.24913
1930.49302	0.24794
1928.56445	0.24686
1926.63589	0.24579
1924.70732	0.24482
1922.77876	0.24396
1920.85020	0.24312
1918.92163	0.24232
1916.99307	0.24140
1915.06450	0.24026
1913.13594	0.23926
1911.20737	0.23853
1909.27881	0.23786
1907.35024	0.23716
1905.42168	0.23650
1903.49312	0.23594
1901.56455	0.23543
1899.63599	0.23496
1897.70742	0.23455
1895.77886	0.23419
1893.85029	0.23389
1891.92173	0.23355
1889.99316	0.23330
1888.06460	0.23306
1886.13604	0.23275
1884.20747	0.23250
1882.27891	0.23235
1880.35034	0.23226
1878.42178	0.23218
1876.49321	0.23215
1874.56465	0.23212
1872.63608	0.23220
1870.70752	0.23248
1868.77896	0.23299
1866.85039	0.23334
1864.92183	0.23339
1862.99326	0.23345
1861.06470	0.23364
1859.13613	0.23396
1857.20757	0.23430
1855.27900	0.23472
1853.35044	0.23521
1851.42187	0.23583
1849.49331	0.23653
1847.56475	0.23722
1845.63618	0.23795
1843.70762	0.23879
1841.77905	0.23953
1839.85049	0.24009
1837.92192	0.24093
1835.99336	0.24187
1834.06479	0.24280
1832.13623	0.24385
1830.20767	0.24531
1828.27910	0.24679
1826.35054	0.24783
1824.42197	0.24904
1822.49341	0.25034
1820.56484	0.25164
1818.63628	0.25305
1816.70771	0.25461
1814.77915	0.25617
1812.85059	0.25789
1810.92202	0.25996
1808.99346	0.26210
1807.06489	0.26406
1805.13633	0.26592
1803.20776	0.26806
1801.27920	0.27055
1799.35063	0.27344
1797.42207	0.27618
1795.49351	0.27874
1793.56494	0.28155
1791.63638	0.28508
1789.70781	0.28853
1787.77925	0.29118
1785.85068	0.29425
1783.92212	0.29795
1781.99355	0.30196
1780.06499	0.30608
1778.13643	0.31032
1776.20786	0.31443
1774.27930	0.31884
1772.35073	0.32475
1770.42217	0.33119
1768.49360	0.33663
1766.56504	0.34184
1764.63647	0.34714
1762.70791	0.35297
1760.77935	0.36046
1758.85078	0.36769
1756.92222	0.37490
1754.99365	0.38262
1753.06509	0.38968
1751.13652	0.39817
1749.20796	0.40883
1747.27939	0.41933
1745.35083	0.42857
1743.42227	0.43836
1741.49370	0.44924
1739.56514	0.46197
1737.63657	0.47458
1735.70801	0.48564
1733.77944	0.50198
1731.85088	0.52142
1729.92231	0.53700
1727.99375	0.55281
1726.06519	0.56998
1724.13662	0.58875
1722.20806	0.60887
1720.27949	0.62742
1718.35093	0.64883
1716.42236	0.67985
1714.49380	0.70991
1712.56523	0.73503
1710.63667	0.75948
1708.70811	0.78543
1706.77954	0.81439
1704.85098	0.84837
1702.92241	0.87887
1700.99385	0.90948
1699.06528	0.95396
1697.13672	0.99399
1695.20815	1.03452
1693.27959	1.07444
1691.35103	1.10657
1689.42246	1.14253
1687.49390	1.17986
1685.56533	1.21608
1683.63677	1.27112
1681.70820	1.32793
1679.77964	1.36477
1677.85107	1.39957
1675.92251	1.43947
1673.99395	1.48820
1672.06538	1.53156
1670.13682	1.57362
1668.20825	1.62636
1666.27969	1.66869
1664.35112	1.70360
1662.42256	1.74563
1660.49399	1.79242
1658.56543	1.82969
1656.63687	1.86049
1654.70830	1.88957
1652.77974	1.93735
1650.85117	1.98626
1648.92261	2.00727
1646.99404	2.03354
1645.06548	2.06706
1643.13691	2.09198
1641.20835	2.10751
1639.27979	2.11983
1637.35122	2.12756
1635.42266	2.13028
1633.49409	2.12800
1631.56553	2.11900
1629.63696	2.10521
1627.70840	2.08173
1625.77983	2.05377
1623.85127	2.01901
1621.92271	1.97750
1619.99414	1.93949
1618.06558	1.90016
1616.13701	1.84418
1614.20845	1.78720
1612.27988	1.74317
1610.35132	1.69700
1608.42275	1.64637
1606.49419	1.59579
1604.56562	1.54859
1602.63706	1.50233
1600.70850	1.45648
1598.77993	1.41395
1596.85137	1.37392
1594.92280	1.33539
1592.99424	1.29846
1591.06567	1.26404
1589.13711	1.23113
1587.20854	1.20000
1585.27998	1.17081
1583.35142	1.14289
1581.42285	1.11662
1579.49429	1.09366
1577.56572	1.07268
1575.63716	1.04692
1573.70859	1.02350
1571.78003	1.00735
1569.85146	0.98971
1567.92290	0.96946
1565.99434	0.95287
1564.06577	0.93848
1562.13721	0.92627
1560.20864	0.91535
1558.28008	0.89657
1556.35151	0.87975
1554.42295	0.86940
1552.49438	0.85891
1550.56582	0.84858
1548.63726	0.83844
1546.70869	0.82947
1544.78013	0.82125
1542.85156	0.81293
1540.92300	0.80388
1538.99443	0.79253
1537.06587	0.78397
1535.13730	0.77796
1533.20874	0.77094
1531.28018	0.76349
1529.35161	0.75761
1527.42305	0.75209
1525.49448	0.74636
1523.56592	0.74094
1521.63735	0.73521
1519.70879	0.72892
1517.78022	0.72347
1515.85166	0.71806
1513.92310	0.71283
1511.99453	0.70863
1510.06597	0.70519
1508.13740	0.70208
1506.20884	0.69686
1504.28027	0.69118
1502.35171	0.68763
1500.42314	0.68478
1498.49458	0.68178
1496.56602	0.67808
1494.63745	0.67443
1492.70889	0.67163
1490.78032	0.66912
1488.85176	0.66598
1486.92319	0.66252
1484.99463	0.65927
1483.06606	0.65624
1481.13750	0.65334
1479.20894	0.65066
1477.28037	0.64825
1475.35181	0.64583
1473.42324	0.64313
1471.49468	0.63965
1469.56611	0.63625
1467.63755	0.63358
1465.70898	0.63119
1463.78042	0.62864
1461.85186	0.62641
1459.92329	0.62477
1457.99473	0.62315
1456.06616	0.62069
1454.13760	0.61804
1452.20903	0.61597
1450.28047	0.61418
1448.35190	0.61251
1446.42334	0.61071
1444.49478	0.60893
1442.56621	0.60748
1440.63765	0.60626
1438.70908	0.60513
1436.78052	0.60382
1434.85195	0.60208
1432.92339	0.60031
1430.99482	0.59882
1429.06626	0.59742
1427.13770	0.59604
1425.20913	0.59461
1423.28057	0.59301
1421.35200	0.59155
1419.42344	0.59032
1417.49487	0.58882
1415.56631	0.58701
1413.63774	0.58541
1411.70918	0.58404
1409.78062	0.58279
1407.85205	0.58154
1405.92349	0.58025
1403.99492	0.57884
1402.06636	0.57737
1400.13779	0.57614
1398.20923	0.57513
1396.28066	0.57408
1394.35210	0.57276
1392.42354	0.57124
1390.49497	0.56990
1388.56641	0.56883
1386.63784	0.56767
1384.70928	0.56626
1382.78071	0.56500
1380.85215	0.56400
1378.92358	0.56305
1376.99502	0.56208
1375.06646	0.56120
1373.13789	0.56029
1371.20933	0.55922
1369.28076	0.55819
1367.35220	0.55726
1365.42363	0.55635
1363.49507	0.55546
1361.56650	0.55452
1359.63794	0.55350
1357.70937	0.55260
1355.78081	0.55170
1353.85225	0.55072
1351.92368	0.54985
1349.99512	0.54909
1348.06655	0.54830
1346.13799	0.54739
1344.20942	0.54646
1342.28086	0.54565
1340.35229	0.54488
1338.42373	0.54397
1336.49517	0.54297
1334.56660	0.54205
1332.63804	0.54115
1330.70947	0.54023
1328.78091	0.53943
1326.85234	0.53879
1324.92378	0.53810
1322.99521	0.53726
1321.06665	0.53643
1319.13809	0.53564
1317.20952	0.53475
1315.28096	0.53394
1313.35239	0.53329
1311.42383	0.53258
1309.49526	0.53172
1307.56670	0.53082
1305.63813	0.52994
1303.70957	0.52914
1301.78101	0.52855
1299.85244	0.52800
1297.92388	0.52733
1295.99531	0.52668
1294.06675	0.52613
1292.13818	0.52552
1290.20962	0.52490
1288.28105	0.52435
1286.35249	0.52382
1284.42393	0.52334
1282.49536	0.52289
1280.56680	0.52246
1278.63823	0.52207
1276.70967	0.52168
1274.78110	0.52116
1272.85254	0.52057
1270.92397	0.52012
1268.99541	0.51983
1267.06685	0.51956
1265.13828	0.51911
1263.20972	0.51852
1261.28115	0.51800
1259.35259	0.51767
1257.42402	0.51751
1255.49546	0.51737
1253.56689	0.51712
1251.63833	0.51680
1249.70977	0.51646
1247.78120	0.51613
1245.85264	0.51590
1243.92407	0.51559
1241.99551	0.51502
1240.06694	0.51434
1238.13838	0.51375
1236.20981	0.51329
1234.28125	0.51293
1232.35269	0.51247
1230.42412	0.51191
1228.49556	0.51140
1226.56699	0.51091
1224.63843	0.51026
1222.70986	0.50946
1220.78130	0.50872
1218.85273	0.50818
1216.92417	0.50783
1214.99561	0.50743
1213.06704	0.50675
1211.13848	0.50602
1209.20991	0.50552
1207.28135	0.50503
1205.35278	0.50436
1203.42422	0.50380
1201.49565	0.50333
1199.56709	0.50272
1197.63853	0.50211
1195.70996	0.50175
1193.78140	0.50145
1191.85283	0.50112
1189.92427	0.50081
1187.99570	0.50044
1186.06714	0.50010
1184.13857	0.49991
1182.21001	0.49974
1180.28145	0.49952
1178.35288	0.49953
1176.42432	0.49991
1174.49575	0.50037
1172.56719	0.50067
1170.63862	0.50101
1168.71006	0.50157
1166.78149	0.50201
1164.85293	0.50219
1162.92437	0.50216
1160.99580	0.50181
1159.06724	0.50126
1157.13867	0.50072
1155.21011	0.50005
1153.28154	0.49904
1151.35298	0.49765
1149.42441	0.49601
1147.49585	0.49435
1145.56729	0.49261
1143.63872	0.49053
1141.71016	0.48822
1139.78159	0.48594
1137.85303	0.48364
1135.92446	0.48138
1133.99590	0.47933
1132.06733	0.47744
1130.13877	0.47584
1128.21021	0.47462
1126.28164	0.47342
1124.35308	0.47208
1122.42451	0.47098
1120.49595	0.47012
1118.56738	0.46941
1116.63882	0.46912
1114.71025	0.46914
1112.78169	0.46925
1110.85312	0.46955
1108.92456	0.47018
1106.99600	0.47110
1105.06743	0.47224
1103.13887	0.47360
1101.21030	0.47526
1099.28174	0.47732
1097.35317	0.47988
1095.42461	0.48300
1093.49604	0.48652
1091.56748	0.49040
1089.63892	0.49494
1087.71035	0.50030
1085.78179	0.50647
1083.85322	0.51321
1081.92466	0.51983
1079.99609	0.52556
1078.06753	0.52958
1076.13896	0.53105
1074.21040	0.52963
1072.28184	0.52552
1070.35327	0.51967
1068.42471	0.51344
1066.49614	0.50742
1064.56758	0.50164
1062.63901	0.49598
1060.71045	0.49053
1058.78188	0.48590
1056.85332	0.48227
1054.92476	0.47897
1052.99619	0.47563
1051.06763	0.47266
1049.13906	0.47047
1047.21050	0.46877
1045.28193	0.46730
1043.35337	0.46624
1041.42480	0.46545
1039.49624	0.46469
1037.56768	0.46398
1035.63911	0.46348
1033.71055	0.46350
1031.78198	0.46399
1029.85342	0.46460
1027.92485	0.46515
1025.99629	0.46555
1024.06772	0.46605
1022.13916	0.46685
1020.21060	0.46770
1018.28203	0.46856
1016.35347	0.46948
1014.42490	0.47043
1012.49634	0.47158
1010.56777	0.47311
1008.63921	0.47495
1006.71064	0.47693
1004.78208	0.47895
1002.85352	0.48126
1000.92495	0.48410
998.99639	0.48735
997.06782	0.49077
995.13926	0.49424
993.21069	0.49771
991.28213	0.50101
989.35356	0.50368
987.42500	0.50534
985.49644	0.50628
983.56787	0.50720
981.63931	0.50846
979.71074	0.51015
977.78218	0.51236
975.85361	0.51490
973.92505	0.51772
971.99648	0.52111
970.06792	0.52489
968.13936	0.52887
966.21079	0.53316
964.28223	0.53750
962.35366	0.54183
960.42510	0.54671
958.49653	0.55218
956.56797	0.55791
954.63940	0.56396
952.71084	0.57025
950.78228	0.57648
948.85371	0.58277
946.92515	0.58920
944.99658	0.59560
943.06802	0.60201
941.13945	0.60803
939.21089	0.61351
937.28232	0.61912
935.35376	0.62481
933.42520	0.62992
931.49663	0.63508
929.56807	0.64134
927.63950	0.64800
925.71094	0.65405
923.78237	0.65959
921.85381	0.66522
919.92524	0.67159
917.99668	0.67822
916.06812	0.68421
914.13955	0.69041
912.21099	0.69832
910.28242	0.70787
908.35386	0.71784
906.42529	0.72748
904.49673	0.73667
902.56816	0.74508
900.63960	0.75324
898.71104	0.76203
896.78247	0.77120
894.85391	0.78089
892.92534	0.79096
890.99678	0.80075
889.06821	0.81047
887.13965	0.82068
885.21108	0.83186
883.28252	0.84383
881.35396	0.85593
879.42539	0.86826
877.49683	0.88099
875.56826	0.89362
873.63970	0.90572
871.71113	0.91739
869.78257	0.92820
867.85400	0.93760
865.92544	0.94674
863.99687	0.95649
862.06831	0.96642
860.13975	0.97752
858.21118	0.99027
856.28262	1.00290
854.35405	1.01464
852.42549	1.02612
850.49692	1.03794
848.56836	1.05003
846.63979	1.06221
844.71123	1.07443
842.78267	1.08469
840.85410	1.09200
838.92554	1.10003
836.99697	1.11065
835.06841	1.11989
833.13984	1.12709
831.21128	1.13695
829.28271	1.15262
827.35415	1.17301
825.42559	1.18892
823.49702	1.19296
821.56846	1.19323
819.63989	1.19758
817.71133	1.20573
815.78276	1.21536
813.85420	1.22049
811.92563	1.22439
809.99707	1.22810
808.06851	1.22402
806.13994	1.22254
804.21138	1.22739
802.28281	1.22738
800.35425	1.22440
798.42568	1.23200
796.49712	1.25353
794.56855	1.27296
792.63999	1.27297
790.71143	1.25799
788.78286	1.24044
786.85430	1.20900
784.92573	1.16752
782.99717	1.14404
781.06860	1.14426
779.14004	1.15942
777.21147	1.20068
775.28291	1.26817
773.35435	1.30232
771.42578	1.26685
769.49722	1.20832
767.56865	1.16302
765.64009	1.12347
763.71152	1.08438
761.78296	1.03832
759.85439	0.98974
757.92583	0.97031
755.99727	0.98750
754.06870	1.03022
752.14014	1.08094
750.21157	1.08216
748.28301	0.97054
746.35444	0.84831
744.42588	0.81496
742.49731	0.85879
740.56875	0.90225
738.64019	0.88542
736.71162	0.80492
734.78306	0.68830
732.85449	0.60178
730.92593	0.54249
728.99736	0.49381
727.06880	0.44934
725.14023	0.37904
723.21167	0.28646
721.28311	0.20292
719.35454	0.16368
717.42598	0.16188
715.49741	0.14208
713.56885	0.06815
711.64028	-0.01285
709.71172	-0.05494
707.78315	-0.05519
705.85459	-0.12859
703.92603	-0.27538
701.99746	-0.23079
700.06890	-0.02323
698.14033	0.01958
696.21177	-0.05444
694.28320	-0.15374
692.35464	-0.22467
690.42607	-0.18865
688.49751	-0.12653
686.56895	-0.12515
684.64038	-0.10869
682.71182	-0.07699
680.78325	-0.15960
678.85469	-0.31058
676.92612	-0.33866
674.99756	-0.26299
673.06899	-0.19028
671.14043	-0.13389
669.21187	-0.07285
667.28330	-0.00669
665.35474	0.05173
663.42617	0.07339
661.49761	0.05230
659.56904	0.02250
657.64048	0.02290
655.71191	0.03312
653.78335	0.00796
651.85479	-0.07765
649.92622	-0.14276
647.99766	-0.08029
646.06909	-0.02228
644.14053	-0.02259
642.21196	-0.03745
640.28340	-0.04463
638.35483	-0.04266
636.42627	-0.08435
634.49771	-0.13855
632.56914	-0.13013
630.64058	-0.08319
628.71201	-0.07474
626.78345	-0.09943
624.85488	-0.10515
622.92632	-0.09775
620.99775	-0.10286
619.06919	-0.06817
617.14062	0.01105
615.21206	0.04512
613.28350	0.02071
611.35493	-0.00274
609.42637	-0.02095
607.49780	-0.05070
605.56924	-0.05778
603.64067	-0.02025
601.71211	0.00210
599.78354	-0.02180
597.85498	-0.04124
595.92642	-0.02530
593.99785	0.02737
592.06929	0.05182
590.14072	-0.00206
588.21216	-0.11078
586.28359	-0.16730
584.35503	-0.07993
582.42646	0.05188
580.49790	0.07842
578.56934	0.04910
576.64077	0.01044
574.71221	-0.01054
572.78364	-0.01168
570.85508	-0.00797
568.92651	-0.00294
566.99795	-0.01516
565.06938	-0.05038
563.14082	-0.05598
561.21226	-0.04603
559.28369	-0.04283
557.35513	-0.03778
555.42656	-0.01818
553.49800	0.02449
551.56943	0.06227
549.64087	0.04368
547.71230	-0.02189
545.78374	-0.08325
543.85518	-0.11215
541.92661	-0.13367
539.99805	-0.12166
538.06948	-0.04407
536.14092	-0.00839
534.21235	-0.02999
532.28379	-0.01341
530.35522	0.02306
528.42666	0.01664
526.49810	-0.01286
524.56953	-0.04074
522.64097	-0.06763
520.71240	-0.10240
518.78384	-0.13742
516.85527	-0.12205
514.92671	-0.07189
512.99814	-0.02758
511.06958	-0.00278
509.14102	-0.00101
507.21245	-0.02815
505.28389	-0.05994
503.35532	-0.04394
501.42676	-0.02110
499.49819	0.00472
