3997.91411	0.08391
3995.98555	0.08434
3994.05698	0.08518
3992.12842	0.08575
3990.19985	0.08576
3988.27129	0.08582
3986.34272	0.08616
3984.41416	0.08666
3982.48560	0.08714
3980.55703	0.08744
3978.62847	0.08747
3976.69990	0.08752
3974.77134	0.08778
3972.84277	0.08801
3970.91421	0.08788
3968.98564	0.08738
3967.05708	0.08690
3965.12852	0.08692
3963.19995	0.08757
3961.27139	0.08810
3959.34282	0.08820
3957.41426	0.08850
3955.48569	0.08894
3953.55713	0.08910
3951.62856	0.08943
3949.70000	0.09011
3947.77144	0.09047
3945.84287	0.09019
3943.91431	0.09035
3941.98574	0.09095
3940.05718	0.09026
3938.12861	0.08865
3936.20005	0.08797
3934.27148	0.08906
3932.34292	0.09136
3930.41436	0.09283
3928.48579	0.09219
3926.55723	0.09102
3924.62866	0.09100
3922.70010	0.09113
3920.77153	0.09060
3918.84297	0.09068
3916.91440	0.09128
3914.98584	0.09069
3913.05728	0.08893
3911.12871	0.08748
3909.20015	0.08724
3907.27158	0.08894
3905.34302	0.09295
3903.41445	0.09748
3901.48589	0.09922
3899.55732	0.09769
3897.62876	0.09419
3895.70020	0.09095
3893.77163	0.09042
3891.84307	0.09235
3889.91450	0.09305
3887.98594	0.09165
3886.05737	0.09231
3884.12881	0.09471
3882.20024	0.09552
3880.27168	0.09536
3878.34312	0.09395
3876.41455	0.09233
3874.48599	0.09341
3872.55742	0.09629
3870.62886	0.09899
3868.70029	0.10014
3866.77173	0.09874
3864.84316	0.09820
3862.91460	0.09876
3860.98604	0.09707
3859.05747	0.09509
3857.12891	0.09618
3855.20034	0.10074
3853.27178	0.10750
3851.34321	0.10866
3849.41465	0.10236
3847.48608	0.09730
3845.55752	0.09601
3843.62896	0.09808
3841.70039	0.10205
3839.77183	0.10668
3837.84326	0.11014
3835.91470	0.10942
3833.98613	0.10654
3832.05757	0.10489
3830.12900	0.10419
3828.20044	0.10397
3826.27187	0.10448
3824.34331	0.10545
3822.41475	0.10825
3820.48618	0.11351
3818.55762	0.11590
3816.62905	0.11507
3814.70049	0.11310
3812.77192	0.10930
3810.84336	0.10705
3808.91479	0.10850
3806.98623	0.11273
3805.05767	0.11646
3803.12910	0.11899
3801.20054	0.12244
3799.27197	0.12369
3797.34341	0.12191
3795.41484	0.12015
3793.48628	0.11847
3791.55771	0.11772
3789.62915	0.11847
3787.70059	0.12002
3785.77202	0.12220
3783.84346	0.12447
3781.91489	0.12615
3779.98633	0.12828
3778.05776	0.13044
3776.12920	0.13042
3774.20063	0.13001
3772.27207	0.13176
3770.34351	0.13572
3768.41494	0.13962
3766.48638	0.14158
3764.55781	0.14285
3762.62925	0.14416
3760.70068	0.14676
3758.77212	0.15127
3756.84355	0.15501
3754.91499	0.15739
3752.98643	0.16181
3751.05786	0.16993
3749.12930	0.17672
3747.20073	0.17797
3745.27217	0.17983
3743.34360	0.18439
3741.41504	0.18773
3739.48647	0.19101
3737.55791	0.19790
3735.62935	0.20950
3733.70078	0.22014
3731.77222	0.22340
3729.84365	0.22421
3727.91509	0.22734
3725.98652	0.23351
3724.05796	0.24018
3722.12939	0.24463
3720.20083	0.24725
3718.27227	0.24882
3716.34370	0.25086
3714.41514	0.25635
3712.48657	0.26896
3710.55801	0.28894
3708.62944	0.30559
3706.70088	0.31454
3704.77231	0.32328
3702.84375	0.33578
3700.91519	0.35207
3698.98662	0.36868
3697.05806	0.38426
3695.12949	0.40165
3693.20093	0.42178
3691.27236	0.44537
3689.34380	0.47384
3687.41523	0.50369
3685.48667	0.52847
3683.55811	0.55143
3681.62954	0.57812
3679.70098	0.60986
3677.77241	0.64514
3675.84385	0.68810
3673.91528	0.74150
3671.98672	0.78230
3670.05815	0.81944
3668.12959	0.86880
3666.20103	0.91192
3664.27246	0.94901
3662.34390	0.99039
3660.41533	1.03586
3658.48677	1.08242
3656.55820	1.13370
3654.62964	1.18955
3652.70107	1.23608
3650.77251	1.27955
3648.84395	1.33960
3646.91538	1.40604
3644.98682	1.45133
3643.05825	1.48704
3641.12969	1.52555
3639.20112	1.56918
3637.27256	1.61425
3635.34399	1.65952
3633.41543	1.70605
3631.48687	1.75086
3629.55830	1.79753
3627.62974	1.85452
3625.70117	1.90088
3623.77261	1.93065
3621.84404	1.96238
3619.91548	2.00053
3617.98691	2.04424
3616.05835	2.08430
3614.12979	2.11918
3612.20122	2.15821
3610.27266	2.19925
3608.34409	2.24179
3606.41553	2.28558
3604.48696	2.32477
3602.55840	2.36024
3600.62983	2.39853
3598.70127	2.43951
3596.77271	2.47979
3594.84414	2.52154
3592.91558	2.56376
3590.98701	2.60110
3589.05845	2.63596
3587.12988	2.67972
3585.20132	2.72697
3583.27275	2.76436
3581.34419	2.79936
3579.41562	2.83974
3577.48706	2.88334
3575.55850	2.92669
3573.62993	2.96993
3571.70137	3.01118
3569.77280	3.05270
3567.84424	3.10059
3565.91567	3.15541
3563.98711	3.20179
3562.05854	3.23902
3560.12998	3.27912
3558.20142	3.32324
3556.27285	3.36891
3554.34429	3.41385
3552.41572	3.45895
3550.48716	3.50509
3548.55859	3.55147
3546.63003	3.59841
3544.70146	3.64840
3542.77290	3.69790
3540.84434	3.74160
3538.91577	3.78371
3536.98721	3.83008
3535.05864	3.88182
3533.13008	3.93306
3531.20151	3.98130
3529.27295	4.02886
3527.34438	4.07736
3525.41582	4.12484
3523.48726	4.16990
3521.55869	4.21827
3519.63013	4.27009
3517.70156	4.31727
3515.77300	4.35962
3513.84443	4.40690
3511.91587	4.45800
3509.98730	4.50593
3508.05874	4.55557
3506.13018	4.60980
3504.20161	4.66389
3502.27305	4.71639
3500.34448	4.76567
3498.41592	4.81040
3496.48735	4.85280
3494.55879	4.89469
3492.63022	4.93748
3490.70166	4.98326
3488.77310	5.03276
3486.84453	5.08405
3484.91597	5.13591
3482.98740	5.18912
3481.05884	5.24244
3479.13027	5.29139
3477.20171	5.33685
3475.27314	5.38046
3473.34458	5.42856
3471.41602	5.48679
3469.48745	5.54005
3467.55889	5.57940
3465.63032	5.61577
3463.70176	5.66073
3461.77319	5.71399
3459.84463	5.76964
3457.91606	5.82677
3455.98750	5.89157
3454.05894	5.95878
3452.13037	6.01139
3450.20181	6.04767
3448.27324	6.08098
3446.34468	6.13257
3444.41611	6.19926
3442.48755	6.26047
3440.55898	6.31186
3438.63042	6.35932
3436.70186	6.40098
3434.77329	6.44459
3432.84473	6.50667
3430.91616	6.57308
3428.98760	6.62974
3427.05903	6.66208
3425.13047	6.68156
3423.20190	6.72366
3421.27334	6.78981
3419.34478	6.86172
3417.41621	6.91110
3415.48765	6.93349
3413.55908	6.97770
3411.63052	7.05939
3409.70195	7.10672
3407.77339	7.11035
3405.84482	7.13481
3403.91626	7.19483
3401.98770	7.25835
3400.05913	7.30732
3398.13057	7.36313
3396.20200	7.43394
3394.27344	7.49505
3392.34487	7.52505
3390.41631	7.54346
3388.48774	7.55387
3386.55918	7.56697
3384.63062	7.59906
3382.70205	7.61152
3380.77349	7.60480
3378.84492	7.64163
3376.91636	7.72327
3374.98779	7.77789
3373.05923	7.77645
3371.13066	7.76930
3369.20210	7.83007
3367.27354	7.92686
3365.34497	7.97397
3363.41641	7.98926
3361.48784	8.04187
3359.55928	8.11852
3357.63071	8.12226
3355.70215	8.05931
3353.77358	8.03648
3351.84502	8.08539
3349.91646	8.13450
3347.98789	8.19078
3346.05933	8.25528
3344.13076	8.24625
3342.20220	8.21983
3340.27363	8.27488
3338.34507	8.35190
3336.41650	8.31969
3334.48794	8.22361
3332.55937	8.16932
3330.63081	8.18110
3328.70225	8.21151
3326.77368	8.23695
3324.84512	8.26337
3322.91655	8.32182
3320.98799	8.44462
3319.05942	8.52199
3317.13086	8.51365
3315.20229	8.47201
3313.27373	8.44692
3311.34517	8.46957
3309.41660	8.50143
3307.48804	8.50631
3305.55947	8.46062
3303.63091	8.35795
3301.70234	8.28161
3299.77378	8.32352
3297.84521	8.40167
3295.91665	8.47219
3293.98809	8.53033
3292.05952	8.48126
3290.13096	8.38363
3288.20239	8.34442
3286.27383	8.36150
3284.34526	8.40325
3282.41670	8.49049
3280.48813	8.60378
3278.55957	8.71161
3276.63101	8.77434
3274.70244	8.71878
3272.77388	8.61151
3270.84531	8.57942
3268.91675	8.60443
3266.98818	8.60390
3265.05962	8.56935
3263.13105	8.50303
3261.20249	8.49670
3259.27393	8.60441
3257.34536	8.73835
3255.41680	8.78561
3253.48823	8.72070
3251.55967	8.65617
3249.63110	8.64935
3247.70254	8.58144
3245.77397	8.40111
3243.84541	8.32179
3241.91685	8.39379
3239.98828	8.40654
3238.05972	8.34632
3236.13115	8.37547
3234.20259	8.45404
3232.27402	8.44859
3230.34546	8.41593
3228.41689	8.43296
3226.48833	8.45858
3224.55977	8.44993
3222.63120	8.43128
3220.70264	8.36914
3218.77407	8.26058
3216.84551	8.23723
3214.91694	8.26721
3212.98838	8.20086
3211.05981	8.08667
3209.13125	8.05894
3207.20269	8.15742
3205.27412	8.30192
3203.34556	8.36568
3201.41699	8.28049
3199.48843	8.08291
3197.55986	7.89812
3195.63130	7.78887
3193.70273	7.74658
3191.77417	7.74872
3189.84561	7.75881
3187.91704	7.77367
3185.98848	7.78718
3184.05991	7.73869
3182.13135	7.63081
3180.20278	7.51857
3178.27422	7.40467
3176.34565	7.30117
3174.41709	7.25154
3172.48853	7.24622
3170.55996	7.19548
3168.63140	7.06883
3166.70283	6.94135
3164.77427	6.85634
3162.84570	6.81132
3160.91714	6.78036
3158.98857	6.73165
3157.06001	6.67191
3155.13145	6.60925
3153.20288	6.53548
3151.27432	6.48180
3149.34575	6.45359
3147.41719	6.39089
3145.48862	6.28379
3143.56006	6.18725
3141.63149	6.12304
3139.70293	6.05632
3137.77437	5.97201
3135.84580	5.89203
3133.91724	5.81809
3131.98867	5.74088
3130.06011	5.66289
3128.13154	5.59092
3126.20298	5.52392
3124.27441	5.45860
3122.34585	5.39779
3120.41729	5.33366
3118.48872	5.25464
3116.56016	5.17370
3114.63159	5.10573
3112.70303	5.04265
3110.77446	4.97267
3108.84590	4.89925
3106.91733	4.83281
3104.98877	4.76771
3103.06021	4.69348
3101.13164	4.61788
3099.20308	4.55084
3097.27451	4.49017
3095.34595	4.43087
3093.41738	4.37115
3091.48882	4.30854
3089.56025	4.24234
3087.63169	4.17800
3085.70312	4.11650
3083.77456	4.05338
3081.84600	3.98928
3079.91743	3.92683
3077.98887	3.86774
3076.06030	3.81097
3074.13174	3.75154
3072.20317	3.68853
3070.27461	3.62669
3068.34604	3.56912
3066.41748	3.51409
3064.48892	3.45886
3062.56035	3.40322
3060.63179	3.34849
3058.70322	3.29481
3056.77466	3.24105
3054.84609	3.18810
3052.91753	3.13700
3050.98896	3.08574
3049.06040	3.03429
3047.13184	2.98414
3045.20327	2.93478
3043.27471	2.88572
3041.34614	2.83698
3039.41758	2.78972
3037.48901	2.74389
3035.56045	2.69729
3033.63188	2.65059
3031.70332	2.60563
3029.77476	2.56134
3027.84619	2.51688
3025.91763	2.47310
3023.98906	2.43041
3022.06050	2.38909
3020.13193	2.34844
3018.20337	2.30751
3016.27480	2.26655
3014.34624	2.22611
3012.41768	2.18660
3010.48911	2.14791
3008.56055	2.11037
3006.63198	2.07428
3004.70342	2.03874
3002.77485	2.00348
3000.84629	1.96947
2998.91772	1.93670
2996.98916	1.90389
2995.06060	1.87104
2993.13203	1.83938
2991.20347	1.80919
2989.27490	1.77998
2987.34634	1.75112
2985.41777	1.72217
2983.48921	1.69353
2981.56064	1.66589
2979.63208	1.63951
2977.70352	1.61409
2975.77495	1.58893
2973.84639	1.56373
2971.91782	1.53874
2969.98926	1.51392
2968.06069	1.48932
2966.13213	1.46536
2964.20356	1.44184
2962.27500	1.41816
2960.34644	1.39414
2958.41787	1.37034
2956.48931	1.34727
2954.56074	1.32437
2952.63218	1.30113
2950.70361	1.27795
2948.77505	1.25526
2946.84648	1.23295
2944.91792	1.21102
2942.98936	1.19018
2941.06079	1.17027
2939.13223	1.15012
2937.20366	1.12976
2935.27510	1.10972
2933.34653	1.08930
2931.41797	1.06817
2929.48940	1.04743
2927.56084	1.02767
2925.63228	1.00845
2923.70371	0.98991
2921.77515	0.97252
2919.84658	0.95590
2917.91802	0.93958
2915.98945	0.92341
2914.06089	0.90719
2912.13232	0.89128
2910.20376	0.87621
2908.27520	0.86144
2906.34663	0.84664
2904.41807	0.83226
2902.48950	0.81844
2900.56094	0.80468
2898.63237	0.79102
2896.70381	0.77809
2894.77524	0.76562
2892.84668	0.75318
2890.91812	0.74110
2888.98955	0.72969
2887.06099	0.71902
2885.13242	0.70893
2883.20386	0.69906
2881.27529	0.68927
2879.34673	0.67963
2877.41816	0.67014
2875.48960	0.66044
2873.56104	0.65016
2871.63247	0.63942
2869.70391	0.62824
2867.77534	0.61652
2865.84678	0.60453
2863.91821	0.59260
2861.98965	0.58072
2860.06108	0.56878
2858.13252	0.55722
2856.20396	0.54652
2854.27539	0.53673
2852.34683	0.52795
2850.41826	0.52004
2848.48970	0.51245
2846.56113	0.50499
2844.63257	0.49771
2842.70400	0.49071
2840.77544	0.48408
2838.84687	0.47780
2836.91831	0.47176
2834.98975	0.46591
2833.06118	0.46004
2831.13262	0.45384
2829.20405	0.44762
2827.27549	0.44174
2825.34692	0.43595
2823.41836	0.42995
2821.48979	0.42385
2819.56123	0.41786
2817.63267	0.41195
2815.70410	0.40620
2813.77554	0.40073
2811.84697	0.39543
2809.91841	0.39006
2807.98984	0.38451
2806.06128	0.37906
2804.13271	0.37388
2802.20415	0.36874
2800.27559	0.36361
2798.34702	0.35873
2796.41846	0.35384
2794.48989	0.34881
2792.56133	0.34417
2790.63276	0.34002
2788.70420	0.33581
2786.77563	0.33132
2784.84707	0.32677
2782.91851	0.32236
2780.98994	0.31816
2779.06138	0.31414
2777.13281	0.31024
2775.20425	0.30644
2773.27568	0.30267
2771.34712	0.29888
2769.41855	0.29506
2767.48999	0.29128
2765.56143	0.28756
2763.63286	0.28386
2761.70430	0.28043
2759.77573	0.27729
2757.84717	0.27401
2755.91860	0.27066
2753.99004	0.26762
2752.06147	0.26490
2750.13291	0.26218
2748.20435	0.25914
2746.27578	0.25591
2744.34722	0.25288
2742.41865	0.25019
2740.49009	0.24782
2738.56152	0.24549
2736.63296	0.24287
2734.70439	0.24011
2732.77583	0.23748
2730.84727	0.23510
2728.91870	0.23291
2726.99014	0.23065
2725.06157	0.22820
2723.13301	0.22589
2721.20444	0.22382
2719.27588	0.22177
2717.34731	0.21976
2715.41875	0.21788
2713.49019	0.21600
2711.56162	0.21407
2709.63306	0.21225
2707.70449	0.21053
2705.77593	0.20883
2703.84736	0.20722
2701.91880	0.20561
2699.99023	0.20397
2698.06167	0.20249
2696.13311	0.20112
2694.20454	0.19976
2692.27598	0.19837
2690.34741	0.19699
2688.41885	0.19568
2686.49028	0.19441
2684.56172	0.19321
2682.63315	0.19206
2680.70459	0.19090
2678.77603	0.18976
2676.84746	0.18857
2674.91890	0.18739
2672.99033	0.18628
2671.06177	0.18522
2669.13320	0.18417
2667.20464	0.18304
2665.27607	0.18187
2663.34751	0.18085
2661.41895	0.17999
2659.49038	0.17908
2657.56182	0.17804
2655.63325	0.17700
2653.70469	0.17620
2651.77612	0.17566
2649.84756	0.17507
2647.91899	0.17437
2645.99043	0.17372
2644.06187	0.17315
2642.13330	0.17264
2640.20474	0.17215
2638.27617	0.17164
2636.34761	0.17108
2634.41904	0.17036
2632.49048	0.16960
2630.56191	0.16904
2628.63335	0.16859
2626.70479	0.16807
2624.77622	0.16759
2622.84766	0.16742
2620.91909	0.16746
2618.99053	0.16738
2617.06196	0.16712
2615.13340	0.16672
2613.20483	0.16625
2611.27627	0.16596
2609.34771	0.16587
2607.41914	0.16570
2605.49058	0.16549
2603.56201	0.16539
2601.63345	0.16539
2599.70488	0.16547
2597.77632	0.16558
2595.84775	0.16557
2593.91919	0.16550
2591.99062	0.16551
2590.06206	0.16558
2588.13350	0.16564
2586.20493	0.16568
2584.27637	0.16584
2582.34780	0.16612
2580.41924	0.16632
2578.49067	0.16646
2576.56211	0.16662
2574.63354	0.16679
2572.70498	0.16701
2570.77642	0.16743
2568.84785	0.16786
2566.91929	0.16808
2564.99072	0.16826
2563.06216	0.16864
2561.13359	0.16912
2559.20503	0.16960
2557.27646	0.16999
2555.34790	0.17023
2553.41934	0.17052
2551.49077	0.17104
2549.56221	0.17170
2547.63364	0.17235
2545.70508	0.17287
2543.77651	0.17328
2541.84795	0.17365
2539.91938	0.17416
2537.99082	0.17491
2536.06226	0.17571
2534.13369	0.17639
2532.20513	0.17703
2530.27656	0.17765
2528.34800	0.17825
2526.41943	0.17887
2524.49087	0.17946
2522.56230	0.18000
2520.63374	0.18053
2518.70518	0.18114
2516.77661	0.18189
2514.84805	0.18273
2512.91948	0.18362
2510.99092	0.18446
2509.06235	0.18505
2507.13379	0.18556
2505.20522	0.18632
2503.27666	0.18726
2501.34810	0.18811
2499.41953	0.18891
2497.49097	0.18980
2495.56240	0.19070
2493.63384	0.19143
2491.70527	0.19198
2489.77671	0.19254
2487.84814	0.19332
2485.91958	0.19427
2483.99102	0.19509
2482.06245	0.19578
2480.13389	0.19657
2478.20532	0.19750
2476.27676	0.19839
2474.34819	0.19923
2472.41963	0.20010
2470.49106	0.20103
2468.56250	0.20199
2466.63394	0.20280
2464.70537	0.20354
2462.77681	0.20442
2460.84824	0.20541
2458.91968	0.20639
2456.99111	0.20727
2455.06255	0.20794
2453.13398	0.20863
2451.20542	0.20950
2449.27686	0.21050
2447.34829	0.21159
2445.41973	0.21264
2443.49116	0.21355
2441.56260	0.21441
2439.63403	0.21537
2437.70547	0.21646
2435.77690	0.21754
2433.84834	0.21856
2431.91978	0.21957
2429.99121	0.22060
2428.06265	0.22155
2426.13408	0.22251
2424.20552	0.22358
2422.27695	0.22461
2420.34839	0.22548
2418.41982	0.22636
2416.49126	0.22739
2414.56270	0.22856
2412.63413	0.22982
2410.70557	0.23106
2408.77700	0.23221
2406.84844	0.23337
2404.91987	0.23459
2402.99131	0.23571
2401.06274	0.23685
2399.13418	0.23811
2397.20562	0.23935
2395.27705	0.24049
2393.34849	0.24156
2391.41992	0.24283
2389.49136	0.24471
2387.56279	0.24766
2385.63423	0.25258
2383.70566	0.26062
2381.77710	0.27200
2379.84854	0.28609
2377.91997	0.30246
2375.99141	0.32140
2374.06284	0.34349
2372.13428	0.36879
2370.20571	0.39670
2368.27715	0.42599
2366.34858	0.45430
2364.42002	0.47852
2362.49146	0.49675
2360.56289	0.50799
2358.63433	0.50858
2356.70576	0.49604
2354.77720	0.47314
2352.84863	0.44345
2350.92007	0.41299
2348.99150	0.39466
2347.06294	0.39563
2345.13437	0.41575
2343.20581	0.44273
2341.27725	0.45653
2339.34868	0.45638
2337.42012	0.45198
2335.49155	0.44799
2333.56299	0.44430
2331.63442	0.44130
2329.70586	0.43850
2327.77729	0.43388
2325.84873	0.42647
2323.92017	0.41792
2321.99160	0.40930
2320.06304	0.39948
2318.13447	0.38890
2316.20591	0.38003
2314.27734	0.37391
2312.34878	0.36983
2310.42021	0.36634
2308.49165	0.36180
2306.56309	0.35599
2304.63452	0.35052
2302.70596	0.34700
2300.77739	0.34517
2298.84883	0.34367
2296.92026	0.34221
2294.99170	0.34102
2293.06313	0.33988
2291.13457	0.33868
2289.20601	0.33754
2287.27744	0.33659
2285.34888	0.33590
2283.42031	0.33596
2281.49175	0.33742
2279.56318	0.34015
2277.63462	0.34314
2275.70605	0.34571
2273.77749	0.34795
2271.84893	0.35007
2269.92036	0.35214
2267.99180	0.35409
2266.06323	0.35577
2264.13467	0.35732
2262.20610	0.35896
2260.27754	0.36069
2258.34897	0.36237
2256.42041	0.36399
2254.49185	0.36567
2252.56328	0.36731
2250.63472	0.36892
2248.70615	0.37064
2246.77759	0.37243
2244.84902	0.37428
2242.92046	0.37629
2240.99189	0.37837
2239.06333	0.38034
2237.13477	0.38225
2235.20620	0.38423
2233.27764	0.38640
2231.34907	0.38869
2229.42051	0.39076
2227.49194	0.39271
2225.56338	0.39483
2223.63481	0.39706
2221.70625	0.39929
2219.77769	0.40156
2217.84912	0.40380
2215.92056	0.40590
2213.99199	0.40798
2212.06343	0.41010
2210.13486	0.41217
2208.20630	0.41414
2206.27773	0.41610
2204.34917	0.41816
2202.42061	0.42024
2200.49204	0.42228
2198.56348	0.42422
2196.63491	0.42613
2194.70635	0.42819
2192.77778	0.43033
2190.84922	0.43234
2188.92065	0.43422
2186.99209	0.43605
2185.06353	0.43778
2183.13496	0.43932
2181.20640	0.44077
2179.27783	0.44225
2177.34927	0.44386
2175.42070	0.44550
2173.49214	0.44699
2171.56357	0.44839
2169.63501	0.44990
2167.70645	0.45140
2165.77788	0.45261
2163.84932	0.45373
2161.92075	0.45495
2159.99219	0.45600
2158.06362	0.45679
2156.13506	0.45757
2154.20649	0.45846
2152.27793	0.45940
2150.34937	0.46019
2148.42080	0.46075
2146.49224	0.46120
2144.56367	0.46160
2142.63511	0.46204
2140.70654	0.46248
2138.77798	0.46273
2136.84941	0.46279
2134.92085	0.46283
2132.99229	0.46289
2131.06372	0.46277
2129.13516	0.46233
2127.20659	0.46188
2125.27803	0.46169
2123.34946	0.46145
2121.42090	0.46101
2119.49233	0.46046
2117.56377	0.45978
2115.63521	0.45903
2113.70664	0.45823
2111.77808	0.45728
2109.84951	0.45627
2107.92095	0.45531
2105.99238	0.45423
2104.06382	0.45295
2102.13525	0.45153
2100.20669	0.45005
2098.27812	0.44858
2096.34956	0.44714
2094.42100	0.44562
2092.49243	0.44408
2090.56387	0.44256
2088.63530	0.44084
2086.70674	0.43885
2084.77817	0.43677
2082.84961	0.43479
2080.92104	0.43281
2078.99248	0.43087
2077.06392	0.42891
2075.13535	0.42678
2073.20679	0.42455
2071.27822	0.42233
2069.34966	0.42007
2067.42109	0.41777
2065.49253	0.41550
2063.56396	0.41314
2061.63540	0.41064
2059.70684	0.40810
2057.77827	0.40556
2055.84971	0.40300
2053.92114	0.40042
2051.99258	0.39783
2050.06401	0.39515
2048.13545	0.39246
2046.20688	0.38981
2044.27832	0.38716
2042.34976	0.38452
2040.42119	0.38184
2038.49263	0.37909
2036.56406	0.37630
2034.63550	0.37356
2032.70693	0.37083
2030.77837	0.36804
2028.84980	0.36517
2026.92124	0.36225
2024.99268	0.35933
2023.06411	0.35656
2021.13555	0.35397
2019.20698	0.35154
2017.27842	0.34909
2015.34985	0.34623
2013.42129	0.34311
2011.49272	0.34017
2009.56416	0.33750
2007.63560	0.33489
2005.70703	0.33220
2003.77847	0.32952
2001.84990	0.32693
1999.92134	0.32444
1997.99277	0.32194
1996.06421	0.31941
1994.13564	0.31712
1992.20708	0.31502
1990.27852	0.31249
1988.34995	0.30966
1986.42139	0.30697
1984.49282	0.30441
1982.56426	0.30199
1980.63569	0.29970
1978.70713	0.29742
1976.77856	0.29515
1974.85000	0.29295
1972.92144	0.29082
1970.99287	0.28885
1969.06431	0.28717
1967.13574	0.28549
1965.20718	0.28335
1963.27861	0.28103
1961.35005	0.27901
1959.42148	0.27713
1957.49292	0.27528
1955.56436	0.27356
1953.63579	0.27193
1951.70723	0.27021
1949.77866	0.26847
1947.85010	0.26695
1945.92153	0.26574
1943.99297	0.26480
1942.06440	0.26357
1940.13584	0.26158
1938.20728	0.25956
1936.27871	0.25807
1934.35015	0.25680
1932.42158	0.25547
1930.49302	0.25413
1928.56445	0.25296
1926.63589	0.25199
1924.70732	0.25145
1922.77876	0.25108
1920.85020	0.25028
1918.92163	0.24938
1916.99307	0.24839
1915.06450	0.24694
1913.13594	0.24571
1911.20737	0.24518
1909.27881	0.24487
1907.35024	0.24423
1905.42168	0.24331
1903.49312	0.24251
1901.56455	0.24186
1899.63599	0.24133
1897.70742	0.24102
1895.77886	0.24090
1893.85029	0.24067
1891.92173	0.24043
1889.99316	0.24053
1888.06460	0.24032
1886.13604	0.23964
1884.20747	0.23911
1882.27891	0.23881
1880.35034	0.23867
1878.42178	0.23861
1876.49321	0.23854
1874.56465	0.23850
1872.63608	0.23885
1870.70752	0.24006
1868.77896	0.24176
1866.85039	0.24197
1864.92183	0.24080
1862.99326	0.24013
1861.06470	0.24023
1859.13613	0.24052
1857.20757	0.24064
1855.27900	0.24077
1853.35044	0.24106
1851.42187	0.24168
1849.49331	0.24273
1847.56475	0.24424
1845.63618	0.24611
1843.70762	0.24754
1841.77905	0.24742
1839.85049	0.24693
1837.92192	0.24751
1835.99336	0.24850
1834.06479	0.24943
1832.13623	0.25093
1830.20767	0.25339
1828.27910	0.25522
1826.35054	0.25586
1824.42197	0.25668
1822.49341	0.25732
1820.56484	0.25795
1818.63628	0.25918
1816.70771	0.26088
1814.77915	0.26253
1812.85059	0.26453
1810.92202	0.26698
1808.99346	0.26900
1807.06489	0.27048
1805.13633	0.27213
1803.20776	0.27466
1801.27920	0.27785
1799.35063	0.28095
1797.42207	0.28344
1795.49351	0.28610
1793.56494	0.28971
1791.63638	0.29369
1789.70781	0.29594
1787.77925	0.29724
1785.85068	0.30002
1783.92212	0.30393
1781.99355	0.30820
1780.06499	0.31256
1778.13643	0.31670
1776.20786	0.32080
1774.27930	0.32601
1772.35073	0.33314
1770.42217	0.33947
1768.49360	0.34353
1766.56504	0.34741
1764.63647	0.35215
1762.70791	0.35831
1760.77935	0.36599
1758.85078	0.37283
1756.92222	0.37977
1754.99365	0.38724
1753.06509	0.39450
1751.13652	0.40420
1749.20796	0.41596
1747.27939	0.42604
1745.35083	0.43425
1743.42227	0.44332
1741.49370	0.45382
1739.56514	0.46622
1737.63657	0.47859
1735.70801	0.49037
1733.77944	0.50831
1731.85088	0.52746
1729.92231	0.54115
1727.99375	0.55508
1726.06519	0.57095
1724.13662	0.58938
1722.20806	0.60972
1720.27949	0.62919
1718.35093	0.65298
1716.42236	0.68605
1714.49380	0.71470
1712.56523	0.73754
1710.63667	0.76087
1708.70811	0.78709
1706.77954	0.81750
1704.85098	0.85327
1702.92241	0.88515
1700.99385	0.91814
1699.06528	0.96677
1697.13672	1.00998
1695.20815	1.05268
1693.27959	1.09440
1691.35103	1.12983
1689.42246	1.17195
1687.49390	1.21653
1685.56533	1.26051
1683.63677	1.32692
1681.70820	1.39325
1679.77964	1.43583
1677.85107	1.47784
1675.92251	1.52768
1673.99395	1.58909
1672.06538	1.64398
1670.13682	1.69814
1668.20825	1.76563
1666.27969	1.82034
1664.35112	1.87012
1662.42256	1.93525
1660.49399	2.00796
1658.56543	2.06512
1656.63687	2.11274
1654.70830	2.15795
1652.77974	2.22201
1650.85117	2.27376
1648.92261	2.29101
1646.99404	2.31559
1645.06548	2.33883
1643.13691	2.35119
1641.20835	2.35740
1639.27979	2.36503
1637.35122	2.37203
1635.42266	2.37022
1633.49409	2.35404
1631.56553	2.33335
1629.63696	2.31250
1627.70840	2.28136
1625.77983	2.24477
1623.85127	2.19937
1621.92271	2.14377
1619.99414	2.09463
1618.06558	2.04964
1616.13701	1.98505
1614.20845	1.91513
1612.27988	1.86152
1610.35132	1.80810
1608.42275	1.75102
1606.49419	1.69439
1604.56562	1.64181
1602.63706	1.59180
1600.70850	1.54403
1598.77993	1.50035
1596.85137	1.45942
1594.92280	1.42004
1592.99424	1.38249
1591.06567	1.34848
1589.13711	1.31711
1587.20854	1.28807
1585.27998	1.26150
1583.35142	1.23736
1581.42285	1.21575
1579.49429	1.19779
1577.56572	1.18313
1575.63716	1.16622
1573.70859	1.15044
1571.78003	1.14088
1569.85146	1.13287
1567.92290	1.12347
1565.99434	1.11602
1564.06577	1.11177
1562.13721	1.11025
1560.20864	1.11359
1558.28008	1.12412
1556.35151	1.12945
1554.42295	1.13031
1552.49438	1.13244
1550.56582	1.13376
1548.63726	1.13220
1546.70869	1.12771
1544.78013	1.12076
1542.85156	1.11125
1540.92300	1.09535
1538.99443	1.06374
1537.06587	1.03623
1535.13730	1.01856
1533.20874	0.99761
1531.28018	0.97428
1529.35161	0.95668
1527.42305	0.94141
1525.49448	0.92646
1523.56592	0.91387
1521.63735	0.90183
1519.70879	0.88877
1517.78022	0.87748
1515.85166	0.86430
1513.92310	0.84957
1511.99453	0.83699
1510.06597	0.82702
1508.13740	0.81891
1506.20884	0.80412
1504.28027	0.78664
1502.35171	0.77622
1500.42314	0.76908
1498.49458	0.76268
1496.56602	0.75429
1494.63745	0.74456
1492.70889	0.73758
1490.78032	0.73309
1488.85176	0.72759
1486.92319	0.72035
1484.99463	0.71406
1483.06606	0.70970
1481.13750	0.70665
1479.20894	0.70465
1477.28037	0.70431
1475.35181	0.70563
1473.42324	0.70744
1471.49468	0.70662
1469.56611	0.70297
1467.63755	0.70016
1465.70898	0.69929
1463.78042	0.69883
1461.85186	0.69821
1459.92329	0.69938
1457.99473	0.70282
1456.06616	0.70409
1454.13760	0.70049
1452.20903	0.69666
1450.28047	0.69358
1448.35190	0.69088
1446.42334	0.68783
1444.49478	0.68467
1442.56621	0.68196
1440.63765	0.67953
1438.70908	0.67741
1436.78052	0.67464
1434.85195	0.67017
1432.92339	0.66631
1430.99482	0.66443
1429.06626	0.66371
1427.13770	0.66345
1425.20913	0.66415
1423.28057	0.66572
1421.35200	0.66720
1419.42344	0.66851
1417.49487	0.66839
1415.56631	0.66649
1413.63774	0.66524
1411.70918	0.66543
1409.78062	0.66652
1407.85205	0.66827
1405.92349	0.67071
1403.99492	0.67269
1402.06636	0.67316
1400.13779	0.67307
1398.20923	0.67248
1396.28066	0.67024
1394.35210	0.66583
1392.42354	0.66020
1390.49497	0.65517
1388.56641	0.65088
1386.63784	0.64589
1384.70928	0.63983
1382.78071	0.63403
1380.85215	0.62894
1378.92358	0.62464
1376.99502	0.62163
1375.06646	0.62012
1373.13789	0.61914
1371.20933	0.61801
1369.28076	0.61707
1367.35220	0.61586
1365.42363	0.61433
1363.49507	0.61305
1361.56650	0.61147
1359.63794	0.60934
1357.70937	0.60748
1355.78081	0.60592
1353.85225	0.60450
1351.92368	0.60349
1349.99512	0.60286
1348.06655	0.60213
1346.13799	0.60107
1344.20942	0.60008
1342.28086	0.59967
1340.35229	0.59983
1338.42373	0.59960
1336.49517	0.59855
1334.56660	0.59751
1332.63804	0.59709
1330.70947	0.59728
1328.78091	0.59778
1326.85234	0.59852
1324.92378	0.59942
1322.99521	0.60039
1321.06665	0.60148
1319.13809	0.60251
1317.20952	0.60307
1315.28096	0.60321
1313.35239	0.60297
1311.42383	0.60231
1309.49526	0.60155
1307.56670	0.60085
1305.63813	0.60020
1303.70957	0.59972
1301.78101	0.59929
1299.85244	0.59843
1297.92388	0.59707
1295.99531	0.59559
1294.06675	0.59428
1292.13818	0.59308
1290.20962	0.59184
1288.28105	0.59046
1286.35249	0.58899
1284.42393	0.58744
1282.49536	0.58585
1280.56680	0.58441
1278.63823	0.58316
1276.70967	0.58191
1274.78110	0.58067
1272.85254	0.57963
1270.92397	0.57876
1268.99541	0.57789
1267.06685	0.57704
1265.13828	0.57603
1263.20972	0.57480
1261.28115	0.57366
1259.35259	0.57284
1257.42402	0.57228
1255.49546	0.57198
1253.56689	0.57192
1251.63833	0.57194
1249.70977	0.57199
1247.78120	0.57194
1245.85264	0.57162
1243.92407	0.57103
1241.99551	0.57008
1240.06694	0.56861
1238.13838	0.56652
1236.20981	0.56395
1234.28125	0.56140
1232.35269	0.55909
1230.42412	0.55680
1228.49556	0.55456
1226.56699	0.55243
1224.63843	0.55038
1222.70986	0.54842
1220.78130	0.54657
1218.85273	0.54489
1216.92417	0.54343
1214.99561	0.54222
1213.06704	0.54131
1211.13848	0.54059
1209.20991	0.53983
1207.28135	0.53896
1205.35278	0.53798
1203.42422	0.53692
1201.49565	0.53585
1199.56709	0.53486
1197.63853	0.53398
1195.70996	0.53326
1193.78140	0.53263
1191.85283	0.53199
1189.92427	0.53135
1187.99570	0.53077
1186.06714	0.53043
1184.13857	0.53049
1182.21001	0.53103
1180.28145	0.53209
1178.35288	0.53350
1176.42432	0.53500
1174.49575	0.53625
1172.56719	0.53703
1170.63862	0.53736
1168.71006	0.53760
1166.78149	0.53791
1164.85293	0.53799
1162.92437	0.53771
1160.99580	0.53731
1159.06724	0.53700
1157.13867	0.53666
1155.21011	0.53597
1153.28154	0.53486
1151.35298	0.53339
1149.42441	0.53146
1147.49585	0.52913
1145.56729	0.52658
1143.63872	0.52396
1141.71016	0.52160
1139.78159	0.51991
1137.85303	0.51894
1135.92446	0.51835
1133.99590	0.51811
1132.06733	0.51837
1130.13877	0.51879
1128.21021	0.51887
1126.28164	0.51850
1124.35308	0.51796
1122.42451	0.51769
1120.49595	0.51776
1118.56738	0.51790
1116.63882	0.51815
1114.71025	0.51865
1112.78169	0.51932
1110.85312	0.52009
1108.92456	0.52099
1106.99600	0.52186
1105.06743	0.52254
1103.13887	0.52326
1101.21030	0.52430
1099.28174	0.52570
1097.35317	0.52762
1095.42461	0.53029
1093.49604	0.53386
1091.56748	0.53852
1089.63892	0.54443
1087.71035	0.55161
1085.78179	0.55981
1083.85322	0.56829
1081.92466	0.57608
1079.99609	0.58211
1078.06753	0.58512
1076.13896	0.58464
1074.21040	0.58151
1072.28184	0.57646
1070.35327	0.56960
1068.42471	0.56187
1066.49614	0.55447
1064.56758	0.54791
1062.63901	0.54238
1060.71045	0.53753
1058.78188	0.53296
1056.85332	0.52886
1054.92476	0.52524
1052.99619	0.52204
1051.06763	0.51964
1049.13906	0.51799
1047.21050	0.51656
1045.28193	0.51544
1043.35337	0.51494
1041.42480	0.51479
1039.49624	0.51459
1037.56768	0.51446
1035.63911	0.51454
1033.71055	0.51420
1031.78198	0.51312
1029.85342	0.51176
1027.92485	0.51021
1025.99629	0.50833
1024.06772	0.50665
1022.13916	0.50567
1020.21060	0.50519
1018.28203	0.50498
1016.35347	0.50490
1014.42490	0.50464
1012.49634	0.50423
1010.56777	0.50396
1008.63921	0.50388
1006.71064	0.50409
1004.78208	0.50492
1002.85352	0.50660
1000.92495	0.50936
998.99639	0.51303
997.06782	0.51717
995.13926	0.52151
993.21069	0.52562
991.28213	0.52886
989.35356	0.53090
987.42500	0.53191
985.49644	0.53219
983.56787	0.53202
981.63931	0.53182
979.71074	0.53207
977.78218	0.53315
975.85361	0.53507
973.92505	0.53750
971.99648	0.54027
970.06792	0.54346
968.13936	0.54705
966.21079	0.55095
964.28223	0.55524
962.35366	0.56008
960.42510	0.56539
958.49653	0.57084
956.56797	0.57630
954.63940	0.58197
952.71084	0.58803
950.78228	0.59453
948.85371	0.60146
946.92515	0.60826
944.99658	0.61446
943.06802	0.62035
941.13945	0.62649
939.21089	0.63315
937.28232	0.63972
935.35376	0.64551
933.42520	0.65075
931.49663	0.65608
929.56807	0.66198
927.63950	0.66801
925.71094	0.67394
923.78237	0.68029
921.85381	0.68700
919.92524	0.69384
917.99668	0.70083
916.06812	0.70792
914.13955	0.71524
912.21099	0.72309
910.28242	0.73124
908.35386	0.73998
906.42529	0.74998
904.49673	0.75994
902.56816	0.76860
900.63960	0.77745
898.71104	0.78818
896.78247	0.79981
894.85391	0.80947
892.92534	0.81627
890.99678	0.82383
889.06821	0.83537
887.13965	0.84929
885.21108	0.86246
883.28252	0.87429
881.35396	0.88613
879.42539	0.89745
877.49683	0.90697
875.56826	0.91577
873.63970	0.92583
871.71113	0.93877
869.78257	0.95361
867.85400	0.96767
865.92544	0.98072
863.99687	0.99336
862.06831	1.00494
860.13975	1.01552
858.21118	1.02676
856.28262	1.03851
854.35405	1.04900
852.42549	1.05974
850.49692	1.07285
848.56836	1.08604
846.63979	1.09838
844.71123	1.11299
842.78267	1.12879
840.85410	1.14039
838.92554	1.14797
836.99697	1.15796
835.06841	1.17195
833.13984	1.18413
831.21128	1.19118
829.28271	1.20094
827.35415	1.21919
825.42559	1.23986
823.49702	1.25637
821.56846	1.26405
819.63989	1.27149
817.71133	1.29046
815.78276	1.31177
813.85420	1.32925
811.92563	1.35799
809.99707	1.39506
808.06851	1.40811
806.13994	1.39997
804.21138	1.40934
802.28281	1.46197
800.35425	1.52755
798.42568	1.52888
796.49712	1.50897
794.56855	1.55720
792.63999	1.63069
790.71143	1.61890
788.78286	1.59605
786.85430	1.64289
784.92573	1.66679
782.99717	1.64671
781.06860	1.66982
779.14004	1.74453
777.21147	1.71770
775.28291	1.65854
773.35435	1.76674
771.42578	1.93060
769.49722	1.84163
767.56865	1.79481
765.64009	1.65998
763.71152	1.54525
761.78296	1.77567
759.85439	4.55913
757.92583	4.54755
755.99727	4.53598
754.06870	1.56278
752.14014	1.19918
750.21157	1.08342
748.28301	1.14924
746.35444	1.25489
744.42588	1.05843
742.49731	0.86239
740.56875	0.79336
738.64019	0.80226
736.71162	0.75209
734.78306	0.66863
732.85449	0.68132
730.92593	0.74665
728.99736	0.68187
727.06880	0.56011
725.14023	0.46279
723.21167	0.36541
721.28311	0.29555
719.35454	0.25041
717.42598	0.22084
715.49741	0.26784
713.56885	0.42522
711.64028	0.52994
709.71172	0.36403
707.78315	0.14370
705.85459	-0.05964
703.92603	-0.23750
701.99746	-0.19070
700.06890	0.02349
698.14033	0.07916
696.21177	0.00343
694.28320	-0.12468
692.35464	-0.20318
690.42607	-0.11566
688.49751	0.03946
686.56895	0.14665
684.64038	0.21102
682.71182	0.14106
680.78325	-0.04975
678.85469	-0.19030
676.92612	-0.17823
674.99756	-0.10583
673.06899	-0.03507
671.14043	0.07082
669.21187	0.15966
667.28330	0.12694
665.35474	0.06753
663.42617	0.08114
661.49761	0.12550
659.56904	0.12982
657.64048	0.07647
655.71191	0.07321
653.78335	0.11248
651.85479	0.07256
649.92622	-0.07119
647.99766	-0.09142
646.06909	0.00909
644.14053	0.13135
642.21196	0.19309
640.28340	0.18636
638.35483	0.13858
636.42627	0.06073
634.49771	-0.00950
632.56914	-0.04998
630.64058	-0.07977
628.71201	-0.08862
626.78345	-0.04615
624.85488	0.05590
622.92632	0.09131
620.99775	0.05030
619.06919	0.04257
617.14062	0.05415
615.21206	0.06032
613.28350	0.09208
611.35493	0.11983
609.42637	0.08747
607.49780	0.08061
605.56924	0.18431
603.64067	0.25467
601.71211	0.17960
599.78354	0.09322
597.85498	0.03653
595.92642	0.01757
593.99785	0.08143
592.06929	0.12417
590.14072	0.07348
588.21216	-0.00190
586.28359	-0.04189
584.35503	0.01242
582.42646	0.10948
580.49790	0.17780
578.56934	0.23000
576.64077	0.20616
574.71221	0.12405
572.78364	0.06512
570.85508	0.02759
568.92651	0.00629
566.99795	-0.00906
565.06938	-0.03396
563.14082	-0.04549
561.21226	-0.04583
559.28369	-0.03877
557.35513	-0.00514
555.42656	0.08359
553.49800	0.17732
551.56943	0.17194
549.64087	0.10100
547.71230	0.04355
545.78374	0.00315
543.85518	-0.03300
541.92661	-0.06542
539.99805	-0.06511
538.06948	-0.01719
536.14092	0.03480
534.21235	0.07373
532.28379	0.08222
530.35522	0.06274
528.42666	0.03815
526.49810	0.01497
524.56953	0.01658
522.64097	0.02477
520.71240	-0.01307
518.78384	-0.06094
516.85527	-0.02708
514.92671	0.04017
512.99814	0.08034
511.06958	0.08351
509.14102	0.06479
507.21245	0.03848
505.28389	-0.00228
503.35532	-0.01740
501.42676	0.01368
499.49819	0.09222
