3997.91411	0.06539
3995.98555	0.06598
3994.05698	0.06634
3992.12842	0.06668
3990.19985	0.06689
3988.27129	0.06720
3986.34272	0.06768
3984.41416	0.06785
3982.48560	0.06779
3980.55703	0.06796
3978.62847	0.06832
3976.69990	0.06867
3974.77134	0.06889
3972.84277	0.06917
3970.91421	0.06963
3968.98564	0.06998
3967.05708	0.07013
3965.12852	0.07027
3963.19995	0.07031
3961.27139	0.07017
3959.34282	0.07005
3957.41426	0.07011
3955.48569	0.07014
3953.55713	0.07018
3951.62856	0.07053
3949.70000	0.07134
3947.77144	0.07222
3945.84287	0.07252
3943.91431	0.07248
3941.98574	0.07226
3940.05718	0.07141
3938.12861	0.07052
3936.20005	0.07027
3934.27148	0.07053
3932.34292	0.07112
3930.41436	0.07169
3928.48579	0.07151
3926.55723	0.07082
3924.62866	0.07059
3922.70010	0.07072
3920.77153	0.07074
3918.84297	0.07100
3916.91440	0.07141
3914.98584	0.07087
3913.05728	0.06943
3911.12871	0.06846
3909.20015	0.06846
3907.27158	0.06915
3905.34302	0.07068
3903.41445	0.07266
3901.48589	0.07367
3899.55732	0.07348
3897.62876	0.07254
3895.70020	0.07144
3893.77163	0.07129
3891.84307	0.07212
3889.91450	0.07229
3887.98594	0.07151
3886.05737	0.07180
3884.12881	0.07289
3882.20024	0.07303
3880.27168	0.07292
3878.34312	0.07236
3876.41455	0.07143
3874.48599	0.07200
3872.55742	0.07375
3870.62886	0.07529
3868.70029	0.07621
3866.77173	0.07607
3864.84316	0.07630
3862.91460	0.07681
3860.98604	0.07566
3859.05747	0.07429
3857.12891	0.07469
3855.20034	0.07666
3853.27178	0.07973
3851.34321	0.08141
3849.41465	0.07960
3847.48608	0.07759
3845.55752	0.07719
3843.62896	0.07851
3841.70039	0.08050
3839.77183	0.08228
3837.84326	0.08386
3835.91470	0.08445
3833.98613	0.08408
3832.05757	0.08380
3830.12900	0.08361
3828.20044	0.08373
3826.27187	0.08448
3824.34331	0.08530
3822.41475	0.08677
3820.48618	0.08970
3818.55762	0.09115
3816.62905	0.09062
3814.70049	0.09013
3812.77192	0.08950
3810.84336	0.08921
3808.91479	0.09031
3806.98623	0.09284
3805.05767	0.09528
3803.12910	0.09735
3801.20054	0.10000
3799.27197	0.10104
3797.34341	0.10044
3795.41484	0.10042
3793.48628	0.10029
3791.55771	0.10016
3789.62915	0.10087
3787.70059	0.10220
3785.77202	0.10381
3783.84346	0.10547
3781.91489	0.10716
3779.98633	0.10937
3778.05776	0.11155
3776.12920	0.11221
3774.20063	0.11235
3772.27207	0.11368
3770.34351	0.11658
3768.41494	0.11992
3766.48638	0.12198
3764.55781	0.12325
3762.62925	0.12456
3760.70068	0.12666
3758.77212	0.12997
3756.84355	0.13303
3754.91499	0.13525
3752.98643	0.13857
3751.05786	0.14426
3749.12930	0.14964
3747.20073	0.15150
3745.27217	0.15323
3743.34360	0.15735
3741.41504	0.16109
3739.48647	0.16397
3737.55791	0.16897
3735.62935	0.17731
3733.70078	0.18586
3731.77222	0.19049
3729.84365	0.19360
3727.91509	0.19777
3725.98652	0.20332
3724.05796	0.20918
3722.12939	0.21436
3720.20083	0.21910
3718.27227	0.22369
3716.34370	0.22859
3714.41514	0.23475
3712.48657	0.24488
3710.55801	0.26072
3708.62944	0.27614
3706.70088	0.28703
3704.77231	0.29724
3702.84375	0.30984
3700.91519	0.32630
3698.98662	0.34377
3697.05806	0.36020
3695.12949	0.37800
3693.20093	0.39740
3691.27236	0.41879
3689.34380	0.44564
3687.41523	0.47744
3685.48667	0.50579
3683.55811	0.53094
3681.62954	0.55820
3679.70098	0.58924
3677.77241	0.62247
3675.84385	0.66208
3673.91528	0.71360
3671.98672	0.75542
3670.05815	0.79323
3668.12959	0.84389
3666.20103	0.88973
3664.27246	0.92880
3662.34390	0.97148
3660.41533	1.01809
3658.48677	1.06440
3656.55820	1.11341
3654.62964	1.16728
3652.70107	1.21315
3650.77251	1.25445
3648.84395	1.31038
3646.91538	1.37588
3644.98682	1.42391
3643.05825	1.46187
3641.12969	1.50138
3639.20112	1.54525
3637.27256	1.58976
3635.34399	1.63329
3633.41543	1.67733
3631.48687	1.71937
3629.55830	1.76117
3627.62974	1.81307
3625.70117	1.86150
3623.77261	1.89545
3621.84404	1.92843
3619.91548	1.96628
3617.98691	2.01089
3616.05835	2.05272
3614.12979	2.08815
3612.20122	2.12670
3610.27266	2.16640
3608.34409	2.20644
3606.41553	2.24811
3604.48696	2.28608
3602.55840	2.32075
3600.62983	2.35898
3598.70127	2.39990
3596.77271	2.43940
3594.84414	2.47993
3592.91558	2.52206
3590.98701	2.56181
3589.05845	2.59928
3587.12988	2.64361
3585.20132	2.69110
3583.27275	2.73030
3581.34419	2.76616
3579.41562	2.80436
3577.48706	2.84476
3575.55850	2.88591
3573.62993	2.92849
3571.70137	2.97098
3569.77280	3.01241
3567.84424	3.05652
3565.91567	3.10875
3563.98711	3.15756
3562.05854	3.19735
3560.12998	3.23831
3558.20142	3.28256
3556.27285	3.32716
3554.34429	3.36948
3552.41572	3.41257
3550.48716	3.46136
3548.55859	3.51374
3546.63003	3.56452
3544.70146	3.61324
3542.77290	3.65885
3540.84434	3.70162
3538.91577	3.74468
3536.98721	3.78908
3535.05864	3.83706
3533.13008	3.88663
3531.20151	3.93449
3529.27295	3.98098
3527.34438	4.02796
3525.41582	4.07540
3523.48726	4.12545
3521.55869	4.17872
3519.63013	4.22761
3517.70156	4.27189
3515.77300	4.31556
3513.84443	4.35796
3511.91587	4.40330
3509.98730	4.45790
3508.05874	4.51379
3506.13018	4.55912
3504.20161	4.60004
3502.27305	4.65100
3500.34448	4.70636
3498.41592	4.75206
3496.48735	4.79905
3494.55879	4.85160
3492.63022	4.89579
3490.70166	4.93426
3488.77310	4.97900
3486.84453	5.03120
3484.91597	5.08445
3482.98740	5.13141
3481.05884	5.17552
3479.13027	5.22654
3477.20171	5.27992
3475.27314	5.32263
3473.34458	5.35996
3471.41602	5.41127
3469.48745	5.47236
3467.55889	5.52554
3465.63032	5.57039
3463.70176	5.61100
3461.77319	5.65479
3459.84463	5.71116
3457.91606	5.76642
3455.98750	5.81444
3454.05894	5.86784
3452.13037	5.92325
3450.20181	5.96707
3448.27324	6.00417
3446.34468	6.05349
3444.41611	6.11163
3442.48755	6.16690
3440.55898	6.20873
3438.63042	6.23567
3436.70186	6.26915
3434.77329	6.32832
3432.84473	6.40206
3430.91616	6.45925
3428.98760	6.49555
3427.05903	6.52302
3425.13047	6.55672
3423.20190	6.59688
3421.27334	6.64535
3419.34478	6.71356
3417.41621	6.77476
3415.48765	6.80528
3413.55908	6.84886
3411.63052	6.92997
3409.70195	6.99241
3407.77339	7.02169
3405.84482	7.05353
3403.91626	7.10608
3401.98770	7.15451
3400.05913	7.16833
3398.13057	7.16866
3396.20200	7.20173
3394.27344	7.28203
3392.34487	7.34223
3390.41631	7.34686
3388.48774	7.33982
3386.55918	7.36537
3384.63062	7.42589
3382.70205	7.49696
3380.77349	7.53469
3378.84492	7.52009
3376.91636	7.51125
3374.98779	7.54553
3373.05923	7.61562
3371.13066	7.65943
3369.20210	7.66063
3367.27354	7.69934
3365.34497	7.78040
3363.41641	7.81499
3361.48784	7.80051
3359.55928	7.77095
3357.63071	7.72221
3355.70215	7.71155
3353.77358	7.77709
3351.84502	7.89891
3349.91646	7.98050
3347.98789	7.95488
3346.05933	7.90274
3344.13076	7.91342
3342.20220	7.93059
3340.27363	7.88794
3338.34507	7.91811
3336.41650	8.04970
3334.48794	8.11628
3332.55937	8.02687
3330.63081	7.90455
3328.70225	7.87218
3326.77368	7.91749
3324.84512	7.99311
3322.91655	8.06535
3320.98799	8.10189
3319.05942	8.11204
3317.13086	8.11174
3315.20229	8.09234
3313.27373	8.10312
3311.34517	8.09839
3309.41660	8.05374
3307.48804	8.06940
3305.55947	8.13290
3303.63091	8.18610
3301.70234	8.23817
3299.77378	8.32487
3297.84521	8.32757
3295.91665	8.18846
3293.98809	8.07998
3292.05952	8.06537
3290.13096	8.10413
3288.20239	8.18764
3286.27383	8.24962
3284.34526	8.18560
3282.41670	8.07912
3280.48813	8.04941
3278.55957	8.12088
3276.63101	8.20314
3274.70244	8.18922
3272.77388	8.10843
3270.84531	8.03948
3268.91675	8.04130
3266.98818	8.10085
3265.05962	8.17338
3263.13105	8.20721
3261.20249	8.15803
3259.27393	8.05805
3257.34536	7.98801
3255.41680	7.99061
3253.48823	8.05740
3251.55967	8.10844
3249.63110	8.07395
3247.70254	8.03092
3245.77397	8.05764
3243.84541	8.14946
3241.91685	8.20925
3239.98828	8.16294
3238.05972	8.08369
3236.13115	8.06790
3234.20259	8.11454
3232.27402	8.13485
3230.34546	8.11946
3228.41689	8.08754
3226.48833	8.04031
3224.55977	8.03279
3222.63120	8.05724
3220.70264	8.03847
3218.77407	7.98560
3216.84551	7.95073
3214.91694	7.89750
3212.98838	7.85231
3211.05981	7.90504
3209.13125	7.97409
3207.20269	7.93189
3205.27412	7.83805
3203.34556	7.79207
3201.41699	7.75591
3199.48843	7.65109
3197.55986	7.54701
3195.63130	7.50504
3193.70273	7.46962
3191.77417	7.40756
3189.84561	7.36433
3187.91704	7.36359
3185.98848	7.36614
3184.05991	7.35347
3182.13135	7.33051
3180.20278	7.27842
3178.27422	7.21015
3176.34565	7.16040
3174.41709	7.14133
3172.48853	7.13658
3170.55996	7.10355
3168.63140	7.04206
3166.70283	6.95857
3164.77427	6.85940
3162.84570	6.78860
3160.91714	6.74025
3158.98857	6.67790
3157.06001	6.60502
3155.13145	6.54046
3153.20288	6.47500
3151.27432	6.39725
3149.34575	6.31827
3147.41719	6.24849
3145.48862	6.18839
3143.56006	6.12832
3141.63149	6.06668
3139.70293	6.00208
3137.77437	5.92957
3135.84580	5.85871
3133.91724	5.79596
3131.98867	5.72779
3130.06011	5.64652
3128.13154	5.56688
3126.20298	5.49924
3124.27441	5.43488
3122.34585	5.36263
3120.41729	5.28608
3118.48872	5.21291
3116.56016	5.14523
3114.63159	5.07935
3112.70303	5.01416
3110.77446	4.95141
3108.84590	4.88464
3106.91733	4.81122
3104.98877	4.73923
3103.06021	4.67304
3101.13164	4.60348
3099.20308	4.52915
3097.27451	4.46122
3095.34595	4.39769
3093.41738	4.33288
3091.48882	4.26902
3089.56025	4.20582
3087.63169	4.14215
3085.70312	4.07932
3083.77456	4.01686
3081.84600	3.95472
3079.91743	3.89353
3077.98887	3.83268
3076.06030	3.77338
3074.13174	3.71590
3072.20317	3.65726
3070.27461	3.59832
3068.34604	3.54231
3066.41748	3.48769
3064.48892	3.43194
3062.56035	3.37453
3060.63179	3.31708
3058.70322	3.26233
3056.77466	3.20971
3054.84609	3.15678
3052.91753	3.10384
3050.98896	3.05245
3049.06040	3.00198
3047.13184	2.95104
3045.20327	2.89966
3043.27471	2.84947
3041.34614	2.80127
3039.41758	2.75414
3037.48901	2.70738
3035.56045	2.66160
3033.63188	2.61750
3031.70332	2.57344
3029.77476	2.52815
3027.84619	2.48332
3025.91763	2.43983
3023.98906	2.39726
3022.06050	2.35516
3020.13193	2.31324
3018.20337	2.27189
3016.27480	2.23153
3014.34624	2.19238
3012.41768	2.15412
3010.48911	2.11592
3008.56055	2.07785
3006.63198	2.04063
3004.70342	2.00486
3002.77485	1.97066
3000.84629	1.93696
2998.91772	1.90275
2996.98916	1.86876
2995.06060	1.83604
2993.13203	1.80479
2991.20347	1.77448
2989.27490	1.74417
2987.34634	1.71400
2985.41777	1.68441
2983.48921	1.65528
2981.56064	1.62696
2979.63208	1.59945
2977.70352	1.57206
2975.77495	1.54492
2973.84639	1.51878
2971.91782	1.49338
2969.98926	1.46784
2968.06069	1.44234
2966.13213	1.41787
2964.20356	1.39443
2962.27500	1.37090
2960.34644	1.34683
2958.41787	1.32253
2956.48931	1.29832
2954.56074	1.27470
2952.63218	1.25181
2950.70361	1.22911
2948.77505	1.20609
2946.84648	1.18344
2944.91792	1.16197
2942.98936	1.14121
2941.06079	1.12087
2939.13223	1.10075
2937.20366	1.08052
2935.27510	1.06092
2933.34653	1.04231
2931.41797	1.02347
2929.48940	1.00354
2927.56084	0.98353
2925.63228	0.96492
2923.70371	0.94770
2921.77515	0.93068
2919.84658	0.91374
2917.91802	0.89719
2915.98945	0.88048
2914.06089	0.86378
2912.13232	0.84789
2910.20376	0.83287
2908.27520	0.81839
2906.34663	0.80401
2904.41807	0.78929
2902.48950	0.77469
2900.56094	0.76090
2898.63237	0.74771
2896.70381	0.73496
2894.77524	0.72279
2892.84668	0.71090
2890.91812	0.69904
2888.98955	0.68732
2887.06099	0.67590
2885.13242	0.66502
2883.20386	0.65462
2881.27529	0.64454
2879.34673	0.63466
2877.41816	0.62477
2875.48960	0.61482
2873.56104	0.60493
2871.63247	0.59496
2869.70391	0.58468
2867.77534	0.57405
2865.84678	0.56305
2863.91821	0.55172
2861.98965	0.54078
2860.06108	0.53073
2858.13252	0.52101
2856.20396	0.51144
2854.27539	0.50246
2852.34683	0.49401
2850.41826	0.48575
2848.48970	0.47773
2846.56113	0.46993
2844.63257	0.46237
2842.70400	0.45546
2840.77544	0.44910
2838.84687	0.44288
2836.91831	0.43681
2834.98975	0.43093
2833.06118	0.42515
2831.13262	0.41936
2829.20405	0.41338
2827.27549	0.40721
2825.34692	0.40109
2823.41836	0.39522
2821.48979	0.38956
2819.56123	0.38407
2817.63267	0.37870
2815.70410	0.37319
2813.77554	0.36754
2811.84697	0.36212
2809.91841	0.35702
2807.98984	0.35204
2806.06128	0.34692
2804.13271	0.34168
2802.20415	0.33664
2800.27559	0.33170
2798.34702	0.32683
2796.41846	0.32235
2794.48989	0.31807
2792.56133	0.31362
2790.63276	0.30909
2788.70420	0.30465
2786.77563	0.30043
2784.84707	0.29650
2782.91851	0.29260
2780.98994	0.28861
2779.06138	0.28466
2777.13281	0.28078
2775.20425	0.27709
2773.27568	0.27358
2771.34712	0.27003
2769.41855	0.26654
2767.48999	0.26323
2765.56143	0.25994
2763.63286	0.25668
2761.70430	0.25355
2759.77573	0.25050
2757.84717	0.24742
2755.91860	0.24414
2753.99004	0.24076
2752.06147	0.23775
2750.13291	0.23507
2748.20435	0.23239
2746.27578	0.22964
2744.34722	0.22701
2742.41865	0.22450
2740.49009	0.22204
2738.56152	0.21958
2736.63296	0.21709
2734.70439	0.21454
2732.77583	0.21201
2730.84727	0.20970
2728.91870	0.20765
2726.99014	0.20562
2725.06157	0.20343
2723.13301	0.20122
2721.20444	0.19917
2719.27588	0.19733
2717.34731	0.19556
2715.41875	0.19373
2713.49019	0.19198
2711.56162	0.19036
2709.63306	0.18880
2707.70449	0.18722
2705.77593	0.18552
2703.84736	0.18379
2701.91880	0.18218
2699.99023	0.18073
2698.06167	0.17943
2696.13311	0.17811
2694.20454	0.17663
2692.27598	0.17510
2690.34741	0.17374
2688.41885	0.17266
2686.49028	0.17164
2684.56172	0.17047
2682.63315	0.16921
2680.70459	0.16807
2678.77603	0.16704
2676.84746	0.16603
2674.91890	0.16510
2672.99033	0.16421
2671.06177	0.16324
2669.13320	0.16216
2667.20464	0.16109
2665.27607	0.16017
2663.34751	0.15936
2661.41895	0.15865
2659.49038	0.15801
2657.56182	0.15731
2655.63325	0.15663
2653.70469	0.15601
2651.77612	0.15518
2649.84756	0.15435
2647.91899	0.15378
2645.99043	0.15321
2644.06187	0.15260
2642.13330	0.15220
2640.20474	0.15198
2638.27617	0.15159
2636.34761	0.15104
2634.41904	0.15069
2632.49048	0.15052
2630.56191	0.15027
2628.63335	0.14993
2626.70479	0.14957
2624.77622	0.14919
2622.84766	0.14888
2620.91909	0.14863
2618.99053	0.14840
2617.06196	0.14824
2615.13340	0.14820
2613.20483	0.14820
2611.27627	0.14810
2609.34771	0.14788
2607.41914	0.14765
2605.49058	0.14757
2603.56201	0.14763
2601.63345	0.14772
2599.70488	0.14772
2597.77632	0.14767
2595.84775	0.14775
2593.91919	0.14792
2591.99062	0.14801
2590.06206	0.14811
2588.13350	0.14834
2586.20493	0.14866
2584.27637	0.14895
2582.34780	0.14906
2580.41924	0.14907
2578.49067	0.14928
2576.56211	0.14974
2574.63354	0.15007
2572.70498	0.15026
2570.77642	0.15062
2568.84785	0.15117
2566.91929	0.15165
2564.99072	0.15199
2563.06216	0.15233
2561.13359	0.15270
2559.20503	0.15312
2557.27646	0.15368
2555.34790	0.15432
2553.41934	0.15499
2551.49077	0.15566
2549.56221	0.15617
2547.63364	0.15652
2545.70508	0.15697
2543.77651	0.15753
2541.84795	0.15804
2539.91938	0.15858
2537.99082	0.15929
2536.06226	0.16004
2534.13369	0.16070
2532.20513	0.16131
2530.27656	0.16189
2528.34800	0.16262
2526.41943	0.16351
2524.49087	0.16438
2522.56230	0.16504
2520.63374	0.16557
2518.70518	0.16635
2516.77661	0.16729
2514.84805	0.16808
2512.91948	0.16876
2510.99092	0.16951
2509.06235	0.17037
2507.13379	0.17126
2505.20522	0.17211
2503.27666	0.17294
2501.34810	0.17368
2499.41953	0.17444
2497.49097	0.17536
2495.56240	0.17628
2493.63384	0.17708
2491.70527	0.17790
2489.77671	0.17875
2487.84814	0.17959
2485.91958	0.18051
2483.99102	0.18145
2482.06245	0.18230
2480.13389	0.18318
2478.20532	0.18417
2476.27676	0.18511
2474.34819	0.18598
2472.41963	0.18687
2470.49106	0.18773
2468.56250	0.18854
2466.63394	0.18943
2464.70537	0.19039
2462.77681	0.19139
2460.84824	0.19245
2458.91968	0.19343
2456.99111	0.19425
2455.06255	0.19515
2453.13398	0.19631
2451.20542	0.19751
2449.27686	0.19845
2447.34829	0.19923
2445.41973	0.20005
2443.49116	0.20093
2441.56260	0.20198
2439.63403	0.20319
2437.70547	0.20423
2435.77690	0.20514
2433.84834	0.20615
2431.91978	0.20727
2429.99121	0.20840
2428.06265	0.20950
2426.13408	0.21059
2424.20552	0.21164
2422.27695	0.21272
2420.34839	0.21392
2418.41982	0.21514
2416.49126	0.21634
2414.56270	0.21750
2412.63413	0.21860
2410.70557	0.21956
2408.77700	0.22044
2406.84844	0.22148
2404.91987	0.22286
2402.99131	0.22432
2401.06274	0.22558
2399.13418	0.22662
2397.20562	0.22764
2395.27705	0.22891
2393.34849	0.23035
2391.41992	0.23175
2389.49136	0.23328
2387.56279	0.23549
2385.63423	0.23903
2383.70566	0.24437
2381.77710	0.25149
2379.84854	0.26009
2377.91997	0.27007
2375.99141	0.28170
2374.06284	0.29499
2372.13428	0.30949
2370.20571	0.32540
2368.27715	0.34262
2366.34858	0.35947
2364.42002	0.37378
2362.49146	0.38393
2360.56289	0.38973
2358.63433	0.39105
2356.70576	0.38591
2354.77720	0.37400
2352.84863	0.35793
2350.92007	0.34173
2348.99150	0.33237
2347.06294	0.33363
2345.13437	0.34543
2343.20581	0.36077
2341.27725	0.36837
2339.34868	0.36874
2337.42012	0.36748
2335.49155	0.36603
2333.56299	0.36435
2331.63442	0.36370
2329.70586	0.36353
2327.77729	0.36217
2325.84873	0.35906
2323.92017	0.35496
2321.99160	0.35069
2320.06304	0.34610
2318.13447	0.34112
2316.20591	0.33664
2314.27734	0.33364
2312.34878	0.33212
2310.42021	0.33091
2308.49165	0.32904
2306.56309	0.32665
2304.63452	0.32441
2302.70596	0.32312
2300.77739	0.32284
2298.84883	0.32276
2296.92026	0.32255
2294.99170	0.32251
2293.06313	0.32254
2291.13457	0.32247
2289.20601	0.32260
2287.27744	0.32301
2285.34888	0.32350
2283.42031	0.32436
2281.49175	0.32605
2279.56318	0.32847
2277.63462	0.33108
2275.70605	0.33350
2273.77749	0.33569
2271.84893	0.33781
2269.92036	0.33994
2267.99180	0.34195
2266.06323	0.34386
2264.13467	0.34574
2262.20610	0.34753
2260.27754	0.34924
2258.34897	0.35104
2256.42041	0.35290
2254.49185	0.35473
2252.56328	0.35662
2250.63472	0.35865
2248.70615	0.36068
2246.77759	0.36251
2244.84902	0.36434
2242.92046	0.36645
2240.99189	0.36869
2239.06333	0.37082
2237.13477	0.37288
2235.20620	0.37497
2233.27764	0.37707
2231.34907	0.37912
2229.42051	0.38121
2227.49194	0.38347
2225.56338	0.38583
2223.63481	0.38817
2221.70625	0.39041
2219.77769	0.39257
2217.84912	0.39467
2215.92056	0.39681
2213.99199	0.39894
2212.06343	0.40101
2210.13486	0.40313
2208.20630	0.40533
2206.27773	0.40743
2204.34917	0.40942
2202.42061	0.41154
2200.49204	0.41378
2198.56348	0.41589
2196.63491	0.41783
2194.70635	0.41971
2192.77778	0.42162
2190.84922	0.42353
2188.92065	0.42532
2186.99209	0.42704
2185.06353	0.42876
2183.13496	0.43038
2181.20640	0.43196
2179.27783	0.43364
2177.34927	0.43531
2175.42070	0.43685
2173.49214	0.43839
2171.56357	0.43985
2169.63501	0.44116
2167.70645	0.44236
2165.77788	0.44351
2163.84932	0.44476
2161.92075	0.44614
2159.99219	0.44749
2158.06362	0.44855
2156.13506	0.44933
2154.20649	0.45001
2152.27793	0.45074
2150.34937	0.45147
2148.42080	0.45208
2146.49224	0.45257
2144.56367	0.45298
2142.63511	0.45344
2140.70654	0.45392
2138.77798	0.45427
2136.84941	0.45442
2134.92085	0.45432
2132.99229	0.45409
2131.06372	0.45397
2129.13516	0.45391
2127.20659	0.45369
2125.27803	0.45342
2123.34946	0.45307
2121.42090	0.45252
2119.49233	0.45182
2117.56377	0.45111
2115.63521	0.45036
2113.70664	0.44955
2111.77808	0.44860
2109.84951	0.44753
2107.92095	0.44642
2105.99238	0.44537
2104.06382	0.44439
2102.13525	0.44327
2100.20669	0.44188
2098.27812	0.44027
2096.34956	0.43865
2094.42100	0.43709
2092.49243	0.43542
2090.56387	0.43370
2088.63530	0.43194
2086.70674	0.43012
2084.77817	0.42822
2082.84961	0.42623
2080.92104	0.42421
2078.99248	0.42220
2077.06392	0.42013
2075.13535	0.41805
2073.20679	0.41595
2071.27822	0.41370
2069.34966	0.41143
2067.42109	0.40921
2065.49253	0.40689
2063.56396	0.40436
2061.63540	0.40174
2059.70684	0.39919
2057.77827	0.39669
2055.84971	0.39413
2053.92114	0.39155
2051.99258	0.38908
2050.06401	0.38657
2048.13545	0.38399
2046.20688	0.38137
2044.27832	0.37876
2042.34976	0.37610
2040.42119	0.37335
2038.49263	0.37054
2036.56406	0.36775
2034.63550	0.36500
2032.70693	0.36221
2030.77837	0.35938
2028.84980	0.35656
2026.92124	0.35371
2024.99268	0.35084
2023.06411	0.34813
2021.13555	0.34544
2019.20698	0.34266
2017.27842	0.33993
2015.34985	0.33718
2013.42129	0.33440
2011.49272	0.33178
2009.56416	0.32924
2007.63560	0.32649
2005.70703	0.32360
2003.77847	0.32081
2001.84990	0.31828
1999.92134	0.31584
1997.99277	0.31325
1996.06421	0.31066
1994.13564	0.30827
1992.20708	0.30594
1990.27852	0.30333
1988.34995	0.30064
1986.42139	0.29818
1984.49282	0.29588
1982.56426	0.29355
1980.63569	0.29113
1978.70713	0.28878
1976.77856	0.28649
1974.85000	0.28429
1972.92144	0.28222
1970.99287	0.28019
1969.06431	0.27819
1967.13574	0.27619
1965.20718	0.27415
1963.27861	0.27214
1961.35005	0.27019
1959.42148	0.26827
1957.49292	0.26646
1955.56436	0.26474
1953.63579	0.26298
1951.70723	0.26127
1949.77866	0.25971
1947.85010	0.25819
1945.92153	0.25682
1943.99297	0.25564
1942.06440	0.25424
1940.13584	0.25249
1938.20728	0.25084
1936.27871	0.24945
1934.35015	0.24813
1932.42158	0.24689
1930.49302	0.24577
1928.56445	0.24474
1926.63589	0.24370
1924.70732	0.24278
1922.77876	0.24197
1920.85020	0.24104
1918.92163	0.24014
1916.99307	0.23928
1915.06450	0.23827
1913.13594	0.23727
1911.20737	0.23650
1909.27881	0.23591
1907.35024	0.23534
1905.42168	0.23466
1903.49312	0.23397
1901.56455	0.23334
1899.63599	0.23285
1897.70742	0.23252
1895.77886	0.23223
1893.85029	0.23195
1891.92173	0.23176
1889.99316	0.23176
1888.06460	0.23149
1886.13604	0.23099
1884.20747	0.23066
1882.27891	0.23045
1880.35034	0.23029
1878.42178	0.23022
1876.49321	0.23021
1874.56465	0.23017
1872.63608	0.23035
1870.70752	0.23095
1868.77896	0.23185
1866.85039	0.23216
1864.92183	0.23175
1862.99326	0.23150
1861.06470	0.23167
1859.13613	0.23204
1857.20757	0.23232
1855.27900	0.23269
1853.35044	0.23322
1851.42187	0.23379
1849.49331	0.23441
1847.56475	0.23534
1845.63618	0.23655
1843.70762	0.23766
1841.77905	0.23811
1839.85049	0.23828
1837.92192	0.23906
1835.99336	0.24013
1834.06479	0.24110
1832.13623	0.24220
1830.20767	0.24388
1828.27910	0.24545
1826.35054	0.24635
1824.42197	0.24740
1822.49341	0.24839
1820.56484	0.24937
1818.63628	0.25070
1816.70771	0.25241
1814.77915	0.25414
1812.85059	0.25600
1810.92202	0.25812
1808.99346	0.26010
1807.06489	0.26188
1805.13633	0.26372
1803.20776	0.26603
1801.27920	0.26882
1799.35063	0.27178
1797.42207	0.27425
1795.49351	0.27663
1793.56494	0.27968
1791.63638	0.28353
1789.70781	0.28675
1787.77925	0.28897
1785.85068	0.29189
1783.92212	0.29567
1781.99355	0.29984
1780.06499	0.30411
1778.13643	0.30833
1776.20786	0.31247
1774.27930	0.31721
1772.35073	0.32343
1770.42217	0.32961
1768.49360	0.33452
1766.56504	0.33928
1764.63647	0.34438
1762.70791	0.35031
1760.77935	0.35781
1758.85078	0.36474
1756.92222	0.37179
1754.99365	0.37960
1753.06509	0.38688
1751.13652	0.39573
1749.20796	0.40667
1747.27939	0.41691
1745.35083	0.42563
1743.42227	0.43496
1741.49370	0.44547
1739.56514	0.45805
1737.63657	0.47080
1735.70801	0.48219
1733.77944	0.49904
1731.85088	0.51855
1729.92231	0.53358
1727.99375	0.54875
1726.06519	0.56543
1724.13662	0.58394
1722.20806	0.60399
1720.27949	0.62272
1718.35093	0.64485
1716.42236	0.67660
1714.49380	0.70622
1712.56523	0.73060
1710.63667	0.75468
1708.70811	0.78073
1706.77954	0.81027
1704.85098	0.84508
1702.92241	0.87620
1700.99385	0.90753
1699.06528	0.95385
1697.13672	0.99658
1695.20815	1.04043
1693.27959	1.08311
1691.35103	1.11770
1689.42246	1.15767
1687.49390	1.20009
1685.56533	1.24123
1683.63677	1.30296
1681.70820	1.36678
1679.77964	1.40876
1677.85107	1.44863
1675.92251	1.49415
1673.99395	1.55050
1672.06538	1.60162
1670.13682	1.65170
1668.20825	1.71523
1666.27969	1.76811
1664.35112	1.81453
1662.42256	1.87252
1660.49399	1.93694
1658.56543	1.98718
1656.63687	2.02771
1654.70830	2.06450
1652.77974	2.11975
1650.85117	2.17254
1648.92261	2.19240
1646.99404	2.21547
1645.06548	2.24075
1643.13691	2.25871
1641.20835	2.26955
1639.27979	2.27855
1637.35122	2.28393
1635.42266	2.28291
1633.49409	2.27284
1631.56553	2.25600
1629.63696	2.23567
1627.70840	2.20529
1625.77983	2.17137
1623.85127	2.13121
1621.92271	2.08309
1619.99414	2.03834
1618.06558	1.99296
1616.13701	1.93001
1614.20845	1.86697
1612.27988	1.81893
1610.35132	1.76898
1608.42275	1.71425
1606.49419	1.65965
1604.56562	1.60928
1602.63706	1.56137
1600.70850	1.51502
1598.77993	1.47203
1596.85137	1.43153
1594.92280	1.39249
1592.99424	1.35514
1591.06567	1.32117
1589.13711	1.28948
1587.20854	1.25996
1585.27998	1.23254
1583.35142	1.20713
1581.42285	1.18449
1579.49429	1.16523
1577.56572	1.14791
1575.63716	1.12735
1573.70859	1.10909
1571.78003	1.09699
1569.85146	1.08507
1567.92290	1.07239
1565.99434	1.06274
1564.06577	1.05535
1562.13721	1.05004
1560.20864	1.04759
1558.28008	1.04656
1556.35151	1.04497
1554.42295	1.04340
1552.49438	1.04201
1550.56582	1.03930
1548.63726	1.03444
1546.70869	1.02815
1544.78013	1.01992
1542.85156	1.00900
1540.92300	0.99312
1538.99443	0.96752
1537.06587	0.94789
1535.13730	0.93504
1533.20874	0.91836
1531.28018	0.90016
1529.35161	0.88683
1527.42305	0.87441
1525.49448	0.86144
1523.56592	0.85060
1521.63735	0.84067
1519.70879	0.83013
1517.78022	0.82085
1515.85166	0.81047
1513.92310	0.79957
1511.99453	0.79026
1510.06597	0.78221
1508.13740	0.77453
1506.20884	0.76162
1504.28027	0.74888
1502.35171	0.74173
1500.42314	0.73617
1498.49458	0.73047
1496.56602	0.72361
1494.63745	0.71654
1492.70889	0.71110
1490.78032	0.70660
1488.85176	0.70132
1486.92319	0.69570
1484.99463	0.69101
1483.06606	0.68749
1481.13750	0.68476
1479.20894	0.68265
1477.28037	0.68145
1475.35181	0.68103
1473.42324	0.68068
1471.49468	0.67889
1469.56611	0.67606
1467.63755	0.67362
1465.70898	0.67192
1463.78042	0.67066
1461.85186	0.66956
1459.92329	0.66922
1457.99473	0.66997
1456.06616	0.66972
1454.13760	0.66692
1452.20903	0.66393
1450.28047	0.66126
1448.35190	0.65877
1446.42334	0.65610
1444.49478	0.65325
1442.56621	0.65056
1440.63765	0.64812
1438.70908	0.64599
1436.78052	0.64343
1434.85195	0.64003
1432.92339	0.63697
1430.99482	0.63488
1429.06626	0.63377
1427.13770	0.63339
1425.20913	0.63357
1423.28057	0.63425
1421.35200	0.63503
1419.42344	0.63568
1417.49487	0.63535
1415.56631	0.63379
1413.63774	0.63254
1411.70918	0.63220
1409.78062	0.63254
1407.85205	0.63329
1405.92349	0.63444
1403.99492	0.63544
1402.06636	0.63550
1400.13779	0.63485
1398.20923	0.63354
1396.28066	0.63136
1394.35210	0.62823
1392.42354	0.62445
1390.49497	0.62082
1388.56641	0.61729
1386.63784	0.61311
1384.70928	0.60857
1382.78071	0.60436
1380.85215	0.60043
1378.92358	0.59701
1376.99502	0.59456
1375.06646	0.59300
1373.13789	0.59157
1371.20933	0.59018
1369.28076	0.58913
1367.35220	0.58797
1365.42363	0.58657
1363.49507	0.58531
1361.56650	0.58400
1359.63794	0.58248
1357.70937	0.58118
1355.78081	0.58011
1353.85225	0.57908
1351.92368	0.57822
1349.99512	0.57753
1348.06655	0.57686
1346.13799	0.57613
1344.20942	0.57535
1342.28086	0.57455
1340.35229	0.57393
1338.42373	0.57341
1336.49517	0.57270
1334.56660	0.57196
1332.63804	0.57150
1330.70947	0.57139
1328.78091	0.57164
1326.85234	0.57208
1324.92378	0.57248
1322.99521	0.57290
1321.06665	0.57341
1319.13809	0.57381
1317.20952	0.57388
1315.28096	0.57369
1313.35239	0.57337
1311.42383	0.57297
1309.49526	0.57241
1307.56670	0.57173
1305.63813	0.57116
1303.70957	0.57058
1301.78101	0.56978
1299.85244	0.56885
1297.92388	0.56784
1295.99531	0.56686
1294.06675	0.56590
1292.13818	0.56488
1290.20962	0.56382
1288.28105	0.56266
1286.35249	0.56141
1284.42393	0.56020
1282.49536	0.55904
1280.56680	0.55792
1278.63823	0.55681
1276.70967	0.55574
1274.78110	0.55479
1272.85254	0.55403
1270.92397	0.55352
1268.99541	0.55302
1267.06685	0.55218
1265.13828	0.55114
1263.20972	0.55033
1261.28115	0.54978
1259.35259	0.54925
1257.42402	0.54863
1255.49546	0.54804
1253.56689	0.54776
1251.63833	0.54775
1249.70977	0.54772
1247.78120	0.54763
1245.85264	0.54746
1243.92407	0.54703
1241.99551	0.54631
1240.06694	0.54529
1238.13838	0.54393
1236.20981	0.54229
1234.28125	0.54051
1232.35269	0.53863
1230.42412	0.53666
1228.49556	0.53483
1226.56699	0.53327
1224.63843	0.53197
1222.70986	0.53080
1220.78130	0.52957
1218.85273	0.52830
1216.92417	0.52712
1214.99561	0.52610
1213.06704	0.52522
1211.13848	0.52443
1209.20991	0.52374
1207.28135	0.52311
1205.35278	0.52230
1203.42422	0.52133
1201.49565	0.52036
1199.56709	0.51956
1197.63853	0.51896
1195.70996	0.51846
1193.78140	0.51806
1191.85283	0.51773
1189.92427	0.51733
1187.99570	0.51697
1186.06714	0.51696
1184.13857	0.51726
1182.21001	0.51771
1180.28145	0.51827
1178.35288	0.51896
1176.42432	0.51977
1174.49575	0.52063
1172.56719	0.52119
1170.63862	0.52118
1168.71006	0.52090
1166.78149	0.52071
1164.85293	0.52038
1162.92437	0.51979
1160.99580	0.51923
1159.06724	0.51883
1157.13867	0.51827
1155.21011	0.51731
1153.28154	0.51600
1151.35298	0.51457
1149.42441	0.51297
1147.49585	0.51093
1145.56729	0.50856
1143.63872	0.50630
1141.71016	0.50417
1139.78159	0.50204
1137.85303	0.50017
1135.92446	0.49877
1133.99590	0.49780
1132.06733	0.49707
1130.13877	0.49639
1128.21021	0.49572
1126.28164	0.49484
1124.35308	0.49365
1122.42451	0.49248
1120.49595	0.49178
1118.56738	0.49142
1116.63882	0.49101
1114.71025	0.49057
1112.78169	0.49033
1110.85312	0.49027
1108.92456	0.49050
1106.99600	0.49137
1105.06743	0.49268
1103.13887	0.49397
1101.21030	0.49554
1099.28174	0.49780
1097.35317	0.50060
1095.42461	0.50366
1093.49604	0.50714
1091.56748	0.51128
1089.63892	0.51606
1087.71035	0.52146
1085.78179	0.52744
1083.85322	0.53384
1081.92466	0.54017
1079.99609	0.54559
1078.06753	0.54914
1076.13896	0.54996
1074.21040	0.54760
1072.28184	0.54291
1070.35327	0.53714
1068.42471	0.53062
1066.49614	0.52363
1064.56758	0.51690
1062.63901	0.51091
1060.71045	0.50572
1058.78188	0.50124
1056.85332	0.49734
1054.92476	0.49392
1052.99619	0.49089
1051.06763	0.48821
1049.13906	0.48586
1047.21050	0.48379
1045.28193	0.48211
1043.35337	0.48078
1041.42480	0.47956
1039.49624	0.47850
1037.56768	0.47766
1035.63911	0.47699
1033.71055	0.47649
1031.78198	0.47612
1029.85342	0.47581
1027.92485	0.47564
1025.99629	0.47578
1024.06772	0.47615
1022.13916	0.47655
1020.21060	0.47708
1018.28203	0.47766
1016.35347	0.47819
1014.42490	0.47896
1012.49634	0.48006
1010.56777	0.48136
1008.63921	0.48272
1006.71064	0.48423
1004.78208	0.48602
1002.85352	0.48823
1000.92495	0.49095
998.99639	0.49423
997.06782	0.49814
995.13926	0.50245
993.21069	0.50649
991.28213	0.50975
989.35356	0.51227
987.42500	0.51412
985.49644	0.51510
983.56787	0.51553
981.63931	0.51640
979.71074	0.51799
977.78218	0.51985
975.85361	0.52208
973.92505	0.52482
971.99648	0.52781
970.06792	0.53101
968.13936	0.53473
966.21079	0.53906
964.28223	0.54368
962.35366	0.54843
960.42510	0.55354
958.49653	0.55907
956.56797	0.56484
954.63940	0.57086
952.71084	0.57717
950.78228	0.58363
948.85371	0.58999
946.92515	0.59623
944.99658	0.60266
943.06802	0.60894
941.13945	0.61475
939.21089	0.62067
937.28232	0.62678
935.35376	0.63270
933.42520	0.63865
931.49663	0.64453
929.56807	0.65037
927.63950	0.65640
925.71094	0.66221
923.78237	0.66804
921.85381	0.67409
919.92524	0.68021
917.99668	0.68691
916.06812	0.69422
914.13955	0.70174
912.21099	0.70980
910.28242	0.71824
908.35386	0.72693
906.42529	0.73634
904.49673	0.74521
902.56816	0.75304
900.63960	0.76157
898.71104	0.77123
896.78247	0.78149
894.85391	0.79146
892.92534	0.80068
890.99678	0.81033
889.06821	0.82116
887.13965	0.83264
885.21108	0.84371
883.28252	0.85442
881.35396	0.86617
879.42539	0.87883
877.49683	0.89042
875.56826	0.90089
873.63970	0.91219
871.71113	0.92343
869.78257	0.93331
867.85400	0.94479
865.92544	0.95817
863.99687	0.97016
862.06831	0.98139
860.13975	0.99381
858.21118	1.00662
856.28262	1.01894
854.35405	1.03123
852.42549	1.04374
850.49692	1.05548
848.56836	1.06485
846.63979	1.07355
844.71123	1.08346
842.78267	1.09509
840.85410	1.11005
838.92554	1.12389
836.99697	1.13377
835.06841	1.14398
833.13984	1.15555
831.21128	1.16894
829.28271	1.18213
827.35415	1.18859
825.42559	1.19305
823.49702	1.20521
821.56846	1.21396
819.63989	1.21041
817.71133	1.21309
815.78276	1.23057
813.85420	1.24582
811.92563	1.25044
809.99707	1.25485
808.06851	1.25702
806.13994	1.25384
804.21138	1.25585
802.28281	1.26060
800.35425	1.26619
798.42568	1.28254
796.49712	1.29884
794.56855	1.30795
792.63999	1.32013
790.71143	1.33562
788.78286	1.35668
786.85430	1.37412
784.92573	1.36873
782.99717	1.34090
781.06860	1.32146
779.14004	1.30435
777.21147	1.26857
775.28291	1.22875
773.35435	1.19463
771.42578	1.17523
769.49722	1.15925
767.56865	1.15118
765.64009	1.17324
763.71152	1.19002
761.78296	1.17081
759.85439	1.16871
757.92583	1.19152
755.99727	1.13128
754.06870	1.02743
752.14014	1.01126
750.21157	1.08054
748.28301	1.09665
746.35444	1.01942
744.42588	0.95326
742.49731	0.89905
740.56875	0.85536
738.64019	0.84573
736.71162	0.80636
734.78306	0.68157
732.85449	0.59029
730.92593	0.59908
728.99736	0.58579
727.06880	0.42325
725.14023	0.27234
723.21167	0.22411
721.28311	0.25587
719.35454	0.27573
717.42598	0.18507
715.49741	-0.00413
713.56885	-0.22438
711.64028	-0.36358
709.71172	-0.32042
707.78315	-0.08144
705.85459	0.07994
703.92603	0.07127
701.99746	0.03305
700.06890	0.05170
698.14033	0.02377
696.21177	0.01195
694.28320	0.07654
692.35464	0.10136
690.42607	0.08369
688.49751	0.12291
686.56895	0.12629
684.64038	0.07345
682.71182	0.09186
680.78325	0.15048
678.85469	0.20413
676.92612	0.26218
674.99756	0.26620
673.06899	0.16534
671.14043	0.03698
669.21187	0.02579
667.28330	0.17808
665.35474	0.31831
663.42617	0.25598
661.49761	0.14981
659.56904	0.14282
657.64048	0.17249
655.71191	0.15970
653.78335	0.12821
651.85479	0.08761
649.92622	-0.00531
647.99766	-0.06470
646.06909	-0.04925
644.14053	0.01543
642.21196	0.12508
640.28340	0.16139
638.35483	0.08982
636.42627	0.04402
634.49771	0.06466
632.56914	0.07058
630.64058	0.06405
628.71201	0.11320
626.78345	0.22700
624.85488	0.27403
622.92632	0.18014
620.99775	0.07780
619.06919	0.08518
617.14062	0.16836
615.21206	0.18616
613.28350	0.10403
611.35493	0.09735
609.42637	0.12601
607.49780	0.09535
605.56924	0.08670
603.64067	0.10790
601.71211	0.09959
599.78354	0.12300
597.85498	0.21915
595.92642	0.22647
593.99785	0.08298
592.06929	0.01101
590.14072	0.06835
588.21216	0.12174
586.28359	0.12495
584.35503	0.09764
582.42646	0.08367
580.49790	0.11521
578.56934	0.15218
576.64077	0.10107
574.71221	0.01144
572.78364	-0.00220
570.85508	0.03301
568.92651	0.04941
566.99795	0.01379
565.06938	-0.03738
563.14082	-0.01307
561.21226	0.10080
559.28369	0.17036
557.35513	0.11822
555.42656	0.05651
553.49800	0.08215
551.56943	0.14549
549.64087	0.15464
547.71230	0.13940
545.78374	0.15047
543.85518	0.16712
541.92661	0.13800
539.99805	0.10558
538.06948	0.11289
536.14092	0.12041
534.21235	0.06784
532.28379	0.01762
530.35522	0.03865
528.42666	0.05418
526.49810	0.03604
524.56953	0.04228
522.64097	0.07012
520.71240	0.07981
518.78384	0.07685
516.85527	0.08931
514.92671	0.13620
512.99814	0.22104
511.06958	0.25356
509.14102	0.16574
507.21245	0.07294
505.28389	0.04899
503.35532	0.08469
501.42676	0.13297
499.49819	0.16614
