3997.91411	0.08033
3995.98555	0.08091
3994.05698	0.08164
3992.12842	0.08233
3990.19985	0.08272
3988.27129	0.08303
3986.34272	0.08346
3984.41416	0.08370
3982.48560	0.08361
3980.55703	0.08352
3978.62847	0.08363
3976.69990	0.08406
3974.77134	0.08475
3972.84277	0.08527
3970.91421	0.08533
3968.98564	0.08505
3967.05708	0.08456
3965.12852	0.08402
3963.19995	0.08383
3961.27139	0.08411
3959.34282	0.08466
3957.41426	0.08514
3955.48569	0.08513
3953.55713	0.08490
3951.62856	0.08522
3949.70000	0.08600
3947.77144	0.08632
3945.84287	0.08586
3943.91431	0.08553
3941.98574	0.08572
3940.05718	0.08561
3938.12861	0.08514
3936.20005	0.08486
3934.27148	0.08516
3932.34292	0.08600
3930.41436	0.08647
3928.48579	0.08601
3926.55723	0.08535
3924.62866	0.08517
3922.70010	0.08511
3920.77153	0.08485
3918.84297	0.08499
3916.91440	0.08552
3914.98584	0.08559
3913.05728	0.08516
3911.12871	0.08478
3909.20015	0.08475
3907.27158	0.08538
3905.34302	0.08678
3903.41445	0.08839
3901.48589	0.08902
3899.55732	0.08831
3897.62876	0.08711
3895.70020	0.08602
3893.77163	0.08550
3891.84307	0.08572
3889.91450	0.08606
3887.98594	0.08616
3886.05737	0.08677
3884.12881	0.08748
3882.20024	0.08741
3880.27168	0.08727
3878.34312	0.08702
3876.41455	0.08647
3874.48599	0.08668
3872.55742	0.08788
3870.62886	0.08967
3868.70029	0.09101
3866.77173	0.09030
3864.84316	0.08939
3862.91460	0.08959
3860.98604	0.08929
3859.05747	0.08871
3857.12891	0.08925
3855.20034	0.09114
3853.27178	0.09439
3851.34321	0.09579
3849.41465	0.09317
3847.48608	0.09099
3845.55752	0.09081
3843.62896	0.09211
3841.70039	0.09432
3839.77183	0.09715
3837.84326	0.09957
3835.91470	0.09967
3833.98613	0.09836
3832.05757	0.09776
3830.12900	0.09775
3828.20044	0.09750
3826.27187	0.09732
3824.34331	0.09793
3822.41475	0.09979
3820.48618	0.10272
3818.55762	0.10418
3816.62905	0.10417
3814.70049	0.10430
3812.77192	0.10390
3810.84336	0.10343
3808.91479	0.10391
3806.98623	0.10569
3805.05767	0.10780
3803.12910	0.10922
3801.20054	0.11121
3799.27197	0.11318
3797.34341	0.11338
3795.41484	0.11315
3793.48628	0.11322
3791.55771	0.11374
3789.62915	0.11487
3787.70059	0.11639
3785.77202	0.11825
3783.84346	0.12018
3781.91489	0.12169
3779.98633	0.12341
3778.05776	0.12550
3776.12920	0.12656
3774.20063	0.12697
3772.27207	0.12830
3770.34351	0.13104
3768.41494	0.13390
3766.48638	0.13565
3764.55781	0.13733
3762.62925	0.13914
3760.70068	0.14124
3758.77212	0.14430
3756.84355	0.14732
3754.91499	0.14970
3752.98643	0.15280
3751.05786	0.15753
3749.12930	0.16189
3747.20073	0.16350
3745.27217	0.16549
3743.34360	0.16985
3741.41504	0.17348
3739.48647	0.17588
3737.55791	0.17960
3735.62935	0.18572
3733.70078	0.19236
3731.77222	0.19645
3729.84365	0.19937
3727.91509	0.20300
3725.98652	0.20816
3724.05796	0.21441
3722.12939	0.22099
3720.20083	0.22785
3718.27227	0.23423
3716.34370	0.24037
3714.41514	0.24755
3712.48657	0.25776
3710.55801	0.27225
3708.62944	0.28652
3706.70088	0.29734
3704.77231	0.30772
3702.84375	0.32041
3700.91519	0.33716
3698.98662	0.35557
3697.05806	0.37291
3695.12949	0.39108
3693.20093	0.41077
3691.27236	0.43276
3689.34380	0.46078
3687.41523	0.49436
3685.48667	0.52366
3683.55811	0.54902
3681.62954	0.57670
3679.70098	0.60836
3677.77241	0.64210
3675.84385	0.68218
3673.91528	0.73455
3671.98672	0.77698
3670.05815	0.81478
3668.12959	0.86621
3666.20103	0.91358
3664.27246	0.95356
3662.34390	0.99656
3660.41533	1.04305
3658.48677	1.08912
3656.55820	1.13829
3654.62964	1.19265
3652.70107	1.23895
3650.77251	1.28084
3648.84395	1.33765
3646.91538	1.40267
3644.98682	1.44922
3643.05825	1.48672
3641.12969	1.52639
3639.20112	1.57005
3637.27256	1.61430
3635.34399	1.65768
3633.41543	1.70037
3631.48687	1.74014
3629.55830	1.78083
3627.62974	1.83235
3625.70117	1.88008
3623.77261	1.91366
3621.84404	1.94646
3619.91548	1.98459
3617.98691	2.03023
3616.05835	2.07330
3614.12979	2.10929
3612.20122	2.14704
3610.27266	2.18509
3608.34409	2.22446
3606.41553	2.26715
3604.48696	2.30675
3602.55840	2.34177
3600.62983	2.37874
3598.70127	2.41866
3596.77271	2.45811
3594.84414	2.49820
3592.91558	2.53912
3590.98701	2.57792
3589.05845	2.61578
3587.12988	2.66107
3585.20132	2.70870
3583.27275	2.74778
3581.34419	2.78350
3579.41562	2.82214
3577.48706	2.86451
3575.55850	2.90838
3573.62993	2.95220
3571.70137	2.99363
3569.77280	3.03347
3567.84424	3.07654
3565.91567	3.12746
3563.98711	3.17525
3562.05854	3.21573
3560.12998	3.25843
3558.20142	3.30431
3556.27285	3.35050
3554.34429	3.39535
3552.41572	3.44005
3550.48716	3.48441
3548.55859	3.52748
3546.63003	3.57192
3544.70146	3.62207
3542.77290	3.67366
3540.84434	3.72185
3538.91577	3.76854
3536.98721	3.81441
3535.05864	3.86286
3533.13008	3.91312
3531.20151	3.96175
3529.27295	4.00927
3527.34438	4.05689
3525.41582	4.10325
3523.48726	4.15113
3521.55869	4.20367
3519.63013	4.25364
3517.70156	4.29964
3515.77300	4.34796
3513.84443	4.39861
3511.91587	4.44695
3509.98730	4.49375
3508.05874	4.54066
3506.13018	4.58704
3504.20161	4.63446
3502.27305	4.68532
3500.34448	4.73807
3498.41592	4.78552
3496.48735	4.83086
3494.55879	4.88228
3492.63022	4.93561
3490.70166	4.98714
3488.77310	5.03852
3486.84453	5.08587
3484.91597	5.12993
3482.98740	5.17908
3481.05884	5.23287
3479.13027	5.28367
3477.20171	5.33278
3475.27314	5.38410
3473.34458	5.43724
3471.41602	5.49056
3469.48745	5.54238
3467.55889	5.59461
3465.63032	5.64391
3463.70176	5.68527
3461.77319	5.72530
3459.84463	5.77307
3457.91606	5.82725
3455.98750	5.89004
3454.05894	5.96053
3452.13037	6.02271
3450.20181	6.07136
3448.27324	6.11663
3446.34468	6.16606
3444.41611	6.21676
3442.48755	6.26919
3440.55898	6.31731
3438.63042	6.36280
3436.70186	6.42001
3434.77329	6.48153
3432.84473	6.54142
3430.91616	6.60865
3428.98760	6.67144
3427.05903	6.70785
3425.13047	6.74979
3423.20190	6.83279
3421.27334	6.91861
3419.34478	6.95293
3417.41621	6.96822
3415.48765	7.00941
3413.55908	7.06025
3411.63052	7.11202
3409.70195	7.17267
3407.77339	7.23483
3405.84482	7.28804
3403.91626	7.34725
3401.98770	7.39887
3400.05913	7.43433
3398.13057	7.47327
3396.20200	7.52446
3394.27344	7.59083
3392.34487	7.65288
3390.41631	7.71283
3388.48774	7.73696
3386.55918	7.70304
3384.63062	7.68027
3382.70205	7.73606
3380.77349	7.82252
3378.84492	7.86773
3376.91636	7.90927
3374.98779	7.96827
3373.05923	8.00250
3371.13066	7.98811
3369.20210	8.00496
3367.27354	8.07458
3365.34497	8.15863
3363.41641	8.21178
3361.48784	8.19302
3359.55928	8.18770
3357.63071	8.23958
3355.70215	8.33178
3353.77358	8.38219
3351.84502	8.32093
3349.91646	8.26004
3347.98789	8.31122
3346.05933	8.43160
3344.13076	8.54331
3342.20220	8.60190
3340.27363	8.55070
3338.34507	8.43400
3336.41650	8.36666
3334.48794	8.40957
3332.55937	8.43626
3330.63081	8.38810
3328.70225	8.39088
3326.77368	8.44101
3324.84512	8.42744
3322.91655	8.39092
3320.98799	8.46677
3319.05942	8.62316
3317.13086	8.73938
3315.20229	8.74521
3313.27373	8.72243
3311.34517	8.72918
3309.41660	8.66525
3307.48804	8.52609
3305.55947	8.46287
3303.63091	8.50803
3301.70234	8.52757
3299.77378	8.54307
3297.84521	8.63443
3295.91665	8.74147
3293.98809	8.76985
3292.05952	8.68637
3290.13096	8.56842
3288.20239	8.56196
3286.27383	8.61750
3284.34526	8.59327
3282.41670	8.60737
3280.48813	8.66921
3278.55957	8.69938
3276.63101	8.70108
3274.70244	8.65203
3272.77388	8.60934
3270.84531	8.61438
3268.91675	8.64242
3266.98818	8.68037
3265.05962	8.76671
3263.13105	8.88411
3261.20249	8.97221
3259.27393	9.03848
3257.34536	9.11765
3255.41680	9.21011
3253.48823	9.32043
3251.55967	9.33884
3249.63110	9.16037
3247.70254	8.97778
3245.77397	8.88724
3243.84541	8.91414
3241.91685	8.97064
3239.98828	8.87832
3238.05972	8.72588
3236.13115	8.62511
3234.20259	8.61974
3232.27402	8.70747
3230.34546	8.83717
3228.41689	8.99877
3226.48833	9.03757
3224.55977	8.84590
3222.63120	8.68355
3220.70264	8.65952
3218.77407	8.63463
3216.84551	8.53475
3214.91694	8.47281
3212.98838	8.48131
3211.05981	8.44121
3209.13125	8.40662
3207.20269	8.55528
3205.27412	8.75367
3203.34556	8.65490
3201.41699	8.41281
3199.48843	8.27136
3197.55986	8.20095
3195.63130	8.13203
3193.70273	8.07929
3191.77417	8.05738
3189.84561	7.97172
3187.91704	7.82712
3185.98848	7.74176
3184.05991	7.72643
3182.13135	7.73222
3180.20278	7.70304
3178.27422	7.60127
3176.34565	7.47485
3174.41709	7.38713
3172.48853	7.34638
3170.55996	7.31908
3168.63140	7.26203
3166.70283	7.17318
3164.77427	7.09776
3162.84570	7.03405
3160.91714	6.93975
3158.98857	6.83244
3157.06001	6.74232
3155.13145	6.65936
3153.20288	6.56729
3151.27432	6.48256
3149.34575	6.43335
3147.41719	6.39614
3145.48862	6.33564
3143.56006	6.27300
3141.63149	6.21429
3139.70293	6.12717
3137.77437	6.03208
3135.84580	5.96521
3133.91724	5.90623
3131.98867	5.82751
3130.06011	5.73822
3128.13154	5.65122
3126.20298	5.56572
3124.27441	5.47932
3122.34585	5.39280
3120.41729	5.31420
3118.48872	5.24343
3116.56016	5.17111
3114.63159	5.09651
3112.70303	5.02368
3110.77446	4.95043
3108.84590	4.87435
3106.91733	4.80017
3104.98877	4.73063
3103.06021	4.66102
3101.13164	4.58723
3099.20308	4.51209
3097.27451	4.43845
3095.34595	4.36718
3093.41738	4.29814
3091.48882	4.22737
3089.56025	4.15546
3087.63169	4.08779
3085.70312	4.02454
3083.77456	3.96205
3081.84600	3.90027
3079.91743	3.83970
3077.98887	3.77679
3076.06030	3.71016
3074.13174	3.64413
3072.20317	3.58316
3070.27461	3.52714
3068.34604	3.47090
3066.41748	3.41015
3064.48892	3.34694
3062.56035	3.28552
3060.63179	3.22845
3058.70322	3.17452
3056.77466	3.12023
3054.84609	3.06526
3052.91753	3.01166
3050.98896	2.96053
3049.06040	2.91068
3047.13184	2.85973
3045.20327	2.80713
3043.27471	2.75529
3041.34614	2.70584
3039.41758	2.65704
3037.48901	2.60835
3035.56045	2.56133
3033.63188	2.51562
3031.70332	2.46979
3029.77476	2.42449
3027.84619	2.38105
3025.91763	2.33851
3023.98906	2.29573
3022.06050	2.25356
3020.13193	2.21252
3018.20337	2.17195
3016.27480	2.13173
3014.34624	2.09253
3012.41768	2.05429
3010.48911	2.01619
3008.56055	1.97871
3006.63198	1.94258
3004.70342	1.90711
3002.77485	1.87188
3000.84629	1.83688
2998.91772	1.80171
2996.98916	1.76708
2995.06060	1.73383
2993.13203	1.70134
2991.20347	1.66954
2989.27490	1.63846
2987.34634	1.60723
2985.41777	1.57584
2983.48921	1.54530
2981.56064	1.51596
2979.63208	1.48728
2977.70352	1.45899
2975.77495	1.43117
2973.84639	1.40349
2971.91782	1.37603
2969.98926	1.34931
2968.06069	1.32333
2966.13213	1.29796
2964.20356	1.27315
2962.27500	1.24880
2960.34644	1.22470
2958.41787	1.20083
2956.48931	1.17758
2954.56074	1.15520
2952.63218	1.13341
2950.70361	1.11168
2948.77505	1.08994
2946.84648	1.06882
2944.91792	1.04837
2942.98936	1.02807
2941.06079	1.00802
2939.13223	0.98837
2937.20366	0.96925
2935.27510	0.95074
2933.34653	0.93270
2931.41797	0.91514
2929.48940	0.89836
2927.56084	0.88213
2925.63228	0.86557
2923.70371	0.84922
2921.77515	0.83382
2919.84658	0.81824
2917.91802	0.80215
2915.98945	0.78653
2914.06089	0.77138
2912.13232	0.75662
2910.20376	0.74241
2908.27520	0.72846
2906.34663	0.71471
2904.41807	0.70119
2902.48950	0.68799
2900.56094	0.67533
2898.63237	0.66327
2896.70381	0.65157
2894.77524	0.63989
2892.84668	0.62836
2890.91812	0.61700
2888.98955	0.60569
2887.06099	0.59471
2885.13242	0.58417
2883.20386	0.57381
2881.27529	0.56342
2879.34673	0.55315
2877.41816	0.54334
2875.48960	0.53393
2873.56104	0.52452
2871.63247	0.51515
2869.70391	0.50609
2867.77534	0.49730
2865.84678	0.48857
2863.91821	0.47988
2861.98965	0.47130
2860.06108	0.46285
2858.13252	0.45478
2856.20396	0.44706
2854.27539	0.43953
2852.34683	0.43235
2850.41826	0.42565
2848.48970	0.41889
2846.56113	0.41170
2844.63257	0.40461
2842.70400	0.39782
2840.77544	0.39133
2838.84687	0.38534
2836.91831	0.37953
2834.98975	0.37376
2833.06118	0.36841
2831.13262	0.36320
2829.20405	0.35774
2827.27549	0.35230
2825.34692	0.34710
2823.41836	0.34203
2821.48979	0.33696
2819.56123	0.33184
2817.63267	0.32665
2815.70410	0.32157
2813.77554	0.31666
2811.84697	0.31178
2809.91841	0.30698
2807.98984	0.30251
2806.06128	0.29844
2804.13271	0.29442
2802.20415	0.29007
2800.27559	0.28560
2798.34702	0.28139
2796.41846	0.27731
2794.48989	0.27313
2792.56133	0.26905
2790.63276	0.26537
2788.70420	0.26194
2786.77563	0.25847
2784.84707	0.25490
2782.91851	0.25136
2780.98994	0.24804
2779.06138	0.24486
2777.13281	0.24169
2775.20425	0.23858
2773.27568	0.23563
2771.34712	0.23274
2769.41855	0.22979
2767.48999	0.22677
2765.56143	0.22379
2763.63286	0.22099
2761.70430	0.21841
2759.77573	0.21589
2757.84717	0.21321
2755.91860	0.21046
2753.99004	0.20800
2752.06147	0.20589
2750.13291	0.20380
2748.20435	0.20142
2746.27578	0.19887
2744.34722	0.19648
2742.41865	0.19442
2740.49009	0.19258
2738.56152	0.19066
2736.63296	0.18870
2734.70439	0.18685
2732.77583	0.18498
2730.84727	0.18315
2728.91870	0.18147
2726.99014	0.17976
2725.06157	0.17786
2723.13301	0.17604
2721.20444	0.17435
2719.27588	0.17264
2717.34731	0.17105
2715.41875	0.16966
2713.49019	0.16833
2711.56162	0.16694
2709.63306	0.16556
2707.70449	0.16421
2705.77593	0.16284
2703.84736	0.16151
2701.91880	0.16032
2699.99023	0.15927
2698.06167	0.15832
2696.13311	0.15730
2694.20454	0.15620
2692.27598	0.15509
2690.34741	0.15390
2688.41885	0.15285
2686.49028	0.15213
2684.56172	0.15139
2682.63315	0.15037
2680.70459	0.14924
2678.77603	0.14829
2676.84746	0.14753
2674.91890	0.14683
2672.99033	0.14616
2671.06177	0.14549
2669.13320	0.14464
2667.20464	0.14372
2665.27607	0.14301
2663.34751	0.14244
2661.41895	0.14191
2659.49038	0.14140
2657.56182	0.14090
2655.63325	0.14055
2653.70469	0.14026
2651.77612	0.13974
2649.84756	0.13911
2647.91899	0.13863
2645.99043	0.13821
2644.06187	0.13780
2642.13330	0.13756
2640.20474	0.13754
2638.27617	0.13748
2636.34761	0.13714
2634.41904	0.13667
2632.49048	0.13636
2630.56191	0.13616
2628.63335	0.13601
2626.70479	0.13594
2624.77622	0.13589
2622.84766	0.13586
2620.91909	0.13586
2618.99053	0.13587
2617.06196	0.13598
2615.13340	0.13619
2613.20483	0.13617
2611.27627	0.13597
2609.34771	0.13583
2607.41914	0.13580
2605.49058	0.13591
2603.56201	0.13611
2601.63345	0.13630
2599.70488	0.13650
2597.77632	0.13674
2595.84775	0.13706
2593.91919	0.13742
2591.99062	0.13766
2590.06206	0.13775
2588.13350	0.13787
2586.20493	0.13820
2584.27637	0.13874
2582.34780	0.13918
2580.41924	0.13930
2578.49067	0.13943
2576.56211	0.13989
2574.63354	0.14050
2572.70498	0.14102
2570.77642	0.14152
2568.84785	0.14198
2566.91929	0.14241
2564.99072	0.14296
2563.06216	0.14355
2561.13359	0.14410
2559.20503	0.14466
2557.27646	0.14520
2555.34790	0.14568
2553.41934	0.14617
2551.49077	0.14681
2549.56221	0.14759
2547.63364	0.14834
2545.70508	0.14902
2543.77651	0.14971
2541.84795	0.15032
2539.91938	0.15081
2537.99082	0.15143
2536.06226	0.15226
2534.13369	0.15309
2532.20513	0.15389
2530.27656	0.15474
2528.34800	0.15560
2526.41943	0.15638
2524.49087	0.15710
2522.56230	0.15777
2520.63374	0.15846
2518.70518	0.15931
2516.77661	0.16026
2514.84805	0.16114
2512.91948	0.16204
2510.99092	0.16295
2509.06235	0.16367
2507.13379	0.16433
2505.20522	0.16511
2503.27666	0.16596
2501.34810	0.16685
2499.41953	0.16777
2497.49097	0.16872
2495.56240	0.16959
2493.63384	0.17043
2491.70527	0.17133
2489.77671	0.17234
2487.84814	0.17344
2485.91958	0.17441
2483.99102	0.17522
2482.06245	0.17602
2480.13389	0.17692
2478.20532	0.17795
2476.27676	0.17901
2474.34819	0.17998
2472.41963	0.18098
2470.49106	0.18206
2468.56250	0.18306
2466.63394	0.18392
2464.70537	0.18483
2462.77681	0.18592
2460.84824	0.18710
2458.91968	0.18818
2456.99111	0.18908
2455.06255	0.18982
2453.13398	0.19067
2451.20542	0.19176
2449.27686	0.19303
2447.34829	0.19426
2445.41973	0.19533
2443.49116	0.19640
2441.56260	0.19754
2439.63403	0.19858
2437.70547	0.19958
2435.77690	0.20070
2433.84834	0.20187
2431.91978	0.20300
2429.99121	0.20414
2428.06265	0.20528
2426.13408	0.20638
2424.20552	0.20747
2422.27695	0.20860
2420.34839	0.20969
2418.41982	0.21079
2416.49126	0.21195
2414.56270	0.21316
2412.63413	0.21445
2410.70557	0.21574
2408.77700	0.21696
2406.84844	0.21828
2404.91987	0.21964
2402.99131	0.22091
2401.06274	0.22223
2399.13418	0.22359
2397.20562	0.22484
2395.27705	0.22596
2393.34849	0.22711
2391.41992	0.22843
2389.49136	0.22996
2387.56279	0.23165
2385.63423	0.23360
2383.70566	0.23622
2381.77710	0.23964
2379.84854	0.24358
2377.91997	0.24794
2375.99141	0.25298
2374.06284	0.25882
2372.13428	0.26511
2370.20571	0.27188
2368.27715	0.27924
2366.34858	0.28657
2364.42002	0.29285
2362.49146	0.29813
2360.56289	0.30248
2358.63433	0.30469
2356.70576	0.30395
2354.77720	0.30002
2352.84863	0.29451
2350.92007	0.28929
2348.99150	0.28623
2347.06294	0.28696
2345.13437	0.29208
2343.20581	0.29928
2341.27725	0.30409
2339.34868	0.30565
2337.42012	0.30593
2335.49155	0.30633
2333.56299	0.30659
2331.63442	0.30696
2329.70586	0.30762
2327.77729	0.30803
2325.84873	0.30793
2323.92017	0.30775
2321.99160	0.30780
2320.06304	0.30743
2318.13447	0.30655
2316.20591	0.30598
2314.27734	0.30615
2312.34878	0.30691
2310.42021	0.30773
2308.49165	0.30820
2306.56309	0.30855
2304.63452	0.30899
2302.70596	0.30960
2300.77739	0.31050
2298.84883	0.31167
2296.92026	0.31303
2294.99170	0.31446
2293.06313	0.31587
2291.13457	0.31730
2289.20601	0.31877
2287.27744	0.32019
2285.34888	0.32160
2283.42031	0.32326
2281.49175	0.32523
2279.56318	0.32730
2277.63462	0.32947
2275.70605	0.33176
2273.77749	0.33402
2271.84893	0.33620
2269.92036	0.33834
2267.99180	0.34049
2266.06323	0.34261
2264.13467	0.34461
2262.20610	0.34657
2260.27754	0.34864
2258.34897	0.35076
2256.42041	0.35281
2254.49185	0.35489
2252.56328	0.35707
2250.63472	0.35928
2248.70615	0.36142
2246.77759	0.36351
2244.84902	0.36568
2242.92046	0.36798
2240.99189	0.37029
2239.06333	0.37249
2237.13477	0.37460
2235.20620	0.37678
2233.27764	0.37909
2231.34907	0.38137
2229.42051	0.38352
2227.49194	0.38563
2225.56338	0.38784
2223.63481	0.39017
2221.70625	0.39257
2219.77769	0.39492
2217.84912	0.39720
2215.92056	0.39948
2213.99199	0.40168
2212.06343	0.40383
2210.13486	0.40596
2208.20630	0.40808
2206.27773	0.41022
2204.34917	0.41241
2202.42061	0.41463
2200.49204	0.41682
2198.56348	0.41882
2196.63491	0.42061
2194.70635	0.42250
2192.77778	0.42451
2190.84922	0.42648
2188.92065	0.42845
2186.99209	0.43042
2185.06353	0.43223
2183.13496	0.43387
2181.20640	0.43543
2179.27783	0.43698
2177.34927	0.43861
2175.42070	0.44028
2173.49214	0.44185
2171.56357	0.44337
2169.63501	0.44492
2167.70645	0.44638
2165.77788	0.44757
2163.84932	0.44861
2161.92075	0.44973
2159.99219	0.45101
2158.06362	0.45228
2156.13506	0.45340
2154.20649	0.45427
2152.27793	0.45503
2150.34937	0.45575
2148.42080	0.45630
2146.49224	0.45674
2144.56367	0.45721
2142.63511	0.45767
2140.70654	0.45801
2138.77798	0.45833
2136.84941	0.45868
2134.92085	0.45902
2132.99229	0.45912
2131.06372	0.45887
2129.13516	0.45850
2127.20659	0.45826
2125.27803	0.45807
2123.34946	0.45769
2121.42090	0.45712
2119.49233	0.45650
2117.56377	0.45589
2115.63521	0.45527
2113.70664	0.45453
2111.77808	0.45356
2109.84951	0.45255
2107.92095	0.45164
2105.99238	0.45063
2104.06382	0.44941
2102.13525	0.44805
2100.20669	0.44667
2098.27812	0.44526
2096.34956	0.44378
2094.42100	0.44226
2092.49243	0.44081
2090.56387	0.43929
2088.63530	0.43746
2086.70674	0.43539
2084.77817	0.43341
2082.84961	0.43159
2080.92104	0.42966
2078.99248	0.42763
2077.06392	0.42566
2075.13535	0.42371
2073.20679	0.42163
2071.27822	0.41940
2069.34966	0.41711
2067.42109	0.41476
2065.49253	0.41239
2063.56396	0.40999
2061.63540	0.40752
2059.70684	0.40497
2057.77827	0.40243
2055.84971	0.39992
2053.92114	0.39739
2051.99258	0.39489
2050.06401	0.39237
2048.13545	0.38980
2046.20688	0.38716
2044.27832	0.38454
2042.34976	0.38192
2040.42119	0.37919
2038.49263	0.37637
2036.56406	0.37354
2034.63550	0.37073
2032.70693	0.36794
2030.77837	0.36522
2028.84980	0.36245
2026.92124	0.35959
2024.99268	0.35673
2023.06411	0.35398
2021.13555	0.35131
2019.20698	0.34868
2017.27842	0.34606
2015.34985	0.34331
2013.42129	0.34042
2011.49272	0.33752
2009.56416	0.33475
2007.63560	0.33211
2005.70703	0.32952
2003.77847	0.32693
2001.84990	0.32429
1999.92134	0.32160
1997.99277	0.31902
1996.06421	0.31656
1994.13564	0.31416
1992.20708	0.31172
1990.27852	0.30913
1988.34995	0.30649
1986.42139	0.30396
1984.49282	0.30156
1982.56426	0.29920
1980.63569	0.29680
1978.70713	0.29438
1976.77856	0.29209
1974.85000	0.28997
1972.92144	0.28780
1970.99287	0.28570
1969.06431	0.28378
1967.13574	0.28191
1965.20718	0.27985
1963.27861	0.27769
1961.35005	0.27560
1959.42148	0.27362
1957.49292	0.27182
1955.56436	0.27016
1953.63579	0.26847
1951.70723	0.26674
1949.77866	0.26510
1947.85010	0.26350
1945.92153	0.26200
1943.99297	0.26066
1942.06440	0.25931
1940.13584	0.25777
1938.20728	0.25628
1936.27871	0.25493
1934.35015	0.25368
1932.42158	0.25246
1930.49302	0.25116
1928.56445	0.24982
1926.63589	0.24859
1924.70732	0.24770
1922.77876	0.24703
1920.85020	0.24617
1918.92163	0.24532
1916.99307	0.24450
1915.06450	0.24344
1913.13594	0.24240
1911.20737	0.24164
1909.27881	0.24102
1907.35024	0.24041
1905.42168	0.23977
1903.49312	0.23914
1901.56455	0.23851
1899.63599	0.23792
1897.70742	0.23753
1895.77886	0.23726
1893.85029	0.23695
1891.92173	0.23662
1889.99316	0.23648
1888.06460	0.23627
1886.13604	0.23585
1884.20747	0.23547
1882.27891	0.23530
1880.35034	0.23531
1878.42178	0.23529
1876.49321	0.23520
1874.56465	0.23507
1872.63608	0.23513
1870.70752	0.23559
1868.77896	0.23643
1866.85039	0.23677
1864.92183	0.23643
1862.99326	0.23624
1861.06470	0.23648
1859.13613	0.23694
1857.20757	0.23731
1855.27900	0.23763
1853.35044	0.23797
1851.42187	0.23854
1849.49331	0.23938
1847.56475	0.24033
1845.63618	0.24126
1843.70762	0.24211
1841.77905	0.24264
1839.85049	0.24298
1837.92192	0.24370
1835.99336	0.24464
1834.06479	0.24564
1832.13623	0.24685
1830.20767	0.24855
1828.27910	0.25004
1826.35054	0.25090
1824.42197	0.25204
1822.49341	0.25324
1820.56484	0.25439
1818.63628	0.25570
1816.70771	0.25727
1814.77915	0.25885
1812.85059	0.26063
1810.92202	0.26281
1808.99346	0.26497
1807.06489	0.26684
1805.13633	0.26862
1803.20776	0.27078
1801.27920	0.27343
1799.35063	0.27650
1797.42207	0.27924
1795.49351	0.28170
1793.56494	0.28452
1791.63638	0.28813
1789.70781	0.29144
1787.77925	0.29391
1785.85068	0.29703
1783.92212	0.30083
1781.99355	0.30484
1780.06499	0.30899
1778.13643	0.31323
1776.20786	0.31734
1774.27930	0.32199
1772.35073	0.32823
1770.42217	0.33453
1768.49360	0.33957
1766.56504	0.34455
1764.63647	0.34985
1762.70791	0.35589
1760.77935	0.36356
1758.85078	0.37075
1756.92222	0.37790
1754.99365	0.38570
1753.06509	0.39301
1751.13652	0.40183
1749.20796	0.41279
1747.27939	0.42343
1745.35083	0.43262
1743.42227	0.44218
1741.49370	0.45281
1739.56514	0.46544
1737.63657	0.47809
1735.70801	0.48943
1733.77944	0.50624
1731.85088	0.52545
1729.92231	0.54031
1727.99375	0.55557
1726.06519	0.57247
1724.13662	0.59123
1722.20806	0.61137
1720.27949	0.63010
1718.35093	0.65223
1716.42236	0.68391
1714.49380	0.71358
1712.56523	0.73788
1710.63667	0.76153
1708.70811	0.78705
1706.77954	0.81622
1704.85098	0.85069
1702.92241	0.88150
1700.99385	0.91250
1699.06528	0.95740
1697.13672	0.99726
1695.20815	1.03701
1693.27959	1.07585
1691.35103	1.10752
1689.42246	1.14384
1687.49390	1.18181
1685.56533	1.21870
1683.63677	1.27404
1681.70820	1.32992
1679.77964	1.36619
1677.85107	1.40125
1675.92251	1.44156
1673.99395	1.49054
1672.06538	1.53419
1670.13682	1.57654
1668.20825	1.62882
1666.27969	1.67048
1664.35112	1.70615
1662.42256	1.75001
1660.49399	1.79755
1658.56543	1.83435
1656.63687	1.86485
1654.70830	1.89552
1652.77974	1.94930
1650.85117	2.00196
1648.92261	2.02393
1646.99404	2.05309
1645.06548	2.08467
1643.13691	2.10350
1641.20835	2.11672
1639.27979	2.13009
1637.35122	2.14022
1635.42266	2.14522
1633.49409	2.14021
1631.56553	2.12776
1629.63696	2.11389
1627.70840	2.09186
1625.77983	2.06533
1623.85127	2.03122
1621.92271	1.98749
1619.99414	1.94730
1618.06558	1.90839
1616.13701	1.85281
1614.20845	1.79452
1612.27988	1.74952
1610.35132	1.70298
1608.42275	1.65191
1606.49419	1.60075
1604.56562	1.55302
1602.63706	1.50646
1600.70850	1.46044
1598.77993	1.41777
1596.85137	1.37800
1594.92280	1.33977
1592.99424	1.30251
1591.06567	1.26764
1589.13711	1.23425
1587.20854	1.20259
1585.27998	1.17319
1583.35142	1.14535
1581.42285	1.11928
1579.49429	1.09672
1577.56572	1.07616
1575.63716	1.05045
1573.70859	1.02676
1571.78003	1.01056
1569.85146	0.99301
1567.92290	0.97264
1565.99434	0.95611
1564.06577	0.94202
1562.13721	0.93027
1560.20864	0.92053
1558.28008	0.90280
1556.35151	0.88446
1554.42295	0.87280
1552.49438	0.86182
1550.56582	0.85134
1548.63726	0.84109
1546.70869	0.83235
1544.78013	0.82488
1542.85156	0.81759
1540.92300	0.80934
1538.99443	0.79741
1537.06587	0.78758
1535.13730	0.78131
1533.20874	0.77456
1531.28018	0.76691
1529.35161	0.76086
1527.42305	0.75559
1525.49448	0.75013
1523.56592	0.74498
1521.63735	0.73955
1519.70879	0.73319
1517.78022	0.72749
1515.85166	0.72166
1513.92310	0.71593
1511.99453	0.71149
1510.06597	0.70819
1508.13740	0.70567
1506.20884	0.70087
1504.28027	0.69461
1502.35171	0.69046
1500.42314	0.68743
1498.49458	0.68472
1496.56602	0.68130
1494.63745	0.67733
1492.70889	0.67424
1490.78032	0.67205
1488.85176	0.66929
1486.92319	0.66552
1484.99463	0.66197
1483.06606	0.65906
1481.13750	0.65634
1479.20894	0.65367
1477.28037	0.65139
1475.35181	0.64939
1473.42324	0.64706
1471.49468	0.64342
1469.56611	0.63964
1467.63755	0.63699
1465.70898	0.63508
1463.78042	0.63304
1461.85186	0.63083
1459.92329	0.62912
1457.99473	0.62773
1456.06616	0.62521
1454.13760	0.62197
1452.20903	0.61959
1450.28047	0.61767
1448.35190	0.61587
1446.42334	0.61399
1444.49478	0.61225
1442.56621	0.61085
1440.63765	0.60957
1438.70908	0.60844
1436.78052	0.60729
1434.85195	0.60565
1432.92339	0.60390
1430.99482	0.60243
1429.06626	0.60087
1427.13770	0.59918
1425.20913	0.59776
1423.28057	0.59651
1421.35200	0.59528
1419.42344	0.59412
1417.49487	0.59272
1415.56631	0.59100
1413.63774	0.58942
1411.70918	0.58782
1409.78062	0.58613
1407.85205	0.58470
1405.92349	0.58358
1403.99492	0.58234
1402.06636	0.58093
1400.13779	0.57981
1398.20923	0.57898
1396.28066	0.57809
1394.35210	0.57675
1392.42354	0.57504
1390.49497	0.57353
1388.56641	0.57244
1386.63784	0.57138
1384.70928	0.56985
1382.78071	0.56830
1380.85215	0.56723
1378.92358	0.56653
1376.99502	0.56582
1375.06646	0.56501
1373.13789	0.56396
1371.20933	0.56272
1369.28076	0.56157
1367.35220	0.56056
1365.42363	0.55966
1363.49507	0.55889
1361.56650	0.55794
1359.63794	0.55677
1357.70937	0.55578
1355.78081	0.55498
1353.85225	0.55416
1351.92368	0.55332
1349.99512	0.55245
1348.06655	0.55148
1346.13799	0.55044
1344.20942	0.54947
1342.28086	0.54867
1340.35229	0.54805
1338.42373	0.54721
1336.49517	0.54594
1334.56660	0.54465
1332.63804	0.54366
1330.70947	0.54283
1328.78091	0.54201
1326.85234	0.54124
1324.92378	0.54043
1322.99521	0.53951
1321.06665	0.53862
1319.13809	0.53782
1317.20952	0.53695
1315.28096	0.53604
1313.35239	0.53511
1311.42383	0.53422
1309.49526	0.53342
1307.56670	0.53258
1305.63813	0.53170
1303.70957	0.53087
1301.78101	0.53014
1299.85244	0.52935
1297.92388	0.52836
1295.99531	0.52732
1294.06675	0.52648
1292.13818	0.52576
1290.20962	0.52507
1288.28105	0.52430
1286.35249	0.52342
1284.42393	0.52261
1282.49536	0.52188
1280.56680	0.52120
1278.63823	0.52055
1276.70967	0.51989
1274.78110	0.51916
1272.85254	0.51837
1270.92397	0.51772
1268.99541	0.51716
1267.06685	0.51648
1265.13828	0.51572
1263.20972	0.51494
1261.28115	0.51414
1259.35259	0.51332
1257.42402	0.51258
1255.49546	0.51198
1253.56689	0.51142
1251.63833	0.51083
1249.70977	0.51019
1247.78120	0.50939
1245.85264	0.50858
1243.92407	0.50787
1241.99551	0.50721
1240.06694	0.50650
1238.13838	0.50564
1236.20981	0.50478
1234.28125	0.50403
1232.35269	0.50330
1230.42412	0.50253
1228.49556	0.50171
1226.56699	0.50089
1224.63843	0.50004
1222.70986	0.49910
1220.78130	0.49828
1218.85273	0.49763
1216.92417	0.49682
1214.99561	0.49582
1213.06704	0.49479
1211.13848	0.49383
1209.20991	0.49294
1207.28135	0.49203
1205.35278	0.49103
1203.42422	0.49011
1201.49565	0.48932
1199.56709	0.48850
1197.63853	0.48756
1195.70996	0.48662
1193.78140	0.48581
1191.85283	0.48499
1189.92427	0.48410
1187.99570	0.48313
1186.06714	0.48211
1184.13857	0.48110
1182.21001	0.48021
1180.28145	0.47933
1178.35288	0.47842
1176.42432	0.47757
1174.49575	0.47663
1172.56719	0.47555
1170.63862	0.47453
1168.71006	0.47361
1166.78149	0.47266
1164.85293	0.47161
1162.92437	0.47058
1160.99580	0.46976
1159.06724	0.46908
1157.13867	0.46842
1155.21011	0.46766
1153.28154	0.46679
1151.35298	0.46596
1149.42441	0.46530
1147.49585	0.46476
1145.56729	0.46410
1143.63872	0.46318
1141.71016	0.46223
1139.78159	0.46158
1137.85303	0.46105
1135.92446	0.46031
1133.99590	0.45943
1132.06733	0.45866
1130.13877	0.45801
1128.21021	0.45738
1126.28164	0.45667
1124.35308	0.45588
1122.42451	0.45516
1120.49595	0.45444
1118.56738	0.45366
1116.63882	0.45307
1114.71025	0.45281
1112.78169	0.45265
1110.85312	0.45235
1108.92456	0.45199
1106.99600	0.45164
1105.06743	0.45125
1103.13887	0.45085
1101.21030	0.45045
1099.28174	0.44986
1097.35317	0.44915
1095.42461	0.44867
1093.49604	0.44855
1091.56748	0.44858
1089.63892	0.44851
1087.71035	0.44831
1085.78179	0.44805
1083.85322	0.44786
1081.92466	0.44772
1079.99609	0.44756
1078.06753	0.44732
1076.13896	0.44713
1074.21040	0.44714
1072.28184	0.44725
1070.35327	0.44722
1068.42471	0.44707
1066.49614	0.44703
1064.56758	0.44721
1062.63901	0.44756
1060.71045	0.44791
1058.78188	0.44832
1056.85332	0.44876
1054.92476	0.44889
1052.99619	0.44883
1051.06763	0.44902
1049.13906	0.44943
1047.21050	0.44990
1045.28193	0.45047
1043.35337	0.45102
1041.42480	0.45142
1039.49624	0.45180
1037.56768	0.45237
1035.63911	0.45306
1033.71055	0.45375
1031.78198	0.45448
1029.85342	0.45539
1027.92485	0.45647
1025.99629	0.45763
1024.06772	0.45882
1022.13916	0.45984
1020.21060	0.46073
1018.28203	0.46191
1016.35347	0.46341
1014.42490	0.46481
1012.49634	0.46603
1010.56777	0.46727
1008.63921	0.46868
1006.71064	0.47038
1004.78208	0.47219
1002.85352	0.47385
1000.92495	0.47553
998.99639	0.47749
997.06782	0.47967
995.13926	0.48183
993.21069	0.48391
991.28213	0.48610
989.35356	0.48838
987.42500	0.49077
985.49644	0.49350
983.56787	0.49634
981.63931	0.49909
979.71074	0.50220
977.78218	0.50557
975.85361	0.50863
973.92505	0.51159
971.99648	0.51478
970.06792	0.51814
968.13936	0.52176
966.21079	0.52566
964.28223	0.52960
962.35366	0.53358
960.42510	0.53791
958.49653	0.54249
956.56797	0.54702
954.63940	0.55166
952.71084	0.55656
950.78228	0.56148
948.85371	0.56644
946.92515	0.57184
944.99658	0.57748
943.06802	0.58291
941.13945	0.58843
939.21089	0.59439
937.28232	0.60083
935.35376	0.60757
933.42520	0.61415
931.49663	0.62073
929.56807	0.62791
927.63950	0.63549
925.71094	0.64286
923.78237	0.65009
921.85381	0.65767
919.92524	0.66571
917.99668	0.67413
916.06812	0.68309
914.13955	0.69223
912.21099	0.70091
910.28242	0.70911
908.35386	0.71751
906.42529	0.72670
904.49673	0.73640
902.56816	0.74591
900.63960	0.75483
898.71104	0.76388
896.78247	0.77433
894.85391	0.78531
892.92534	0.79600
890.99678	0.80749
889.06821	0.81938
887.13965	0.83054
885.21108	0.84135
883.28252	0.85159
881.35396	0.86165
879.42539	0.87320
877.49683	0.88479
875.56826	0.89498
873.63970	0.90628
871.71113	0.91864
869.78257	0.92960
867.85400	0.94067
865.92544	0.95306
863.99687	0.96581
862.06831	0.97888
860.13975	0.99098
858.21118	1.00154
856.28262	1.01285
854.35405	1.02537
852.42549	1.03765
850.49692	1.05043
848.56836	1.06426
846.63979	1.07708
844.71123	1.08987
842.78267	1.10413
840.85410	1.11741
838.92554	1.12994
836.99697	1.14137
835.06841	1.15042
833.13984	1.16266
831.21128	1.18046
829.28271	1.19865
827.35415	1.21386
825.42559	1.23112
823.49702	1.25864
821.56846	1.28825
819.63989	1.30616
817.71133	1.31707
815.78276	1.33077
813.85420	1.34943
811.92563	1.36826
809.99707	1.37525
808.06851	1.37743
806.13994	1.39940
804.21138	1.43783
802.28281	1.47641
800.35425	1.52097
798.42568	1.58846
796.49712	1.64706
794.56855	1.70410
792.63999	1.92596
790.71143	2.75973
788.78286	2.07442
786.85430	1.66081
784.92573	1.62936
782.99717	1.81046
781.06860	2.01122
779.14004	1.94237
777.21147	1.69246
775.28291	1.56912
773.35435	1.57870
771.42578	1.61743
769.49722	1.51354
767.56865	1.37752
765.64009	1.25488
763.71152	1.18033
761.78296	1.16387
759.85439	1.12639
757.92583	1.06512
755.99727	1.07122
754.06870	1.09548
752.14014	1.05123
750.21157	1.02990
748.28301	1.11088
746.35444	1.13452
744.42588	0.98293
742.49731	0.84573
740.56875	0.77547
738.64019	0.78078
736.71162	0.77905
734.78306	0.66138
732.85449	0.52021
730.92593	0.43579
728.99736	0.40289
727.06880	0.37561
725.14023	0.31647
723.21167	0.20899
721.28311	0.11262
719.35454	0.08355
717.42598	0.07578
715.49741	0.04516
713.56885	0.03429
711.64028	0.03980
709.71172	0.02710
707.78315	-0.00278
705.85459	-0.11802
703.92603	-0.28992
701.99746	-0.26613
700.06890	-0.03896
698.14033	0.10334
696.21177	0.07487
694.28320	-0.05700
692.35464	-0.17062
690.42607	-0.18675
688.49751	-0.15017
686.56895	-0.09893
684.64038	-0.06447
682.71182	-0.11638
680.78325	-0.26137
678.85469	-0.36474
676.92612	-0.29082
674.99756	-0.16671
673.06899	-0.11015
671.14043	-0.08552
669.21187	-0.10544
667.28330	-0.13655
665.35474	-0.12446
663.42617	-0.09865
661.49761	-0.11904
659.56904	-0.13945
657.64048	-0.05951
655.71191	0.06901
653.78335	0.07816
651.85479	-0.07053
649.92622	-0.22567
647.99766	-0.23823
646.06909	-0.15439
644.14053	-0.03721
642.21196	0.04286
640.28340	0.04002
638.35483	-0.01158
636.42627	-0.04798
634.49771	-0.08170
632.56914	-0.13737
630.64058	-0.17383
628.71201	-0.18121
626.78345	-0.17461
624.85488	-0.15092
622.92632	-0.13344
620.99775	-0.10071
619.06919	-0.04869
617.14062	-0.05119
615.21206	-0.07578
613.28350	-0.06612
611.35493	-0.03575
609.42637	-0.00865
607.49780	-0.01935
605.56924	-0.03397
603.64067	-0.02921
601.71211	-0.04779
599.78354	-0.07743
597.85498	-0.10744
595.92642	-0.13711
593.99785	-0.10039
592.06929	-0.03196
590.14072	-0.03147
588.21216	-0.10732
586.28359	-0.17941
584.35503	-0.18146
582.42646	-0.13041
580.49790	-0.08340
578.56934	-0.06385
576.64077	-0.05209
574.71221	-0.04417
572.78364	-0.04900
570.85508	-0.04758
568.92651	-0.04488
566.99795	-0.07556
565.06938	-0.11614
563.14082	-0.11651
561.21226	-0.08925
559.28369	-0.07040
557.35513	-0.04915
555.42656	0.04454
553.49800	0.11433
551.56943	0.00734
549.64087	-0.09209
547.71230	-0.13629
545.78374	-0.16148
543.85518	-0.16245
541.92661	-0.15849
539.99805	-0.14270
538.06948	-0.08541
536.14092	-0.05775
534.21235	-0.09394
532.28379	-0.11275
530.35522	-0.09319
528.42666	-0.10449
526.49810	-0.14169
524.56953	-0.15052
522.64097	-0.13251
520.71240	-0.15157
518.78384	-0.20555
516.85527	-0.18826
514.92671	-0.12651
512.99814	-0.07273
511.06958	-0.03047
509.14102	-0.02715
507.21245	-0.04056
505.28389	-0.06247
503.35532	-0.09016
501.42676	-0.08814
499.49819	-0.05995
