3997.91411	0.07558
3995.98555	0.07618
3994.05698	0.07691
3992.12842	0.07740
3990.19985	0.07750
3988.27129	0.07738
3986.34272	0.07730
3984.41416	0.07736
3982.48560	0.07734
3980.55703	0.07753
3978.62847	0.07819
3976.69990	0.07872
3974.77134	0.07856
3972.84277	0.07817
3970.91421	0.07818
3968.98564	0.07840
3967.05708	0.07871
3965.12852	0.07900
3963.19995	0.07893
3961.27139	0.07862
3959.34282	0.07851
3957.41426	0.07872
3955.48569	0.07917
3953.55713	0.07955
3951.62856	0.07981
3949.70000	0.08016
3947.77144	0.08027
3945.84287	0.08024
3943.91431	0.08060
3941.98574	0.08111
3940.05718	0.08117
3938.12861	0.08067
3936.20005	0.07990
3934.27148	0.07948
3932.34292	0.07980
3930.41436	0.08030
3928.48579	0.08025
3926.55723	0.07989
3924.62866	0.07972
3922.70010	0.07976
3920.77153	0.07972
3918.84297	0.07948
3916.91440	0.07899
3914.98584	0.07834
3913.05728	0.07783
3911.12871	0.07784
3909.20015	0.07838
3907.27158	0.07889
3905.34302	0.07933
3903.41445	0.08005
3901.48589	0.08054
3899.55732	0.08041
3897.62876	0.08013
3895.70020	0.07978
3893.77163	0.07945
3891.84307	0.07957
3889.91450	0.07971
3887.98594	0.07905
3886.05737	0.07888
3884.12881	0.08004
3882.20024	0.08091
3880.27168	0.08080
3878.34312	0.08027
3876.41455	0.07995
3874.48599	0.08047
3872.55742	0.08113
3870.62886	0.08098
3868.70029	0.08100
3866.77173	0.08173
3864.84316	0.08260
3862.91460	0.08305
3860.98604	0.08263
3859.05747	0.08218
3857.12891	0.08255
3855.20034	0.08356
3853.27178	0.08493
3851.34321	0.08554
3849.41465	0.08477
3847.48608	0.08421
3845.55752	0.08437
3843.62896	0.08528
3841.70039	0.08686
3839.77183	0.08848
3837.84326	0.08959
3835.91470	0.08998
3833.98613	0.09004
3832.05757	0.09015
3830.12900	0.09030
3828.20044	0.09059
3826.27187	0.09112
3824.34331	0.09186
3822.41475	0.09306
3820.48618	0.09527
3818.55762	0.09727
3816.62905	0.09795
3814.70049	0.09798
3812.77192	0.09753
3810.84336	0.09740
3808.91479	0.09833
3806.98623	0.10024
3805.05767	0.10199
3803.12910	0.10307
3801.20054	0.10466
3799.27197	0.10610
3797.34341	0.10634
3795.41484	0.10684
3793.48628	0.10786
3791.55771	0.10875
3789.62915	0.10951
3787.70059	0.11038
3785.77202	0.11166
3783.84346	0.11329
3781.91489	0.11492
3779.98633	0.11661
3778.05776	0.11856
3776.12920	0.12007
3774.20063	0.12117
3772.27207	0.12258
3770.34351	0.12474
3768.41494	0.12723
3766.48638	0.12900
3764.55781	0.13057
3762.62925	0.13229
3760.70068	0.13397
3758.77212	0.13625
3756.84355	0.13894
3754.91499	0.14141
3752.98643	0.14440
3751.05786	0.14858
3749.12930	0.15276
3747.20073	0.15489
3745.27217	0.15624
3743.34360	0.15856
3741.41504	0.16088
3739.48647	0.16244
3737.55791	0.16460
3735.62935	0.16870
3733.70078	0.17398
3731.77222	0.17824
3729.84365	0.18156
3727.91509	0.18499
3725.98652	0.18995
3724.05796	0.19665
3722.12939	0.20401
3720.20083	0.21199
3718.27227	0.22040
3716.34370	0.22859
3714.41514	0.23638
3712.48657	0.24520
3710.55801	0.25680
3708.62944	0.26912
3706.70088	0.28012
3704.77231	0.29108
3702.84375	0.30382
3700.91519	0.32048
3698.98662	0.33876
3697.05806	0.35581
3695.12949	0.37381
3693.20093	0.39345
3691.27236	0.41530
3689.34380	0.44324
3687.41523	0.47692
3685.48667	0.50698
3683.55811	0.53318
3681.62954	0.56100
3679.70098	0.59215
3677.77241	0.62432
3675.84385	0.66152
3673.91528	0.71225
3671.98672	0.75592
3670.05815	0.79521
3668.12959	0.84719
3666.20103	0.89489
3664.27246	0.93536
3662.34390	0.97851
3660.41533	1.02480
3658.48677	1.07016
3656.55820	1.11793
3654.62964	1.17160
3652.70107	1.21810
3650.77251	1.25887
3648.84395	1.31293
3646.91538	1.37737
3644.98682	1.42595
3643.05825	1.46479
3641.12969	1.50473
3639.20112	1.54846
3637.27256	1.59234
3635.34399	1.63456
3633.41543	1.67621
3631.48687	1.71483
3629.55830	1.75398
3627.62974	1.80643
3625.70117	1.85714
3623.77261	1.89181
3621.84404	1.92442
3619.91548	1.96184
3617.98691	2.00709
3616.05835	2.05167
3614.12979	2.09012
3612.20122	2.13013
3610.27266	2.16976
3608.34409	2.20890
3606.41553	2.25043
3604.48696	2.28913
3602.55840	2.32340
3600.62983	2.36043
3598.70127	2.40127
3596.77271	2.44126
3594.84414	2.48076
3592.91558	2.52140
3590.98701	2.56079
3589.05845	2.59802
3587.12988	2.64190
3585.20132	2.68953
3583.27275	2.72982
3581.34419	2.76829
3579.41562	2.81000
3577.48706	2.85216
3575.55850	2.89405
3573.62993	2.93798
3571.70137	2.97914
3569.77280	3.01694
3567.84424	3.06104
3565.91567	3.11725
3563.98711	3.16808
3562.05854	3.20900
3560.12998	3.25226
3558.20142	3.29818
3556.27285	3.34305
3554.34429	3.38481
3552.41572	3.42677
3550.48716	3.47207
3548.55859	3.51935
3546.63003	3.56833
3544.70146	3.61854
3542.77290	3.66579
3540.84434	3.71084
3538.91577	3.75611
3536.98721	3.80051
3535.05864	3.84609
3533.13008	3.89380
3531.20151	3.94409
3529.27295	3.99733
3527.34438	4.05236
3525.41582	4.10370
3523.48726	4.14784
3521.55869	4.18915
3519.63013	4.23402
3517.70156	4.28669
3515.77300	4.34213
3513.84443	4.39364
3511.91587	4.44079
3509.98730	4.48747
3508.05874	4.53522
3506.13018	4.58058
3504.20161	4.62507
3502.27305	4.67318
3500.34448	4.72347
3498.41592	4.77255
3496.48735	4.81723
3494.55879	4.85918
3492.63022	4.90946
3490.70166	4.96876
3488.77310	5.02780
3486.84453	5.08048
3484.91597	5.12755
3482.98740	5.17544
3481.05884	5.22415
3479.13027	5.27109
3477.20171	5.31749
3475.27314	5.36022
3473.34458	5.40008
3471.41602	5.44626
3469.48745	5.50052
3467.55889	5.55365
3465.63032	5.60340
3463.70176	5.65749
3461.77319	5.70868
3459.84463	5.74651
3457.91606	5.77978
3455.98750	5.82639
3454.05894	5.88452
3452.13037	5.93645
3450.20181	5.97956
3448.27324	6.02515
3446.34468	6.08410
3444.41611	6.13983
3442.48755	6.18253
3440.55898	6.22856
3438.63042	6.28475
3436.70186	6.34172
3434.77329	6.39626
3432.84473	6.46314
3430.91616	6.53254
3428.98760	6.58549
3427.05903	6.63240
3425.13047	6.68226
3423.20190	6.71552
3421.27334	6.73829
3419.34478	6.78754
3417.41621	6.87043
3415.48765	6.94603
3413.55908	6.97436
3411.63052	6.98927
3409.70195	7.03535
3407.77339	7.11281
3405.84482	7.18002
3403.91626	7.20031
3401.98770	7.20430
3400.05913	7.24535
3398.13057	7.31964
3396.20200	7.39358
3394.27344	7.44992
3392.34487	7.48198
3390.41631	7.51087
3388.48774	7.53907
3386.55918	7.55671
3384.63062	7.55032
3382.70205	7.57490
3380.77349	7.67545
3378.84492	7.75936
3376.91636	7.79044
3374.98779	7.82158
3373.05923	7.86809
3371.13066	7.90949
3369.20210	7.92986
3367.27354	7.91298
3365.34497	7.88079
3363.41641	7.86435
3361.48784	7.89194
3359.55928	7.97850
3357.63071	8.03297
3355.70215	8.00701
3353.77358	7.97246
3351.84502	7.98958
3349.91646	8.03188
3347.98789	8.07999
3346.05933	8.15729
3344.13076	8.24870
3342.20220	8.26640
3340.27363	8.19039
3338.34507	8.13512
3336.41650	8.09282
3334.48794	8.05752
3332.55937	8.09566
3330.63081	8.20603
3328.70225	8.31321
3326.77368	8.34719
3324.84512	8.33038
3322.91655	8.33278
3320.98799	8.36270
3319.05942	8.31792
3317.13086	8.23813
3315.20229	8.24538
3313.27373	8.33655
3311.34517	8.40105
3309.41660	8.34323
3307.48804	8.26985
3305.55947	8.32981
3303.63091	8.47917
3301.70234	8.54925
3299.77378	8.50678
3297.84521	8.40017
3295.91665	8.32415
3293.98809	8.35079
3292.05952	8.45619
3290.13096	8.56227
3288.20239	8.53754
3286.27383	8.42841
3284.34526	8.37103
3282.41670	8.32846
3280.48813	8.27974
3278.55957	8.33370
3276.63101	8.45596
3274.70244	8.43543
3272.77388	8.26975
3270.84531	8.16419
3268.91675	8.17339
3266.98818	8.28194
3265.05962	8.51725
3263.13105	8.74101
3261.20249	8.69798
3259.27393	8.50342
3257.34536	8.48036
3255.41680	8.60042
3253.48823	8.56483
3251.55967	8.40808
3249.63110	8.35740
3247.70254	8.42534
3245.77397	8.46509
3243.84541	8.43661
3241.91685	8.41881
3239.98828	8.40118
3238.05972	8.36706
3236.13115	8.37772
3234.20259	8.41711
3232.27402	8.46196
3230.34546	8.52060
3228.41689	8.46766
3226.48833	8.36989
3224.55977	8.39805
3222.63120	8.47670
3220.70264	8.46504
3218.77407	8.30129
3216.84551	8.09982
3214.91694	8.05984
3212.98838	8.13415
3211.05981	8.15694
3209.13125	8.16213
3207.20269	8.17695
3205.27412	8.16539
3203.34556	8.17430
3201.41699	8.17724
3199.48843	8.08547
3197.55986	7.96736
3195.63130	7.91682
3193.70273	7.88650
3191.77417	7.81719
3189.84561	7.75645
3187.91704	7.71867
3185.98848	7.63674
3184.05991	7.51562
3182.13135	7.42977
3180.20278	7.40668
3178.27422	7.39582
3176.34565	7.34207
3174.41709	7.25558
3172.48853	7.17210
3170.55996	7.10176
3168.63140	7.03308
3166.70283	6.96757
3164.77427	6.91526
3162.84570	6.87289
3160.91714	6.81990
3158.98857	6.74735
3157.06001	6.68041
3155.13145	6.62567
3153.20288	6.56520
3151.27432	6.49899
3149.34575	6.41853
3147.41719	6.32749
3145.48862	6.26045
3143.56006	6.21701
3141.63149	6.15943
3139.70293	6.07491
3137.77437	5.98469
3135.84580	5.90607
3133.91724	5.84376
3131.98867	5.78220
3130.06011	5.70904
3128.13154	5.63559
3126.20298	5.56209
3124.27441	5.48488
3122.34585	5.41202
3120.41729	5.34682
3118.48872	5.27628
3116.56016	5.19202
3114.63159	5.10797
3112.70303	5.03357
3110.77446	4.96362
3108.84590	4.89543
3106.91733	4.82929
3104.98877	4.76440
3103.06021	4.70145
3101.13164	4.63623
3099.20308	4.56478
3097.27451	4.49283
3095.34595	4.42518
3093.41738	4.36025
3091.48882	4.29463
3089.56025	4.22790
3087.63169	4.16248
3085.70312	4.09813
3083.77456	4.03489
3081.84600	3.97439
3079.91743	3.91272
3077.98887	3.84736
3076.06030	3.78334
3074.13174	3.72289
3072.20317	3.66368
3070.27461	3.60551
3068.34604	3.54729
3066.41748	3.48680
3064.48892	3.42714
3062.56035	3.37106
3060.63179	3.31654
3058.70322	3.26221
3056.77466	3.20813
3054.84609	3.15381
3052.91753	3.09996
3050.98896	3.04807
3049.06040	2.99727
3047.13184	2.94661
3045.20327	2.89648
3043.27471	2.84711
3041.34614	2.79870
3039.41758	2.75102
3037.48901	2.70326
3035.56045	2.65506
3033.63188	2.60796
3031.70332	2.56324
3029.77476	2.52009
3027.84619	2.47749
3025.91763	2.43441
3023.98906	2.39071
3022.06050	2.34820
3020.13193	2.30761
3018.20337	2.26769
3016.27480	2.22788
3014.34624	2.18874
3012.41768	2.15020
3010.48911	2.11176
3008.56055	2.07413
3006.63198	2.03802
3004.70342	2.00256
3002.77485	1.96687
3000.84629	1.93138
2998.91772	1.89691
2996.98916	1.86392
2995.06060	1.83190
2993.13203	1.79989
2991.20347	1.76821
2989.27490	1.73717
2987.34634	1.70646
2985.41777	1.67651
2983.48921	1.64743
2981.56064	1.61864
2979.63208	1.59040
2977.70352	1.56282
2975.77495	1.53536
2973.84639	1.50826
2971.91782	1.48231
2969.98926	1.45747
2968.06069	1.43297
2966.13213	1.40857
2964.20356	1.38438
2962.27500	1.36050
2960.34644	1.33724
2958.41787	1.31435
2956.48931	1.29143
2954.56074	1.26837
2952.63218	1.24563
2950.70361	1.22385
2948.77505	1.20291
2946.84648	1.18236
2944.91792	1.16215
2942.98936	1.14254
2941.06079	1.12341
2939.13223	1.10466
2937.20366	1.08648
2935.27510	1.06868
2933.34653	1.05108
2931.41797	1.03385
2929.48940	1.01743
2927.56084	1.00164
2925.63228	0.98578
2923.70371	0.96949
2921.77515	0.95239
2919.84658	0.93469
2917.91802	0.91674
2915.98945	0.89870
2914.06089	0.88066
2912.13232	0.86294
2910.20376	0.84622
2908.27520	0.83053
2906.34663	0.81532
2904.41807	0.80058
2902.48950	0.78672
2900.56094	0.77355
2898.63237	0.76051
2896.70381	0.74737
2894.77524	0.73417
2892.84668	0.72138
2890.91812	0.70922
2888.98955	0.69738
2887.06099	0.68588
2885.13242	0.67497
2883.20386	0.66433
2881.27529	0.65364
2879.34673	0.64310
2877.41816	0.63286
2875.48960	0.62294
2873.56104	0.61328
2871.63247	0.60352
2869.70391	0.59351
2867.77534	0.58340
2865.84678	0.57348
2863.91821	0.56406
2861.98965	0.55510
2860.06108	0.54646
2858.13252	0.53826
2856.20396	0.53050
2854.27539	0.52258
2852.34683	0.51418
2850.41826	0.50551
2848.48970	0.49627
2846.56113	0.48645
2844.63257	0.47693
2842.70400	0.46827
2840.77544	0.46056
2838.84687	0.45354
2836.91831	0.44659
2834.98975	0.43966
2833.06118	0.43317
2831.13262	0.42699
2829.20405	0.42091
2827.27549	0.41499
2825.34692	0.40903
2823.41836	0.40290
2821.48979	0.39687
2819.56123	0.39094
2817.63267	0.38495
2815.70410	0.37910
2813.77554	0.37360
2811.84697	0.36832
2809.91841	0.36313
2807.98984	0.35795
2806.06128	0.35269
2804.13271	0.34737
2802.20415	0.34232
2800.27559	0.33766
2798.34702	0.33304
2796.41846	0.32832
2794.48989	0.32371
2792.56133	0.31927
2790.63276	0.31496
2788.70420	0.31079
2786.77563	0.30666
2784.84707	0.30246
2782.91851	0.29833
2780.98994	0.29440
2779.06138	0.29055
2777.13281	0.28674
2775.20425	0.28310
2773.27568	0.27958
2771.34712	0.27604
2769.41855	0.27250
2767.48999	0.26892
2765.56143	0.26539
2763.63286	0.26215
2761.70430	0.25909
2759.77573	0.25603
2757.84717	0.25300
2755.91860	0.25016
2753.99004	0.24746
2752.06147	0.24460
2750.13291	0.24162
2748.20435	0.23883
2746.27578	0.23626
2744.34722	0.23370
2742.41865	0.23097
2740.49009	0.22818
2738.56152	0.22570
2736.63296	0.22363
2734.70439	0.22162
2732.77583	0.21927
2730.84727	0.21687
2728.91870	0.21474
2726.99014	0.21266
2725.06157	0.21068
2723.13301	0.20887
2721.20444	0.20692
2719.27588	0.20480
2717.34731	0.20279
2715.41875	0.20086
2713.49019	0.19901
2711.56162	0.19730
2709.63306	0.19568
2707.70449	0.19406
2705.77593	0.19245
2703.84736	0.19085
2701.91880	0.18933
2699.99023	0.18799
2698.06167	0.18664
2696.13311	0.18514
2694.20454	0.18374
2692.27598	0.18253
2690.34741	0.18124
2688.41885	0.17983
2686.49028	0.17836
2684.56172	0.17695
2682.63315	0.17571
2680.70459	0.17456
2678.77603	0.17348
2676.84746	0.17247
2674.91890	0.17145
2672.99033	0.17034
2671.06177	0.16909
2669.13320	0.16785
2667.20464	0.16686
2665.27607	0.16591
2663.34751	0.16488
2661.41895	0.16395
2659.49038	0.16320
2657.56182	0.16253
2655.63325	0.16182
2653.70469	0.16120
2651.77612	0.16064
2649.84756	0.15998
2647.91899	0.15938
2645.99043	0.15888
2644.06187	0.15821
2642.13330	0.15731
2640.20474	0.15657
2638.27617	0.15611
2636.34761	0.15568
2634.41904	0.15525
2632.49048	0.15506
2630.56191	0.15500
2628.63335	0.15470
2626.70479	0.15414
2624.77622	0.15364
2622.84766	0.15334
2620.91909	0.15310
2618.99053	0.15292
2617.06196	0.15274
2615.13340	0.15262
2613.20483	0.15263
2611.27627	0.15254
2609.34771	0.15234
2607.41914	0.15223
2605.49058	0.15212
2603.56201	0.15202
2601.63345	0.15215
2599.70488	0.15238
2597.77632	0.15235
2595.84775	0.15220
2593.91919	0.15227
2591.99062	0.15249
2590.06206	0.15259
2588.13350	0.15261
2586.20493	0.15282
2584.27637	0.15329
2582.34780	0.15372
2580.41924	0.15386
2578.49067	0.15391
2576.56211	0.15422
2574.63354	0.15472
2572.70498	0.15517
2570.77642	0.15555
2568.84785	0.15597
2566.91929	0.15631
2564.99072	0.15650
2563.06216	0.15677
2561.13359	0.15725
2559.20503	0.15779
2557.27646	0.15826
2555.34790	0.15878
2553.41934	0.15945
2551.49077	0.16012
2549.56221	0.16069
2547.63364	0.16118
2545.70508	0.16164
2543.77651	0.16209
2541.84795	0.16262
2539.91938	0.16326
2537.99082	0.16406
2536.06226	0.16491
2534.13369	0.16563
2532.20513	0.16621
2530.27656	0.16679
2528.34800	0.16759
2526.41943	0.16847
2524.49087	0.16915
2522.56230	0.16974
2520.63374	0.17044
2518.70518	0.17117
2516.77661	0.17181
2514.84805	0.17250
2512.91948	0.17333
2510.99092	0.17415
2509.06235	0.17489
2507.13379	0.17568
2505.20522	0.17653
2503.27666	0.17742
2501.34810	0.17839
2499.41953	0.17930
2497.49097	0.17993
2495.56240	0.18052
2493.63384	0.18142
2491.70527	0.18243
2489.77671	0.18338
2487.84814	0.18438
2485.91958	0.18532
2483.99102	0.18607
2482.06245	0.18687
2480.13389	0.18778
2478.20532	0.18871
2476.27676	0.18967
2474.34819	0.19060
2472.41963	0.19148
2470.49106	0.19227
2468.56250	0.19293
2466.63394	0.19362
2464.70537	0.19448
2462.77681	0.19557
2460.84824	0.19682
2458.91968	0.19796
2456.99111	0.19894
2455.06255	0.19994
2453.13398	0.20087
2451.20542	0.20165
2449.27686	0.20248
2447.34829	0.20344
2445.41973	0.20447
2443.49116	0.20544
2441.56260	0.20634
2439.63403	0.20734
2437.70547	0.20853
2435.77690	0.20977
2433.84834	0.21085
2431.91978	0.21176
2429.99121	0.21274
2428.06265	0.21388
2426.13408	0.21502
2424.20552	0.21614
2422.27695	0.21721
2420.34839	0.21828
2418.41982	0.21935
2416.49126	0.22034
2414.56270	0.22135
2412.63413	0.22248
2410.70557	0.22360
2408.77700	0.22471
2406.84844	0.22593
2404.91987	0.22724
2402.99131	0.22856
2401.06274	0.22983
2399.13418	0.23108
2397.20562	0.23229
2395.27705	0.23344
2393.34849	0.23459
2391.41992	0.23575
2389.49136	0.23689
2387.56279	0.23778
2385.63423	0.23800
2383.70566	0.23744
2381.77710	0.23621
2379.84854	0.23437
2377.91997	0.23192
2375.99141	0.22892
2374.06284	0.22565
2372.13428	0.22195
2370.20571	0.21761
2368.27715	0.21309
2366.34858	0.20871
2364.42002	0.20452
2362.49146	0.20091
2360.56289	0.19854
2358.63433	0.19913
2356.70576	0.20422
2354.77720	0.21266
2352.84863	0.22259
2350.92007	0.23209
2348.99150	0.23789
2347.06294	0.23857
2345.13437	0.23486
2343.20581	0.23021
2341.27725	0.22921
2339.34868	0.23165
2337.42012	0.23493
2335.49155	0.23792
2333.56299	0.24066
2331.63442	0.24319
2329.70586	0.24581
2327.77729	0.24880
2325.84873	0.25226
2323.92017	0.25662
2321.99160	0.26161
2320.06304	0.26641
2318.13447	0.27094
2316.20591	0.27500
2314.27734	0.27831
2312.34878	0.28129
2310.42021	0.28459
2308.49165	0.28826
2306.56309	0.29196
2304.63452	0.29543
2302.70596	0.29845
2300.77739	0.30112
2298.84883	0.30374
2296.92026	0.30631
2294.99170	0.30885
2293.06313	0.31158
2291.13457	0.31449
2289.20601	0.31723
2287.27744	0.31968
2285.34888	0.32211
2283.42031	0.32468
2281.49175	0.32711
2279.56318	0.32906
2277.63462	0.33067
2275.70605	0.33233
2273.77749	0.33414
2271.84893	0.33609
2269.92036	0.33823
2267.99180	0.34053
2266.06323	0.34274
2264.13467	0.34481
2262.20610	0.34698
2260.27754	0.34930
2258.34897	0.35165
2256.42041	0.35390
2254.49185	0.35601
2252.56328	0.35820
2250.63472	0.36053
2248.70615	0.36276
2246.77759	0.36493
2244.84902	0.36726
2242.92046	0.36974
2240.99189	0.37215
2239.06333	0.37445
2237.13477	0.37664
2235.20620	0.37874
2233.27764	0.38092
2231.34907	0.38322
2229.42051	0.38541
2227.49194	0.38742
2225.56338	0.38958
2223.63481	0.39197
2221.70625	0.39435
2219.77769	0.39661
2217.84912	0.39875
2215.92056	0.40083
2213.99199	0.40298
2212.06343	0.40514
2210.13486	0.40718
2208.20630	0.40914
2206.27773	0.41120
2204.34917	0.41353
2202.42061	0.41591
2200.49204	0.41799
2198.56348	0.41985
2196.63491	0.42170
2194.70635	0.42358
2192.77778	0.42546
2190.84922	0.42741
2188.92065	0.42935
2186.99209	0.43114
2185.06353	0.43284
2183.13496	0.43465
2181.20640	0.43650
2179.27783	0.43812
2177.34927	0.43947
2175.42070	0.44077
2173.49214	0.44216
2171.56357	0.44358
2169.63501	0.44506
2167.70645	0.44650
2165.77788	0.44779
2163.84932	0.44899
2161.92075	0.45014
2159.99219	0.45121
2158.06362	0.45224
2156.13506	0.45322
2154.20649	0.45402
2152.27793	0.45471
2150.34937	0.45533
2148.42080	0.45590
2146.49224	0.45648
2144.56367	0.45704
2142.63511	0.45752
2140.70654	0.45793
2138.77798	0.45826
2136.84941	0.45840
2134.92085	0.45836
2132.99229	0.45831
2131.06372	0.45825
2129.13516	0.45799
2127.20659	0.45763
2125.27803	0.45731
2123.34946	0.45699
2121.42090	0.45661
2119.49233	0.45612
2117.56377	0.45552
2115.63521	0.45481
2113.70664	0.45395
2111.77808	0.45298
2109.84951	0.45197
2107.92095	0.45090
2105.99238	0.44971
2104.06382	0.44845
2102.13525	0.44718
2100.20669	0.44593
2098.27812	0.44461
2096.34956	0.44319
2094.42100	0.44159
2092.49243	0.43977
2090.56387	0.43793
2088.63530	0.43618
2086.70674	0.43450
2084.77817	0.43277
2082.84961	0.43085
2080.92104	0.42879
2078.99248	0.42668
2077.06392	0.42457
2075.13535	0.42255
2073.20679	0.42056
2071.27822	0.41835
2069.34966	0.41592
2067.42109	0.41343
2065.49253	0.41100
2063.56396	0.40869
2061.63540	0.40652
2059.70684	0.40419
2057.77827	0.40156
2055.84971	0.39885
2053.92114	0.39621
2051.99258	0.39370
2050.06401	0.39126
2048.13545	0.38877
2046.20688	0.38617
2044.27832	0.38347
2042.34976	0.38066
2040.42119	0.37787
2038.49263	0.37517
2036.56406	0.37251
2034.63550	0.36983
2032.70693	0.36703
2030.77837	0.36411
2028.84980	0.36121
2026.92124	0.35847
2024.99268	0.35575
2023.06411	0.35295
2021.13555	0.35023
2019.20698	0.34773
2017.27842	0.34516
2015.34985	0.34224
2013.42129	0.33926
2011.49272	0.33650
2009.56416	0.33382
2007.63560	0.33110
2005.70703	0.32838
2003.77847	0.32570
2001.84990	0.32306
1999.92134	0.32038
1997.99277	0.31770
1996.06421	0.31519
1994.13564	0.31290
1992.20708	0.31060
1990.27852	0.30801
1988.34995	0.30537
1986.42139	0.30285
1984.49282	0.30040
1982.56426	0.29809
1980.63569	0.29590
1978.70713	0.29377
1976.77856	0.29158
1974.85000	0.28930
1972.92144	0.28698
1970.99287	0.28474
1969.06431	0.28268
1967.13574	0.28072
1965.20718	0.27868
1963.27861	0.27665
1961.35005	0.27478
1959.42148	0.27303
1957.49292	0.27138
1955.56436	0.26977
1953.63579	0.26803
1951.70723	0.26611
1949.77866	0.26427
1947.85010	0.26264
1945.92153	0.26117
1943.99297	0.25972
1942.06440	0.25827
1940.13584	0.25683
1938.20728	0.25543
1936.27871	0.25408
1934.35015	0.25282
1932.42158	0.25164
1930.49302	0.25039
1928.56445	0.24911
1926.63589	0.24797
1924.70732	0.24701
1922.77876	0.24612
1920.85020	0.24525
1918.92163	0.24451
1916.99307	0.24375
1915.06450	0.24282
1913.13594	0.24190
1911.20737	0.24118
1909.27881	0.24055
1907.35024	0.23988
1905.42168	0.23922
1903.49312	0.23870
1901.56455	0.23824
1899.63599	0.23774
1897.70742	0.23724
1895.77886	0.23675
1893.85029	0.23626
1891.92173	0.23586
1889.99316	0.23573
1888.06460	0.23561
1886.13604	0.23530
1884.20747	0.23502
1882.27891	0.23488
1880.35034	0.23479
1878.42178	0.23471
1876.49321	0.23470
1874.56465	0.23474
1872.63608	0.23486
1870.70752	0.23500
1868.77896	0.23531
1866.85039	0.23560
1864.92183	0.23571
1862.99326	0.23589
1861.06470	0.23617
1859.13613	0.23649
1857.20757	0.23683
1855.27900	0.23735
1853.35044	0.23788
1851.42187	0.23836
1849.49331	0.23887
1847.56475	0.23948
1845.63618	0.24022
1843.70762	0.24118
1841.77905	0.24203
1839.85049	0.24256
1837.92192	0.24324
1835.99336	0.24402
1834.06479	0.24485
1832.13623	0.24587
1830.20767	0.24735
1828.27910	0.24890
1826.35054	0.25003
1824.42197	0.25132
1822.49341	0.25264
1820.56484	0.25389
1818.63628	0.25530
1816.70771	0.25694
1814.77915	0.25847
1812.85059	0.26003
1810.92202	0.26198
1808.99346	0.26417
1807.06489	0.26621
1805.13633	0.26811
1803.20776	0.27037
1801.27920	0.27293
1799.35063	0.27563
1797.42207	0.27809
1795.49351	0.28049
1793.56494	0.28328
1791.63638	0.28686
1789.70781	0.29043
1787.77925	0.29321
1785.85068	0.29628
1783.92212	0.29976
1781.99355	0.30361
1780.06499	0.30786
1778.13643	0.31225
1776.20786	0.31636
1774.27930	0.32071
1772.35073	0.32651
1770.42217	0.33279
1768.49360	0.33811
1766.56504	0.34326
1764.63647	0.34867
1762.70791	0.35464
1760.77935	0.36221
1758.85078	0.36954
1756.92222	0.37701
1754.99365	0.38521
1753.06509	0.39275
1751.13652	0.40150
1749.20796	0.41229
1747.27939	0.42306
1745.35083	0.43266
1743.42227	0.44250
1741.49370	0.45309
1739.56514	0.46528
1737.63657	0.47731
1735.70801	0.48794
1733.77944	0.50391
1731.85088	0.52295
1729.92231	0.53817
1727.99375	0.55372
1726.06519	0.57058
1724.13662	0.58901
1722.20806	0.60887
1720.27949	0.62723
1718.35093	0.64862
1716.42236	0.67988
1714.49380	0.70990
1712.56523	0.73475
1710.63667	0.75904
1708.70811	0.78491
1706.77954	0.81381
1704.85098	0.84808
1702.92241	0.87919
1700.99385	0.91056
1699.06528	0.95622
1697.13672	0.99742
1695.20815	1.03972
1693.27959	1.08175
1691.35103	1.11574
1689.42246	1.15411
1687.49390	1.19453
1685.56533	1.23402
1683.63677	1.29337
1681.70820	1.35462
1679.77964	1.39512
1677.85107	1.43376
1675.92251	1.47762
1673.99395	1.53074
1672.06538	1.57823
1670.13682	1.62556
1668.20825	1.68601
1666.27969	1.73480
1664.35112	1.77592
1662.42256	1.82612
1660.49399	1.88161
1658.56543	1.92562
1656.63687	1.96214
1654.70830	1.99744
1652.77974	2.05215
1650.85117	2.10113
1648.92261	2.12018
1646.99404	2.14670
1645.06548	2.17657
1643.13691	2.19570
1641.20835	2.20828
1639.27979	2.22102
1637.35122	2.22952
1635.42266	2.22996
1633.49409	2.22344
1631.56553	2.21216
1629.63696	2.19769
1627.70840	2.17323
1625.77983	2.14349
1623.85127	2.10483
1621.92271	2.05744
1619.99414	2.01487
1618.06558	1.97299
1616.13701	1.91421
1614.20845	1.85380
1612.27988	1.80658
1610.35132	1.75733
1608.42275	1.70477
1606.49419	1.65359
1604.56562	1.60661
1602.63706	1.56120
1600.70850	1.51623
1598.77993	1.47408
1596.85137	1.43415
1594.92280	1.39549
1592.99424	1.35793
1591.06567	1.32285
1589.13711	1.28964
1587.20854	1.25833
1585.27998	1.22881
1583.35142	1.20094
1581.42285	1.17530
1579.49429	1.15309
1577.56572	1.13267
1575.63716	1.10756
1573.70859	1.08532
1571.78003	1.07062
1569.85146	1.05505
1567.92290	1.03722
1565.99434	1.02262
1564.06577	1.01026
1562.13721	1.00037
1560.20864	0.99265
1558.28008	0.98064
1556.35151	0.96937
1554.42295	0.96201
1552.49438	0.95473
1550.56582	0.94706
1548.63726	0.93846
1546.70869	0.92983
1544.78013	0.92068
1542.85156	0.91015
1540.92300	0.89710
1538.99443	0.87906
1537.06587	0.86540
1535.13730	0.85597
1533.20874	0.84437
1531.28018	0.83193
1529.35161	0.82239
1527.42305	0.81342
1525.49448	0.80425
1523.56592	0.79632
1521.63735	0.78858
1519.70879	0.78019
1517.78022	0.77276
1515.85166	0.76492
1513.92310	0.75711
1511.99453	0.75034
1510.06597	0.74420
1508.13740	0.73853
1506.20884	0.73067
1504.28027	0.72339
1502.35171	0.71885
1500.42314	0.71496
1498.49458	0.71096
1496.56602	0.70630
1494.63745	0.70179
1492.70889	0.69845
1490.78032	0.69572
1488.85176	0.69262
1486.92319	0.68940
1484.99463	0.68664
1483.06606	0.68453
1481.13750	0.68293
1479.20894	0.68163
1477.28037	0.68064
1475.35181	0.67998
1473.42324	0.67947
1471.49468	0.67853
1469.56611	0.67719
1467.63755	0.67577
1465.70898	0.67425
1463.78042	0.67236
1461.85186	0.67055
1459.92329	0.66931
1457.99473	0.66810
1456.06616	0.66579
1454.13760	0.66289
1452.20903	0.66019
1450.28047	0.65732
1448.35190	0.65427
1446.42334	0.65133
1444.49478	0.64877
1442.56621	0.64639
1440.63765	0.64404
1438.70908	0.64189
1436.78052	0.63957
1434.85195	0.63703
1432.92339	0.63494
1430.99482	0.63329
1429.06626	0.63183
1427.13770	0.63065
1425.20913	0.62976
1423.28057	0.62902
1421.35200	0.62839
1419.42344	0.62777
1417.49487	0.62669
1415.56631	0.62512
1413.63774	0.62362
1411.70918	0.62220
1409.78062	0.62089
1407.85205	0.61990
1405.92349	0.61915
1403.99492	0.61827
1402.06636	0.61704
1400.13779	0.61556
1398.20923	0.61386
1396.28066	0.61190
1394.35210	0.60955
1392.42354	0.60720
1390.49497	0.60507
1388.56641	0.60299
1386.63784	0.60087
1384.70928	0.59876
1382.78071	0.59680
1380.85215	0.59508
1378.92358	0.59357
1376.99502	0.59230
1375.06646	0.59136
1373.13789	0.59061
1371.20933	0.58993
1369.28076	0.58944
1367.35220	0.58883
1365.42363	0.58785
1363.49507	0.58671
1361.56650	0.58543
1359.63794	0.58396
1357.70937	0.58258
1355.78081	0.58137
1353.85225	0.58022
1351.92368	0.57910
1349.99512	0.57797
1348.06655	0.57681
1346.13799	0.57573
1344.20942	0.57476
1342.28086	0.57384
1340.35229	0.57288
1338.42373	0.57181
1336.49517	0.57068
1334.56660	0.56951
1332.63804	0.56859
1330.70947	0.56806
1328.78091	0.56766
1326.85234	0.56728
1324.92378	0.56702
1322.99521	0.56695
1321.06665	0.56688
1319.13809	0.56669
1317.20952	0.56627
1315.28096	0.56561
1313.35239	0.56481
1311.42383	0.56384
1309.49526	0.56267
1307.56670	0.56159
1305.63813	0.56071
1303.70957	0.55973
1301.78101	0.55859
1299.85244	0.55752
1297.92388	0.55666
1295.99531	0.55585
1294.06675	0.55497
1292.13818	0.55399
1290.20962	0.55298
1288.28105	0.55220
1286.35249	0.55166
1284.42393	0.55103
1282.49536	0.55010
1280.56680	0.54914
1278.63823	0.54833
1276.70967	0.54758
1274.78110	0.54681
1272.85254	0.54608
1270.92397	0.54554
1268.99541	0.54521
1267.06685	0.54488
1265.13828	0.54449
1263.20972	0.54420
1261.28115	0.54389
1259.35259	0.54326
1257.42402	0.54251
1255.49546	0.54192
1253.56689	0.54146
1251.63833	0.54106
1249.70977	0.54079
1247.78120	0.54046
1245.85264	0.53993
1243.92407	0.53925
1241.99551	0.53844
1240.06694	0.53747
1238.13838	0.53651
1236.20981	0.53565
1234.28125	0.53467
1232.35269	0.53339
1230.42412	0.53202
1228.49556	0.53077
1226.56699	0.52961
1224.63843	0.52846
1222.70986	0.52736
1220.78130	0.52626
1218.85273	0.52520
1216.92417	0.52429
1214.99561	0.52346
1213.06704	0.52264
1211.13848	0.52191
1209.20991	0.52133
1207.28135	0.52082
1205.35278	0.52025
1203.42422	0.51970
1201.49565	0.51920
1199.56709	0.51859
1197.63853	0.51787
1195.70996	0.51716
1193.78140	0.51650
1191.85283	0.51590
1189.92427	0.51546
1187.99570	0.51522
1186.06714	0.51504
1184.13857	0.51489
1182.21001	0.51499
1180.28145	0.51545
1178.35288	0.51623
1176.42432	0.51726
1174.49575	0.51842
1172.56719	0.51968
1170.63862	0.52094
1168.71006	0.52210
1166.78149	0.52314
1164.85293	0.52408
1162.92437	0.52512
1160.99580	0.52624
1159.06724	0.52713
1157.13867	0.52748
1155.21011	0.52708
1153.28154	0.52608
1151.35298	0.52471
1149.42441	0.52270
1147.49585	0.51989
1145.56729	0.51678
1143.63872	0.51381
1141.71016	0.51110
1139.78159	0.50887
1137.85303	0.50729
1135.92446	0.50639
1133.99590	0.50602
1132.06733	0.50582
1130.13877	0.50560
1128.21021	0.50540
1126.28164	0.50527
1124.35308	0.50511
1122.42451	0.50478
1120.49595	0.50453
1118.56738	0.50477
1116.63882	0.50531
1114.71025	0.50576
1112.78169	0.50618
1110.85312	0.50701
1108.92456	0.50821
1106.99600	0.50924
1105.06743	0.50982
1103.13887	0.51022
1101.21030	0.51076
1099.28174	0.51159
1097.35317	0.51290
1095.42461	0.51524
1093.49604	0.51891
1091.56748	0.52410
1089.63892	0.53115
1087.71035	0.53993
1085.78179	0.54979
1083.85322	0.55989
1081.92466	0.56865
1079.99609	0.57468
1078.06753	0.57745
1076.13896	0.57680
1074.21040	0.57308
1072.28184	0.56699
1070.35327	0.55945
1068.42471	0.55168
1066.49614	0.54454
1064.56758	0.53818
1062.63901	0.53275
1060.71045	0.52828
1058.78188	0.52439
1056.85332	0.52097
1054.92476	0.51791
1052.99619	0.51508
1051.06763	0.51302
1049.13906	0.51222
1047.21050	0.51248
1045.28193	0.51348
1043.35337	0.51490
1041.42480	0.51626
1039.49624	0.51714
1037.56768	0.51757
1035.63911	0.51767
1033.71055	0.51718
1031.78198	0.51585
1029.85342	0.51382
1027.92485	0.51143
1025.99629	0.50902
1024.06772	0.50689
1022.13916	0.50528
1020.21060	0.50424
1018.28203	0.50355
1016.35347	0.50284
1014.42490	0.50194
1012.49634	0.50104
1010.56777	0.50023
1008.63921	0.49951
1006.71064	0.49921
1004.78208	0.49969
1002.85352	0.50107
1000.92495	0.50329
998.99639	0.50642
997.06782	0.51045
995.13926	0.51486
993.21069	0.51882
991.28213	0.52173
989.35356	0.52329
987.42500	0.52361
985.49644	0.52327
983.56787	0.52302
981.63931	0.52330
979.71074	0.52400
977.78218	0.52514
975.85361	0.52704
973.92505	0.52950
971.99648	0.53229
970.06792	0.53548
968.13936	0.53907
966.21079	0.54306
964.28223	0.54760
962.35366	0.55248
960.42510	0.55746
958.49653	0.56280
956.56797	0.56849
954.63940	0.57429
952.71084	0.58043
950.78228	0.58693
948.85371	0.59330
946.92515	0.59954
944.99658	0.60619
943.06802	0.61279
941.13945	0.61883
939.21089	0.62454
937.28232	0.62985
935.35376	0.63514
933.42520	0.64078
931.49663	0.64658
929.56807	0.65289
927.63950	0.65954
925.71094	0.66568
923.78237	0.67180
921.85381	0.67847
919.92524	0.68504
917.99668	0.69139
916.06812	0.69829
914.13955	0.70627
912.21099	0.71536
910.28242	0.72503
908.35386	0.73438
906.42529	0.74273
904.49673	0.75080
902.56816	0.75995
900.63960	0.76958
898.71104	0.77895
896.78247	0.78939
894.85391	0.80062
892.92534	0.81070
890.99678	0.81990
889.06821	0.83028
887.13965	0.84258
885.21108	0.85489
883.28252	0.86601
881.35396	0.87727
879.42539	0.88893
877.49683	0.89952
875.56826	0.91012
873.63970	0.92232
871.71113	0.93412
869.78257	0.94349
867.85400	0.95287
865.92544	0.96503
863.99687	0.97809
862.06831	0.99002
860.13975	1.00226
858.21118	1.01554
856.28262	1.02754
854.35405	1.03792
852.42549	1.04859
850.49692	1.06015
848.56836	1.07344
846.63979	1.08769
844.71123	1.09967
842.78267	1.10942
840.85410	1.12086
838.92554	1.13404
836.99697	1.14531
835.06841	1.15639
833.13984	1.17216
831.21128	1.18866
829.28271	1.19970
827.35415	1.21339
825.42559	1.23123
823.49702	1.23923
821.56846	1.24267
819.63989	1.25655
817.71133	1.27484
815.78276	1.29421
813.85420	1.32227
811.92563	1.34568
809.99707	1.34785
808.06851	1.33858
806.13994	1.33582
804.21138	1.35135
802.28281	1.38712
800.35425	1.43514
798.42568	1.50177
796.49712	1.59840
794.56855	1.67187
792.63999	1.61622
790.71143	1.50898
788.78286	1.50180
786.85430	1.59932
784.92573	1.66627
782.99717	1.58766
781.06860	1.44662
779.14004	1.34540
777.21147	1.34676
775.28291	1.45093
773.35435	1.57259
771.42578	1.56151
769.49722	1.46891
767.56865	1.41118
765.64009	1.42813
763.71152	1.41488
761.78296	1.38223
759.85439	1.34774
757.92583	1.27609
755.99727	1.28897
754.06870	1.38447
752.14014	1.38359
750.21157	1.31344
748.28301	1.30491
746.35444	1.35032
744.42588	1.28815
742.49731	1.08536
740.56875	0.95683
738.64019	0.96710
736.71162	1.02649
734.78306	0.94464
732.85449	0.81621
730.92593	0.80199
728.99736	0.77598
727.06880	0.58232
725.14023	0.41241
723.21167	0.33613
721.28311	0.28216
719.35454	0.20481
717.42598	0.18570
715.49741	0.23892
713.56885	0.25265
711.64028	0.28007
709.71172	0.39001
707.78315	0.28512
705.85459	0.05332
703.92603	0.00096
701.99746	0.08173
700.06890	0.14373
698.14033	0.09428
696.21177	0.01289
694.28320	0.01328
692.35464	0.04652
690.42607	0.05257
688.49751	0.06817
686.56895	0.08821
684.64038	0.04161
682.71182	0.00699
680.78325	0.10185
678.85469	0.19252
676.92612	0.06965
674.99756	-0.06796
673.06899	-0.01429
671.14043	0.11119
669.21187	0.16140
667.28330	0.06157
665.35474	0.00802
663.42617	0.06480
661.49761	0.14402
659.56904	0.14232
657.64048	0.06815
655.71191	0.00544
653.78335	0.00115
651.85479	0.02801
649.92622	0.07462
647.99766	0.11292
646.06909	0.08309
644.14053	0.11118
642.21196	0.27289
640.28340	0.31182
638.35483	0.23748
636.42627	0.19322
634.49771	0.18269
632.56914	0.17351
630.64058	0.18000
628.71201	0.23490
626.78345	0.33068
624.85488	0.34399
622.92632	0.27523
620.99775	0.20361
619.06919	0.16137
617.14062	0.13650
615.21206	0.10502
613.28350	0.08194
611.35493	0.13311
609.42637	0.18428
607.49780	0.16933
605.56924	0.18887
603.64067	0.24602
601.71211	0.21628
599.78354	0.17418
597.85498	0.13815
595.92642	0.13915
593.99785	0.27264
592.06929	0.44368
590.14072	0.33851
588.21216	0.23324
586.28359	0.18843
584.35503	0.10818
582.42646	0.06080
580.49790	0.09777
578.56934	0.15032
576.64077	0.16755
574.71221	0.10763
572.78364	0.06173
570.85508	0.04542
568.92651	0.00285
566.99795	-0.01162
565.06938	0.05157
563.14082	0.15708
561.21226	0.22887
559.28369	0.15465
557.35513	0.07434
555.42656	0.06821
553.49800	0.05178
551.56943	0.01058
549.64087	-0.01856
547.71230	0.01070
545.78374	0.07745
543.85518	0.08515
541.92661	0.02270
539.99805	0.00421
538.06948	0.03717
536.14092	0.05874
534.21235	0.07033
532.28379	0.10162
530.35522	0.17222
528.42666	0.27388
526.49810	0.29034
524.56953	0.19798
522.64097	0.10895
520.71240	0.05947
518.78384	0.05704
516.85527	0.11595
514.92671	0.18805
512.99814	0.17511
511.06958	0.12926
509.14102	0.07946
507.21245	0.03527
505.28389	0.05163
503.35532	0.14116
501.42676	0.20434
499.49819	0.17105
