3997.91411	0.06935
3995.98555	0.07001
3994.05698	0.07038
3992.12842	0.07073
3990.19985	0.07118
3988.27129	0.07147
3986.34272	0.07163
3984.41416	0.07183
3982.48560	0.07200
3980.55703	0.07220
3978.62847	0.07251
3976.69990	0.07282
3974.77134	0.07312
3972.84277	0.07339
3970.91421	0.07340
3968.98564	0.07324
3967.05708	0.07336
3965.12852	0.07393
3963.19995	0.07451
3961.27139	0.07465
3959.34282	0.07449
3957.41426	0.07439
3955.48569	0.07440
3953.55713	0.07451
3951.62856	0.07480
3949.70000	0.07505
3947.77144	0.07531
3945.84287	0.07557
3943.91431	0.07556
3941.98574	0.07531
3940.05718	0.07482
3938.12861	0.07434
3936.20005	0.07423
3934.27148	0.07466
3932.34292	0.07530
3930.41436	0.07555
3928.48579	0.07522
3926.55723	0.07461
3924.62866	0.07439
3922.70010	0.07446
3920.77153	0.07423
3918.84297	0.07411
3916.91440	0.07435
3914.98584	0.07414
3913.05728	0.07336
3911.12871	0.07285
3909.20015	0.07286
3907.27158	0.07340
3905.34302	0.07480
3903.41445	0.07660
3901.48589	0.07711
3899.55732	0.07654
3897.62876	0.07587
3895.70020	0.07507
3893.77163	0.07492
3891.84307	0.07552
3889.91450	0.07548
3887.98594	0.07480
3886.05737	0.07521
3884.12881	0.07650
3882.20024	0.07723
3880.27168	0.07733
3878.34312	0.07631
3876.41455	0.07497
3874.48599	0.07505
3872.55742	0.07633
3870.62886	0.07793
3868.70029	0.07893
3866.77173	0.07871
3864.84316	0.07870
3862.91460	0.07878
3860.98604	0.07779
3859.05747	0.07715
3857.12891	0.07805
3855.20034	0.08028
3853.27178	0.08343
3851.34321	0.08465
3849.41465	0.08262
3847.48608	0.08076
3845.55752	0.08024
3843.62896	0.08114
3841.70039	0.08309
3839.77183	0.08541
3837.84326	0.08729
3835.91470	0.08751
3833.98613	0.08656
3832.05757	0.08610
3830.12900	0.08637
3828.20044	0.08693
3826.27187	0.08772
3824.34331	0.08839
3822.41475	0.08937
3820.48618	0.09164
3818.55762	0.09335
3816.62905	0.09356
3814.70049	0.09336
3812.77192	0.09259
3810.84336	0.09220
3808.91479	0.09324
3806.98623	0.09552
3805.05767	0.09776
3803.12910	0.09956
3801.20054	0.10180
3799.27197	0.10339
3797.34341	0.10354
3795.41484	0.10337
3793.48628	0.10336
3791.55771	0.10377
3789.62915	0.10445
3787.70059	0.10544
3785.77202	0.10712
3783.84346	0.10887
3781.91489	0.11031
3779.98633	0.11236
3778.05776	0.11475
3776.12920	0.11570
3774.20063	0.11596
3772.27207	0.11714
3770.34351	0.11951
3768.41494	0.12239
3766.48638	0.12468
3764.55781	0.12646
3762.62925	0.12811
3760.70068	0.13032
3758.77212	0.13342
3756.84355	0.13612
3754.91499	0.13795
3752.98643	0.14045
3751.05786	0.14485
3749.12930	0.14971
3747.20073	0.15250
3745.27217	0.15502
3743.34360	0.15844
3741.41504	0.16078
3739.48647	0.16289
3737.55791	0.16738
3735.62935	0.17482
3733.70078	0.18162
3731.77222	0.18435
3729.84365	0.18624
3727.91509	0.18971
3725.98652	0.19488
3724.05796	0.20115
3722.12939	0.20766
3720.20083	0.21386
3718.27227	0.21989
3716.34370	0.22641
3714.41514	0.23380
3712.48657	0.24373
3710.55801	0.25773
3708.62944	0.27142
3706.70088	0.28179
3704.77231	0.29197
3702.84375	0.30484
3700.91519	0.32184
3698.98662	0.33981
3697.05806	0.35658
3695.12949	0.37487
3693.20093	0.39494
3691.27236	0.41699
3689.34380	0.44471
3687.41523	0.47751
3685.48667	0.50638
3683.55811	0.53180
3681.62954	0.55927
3679.70098	0.59058
3677.77241	0.62418
3675.84385	0.66380
3673.91528	0.71503
3671.98672	0.75726
3670.05815	0.79549
3668.12959	0.84557
3666.20103	0.89076
3664.27246	0.93011
3662.34390	0.97364
3660.41533	1.02096
3658.48677	1.06735
3656.55820	1.11590
3654.62964	1.16952
3652.70107	1.21563
3650.77251	1.25715
3648.84395	1.31326
3646.91538	1.37890
3644.98682	1.42726
3643.05825	1.46535
3641.12969	1.50398
3639.20112	1.54613
3637.27256	1.58941
3635.34399	1.63267
3633.41543	1.67601
3631.48687	1.71660
3629.55830	1.75786
3627.62974	1.81078
3625.70117	1.85984
3623.77261	1.89345
3621.84404	1.92629
3619.91548	1.96488
3617.98691	2.01108
3616.05835	2.05415
3614.12979	2.08964
3612.20122	2.12813
3610.27266	2.16843
3608.34409	2.20807
3606.41553	2.24844
3604.48696	2.28679
3602.55840	2.32252
3600.62983	2.36116
3598.70127	2.40270
3596.77271	2.44258
3594.84414	2.48267
3592.91558	2.52482
3590.98701	2.56436
3589.05845	2.59985
3587.12988	2.64120
3585.20132	2.68802
3583.27275	2.73004
3581.34419	2.76972
3579.41562	2.81077
3577.48706	2.85211
3575.55850	2.89361
3573.62993	2.93675
3571.70137	2.97830
3569.77280	3.01660
3567.84424	3.05740
3565.91567	3.11018
3563.98711	3.16383
3562.05854	3.20736
3560.12998	3.24887
3558.20142	3.29280
3556.27285	3.33849
3554.34429	3.38373
3552.41572	3.42908
3550.48716	3.47299
3548.55859	3.51623
3546.63003	3.56374
3544.70146	3.61542
3542.77290	3.66306
3540.84434	3.70525
3538.91577	3.74919
3536.98721	3.79672
3535.05864	3.84674
3533.13008	3.89563
3531.20151	3.94197
3529.27295	3.98854
3527.34438	4.03666
3525.41582	4.08407
3523.48726	4.13171
3521.55869	4.18173
3519.63013	4.23141
3517.70156	4.28127
3515.77300	4.33208
3513.84443	4.38147
3511.91587	4.43008
3509.98730	4.48296
3508.05874	4.53931
3506.13018	4.59030
3504.20161	4.63226
3502.27305	4.67347
3500.34448	4.71883
3498.41592	4.76479
3496.48735	4.81581
3494.55879	4.87081
3492.63022	4.92190
3490.70166	4.96938
3488.77310	5.01487
3486.84453	5.05938
3484.91597	5.10496
3482.98740	5.15001
3481.05884	5.19715
3479.13027	5.24994
3477.20171	5.30080
3475.27314	5.34682
3473.34458	5.39491
3471.41602	5.44490
3469.48745	5.49429
3467.55889	5.54734
3465.63032	5.60090
3463.70176	5.65182
3461.77319	5.70614
3459.84463	5.76270
3457.91606	5.81326
3455.98750	5.85644
3454.05894	5.89906
3452.13037	5.95071
3450.20181	6.00749
3448.27324	6.05940
3446.34468	6.10567
3444.41611	6.14397
3442.48755	6.17949
3440.55898	6.21628
3438.63042	6.26131
3436.70186	6.31966
3434.77329	6.38453
3432.84473	6.44885
3430.91616	6.50742
3428.98760	6.55714
3427.05903	6.59019
3425.13047	6.63181
3423.20190	6.71039
3421.27334	6.79863
3419.34478	6.84951
3417.41621	6.87804
3415.48765	6.91620
3413.55908	6.95853
3411.63052	6.99660
3409.70195	7.02036
3407.77339	7.06061
3405.84482	7.13352
3403.91626	7.21259
3401.98770	7.27760
3400.05913	7.32837
3398.13057	7.34867
3396.20200	7.31662
3394.27344	7.29912
3392.34487	7.34194
3390.41631	7.42783
3388.48774	7.54848
3386.55918	7.66774
3384.63062	7.70881
3382.70205	7.69395
3380.77349	7.67860
3378.84492	7.68445
3376.91636	7.73898
3374.98779	7.80730
3373.05923	7.86298
3371.13066	7.88620
3369.20210	7.88088
3367.27354	7.88902
3365.34497	7.90872
3363.41641	7.87749
3361.48784	7.82792
3359.55928	7.84963
3357.63071	7.88367
3355.70215	7.90008
3353.77358	7.93546
3351.84502	7.96754
3349.91646	7.98375
3347.98789	8.01947
3346.05933	8.04881
3344.13076	8.04608
3342.20220	8.07404
3340.27363	8.15570
3338.34507	8.26493
3336.41650	8.30126
3334.48794	8.25570
3332.55937	8.20742
3330.63081	8.12552
3328.70225	8.02905
3326.77368	8.06110
3324.84512	8.27342
3322.91655	8.48952
3320.98799	8.48304
3319.05942	8.29356
3317.13086	8.14652
3315.20229	8.10234
3313.27373	8.11146
3311.34517	8.19631
3309.41660	8.35087
3307.48804	8.48714
3305.55947	8.49923
3303.63091	8.38118
3301.70234	8.32863
3299.77378	8.42058
3297.84521	8.43813
3295.91665	8.32840
3293.98809	8.22260
3292.05952	8.13606
3290.13096	8.12751
3288.20239	8.30249
3286.27383	8.58028
3284.34526	8.68009
3282.41670	8.53242
3280.48813	8.34934
3278.55957	8.31859
3276.63101	8.36717
3274.70244	8.35091
3272.77388	8.35447
3270.84531	8.44104
3268.91675	8.53034
3266.98818	8.54408
3265.05962	8.52474
3263.13105	8.52916
3261.20249	8.48645
3259.27393	8.37862
3257.34536	8.33491
3255.41680	8.36773
3253.48823	8.39935
3251.55967	8.32700
3249.63110	8.13239
3247.70254	8.02873
3245.77397	8.16136
3243.84541	8.36797
3241.91685	8.34000
3239.98828	8.26491
3238.05972	8.36959
3236.13115	8.47829
3234.20259	8.46782
3232.27402	8.42846
3230.34546	8.35150
3228.41689	8.26677
3226.48833	8.29337
3224.55977	8.45756
3222.63120	8.66970
3220.70264	8.75181
3218.77407	8.65040
3216.84551	8.46057
3214.91694	8.26836
3212.98838	8.16316
3211.05981	8.15397
3209.13125	8.14422
3207.20269	8.08586
3205.27412	8.07138
3203.34556	8.12485
3201.41699	8.15801
3199.48843	8.08790
3197.55986	7.92757
3195.63130	7.80456
3193.70273	7.75426
3191.77417	7.71832
3189.84561	7.71406
3187.91704	7.74303
3185.98848	7.71693
3184.05991	7.61422
3182.13135	7.48930
3180.20278	7.37728
3178.27422	7.30669
3176.34565	7.29200
3174.41709	7.29161
3172.48853	7.26665
3170.55996	7.22840
3168.63140	7.17027
3166.70283	7.07336
3164.77427	6.95313
3162.84570	6.85177
3160.91714	6.80222
3158.98857	6.77948
3157.06001	6.73383
3155.13145	6.66356
3153.20288	6.58101
3151.27432	6.49821
3149.34575	6.43471
3147.41719	6.38689
3145.48862	6.32859
3143.56006	6.24644
3141.63149	6.16080
3139.70293	6.07905
3137.77437	5.99096
3135.84580	5.90324
3133.91724	5.82676
3131.98867	5.76027
3130.06011	5.69495
3128.13154	5.62785
3126.20298	5.56090
3124.27441	5.49118
3122.34585	5.41221
3120.41729	5.32726
3118.48872	5.25172
3116.56016	5.19018
3114.63159	5.13023
3112.70303	5.06480
3110.77446	4.99357
3108.84590	4.91812
3106.91733	4.84488
3104.98877	4.77484
3103.06021	4.70378
3101.13164	4.62851
3099.20308	4.55431
3097.27451	4.48855
3095.34595	4.42706
3093.41738	4.36402
3091.48882	4.30096
3089.56025	4.23753
3087.63169	4.17026
3085.70312	4.10375
3083.77456	4.04191
3081.84600	3.97910
3079.91743	3.91504
3077.98887	3.85569
3076.06030	3.79826
3074.13174	3.73653
3072.20317	3.67280
3070.27461	3.61167
3068.34604	3.55405
3066.41748	3.49799
3064.48892	3.44110
3062.56035	3.38336
3060.63179	3.32662
3058.70322	3.27249
3056.77466	3.21940
3054.84609	3.16517
3052.91753	3.11139
3050.98896	3.05916
3049.06040	3.00666
3047.13184	2.95397
3045.20327	2.90341
3043.27471	2.85512
3041.34614	2.80692
3039.41758	2.75791
3037.48901	2.70890
3035.56045	2.66100
3033.63188	2.61523
3031.70332	2.57111
3029.77476	2.52701
3027.84619	2.48257
3025.91763	2.43887
3023.98906	2.39648
3022.06050	2.35482
3020.13193	2.31323
3018.20337	2.27207
3016.27480	2.23219
3014.34624	2.19314
3012.41768	2.15405
3010.48911	2.11517
3008.56055	2.07694
3006.63198	2.03959
3004.70342	2.00345
3002.77485	1.96838
3000.84629	1.93399
2998.91772	1.90021
2996.98916	1.86696
2995.06060	1.83412
2993.13203	1.80156
2991.20347	1.76921
2989.27490	1.73777
2987.34634	1.70785
2985.41777	1.67878
2983.48921	1.64975
2981.56064	1.62071
2979.63208	1.59214
2977.70352	1.56438
2975.77495	1.53737
2973.84639	1.51062
2971.91782	1.48416
2969.98926	1.45865
2968.06069	1.43400
2966.13213	1.40895
2964.20356	1.38327
2962.27500	1.35821
2960.34644	1.33414
2958.41787	1.31076
2956.48931	1.28774
2954.56074	1.26457
2952.63218	1.24133
2950.70361	1.21855
2948.77505	1.19638
2946.84648	1.17453
2944.91792	1.15295
2942.98936	1.13170
2941.06079	1.11104
2939.13223	1.09110
2937.20366	1.07156
2935.27510	1.05267
2933.34653	1.03417
2931.41797	1.01514
2929.48940	0.99584
2927.56084	0.97731
2925.63228	0.95974
2923.70371	0.94261
2921.77515	0.92543
2919.84658	0.90847
2917.91802	0.89212
2915.98945	0.87569
2914.06089	0.85927
2912.13232	0.84397
2910.20376	0.82946
2908.27520	0.81468
2906.34663	0.79957
2904.41807	0.78510
2902.48950	0.77199
2900.56094	0.75937
2898.63237	0.74617
2896.70381	0.73295
2894.77524	0.72058
2892.84668	0.70884
2890.91812	0.69721
2888.98955	0.68557
2887.06099	0.67423
2885.13242	0.66350
2883.20386	0.65319
2881.27529	0.64294
2879.34673	0.63262
2877.41816	0.62233
2875.48960	0.61236
2873.56104	0.60265
2871.63247	0.59269
2869.70391	0.58240
2867.77534	0.57217
2865.84678	0.56199
2863.91821	0.55152
2861.98965	0.54098
2860.06108	0.53092
2858.13252	0.52123
2856.20396	0.51194
2854.27539	0.50340
2852.34683	0.49492
2850.41826	0.48607
2848.48970	0.47775
2846.56113	0.47025
2844.63257	0.46316
2842.70400	0.45641
2840.77544	0.44978
2838.84687	0.44325
2836.91831	0.43706
2834.98975	0.43115
2833.06118	0.42534
2831.13262	0.41947
2829.20405	0.41352
2827.27549	0.40758
2825.34692	0.40155
2823.41836	0.39557
2821.48979	0.38979
2819.56123	0.38418
2817.63267	0.37869
2815.70410	0.37324
2813.77554	0.36777
2811.84697	0.36246
2809.91841	0.35734
2807.98984	0.35212
2806.06128	0.34686
2804.13271	0.34189
2802.20415	0.33717
2800.27559	0.33241
2798.34702	0.32751
2796.41846	0.32279
2794.48989	0.31829
2792.56133	0.31382
2790.63276	0.30940
2788.70420	0.30511
2786.77563	0.30097
2784.84707	0.29708
2782.91851	0.29325
2780.98994	0.28929
2779.06138	0.28527
2777.13281	0.28121
2775.20425	0.27740
2773.27568	0.27406
2771.34712	0.27081
2769.41855	0.26742
2767.48999	0.26398
2765.56143	0.26059
2763.63286	0.25734
2761.70430	0.25416
2759.77573	0.25111
2757.84717	0.24821
2755.91860	0.24510
2753.99004	0.24179
2752.06147	0.23877
2750.13291	0.23604
2748.20435	0.23330
2746.27578	0.23058
2744.34722	0.22804
2742.41865	0.22567
2740.49009	0.22335
2738.56152	0.22102
2736.63296	0.21866
2734.70439	0.21629
2732.77583	0.21405
2730.84727	0.21192
2728.91870	0.20974
2726.99014	0.20748
2725.06157	0.20525
2723.13301	0.20315
2721.20444	0.20116
2719.27588	0.19933
2717.34731	0.19766
2715.41875	0.19597
2713.49019	0.19424
2711.56162	0.19247
2709.63306	0.19071
2707.70449	0.18896
2705.77593	0.18725
2703.84736	0.18568
2701.91880	0.18408
2699.99023	0.18247
2698.06167	0.18106
2696.13311	0.17966
2694.20454	0.17817
2692.27598	0.17680
2690.34741	0.17558
2688.41885	0.17450
2686.49028	0.17340
2684.56172	0.17207
2682.63315	0.17071
2680.70459	0.16963
2678.77603	0.16862
2676.84746	0.16751
2674.91890	0.16649
2672.99033	0.16563
2671.06177	0.16473
2669.13320	0.16372
2667.20464	0.16272
2665.27607	0.16172
2663.34751	0.16072
2661.41895	0.15994
2659.49038	0.15931
2657.56182	0.15855
2655.63325	0.15775
2653.70469	0.15711
2651.77612	0.15641
2649.84756	0.15560
2647.91899	0.15491
2645.99043	0.15434
2644.06187	0.15388
2642.13330	0.15356
2640.20474	0.15331
2638.27617	0.15291
2636.34761	0.15234
2634.41904	0.15183
2632.49048	0.15144
2630.56191	0.15108
2628.63335	0.15076
2626.70479	0.15051
2624.77622	0.15024
2622.84766	0.14994
2620.91909	0.14969
2618.99053	0.14954
2617.06196	0.14937
2615.13340	0.14923
2613.20483	0.14915
2611.27627	0.14894
2609.34771	0.14870
2607.41914	0.14862
2605.49058	0.14869
2603.56201	0.14881
2601.63345	0.14887
2599.70488	0.14879
2597.77632	0.14864
2595.84775	0.14863
2593.91919	0.14883
2591.99062	0.14912
2590.06206	0.14942
2588.13350	0.14968
2586.20493	0.14985
2584.27637	0.15007
2582.34780	0.15038
2580.41924	0.15066
2578.49067	0.15092
2576.56211	0.15122
2574.63354	0.15145
2572.70498	0.15154
2570.77642	0.15177
2568.84785	0.15226
2566.91929	0.15283
2564.99072	0.15326
2563.06216	0.15356
2561.13359	0.15391
2559.20503	0.15444
2557.27646	0.15502
2555.34790	0.15558
2553.41934	0.15620
2551.49077	0.15690
2549.56221	0.15743
2547.63364	0.15780
2545.70508	0.15828
2543.77651	0.15887
2541.84795	0.15937
2539.91938	0.15992
2537.99082	0.16071
2536.06226	0.16157
2534.13369	0.16232
2532.20513	0.16305
2530.27656	0.16370
2528.34800	0.16433
2526.41943	0.16502
2524.49087	0.16576
2522.56230	0.16652
2520.63374	0.16726
2518.70518	0.16800
2516.77661	0.16877
2514.84805	0.16961
2512.91948	0.17044
2510.99092	0.17121
2509.06235	0.17202
2507.13379	0.17289
2505.20522	0.17375
2503.27666	0.17460
2501.34810	0.17542
2499.41953	0.17630
2497.49097	0.17728
2495.56240	0.17817
2493.63384	0.17885
2491.70527	0.17959
2489.77671	0.18052
2487.84814	0.18153
2485.91958	0.18249
2483.99102	0.18330
2482.06245	0.18395
2480.13389	0.18472
2478.20532	0.18575
2476.27676	0.18673
2474.34819	0.18757
2472.41963	0.18846
2470.49106	0.18940
2468.56250	0.19029
2466.63394	0.19114
2464.70537	0.19204
2462.77681	0.19303
2460.84824	0.19414
2458.91968	0.19529
2456.99111	0.19633
2455.06255	0.19728
2453.13398	0.19831
2451.20542	0.19929
2449.27686	0.20009
2447.34829	0.20094
2445.41973	0.20193
2443.49116	0.20287
2441.56260	0.20382
2439.63403	0.20489
2437.70547	0.20600
2435.77690	0.20711
2433.84834	0.20820
2431.91978	0.20924
2429.99121	0.21031
2428.06265	0.21140
2426.13408	0.21241
2424.20552	0.21337
2422.27695	0.21443
2420.34839	0.21570
2418.41982	0.21701
2416.49126	0.21817
2414.56270	0.21923
2412.63413	0.22031
2410.70557	0.22136
2408.77700	0.22238
2406.84844	0.22349
2404.91987	0.22485
2402.99131	0.22626
2401.06274	0.22744
2399.13418	0.22847
2397.20562	0.22953
2395.27705	0.23072
2393.34849	0.23203
2391.41992	0.23335
2389.49136	0.23468
2387.56279	0.23618
2385.63423	0.23794
2383.70566	0.24004
2381.77710	0.24243
2379.84854	0.24499
2377.91997	0.24785
2375.99141	0.25135
2374.06284	0.25542
2372.13428	0.25967
2370.20571	0.26392
2368.27715	0.26821
2366.34858	0.27275
2364.42002	0.27672
2362.49146	0.27953
2360.56289	0.28231
2358.63433	0.28476
2356.70576	0.28501
2354.77720	0.28335
2352.84863	0.28155
2350.92007	0.27981
2348.99150	0.27876
2347.06294	0.27962
2345.13437	0.28313
2343.20581	0.28807
2341.27725	0.29115
2339.34868	0.29220
2337.42012	0.29279
2335.49155	0.29338
2333.56299	0.29426
2331.63442	0.29581
2329.70586	0.29774
2327.77729	0.29929
2325.84873	0.30014
2323.92017	0.30081
2321.99160	0.30125
2320.06304	0.30106
2318.13447	0.30092
2316.20591	0.30132
2314.27734	0.30215
2312.34878	0.30326
2310.42021	0.30455
2308.49165	0.30590
2306.56309	0.30703
2304.63452	0.30793
2302.70596	0.30901
2300.77739	0.31036
2298.84883	0.31175
2296.92026	0.31314
2294.99170	0.31466
2293.06313	0.31620
2291.13457	0.31758
2289.20601	0.31909
2287.27744	0.32077
2285.34888	0.32244
2283.42031	0.32421
2281.49175	0.32623
2279.56318	0.32839
2277.63462	0.33050
2275.70605	0.33252
2273.77749	0.33448
2271.84893	0.33646
2269.92036	0.33853
2267.99180	0.34064
2266.06323	0.34274
2264.13467	0.34481
2262.20610	0.34691
2260.27754	0.34906
2258.34897	0.35115
2256.42041	0.35308
2254.49185	0.35514
2252.56328	0.35742
2250.63472	0.35968
2248.70615	0.36185
2246.77759	0.36397
2244.84902	0.36614
2242.92046	0.36839
2240.99189	0.37063
2239.06333	0.37279
2237.13477	0.37484
2235.20620	0.37693
2233.27764	0.37923
2231.34907	0.38157
2229.42051	0.38382
2227.49194	0.38598
2225.56338	0.38805
2223.63481	0.39007
2221.70625	0.39225
2219.77769	0.39465
2217.84912	0.39692
2215.92056	0.39896
2213.99199	0.40100
2212.06343	0.40316
2210.13486	0.40540
2208.20630	0.40754
2206.27773	0.40950
2204.34917	0.41144
2202.42061	0.41354
2200.49204	0.41579
2198.56348	0.41798
2196.63491	0.42004
2194.70635	0.42196
2192.77778	0.42376
2190.84922	0.42553
2188.92065	0.42733
2186.99209	0.42918
2185.06353	0.43108
2183.13496	0.43281
2181.20640	0.43444
2179.27783	0.43602
2177.34927	0.43749
2175.42070	0.43900
2173.49214	0.44063
2171.56357	0.44216
2169.63501	0.44348
2167.70645	0.44467
2165.77788	0.44581
2163.84932	0.44704
2161.92075	0.44849
2159.99219	0.44987
2158.06362	0.45082
2156.13506	0.45149
2154.20649	0.45220
2152.27793	0.45297
2150.34937	0.45369
2148.42080	0.45433
2146.49224	0.45496
2144.56367	0.45553
2142.63511	0.45592
2140.70654	0.45607
2138.77798	0.45617
2136.84941	0.45642
2134.92085	0.45663
2132.99229	0.45657
2131.06372	0.45642
2129.13516	0.45627
2127.20659	0.45601
2125.27803	0.45568
2123.34946	0.45520
2121.42090	0.45457
2119.49233	0.45392
2117.56377	0.45339
2115.63521	0.45282
2113.70664	0.45197
2111.77808	0.45094
2109.84951	0.44987
2107.92095	0.44870
2105.99238	0.44754
2104.06382	0.44642
2102.13525	0.44516
2100.20669	0.44377
2098.27812	0.44235
2096.34956	0.44088
2094.42100	0.43935
2092.49243	0.43776
2090.56387	0.43608
2088.63530	0.43427
2086.70674	0.43242
2084.77817	0.43055
2082.84961	0.42867
2080.92104	0.42675
2078.99248	0.42468
2077.06392	0.42248
2075.13535	0.42033
2073.20679	0.41829
2071.27822	0.41616
2069.34966	0.41394
2067.42109	0.41161
2065.49253	0.40915
2063.56396	0.40658
2061.63540	0.40404
2059.70684	0.40161
2057.77827	0.39926
2055.84971	0.39678
2053.92114	0.39413
2051.99258	0.39157
2050.06401	0.38905
2048.13545	0.38638
2046.20688	0.38354
2044.27832	0.38081
2042.34976	0.37826
2040.42119	0.37570
2038.49263	0.37301
2036.56406	0.37019
2034.63550	0.36728
2032.70693	0.36434
2030.77837	0.36148
2028.84980	0.35878
2026.92124	0.35612
2024.99268	0.35335
2023.06411	0.35058
2021.13555	0.34786
2019.20698	0.34514
2017.27842	0.34237
2015.34985	0.33949
2013.42129	0.33658
2011.49272	0.33378
2009.56416	0.33113
2007.63560	0.32849
2005.70703	0.32582
2003.77847	0.32316
2001.84990	0.32053
1999.92134	0.31785
1997.99277	0.31513
1996.06421	0.31259
1994.13564	0.31030
1992.20708	0.30807
1990.27852	0.30553
1988.34995	0.30286
1986.42139	0.30042
1984.49282	0.29816
1982.56426	0.29580
1980.63569	0.29332
1978.70713	0.29097
1976.77856	0.28872
1974.85000	0.28649
1972.92144	0.28436
1970.99287	0.28230
1969.06431	0.28021
1967.13574	0.27809
1965.20718	0.27596
1963.27861	0.27388
1961.35005	0.27198
1959.42148	0.27022
1957.49292	0.26852
1955.56436	0.26680
1953.63579	0.26501
1951.70723	0.26324
1949.77866	0.26157
1947.85010	0.25999
1945.92153	0.25857
1943.99297	0.25734
1942.06440	0.25601
1940.13584	0.25444
1938.20728	0.25293
1936.27871	0.25158
1934.35015	0.25025
1932.42158	0.24897
1930.49302	0.24774
1928.56445	0.24658
1926.63589	0.24548
1924.70732	0.24458
1922.77876	0.24380
1920.85020	0.24291
1918.92163	0.24205
1916.99307	0.24122
1915.06450	0.24022
1913.13594	0.23928
1911.20737	0.23858
1909.27881	0.23795
1907.35024	0.23726
1905.42168	0.23657
1903.49312	0.23595
1901.56455	0.23534
1899.63599	0.23483
1897.70742	0.23452
1895.77886	0.23427
1893.85029	0.23396
1891.92173	0.23367
1889.99316	0.23355
1888.06460	0.23321
1886.13604	0.23266
1884.20747	0.23224
1882.27891	0.23200
1880.35034	0.23195
1878.42178	0.23203
1876.49321	0.23210
1874.56465	0.23202
1872.63608	0.23211
1870.70752	0.23264
1868.77896	0.23351
1866.85039	0.23385
1864.92183	0.23355
1862.99326	0.23341
1861.06470	0.23359
1859.13613	0.23387
1857.20757	0.23408
1855.27900	0.23448
1853.35044	0.23508
1851.42187	0.23569
1849.49331	0.23630
1847.56475	0.23707
1845.63618	0.23810
1843.70762	0.23929
1841.77905	0.24001
1839.85049	0.24025
1837.92192	0.24086
1835.99336	0.24179
1834.06479	0.24281
1832.13623	0.24394
1830.20767	0.24553
1828.27910	0.24707
1826.35054	0.24807
1824.42197	0.24919
1822.49341	0.25027
1820.56484	0.25136
1818.63628	0.25273
1816.70771	0.25440
1814.77915	0.25607
1812.85059	0.25789
1810.92202	0.25995
1808.99346	0.26188
1807.06489	0.26373
1805.13633	0.26569
1803.20776	0.26799
1801.27920	0.27065
1799.35063	0.27359
1797.42207	0.27611
1795.49351	0.27850
1793.56494	0.28150
1791.63638	0.28532
1789.70781	0.28856
1787.77925	0.29083
1785.85068	0.29384
1783.92212	0.29765
1781.99355	0.30171
1780.06499	0.30588
1778.13643	0.31007
1776.20786	0.31416
1774.27930	0.31878
1772.35073	0.32494
1770.42217	0.33128
1768.49360	0.33639
1766.56504	0.34126
1764.63647	0.34639
1762.70791	0.35234
1760.77935	0.35988
1758.85078	0.36687
1756.92222	0.37394
1754.99365	0.38170
1753.06509	0.38881
1751.13652	0.39739
1749.20796	0.40816
1747.27939	0.41857
1745.35083	0.42760
1743.42227	0.43712
1741.49370	0.44770
1739.56514	0.46022
1737.63657	0.47290
1735.70801	0.48424
1733.77944	0.50092
1731.85088	0.52024
1729.92231	0.53547
1727.99375	0.55099
1726.06519	0.56787
1724.13662	0.58645
1722.20806	0.60648
1720.27949	0.62514
1718.35093	0.64715
1716.42236	0.67893
1714.49380	0.70879
1712.56523	0.73325
1710.63667	0.75726
1708.70811	0.78322
1706.77954	0.81268
1704.85098	0.84752
1702.92241	0.87884
1700.99385	0.91040
1699.06528	0.95647
1697.13672	0.99825
1695.20815	1.04099
1693.27959	1.08305
1691.35103	1.11754
1689.42246	1.15721
1687.49390	1.19867
1685.56533	1.23885
1683.63677	1.29933
1681.70820	1.36110
1679.77964	1.40159
1677.85107	1.44050
1675.92251	1.48503
1673.99395	1.53965
1672.06538	1.58866
1670.13682	1.63674
1668.20825	1.69789
1666.27969	1.74756
1664.35112	1.78978
1662.42256	1.84266
1660.49399	1.90160
1658.56543	1.94732
1656.63687	1.98499
1654.70830	2.02195
1652.77974	2.07875
1650.85117	2.12839
1648.92261	2.14613
1646.99404	2.17105
1645.06548	2.20111
1643.13691	2.22149
1641.20835	2.23310
1639.27979	2.24274
1637.35122	2.24984
1635.42266	2.25168
1633.49409	2.24265
1631.56553	2.22684
1629.63696	2.20970
1627.70840	2.18441
1625.77983	2.15462
1623.85127	2.11504
1621.92271	2.06480
1619.99414	2.01920
1618.06558	1.97603
1616.13701	1.91669
1614.20845	1.85542
1612.27988	1.80800
1610.35132	1.75883
1608.42275	1.70525
1606.49419	1.65203
1604.56562	1.60357
1602.63706	1.55742
1600.70850	1.51164
1598.77993	1.46896
1596.85137	1.42918
1594.92280	1.39059
1592.99424	1.35255
1591.06567	1.31691
1589.13711	1.28345
1587.20854	1.25264
1585.27998	1.22431
1583.35142	1.19750
1581.42285	1.17251
1579.49429	1.15111
1577.56572	1.13231
1575.63716	1.10943
1573.70859	1.08845
1571.78003	1.07447
1569.85146	1.06013
1567.92290	1.04406
1565.99434	1.03137
1564.06577	1.02128
1562.13721	1.01391
1560.20864	1.00959
1558.28008	1.00270
1556.35151	0.99407
1554.42295	0.98811
1552.49438	0.98273
1550.56582	0.97694
1548.63726	0.96983
1546.70869	0.96234
1544.78013	0.95424
1542.85156	0.94454
1540.92300	0.93123
1538.99443	0.91002
1537.06587	0.89362
1535.13730	0.88309
1533.20874	0.86987
1531.28018	0.85532
1529.35161	0.84447
1527.42305	0.83452
1525.49448	0.82439
1523.56592	0.81570
1521.63735	0.80731
1519.70879	0.79823
1517.78022	0.79018
1515.85166	0.78123
1513.92310	0.77199
1511.99453	0.76427
1510.06597	0.75776
1508.13740	0.75189
1506.20884	0.74232
1504.28027	0.73250
1502.35171	0.72657
1500.42314	0.72172
1498.49458	0.71692
1496.56602	0.71157
1494.63745	0.70615
1492.70889	0.70199
1490.78032	0.69876
1488.85176	0.69498
1486.92319	0.69065
1484.99463	0.68681
1483.06606	0.68386
1481.13750	0.68176
1479.20894	0.68027
1477.28037	0.67925
1475.35181	0.67868
1473.42324	0.67833
1471.49468	0.67679
1469.56611	0.67402
1467.63755	0.67158
1465.70898	0.66982
1463.78042	0.66815
1461.85186	0.66662
1459.92329	0.66599
1457.99473	0.66602
1456.06616	0.66447
1454.13760	0.66105
1452.20903	0.65794
1450.28047	0.65523
1448.35190	0.65285
1446.42334	0.65033
1444.49478	0.64754
1442.56621	0.64488
1440.63765	0.64255
1438.70908	0.64052
1436.78052	0.63813
1434.85195	0.63523
1432.92339	0.63293
1430.99482	0.63145
1429.06626	0.63019
1427.13770	0.62895
1425.20913	0.62832
1423.28057	0.62821
1421.35200	0.62787
1419.42344	0.62734
1417.49487	0.62645
1415.56631	0.62492
1413.63774	0.62351
1411.70918	0.62255
1409.78062	0.62204
1407.85205	0.62188
1405.92349	0.62203
1403.99492	0.62200
1402.06636	0.62124
1400.13779	0.62009
1398.20923	0.61879
1396.28066	0.61717
1394.35210	0.61478
1392.42354	0.61165
1390.49497	0.60865
1388.56641	0.60601
1386.63784	0.60323
1384.70928	0.60023
1382.78071	0.59741
1380.85215	0.59479
1378.92358	0.59238
1376.99502	0.59047
1375.06646	0.58936
1373.13789	0.58860
1371.20933	0.58760
1369.28076	0.58654
1367.35220	0.58551
1365.42363	0.58447
1363.49507	0.58342
1361.56650	0.58211
1359.63794	0.58054
1357.70937	0.57921
1355.78081	0.57819
1353.85225	0.57715
1351.92368	0.57607
1349.99512	0.57514
1348.06655	0.57426
1346.13799	0.57332
1344.20942	0.57246
1342.28086	0.57171
1340.35229	0.57105
1338.42373	0.57021
1336.49517	0.56904
1334.56660	0.56792
1332.63804	0.56715
1330.70947	0.56673
1328.78091	0.56657
1326.85234	0.56666
1324.92378	0.56680
1322.99521	0.56681
1321.06665	0.56674
1319.13809	0.56662
1317.20952	0.56635
1315.28096	0.56600
1313.35239	0.56553
1311.42383	0.56477
1309.49526	0.56378
1307.56670	0.56277
1305.63813	0.56196
1303.70957	0.56139
1301.78101	0.56080
1299.85244	0.55993
1297.92388	0.55891
1295.99531	0.55795
1294.06675	0.55706
1292.13818	0.55611
1290.20962	0.55503
1288.28105	0.55393
1286.35249	0.55306
1284.42393	0.55230
1282.49536	0.55138
1280.56680	0.55046
1278.63823	0.54966
1276.70967	0.54880
1274.78110	0.54797
1272.85254	0.54735
1270.92397	0.54690
1268.99541	0.54644
1267.06685	0.54580
1265.13828	0.54499
1263.20972	0.54428
1261.28115	0.54367
1259.35259	0.54305
1257.42402	0.54251
1255.49546	0.54216
1253.56689	0.54198
1251.63833	0.54192
1249.70977	0.54184
1247.78120	0.54163
1245.85264	0.54129
1243.92407	0.54079
1241.99551	0.54010
1240.06694	0.53929
1238.13838	0.53829
1236.20981	0.53697
1234.28125	0.53549
1232.35269	0.53403
1230.42412	0.53261
1228.49556	0.53137
1226.56699	0.53026
1224.63843	0.52904
1222.70986	0.52771
1220.78130	0.52653
1218.85273	0.52550
1216.92417	0.52431
1214.99561	0.52310
1213.06704	0.52224
1211.13848	0.52178
1209.20991	0.52141
1207.28135	0.52088
1205.35278	0.52017
1203.42422	0.51949
1201.49565	0.51881
1199.56709	0.51806
1197.63853	0.51737
1195.70996	0.51665
1193.78140	0.51587
1191.85283	0.51532
1189.92427	0.51501
1187.99570	0.51465
1186.06714	0.51436
1184.13857	0.51444
1182.21001	0.51478
1180.28145	0.51517
1178.35288	0.51569
1176.42432	0.51650
1174.49575	0.51747
1172.56719	0.51825
1170.63862	0.51878
1168.71006	0.51925
1166.78149	0.51976
1164.85293	0.52041
1162.92437	0.52099
1160.99580	0.52140
1159.06724	0.52159
1157.13867	0.52150
1155.21011	0.52114
1153.28154	0.52030
1151.35298	0.51872
1149.42441	0.51663
1147.49585	0.51436
1145.56729	0.51195
1143.63872	0.50942
1141.71016	0.50699
1139.78159	0.50486
1137.85303	0.50304
1135.92446	0.50156
1133.99590	0.50069
1132.06733	0.50017
1130.13877	0.49946
1128.21021	0.49865
1126.28164	0.49789
1124.35308	0.49694
1122.42451	0.49589
1120.49595	0.49537
1118.56738	0.49549
1116.63882	0.49586
1114.71025	0.49623
1112.78169	0.49662
1110.85312	0.49727
1108.92456	0.49821
1106.99600	0.49909
1105.06743	0.49988
1103.13887	0.50074
1101.21030	0.50175
1099.28174	0.50308
1097.35317	0.50496
1095.42461	0.50768
1093.49604	0.51136
1091.56748	0.51610
1089.63892	0.52197
1087.71035	0.52914
1085.78179	0.53742
1083.85322	0.54586
1081.92466	0.55337
1079.99609	0.55916
1078.06753	0.56241
1076.13896	0.56249
1074.21040	0.55956
1072.28184	0.55431
1070.35327	0.54760
1068.42471	0.54046
1066.49614	0.53346
1064.56758	0.52693
1062.63901	0.52143
1060.71045	0.51680
1058.78188	0.51254
1056.85332	0.50872
1054.92476	0.50550
1052.99619	0.50273
1051.06763	0.50039
1049.13906	0.49875
1047.21050	0.49767
1045.28193	0.49701
1043.35337	0.49697
1041.42480	0.49742
1039.49624	0.49765
1037.56768	0.49745
1035.63911	0.49726
1033.71055	0.49699
1031.78198	0.49635
1029.85342	0.49535
1027.92485	0.49411
1025.99629	0.49282
1024.06772	0.49181
1022.13916	0.49126
1020.21060	0.49102
1018.28203	0.49078
1016.35347	0.49064
1014.42490	0.49080
1012.49634	0.49091
1010.56777	0.49088
1008.63921	0.49123
1006.71064	0.49221
1004.78208	0.49352
1002.85352	0.49505
1000.92495	0.49726
998.99639	0.50037
997.06782	0.50417
995.13926	0.50842
993.21069	0.51262
991.28213	0.51602
989.35356	0.51822
987.42500	0.51923
985.49644	0.51940
983.56787	0.51954
981.63931	0.52006
979.71074	0.52093
977.78218	0.52230
975.85361	0.52435
973.92505	0.52700
971.99648	0.53018
970.06792	0.53381
968.13936	0.53774
966.21079	0.54188
964.28223	0.54607
962.35366	0.55049
960.42510	0.55557
958.49653	0.56120
956.56797	0.56695
954.63940	0.57277
952.71084	0.57895
950.78228	0.58568
948.85371	0.59250
946.92515	0.59882
944.99658	0.60475
943.06802	0.61060
941.13945	0.61664
939.21089	0.62290
937.28232	0.62895
935.35376	0.63464
933.42520	0.64032
931.49663	0.64596
929.56807	0.65165
927.63950	0.65779
925.71094	0.66435
923.78237	0.67109
921.85381	0.67773
919.92524	0.68408
917.99668	0.69054
916.06812	0.69796
914.13955	0.70647
912.21099	0.71518
910.28242	0.72317
908.35386	0.73055
906.42529	0.73856
904.49673	0.74797
902.56816	0.75779
900.63960	0.76662
898.71104	0.77449
896.78247	0.78313
894.85391	0.79394
892.92534	0.80538
890.99678	0.81526
889.06821	0.82526
887.13965	0.83765
885.21108	0.85173
883.28252	0.86509
881.35396	0.87593
879.42539	0.88561
877.49683	0.89636
875.56826	0.90873
873.63970	0.92218
871.71113	0.93521
869.78257	0.94594
867.85400	0.95509
865.92544	0.96532
863.99687	0.97638
862.06831	0.98726
860.13975	0.99872
858.21118	1.01119
856.28262	1.02450
854.35405	1.03797
852.42549	1.05064
850.49692	1.06229
848.56836	1.07204
846.63979	1.08146
844.71123	1.09483
842.78267	1.11148
840.85410	1.12695
838.92554	1.13908
836.99697	1.14868
835.06841	1.15512
833.13984	1.16004
831.21128	1.17044
829.28271	1.18424
827.35415	1.19435
825.42559	1.20724
823.49702	1.22858
821.56846	1.24869
819.63989	1.26385
817.71133	1.27584
815.78276	1.28570
813.85420	1.30142
811.92563	1.31594
809.99707	1.31666
808.06851	1.31654
806.13994	1.32822
804.21138	1.34563
802.28281	1.36953
800.35425	1.39866
798.42568	1.42577
796.49712	1.45248
794.56855	1.46293
792.63999	1.44292
790.71143	1.41353
788.78286	1.42296
786.85430	1.46684
784.92573	1.48986
782.99717	1.48384
781.06860	1.48572
779.14004	1.49806
777.21147	1.47030
775.28291	1.40924
773.35435	1.39200
771.42578	1.46049
769.49722	1.54543
767.56865	1.45369
765.64009	1.33847
763.71152	1.34413
761.78296	1.43272
759.85439	1.52107
757.92583	1.43101
755.99727	1.27369
754.06870	1.21981
752.14014	1.18744
750.21157	1.11093
748.28301	1.07814
746.35444	1.06087
744.42588	1.00091
742.49731	0.93122
740.56875	0.86775
738.64019	0.85216
736.71162	0.90591
734.78306	0.87994
732.85449	0.68750
730.92593	0.54346
728.99736	0.47539
727.06880	0.41377
725.14023	0.30895
723.21167	0.21116
721.28311	0.18152
719.35454	0.17463
717.42598	0.10007
715.49741	-0.02954
713.56885	-0.17219
711.64028	-0.30810
709.71172	-0.34818
707.78315	-0.18699
705.85459	-0.05390
703.92603	-0.00328
701.99746	0.01656
700.06890	-0.03427
698.14033	-0.11722
696.21177	-0.09886
694.28320	-0.04318
692.35464	-0.04316
690.42607	-0.06357
688.49751	-0.02267
686.56895	0.03555
684.64038	0.06311
682.71182	0.09147
680.78325	0.05819
678.85469	0.00383
676.92612	0.06163
674.99756	0.12635
673.06899	0.06323
671.14043	-0.07116
669.21187	-0.15023
667.28330	-0.13941
665.35474	-0.14659
663.42617	-0.14548
661.49761	-0.05158
659.56904	0.06698
657.64048	0.11133
655.71191	0.11148
653.78335	0.06228
651.85479	-0.00354
649.92622	-0.00120
647.99766	0.09588
646.06909	0.13934
644.14053	0.09297
642.21196	0.06201
640.28340	0.03926
638.35483	-0.01960
636.42627	-0.06374
634.49771	-0.03302
632.56914	0.03890
630.64058	0.10267
628.71201	0.12798
626.78345	0.11384
624.85488	0.07201
622.92632	0.03423
620.99775	0.05279
619.06919	0.10082
617.14062	0.12538
615.21206	0.10829
613.28350	0.03931
611.35493	-0.00953
609.42637	0.00036
607.49780	0.04619
605.56924	0.09943
603.64067	0.12746
601.71211	0.10514
599.78354	0.09385
597.85498	0.12849
595.92642	0.08735
593.99785	-0.02860
592.06929	-0.05682
590.14072	0.01526
588.21216	0.03587
586.28359	-0.01124
584.35503	-0.03420
582.42646	0.00021
580.49790	0.05734
578.56934	0.10113
576.64077	0.07113
574.71221	-0.03136
572.78364	-0.06498
570.85508	0.02309
568.92651	0.15217
566.99795	0.19561
565.06938	0.13203
563.14082	0.09260
561.21226	0.11705
559.28369	0.13108
557.35513	0.09352
555.42656	0.03060
553.49800	0.01404
551.56943	0.05210
549.64087	0.08363
547.71230	0.07382
545.78374	0.05044
543.85518	0.01784
541.92661	-0.01199
539.99805	-0.01639
538.06948	-0.00310
536.14092	0.01295
534.21235	0.01295
532.28379	0.01540
530.35522	0.08298
528.42666	0.17920
526.49810	0.16930
524.56953	0.06955
522.64097	0.03312
520.71240	0.06583
518.78384	0.11107
516.85527	0.14084
514.92671	0.14854
512.99814	0.14005
511.06958	0.11200
509.14102	0.05891
507.21245	0.01594
505.28389	0.01618
503.35532	0.05750
501.42676	0.08289
499.49819	0.04679
