3997.91411	0.06067
3995.98555	0.06107
3994.05698	0.06132
3992.12842	0.06133
3990.19985	0.06137
3988.27129	0.06180
3986.34272	0.06235
3984.41416	0.06254
3982.48560	0.06252
3980.55703	0.06272
3978.62847	0.06319
3976.69990	0.06373
3974.77134	0.06418
3972.84277	0.06452
3970.91421	0.06484
3968.98564	0.06500
3967.05708	0.06477
3965.12852	0.06409
3963.19995	0.06339
3961.27139	0.06349
3959.34282	0.06420
3957.41426	0.06453
3955.48569	0.06470
3953.55713	0.06500
3951.62856	0.06505
3949.70000	0.06498
3947.77144	0.06501
3945.84287	0.06485
3943.91431	0.06481
3941.98574	0.06521
3940.05718	0.06548
3938.12861	0.06541
3936.20005	0.06528
3934.27148	0.06506
3932.34292	0.06472
3930.41436	0.06473
3928.48579	0.06535
3926.55723	0.06587
3924.62866	0.06590
3922.70010	0.06566
3920.77153	0.06536
3918.84297	0.06520
3916.91440	0.06520
3914.98584	0.06486
3913.05728	0.06413
3911.12871	0.06379
3909.20015	0.06397
3907.27158	0.06404
3905.34302	0.06390
3903.41445	0.06412
3901.48589	0.06475
3899.55732	0.06512
3897.62876	0.06499
3895.70020	0.06482
3893.77163	0.06501
3891.84307	0.06539
3889.91450	0.06513
3887.98594	0.06400
3886.05737	0.06363
3884.12881	0.06451
3882.20024	0.06548
3880.27168	0.06618
3878.34312	0.06605
3876.41455	0.06535
3874.48599	0.06567
3872.55742	0.06690
3870.62886	0.06782
3868.70029	0.06813
3866.77173	0.06769
3864.84316	0.06748
3862.91460	0.06816
3860.98604	0.06852
3859.05747	0.06841
3857.12891	0.06859
3855.20034	0.06877
3853.27178	0.06923
3851.34321	0.07057
3849.41465	0.07086
3847.48608	0.07052
3845.55752	0.07053
3843.62896	0.07089
3841.70039	0.07170
3839.77183	0.07307
3837.84326	0.07473
3835.91470	0.07569
3833.98613	0.07591
3832.05757	0.07641
3830.12900	0.07722
3828.20044	0.07777
3826.27187	0.07810
3824.34331	0.07858
3822.41475	0.07943
3820.48618	0.08081
3818.55762	0.08171
3816.62905	0.08211
3814.70049	0.08299
3812.77192	0.08348
3810.84336	0.08342
3808.91479	0.08394
3806.98623	0.08564
3805.05767	0.08753
3803.12910	0.08852
3801.20054	0.08965
3799.27197	0.09091
3797.34341	0.09167
3795.41484	0.09300
3793.48628	0.09431
3791.55771	0.09490
3789.62915	0.09552
3787.70059	0.09648
3785.77202	0.09808
3783.84346	0.10013
3781.91489	0.10177
3779.98633	0.10347
3778.05776	0.10558
3776.12920	0.10681
3774.20063	0.10753
3772.27207	0.10884
3770.34351	0.11092
3768.41494	0.11331
3766.48638	0.11517
3764.55781	0.11691
3762.62925	0.11878
3760.70068	0.12052
3758.77212	0.12267
3756.84355	0.12537
3754.91499	0.12801
3752.98643	0.13062
3751.05786	0.13375
3749.12930	0.13740
3747.20073	0.14022
3745.27217	0.14259
3743.34360	0.14558
3741.41504	0.14796
3739.48647	0.15002
3737.55791	0.15317
3735.62935	0.15759
3733.70078	0.16225
3731.77222	0.16543
3729.84365	0.16771
3727.91509	0.17055
3725.98652	0.17529
3724.05796	0.18234
3722.12939	0.19057
3720.20083	0.19893
3718.27227	0.20687
3716.34370	0.21467
3714.41514	0.22257
3712.48657	0.23153
3710.55801	0.24320
3708.62944	0.25575
3706.70088	0.26668
3704.77231	0.27747
3702.84375	0.29056
3700.91519	0.30768
3698.98662	0.32607
3697.05806	0.34331
3695.12949	0.36168
3693.20093	0.38156
3691.27236	0.40343
3689.34380	0.43148
3687.41523	0.46568
3685.48667	0.49591
3683.55811	0.52168
3681.62954	0.54920
3679.70098	0.58049
3677.77241	0.61338
3675.84385	0.65174
3673.91528	0.70301
3671.98672	0.74574
3670.05815	0.78367
3668.12959	0.83578
3666.20103	0.88485
3664.27246	0.92615
3662.34390	0.96971
3660.41533	1.01607
3658.48677	1.06147
3656.55820	1.10995
3654.62964	1.16398
3652.70107	1.20950
3650.77251	1.24928
3648.84395	1.30331
3646.91538	1.36835
3644.98682	1.41742
3643.05825	1.45654
3641.12969	1.49682
3639.20112	1.54073
3637.27256	1.58425
3635.34399	1.62574
3633.41543	1.66689
3631.48687	1.70608
3629.55830	1.74651
3627.62974	1.79904
3625.70117	1.84805
3623.77261	1.88119
3621.84404	1.91309
3619.91548	1.95127
3617.98691	1.99797
3616.05835	2.04182
3614.12979	2.07814
3612.20122	2.11664
3610.27266	2.15534
3608.34409	2.19324
3606.41553	2.23411
3604.48696	2.27429
3602.55840	2.31065
3600.62983	2.34924
3598.70127	2.39084
3596.77271	2.42996
3594.84414	2.46878
3592.91558	2.51020
3590.98701	2.55005
3589.05845	2.58661
3587.12988	2.62885
3585.20132	2.67625
3583.27275	2.71817
3581.34419	2.75723
3579.41562	2.79908
3577.48706	2.84244
3575.55850	2.88423
3573.62993	2.92535
3571.70137	2.96572
3569.77280	3.00616
3567.84424	3.05013
3565.91567	3.10196
3563.98711	3.15207
3562.05854	3.19429
3560.12998	3.23601
3558.20142	3.28138
3556.27285	3.32863
3554.34429	3.37242
3552.41572	3.41510
3550.48716	3.46115
3548.55859	3.50905
3546.63003	3.55562
3544.70146	3.60234
3542.77290	3.64935
3540.84434	3.69408
3538.91577	3.73749
3536.98721	3.78180
3535.05864	3.83150
3533.13008	3.88531
3531.20151	3.93590
3529.27295	3.98105
3527.34438	4.02706
3525.41582	4.07534
3523.48726	4.12321
3521.55869	4.17158
3519.63013	4.21949
3517.70156	4.26737
3515.77300	4.31379
3513.84443	4.35928
3511.91587	4.40748
3509.98730	4.45978
3508.05874	4.51248
3506.13018	4.55890
3504.20161	4.60084
3502.27305	4.64826
3500.34448	4.70448
3498.41592	4.75722
3496.48735	4.80140
3494.55879	4.84577
3492.63022	4.89393
3490.70166	4.94399
3488.77310	4.99142
3486.84453	5.03266
3484.91597	5.07535
3482.98740	5.12297
3481.05884	5.17216
3479.13027	5.22459
3477.20171	5.28070
3475.27314	5.33979
3473.34458	5.39788
3471.41602	5.44032
3469.48745	5.46484
3467.55889	5.49280
3465.63032	5.53665
3463.70176	5.59086
3461.77319	5.64888
3459.84463	5.70871
3457.91606	5.76095
3455.98750	5.79871
3454.05894	5.83546
3452.13037	5.88782
3450.20181	5.95029
3448.27324	6.00924
3446.34468	6.06758
3444.41611	6.12149
3442.48755	6.16672
3440.55898	6.21424
3438.63042	6.27480
3436.70186	6.32908
3434.77329	6.35605
3432.84473	6.38911
3430.91616	6.45204
3428.98760	6.51070
3427.05903	6.55181
3425.13047	6.61820
3423.20190	6.70193
3421.27334	6.76448
3419.34478	6.80814
3417.41621	6.84312
3415.48765	6.87659
3413.55908	6.91247
3411.63052	6.95714
3409.70195	6.99591
3407.77339	7.01608
3405.84482	7.04471
3403.91626	7.09148
3401.98770	7.11502
3400.05913	7.13213
3398.13057	7.18554
3396.20200	7.23961
3394.27344	7.26227
3392.34487	7.28837
3390.41631	7.35019
3388.48774	7.39726
3386.55918	7.41673
3384.63062	7.44660
3382.70205	7.48465
3380.77349	7.50900
3378.84492	7.52023
3376.91636	7.56010
3374.98779	7.62955
3373.05923	7.67312
3371.13066	7.66818
3369.20210	7.68220
3367.27354	7.73903
3365.34497	7.77985
3363.41641	7.75299
3361.48784	7.70344
3359.55928	7.70036
3357.63071	7.76929
3355.70215	7.89947
3353.77358	7.94389
3351.84502	7.87657
3349.91646	7.81578
3347.98789	7.81215
3346.05933	7.88499
3344.13076	7.98595
3342.20220	8.04383
3340.27363	8.03366
3338.34507	8.00032
3336.41650	7.98617
3334.48794	7.96725
3332.55937	7.92353
3330.63081	7.93913
3328.70225	8.02222
3326.77368	8.08049
3324.84512	8.11592
3322.91655	8.13645
3320.98799	8.12220
3319.05942	8.08044
3317.13086	8.03472
3315.20229	7.98719
3313.27373	7.94375
3311.34517	7.93667
3309.41660	7.98392
3307.48804	8.01231
3305.55947	7.97374
3303.63091	7.93072
3301.70234	7.92749
3299.77378	8.00388
3297.84521	8.07892
3295.91665	8.07376
3293.98809	8.07776
3292.05952	8.15099
3290.13096	8.29482
3288.20239	8.45466
3286.27383	8.53982
3284.34526	8.49267
3282.41670	8.31682
3280.48813	8.12080
3278.55957	8.02923
3276.63101	8.02566
3274.70244	8.03921
3272.77388	8.05533
3270.84531	8.09830
3268.91675	8.16490
3266.98818	8.16383
3265.05962	8.09027
3263.13105	8.07549
3261.20249	8.14198
3259.27393	8.17571
3257.34536	8.16862
3255.41680	8.19602
3253.48823	8.25842
3251.55967	8.27304
3249.63110	8.18751
3247.70254	8.06277
3245.77397	7.98895
3243.84541	8.03970
3241.91685	8.13942
3239.98828	8.12998
3238.05972	8.04738
3236.13115	8.04741
3234.20259	8.14703
3232.27402	8.20531
3230.34546	8.15383
3228.41689	8.06469
3226.48833	8.00918
3224.55977	8.00109
3222.63120	8.03669
3220.70264	8.08482
3218.77407	8.11582
3216.84551	8.14384
3214.91694	8.13935
3212.98838	8.05951
3211.05981	7.96783
3209.13125	7.90800
3207.20269	7.83716
3205.27412	7.78242
3203.34556	7.78175
3201.41699	7.80265
3199.48843	7.79470
3197.55986	7.75247
3195.63130	7.70975
3193.70273	7.65218
3191.77417	7.57973
3189.84561	7.50732
3187.91704	7.45301
3185.98848	7.47167
3184.05991	7.51239
3182.13135	7.48013
3180.20278	7.40480
3178.27422	7.31209
3176.34565	7.23058
3174.41709	7.18397
3172.48853	7.12588
3170.55996	7.05992
3168.63140	7.01630
3166.70283	6.95726
3164.77427	6.87606
3162.84570	6.80949
3160.91714	6.74092
3158.98857	6.65808
3157.06001	6.59609
3155.13145	6.55871
3153.20288	6.50270
3151.27432	6.41922
3149.34575	6.35238
3147.41719	6.31865
3145.48862	6.27799
3143.56006	6.19983
3141.63149	6.11063
3139.70293	6.03291
3137.77437	5.96232
3135.84580	5.89928
3133.91724	5.83356
3131.98867	5.75410
3130.06011	5.67906
3128.13154	5.61859
3126.20298	5.55252
3124.27441	5.47212
3122.34585	5.39187
3120.41729	5.32111
3118.48872	5.25613
3116.56016	5.18855
3114.63159	5.11496
3112.70303	5.04020
3110.77446	4.96532
3108.84590	4.88680
3106.91733	4.81164
3104.98877	4.74807
3103.06021	4.68538
3101.13164	4.61484
3099.20308	4.54598
3097.27451	4.48177
3095.34595	4.41908
3093.41738	4.35528
3091.48882	4.28636
3089.56025	4.21642
3087.63169	4.14951
3085.70312	4.08398
3083.77456	4.01809
3081.84600	3.95155
3079.91743	3.88709
3077.98887	3.82740
3076.06030	3.77076
3074.13174	3.71374
3072.20317	3.65337
3070.27461	3.59017
3068.34604	3.52901
3066.41748	3.47129
3064.48892	3.41461
3062.56035	3.35813
3060.63179	3.30218
3058.70322	3.24675
3056.77466	3.19228
3054.84609	3.13901
3052.91753	3.08557
3050.98896	3.03200
3049.06040	2.98028
3047.13184	2.93041
3045.20327	2.88062
3043.27471	2.83050
3041.34614	2.78092
3039.41758	2.73276
3037.48901	2.68619
3035.56045	2.64012
3033.63188	2.59413
3031.70332	2.54879
3029.77476	2.50383
3027.84619	2.45920
3025.91763	2.41542
3023.98906	2.37259
3022.06050	2.33021
3020.13193	2.28780
3018.20337	2.24623
3016.27480	2.20610
3014.34624	2.16693
3012.41768	2.12853
3010.48911	2.09081
3008.56055	2.05319
3006.63198	2.01523
3004.70342	1.97817
3002.77485	1.94309
3000.84629	1.90907
2998.91772	1.87531
2996.98916	1.84145
2995.06060	1.80724
2993.13203	1.77367
2991.20347	1.74191
2989.27490	1.71132
2987.34634	1.68043
2985.41777	1.64921
2983.48921	1.61874
2981.56064	1.58929
2979.63208	1.56074
2977.70352	1.53273
2975.77495	1.50448
2973.84639	1.47612
2971.91782	1.44857
2969.98926	1.42196
2968.06069	1.39568
2966.13213	1.36973
2964.20356	1.34428
2962.27500	1.31910
2960.34644	1.29434
2958.41787	1.27044
2956.48931	1.24714
2954.56074	1.22397
2952.63218	1.20120
2950.70361	1.17911
2948.77505	1.15761
2946.84648	1.13639
2944.91792	1.11525
2942.98936	1.09422
2941.06079	1.07326
2939.13223	1.05273
2937.20366	1.03273
2935.27510	1.01288
2933.34653	0.99331
2931.41797	0.97416
2929.48940	0.95528
2927.56084	0.93669
2925.63228	0.91815
2923.70371	0.90015
2921.77515	0.88359
2919.84658	0.86819
2917.91802	0.85324
2915.98945	0.83865
2914.06089	0.82446
2912.13232	0.81040
2910.20376	0.79629
2908.27520	0.78218
2906.34663	0.76825
2904.41807	0.75481
2902.48950	0.74205
2900.56094	0.72997
2898.63237	0.71791
2896.70381	0.70553
2894.77524	0.69341
2892.84668	0.68163
2890.91812	0.67003
2888.98955	0.65868
2887.06099	0.64745
2885.13242	0.63626
2883.20386	0.62551
2881.27529	0.61527
2879.34673	0.60496
2877.41816	0.59451
2875.48960	0.58413
2873.56104	0.57381
2871.63247	0.56357
2869.70391	0.55352
2867.77534	0.54360
2865.84678	0.53351
2863.91821	0.52328
2861.98965	0.51341
2860.06108	0.50404
2858.13252	0.49468
2856.20396	0.48538
2854.27539	0.47694
2852.34683	0.46920
2850.41826	0.46154
2848.48970	0.45409
2846.56113	0.44698
2844.63257	0.44035
2842.70400	0.43441
2840.77544	0.42874
2838.84687	0.42287
2836.91831	0.41695
2834.98975	0.41124
2833.06118	0.40570
2831.13262	0.40002
2829.20405	0.39415
2827.27549	0.38832
2825.34692	0.38260
2823.41836	0.37701
2821.48979	0.37150
2819.56123	0.36591
2817.63267	0.36033
2815.70410	0.35491
2813.77554	0.34963
2811.84697	0.34448
2809.91841	0.33950
2807.98984	0.33461
2806.06128	0.32963
2804.13271	0.32467
2802.20415	0.31972
2800.27559	0.31485
2798.34702	0.31024
2796.41846	0.30583
2794.48989	0.30148
2792.56133	0.29718
2790.63276	0.29303
2788.70420	0.28900
2786.77563	0.28488
2784.84707	0.28078
2782.91851	0.27696
2780.98994	0.27326
2779.06138	0.26944
2777.13281	0.26571
2775.20425	0.26209
2773.27568	0.25858
2771.34712	0.25538
2769.41855	0.25235
2767.48999	0.24907
2765.56143	0.24565
2763.63286	0.24238
2761.70430	0.23927
2759.77573	0.23625
2757.84717	0.23339
2755.91860	0.23061
2753.99004	0.22782
2752.06147	0.22516
2750.13291	0.22266
2748.20435	0.22003
2746.27578	0.21733
2744.34722	0.21469
2742.41865	0.21205
2740.49009	0.20947
2738.56152	0.20714
2736.63296	0.20502
2734.70439	0.20281
2732.77583	0.20052
2730.84727	0.19841
2728.91870	0.19644
2726.99014	0.19451
2725.06157	0.19269
2723.13301	0.19089
2721.20444	0.18903
2719.27588	0.18710
2717.34731	0.18521
2715.41875	0.18346
2713.49019	0.18175
2711.56162	0.17992
2709.63306	0.17811
2707.70449	0.17643
2705.77593	0.17491
2703.84736	0.17353
2701.91880	0.17220
2699.99023	0.17084
2698.06167	0.16941
2696.13311	0.16792
2694.20454	0.16662
2692.27598	0.16554
2690.34741	0.16431
2688.41885	0.16295
2686.49028	0.16171
2684.56172	0.16059
2682.63315	0.15950
2680.70459	0.15847
2678.77603	0.15752
2676.84746	0.15653
2674.91890	0.15551
2672.99033	0.15448
2671.06177	0.15339
2669.13320	0.15228
2667.20464	0.15131
2665.27607	0.15061
2663.34751	0.15000
2661.41895	0.14920
2659.49038	0.14823
2657.56182	0.14745
2655.63325	0.14686
2653.70469	0.14626
2651.77612	0.14569
2649.84756	0.14508
2647.91899	0.14431
2645.99043	0.14363
2644.06187	0.14324
2642.13330	0.14295
2640.20474	0.14256
2638.27617	0.14213
2636.34761	0.14170
2634.41904	0.14125
2632.49048	0.14087
2630.56191	0.14060
2628.63335	0.14043
2626.70479	0.14024
2624.77622	0.14005
2622.84766	0.13992
2620.91909	0.13976
2618.99053	0.13951
2617.06196	0.13927
2615.13340	0.13920
2613.20483	0.13926
2611.27627	0.13925
2609.34771	0.13907
2607.41914	0.13890
2605.49058	0.13890
2603.56201	0.13898
2601.63345	0.13903
2599.70488	0.13899
2597.77632	0.13904
2595.84775	0.13927
2593.91919	0.13949
2591.99062	0.13963
2590.06206	0.13980
2588.13350	0.14005
2586.20493	0.14033
2584.27637	0.14059
2582.34780	0.14081
2580.41924	0.14103
2578.49067	0.14128
2576.56211	0.14167
2574.63354	0.14225
2572.70498	0.14288
2570.77642	0.14339
2568.84785	0.14378
2566.91929	0.14411
2564.99072	0.14447
2563.06216	0.14496
2561.13359	0.14554
2559.20503	0.14608
2557.27646	0.14658
2555.34790	0.14722
2553.41934	0.14792
2551.49077	0.14843
2549.56221	0.14886
2547.63364	0.14939
2545.70508	0.15002
2543.77651	0.15062
2541.84795	0.15121
2539.91938	0.15192
2537.99082	0.15262
2536.06226	0.15326
2534.13369	0.15405
2532.20513	0.15495
2530.27656	0.15574
2528.34800	0.15641
2526.41943	0.15709
2524.49087	0.15779
2522.56230	0.15854
2520.63374	0.15941
2518.70518	0.16033
2516.77661	0.16112
2514.84805	0.16179
2512.91948	0.16256
2510.99092	0.16350
2509.06235	0.16452
2507.13379	0.16548
2505.20522	0.16629
2503.27666	0.16703
2501.34810	0.16782
2499.41953	0.16876
2497.49097	0.16979
2495.56240	0.17072
2493.63384	0.17156
2491.70527	0.17248
2489.77671	0.17338
2487.84814	0.17418
2485.91958	0.17505
2483.99102	0.17588
2482.06245	0.17662
2480.13389	0.17748
2478.20532	0.17852
2476.27676	0.17962
2474.34819	0.18072
2472.41963	0.18182
2470.49106	0.18285
2468.56250	0.18382
2466.63394	0.18479
2464.70537	0.18563
2462.77681	0.18633
2460.84824	0.18714
2458.91968	0.18822
2456.99111	0.18945
2455.06255	0.19056
2453.13398	0.19151
2451.20542	0.19247
2449.27686	0.19350
2447.34829	0.19449
2445.41973	0.19538
2443.49116	0.19638
2441.56260	0.19755
2439.63403	0.19866
2437.70547	0.19967
2435.77690	0.20062
2433.84834	0.20151
2431.91978	0.20261
2429.99121	0.20396
2428.06265	0.20518
2426.13408	0.20622
2424.20552	0.20733
2422.27695	0.20847
2420.34839	0.20953
2418.41982	0.21065
2416.49126	0.21193
2414.56270	0.21309
2412.63413	0.21411
2410.70557	0.21525
2408.77700	0.21654
2406.84844	0.21775
2404.91987	0.21884
2402.99131	0.21998
2401.06274	0.22129
2399.13418	0.22255
2397.20562	0.22370
2395.27705	0.22492
2393.34849	0.22617
2391.41992	0.22745
2389.49136	0.22875
2387.56279	0.22972
2385.63423	0.22995
2383.70566	0.22933
2381.77710	0.22787
2379.84854	0.22565
2377.91997	0.22280
2375.99141	0.21909
2374.06284	0.21427
2372.13428	0.20871
2370.20571	0.20291
2368.27715	0.19692
2366.34858	0.19112
2364.42002	0.18641
2362.49146	0.18337
2360.56289	0.18201
2358.63433	0.18340
2356.70576	0.18950
2354.77720	0.19914
2352.84863	0.21019
2350.92007	0.22101
2348.99150	0.22771
2347.06294	0.22827
2345.13437	0.22370
2343.20581	0.21838
2341.27725	0.21671
2339.34868	0.21825
2337.42012	0.22153
2335.49155	0.22558
2333.56299	0.22905
2331.63442	0.23132
2329.70586	0.23383
2327.77729	0.23782
2325.84873	0.24231
2323.92017	0.24654
2321.99160	0.25094
2320.06304	0.25575
2318.13447	0.26084
2316.20591	0.26565
2314.27734	0.26953
2312.34878	0.27270
2310.42021	0.27600
2308.49165	0.27976
2306.56309	0.28360
2304.63452	0.28713
2302.70596	0.29024
2300.77739	0.29310
2298.84883	0.29588
2296.92026	0.29851
2294.99170	0.30104
2293.06313	0.30381
2291.13457	0.30679
2289.20601	0.30966
2287.27744	0.31239
2285.34888	0.31509
2283.42031	0.31750
2281.49175	0.31949
2279.56318	0.32121
2277.63462	0.32294
2275.70605	0.32499
2273.77749	0.32721
2271.84893	0.32932
2269.92036	0.33141
2267.99180	0.33358
2266.06323	0.33581
2264.13467	0.33804
2262.20610	0.34023
2260.27754	0.34239
2258.34897	0.34458
2256.42041	0.34686
2254.49185	0.34921
2252.56328	0.35152
2250.63472	0.35386
2248.70615	0.35625
2246.77759	0.35855
2244.84902	0.36077
2242.92046	0.36300
2240.99189	0.36517
2239.06333	0.36740
2237.13477	0.36976
2235.20620	0.37210
2233.27764	0.37439
2231.34907	0.37668
2229.42051	0.37889
2227.49194	0.38103
2225.56338	0.38328
2223.63481	0.38558
2221.70625	0.38767
2219.77769	0.38968
2217.84912	0.39189
2215.92056	0.39417
2213.99199	0.39643
2212.06343	0.39867
2210.13486	0.40075
2208.20630	0.40271
2206.27773	0.40484
2204.34917	0.40709
2202.42061	0.40926
2200.49204	0.41130
2198.56348	0.41330
2196.63491	0.41536
2194.70635	0.41739
2192.77778	0.41929
2190.84922	0.42120
2188.92065	0.42312
2186.99209	0.42489
2185.06353	0.42657
2183.13496	0.42825
2181.20640	0.42994
2179.27783	0.43168
2177.34927	0.43344
2175.42070	0.43499
2173.49214	0.43639
2171.56357	0.43787
2169.63501	0.43932
2167.70645	0.44059
2165.77788	0.44176
2163.84932	0.44291
2161.92075	0.44397
2159.99219	0.44497
2158.06362	0.44596
2156.13506	0.44705
2154.20649	0.44802
2152.27793	0.44865
2150.34937	0.44917
2148.42080	0.44981
2146.49224	0.45064
2144.56367	0.45139
2142.63511	0.45175
2140.70654	0.45188
2138.77798	0.45206
2136.84941	0.45227
2134.92085	0.45242
2132.99229	0.45241
2131.06372	0.45230
2129.13516	0.45215
2127.20659	0.45190
2125.27803	0.45151
2123.34946	0.45102
2121.42090	0.45049
2119.49233	0.44992
2117.56377	0.44929
2115.63521	0.44862
2113.70664	0.44797
2111.77808	0.44719
2109.84951	0.44609
2107.92095	0.44477
2105.99238	0.44351
2104.06382	0.44239
2102.13525	0.44125
2100.20669	0.43991
2098.27812	0.43838
2096.34956	0.43690
2094.42100	0.43549
2092.49243	0.43393
2090.56387	0.43222
2088.63530	0.43053
2086.70674	0.42878
2084.77817	0.42686
2082.84961	0.42493
2080.92104	0.42289
2078.99248	0.42071
2077.06392	0.41859
2075.13535	0.41652
2073.20679	0.41438
2071.27822	0.41218
2069.34966	0.41002
2067.42109	0.40789
2065.49253	0.40566
2063.56396	0.40316
2061.63540	0.40058
2059.70684	0.39807
2057.77827	0.39556
2055.84971	0.39302
2053.92114	0.39046
2051.99258	0.38781
2050.06401	0.38513
2048.13545	0.38253
2046.20688	0.37994
2044.27832	0.37727
2042.34976	0.37458
2040.42119	0.37192
2038.49263	0.36925
2036.56406	0.36649
2034.63550	0.36369
2032.70693	0.36090
2030.77837	0.35810
2028.84980	0.35529
2026.92124	0.35251
2024.99268	0.34976
2023.06411	0.34705
2021.13555	0.34437
2019.20698	0.34165
2017.27842	0.33884
2015.34985	0.33596
2013.42129	0.33317
2011.49272	0.33053
2009.56416	0.32801
2007.63560	0.32535
2005.70703	0.32256
2003.77847	0.31980
2001.84990	0.31712
1999.92134	0.31442
1997.99277	0.31163
1996.06421	0.30896
1994.13564	0.30660
1992.20708	0.30436
1990.27852	0.30199
1988.34995	0.29945
1986.42139	0.29682
1984.49282	0.29430
1982.56426	0.29203
1980.63569	0.28986
1978.70713	0.28764
1976.77856	0.28540
1974.85000	0.28317
1972.92144	0.28098
1970.99287	0.27883
1969.06431	0.27676
1967.13574	0.27481
1965.20718	0.27287
1963.27861	0.27090
1961.35005	0.26895
1959.42148	0.26696
1957.49292	0.26503
1955.56436	0.26323
1953.63579	0.26152
1951.70723	0.25989
1949.77866	0.25836
1947.85010	0.25684
1945.92153	0.25531
1943.99297	0.25384
1942.06440	0.25237
1940.13584	0.25083
1938.20728	0.24939
1936.27871	0.24812
1934.35015	0.24685
1932.42158	0.24556
1930.49302	0.24431
1928.56445	0.24322
1926.63589	0.24224
1924.70732	0.24124
1922.77876	0.24021
1920.85020	0.23926
1918.92163	0.23841
1916.99307	0.23756
1915.06450	0.23669
1913.13594	0.23581
1911.20737	0.23502
1909.27881	0.23433
1907.35024	0.23369
1905.42168	0.23307
1903.49312	0.23250
1901.56455	0.23198
1899.63599	0.23146
1897.70742	0.23101
1895.77886	0.23065
1893.85029	0.23033
1891.92173	0.22999
1889.99316	0.22981
1888.06460	0.22965
1886.13604	0.22941
1884.20747	0.22918
1882.27891	0.22897
1880.35034	0.22881
1878.42178	0.22869
1876.49321	0.22863
1874.56465	0.22868
1872.63608	0.22892
1870.70752	0.22924
1868.77896	0.22960
1866.85039	0.22970
1864.92183	0.22958
1862.99326	0.22964
1861.06470	0.22994
1859.13613	0.23047
1857.20757	0.23096
1855.27900	0.23134
1853.35044	0.23169
1851.42187	0.23227
1849.49331	0.23304
1847.56475	0.23382
1845.63618	0.23460
1843.70762	0.23552
1841.77905	0.23630
1839.85049	0.23677
1837.92192	0.23746
1835.99336	0.23833
1834.06479	0.23929
1832.13623	0.24032
1830.20767	0.24164
1828.27910	0.24306
1826.35054	0.24419
1824.42197	0.24553
1822.49341	0.24687
1820.56484	0.24808
1818.63628	0.24936
1816.70771	0.25096
1814.77915	0.25266
1812.85059	0.25441
1810.92202	0.25632
1808.99346	0.25830
1807.06489	0.26034
1805.13633	0.26244
1803.20776	0.26471
1801.27920	0.26715
1799.35063	0.26983
1797.42207	0.27236
1795.49351	0.27485
1793.56494	0.27774
1791.63638	0.28134
1789.70781	0.28478
1787.77925	0.28748
1785.85068	0.29065
1783.92212	0.29434
1781.99355	0.29824
1780.06499	0.30236
1778.13643	0.30669
1776.20786	0.31086
1774.27930	0.31526
1772.35073	0.32101
1770.42217	0.32723
1768.49360	0.33264
1766.56504	0.33792
1764.63647	0.34328
1762.70791	0.34903
1760.77935	0.35631
1758.85078	0.36335
1756.92222	0.37043
1754.99365	0.37805
1753.06509	0.38494
1751.13652	0.39312
1749.20796	0.40345
1747.27939	0.41374
1745.35083	0.42295
1743.42227	0.43280
1741.49370	0.44362
1739.56514	0.45615
1737.63657	0.46853
1735.70801	0.47927
1733.77944	0.49544
1731.85088	0.51536
1729.92231	0.53144
1727.99375	0.54739
1726.06519	0.56440
1724.13662	0.58295
1722.20806	0.60305
1720.27949	0.62164
1718.35093	0.64296
1716.42236	0.67397
1714.49380	0.70430
1712.56523	0.72952
1710.63667	0.75387
1708.70811	0.77982
1706.77954	0.80894
1704.85098	0.84313
1702.92241	0.87370
1700.99385	0.90429
1699.06528	0.94894
1697.13672	0.98965
1695.20815	1.03151
1693.27959	1.07266
1691.35103	1.10581
1689.42246	1.14303
1687.49390	1.18146
1685.56533	1.21864
1683.63677	1.27594
1681.70820	1.33564
1679.77964	1.37447
1677.85107	1.41113
1675.92251	1.45300
1673.99395	1.50382
1672.06538	1.54859
1670.13682	1.59226
1668.20825	1.64832
1666.27969	1.69397
1664.35112	1.73193
1662.42256	1.77805
1660.49399	1.82925
1658.56543	1.86912
1656.63687	1.90143
1654.70830	1.93195
1652.77974	1.98189
1650.85117	2.03230
1648.92261	2.05362
1646.99404	2.08075
1645.06548	2.11310
1643.13691	2.13490
1641.20835	2.14841
1639.27979	2.16018
1637.35122	2.16669
1635.42266	2.16669
1633.49409	2.16263
1631.56553	2.15331
1629.63696	2.13975
1627.70840	2.11668
1625.77983	2.08963
1623.85127	2.05430
1621.92271	2.00998
1619.99414	1.96991
1618.06558	1.92961
1616.13701	1.87262
1614.20845	1.81465
1612.27988	1.76901
1610.35132	1.72042
1608.42275	1.66818
1606.49419	1.61772
1604.56562	1.57099
1602.63706	1.52434
1600.70850	1.47785
1598.77993	1.43523
1596.85137	1.39526
1594.92280	1.35642
1592.99424	1.31868
1591.06567	1.28341
1589.13711	1.24981
1587.20854	1.21815
1585.27998	1.18850
1583.35142	1.16038
1581.42285	1.13419
1579.49429	1.11120
1577.56572	1.08990
1575.63716	1.06396
1573.70859	1.04102
1571.78003	1.02550
1569.85146	1.00853
1567.92290	0.98918
1565.99434	0.97384
1564.06577	0.96091
1562.13721	0.95002
1560.20864	0.94056
1558.28008	0.92427
1556.35151	0.90898
1554.42295	0.89985
1552.49438	0.89114
1550.56582	0.88233
1548.63726	0.87310
1546.70869	0.86445
1544.78013	0.85595
1542.85156	0.84684
1540.92300	0.83609
1538.99443	0.82160
1537.06587	0.81082
1535.13730	0.80344
1533.20874	0.79479
1531.28018	0.78587
1529.35161	0.77896
1527.42305	0.77207
1525.49448	0.76473
1523.56592	0.75827
1521.63735	0.75190
1519.70879	0.74507
1517.78022	0.73908
1515.85166	0.73277
1513.92310	0.72643
1511.99453	0.72092
1510.06597	0.71599
1508.13740	0.71163
1506.20884	0.70579
1504.28027	0.70001
1502.35171	0.69610
1500.42314	0.69270
1498.49458	0.68933
1496.56602	0.68553
1494.63745	0.68159
1492.70889	0.67843
1490.78032	0.67584
1488.85176	0.67289
1486.92319	0.66982
1484.99463	0.66720
1483.06606	0.66500
1481.13750	0.66291
1479.20894	0.66087
1477.28037	0.65907
1475.35181	0.65740
1473.42324	0.65551
1471.49468	0.65276
1469.56611	0.64994
1467.63755	0.64761
1465.70898	0.64540
1463.78042	0.64311
1461.85186	0.64120
1459.92329	0.63989
1457.99473	0.63840
1456.06616	0.63567
1454.13760	0.63285
1452.20903	0.63063
1450.28047	0.62850
1448.35190	0.62642
1446.42334	0.62431
1444.49478	0.62222
1442.56621	0.62027
1440.63765	0.61855
1438.70908	0.61701
1436.78052	0.61526
1434.85195	0.61325
1432.92339	0.61147
1430.99482	0.60994
1429.06626	0.60838
1427.13770	0.60685
1425.20913	0.60549
1423.28057	0.60425
1421.35200	0.60302
1419.42344	0.60159
1417.49487	0.60003
1415.56631	0.59844
1413.63774	0.59689
1411.70918	0.59558
1409.78062	0.59442
1407.85205	0.59326
1405.92349	0.59225
1403.99492	0.59132
1402.06636	0.59009
1400.13779	0.58879
1398.20923	0.58764
1396.28066	0.58633
1394.35210	0.58450
1392.42354	0.58251
1390.49497	0.58092
1388.56641	0.57957
1386.63784	0.57803
1384.70928	0.57630
1382.78071	0.57477
1380.85215	0.57347
1378.92358	0.57224
1376.99502	0.57114
1375.06646	0.57036
1373.13789	0.56961
1371.20933	0.56864
1369.28076	0.56764
1367.35220	0.56678
1365.42363	0.56592
1363.49507	0.56493
1361.56650	0.56399
1359.63794	0.56312
1357.70937	0.56214
1355.78081	0.56104
1353.85225	0.55991
1351.92368	0.55874
1349.99512	0.55764
1348.06655	0.55660
1346.13799	0.55557
1344.20942	0.55454
1342.28086	0.55355
1340.35229	0.55262
1338.42373	0.55161
1336.49517	0.55052
1334.56660	0.54965
1332.63804	0.54906
1330.70947	0.54853
1328.78091	0.54793
1326.85234	0.54724
1324.92378	0.54651
1322.99521	0.54581
1321.06665	0.54518
1319.13809	0.54465
1317.20952	0.54406
1315.28096	0.54331
1313.35239	0.54245
1311.42383	0.54149
1309.49526	0.54056
1307.56670	0.53978
1305.63813	0.53912
1303.70957	0.53845
1301.78101	0.53766
1299.85244	0.53677
1297.92388	0.53589
1295.99531	0.53509
1294.06675	0.53444
1292.13818	0.53392
1290.20962	0.53336
1288.28105	0.53280
1286.35249	0.53228
1284.42393	0.53170
1282.49536	0.53099
1280.56680	0.53025
1278.63823	0.52962
1276.70967	0.52919
1274.78110	0.52884
1272.85254	0.52834
1270.92397	0.52768
1268.99541	0.52706
1267.06685	0.52661
1265.13828	0.52630
1263.20972	0.52592
1261.28115	0.52545
1259.35259	0.52506
1257.42402	0.52471
1255.49546	0.52445
1253.56689	0.52419
1251.63833	0.52383
1249.70977	0.52355
1247.78120	0.52340
1245.85264	0.52321
1243.92407	0.52275
1241.99551	0.52205
1240.06694	0.52137
1238.13838	0.52084
1236.20981	0.52021
1234.28125	0.51939
1232.35269	0.51856
1230.42412	0.51781
1228.49556	0.51705
1226.56699	0.51623
1224.63843	0.51538
1222.70986	0.51451
1220.78130	0.51377
1218.85273	0.51310
1216.92417	0.51231
1214.99561	0.51147
1213.06704	0.51080
1211.13848	0.51025
1209.20991	0.50967
1207.28135	0.50902
1205.35278	0.50848
1203.42422	0.50797
1201.49565	0.50740
1199.56709	0.50693
1197.63853	0.50648
1195.70996	0.50579
1193.78140	0.50511
1191.85283	0.50460
1189.92427	0.50411
1187.99570	0.50374
1186.06714	0.50355
1184.13857	0.50346
1182.21001	0.50350
1180.28145	0.50374
1178.35288	0.50418
1176.42432	0.50468
1174.49575	0.50528
1172.56719	0.50605
1170.63862	0.50678
1168.71006	0.50747
1166.78149	0.50823
1164.85293	0.50898
1162.92437	0.50966
1160.99580	0.51025
1159.06724	0.51063
1157.13867	0.51057
1155.21011	0.51003
1153.28154	0.50916
1151.35298	0.50800
1149.42441	0.50639
1147.49585	0.50418
1145.56729	0.50153
1143.63872	0.49890
1141.71016	0.49634
1139.78159	0.49389
1137.85303	0.49190
1135.92446	0.49033
1133.99590	0.48869
1132.06733	0.48715
1130.13877	0.48613
1128.21021	0.48534
1126.28164	0.48450
1124.35308	0.48366
1122.42451	0.48281
1120.49595	0.48226
1118.56738	0.48231
1116.63882	0.48260
1114.71025	0.48294
1112.78169	0.48358
1110.85312	0.48440
1108.92456	0.48538
1106.99600	0.48662
1105.06743	0.48792
1103.13887	0.48902
1101.21030	0.48999
1099.28174	0.49128
1097.35317	0.49327
1095.42461	0.49599
1093.49604	0.49952
1091.56748	0.50414
1089.63892	0.51011
1087.71035	0.51740
1085.78179	0.52565
1083.85322	0.53415
1081.92466	0.54187
1079.99609	0.54762
1078.06753	0.55087
1076.13896	0.55152
1074.21040	0.54920
1072.28184	0.54411
1070.35327	0.53733
1068.42471	0.53012
1066.49614	0.52322
1064.56758	0.51698
1062.63901	0.51168
1060.71045	0.50725
1058.78188	0.50312
1056.85332	0.49908
1054.92476	0.49556
1052.99619	0.49277
1051.06763	0.49054
1049.13906	0.48886
1047.21050	0.48769
1045.28193	0.48716
1043.35337	0.48732
1041.42480	0.48780
1039.49624	0.48821
1037.56768	0.48854
1035.63911	0.48875
1033.71055	0.48861
1031.78198	0.48798
1029.85342	0.48696
1027.92485	0.48587
1025.99629	0.48496
1024.06772	0.48431
1022.13916	0.48386
1020.21060	0.48354
1018.28203	0.48353
1016.35347	0.48383
1014.42490	0.48418
1012.49634	0.48437
1010.56777	0.48439
1008.63921	0.48464
1006.71064	0.48553
1004.78208	0.48681
1002.85352	0.48827
1000.92495	0.49037
998.99639	0.49365
997.06782	0.49787
995.13926	0.50225
993.21069	0.50617
991.28213	0.50919
989.35356	0.51104
987.42500	0.51193
985.49644	0.51237
983.56787	0.51269
981.63931	0.51320
979.71074	0.51422
977.78218	0.51590
975.85361	0.51817
973.92505	0.52085
971.99648	0.52399
970.06792	0.52748
968.13936	0.53100
966.21079	0.53476
964.28223	0.53910
962.35366	0.54392
960.42510	0.54899
958.49653	0.55450
956.56797	0.56046
954.63940	0.56651
952.71084	0.57254
950.78228	0.57861
948.85371	0.58494
946.92515	0.59164
944.99658	0.59819
943.06802	0.60414
941.13945	0.60972
939.21089	0.61509
937.28232	0.62040
935.35376	0.62612
933.42520	0.63203
931.49663	0.63780
929.56807	0.64357
927.63950	0.64926
925.71094	0.65517
923.78237	0.66173
921.85381	0.66878
919.92524	0.67596
917.99668	0.68322
916.06812	0.69026
914.13955	0.69666
912.21099	0.70305
910.28242	0.71079
908.35386	0.71966
906.42529	0.72846
904.49673	0.73718
902.56816	0.74594
900.63960	0.75496
898.71104	0.76538
896.78247	0.77662
894.85391	0.78638
892.92534	0.79495
890.99678	0.80421
889.06821	0.81506
887.13965	0.82691
885.21108	0.83832
883.28252	0.84961
881.35396	0.86171
879.42539	0.87403
877.49683	0.88571
875.56826	0.89637
873.63970	0.90605
871.71113	0.91645
869.78257	0.92762
867.85400	0.93775
865.92544	0.94887
863.99687	0.96258
862.06831	0.97671
860.13975	0.99002
858.21118	1.00241
856.28262	1.01360
854.35405	1.02433
852.42549	1.03541
850.49692	1.04714
848.56836	1.05882
846.63979	1.06867
844.71123	1.07702
842.78267	1.08629
840.85410	1.09851
838.92554	1.11139
836.99697	1.12125
835.06841	1.12913
833.13984	1.13747
831.21128	1.14767
829.28271	1.15854
827.35415	1.16732
825.42559	1.17598
823.49702	1.18909
821.56846	1.20172
819.63989	1.21014
817.71133	1.22137
815.78276	1.23980
813.85420	1.26512
811.92563	1.28095
809.99707	1.26512
808.06851	1.23776
806.13994	1.23275
804.21138	1.25085
802.28281	1.27736
800.35425	1.29798
798.42568	1.30510
796.49712	1.31018
794.56855	1.32257
792.63999	1.33817
790.71143	1.34062
788.78286	1.34159
786.85430	1.37823
784.92573	1.41162
782.99717	1.36674
781.06860	1.30341
779.14004	1.27622
777.21147	1.27365
775.28291	1.28783
773.35435	1.33137
771.42578	1.40271
769.49722	1.41699
767.56865	1.34195
765.64009	1.29935
763.71152	1.33028
761.78296	1.34208
759.85439	1.26336
757.92583	1.18712
755.99727	1.16218
754.06870	1.14862
752.14014	1.09723
750.21157	1.03466
748.28301	0.98380
746.35444	0.97856
744.42588	1.06094
742.49731	1.09858
740.56875	0.94065
738.64019	0.80768
736.71162	0.78382
734.78306	0.77144
732.85449	0.66426
730.92593	0.58133
728.99736	0.54902
727.06880	0.47654
725.14023	0.37825
723.21167	0.32278
721.28311	0.29746
719.35454	0.26026
717.42598	0.18734
715.49741	0.11149
713.56885	0.10234
711.64028	0.14125
709.71172	0.16467
707.78315	0.15483
705.85459	0.09312
703.92603	0.05914
701.99746	0.11120
700.06890	0.17498
698.14033	0.27558
696.21177	0.37307
694.28320	0.38851
692.35464	0.34946
690.42607	0.29186
688.49751	0.24702
686.56895	0.23237
684.64038	0.17739
682.71182	0.10216
680.78325	0.09715
678.85469	0.15776
676.92612	0.17896
674.99756	0.17015
673.06899	0.19535
671.14043	0.27444
669.21187	0.33465
667.28330	0.25290
665.35474	0.15772
663.42617	0.17555
661.49761	0.24309
659.56904	0.21785
657.64048	0.16205
655.71191	0.17256
653.78335	0.22611
651.85479	0.29567
649.92622	0.31798
647.99766	0.28326
646.06909	0.29812
644.14053	0.35152
642.21196	0.38155
640.28340	0.43246
638.35483	0.45813
636.42627	0.36561
634.49771	0.33089
632.56914	0.39070
630.64058	0.38800
628.71201	0.34456
626.78345	0.36369
624.85488	0.31003
622.92632	0.20940
620.99775	0.18583
619.06919	0.20519
617.14062	0.25555
615.21206	0.35685
613.28350	0.44254
611.35493	0.41048
609.42637	0.37495
607.49780	0.37538
605.56924	0.37432
603.64067	0.37506
601.71211	0.30351
599.78354	0.19733
597.85498	0.15898
595.92642	0.17726
593.99785	0.16364
592.06929	0.10695
590.14072	0.11238
588.21216	0.17617
586.28359	0.28716
584.35503	0.47480
582.42646	0.38224
580.49790	0.18756
578.56934	0.15008
576.64077	0.23980
574.71221	0.37697
572.78364	0.39232
570.85508	0.30807
568.92651	0.25351
566.99795	0.19563
565.06938	0.14907
563.14082	0.18836
561.21226	0.35714
559.28369	0.70780
557.35513	0.73701
555.42656	0.42067
553.49800	0.34161
551.56943	0.33177
549.64087	0.24657
547.71230	0.15744
545.78374	0.12770
543.85518	0.14777
541.92661	0.19682
539.99805	0.22391
538.06948	0.23030
536.14092	0.23094
534.21235	0.23993
532.28379	0.24884
530.35522	0.24605
528.42666	0.24239
526.49810	0.24083
524.56953	0.26146
522.64097	0.32856
520.71240	0.40672
518.78384	0.36338
516.85527	0.23478
514.92671	0.18269
512.99814	0.19384
511.06958	0.18720
509.14102	0.17741
507.21245	0.19396
505.28389	0.17080
503.35532	0.13448
501.42676	0.12271
499.49819	0.10880
