3997.91411	0.05548
3995.98555	0.05548
3994.05698	0.05608
3992.12842	0.05658
3990.19985	0.05678
3988.27129	0.05694
3986.34272	0.05726
3984.41416	0.05784
3982.48560	0.05857
3980.55703	0.05895
3978.62847	0.05881
3976.69990	0.05901
3974.77134	0.05986
3972.84277	0.06045
3970.91421	0.06026
3968.98564	0.05964
3967.05708	0.05932
3965.12852	0.05948
3963.19995	0.05955
3961.27139	0.05947
3959.34282	0.05967
3957.41426	0.05991
3955.48569	0.05986
3953.55713	0.06009
3951.62856	0.06105
3949.70000	0.06203
3947.77144	0.06227
3945.84287	0.06198
3943.91431	0.06188
3941.98574	0.06195
3940.05718	0.06148
3938.12861	0.06063
3936.20005	0.06019
3934.27148	0.06047
3932.34292	0.06134
3930.41436	0.06206
3928.48579	0.06199
3926.55723	0.06185
3924.62866	0.06223
3922.70010	0.06231
3920.77153	0.06195
3918.84297	0.06192
3916.91440	0.06191
3914.98584	0.06133
3913.05728	0.06058
3911.12871	0.06010
3909.20015	0.06006
3907.27158	0.06071
3905.34302	0.06206
3903.41445	0.06344
3901.48589	0.06398
3899.55732	0.06366
3897.62876	0.06247
3895.70020	0.06104
3893.77163	0.06075
3891.84307	0.06169
3889.91450	0.06217
3887.98594	0.06166
3886.05737	0.06185
3884.12881	0.06252
3882.20024	0.06252
3880.27168	0.06254
3878.34312	0.06243
3876.41455	0.06211
3874.48599	0.06277
3872.55742	0.06425
3870.62886	0.06535
3868.70029	0.06557
3866.77173	0.06488
3864.84316	0.06452
3862.91460	0.06490
3860.98604	0.06498
3859.05747	0.06496
3857.12891	0.06563
3855.20034	0.06713
3853.27178	0.06940
3851.34321	0.07032
3849.41465	0.06871
3847.48608	0.06723
3845.55752	0.06705
3843.62896	0.06828
3841.70039	0.07025
3839.77183	0.07219
3837.84326	0.07384
3835.91470	0.07426
3833.98613	0.07363
3832.05757	0.07357
3830.12900	0.07409
3828.20044	0.07440
3826.27187	0.07478
3824.34331	0.07563
3822.41475	0.07734
3820.48618	0.07994
3818.55762	0.08104
3816.62905	0.08072
3814.70049	0.08086
3812.77192	0.08080
3810.84336	0.08062
3808.91479	0.08121
3806.98623	0.08290
3805.05767	0.08494
3803.12910	0.08673
3801.20054	0.08901
3799.27197	0.09066
3797.34341	0.09092
3795.41484	0.09078
3793.48628	0.09001
3791.55771	0.08977
3789.62915	0.09110
3787.70059	0.09315
3785.77202	0.09520
3783.84346	0.09714
3781.91489	0.09881
3779.98633	0.10047
3778.05776	0.10220
3776.12920	0.10322
3774.20063	0.10409
3772.27207	0.10584
3770.34351	0.10851
3768.41494	0.11116
3766.48638	0.11309
3764.55781	0.11510
3762.62925	0.11699
3760.70068	0.11873
3758.77212	0.12105
3756.84355	0.12346
3754.91499	0.12562
3752.98643	0.12863
3751.05786	0.13336
3749.12930	0.13802
3747.20073	0.14022
3745.27217	0.14221
3743.34360	0.14567
3741.41504	0.14880
3739.48647	0.15132
3737.55791	0.15482
3735.62935	0.16054
3733.70078	0.16754
3731.77222	0.17261
3729.84365	0.17587
3727.91509	0.17908
3725.98652	0.18386
3724.05796	0.19004
3722.12939	0.19651
3720.20083	0.20314
3718.27227	0.20955
3716.34370	0.21599
3714.41514	0.22318
3712.48657	0.23291
3710.55801	0.24708
3708.62944	0.26165
3706.70088	0.27264
3704.77231	0.28278
3702.84375	0.29513
3700.91519	0.31144
3698.98662	0.32933
3697.05806	0.34642
3695.12949	0.36447
3693.20093	0.38405
3691.27236	0.40592
3689.34380	0.43345
3687.41523	0.46616
3685.48667	0.49524
3683.55811	0.52091
3681.62954	0.54894
3679.70098	0.58084
3677.77241	0.61485
3675.84385	0.65502
3673.91528	0.70621
3671.98672	0.74720
3670.05815	0.78453
3668.12959	0.83577
3666.20103	0.88270
3664.27246	0.92238
3662.34390	0.96538
3660.41533	1.01178
3658.48677	1.05758
3656.55820	1.10629
3654.62964	1.16009
3652.70107	1.20602
3650.77251	1.24727
3648.84395	1.30293
3646.91538	1.36798
3644.98682	1.41609
3643.05825	1.45449
3641.12969	1.49405
3639.20112	1.53766
3637.27256	1.58203
3635.34399	1.62484
3633.41543	1.66678
3631.48687	1.70668
3629.55830	1.74830
3627.62974	1.80144
3625.70117	1.85053
3623.77261	1.88441
3621.84404	1.91655
3619.91548	1.95377
3617.98691	1.99925
3616.05835	2.04218
3614.12979	2.07697
3612.20122	2.11372
3610.27266	2.15302
3608.34409	2.19429
3606.41553	2.23696
3604.48696	2.27526
3602.55840	2.30913
3600.62983	2.34622
3598.70127	2.38775
3596.77271	2.42850
3594.84414	2.46892
3592.91558	2.50978
3590.98701	2.54706
3589.05845	2.58202
3587.12988	2.62527
3585.20132	2.67339
3583.27275	2.71420
3581.34419	2.75157
3579.41562	2.79217
3577.48706	2.83636
3575.55850	2.88031
3573.62993	2.92244
3571.70137	2.96257
3569.77280	3.00210
3567.84424	3.04411
3565.91567	3.09539
3563.98711	3.14720
3562.05854	3.18873
3560.12998	3.22759
3558.20142	3.27048
3556.27285	3.31606
3554.34429	3.35977
3552.41572	3.40558
3550.48716	3.45496
3548.55859	3.50163
3546.63003	3.54602
3544.70146	3.59360
3542.77290	3.64140
3540.84434	3.68622
3538.91577	3.73128
3536.98721	3.77623
3535.05864	3.82144
3533.13008	3.86970
3531.20151	3.91964
3529.27295	3.96711
3527.34438	4.01596
3525.41582	4.06639
3523.48726	4.11288
3521.55869	4.15854
3519.63013	4.20494
3517.70156	4.25043
3515.77300	4.29758
3513.84443	4.34878
3511.91587	4.39829
3509.98730	4.44355
3508.05874	4.48717
3506.13018	4.53124
3504.20161	4.57970
3502.27305	4.63200
3500.34448	4.68105
3498.41592	4.72606
3496.48735	4.77564
3494.55879	4.82741
3492.63022	4.87338
3490.70166	4.91774
3488.77310	4.96366
3486.84453	5.00874
3484.91597	5.05449
3482.98740	5.09859
3481.05884	5.13945
3479.13027	5.18672
3477.20171	5.24099
3475.27314	5.29281
3473.34458	5.34554
3471.41602	5.40070
3469.48745	5.45088
3467.55889	5.49849
3465.63032	5.54162
3463.70176	5.58097
3461.77319	5.62682
3459.84463	5.67789
3457.91606	5.73369
3455.98750	5.79430
3454.05894	5.84664
3452.13037	5.88335
3450.20181	5.91250
3448.27324	5.95424
3446.34468	6.01629
3444.41611	6.06963
3442.48755	6.09896
3440.55898	6.12724
3438.63042	6.17386
3436.70186	6.22838
3434.77329	6.28368
3432.84473	6.34131
3430.91616	6.38794
3428.98760	6.43324
3427.05903	6.49086
3425.13047	6.54331
3423.20190	6.58295
3421.27334	6.63129
3419.34478	6.68158
3417.41621	6.72631
3415.48765	6.77879
3413.55908	6.82890
3411.63052	6.88177
3409.70195	6.94686
3407.77339	6.99629
3405.84482	7.00624
3403.91626	7.01223
3401.98770	7.03376
3400.05913	7.07908
3398.13057	7.14620
3396.20200	7.19358
3394.27344	7.21432
3392.34487	7.21663
3390.41631	7.23597
3388.48774	7.30133
3386.55918	7.38745
3384.63062	7.43610
3382.70205	7.43120
3380.77349	7.42035
3378.84492	7.44093
3376.91636	7.48630
3374.98779	7.53081
3373.05923	7.60258
3371.13066	7.68046
3369.20210	7.71462
3367.27354	7.70103
3365.34497	7.65930
3363.41641	7.64732
3361.48784	7.68852
3359.55928	7.72341
3357.63071	7.68994
3355.70215	7.67336
3353.77358	7.73643
3351.84502	7.77407
3349.91646	7.74865
3347.98789	7.78610
3346.05933	7.86708
3344.13076	7.89192
3342.20220	7.92067
3340.27363	7.96548
3338.34507	7.94683
3336.41650	7.86835
3334.48794	7.81232
3332.55937	7.82356
3330.63081	7.91092
3328.70225	8.00677
3326.77368	8.02675
3324.84512	8.00575
3322.91655	8.00478
3320.98799	8.01969
3319.05942	8.00772
3317.13086	8.00390
3315.20229	8.04553
3313.27373	8.10788
3311.34517	8.09819
3309.41660	8.00664
3307.48804	7.94370
3305.55947	7.96763
3303.63091	8.08241
3301.70234	8.15276
3299.77378	8.10539
3297.84521	8.02755
3295.91665	7.95270
3293.98809	7.93203
3292.05952	7.99192
3290.13096	8.04770
3288.20239	8.05776
3286.27383	8.08784
3284.34526	8.10905
3282.41670	8.06748
3280.48813	8.01781
3278.55957	7.99780
3276.63101	8.03232
3274.70244	8.14211
3272.77388	8.21757
3270.84531	8.19010
3268.91675	8.14744
3266.98818	8.11344
3265.05962	8.04612
3263.13105	7.94778
3261.20249	7.89649
3259.27393	7.94762
3257.34536	8.08536
3255.41680	8.14153
3253.48823	8.03924
3251.55967	7.99494
3249.63110	8.04596
3247.70254	8.05306
3245.77397	8.02173
3243.84541	8.02559
3241.91685	8.04266
3239.98828	8.02097
3238.05972	7.96725
3236.13115	7.94086
3234.20259	7.96553
3232.27402	7.99961
3230.34546	7.99356
3228.41689	7.96441
3226.48833	7.95828
3224.55977	7.94021
3222.63120	7.89757
3220.70264	7.87613
3218.77407	7.86932
3216.84551	7.85218
3214.91694	7.82233
3212.98838	7.78656
3211.05981	7.75574
3209.13125	7.73271
3207.20269	7.76073
3205.27412	7.86645
3203.34556	7.95052
3201.41699	7.93021
3199.48843	7.81231
3197.55986	7.65716
3195.63130	7.59348
3193.70273	7.63981
3191.77417	7.62967
3189.84561	7.49927
3187.91704	7.40337
3185.98848	7.40443
3184.05991	7.43012
3182.13135	7.40883
3180.20278	7.33017
3178.27422	7.24365
3176.34565	7.18136
3174.41709	7.13163
3172.48853	7.07907
3170.55996	7.00464
3168.63140	6.92214
3166.70283	6.86388
3164.77427	6.81621
3162.84570	6.75630
3160.91714	6.69468
3158.98857	6.64432
3157.06001	6.59191
3155.13145	6.52293
3153.20288	6.44612
3151.27432	6.38028
3149.34575	6.31943
3147.41719	6.24728
3145.48862	6.17534
3143.56006	6.11615
3141.63149	6.06306
3139.70293	6.00425
3137.77437	5.93480
3135.84580	5.85091
3133.91724	5.76714
3131.98867	5.70158
3130.06011	5.63353
3128.13154	5.55057
3126.20298	5.46937
3124.27441	5.39716
3122.34585	5.33287
3120.41729	5.27117
3118.48872	5.20237
3116.56016	5.12575
3114.63159	5.04808
3112.70303	4.97650
3110.77446	4.91067
3108.84590	4.84070
3106.91733	4.76723
3104.98877	4.69997
3103.06021	4.63679
3101.13164	4.57152
3099.20308	4.50639
3097.27451	4.44277
3095.34595	4.37869
3093.41738	4.31360
3091.48882	4.24754
3089.56025	4.18171
3087.63169	4.11593
3085.70312	4.05013
3083.77456	3.98718
3081.84600	3.92706
3079.91743	3.86733
3077.98887	3.80747
3076.06030	3.74658
3074.13174	3.68547
3072.20317	3.62588
3070.27461	3.56641
3068.34604	3.50703
3066.41748	3.44998
3064.48892	3.39534
3062.56035	3.34178
3060.63179	3.28888
3058.70322	3.23558
3056.77466	3.18071
3054.84609	3.12564
3052.91753	3.07209
3050.98896	3.02030
3049.06040	2.96915
3047.13184	2.91831
3045.20327	2.86913
3043.27471	2.82071
3041.34614	2.77133
3039.41758	2.72295
3037.48901	2.67725
3035.56045	2.63220
3033.63188	2.58606
3031.70332	2.53961
3029.77476	2.49373
3027.84619	2.44937
3025.91763	2.40737
3023.98906	2.36619
3022.06050	2.32424
3020.13193	2.28219
3018.20337	2.24120
3016.27480	2.20158
3014.34624	2.16298
3012.41768	2.12470
3010.48911	2.08619
3008.56055	2.04794
3006.63198	2.01128
3004.70342	1.97639
3002.77485	1.94162
3000.84629	1.90635
2998.91772	1.87188
2996.98916	1.83893
2995.06060	1.80660
2993.13203	1.77426
2991.20347	1.74258
2989.27490	1.71194
2987.34634	1.68188
2985.41777	1.65243
2983.48921	1.62368
2981.56064	1.59533
2979.63208	1.56726
2977.70352	1.53958
2975.77495	1.51236
2973.84639	1.48550
2971.91782	1.45894
2969.98926	1.43306
2968.06069	1.40806
2966.13213	1.38362
2964.20356	1.35913
2962.27500	1.33424
2960.34644	1.30976
2958.41787	1.28633
2956.48931	1.26332
2954.56074	1.24028
2952.63218	1.21706
2950.70361	1.19362
2948.77505	1.17086
2946.84648	1.14946
2944.91792	1.12866
2942.98936	1.10759
2941.06079	1.08660
2939.13223	1.06625
2937.20366	1.04633
2935.27510	1.02671
2933.34653	1.00756
2931.41797	0.98864
2929.48940	0.96963
2927.56084	0.95077
2925.63228	0.93239
2923.70371	0.91469
2921.77515	0.89765
2919.84658	0.88105
2917.91802	0.86473
2915.98945	0.84854
2914.06089	0.83245
2912.13232	0.81690
2910.20376	0.80234
2908.27520	0.78857
2906.34663	0.77497
2904.41807	0.76121
2902.48950	0.74731
2900.56094	0.73365
2898.63237	0.72068
2896.70381	0.70817
2894.77524	0.69576
2892.84668	0.68371
2890.91812	0.67207
2888.98955	0.66062
2887.06099	0.64948
2885.13242	0.63881
2883.20386	0.62826
2881.27529	0.61753
2879.34673	0.60705
2877.41816	0.59714
2875.48960	0.58751
2873.56104	0.57776
2871.63247	0.56747
2869.70391	0.55691
2867.77534	0.54671
2865.84678	0.53676
2863.91821	0.52651
2861.98965	0.51605
2860.06108	0.50619
2858.13252	0.49714
2856.20396	0.48837
2854.27539	0.47972
2852.34683	0.47134
2850.41826	0.46329
2848.48970	0.45566
2846.56113	0.44826
2844.63257	0.44100
2842.70400	0.43426
2840.77544	0.42809
2838.84687	0.42205
2836.91831	0.41600
2834.98975	0.41008
2833.06118	0.40422
2831.13262	0.39846
2829.20405	0.39289
2827.27549	0.38726
2825.34692	0.38149
2823.41836	0.37579
2821.48979	0.37014
2819.56123	0.36446
2817.63267	0.35886
2815.70410	0.35357
2813.77554	0.34848
2811.84697	0.34338
2809.91841	0.33829
2807.98984	0.33325
2806.06128	0.32817
2804.13271	0.32306
2802.20415	0.31812
2800.27559	0.31346
2798.34702	0.30896
2796.41846	0.30444
2794.48989	0.29994
2792.56133	0.29557
2790.63276	0.29145
2788.70420	0.28753
2786.77563	0.28356
2784.84707	0.27953
2782.91851	0.27557
2780.98994	0.27164
2779.06138	0.26770
2777.13281	0.26398
2775.20425	0.26062
2773.27568	0.25738
2771.34712	0.25394
2769.41855	0.25027
2767.48999	0.24669
2765.56143	0.24329
2763.63286	0.23997
2761.70430	0.23682
2759.77573	0.23392
2757.84717	0.23120
2755.91860	0.22853
2753.99004	0.22576
2752.06147	0.22286
2750.13291	0.21996
2748.20435	0.21728
2746.27578	0.21479
2744.34722	0.21235
2742.41865	0.20993
2740.49009	0.20753
2738.56152	0.20514
2736.63296	0.20277
2734.70439	0.20042
2732.77583	0.19807
2730.84727	0.19574
2728.91870	0.19349
2726.99014	0.19137
2725.06157	0.18936
2723.13301	0.18747
2721.20444	0.18576
2719.27588	0.18405
2717.34731	0.18219
2715.41875	0.18033
2713.49019	0.17860
2711.56162	0.17695
2709.63306	0.17542
2707.70449	0.17382
2705.77593	0.17207
2703.84736	0.17054
2701.91880	0.16921
2699.99023	0.16788
2698.06167	0.16656
2696.13311	0.16525
2694.20454	0.16391
2692.27598	0.16257
2690.34741	0.16123
2688.41885	0.15992
2686.49028	0.15876
2684.56172	0.15780
2682.63315	0.15696
2680.70459	0.15611
2678.77603	0.15515
2676.84746	0.15407
2674.91890	0.15298
2672.99033	0.15195
2671.06177	0.15100
2669.13320	0.15018
2667.20464	0.14947
2665.27607	0.14869
2663.34751	0.14779
2661.41895	0.14693
2659.49038	0.14616
2657.56182	0.14553
2655.63325	0.14498
2653.70469	0.14438
2651.77612	0.14380
2649.84756	0.14322
2647.91899	0.14262
2645.99043	0.14213
2644.06187	0.14178
2642.13330	0.14144
2640.20474	0.14104
2638.27617	0.14063
2636.34761	0.14030
2634.41904	0.13998
2632.49048	0.13966
2630.56191	0.13937
2628.63335	0.13897
2626.70479	0.13854
2624.77622	0.13833
2622.84766	0.13825
2620.91909	0.13802
2618.99053	0.13769
2617.06196	0.13749
2615.13340	0.13746
2613.20483	0.13746
2611.27627	0.13738
2609.34771	0.13739
2607.41914	0.13747
2605.49058	0.13737
2603.56201	0.13718
2601.63345	0.13716
2599.70488	0.13725
2597.77632	0.13738
2595.84775	0.13758
2593.91919	0.13778
2591.99062	0.13794
2590.06206	0.13809
2588.13350	0.13819
2586.20493	0.13839
2584.27637	0.13874
2582.34780	0.13918
2580.41924	0.13966
2578.49067	0.13993
2576.56211	0.13999
2574.63354	0.14021
2572.70498	0.14072
2570.77642	0.14130
2568.84785	0.14184
2566.91929	0.14230
2564.99072	0.14268
2563.06216	0.14307
2561.13359	0.14356
2559.20503	0.14408
2557.27646	0.14449
2555.34790	0.14487
2553.41934	0.14545
2551.49077	0.14615
2549.56221	0.14673
2547.63364	0.14727
2545.70508	0.14787
2543.77651	0.14851
2541.84795	0.14909
2539.91938	0.14966
2537.99082	0.15036
2536.06226	0.15125
2534.13369	0.15218
2532.20513	0.15292
2530.27656	0.15345
2528.34800	0.15408
2526.41943	0.15485
2524.49087	0.15556
2522.56230	0.15620
2520.63374	0.15696
2518.70518	0.15794
2516.77661	0.15895
2514.84805	0.15978
2512.91948	0.16057
2510.99092	0.16135
2509.06235	0.16202
2507.13379	0.16267
2505.20522	0.16342
2503.27666	0.16421
2501.34810	0.16505
2499.41953	0.16602
2497.49097	0.16702
2495.56240	0.16799
2493.63384	0.16898
2491.70527	0.16982
2489.77671	0.17057
2487.84814	0.17139
2485.91958	0.17232
2483.99102	0.17328
2482.06245	0.17423
2480.13389	0.17516
2478.20532	0.17602
2476.27676	0.17679
2474.34819	0.17755
2472.41963	0.17845
2470.49106	0.17951
2468.56250	0.18059
2466.63394	0.18156
2464.70537	0.18247
2462.77681	0.18337
2460.84824	0.18428
2458.91968	0.18528
2456.99111	0.18636
2455.06255	0.18744
2453.13398	0.18848
2451.20542	0.18940
2449.27686	0.19023
2447.34829	0.19113
2445.41973	0.19213
2443.49116	0.19327
2441.56260	0.19444
2439.63403	0.19553
2437.70547	0.19662
2435.77690	0.19788
2433.84834	0.19915
2431.91978	0.20022
2429.99121	0.20114
2428.06265	0.20204
2426.13408	0.20293
2424.20552	0.20387
2422.27695	0.20500
2420.34839	0.20624
2418.41982	0.20744
2416.49126	0.20866
2414.56270	0.20992
2412.63413	0.21112
2410.70557	0.21217
2408.77700	0.21324
2406.84844	0.21449
2404.91987	0.21582
2402.99131	0.21701
2401.06274	0.21816
2399.13418	0.21938
2397.20562	0.22061
2395.27705	0.22182
2393.34849	0.22306
2391.41992	0.22435
2389.49136	0.22563
2387.56279	0.22718
2385.63423	0.22916
2383.70566	0.23153
2381.77710	0.23443
2379.84854	0.23797
2377.91997	0.24200
2375.99141	0.24655
2374.06284	0.25159
2372.13428	0.25682
2370.20571	0.26241
2368.27715	0.26875
2366.34858	0.27511
2364.42002	0.28039
2362.49146	0.28414
2360.56289	0.28634
2358.63433	0.28759
2356.70576	0.28782
2354.77720	0.28599
2352.84863	0.28261
2350.92007	0.27887
2348.99150	0.27654
2347.06294	0.27709
2345.13437	0.28136
2343.20581	0.28785
2341.27725	0.29198
2339.34868	0.29312
2337.42012	0.29389
2335.49155	0.29482
2333.56299	0.29531
2331.63442	0.29588
2329.70586	0.29679
2327.77729	0.29756
2325.84873	0.29768
2323.92017	0.29738
2321.99160	0.29753
2320.06304	0.29779
2318.13447	0.29727
2316.20591	0.29663
2314.27734	0.29714
2312.34878	0.29848
2310.42021	0.29956
2308.49165	0.30021
2306.56309	0.30081
2304.63452	0.30147
2302.70596	0.30226
2300.77739	0.30325
2298.84883	0.30448
2296.92026	0.30583
2294.99170	0.30723
2293.06313	0.30864
2291.13457	0.31007
2289.20601	0.31163
2287.27744	0.31320
2285.34888	0.31472
2283.42031	0.31638
2281.49175	0.31834
2279.56318	0.32052
2277.63462	0.32267
2275.70605	0.32474
2273.77749	0.32692
2271.84893	0.32923
2269.92036	0.33139
2267.99180	0.33336
2266.06323	0.33546
2264.13467	0.33767
2262.20610	0.33970
2260.27754	0.34168
2258.34897	0.34378
2256.42041	0.34583
2254.49185	0.34775
2252.56328	0.34980
2250.63472	0.35200
2248.70615	0.35419
2246.77759	0.35636
2244.84902	0.35857
2242.92046	0.36075
2240.99189	0.36284
2239.06333	0.36494
2237.13477	0.36715
2235.20620	0.36942
2233.27764	0.37172
2231.34907	0.37409
2229.42051	0.37645
2227.49194	0.37860
2225.56338	0.38060
2223.63481	0.38271
2221.70625	0.38496
2219.77769	0.38722
2217.84912	0.38945
2215.92056	0.39170
2213.99199	0.39387
2212.06343	0.39595
2210.13486	0.39811
2208.20630	0.40037
2206.27773	0.40259
2204.34917	0.40460
2202.42061	0.40655
2200.49204	0.40859
2198.56348	0.41050
2196.63491	0.41225
2194.70635	0.41420
2192.77778	0.41628
2190.84922	0.41828
2188.92065	0.42018
2186.99209	0.42200
2185.06353	0.42377
2183.13496	0.42550
2181.20640	0.42717
2179.27783	0.42880
2177.34927	0.43041
2175.42070	0.43193
2173.49214	0.43336
2171.56357	0.43474
2169.63501	0.43614
2167.70645	0.43751
2165.77788	0.43887
2163.84932	0.44031
2161.92075	0.44164
2159.99219	0.44264
2158.06362	0.44345
2156.13506	0.44431
2154.20649	0.44520
2152.27793	0.44599
2150.34937	0.44667
2148.42080	0.44739
2146.49224	0.44814
2144.56367	0.44868
2142.63511	0.44897
2140.70654	0.44914
2138.77798	0.44934
2136.84941	0.44955
2134.92085	0.44976
2132.99229	0.44993
2131.06372	0.44983
2129.13516	0.44945
2127.20659	0.44909
2125.27803	0.44889
2123.34946	0.44869
2121.42090	0.44829
2119.49233	0.44762
2117.56377	0.44694
2115.63521	0.44635
2113.70664	0.44569
2111.77808	0.44484
2109.84951	0.44382
2107.92095	0.44274
2105.99238	0.44163
2104.06382	0.44051
2102.13525	0.43928
2100.20669	0.43792
2098.27812	0.43650
2096.34956	0.43500
2094.42100	0.43334
2092.49243	0.43162
2090.56387	0.42996
2088.63530	0.42832
2086.70674	0.42657
2084.77817	0.42468
2082.84961	0.42275
2080.92104	0.42079
2078.99248	0.41877
2077.06392	0.41668
2075.13535	0.41451
2073.20679	0.41223
2071.27822	0.40985
2069.34966	0.40758
2067.42109	0.40546
2065.49253	0.40322
2063.56396	0.40078
2061.63540	0.39829
2059.70684	0.39581
2057.77827	0.39337
2055.84971	0.39090
2053.92114	0.38824
2051.99258	0.38559
2050.06401	0.38307
2048.13545	0.38057
2046.20688	0.37801
2044.27832	0.37544
2042.34976	0.37284
2040.42119	0.37020
2038.49263	0.36748
2036.56406	0.36471
2034.63550	0.36189
2032.70693	0.35900
2030.77837	0.35617
2028.84980	0.35336
2026.92124	0.35059
2024.99268	0.34792
2023.06411	0.34524
2021.13555	0.34247
2019.20698	0.33976
2017.27842	0.33712
2015.34985	0.33434
2013.42129	0.33145
2011.49272	0.32866
2009.56416	0.32597
2007.63560	0.32324
2005.70703	0.32054
2003.77847	0.31794
2001.84990	0.31535
1999.92134	0.31274
1997.99277	0.31010
1996.06421	0.30751
1994.13564	0.30517
1992.20708	0.30292
1990.27852	0.30036
1988.34995	0.29774
1986.42139	0.29528
1984.49282	0.29284
1982.56426	0.29043
1980.63569	0.28815
1978.70713	0.28595
1976.77856	0.28369
1974.85000	0.28146
1972.92144	0.27940
1970.99287	0.27745
1969.06431	0.27551
1967.13574	0.27351
1965.20718	0.27138
1963.27861	0.26922
1961.35005	0.26722
1959.42148	0.26540
1957.49292	0.26371
1955.56436	0.26203
1953.63579	0.26025
1951.70723	0.25841
1949.77866	0.25672
1947.85010	0.25526
1945.92153	0.25393
1943.99297	0.25265
1942.06440	0.25119
1940.13584	0.24939
1938.20728	0.24772
1936.27871	0.24642
1934.35015	0.24521
1932.42158	0.24405
1930.49302	0.24293
1928.56445	0.24178
1926.63589	0.24067
1924.70732	0.23979
1922.77876	0.23901
1920.85020	0.23810
1918.92163	0.23726
1916.99307	0.23649
1915.06450	0.23551
1913.13594	0.23450
1911.20737	0.23380
1909.27881	0.23322
1907.35024	0.23250
1905.42168	0.23172
1903.49312	0.23106
1901.56455	0.23050
1899.63599	0.23003
1897.70742	0.22971
1895.77886	0.22949
1893.85029	0.22919
1891.92173	0.22882
1889.99316	0.22868
1888.06460	0.22843
1886.13604	0.22799
1884.20747	0.22769
1882.27891	0.22751
1880.35034	0.22741
1878.42178	0.22741
1876.49321	0.22746
1874.56465	0.22744
1872.63608	0.22755
1870.70752	0.22800
1868.77896	0.22878
1866.85039	0.22912
1864.92183	0.22883
1862.99326	0.22872
1861.06470	0.22895
1859.13613	0.22928
1857.20757	0.22957
1855.27900	0.22997
1853.35044	0.23042
1851.42187	0.23092
1849.49331	0.23160
1847.56475	0.23244
1845.63618	0.23344
1843.70762	0.23463
1841.77905	0.23543
1839.85049	0.23577
1837.92192	0.23640
1835.99336	0.23723
1834.06479	0.23810
1832.13623	0.23915
1830.20767	0.24070
1828.27910	0.24231
1826.35054	0.24349
1824.42197	0.24474
1822.49341	0.24584
1820.56484	0.24696
1818.63628	0.24834
1816.70771	0.24998
1814.77915	0.25164
1812.85059	0.25340
1810.92202	0.25538
1808.99346	0.25730
1807.06489	0.25913
1805.13633	0.26107
1803.20776	0.26348
1801.27920	0.26626
1799.35063	0.26915
1797.42207	0.27158
1795.49351	0.27393
1793.56494	0.27686
1791.63638	0.28051
1789.70781	0.28375
1787.77925	0.28622
1785.85068	0.28935
1783.92212	0.29314
1781.99355	0.29721
1780.06499	0.30141
1778.13643	0.30560
1776.20786	0.30965
1774.27930	0.31416
1772.35073	0.32018
1770.42217	0.32653
1768.49360	0.33180
1766.56504	0.33673
1764.63647	0.34179
1762.70791	0.34753
1760.77935	0.35495
1758.85078	0.36209
1756.92222	0.36925
1754.99365	0.37694
1753.06509	0.38403
1751.13652	0.39257
1749.20796	0.40318
1747.27939	0.41349
1745.35083	0.42250
1743.42227	0.43205
1741.49370	0.44261
1739.56514	0.45497
1737.63657	0.46748
1735.70801	0.47873
1733.77944	0.49526
1731.85088	0.51447
1729.92231	0.52983
1727.99375	0.54554
1726.06519	0.56240
1724.13662	0.58070
1722.20806	0.60036
1720.27949	0.61877
1718.35093	0.64069
1716.42236	0.67231
1714.49380	0.70197
1712.56523	0.72626
1710.63667	0.75011
1708.70811	0.77597
1706.77954	0.80525
1704.85098	0.83952
1702.92241	0.87015
1700.99385	0.90087
1699.06528	0.94574
1697.13672	0.98672
1695.20815	1.02851
1693.27959	1.06965
1691.35103	1.10318
1689.42246	1.14132
1687.49390	1.18145
1685.56533	1.22092
1683.63677	1.28019
1681.70820	1.34066
1679.77964	1.38042
1677.85107	1.41869
1675.92251	1.46253
1673.99395	1.51600
1672.06538	1.56409
1670.13682	1.61125
1668.20825	1.67072
1666.27969	1.71964
1664.35112	1.76206
1662.42256	1.81449
1660.49399	1.87244
1658.56543	1.91844
1656.63687	1.95672
1654.70830	1.99252
1652.77974	2.04710
1650.85117	2.09901
1648.92261	2.11916
1646.99404	2.14323
1645.06548	2.17061
1643.13691	2.18988
1641.20835	2.20145
1639.27979	2.21125
1637.35122	2.21721
1635.42266	2.21726
1633.49409	2.21137
1631.56553	2.19950
1629.63696	2.18335
1627.70840	2.15721
1625.77983	2.12685
1623.85127	2.08773
1621.92271	2.03895
1619.99414	1.99543
1618.06558	1.95321
1616.13701	1.89364
1614.20845	1.83268
1612.27988	1.78565
1610.35132	1.73613
1608.42275	1.68203
1606.49419	1.62901
1604.56562	1.58032
1602.63706	1.53351
1600.70850	1.48778
1598.77993	1.44484
1596.85137	1.40404
1594.92280	1.36495
1592.99424	1.32787
1591.06567	1.29415
1589.13711	1.26245
1587.20854	1.23249
1585.27998	1.20449
1583.35142	1.17836
1581.42285	1.15456
1579.49429	1.13420
1577.56572	1.11617
1575.63716	1.09458
1573.70859	1.07492
1571.78003	1.06166
1569.85146	1.04811
1567.92290	1.03315
1565.99434	1.02150
1564.06577	1.01214
1562.13721	1.00481
1560.20864	0.99982
1558.28008	0.99340
1556.35151	0.98709
1554.42295	0.98279
1552.49438	0.97845
1550.56582	0.97321
1548.63726	0.96654
1546.70869	0.95902
1544.78013	0.95008
1542.85156	0.93932
1540.92300	0.92532
1538.99443	0.90417
1537.06587	0.88769
1535.13730	0.87649
1533.20874	0.86247
1531.28018	0.84741
1529.35161	0.83626
1527.42305	0.82602
1525.49448	0.81551
1523.56592	0.80642
1521.63735	0.79749
1519.70879	0.78796
1517.78022	0.77988
1515.85166	0.77122
1513.92310	0.76219
1511.99453	0.75434
1510.06597	0.74742
1508.13740	0.74106
1506.20884	0.73139
1504.28027	0.72185
1502.35171	0.71609
1500.42314	0.71137
1498.49458	0.70659
1496.56602	0.70113
1494.63745	0.69555
1492.70889	0.69117
1490.78032	0.68765
1488.85176	0.68356
1486.92319	0.67895
1484.99463	0.67486
1483.06606	0.67162
1481.13750	0.66891
1479.20894	0.66655
1477.28037	0.66483
1475.35181	0.66363
1473.42324	0.66247
1471.49468	0.66045
1469.56611	0.65795
1467.63755	0.65570
1465.70898	0.65361
1463.78042	0.65148
1461.85186	0.64990
1459.92329	0.64942
1457.99473	0.64964
1456.06616	0.64861
1454.13760	0.64579
1452.20903	0.64313
1450.28047	0.64083
1448.35190	0.63873
1446.42334	0.63639
1444.49478	0.63388
1442.56621	0.63158
1440.63765	0.62961
1438.70908	0.62783
1436.78052	0.62564
1434.85195	0.62295
1432.92339	0.62077
1430.99482	0.61936
1429.06626	0.61832
1427.13770	0.61747
1425.20913	0.61711
1423.28057	0.61714
1421.35200	0.61708
1419.42344	0.61694
1417.49487	0.61634
1415.56631	0.61498
1413.63774	0.61378
1411.70918	0.61310
1409.78062	0.61286
1407.85205	0.61289
1405.92349	0.61300
1403.99492	0.61287
1402.06636	0.61231
1400.13779	0.61159
1398.20923	0.61056
1396.28066	0.60876
1394.35210	0.60600
1392.42354	0.60280
1390.49497	0.59992
1388.56641	0.59721
1386.63784	0.59398
1384.70928	0.59037
1382.78071	0.58712
1380.85215	0.58423
1378.92358	0.58177
1376.99502	0.57990
1375.06646	0.57851
1373.13789	0.57740
1371.20933	0.57647
1369.28076	0.57553
1367.35220	0.57438
1365.42363	0.57311
1363.49507	0.57196
1361.56650	0.57092
1359.63794	0.56973
1357.70937	0.56840
1355.78081	0.56717
1353.85225	0.56628
1351.92368	0.56568
1349.99512	0.56507
1348.06655	0.56434
1346.13799	0.56348
1344.20942	0.56254
1342.28086	0.56182
1340.35229	0.56141
1338.42373	0.56079
1336.49517	0.55979
1334.56660	0.55891
1332.63804	0.55839
1330.70947	0.55818
1328.78091	0.55822
1326.85234	0.55844
1324.92378	0.55857
1322.99521	0.55846
1321.06665	0.55828
1319.13809	0.55830
1317.20952	0.55827
1315.28096	0.55783
1313.35239	0.55716
1311.42383	0.55662
1309.49526	0.55619
1307.56670	0.55562
1305.63813	0.55500
1303.70957	0.55442
1301.78101	0.55377
1299.85244	0.55297
1297.92388	0.55201
1295.99531	0.55097
1294.06675	0.55000
1292.13818	0.54902
1290.20962	0.54803
1288.28105	0.54721
1286.35249	0.54650
1284.42393	0.54568
1282.49536	0.54464
1280.56680	0.54345
1278.63823	0.54233
1276.70967	0.54149
1274.78110	0.54083
1272.85254	0.54019
1270.92397	0.53957
1268.99541	0.53902
1267.06685	0.53842
1265.13828	0.53769
1263.20972	0.53703
1261.28115	0.53645
1259.35259	0.53569
1257.42402	0.53482
1255.49546	0.53423
1253.56689	0.53406
1251.63833	0.53420
1249.70977	0.53442
1247.78120	0.53432
1245.85264	0.53393
1243.92407	0.53346
1241.99551	0.53280
1240.06694	0.53180
1238.13838	0.53055
1236.20981	0.52915
1234.28125	0.52763
1232.35269	0.52612
1230.42412	0.52480
1228.49556	0.52375
1226.56699	0.52285
1224.63843	0.52183
1222.70986	0.52060
1220.78130	0.51933
1218.85273	0.51834
1216.92417	0.51766
1214.99561	0.51703
1213.06704	0.51630
1211.13848	0.51550
1209.20991	0.51466
1207.28135	0.51375
1205.35278	0.51282
1203.42422	0.51209
1201.49565	0.51155
1199.56709	0.51099
1197.63853	0.51034
1195.70996	0.50975
1193.78140	0.50936
1191.85283	0.50913
1189.92427	0.50884
1187.99570	0.50844
1186.06714	0.50812
1184.13857	0.50807
1182.21001	0.50827
1180.28145	0.50872
1178.35288	0.50933
1176.42432	0.50994
1174.49575	0.51055
1172.56719	0.51110
1170.63862	0.51120
1168.71006	0.51087
1166.78149	0.51060
1164.85293	0.51047
1162.92437	0.51016
1160.99580	0.50965
1159.06724	0.50906
1157.13867	0.50827
1155.21011	0.50731
1153.28154	0.50629
1151.35298	0.50496
1149.42441	0.50320
1147.49585	0.50119
1145.56729	0.49897
1143.63872	0.49655
1141.71016	0.49426
1139.78159	0.49250
1137.85303	0.49098
1135.92446	0.48937
1133.99590	0.48800
1132.06733	0.48709
1130.13877	0.48628
1128.21021	0.48515
1126.28164	0.48377
1124.35308	0.48241
1122.42451	0.48135
1120.49595	0.48073
1118.56738	0.48031
1116.63882	0.47975
1114.71025	0.47924
1112.78169	0.47927
1110.85312	0.47981
1108.92456	0.48046
1106.99600	0.48116
1105.06743	0.48215
1103.13887	0.48349
1101.21030	0.48519
1099.28174	0.48728
1097.35317	0.48971
1095.42461	0.49258
1093.49604	0.49599
1091.56748	0.50008
1089.63892	0.50491
1087.71035	0.51033
1085.78179	0.51640
1083.85322	0.52299
1081.92466	0.52936
1079.99609	0.53475
1078.06753	0.53833
1076.13896	0.53913
1074.21040	0.53708
1072.28184	0.53298
1070.35327	0.52733
1068.42471	0.52056
1066.49614	0.51371
1064.56758	0.50742
1062.63901	0.50149
1060.71045	0.49604
1058.78188	0.49149
1056.85332	0.48772
1054.92476	0.48434
1052.99619	0.48144
1051.06763	0.47897
1049.13906	0.47676
1047.21050	0.47495
1045.28193	0.47349
1043.35337	0.47230
1041.42480	0.47136
1039.49624	0.47059
1037.56768	0.47001
1035.63911	0.46963
1033.71055	0.46932
1031.78198	0.46901
1029.85342	0.46895
1027.92485	0.46926
1025.99629	0.46944
1024.06772	0.46932
1022.13916	0.46948
1020.21060	0.47024
1018.28203	0.47134
1016.35347	0.47235
1014.42490	0.47332
1012.49634	0.47451
1010.56777	0.47579
1008.63921	0.47697
1006.71064	0.47823
1004.78208	0.47992
1002.85352	0.48232
1000.92495	0.48527
998.99639	0.48850
997.06782	0.49213
995.13926	0.49619
993.21069	0.50026
991.28213	0.50372
989.35356	0.50619
987.42500	0.50781
985.49644	0.50878
983.56787	0.50952
981.63931	0.51055
979.71074	0.51203
977.78218	0.51396
975.85361	0.51634
973.92505	0.51919
971.99648	0.52255
970.06792	0.52646
968.13936	0.53064
966.21079	0.53483
964.28223	0.53911
962.35366	0.54375
960.42510	0.54910
958.49653	0.55494
956.56797	0.56075
954.63940	0.56661
952.71084	0.57258
950.78228	0.57863
948.85371	0.58472
946.92515	0.59076
944.99658	0.59700
943.06802	0.60345
941.13945	0.60952
939.21089	0.61527
937.28232	0.62130
935.35376	0.62740
933.42520	0.63290
931.49663	0.63811
929.56807	0.64357
927.63950	0.64945
925.71094	0.65607
923.78237	0.66281
921.85381	0.66878
919.92524	0.67473
917.99668	0.68167
916.06812	0.68964
914.13955	0.69797
912.21099	0.70594
910.28242	0.71365
908.35386	0.72134
906.42529	0.72896
904.49673	0.73723
902.56816	0.74679
900.63960	0.75736
898.71104	0.76816
896.78247	0.77803
894.85391	0.78699
892.92534	0.79619
890.99678	0.80588
889.06821	0.81682
887.13965	0.82897
885.21108	0.84000
883.28252	0.85000
881.35396	0.86117
879.42539	0.87273
877.49683	0.88385
875.56826	0.89568
873.63970	0.90705
871.71113	0.91736
869.78257	0.92876
867.85400	0.94135
865.92544	0.95371
863.99687	0.96527
862.06831	0.97601
860.13975	0.98742
858.21118	1.00036
856.28262	1.01221
854.35405	1.02263
852.42549	1.03447
850.49692	1.04693
848.56836	1.05778
846.63979	1.06765
844.71123	1.07808
842.78267	1.08973
840.85410	1.10170
838.92554	1.11241
836.99697	1.12342
835.06841	1.13563
833.13984	1.14633
831.21128	1.15633
829.28271	1.16762
827.35415	1.17694
825.42559	1.18284
823.49702	1.19247
821.56846	1.20548
819.63989	1.21301
817.71133	1.21691
815.78276	1.22181
813.85420	1.23360
811.92563	1.25720
809.99707	1.27620
808.06851	1.26870
806.13994	1.24827
804.21138	1.24015
802.28281	1.25272
800.35425	1.27996
798.42568	1.29073
796.49712	1.28138
794.56855	1.29060
792.63999	1.31038
790.71143	1.30587
788.78286	1.28252
786.85430	1.27077
784.92573	1.29157
782.99717	1.32315
781.06860	1.31798
779.14004	1.28849
777.21147	1.27200
775.28291	1.26334
773.35435	1.25566
771.42578	1.25540
769.49722	1.26971
767.56865	1.28247
765.64009	1.24708
763.71152	1.19703
761.78296	1.19930
759.85439	1.22159
757.92583	1.16054
755.99727	1.09103
754.06870	1.07842
752.14014	1.05651
750.21157	1.01508
748.28301	0.99404
746.35444	1.00265
744.42588	1.02773
742.49731	1.03946
740.56875	0.93663
738.64019	0.76716
736.71162	0.69499
734.78306	0.73368
732.85449	0.72101
730.92593	0.57314
728.99736	0.46169
727.06880	0.42394
725.14023	0.40331
723.21167	0.33320
721.28311	0.21791
719.35454	0.13975
717.42598	0.12226
715.49741	0.10730
713.56885	0.04516
711.64028	0.00982
709.71172	0.08266
707.78315	0.15668
705.85459	0.10585
703.92603	0.01508
701.99746	-0.00393
700.06890	0.02011
698.14033	0.07180
696.21177	0.10384
694.28320	0.09467
692.35464	0.14297
690.42607	0.23024
688.49751	0.18488
686.56895	0.09876
684.64038	0.11414
682.71182	0.14032
680.78325	0.10978
678.85469	0.05614
676.92612	-0.01851
674.99756	-0.02553
673.06899	0.04480
671.14043	0.08071
669.21187	0.08150
667.28330	0.09301
665.35474	0.09321
663.42617	0.08520
661.49761	0.06772
659.56904	0.06222
657.64048	0.07459
655.71191	0.04864
653.78335	0.02583
651.85479	0.03603
649.92622	0.02007
647.99766	-0.00055
646.06909	0.04053
644.14053	0.13043
642.21196	0.11054
640.28340	0.00981
638.35483	-0.00238
636.42627	0.06853
634.49771	0.16710
632.56914	0.10799
630.64058	0.03458
628.71201	0.04018
626.78345	0.08664
624.85488	0.12275
622.92632	0.14168
620.99775	0.11736
619.06919	0.06560
617.14062	0.03397
615.21206	0.02736
613.28350	0.04580
611.35493	0.08227
609.42637	0.09313
607.49780	0.06820
605.56924	0.06904
603.64067	0.06554
601.71211	0.01623
599.78354	-0.00369
597.85498	0.02882
595.92642	0.06117
593.99785	0.06797
592.06929	0.06013
590.14072	0.09589
588.21216	0.18137
586.28359	0.16117
584.35503	0.11052
582.42646	0.08481
580.49790	0.03926
578.56934	0.01313
576.64077	0.02808
574.71221	0.05910
572.78364	0.11599
570.85508	0.16489
568.92651	0.15833
566.99795	0.15928
565.06938	0.16460
563.14082	0.15144
561.21226	0.14182
559.28369	0.12838
557.35513	0.09583
555.42656	0.04697
553.49800	-0.00144
551.56943	-0.02001
549.64087	-0.01800
547.71230	-0.00141
545.78374	0.05275
543.85518	0.09978
541.92661	0.11304
539.99805	0.12697
538.06948	0.14439
536.14092	0.12500
534.21235	0.07041
532.28379	0.07036
530.35522	0.11808
528.42666	0.13183
526.49810	0.11533
524.56953	0.10038
522.64097	0.10537
520.71240	0.13052
518.78384	0.12086
516.85527	0.02602
514.92671	-0.05921
512.99814	-0.07981
511.06958	-0.03441
509.14102	0.03826
507.21245	0.06708
505.28389	0.05055
503.35532	0.05279
501.42676	0.07014
499.49819	0.08283
