3997.91411	0.06011
3995.98555	0.06054
3994.05698	0.06074
3992.12842	0.06089
3990.19985	0.06124
3988.27129	0.06156
3986.34272	0.06169
3984.41416	0.06162
3982.48560	0.06150
3980.55703	0.06173
3978.62847	0.06215
3976.69990	0.06268
3974.77134	0.06334
3972.84277	0.06378
3970.91421	0.06403
3968.98564	0.06426
3967.05708	0.06439
3965.12852	0.06448
3963.19995	0.06473
3961.27139	0.06488
3959.34282	0.06486
3957.41426	0.06513
3955.48569	0.06555
3953.55713	0.06554
3951.62856	0.06511
3949.70000	0.06475
3947.77144	0.06461
3945.84287	0.06442
3943.91431	0.06426
3941.98574	0.06458
3940.05718	0.06489
3938.12861	0.06451
3936.20005	0.06428
3934.27148	0.06499
3932.34292	0.06600
3930.41436	0.06624
3928.48579	0.06543
3926.55723	0.06465
3924.62866	0.06469
3922.70010	0.06491
3920.77153	0.06501
3918.84297	0.06527
3916.91440	0.06529
3914.98584	0.06479
3913.05728	0.06402
3911.12871	0.06327
3909.20015	0.06294
3907.27158	0.06340
3905.34302	0.06438
3903.41445	0.06521
3901.48589	0.06577
3899.55732	0.06630
3897.62876	0.06610
3895.70020	0.06515
3893.77163	0.06462
3891.84307	0.06474
3889.91450	0.06478
3887.98594	0.06458
3886.05737	0.06490
3884.12881	0.06577
3882.20024	0.06652
3880.27168	0.06711
3878.34312	0.06696
3876.41455	0.06624
3874.48599	0.06597
3872.55742	0.06606
3870.62886	0.06669
3868.70029	0.06825
3866.77173	0.06918
3864.84316	0.06950
3862.91460	0.06972
3860.98604	0.06888
3859.05747	0.06791
3857.12891	0.06793
3855.20034	0.06903
3853.27178	0.07156
3851.34321	0.07342
3849.41465	0.07205
3847.48608	0.07038
3845.55752	0.07009
3843.62896	0.07106
3841.70039	0.07251
3839.77183	0.07389
3837.84326	0.07492
3835.91470	0.07501
3833.98613	0.07468
3832.05757	0.07469
3830.12900	0.07498
3828.20044	0.07570
3826.27187	0.07707
3824.34331	0.07844
3822.41475	0.07957
3820.48618	0.08099
3818.55762	0.08166
3816.62905	0.08184
3814.70049	0.08270
3812.77192	0.08312
3810.84336	0.08310
3808.91479	0.08386
3806.98623	0.08567
3805.05767	0.08752
3803.12910	0.08896
3801.20054	0.09101
3799.27197	0.09262
3797.34341	0.09276
3795.41484	0.09301
3793.48628	0.09340
3791.55771	0.09382
3789.62915	0.09464
3787.70059	0.09572
3785.77202	0.09723
3783.84346	0.09908
3781.91489	0.10072
3779.98633	0.10232
3778.05776	0.10408
3776.12920	0.10530
3774.20063	0.10612
3772.27207	0.10739
3770.34351	0.10986
3768.41494	0.11288
3766.48638	0.11491
3764.55781	0.11649
3762.62925	0.11785
3760.70068	0.11942
3758.77212	0.12234
3756.84355	0.12559
3754.91499	0.12774
3752.98643	0.12990
3751.05786	0.13376
3749.12930	0.13886
3747.20073	0.14185
3745.27217	0.14360
3743.34360	0.14664
3741.41504	0.14996
3739.48647	0.15266
3737.55791	0.15609
3735.62935	0.16131
3733.70078	0.16809
3731.77222	0.17384
3729.84365	0.17782
3727.91509	0.18160
3725.98652	0.18655
3724.05796	0.19243
3722.12939	0.19860
3720.20083	0.20526
3718.27227	0.21187
3716.34370	0.21810
3714.41514	0.22464
3712.48657	0.23396
3710.55801	0.24834
3708.62944	0.26320
3706.70088	0.27411
3704.77231	0.28423
3702.84375	0.29678
3700.91519	0.31335
3698.98662	0.33129
3697.05806	0.34820
3695.12949	0.36590
3693.20093	0.38452
3691.27236	0.40536
3689.34380	0.43296
3687.41523	0.46652
3685.48667	0.49603
3683.55811	0.52156
3681.62954	0.54879
3679.70098	0.57944
3677.77241	0.61206
3675.84385	0.65092
3673.91528	0.70205
3671.98672	0.74379
3670.05815	0.78125
3668.12959	0.83269
3666.20103	0.88039
3664.27246	0.92077
3662.34390	0.96408
3660.41533	1.01035
3658.48677	1.05537
3656.55820	1.10304
3654.62964	1.15663
3652.70107	1.20291
3650.77251	1.24381
3648.84395	1.29833
3646.91538	1.36421
3644.98682	1.41436
3643.05825	1.45336
3641.12969	1.49295
3639.20112	1.53625
3637.27256	1.57982
3635.34399	1.62250
3633.41543	1.66558
3631.48687	1.70632
3629.55830	1.74722
3627.62974	1.80020
3625.70117	1.85069
3623.77261	1.88484
3621.84404	1.91647
3619.91548	1.95276
3617.98691	1.99699
3616.05835	2.04011
3614.12979	2.07659
3612.20122	2.11444
3610.27266	2.15264
3608.34409	2.19185
3606.41553	2.23422
3604.48696	2.27466
3602.55840	2.31166
3600.62983	2.35053
3598.70127	2.39112
3596.77271	2.43037
3594.84414	2.47064
3592.91558	2.51259
3590.98701	2.55183
3589.05845	2.58758
3587.12988	2.62919
3585.20132	2.67563
3583.27275	2.71695
3581.34419	2.75644
3579.41562	2.79829
3577.48706	2.84070
3575.55850	2.88209
3573.62993	2.92420
3571.70137	2.96555
3569.77280	3.00459
3567.84424	3.04537
3565.91567	3.09609
3563.98711	3.14862
3562.05854	3.19339
3560.12998	3.23564
3558.20142	3.27877
3556.27285	3.32271
3554.34429	3.36579
3552.41572	3.41175
3550.48716	3.46173
3548.55859	3.50868
3546.63003	3.54997
3544.70146	3.59377
3542.77290	3.64323
3540.84434	3.69267
3538.91577	3.73965
3536.98721	3.78361
3535.05864	3.82762
3533.13008	3.87362
3531.20151	3.92159
3529.27295	3.97212
3527.34438	4.02578
3525.41582	4.07832
3523.48726	4.12734
3521.55869	4.17634
3519.63013	4.22470
3517.70156	4.27031
3515.77300	4.31203
3513.84443	4.35402
3511.91587	4.40174
3509.98730	4.45520
3508.05874	4.50899
3506.13018	4.55653
3504.20161	4.59964
3502.27305	4.64502
3500.34448	4.69122
3498.41592	4.73502
3496.48735	4.78213
3494.55879	4.83418
3492.63022	4.88560
3490.70166	4.93253
3488.77310	4.97598
3486.84453	5.02038
3484.91597	5.07017
3482.98740	5.12656
3481.05884	5.18463
3479.13027	5.23786
3477.20171	5.28720
3475.27314	5.33332
3473.34458	5.37588
3471.41602	5.42109
3469.48745	5.46993
3467.55889	5.51140
3465.63032	5.54557
3463.70176	5.59105
3461.77319	5.64486
3459.84463	5.69222
3457.91606	5.73511
3455.98750	5.78141
3454.05894	5.83409
3452.13037	5.88203
3450.20181	5.91683
3448.27324	5.95058
3446.34468	6.00003
3444.41611	6.06029
3442.48755	6.11917
3440.55898	6.17652
3438.63042	6.22527
3436.70186	6.25124
3434.77329	6.27487
3432.84473	6.32300
3430.91616	6.38754
3428.98760	6.45619
3427.05903	6.51500
3425.13047	6.56252
3423.20190	6.59937
3421.27334	6.63567
3419.34478	6.68920
3417.41621	6.74770
3415.48765	6.79081
3413.55908	6.80637
3411.63052	6.82092
3409.70195	6.87668
3407.77339	6.95782
3405.84482	7.01150
3403.91626	7.04920
3401.98770	7.09383
3400.05913	7.13456
3398.13057	7.17306
3396.20200	7.20095
3394.27344	7.21026
3392.34487	7.22654
3390.41631	7.28603
3388.48774	7.36268
3386.55918	7.40886
3384.63062	7.42212
3382.70205	7.43845
3380.77349	7.44510
3378.84492	7.44193
3376.91636	7.47964
3374.98779	7.51476
3373.05923	7.53725
3371.13066	7.59806
3369.20210	7.66947
3367.27354	7.68288
3365.34497	7.66856
3363.41641	7.70003
3361.48784	7.77060
3359.55928	7.82303
3357.63071	7.82908
3355.70215	7.81740
3353.77358	7.76509
3351.84502	7.70515
3349.91646	7.70356
3347.98789	7.73689
3346.05933	7.77565
3344.13076	7.81469
3342.20220	7.80977
3340.27363	7.76122
3338.34507	7.75932
3336.41650	7.82065
3334.48794	7.93025
3332.55937	8.03022
3330.63081	8.02882
3328.70225	7.95057
3326.77368	7.90454
3324.84512	7.92211
3322.91655	7.94224
3320.98799	7.93358
3319.05942	7.88891
3317.13086	7.91719
3315.20229	8.05678
3313.27373	8.14604
3311.34517	8.12473
3309.41660	8.05050
3307.48804	7.97624
3305.55947	7.98372
3303.63091	8.04554
3301.70234	8.03290
3299.77378	8.00653
3297.84521	8.02315
3295.91665	7.98993
3293.98809	7.93612
3292.05952	7.94154
3290.13096	7.97988
3288.20239	7.99457
3286.27383	7.96280
3284.34526	7.93550
3282.41670	7.94110
3280.48813	7.91493
3278.55957	7.89436
3276.63101	7.92492
3274.70244	7.95643
3272.77388	7.93651
3270.84531	7.86685
3268.91675	7.84913
3266.98818	7.91750
3265.05962	7.99845
3263.13105	8.03581
3261.20249	8.03476
3259.27393	8.03671
3257.34536	8.05344
3255.41680	8.02284
3253.48823	7.93547
3251.55967	7.84872
3249.63110	7.78025
3247.70254	7.79787
3245.77397	7.92310
3243.84541	7.99795
3241.91685	7.97372
3239.98828	8.01451
3238.05972	8.13971
3236.13115	8.21768
3234.20259	8.19011
3232.27402	8.09473
3230.34546	7.98151
3228.41689	7.90227
3226.48833	7.92169
3224.55977	8.03201
3222.63120	8.05884
3220.70264	7.95109
3218.77407	7.89494
3216.84551	7.91022
3214.91694	7.88671
3212.98838	7.79398
3211.05981	7.72049
3209.13125	7.75722
3207.20269	7.79695
3205.27412	7.72283
3203.34556	7.64791
3201.41699	7.63476
3199.48843	7.61287
3197.55986	7.56804
3195.63130	7.53345
3193.70273	7.50517
3191.77417	7.48509
3189.84561	7.46723
3187.91704	7.42165
3185.98848	7.36386
3184.05991	7.33072
3182.13135	7.29155
3180.20278	7.19411
3178.27422	7.08859
3176.34565	7.04257
3174.41709	7.01449
3172.48853	6.97374
3170.55996	6.93171
3168.63140	6.86511
3166.70283	6.79505
3164.77427	6.75767
3162.84570	6.72535
3160.91714	6.67291
3158.98857	6.61241
3157.06001	6.54640
3155.13145	6.48131
3153.20288	6.42474
3151.27432	6.37569
3149.34575	6.33275
3147.41719	6.27865
3145.48862	6.20340
3143.56006	6.11564
3141.63149	6.02957
3139.70293	5.95938
3137.77437	5.89971
3135.84580	5.82741
3133.91724	5.75176
3131.98867	5.69132
3130.06011	5.62710
3128.13154	5.55540
3126.20298	5.48946
3124.27441	5.42308
3122.34585	5.35005
3120.41729	5.27330
3118.48872	5.19842
3116.56016	5.12976
3114.63159	5.06656
3112.70303	5.00318
3110.77446	4.93607
3108.84590	4.87042
3106.91733	4.80834
3104.98877	4.74138
3103.06021	4.66789
3101.13164	4.59380
3099.20308	4.52266
3097.27451	4.45849
3095.34595	4.39990
3093.41738	4.33876
3091.48882	4.27327
3089.56025	4.20664
3087.63169	4.14187
3085.70312	4.08135
3083.77456	4.02218
3081.84600	3.96130
3079.91743	3.89944
3077.98887	3.83738
3076.06030	3.77583
3074.13174	3.71631
3072.20317	3.65940
3070.27461	3.60284
3068.34604	3.54500
3066.41748	3.48694
3064.48892	3.43009
3062.56035	3.37532
3060.63179	3.32348
3058.70322	3.27369
3056.77466	3.22154
3054.84609	3.16552
3052.91753	3.11066
3050.98896	3.05993
3049.06040	3.01057
3047.13184	2.96106
3045.20327	2.91215
3043.27471	2.86322
3041.34614	2.81355
3039.41758	2.76454
3037.48901	2.71775
3035.56045	2.67212
3033.63188	2.62628
3031.70332	2.58123
3029.77476	2.53808
3027.84619	2.49560
3025.91763	2.45206
3023.98906	2.40831
3022.06050	2.36595
3020.13193	2.32437
3018.20337	2.28307
3016.27480	2.24248
3014.34624	2.20234
3012.41768	2.16277
3010.48911	2.12430
3008.56055	2.08692
3006.63198	2.05028
3004.70342	2.01420
3002.77485	1.97848
3000.84629	1.94375
2998.91772	1.91068
2996.98916	1.87849
2995.06060	1.84680
2993.13203	1.81574
2991.20347	1.78486
2989.27490	1.75423
2987.34634	1.72452
2985.41777	1.69566
2983.48921	1.66702
2981.56064	1.63887
2979.63208	1.61167
2977.70352	1.58524
2975.77495	1.55934
2973.84639	1.53382
2971.91782	1.50874
2969.98926	1.48412
2968.06069	1.45953
2966.13213	1.43486
2964.20356	1.41049
2962.27500	1.38628
2960.34644	1.36175
2958.41787	1.33695
2956.48931	1.31254
2954.56074	1.28912
2952.63218	1.26617
2950.70361	1.24326
2948.77505	1.22066
2946.84648	1.19818
2944.91792	1.17570
2942.98936	1.15366
2941.06079	1.13227
2939.13223	1.11111
2937.20366	1.08971
2935.27510	1.06774
2933.34653	1.04558
2931.41797	1.02380
2929.48940	1.00246
2927.56084	0.98170
2925.63228	0.96146
2923.70371	0.94206
2921.77515	0.92419
2919.84658	0.90780
2917.91802	0.89264
2915.98945	0.87834
2914.06089	0.86409
2912.13232	0.85013
2910.20376	0.83681
2908.27520	0.82327
2906.34663	0.80929
2904.41807	0.79550
2902.48950	0.78222
2900.56094	0.76936
2898.63237	0.75667
2896.70381	0.74396
2894.77524	0.73126
2892.84668	0.71885
2890.91812	0.70709
2888.98955	0.69597
2887.06099	0.68543
2885.13242	0.67560
2883.20386	0.66604
2881.27529	0.65617
2879.34673	0.64618
2877.41816	0.63650
2875.48960	0.62697
2873.56104	0.61681
2871.63247	0.60581
2869.70391	0.59448
2867.77534	0.58295
2865.84678	0.57106
2863.91821	0.55897
2861.98965	0.54681
2860.06108	0.53481
2858.13252	0.52339
2856.20396	0.51226
2854.27539	0.50134
2852.34683	0.49165
2850.41826	0.48369
2848.48970	0.47676
2846.56113	0.47045
2844.63257	0.46493
2842.70400	0.45991
2840.77544	0.45492
2838.84687	0.44979
2836.91831	0.44453
2834.98975	0.43915
2833.06118	0.43361
2831.13262	0.42799
2829.20405	0.42242
2827.27549	0.41680
2825.34692	0.41099
2823.41836	0.40515
2821.48979	0.39933
2819.56123	0.39352
2817.63267	0.38789
2815.70410	0.38247
2813.77554	0.37705
2811.84697	0.37166
2809.91841	0.36636
2807.98984	0.36097
2806.06128	0.35550
2804.13271	0.35027
2802.20415	0.34539
2800.27559	0.34067
2798.34702	0.33597
2796.41846	0.33131
2794.48989	0.32668
2792.56133	0.32199
2790.63276	0.31730
2788.70420	0.31278
2786.77563	0.30849
2784.84707	0.30440
2782.91851	0.30039
2780.98994	0.29628
2779.06138	0.29216
2777.13281	0.28823
2775.20425	0.28450
2773.27568	0.28087
2771.34712	0.27718
2769.41855	0.27347
2767.48999	0.26982
2765.56143	0.26620
2763.63286	0.26274
2761.70430	0.25954
2759.77573	0.25648
2757.84717	0.25341
2755.91860	0.25022
2753.99004	0.24691
2752.06147	0.24368
2750.13291	0.24072
2748.20435	0.23807
2746.27578	0.23557
2744.34722	0.23296
2742.41865	0.23013
2740.49009	0.22732
2738.56152	0.22478
2736.63296	0.22234
2734.70439	0.21974
2732.77583	0.21705
2730.84727	0.21458
2728.91870	0.21249
2726.99014	0.21056
2725.06157	0.20849
2723.13301	0.20624
2721.20444	0.20394
2719.27588	0.20184
2717.34731	0.19995
2715.41875	0.19806
2713.49019	0.19622
2711.56162	0.19450
2709.63306	0.19271
2707.70449	0.19086
2705.77593	0.18922
2703.84736	0.18765
2701.91880	0.18598
2699.99023	0.18432
2698.06167	0.18286
2696.13311	0.18164
2694.20454	0.18047
2692.27598	0.17915
2690.34741	0.17769
2688.41885	0.17634
2686.49028	0.17523
2684.56172	0.17421
2682.63315	0.17315
2680.70459	0.17195
2678.77603	0.17063
2676.84746	0.16946
2674.91890	0.16854
2672.99033	0.16754
2671.06177	0.16634
2669.13320	0.16521
2667.20464	0.16431
2665.27607	0.16359
2663.34751	0.16290
2661.41895	0.16212
2659.49038	0.16133
2657.56182	0.16060
2655.63325	0.15989
2653.70469	0.15908
2651.77612	0.15826
2649.84756	0.15756
2647.91899	0.15684
2645.99043	0.15602
2644.06187	0.15531
2642.13330	0.15475
2640.20474	0.15438
2638.27617	0.15421
2636.34761	0.15394
2634.41904	0.15337
2632.49048	0.15273
2630.56191	0.15216
2628.63335	0.15169
2626.70479	0.15129
2624.77622	0.15102
2622.84766	0.15087
2620.91909	0.15068
2618.99053	0.15046
2617.06196	0.15035
2615.13340	0.15022
2613.20483	0.14995
2611.27627	0.14966
2609.34771	0.14950
2607.41914	0.14943
2605.49058	0.14936
2603.56201	0.14926
2601.63345	0.14921
2599.70488	0.14926
2597.77632	0.14929
2595.84775	0.14924
2593.91919	0.14927
2591.99062	0.14935
2590.06206	0.14930
2588.13350	0.14927
2586.20493	0.14956
2584.27637	0.15000
2582.34780	0.15014
2580.41924	0.15016
2578.49067	0.15041
2576.56211	0.15081
2574.63354	0.15114
2572.70498	0.15133
2570.77642	0.15161
2568.84785	0.15202
2566.91929	0.15240
2564.99072	0.15286
2563.06216	0.15344
2561.13359	0.15385
2559.20503	0.15407
2557.27646	0.15432
2555.34790	0.15477
2553.41934	0.15540
2551.49077	0.15596
2549.56221	0.15639
2547.63364	0.15695
2545.70508	0.15772
2543.77651	0.15844
2541.84795	0.15902
2539.91938	0.15949
2537.99082	0.15985
2536.06226	0.16026
2534.13369	0.16079
2532.20513	0.16148
2530.27656	0.16229
2528.34800	0.16311
2526.41943	0.16385
2524.49087	0.16446
2522.56230	0.16502
2520.63374	0.16565
2518.70518	0.16648
2516.77661	0.16740
2514.84805	0.16822
2512.91948	0.16891
2510.99092	0.16955
2509.06235	0.17022
2507.13379	0.17096
2505.20522	0.17172
2503.27666	0.17259
2501.34810	0.17364
2499.41953	0.17466
2497.49097	0.17545
2495.56240	0.17605
2493.63384	0.17674
2491.70527	0.17765
2489.77671	0.17853
2487.84814	0.17935
2485.91958	0.18027
2483.99102	0.18116
2482.06245	0.18195
2480.13389	0.18274
2478.20532	0.18355
2476.27676	0.18437
2474.34819	0.18535
2472.41963	0.18649
2470.49106	0.18749
2468.56250	0.18821
2466.63394	0.18893
2464.70537	0.18979
2462.77681	0.19069
2460.84824	0.19163
2458.91968	0.19258
2456.99111	0.19350
2455.06255	0.19446
2453.13398	0.19547
2451.20542	0.19648
2449.27686	0.19738
2447.34829	0.19821
2445.41973	0.19906
2443.49116	0.19993
2441.56260	0.20091
2439.63403	0.20203
2437.70547	0.20306
2435.77690	0.20399
2433.84834	0.20494
2431.91978	0.20594
2429.99121	0.20698
2428.06265	0.20811
2426.13408	0.20932
2424.20552	0.21058
2422.27695	0.21170
2420.34839	0.21252
2418.41982	0.21330
2416.49126	0.21429
2414.56270	0.21539
2412.63413	0.21656
2410.70557	0.21789
2408.77700	0.21930
2406.84844	0.22061
2404.91987	0.22185
2402.99131	0.22305
2401.06274	0.22417
2399.13418	0.22526
2397.20562	0.22644
2395.27705	0.22762
2393.34849	0.22876
2391.41992	0.23010
2389.49136	0.23165
2387.56279	0.23327
2385.63423	0.23507
2383.70566	0.23744
2381.77710	0.24050
2379.84854	0.24415
2377.91997	0.24828
2375.99141	0.25296
2374.06284	0.25843
2372.13428	0.26465
2370.20571	0.27087
2368.27715	0.27640
2366.34858	0.28197
2364.42002	0.28744
2362.49146	0.29147
2360.56289	0.29442
2358.63433	0.29640
2356.70576	0.29649
2354.77720	0.29426
2352.84863	0.29019
2350.92007	0.28578
2348.99150	0.28348
2347.06294	0.28463
2345.13437	0.28943
2343.20581	0.29549
2341.27725	0.29900
2339.34868	0.30025
2337.42012	0.30118
2335.49155	0.30247
2333.56299	0.30330
2331.63442	0.30321
2329.70586	0.30300
2327.77729	0.30364
2325.84873	0.30451
2323.92017	0.30472
2321.99160	0.30458
2320.06304	0.30443
2318.13447	0.30409
2316.20591	0.30372
2314.27734	0.30381
2312.34878	0.30451
2310.42021	0.30543
2308.49165	0.30604
2306.56309	0.30633
2304.63452	0.30670
2302.70596	0.30746
2300.77739	0.30857
2298.84883	0.30988
2296.92026	0.31132
2294.99170	0.31270
2293.06313	0.31388
2291.13457	0.31503
2289.20601	0.31634
2287.27744	0.31774
2285.34888	0.31906
2283.42031	0.32055
2281.49175	0.32249
2279.56318	0.32476
2277.63462	0.32701
2275.70605	0.32912
2273.77749	0.33119
2271.84893	0.33325
2269.92036	0.33526
2267.99180	0.33724
2266.06323	0.33923
2264.13467	0.34123
2262.20610	0.34321
2260.27754	0.34524
2258.34897	0.34739
2256.42041	0.34949
2254.49185	0.35135
2252.56328	0.35320
2250.63472	0.35521
2248.70615	0.35731
2246.77759	0.35953
2244.84902	0.36185
2242.92046	0.36404
2240.99189	0.36618
2239.06333	0.36838
2237.13477	0.37052
2235.20620	0.37261
2233.27764	0.37477
2231.34907	0.37707
2229.42051	0.37937
2227.49194	0.38148
2225.56338	0.38358
2223.63481	0.38596
2221.70625	0.38841
2219.77769	0.39063
2217.84912	0.39264
2215.92056	0.39462
2213.99199	0.39660
2212.06343	0.39861
2210.13486	0.40076
2208.20630	0.40298
2206.27773	0.40508
2204.34917	0.40713
2202.42061	0.40922
2200.49204	0.41126
2198.56348	0.41330
2196.63491	0.41538
2194.70635	0.41741
2192.77778	0.41935
2190.84922	0.42114
2188.92065	0.42287
2186.99209	0.42460
2185.06353	0.42629
2183.13496	0.42801
2181.20640	0.42974
2179.27783	0.43137
2177.34927	0.43300
2175.42070	0.43455
2173.49214	0.43599
2171.56357	0.43741
2169.63501	0.43877
2167.70645	0.44007
2165.77788	0.44132
2163.84932	0.44246
2161.92075	0.44353
2159.99219	0.44460
2158.06362	0.44570
2156.13506	0.44668
2154.20649	0.44739
2152.27793	0.44788
2150.34937	0.44847
2148.42080	0.44930
2146.49224	0.45003
2144.56367	0.45044
2142.63511	0.45071
2140.70654	0.45092
2138.77798	0.45118
2136.84941	0.45151
2134.92085	0.45164
2132.99229	0.45157
2131.06372	0.45143
2129.13516	0.45129
2127.20659	0.45114
2125.27803	0.45091
2123.34946	0.45053
2121.42090	0.45004
2119.49233	0.44939
2117.56377	0.44852
2115.63521	0.44757
2113.70664	0.44665
2111.77808	0.44565
2109.84951	0.44461
2107.92095	0.44362
2105.99238	0.44257
2104.06382	0.44144
2102.13525	0.44028
2100.20669	0.43907
2098.27812	0.43770
2096.34956	0.43614
2094.42100	0.43449
2092.49243	0.43285
2090.56387	0.43124
2088.63530	0.42953
2086.70674	0.42761
2084.77817	0.42555
2082.84961	0.42361
2080.92104	0.42185
2078.99248	0.41999
2077.06392	0.41779
2075.13535	0.41542
2073.20679	0.41312
2071.27822	0.41091
2069.34966	0.40873
2067.42109	0.40647
2065.49253	0.40415
2063.56396	0.40179
2061.63540	0.39936
2059.70684	0.39684
2057.77827	0.39432
2055.84971	0.39180
2053.92114	0.38915
2051.99258	0.38648
2050.06401	0.38389
2048.13545	0.38124
2046.20688	0.37850
2044.27832	0.37589
2042.34976	0.37335
2040.42119	0.37075
2038.49263	0.36806
2036.56406	0.36532
2034.63550	0.36253
2032.70693	0.35967
2030.77837	0.35681
2028.84980	0.35402
2026.92124	0.35124
2024.99268	0.34841
2023.06411	0.34556
2021.13555	0.34274
2019.20698	0.34005
2017.27842	0.33743
2015.34985	0.33475
2013.42129	0.33202
2011.49272	0.32925
2009.56416	0.32655
2007.63560	0.32396
2005.70703	0.32132
2003.77847	0.31855
2001.84990	0.31586
1999.92134	0.31334
1997.99277	0.31079
1996.06421	0.30817
1994.13564	0.30565
1992.20708	0.30330
1990.27852	0.30091
1988.34995	0.29845
1986.42139	0.29597
1984.49282	0.29353
1982.56426	0.29114
1980.63569	0.28876
1978.70713	0.28648
1976.77856	0.28429
1974.85000	0.28209
1972.92144	0.27986
1970.99287	0.27778
1969.06431	0.27589
1967.13574	0.27401
1965.20718	0.27201
1963.27861	0.27001
1961.35005	0.26815
1959.42148	0.26632
1957.49292	0.26444
1955.56436	0.26257
1953.63579	0.26081
1951.70723	0.25911
1949.77866	0.25744
1947.85010	0.25582
1945.92153	0.25440
1943.99297	0.25321
1942.06440	0.25189
1940.13584	0.25024
1938.20728	0.24860
1936.27871	0.24722
1934.35015	0.24601
1932.42158	0.24485
1930.49302	0.24369
1928.56445	0.24252
1926.63589	0.24136
1924.70732	0.24038
1922.77876	0.23956
1920.85020	0.23865
1918.92163	0.23776
1916.99307	0.23690
1915.06450	0.23595
1913.13594	0.23512
1911.20737	0.23455
1909.27881	0.23403
1907.35024	0.23341
1905.42168	0.23266
1903.49312	0.23195
1901.56455	0.23133
1899.63599	0.23075
1897.70742	0.23032
1895.77886	0.23002
1893.85029	0.22972
1891.92173	0.22948
1889.99316	0.22943
1888.06460	0.22923
1886.13604	0.22885
1884.20747	0.22858
1882.27891	0.22842
1880.35034	0.22836
1878.42178	0.22837
1876.49321	0.22836
1874.56465	0.22820
1872.63608	0.22815
1870.70752	0.22848
1868.77896	0.22916
1866.85039	0.22944
1864.92183	0.22923
1862.99326	0.22917
1861.06470	0.22940
1859.13613	0.22985
1857.20757	0.23030
1855.27900	0.23076
1853.35044	0.23116
1851.42187	0.23163
1849.49331	0.23228
1847.56475	0.23309
1845.63618	0.23405
1843.70762	0.23516
1841.77905	0.23591
1839.85049	0.23629
1837.92192	0.23700
1835.99336	0.23794
1834.06479	0.23890
1832.13623	0.23992
1830.20767	0.24135
1828.27910	0.24284
1826.35054	0.24392
1824.42197	0.24512
1822.49341	0.24624
1820.56484	0.24731
1818.63628	0.24863
1816.70771	0.25031
1814.77915	0.25195
1812.85059	0.25362
1810.92202	0.25564
1808.99346	0.25775
1807.06489	0.25974
1805.13633	0.26169
1803.20776	0.26394
1801.27920	0.26653
1799.35063	0.26934
1797.42207	0.27178
1795.49351	0.27411
1793.56494	0.27701
1791.63638	0.28073
1789.70781	0.28399
1787.77925	0.28642
1785.85068	0.28952
1783.92212	0.29317
1781.99355	0.29703
1780.06499	0.30121
1778.13643	0.30557
1776.20786	0.30967
1774.27930	0.31410
1772.35073	0.31999
1770.42217	0.32609
1768.49360	0.33103
1766.56504	0.33581
1764.63647	0.34097
1762.70791	0.34684
1760.77935	0.35406
1758.85078	0.36073
1756.92222	0.36741
1754.99365	0.37463
1753.06509	0.38120
1751.13652	0.38906
1749.20796	0.39893
1747.27939	0.40878
1745.35083	0.41768
1743.42227	0.42725
1741.49370	0.43799
1739.56514	0.45072
1737.63657	0.46339
1735.70801	0.47447
1733.77944	0.49107
1731.85088	0.51103
1729.92231	0.52681
1727.99375	0.54254
1726.06519	0.55952
1724.13662	0.57802
1722.20806	0.59795
1720.27949	0.61660
1718.35093	0.63853
1716.42236	0.67018
1714.49380	0.70023
1712.56523	0.72505
1710.63667	0.74944
1708.70811	0.77576
1706.77954	0.80554
1704.85098	0.84088
1702.92241	0.87275
1700.99385	0.90457
1699.06528	0.95111
1697.13672	0.99415
1695.20815	1.03880
1693.27959	1.08297
1691.35103	1.11943
1689.42246	1.16149
1687.49390	1.20571
1685.56533	1.24864
1683.63677	1.31411
1681.70820	1.38205
1679.77964	1.42637
1677.85107	1.46854
1675.92251	1.51729
1673.99395	1.57768
1672.06538	1.63174
1670.13682	1.68476
1668.20825	1.75339
1666.27969	1.81010
1664.35112	1.85850
1662.42256	1.92038
1660.49399	1.99164
1658.56543	2.04795
1656.63687	2.09318
1654.70830	2.13357
1652.77974	2.19280
1650.85117	2.24884
1648.92261	2.26799
1646.99404	2.28836
1645.06548	2.31055
1643.13691	2.32748
1641.20835	2.33797
1639.27979	2.34564
1637.35122	2.34715
1635.42266	2.34235
1633.49409	2.33328
1631.56553	2.31878
1629.63696	2.29939
1627.70840	2.26802
1625.77983	2.23214
1623.85127	2.18808
1621.92271	2.13461
1619.99414	2.08635
1618.06558	2.03917
1616.13701	1.97400
1614.20845	1.90783
1612.27988	1.85633
1610.35132	1.80343
1608.42275	1.74782
1606.49419	1.69364
1604.56562	1.64313
1602.63706	1.59397
1600.70850	1.54608
1598.77993	1.50197
1596.85137	1.46062
1594.92280	1.42096
1592.99424	1.38318
1591.06567	1.34864
1589.13711	1.31625
1587.20854	1.28636
1585.27998	1.25922
1583.35142	1.23401
1581.42285	1.21095
1579.49429	1.19143
1577.56572	1.17439
1575.63716	1.15479
1573.70859	1.13802
1571.78003	1.12736
1569.85146	1.11705
1567.92290	1.10645
1565.99434	1.09959
1564.06577	1.09567
1562.13721	1.09320
1560.20864	1.09294
1558.28008	1.09802
1556.35151	1.10421
1554.42295	1.10738
1552.49438	1.11028
1550.56582	1.11173
1548.63726	1.11033
1546.70869	1.10547
1544.78013	1.09685
1542.85156	1.08449
1540.92300	1.06514
1538.99443	1.03448
1537.06587	1.01180
1535.13730	0.99643
1533.20874	0.97627
1531.28018	0.95450
1529.35161	0.93813
1527.42305	0.92272
1525.49448	0.90731
1523.56592	0.89453
1521.63735	0.88219
1519.70879	0.86937
1517.78022	0.85837
1515.85166	0.84592
1513.92310	0.83288
1511.99453	0.82139
1510.06597	0.81103
1508.13740	0.80094
1506.20884	0.78559
1504.28027	0.77193
1502.35171	0.76413
1500.42314	0.75735
1498.49458	0.75032
1496.56602	0.74242
1494.63745	0.73436
1492.70889	0.72782
1490.78032	0.72220
1488.85176	0.71629
1486.92319	0.71091
1484.99463	0.70658
1483.06606	0.70325
1481.13750	0.70078
1479.20894	0.69912
1477.28037	0.69839
1475.35181	0.69848
1473.42324	0.69880
1471.49468	0.69792
1469.56611	0.69562
1467.63755	0.69334
1465.70898	0.69172
1463.78042	0.69047
1461.85186	0.68945
1459.92329	0.68901
1457.99473	0.68907
1456.06616	0.68840
1454.13760	0.68628
1452.20903	0.68391
1450.28047	0.68136
1448.35190	0.67857
1446.42334	0.67555
1444.49478	0.67268
1442.56621	0.66990
1440.63765	0.66688
1438.70908	0.66376
1436.78052	0.66001
1434.85195	0.65571
1432.92339	0.65243
1430.99482	0.65034
1429.06626	0.64909
1427.13770	0.64862
1425.20913	0.64890
1423.28057	0.64969
1421.35200	0.65054
1419.42344	0.65137
1417.49487	0.65163
1415.56631	0.65080
1413.63774	0.64999
1411.70918	0.65008
1409.78062	0.65121
1407.85205	0.65288
1405.92349	0.65499
1403.99492	0.65718
1402.06636	0.65811
1400.13779	0.65761
1398.20923	0.65612
1396.28066	0.65372
1394.35210	0.64994
1392.42354	0.64521
1390.49497	0.64062
1388.56641	0.63587
1386.63784	0.63036
1384.70928	0.62471
1382.78071	0.61947
1380.85215	0.61457
1378.92358	0.61037
1376.99502	0.60703
1375.06646	0.60461
1373.13789	0.60302
1371.20933	0.60192
1369.28076	0.60096
1367.35220	0.59975
1365.42363	0.59820
1363.49507	0.59658
1361.56650	0.59500
1359.63794	0.59347
1357.70937	0.59211
1355.78081	0.59086
1353.85225	0.58971
1351.92368	0.58880
1349.99512	0.58814
1348.06655	0.58757
1346.13799	0.58692
1344.20942	0.58625
1342.28086	0.58566
1340.35229	0.58516
1338.42373	0.58464
1336.49517	0.58410
1334.56660	0.58361
1332.63804	0.58342
1330.70947	0.58369
1328.78091	0.58425
1326.85234	0.58493
1324.92378	0.58574
1322.99521	0.58662
1321.06665	0.58740
1319.13809	0.58807
1317.20952	0.58858
1315.28096	0.58880
1313.35239	0.58864
1311.42383	0.58814
1309.49526	0.58744
1307.56670	0.58691
1305.63813	0.58674
1303.70957	0.58654
1301.78101	0.58602
1299.85244	0.58528
1297.92388	0.58432
1295.99531	0.58309
1294.06675	0.58176
1292.13818	0.58050
1290.20962	0.57923
1288.28105	0.57787
1286.35249	0.57641
1284.42393	0.57496
1282.49536	0.57358
1280.56680	0.57207
1278.63823	0.57041
1276.70967	0.56900
1274.78110	0.56797
1272.85254	0.56712
1270.92397	0.56637
1268.99541	0.56557
1267.06685	0.56471
1265.13828	0.56385
1263.20972	0.56296
1261.28115	0.56194
1259.35259	0.56097
1257.42402	0.56040
1255.49546	0.56017
1253.56689	0.56010
1251.63833	0.56023
1249.70977	0.56043
1247.78120	0.56043
1245.85264	0.56021
1243.92407	0.55973
1241.99551	0.55894
1240.06694	0.55763
1238.13838	0.55561
1236.20981	0.55324
1234.28125	0.55092
1232.35269	0.54864
1230.42412	0.54650
1228.49556	0.54461
1226.56699	0.54270
1224.63843	0.54066
1222.70986	0.53871
1220.78130	0.53711
1218.85273	0.53580
1216.92417	0.53447
1214.99561	0.53326
1213.06704	0.53234
1211.13848	0.53160
1209.20991	0.53091
1207.28135	0.53021
1205.35278	0.52941
1203.42422	0.52851
1201.49565	0.52768
1199.56709	0.52695
1197.63853	0.52618
1195.70996	0.52544
1193.78140	0.52489
1191.85283	0.52445
1189.92427	0.52401
1187.99570	0.52366
1186.06714	0.52345
1184.13857	0.52353
1182.21001	0.52410
1180.28145	0.52498
1178.35288	0.52604
1176.42432	0.52737
1174.49575	0.52871
1172.56719	0.52969
1170.63862	0.53013
1168.71006	0.53009
1166.78149	0.52976
1164.85293	0.52929
1162.92437	0.52896
1160.99580	0.52876
1159.06724	0.52833
1157.13867	0.52764
1155.21011	0.52669
1153.28154	0.52535
1151.35298	0.52378
1149.42441	0.52196
1147.49585	0.51971
1145.56729	0.51716
1143.63872	0.51452
1141.71016	0.51205
1139.78159	0.51003
1137.85303	0.50849
1135.92446	0.50729
1133.99590	0.50645
1132.06733	0.50598
1130.13877	0.50545
1128.21021	0.50452
1126.28164	0.50340
1124.35308	0.50252
1122.42451	0.50188
1120.49595	0.50143
1118.56738	0.50139
1116.63882	0.50160
1114.71025	0.50159
1112.78169	0.50140
1110.85312	0.50159
1108.92456	0.50232
1106.99600	0.50334
1105.06743	0.50463
1103.13887	0.50624
1101.21030	0.50798
1099.28174	0.50976
1097.35317	0.51197
1095.42461	0.51491
1093.49604	0.51834
1091.56748	0.52217
1089.63892	0.52691
1087.71035	0.53293
1085.78179	0.54003
1083.85322	0.54749
1081.92466	0.55428
1079.99609	0.55927
1078.06753	0.56185
1076.13896	0.56210
1074.21040	0.55987
1072.28184	0.55515
1070.35327	0.54895
1068.42471	0.54237
1066.49614	0.53585
1064.56758	0.52970
1062.63901	0.52399
1060.71045	0.51863
1058.78188	0.51383
1056.85332	0.50969
1054.92476	0.50609
1052.99619	0.50283
1051.06763	0.49983
1049.13906	0.49731
1047.21050	0.49528
1045.28193	0.49341
1043.35337	0.49177
1041.42480	0.49072
1039.49624	0.48999
1037.56768	0.48914
1035.63911	0.48843
1033.71055	0.48806
1031.78198	0.48766
1029.85342	0.48713
1027.92485	0.48679
1025.99629	0.48651
1024.06772	0.48605
1022.13916	0.48573
1020.21060	0.48582
1018.28203	0.48622
1016.35347	0.48688
1014.42490	0.48769
1012.49634	0.48843
1010.56777	0.48915
1008.63921	0.49006
1006.71064	0.49121
1004.78208	0.49258
1002.85352	0.49441
1000.92495	0.49697
998.99639	0.50035
997.06782	0.50447
995.13926	0.50898
993.21069	0.51329
991.28213	0.51689
989.35356	0.51948
987.42500	0.52079
985.49644	0.52098
983.56787	0.52098
981.63931	0.52148
979.71074	0.52246
977.78218	0.52395
975.85361	0.52607
973.92505	0.52866
971.99648	0.53165
970.06792	0.53494
968.13936	0.53851
966.21079	0.54257
964.28223	0.54689
962.35366	0.55140
960.42510	0.55650
958.49653	0.56209
956.56797	0.56787
954.63940	0.57390
952.71084	0.58011
950.78228	0.58645
948.85371	0.59286
946.92515	0.59906
944.99658	0.60507
943.06802	0.61110
941.13945	0.61720
939.21089	0.62335
937.28232	0.62951
935.35376	0.63549
933.42520	0.64112
931.49663	0.64635
929.56807	0.65139
927.63950	0.65685
925.71094	0.66324
923.78237	0.66996
921.85381	0.67624
919.92524	0.68249
917.99668	0.68921
916.06812	0.69657
914.13955	0.70432
912.21099	0.71159
910.28242	0.71874
908.35386	0.72667
906.42529	0.73464
904.49673	0.74272
902.56816	0.75207
900.63960	0.76159
898.71104	0.77071
896.78247	0.78068
894.85391	0.79129
892.92534	0.80173
890.99678	0.81170
889.06821	0.82151
887.13965	0.83214
885.21108	0.84354
883.28252	0.85513
881.35396	0.86741
879.42539	0.88030
877.49683	0.89269
875.56826	0.90428
873.63970	0.91530
871.71113	0.92601
869.78257	0.93616
867.85400	0.94558
865.92544	0.95503
863.99687	0.96547
862.06831	0.97719
860.13975	0.98959
858.21118	1.00274
856.28262	1.01510
854.35405	1.02495
852.42549	1.03531
850.49692	1.04801
848.56836	1.06120
846.63979	1.07437
844.71123	1.08726
842.78267	1.09781
840.85410	1.10528
838.92554	1.11302
836.99697	1.12508
835.06841	1.13969
833.13984	1.15197
831.21128	1.15958
829.28271	1.16514
827.35415	1.17575
825.42559	1.18926
823.49702	1.19644
821.56846	1.19813
819.63989	1.20310
817.71133	1.21658
815.78276	1.22943
813.85420	1.23262
811.92563	1.23126
809.99707	1.22810
808.06851	1.22702
806.13994	1.23323
804.21138	1.25048
802.28281	1.28107
800.35425	1.29865
798.42568	1.27856
796.49712	1.24655
794.56855	1.22975
792.63999	1.22657
790.71143	1.23091
788.78286	1.23983
786.85430	1.24895
784.92573	1.26423
782.99717	1.25727
781.06860	1.21375
779.14004	1.17497
777.21147	1.14896
775.28291	1.13286
773.35435	1.13475
771.42578	1.14669
769.49722	1.15778
767.56865	1.14502
765.64009	1.09504
763.71152	1.05932
761.78296	1.05908
759.85439	1.08343
757.92583	1.09328
755.99727	1.02848
754.06870	0.94205
752.14014	0.87244
750.21157	0.82036
748.28301	0.78943
746.35444	0.77066
744.42588	0.74543
742.49731	0.72095
740.56875	0.72133
738.64019	0.69285
736.71162	0.58524
734.78306	0.47857
732.85449	0.43871
730.92593	0.42117
728.99736	0.29789
727.06880	0.10517
725.14023	-0.03792
723.21167	-0.11064
721.28311	-0.14717
719.35454	-0.13136
717.42598	-0.19106
715.49741	-0.26519
713.56885	-0.20663
711.64028	-0.08252
709.71172	-0.02928
707.78315	-0.08138
705.85459	-0.09830
703.92603	-0.01200
701.99746	0.05654
700.06890	0.06092
698.14033	0.07890
696.21177	0.08995
694.28320	0.06792
692.35464	0.08334
690.42607	0.13412
688.49751	0.14686
686.56895	0.13877
684.64038	0.15137
682.71182	0.15822
680.78325	0.14227
678.85469	0.13862
676.92612	0.16841
674.99756	0.22907
673.06899	0.23609
671.14043	0.17097
669.21187	0.14287
667.28330	0.12465
665.35474	0.10843
663.42617	0.10508
661.49761	0.05711
659.56904	0.01421
657.64048	0.04779
655.71191	0.10194
653.78335	0.10535
651.85479	0.07768
649.92622	0.07129
647.99766	0.10144
646.06909	0.11935
644.14053	0.12466
642.21196	0.15008
640.28340	0.15458
638.35483	0.11150
636.42627	0.07704
634.49771	0.08033
632.56914	0.10140
630.64058	0.12221
628.71201	0.13982
626.78345	0.16521
624.85488	0.16658
622.92632	0.11550
620.99775	0.08286
619.06919	0.09752
617.14062	0.11699
615.21206	0.11213
613.28350	0.08383
611.35493	0.07750
609.42637	0.10981
607.49780	0.13930
605.56924	0.16095
603.64067	0.15787
601.71211	0.10908
599.78354	0.07026
597.85498	0.09495
595.92642	0.15839
593.99785	0.17557
592.06929	0.16453
590.14072	0.16652
588.21216	0.14661
586.28359	0.08463
584.35503	0.06077
582.42646	0.08202
580.49790	0.11799
578.56934	0.16673
576.64077	0.21015
574.71221	0.21575
572.78364	0.19635
570.85508	0.20703
568.92651	0.23269
566.99795	0.18936
565.06938	0.13089
563.14082	0.14030
561.21226	0.21812
559.28369	0.24537
557.35513	0.19166
555.42656	0.16967
553.49800	0.19320
551.56943	0.21747
549.64087	0.20306
547.71230	0.15051
545.78374	0.09671
543.85518	0.07280
541.92661	0.07431
539.99805	0.09810
538.06948	0.15783
536.14092	0.22823
534.21235	0.22703
532.28379	0.15017
530.35522	0.09665
528.42666	0.11447
526.49810	0.17424
524.56953	0.20871
522.64097	0.19002
520.71240	0.17363
518.78384	0.16042
516.85527	0.11910
514.92671	0.08804
512.99814	0.12210
511.06958	0.17928
509.14102	0.16140
507.21245	0.12659
505.28389	0.10460
503.35532	0.09095
501.42676	0.10478
499.49819	0.12358
