3997.91411	0.06540
3995.98555	0.06561
3994.05698	0.06567
3992.12842	0.06582
3990.19985	0.06604
3988.27129	0.06627
3986.34272	0.06667
3984.41416	0.06715
3982.48560	0.06744
3980.55703	0.06749
3978.62847	0.06753
3976.69990	0.06797
3974.77134	0.06856
3972.84277	0.06868
3970.91421	0.06870
3968.98564	0.06917
3967.05708	0.06966
3965.12852	0.06964
3963.19995	0.06959
3961.27139	0.06984
3959.34282	0.07018
3957.41426	0.07052
3955.48569	0.07062
3953.55713	0.07029
3951.62856	0.06994
3949.70000	0.06993
3947.77144	0.06996
3945.84287	0.06968
3943.91431	0.06941
3941.98574	0.06964
3940.05718	0.06999
3938.12861	0.06985
3936.20005	0.06947
3934.27148	0.06946
3932.34292	0.06977
3930.41436	0.06979
3928.48579	0.06928
3926.55723	0.06904
3924.62866	0.06948
3922.70010	0.06955
3920.77153	0.06922
3918.84297	0.06960
3916.91440	0.07012
3914.98584	0.06945
3913.05728	0.06824
3911.12871	0.06791
3909.20015	0.06828
3907.27158	0.06850
3905.34302	0.06863
3903.41445	0.06919
3901.48589	0.07016
3899.55732	0.07093
3897.62876	0.07073
3895.70020	0.07003
3893.77163	0.06993
3891.84307	0.07036
3889.91450	0.07042
3887.98594	0.07008
3886.05737	0.07024
3884.12881	0.07072
3882.20024	0.07097
3880.27168	0.07125
3878.34312	0.07111
3876.41455	0.07059
3874.48599	0.07059
3872.55742	0.07087
3870.62886	0.07120
3868.70029	0.07228
3866.77173	0.07330
3864.84316	0.07384
3862.91460	0.07421
3860.98604	0.07361
3859.05747	0.07274
3857.12891	0.07278
3855.20034	0.07385
3853.27178	0.07599
3851.34321	0.07750
3849.41465	0.07670
3847.48608	0.07564
3845.55752	0.07543
3843.62896	0.07626
3841.70039	0.07749
3839.77183	0.07861
3837.84326	0.07999
3835.91470	0.08104
3833.98613	0.08105
3832.05757	0.08054
3830.12900	0.08013
3828.20044	0.08045
3826.27187	0.08162
3824.34331	0.08287
3822.41475	0.08431
3820.48618	0.08641
3818.55762	0.08737
3816.62905	0.08752
3814.70049	0.08826
3812.77192	0.08838
3810.84336	0.08810
3808.91479	0.08866
3806.98623	0.09035
3805.05767	0.09224
3803.12910	0.09381
3801.20054	0.09593
3799.27197	0.09736
3797.34341	0.09726
3795.41484	0.09735
3793.48628	0.09797
3791.55771	0.09897
3789.62915	0.10009
3787.70059	0.10092
3785.77202	0.10188
3783.84346	0.10340
3781.91489	0.10520
3779.98633	0.10708
3778.05776	0.10870
3776.12920	0.10955
3774.20063	0.11037
3772.27207	0.11200
3770.34351	0.11480
3768.41494	0.11788
3766.48638	0.11980
3764.55781	0.12140
3762.62925	0.12297
3760.70068	0.12442
3758.77212	0.12687
3756.84355	0.13026
3754.91499	0.13293
3752.98643	0.13520
3751.05786	0.13878
3749.12930	0.14322
3747.20073	0.14603
3745.27217	0.14849
3743.34360	0.15225
3741.41504	0.15525
3739.48647	0.15741
3737.55791	0.16100
3735.62935	0.16702
3733.70078	0.17398
3731.77222	0.17887
3729.84365	0.18213
3727.91509	0.18582
3725.98652	0.19122
3724.05796	0.19769
3722.12939	0.20390
3720.20083	0.21016
3718.27227	0.21663
3716.34370	0.22301
3714.41514	0.22959
3712.48657	0.23867
3710.55801	0.25267
3708.62944	0.26746
3706.70088	0.27862
3704.77231	0.28899
3702.84375	0.30149
3700.91519	0.31770
3698.98662	0.33562
3697.05806	0.35283
3695.12949	0.37065
3693.20093	0.38943
3691.27236	0.41049
3689.34380	0.43816
3687.41523	0.47182
3685.48667	0.50133
3683.55811	0.52664
3681.62954	0.55389
3679.70098	0.58514
3677.77241	0.61860
3675.84385	0.65780
3673.91528	0.70873
3671.98672	0.75077
3670.05815	0.78867
3668.12959	0.83940
3666.20103	0.88612
3664.27246	0.92631
3662.34390	0.96995
3660.41533	1.01684
3658.48677	1.06260
3656.55820	1.11119
3654.62964	1.16523
3652.70107	1.21121
3650.77251	1.25191
3648.84395	1.30635
3646.91538	1.37145
3644.98682	1.42099
3643.05825	1.46027
3641.12969	1.50024
3639.20112	1.54375
3637.27256	1.58731
3635.34399	1.62972
3633.41543	1.67226
3631.48687	1.71231
3629.55830	1.75298
3627.62974	1.80578
3625.70117	1.85583
3623.77261	1.89045
3621.84404	1.92377
3619.91548	1.96216
3617.98691	2.00657
3616.05835	2.04779
3614.12979	2.08342
3612.20122	2.12235
3610.27266	2.16200
3608.34409	2.20174
3606.41553	2.24393
3604.48696	2.28329
3602.55840	2.31843
3600.62983	2.35619
3598.70127	2.39736
3596.77271	2.43776
3594.84414	2.47838
3592.91558	2.51941
3590.98701	2.55785
3589.05845	2.59441
3587.12988	2.63740
3585.20132	2.68509
3583.27275	2.72772
3581.34419	2.76718
3579.41562	2.80740
3577.48706	2.84833
3575.55850	2.88985
3573.62993	2.93252
3571.70137	2.97340
3569.77280	3.01222
3567.84424	3.05401
3565.91567	3.10701
3563.98711	3.15980
3562.05854	3.20020
3560.12998	3.23844
3558.20142	3.28168
3556.27285	3.32781
3554.34429	3.37353
3552.41572	3.42101
3550.48716	3.46952
3548.55859	3.51739
3546.63003	3.56501
3544.70146	3.61173
3542.77290	3.65748
3540.84434	3.70363
3538.91577	3.75048
3536.98721	3.79885
3535.05864	3.85063
3533.13008	3.90195
3531.20151	3.94919
3529.27295	3.99257
3527.34438	4.03693
3525.41582	4.08473
3523.48726	4.13410
3521.55869	4.18499
3519.63013	4.23555
3517.70156	4.28460
3515.77300	4.33080
3513.84443	4.37754
3511.91587	4.42748
3509.98730	4.47765
3508.05874	4.52744
3506.13018	4.57460
3504.20161	4.61705
3502.27305	4.65947
3500.34448	4.70669
3498.41592	4.76093
3496.48735	4.81708
3494.55879	4.86285
3492.63022	4.90261
3490.70166	4.94827
3488.77310	4.99772
3486.84453	5.04908
3484.91597	5.10276
3482.98740	5.15203
3481.05884	5.19733
3479.13027	5.24587
3477.20171	5.29773
3475.27314	5.34732
3473.34458	5.39314
3471.41602	5.44280
3469.48745	5.49320
3467.55889	5.53333
3465.63032	5.57380
3463.70176	5.63045
3461.77319	5.69235
3459.84463	5.74443
3457.91606	5.78553
3455.98750	5.82763
3454.05894	5.88577
3452.13037	5.95176
3450.20181	6.01036
3448.27324	6.06442
3446.34468	6.11731
3444.41611	6.15945
3442.48755	6.19731
3440.55898	6.24435
3438.63042	6.30107
3436.70186	6.36239
3434.77329	6.42191
3432.84473	6.47334
3430.91616	6.51843
3428.98760	6.55653
3427.05903	6.58186
3425.13047	6.62876
3423.20190	6.71138
3421.27334	6.78647
3419.34478	6.82468
3417.41621	6.84899
3415.48765	6.88016
3413.55908	6.91097
3411.63052	6.95064
3409.70195	6.99773
3407.77339	7.04375
3405.84482	7.09424
3403.91626	7.14509
3401.98770	7.16174
3400.05913	7.15526
3398.13057	7.18442
3396.20200	7.25003
3394.27344	7.30501
3392.34487	7.34414
3390.41631	7.40957
3388.48774	7.47111
3386.55918	7.50747
3384.63062	7.55464
3382.70205	7.61470
3380.77349	7.63852
3378.84492	7.62555
3376.91636	7.64225
3374.98779	7.65916
3373.05923	7.66035
3371.13066	7.70229
3369.20210	7.78102
3367.27354	7.81901
3365.34497	7.80533
3363.41641	7.81372
3361.48784	7.88850
3359.55928	8.00505
3357.63071	8.06016
3355.70215	7.98918
3353.77358	7.86538
3351.84502	7.82939
3349.91646	7.87641
3347.98789	7.95886
3346.05933	8.07651
3344.13076	8.12520
3342.20220	8.06617
3340.27363	7.98364
3338.34507	7.95157
3336.41650	8.00731
3334.48794	8.08113
3332.55937	8.07223
3330.63081	8.07473
3328.70225	8.15920
3326.77368	8.25542
3324.84512	8.31214
3322.91655	8.29920
3320.98799	8.22824
3319.05942	8.12561
3317.13086	8.07610
3315.20229	8.12073
3313.27373	8.17951
3311.34517	8.23338
3309.41660	8.29048
3307.48804	8.25677
3305.55947	8.18550
3303.63091	8.19238
3301.70234	8.22356
3299.77378	8.22643
3297.84521	8.23240
3295.91665	8.32896
3293.98809	8.43314
3292.05952	8.38037
3290.13096	8.30635
3288.20239	8.29818
3286.27383	8.28150
3284.34526	8.28797
3282.41670	8.35368
3280.48813	8.36066
3278.55957	8.30996
3276.63101	8.27047
3274.70244	8.26055
3272.77388	8.34845
3270.84531	8.46161
3268.91675	8.49123
3266.98818	8.48785
3265.05962	8.41541
3263.13105	8.29222
3261.20249	8.26772
3259.27393	8.29310
3257.34536	8.29737
3255.41680	8.38806
3253.48823	8.54599
3251.55967	8.57457
3249.63110	8.44597
3247.70254	8.31294
3245.77397	8.27010
3243.84541	8.27364
3241.91685	8.21228
3239.98828	8.15875
3238.05972	8.15162
3236.13115	8.08927
3234.20259	8.05025
3232.27402	8.11174
3230.34546	8.18603
3228.41689	8.24342
3226.48833	8.29357
3224.55977	8.29731
3222.63120	8.29581
3220.70264	8.29834
3218.77407	8.25228
3216.84551	8.23017
3214.91694	8.27265
3212.98838	8.24881
3211.05981	8.14268
3209.13125	8.05132
3207.20269	7.95063
3205.27412	7.85626
3203.34556	7.84692
3201.41699	7.88483
3199.48843	7.86843
3197.55986	7.80279
3195.63130	7.73732
3193.70273	7.68627
3191.77417	7.65383
3189.84561	7.63527
3187.91704	7.60952
3185.98848	7.55628
3184.05991	7.50326
3182.13135	7.45817
3180.20278	7.39082
3178.27422	7.34181
3176.34565	7.31505
3174.41709	7.21769
3172.48853	7.09858
3170.55996	7.05237
3168.63140	7.02353
3166.70283	6.96484
3164.77427	6.90185
3162.84570	6.83222
3160.91714	6.75917
3158.98857	6.70589
3157.06001	6.67078
3155.13145	6.62665
3153.20288	6.55173
3151.27432	6.45613
3149.34575	6.35611
3147.41719	6.27205
3145.48862	6.21444
3143.56006	6.15660
3141.63149	6.09139
3139.70293	6.03249
3137.77437	5.96955
3135.84580	5.89451
3133.91724	5.81698
3131.98867	5.74271
3130.06011	5.67487
3128.13154	5.61123
3126.20298	5.53656
3124.27441	5.45302
3122.34585	5.38110
3120.41729	5.32105
3118.48872	5.25654
3116.56016	5.18551
3114.63159	5.11404
3112.70303	5.04148
3110.77446	4.96447
3108.84590	4.88664
3106.91733	4.81491
3104.98877	4.74579
3103.06021	4.67576
3101.13164	4.60845
3099.20308	4.54470
3097.27451	4.48168
3095.34595	4.41940
3093.41738	4.35702
3091.48882	4.29007
3089.56025	4.22110
3087.63169	4.15490
3085.70312	4.09128
3083.77456	4.03068
3081.84600	3.97163
3079.91743	3.91064
3077.98887	3.84848
3076.06030	3.78594
3074.13174	3.72238
3072.20317	3.66150
3070.27461	3.60628
3068.34604	3.55305
3066.41748	3.49776
3064.48892	3.44080
3062.56035	3.38390
3060.63179	3.32861
3058.70322	3.27466
3056.77466	3.22029
3054.84609	3.16560
3052.91753	3.11190
3050.98896	3.05939
3049.06040	3.00760
3047.13184	2.95772
3045.20327	2.90949
3043.27471	2.86038
3041.34614	2.81124
3039.41758	2.76389
3037.48901	2.71737
3035.56045	2.67110
3033.63188	2.62524
3031.70332	2.57928
3029.77476	2.53409
3027.84619	2.49047
3025.91763	2.44753
3023.98906	2.40481
3022.06050	2.36234
3020.13193	2.32023
3018.20337	2.27869
3016.27480	2.23765
3014.34624	2.19769
3012.41768	2.15916
3010.48911	2.12124
3008.56055	2.08353
3006.63198	2.04648
3004.70342	2.01051
3002.77485	1.97556
3000.84629	1.94130
2998.91772	1.90769
2996.98916	1.87470
2995.06060	1.84231
2993.13203	1.81044
2991.20347	1.77873
2989.27490	1.74746
2987.34634	1.71734
2985.41777	1.68822
2983.48921	1.65929
2981.56064	1.63077
2979.63208	1.60341
2977.70352	1.57657
2975.77495	1.54953
2973.84639	1.52293
2971.91782	1.49707
2969.98926	1.47148
2968.06069	1.44589
2966.13213	1.42051
2964.20356	1.39602
2962.27500	1.37187
2960.34644	1.34687
2958.41787	1.32168
2956.48931	1.29744
2954.56074	1.27431
2952.63218	1.25166
2950.70361	1.22845
2948.77505	1.20489
2946.84648	1.18243
2944.91792	1.16113
2942.98936	1.13968
2941.06079	1.11795
2939.13223	1.09633
2937.20366	1.07428
2935.27510	1.05200
2933.34653	1.03030
2931.41797	1.00918
2929.48940	0.98873
2927.56084	0.96890
2925.63228	0.94898
2923.70371	0.92931
2921.77515	0.91132
2919.84658	0.89540
2917.91802	0.88062
2915.98945	0.86649
2914.06089	0.85268
2912.13232	0.83882
2910.20376	0.82488
2908.27520	0.81108
2906.34663	0.79794
2904.41807	0.78514
2902.48950	0.77193
2900.56094	0.75871
2898.63237	0.74624
2896.70381	0.73427
2894.77524	0.72204
2892.84668	0.70992
2890.91812	0.69871
2888.98955	0.68797
2887.06099	0.67707
2885.13242	0.66655
2883.20386	0.65664
2881.27529	0.64676
2879.34673	0.63668
2877.41816	0.62678
2875.48960	0.61719
2873.56104	0.60711
2871.63247	0.59614
2869.70391	0.58500
2867.77534	0.57385
2865.84678	0.56216
2863.91821	0.55009
2861.98965	0.53827
2860.06108	0.52686
2858.13252	0.51565
2856.20396	0.50452
2854.27539	0.49384
2852.34683	0.48452
2850.41826	0.47704
2848.48970	0.47071
2846.56113	0.46471
2844.63257	0.45917
2842.70400	0.45426
2840.77544	0.44936
2838.84687	0.44405
2836.91831	0.43861
2834.98975	0.43313
2833.06118	0.42769
2831.13262	0.42237
2829.20405	0.41684
2827.27549	0.41102
2825.34692	0.40528
2823.41836	0.39959
2821.48979	0.39392
2819.56123	0.38844
2817.63267	0.38293
2815.70410	0.37723
2813.77554	0.37163
2811.84697	0.36637
2809.91841	0.36126
2807.98984	0.35603
2806.06128	0.35068
2804.13271	0.34545
2802.20415	0.34066
2800.27559	0.33614
2798.34702	0.33148
2796.41846	0.32665
2794.48989	0.32192
2792.56133	0.31741
2790.63276	0.31296
2788.70420	0.30857
2786.77563	0.30454
2784.84707	0.30072
2782.91851	0.29665
2780.98994	0.29246
2779.06138	0.28848
2777.13281	0.28463
2775.20425	0.28088
2773.27568	0.27721
2771.34712	0.27353
2769.41855	0.26997
2767.48999	0.26661
2765.56143	0.26331
2763.63286	0.26005
2761.70430	0.25682
2759.77573	0.25362
2757.84717	0.25052
2755.91860	0.24741
2753.99004	0.24416
2752.06147	0.24109
2750.13291	0.23835
2748.20435	0.23566
2746.27578	0.23295
2744.34722	0.23028
2742.41865	0.22750
2740.49009	0.22480
2738.56152	0.22245
2736.63296	0.22013
2734.70439	0.21753
2732.77583	0.21488
2730.84727	0.21242
2728.91870	0.21021
2726.99014	0.20828
2725.06157	0.20647
2723.13301	0.20446
2721.20444	0.20224
2719.27588	0.20014
2717.34731	0.19827
2715.41875	0.19639
2713.49019	0.19443
2711.56162	0.19260
2709.63306	0.19092
2707.70449	0.18930
2705.77593	0.18775
2703.84736	0.18610
2701.91880	0.18442
2699.99023	0.18299
2698.06167	0.18182
2696.13311	0.18058
2694.20454	0.17914
2692.27598	0.17767
2690.34741	0.17626
2688.41885	0.17498
2686.49028	0.17389
2684.56172	0.17285
2682.63315	0.17177
2680.70459	0.17073
2678.77603	0.16951
2676.84746	0.16822
2674.91890	0.16721
2672.99033	0.16634
2671.06177	0.16536
2669.13320	0.16427
2667.20464	0.16321
2665.27607	0.16231
2663.34751	0.16156
2661.41895	0.16079
2659.49038	0.15996
2657.56182	0.15914
2655.63325	0.15845
2653.70469	0.15781
2651.77612	0.15714
2649.84756	0.15653
2647.91899	0.15589
2645.99043	0.15513
2644.06187	0.15445
2642.13330	0.15394
2640.20474	0.15356
2638.27617	0.15325
2636.34761	0.15293
2634.41904	0.15254
2632.49048	0.15211
2630.56191	0.15166
2628.63335	0.15123
2626.70479	0.15084
2624.77622	0.15051
2622.84766	0.15025
2620.91909	0.15003
2618.99053	0.14991
2617.06196	0.14988
2615.13340	0.14978
2613.20483	0.14958
2611.27627	0.14940
2609.34771	0.14928
2607.41914	0.14916
2605.49058	0.14896
2603.56201	0.14874
2601.63345	0.14869
2599.70488	0.14880
2597.77632	0.14887
2595.84775	0.14891
2593.91919	0.14905
2591.99062	0.14918
2590.06206	0.14920
2588.13350	0.14927
2586.20493	0.14954
2584.27637	0.14987
2582.34780	0.15008
2580.41924	0.15027
2578.49067	0.15058
2576.56211	0.15090
2574.63354	0.15112
2572.70498	0.15125
2570.77642	0.15150
2568.84785	0.15207
2566.91929	0.15272
2564.99072	0.15319
2563.06216	0.15351
2561.13359	0.15377
2559.20503	0.15414
2557.27646	0.15465
2555.34790	0.15515
2553.41934	0.15565
2551.49077	0.15622
2549.56221	0.15682
2547.63364	0.15745
2545.70508	0.15805
2543.77651	0.15856
2541.84795	0.15908
2539.91938	0.15973
2537.99082	0.16041
2536.06226	0.16103
2534.13369	0.16152
2532.20513	0.16201
2530.27656	0.16270
2528.34800	0.16352
2526.41943	0.16434
2524.49087	0.16508
2522.56230	0.16584
2520.63374	0.16666
2518.70518	0.16757
2516.77661	0.16848
2514.84805	0.16909
2512.91948	0.16954
2510.99092	0.17021
2509.06235	0.17108
2507.13379	0.17194
2505.20522	0.17273
2503.27666	0.17352
2501.34810	0.17431
2499.41953	0.17520
2497.49097	0.17615
2495.56240	0.17704
2493.63384	0.17787
2491.70527	0.17869
2489.77671	0.17951
2487.84814	0.18041
2485.91958	0.18143
2483.99102	0.18238
2482.06245	0.18311
2480.13389	0.18380
2478.20532	0.18459
2476.27676	0.18543
2474.34819	0.18639
2472.41963	0.18748
2470.49106	0.18848
2468.56250	0.18929
2466.63394	0.19004
2464.70537	0.19090
2462.77681	0.19190
2460.84824	0.19291
2458.91968	0.19385
2456.99111	0.19482
2455.06255	0.19584
2453.13398	0.19682
2451.20542	0.19778
2449.27686	0.19870
2447.34829	0.19962
2445.41973	0.20065
2443.49116	0.20180
2441.56260	0.20288
2439.63403	0.20379
2437.70547	0.20467
2435.77690	0.20558
2433.84834	0.20650
2431.91978	0.20745
2429.99121	0.20846
2428.06265	0.20950
2426.13408	0.21064
2424.20552	0.21194
2422.27695	0.21324
2420.34839	0.21434
2418.41982	0.21530
2416.49126	0.21633
2414.56270	0.21747
2412.63413	0.21858
2410.70557	0.21974
2408.77700	0.22103
2406.84844	0.22232
2404.91987	0.22352
2402.99131	0.22465
2401.06274	0.22584
2399.13418	0.22716
2397.20562	0.22846
2395.27705	0.22960
2393.34849	0.23068
2391.41992	0.23186
2389.49136	0.23327
2387.56279	0.23496
2385.63423	0.23697
2383.70566	0.23946
2381.77710	0.24264
2379.84854	0.24646
2377.91997	0.25060
2375.99141	0.25501
2374.06284	0.26012
2372.13428	0.26605
2370.20571	0.27213
2368.27715	0.27794
2366.34858	0.28383
2364.42002	0.28951
2362.49146	0.29471
2360.56289	0.29962
2358.63433	0.30224
2356.70576	0.30094
2354.77720	0.29751
2352.84863	0.29336
2350.92007	0.28880
2348.99150	0.28597
2347.06294	0.28679
2345.13437	0.29181
2343.20581	0.29855
2341.27725	0.30253
2339.34868	0.30385
2337.42012	0.30455
2335.49155	0.30547
2333.56299	0.30632
2331.63442	0.30681
2329.70586	0.30686
2327.77729	0.30673
2325.84873	0.30664
2323.92017	0.30676
2321.99160	0.30698
2320.06304	0.30683
2318.13447	0.30613
2316.20591	0.30558
2314.27734	0.30591
2312.34878	0.30691
2310.42021	0.30781
2308.49165	0.30816
2306.56309	0.30827
2304.63452	0.30855
2302.70596	0.30926
2300.77739	0.31052
2298.84883	0.31197
2296.92026	0.31324
2294.99170	0.31442
2293.06313	0.31560
2291.13457	0.31681
2289.20601	0.31821
2287.27744	0.31967
2285.34888	0.32101
2283.42031	0.32248
2281.49175	0.32440
2279.56318	0.32671
2277.63462	0.32909
2275.70605	0.33125
2273.77749	0.33318
2271.84893	0.33504
2269.92036	0.33708
2267.99180	0.33928
2266.06323	0.34135
2264.13467	0.34328
2262.20610	0.34533
2260.27754	0.34744
2258.34897	0.34948
2256.42041	0.35142
2254.49185	0.35340
2252.56328	0.35550
2250.63472	0.35758
2248.70615	0.35961
2246.77759	0.36168
2244.84902	0.36377
2242.92046	0.36592
2240.99189	0.36821
2239.06333	0.37056
2237.13477	0.37280
2235.20620	0.37493
2233.27764	0.37709
2231.34907	0.37944
2229.42051	0.38177
2227.49194	0.38382
2225.56338	0.38582
2223.63481	0.38801
2221.70625	0.39032
2219.77769	0.39258
2217.84912	0.39475
2215.92056	0.39687
2213.99199	0.39897
2212.06343	0.40114
2210.13486	0.40335
2208.20630	0.40544
2206.27773	0.40746
2204.34917	0.40956
2202.42061	0.41167
2200.49204	0.41373
2198.56348	0.41576
2196.63491	0.41770
2194.70635	0.41958
2192.77778	0.42143
2190.84922	0.42323
2188.92065	0.42499
2186.99209	0.42673
2185.06353	0.42852
2183.13496	0.43033
2181.20640	0.43202
2179.27783	0.43358
2177.34927	0.43517
2175.42070	0.43679
2173.49214	0.43834
2171.56357	0.43974
2169.63501	0.44090
2167.70645	0.44203
2165.77788	0.44335
2163.84932	0.44476
2161.92075	0.44605
2159.99219	0.44719
2158.06362	0.44818
2156.13506	0.44900
2154.20649	0.44975
2152.27793	0.45057
2150.34937	0.45138
2148.42080	0.45206
2146.49224	0.45261
2144.56367	0.45309
2142.63511	0.45355
2140.70654	0.45391
2138.77798	0.45401
2136.84941	0.45391
2134.92085	0.45387
2132.99229	0.45395
2131.06372	0.45393
2129.13516	0.45374
2127.20659	0.45340
2125.27803	0.45300
2123.34946	0.45265
2121.42090	0.45230
2119.49233	0.45179
2117.56377	0.45108
2115.63521	0.45024
2113.70664	0.44934
2111.77808	0.44828
2109.84951	0.44712
2107.92095	0.44615
2105.99238	0.44529
2104.06382	0.44427
2102.13525	0.44301
2100.20669	0.44162
2098.27812	0.44019
2096.34956	0.43870
2094.42100	0.43708
2092.49243	0.43538
2090.56387	0.43370
2088.63530	0.43196
2086.70674	0.43000
2084.77817	0.42785
2082.84961	0.42587
2080.92104	0.42411
2078.99248	0.42236
2077.06392	0.42042
2075.13535	0.41813
2073.20679	0.41565
2071.27822	0.41330
2069.34966	0.41106
2067.42109	0.40875
2065.49253	0.40640
2063.56396	0.40402
2061.63540	0.40163
2059.70684	0.39923
2057.77827	0.39679
2055.84971	0.39428
2053.92114	0.39166
2051.99258	0.38896
2050.06401	0.38622
2048.13545	0.38355
2046.20688	0.38102
2044.27832	0.37855
2042.34976	0.37596
2040.42119	0.37322
2038.49263	0.37037
2036.56406	0.36750
2034.63550	0.36470
2032.70693	0.36187
2030.77837	0.35903
2028.84980	0.35625
2026.92124	0.35348
2024.99268	0.35062
2023.06411	0.34771
2021.13555	0.34494
2019.20698	0.34237
2017.27842	0.33979
2015.34985	0.33699
2013.42129	0.33412
2011.49272	0.33137
2009.56416	0.32874
2007.63560	0.32613
2005.70703	0.32345
2003.77847	0.32068
2001.84990	0.31793
1999.92134	0.31536
1997.99277	0.31292
1996.06421	0.31044
1994.13564	0.30796
1992.20708	0.30550
1990.27852	0.30296
1988.34995	0.30049
1986.42139	0.29805
1984.49282	0.29558
1982.56426	0.29319
1980.63569	0.29088
1978.70713	0.28864
1976.77856	0.28648
1974.85000	0.28429
1972.92144	0.28202
1970.99287	0.27984
1969.06431	0.27788
1967.13574	0.27601
1965.20718	0.27399
1963.27861	0.27192
1961.35005	0.27000
1959.42148	0.26822
1957.49292	0.26646
1955.56436	0.26471
1953.63579	0.26297
1951.70723	0.26124
1949.77866	0.25954
1947.85010	0.25786
1945.92153	0.25639
1943.99297	0.25523
1942.06440	0.25392
1940.13584	0.25219
1938.20728	0.25049
1936.27871	0.24908
1934.35015	0.24780
1932.42158	0.24662
1930.49302	0.24547
1928.56445	0.24432
1926.63589	0.24325
1924.70732	0.24236
1922.77876	0.24154
1920.85020	0.24058
1918.92163	0.23968
1916.99307	0.23884
1915.06450	0.23788
1913.13594	0.23701
1911.20737	0.23635
1909.27881	0.23572
1907.35024	0.23502
1905.42168	0.23429
1903.49312	0.23362
1901.56455	0.23307
1899.63599	0.23264
1897.70742	0.23231
1895.77886	0.23199
1893.85029	0.23169
1891.92173	0.23141
1889.99316	0.23124
1888.06460	0.23093
1886.13604	0.23049
1884.20747	0.23018
1882.27891	0.22999
1880.35034	0.22992
1878.42178	0.22993
1876.49321	0.22998
1874.56465	0.22997
1872.63608	0.23006
1870.70752	0.23041
1868.77896	0.23101
1866.85039	0.23126
1864.92183	0.23101
1862.99326	0.23092
1861.06470	0.23118
1859.13613	0.23162
1857.20757	0.23203
1855.27900	0.23250
1853.35044	0.23303
1851.42187	0.23356
1849.49331	0.23408
1847.56475	0.23481
1845.63618	0.23579
1843.70762	0.23685
1841.77905	0.23752
1839.85049	0.23789
1837.92192	0.23862
1835.99336	0.23961
1834.06479	0.24062
1832.13623	0.24169
1830.20767	0.24319
1828.27910	0.24473
1826.35054	0.24577
1824.42197	0.24685
1822.49341	0.24797
1820.56484	0.24915
1818.63628	0.25048
1816.70771	0.25206
1814.77915	0.25368
1812.85059	0.25548
1810.92202	0.25759
1808.99346	0.25967
1807.06489	0.26156
1805.13633	0.26338
1803.20776	0.26554
1801.27920	0.26812
1799.35063	0.27096
1797.42207	0.27349
1795.49351	0.27592
1793.56494	0.27878
1791.63638	0.28240
1789.70781	0.28582
1787.77925	0.28842
1785.85068	0.29158
1783.92212	0.29533
1781.99355	0.29924
1780.06499	0.30336
1778.13643	0.30761
1776.20786	0.31162
1774.27930	0.31607
1772.35073	0.32205
1770.42217	0.32821
1768.49360	0.33326
1766.56504	0.33819
1764.63647	0.34336
1762.70791	0.34915
1760.77935	0.35631
1758.85078	0.36293
1756.92222	0.36959
1754.99365	0.37689
1753.06509	0.38357
1751.13652	0.39145
1749.20796	0.40129
1747.27939	0.41121
1745.35083	0.42025
1743.42227	0.42989
1741.49370	0.44052
1739.56514	0.45311
1737.63657	0.46582
1735.70801	0.47712
1733.77944	0.49390
1731.85088	0.51380
1729.92231	0.52949
1727.99375	0.54517
1726.06519	0.56216
1724.13662	0.58083
1722.20806	0.60097
1720.27949	0.61968
1718.35093	0.64166
1716.42236	0.67359
1714.49380	0.70383
1712.56523	0.72856
1710.63667	0.75272
1708.70811	0.77883
1706.77954	0.80836
1704.85098	0.84323
1702.92241	0.87471
1700.99385	0.90658
1699.06528	0.95294
1697.13672	0.99486
1695.20815	1.03818
1693.27959	1.08149
1691.35103	1.11726
1689.42246	1.15822
1687.49390	1.20114
1685.56533	1.24309
1683.63677	1.30690
1681.70820	1.37190
1679.77964	1.41356
1677.85107	1.45336
1675.92251	1.49976
1673.99395	1.55792
1672.06538	1.61073
1670.13682	1.66238
1668.20825	1.72787
1666.27969	1.78170
1664.35112	1.82789
1662.42256	1.88593
1660.49399	1.95196
1658.56543	2.00456
1656.63687	2.04744
1654.70830	2.08598
1652.77974	2.14034
1650.85117	2.19099
1648.92261	2.21153
1646.99404	2.23707
1645.06548	2.26498
1643.13691	2.28351
1641.20835	2.29296
1639.27979	2.30078
1637.35122	2.30545
1635.42266	2.30188
1633.49409	2.29104
1631.56553	2.27654
1629.63696	2.25763
1627.70840	2.22736
1625.77983	2.19313
1623.85127	2.15010
1621.92271	2.09811
1619.99414	2.05239
1618.06558	2.00754
1616.13701	1.94411
1614.20845	1.87924
1612.27988	1.82964
1610.35132	1.77880
1608.42275	1.72390
1606.49419	1.66970
1604.56562	1.61969
1602.63706	1.57146
1600.70850	1.52415
1598.77993	1.48002
1596.85137	1.43888
1594.92280	1.39958
1592.99424	1.36141
1591.06567	1.32652
1589.13711	1.29448
1587.20854	1.26495
1585.27998	1.23784
1583.35142	1.21237
1581.42285	1.18885
1579.49429	1.16888
1577.56572	1.15138
1575.63716	1.13085
1573.70859	1.11296
1571.78003	1.10153
1569.85146	1.09014
1567.92290	1.07767
1565.99434	1.06848
1564.06577	1.06193
1562.13721	1.05718
1560.20864	1.05497
1558.28008	1.05563
1556.35151	1.05676
1554.42295	1.05653
1552.49438	1.05602
1550.56582	1.05443
1548.63726	1.05074
1546.70869	1.04491
1544.78013	1.03632
1542.85156	1.02460
1540.92300	1.00781
1538.99443	0.98193
1537.06587	0.96186
1535.13730	0.94774
1533.20874	0.92963
1531.28018	0.91074
1529.35161	0.89709
1527.42305	0.88423
1525.49448	0.87093
1523.56592	0.85975
1521.63735	0.84927
1519.70879	0.83844
1517.78022	0.82893
1515.85166	0.81799
1513.92310	0.80643
1511.99453	0.79627
1510.06597	0.78723
1508.13740	0.77872
1506.20884	0.76575
1504.28027	0.75376
1502.35171	0.74688
1500.42314	0.74106
1498.49458	0.73494
1496.56602	0.72780
1494.63745	0.72048
1492.70889	0.71471
1490.78032	0.70993
1488.85176	0.70474
1486.92319	0.69956
1484.99463	0.69520
1483.06606	0.69179
1481.13750	0.68895
1479.20894	0.68676
1477.28037	0.68563
1475.35181	0.68527
1473.42324	0.68494
1471.49468	0.68338
1469.56611	0.68059
1467.63755	0.67792
1465.70898	0.67597
1463.78042	0.67465
1461.85186	0.67384
1459.92329	0.67363
1457.99473	0.67377
1456.06616	0.67299
1454.13760	0.67060
1452.20903	0.66789
1450.28047	0.66530
1448.35190	0.66293
1446.42334	0.66052
1444.49478	0.65816
1442.56621	0.65580
1440.63765	0.65323
1438.70908	0.65062
1436.78052	0.64760
1434.85195	0.64405
1432.92339	0.64118
1430.99482	0.63933
1429.06626	0.63818
1427.13770	0.63746
1425.20913	0.63719
1423.28057	0.63744
1421.35200	0.63798
1419.42344	0.63859
1417.49487	0.63850
1415.56631	0.63731
1413.63774	0.63629
1411.70918	0.63610
1409.78062	0.63666
1407.85205	0.63766
1405.92349	0.63898
1403.99492	0.64019
1402.06636	0.64055
1400.13779	0.64006
1398.20923	0.63877
1396.28066	0.63652
1394.35210	0.63312
1392.42354	0.62905
1390.49497	0.62512
1388.56641	0.62127
1386.63784	0.61701
1384.70928	0.61241
1382.78071	0.60793
1380.85215	0.60381
1378.92358	0.60031
1376.99502	0.59760
1375.06646	0.59579
1373.13789	0.59454
1371.20933	0.59358
1369.28076	0.59267
1367.35220	0.59148
1365.42363	0.59005
1363.49507	0.58863
1361.56650	0.58723
1359.63794	0.58582
1357.70937	0.58453
1355.78081	0.58325
1353.85225	0.58200
1351.92368	0.58112
1349.99512	0.58061
1348.06655	0.58000
1346.13799	0.57919
1344.20942	0.57836
1342.28086	0.57757
1340.35229	0.57692
1338.42373	0.57642
1336.49517	0.57586
1334.56660	0.57531
1332.63804	0.57499
1330.70947	0.57493
1328.78091	0.57504
1326.85234	0.57530
1324.92378	0.57571
1322.99521	0.57623
1321.06665	0.57675
1319.13809	0.57719
1317.20952	0.57742
1315.28096	0.57739
1313.35239	0.57716
1311.42383	0.57670
1309.49526	0.57601
1307.56670	0.57534
1305.63813	0.57486
1303.70957	0.57446
1301.78101	0.57387
1299.85244	0.57288
1297.92388	0.57181
1295.99531	0.57081
1294.06675	0.56976
1292.13818	0.56861
1290.20962	0.56749
1288.28105	0.56645
1286.35249	0.56533
1284.42393	0.56410
1282.49536	0.56289
1280.56680	0.56173
1278.63823	0.56052
1276.70967	0.55934
1274.78110	0.55831
1272.85254	0.55744
1270.92397	0.55677
1268.99541	0.55623
1267.06685	0.55560
1265.13828	0.55487
1263.20972	0.55407
1261.28115	0.55312
1259.35259	0.55216
1257.42402	0.55152
1255.49546	0.55114
1253.56689	0.55085
1251.63833	0.55080
1249.70977	0.55092
1247.78120	0.55097
1245.85264	0.55089
1243.92407	0.55055
1241.99551	0.54984
1240.06694	0.54871
1238.13838	0.54711
1236.20981	0.54523
1234.28125	0.54329
1232.35269	0.54138
1230.42412	0.53957
1228.49556	0.53782
1226.56699	0.53594
1224.63843	0.53414
1222.70986	0.53269
1220.78130	0.53151
1218.85273	0.53036
1216.92417	0.52921
1214.99561	0.52818
1213.06704	0.52730
1211.13848	0.52660
1209.20991	0.52592
1207.28135	0.52510
1205.35278	0.52420
1203.42422	0.52333
1201.49565	0.52251
1199.56709	0.52172
1197.63853	0.52095
1195.70996	0.52029
1193.78140	0.51982
1191.85283	0.51946
1189.92427	0.51916
1187.99570	0.51889
1186.06714	0.51865
1184.13857	0.51865
1182.21001	0.51904
1180.28145	0.51963
1178.35288	0.52043
1176.42432	0.52163
1174.49575	0.52295
1172.56719	0.52374
1170.63862	0.52388
1168.71006	0.52377
1166.78149	0.52357
1164.85293	0.52343
1162.92437	0.52337
1160.99580	0.52317
1159.06724	0.52267
1157.13867	0.52191
1155.21011	0.52091
1153.28154	0.51980
1151.35298	0.51847
1149.42441	0.51661
1147.49585	0.51437
1145.56729	0.51200
1143.63872	0.50952
1141.71016	0.50722
1139.78159	0.50547
1137.85303	0.50416
1135.92446	0.50295
1133.99590	0.50192
1132.06733	0.50115
1130.13877	0.50042
1128.21021	0.49967
1126.28164	0.49880
1124.35308	0.49782
1122.42451	0.49699
1120.49595	0.49644
1118.56738	0.49607
1116.63882	0.49591
1114.71025	0.49593
1112.78169	0.49606
1110.85312	0.49638
1108.92456	0.49701
1106.99600	0.49790
1105.06743	0.49906
1103.13887	0.50063
1101.21030	0.50247
1099.28174	0.50450
1097.35317	0.50701
1095.42461	0.51007
1093.49604	0.51370
1091.56748	0.51798
1089.63892	0.52292
1087.71035	0.52867
1085.78179	0.53543
1083.85322	0.54283
1081.92466	0.54968
1079.99609	0.55491
1078.06753	0.55801
1076.13896	0.55853
1074.21040	0.55636
1072.28184	0.55203
1070.35327	0.54600
1068.42471	0.53890
1066.49614	0.53176
1064.56758	0.52524
1062.63901	0.51962
1060.71045	0.51468
1058.78188	0.50997
1056.85332	0.50558
1054.92476	0.50189
1052.99619	0.49886
1051.06763	0.49634
1049.13906	0.49419
1047.21050	0.49226
1045.28193	0.49062
1043.35337	0.48926
1041.42480	0.48812
1039.49624	0.48735
1037.56768	0.48670
1035.63911	0.48616
1033.71055	0.48607
1031.78198	0.48609
1029.85342	0.48569
1027.92485	0.48496
1025.99629	0.48434
1024.06772	0.48396
1022.13916	0.48364
1020.21060	0.48356
1018.28203	0.48398
1016.35347	0.48468
1014.42490	0.48546
1012.49634	0.48628
1010.56777	0.48721
1008.63921	0.48828
1006.71064	0.48960
1004.78208	0.49125
1002.85352	0.49321
1000.92495	0.49572
998.99639	0.49902
997.06782	0.50290
995.13926	0.50702
993.21069	0.51103
991.28213	0.51436
989.35356	0.51677
987.42500	0.51820
985.49644	0.51884
983.56787	0.51931
981.63931	0.52007
979.71074	0.52119
977.78218	0.52277
975.85361	0.52487
973.92505	0.52741
971.99648	0.53028
970.06792	0.53353
968.13936	0.53729
966.21079	0.54147
964.28223	0.54592
962.35366	0.55072
960.42510	0.55597
958.49653	0.56160
956.56797	0.56746
954.63940	0.57342
952.71084	0.57929
950.78228	0.58523
948.85371	0.59179
946.92515	0.59857
944.99658	0.60483
943.06802	0.61085
941.13945	0.61681
939.21089	0.62268
937.28232	0.62866
935.35376	0.63470
933.42520	0.64093
931.49663	0.64762
929.56807	0.65419
927.63950	0.65987
925.71094	0.66508
923.78237	0.67043
921.85381	0.67630
919.92524	0.68325
917.99668	0.69107
916.06812	0.69885
914.13955	0.70632
912.21099	0.71391
910.28242	0.72205
908.35386	0.73087
906.42529	0.73971
904.49673	0.74805
902.56816	0.75682
900.63960	0.76619
898.71104	0.77534
896.78247	0.78479
894.85391	0.79477
892.92534	0.80502
890.99678	0.81631
889.06821	0.82832
887.13965	0.84004
885.21108	0.85176
883.28252	0.86364
881.35396	0.87487
879.42539	0.88488
877.49683	0.89495
875.56826	0.90665
873.63970	0.91919
871.71113	0.93139
869.78257	0.94292
867.85400	0.95339
865.92544	0.96329
863.99687	0.97462
862.06831	0.98776
860.13975	0.99985
858.21118	1.01045
856.28262	1.02203
854.35405	1.03519
852.42549	1.04796
850.49692	1.06024
848.56836	1.07465
846.63979	1.08997
844.71123	1.10236
842.78267	1.11227
840.85410	1.12194
838.92554	1.13120
836.99697	1.14203
835.06841	1.15639
833.13984	1.16924
831.21128	1.17675
829.28271	1.18387
827.35415	1.19684
825.42559	1.21426
823.49702	1.22940
821.56846	1.23973
819.63989	1.24682
817.71133	1.25242
815.78276	1.26053
813.85420	1.26569
811.92563	1.26314
809.99707	1.26882
808.06851	1.29434
806.13994	1.33097
804.21138	1.35535
802.28281	1.36064
800.35425	1.36905
798.42568	1.39050
796.49712	1.40680
794.56855	1.40976
792.63999	1.42559
790.71143	1.45790
788.78286	1.48448
786.85430	1.51768
784.92573	1.53189
782.99717	1.48528
781.06860	1.43319
779.14004	1.35546
777.21147	1.30123
775.28291	1.31842
773.35435	1.29137
771.42578	1.20494
769.49722	1.17718
767.56865	1.17695
765.64009	1.16123
763.71152	1.12809
761.78296	1.06322
759.85439	0.98799
757.92583	0.94597
755.99727	0.94234
754.06870	0.94868
752.14014	0.93457
750.21157	0.89621
748.28301	0.85384
746.35444	0.81826
744.42588	0.78317
742.49731	0.73930
740.56875	0.67947
738.64019	0.59337
736.71162	0.49970
734.78306	0.43282
732.85449	0.35704
730.92593	0.21359
728.99736	0.04332
727.06880	-0.08786
725.14023	-0.16893
723.21167	-0.24855
721.28311	-0.32252
719.35454	-0.32635
717.42598	-0.34511
715.49741	-0.34981
713.56885	-0.28245
711.64028	-0.22217
709.71172	-0.18859
707.78315	-0.19748
705.85459	-0.22473
703.92603	-0.19488
701.99746	-0.09027
700.06890	0.00152
698.14033	0.02904
696.21177	0.01490
694.28320	0.00178
692.35464	0.01261
690.42607	0.03914
688.49751	0.05383
686.56895	0.04273
684.64038	0.04798
682.71182	0.09855
680.78325	0.12148
678.85469	0.11840
676.92612	0.12875
674.99756	0.12729
673.06899	0.11445
671.14043	0.08786
669.21187	0.06258
667.28330	0.08351
665.35474	0.11215
663.42617	0.08417
661.49761	0.01407
659.56904	-0.04172
657.64048	-0.04360
655.71191	0.01729
653.78335	0.09564
651.85479	0.11514
649.92622	0.06649
647.99766	0.03121
646.06909	0.03556
644.14053	0.07575
642.21196	0.10608
640.28340	0.08649
638.35483	0.05711
636.42627	0.05103
634.49771	0.05301
632.56914	0.03224
630.64058	-0.00113
628.71201	0.00135
626.78345	0.04401
624.85488	0.05433
622.92632	0.04021
620.99775	0.05226
619.06919	0.07855
617.14062	0.09247
615.21206	0.09187
613.28350	0.07476
611.35493	0.04402
609.42637	0.02824
607.49780	0.02898
605.56924	0.04155
603.64067	0.07258
601.71211	0.09269
599.78354	0.07316
597.85498	0.06752
595.92642	0.10992
593.99785	0.10684
592.06929	0.05274
590.14072	0.02273
588.21216	0.03438
586.28359	0.05207
584.35503	0.07751
582.42646	0.10469
580.49790	0.10736
578.56934	0.12783
576.64077	0.17226
574.71221	0.16967
572.78364	0.13944
570.85508	0.11995
568.92651	0.10631
566.99795	0.09717
565.06938	0.08651
563.14082	0.07618
561.21226	0.07004
559.28369	0.06650
557.35513	0.06245
555.42656	0.04789
553.49800	0.04104
551.56943	0.06199
549.64087	0.09084
547.71230	0.10138
545.78374	0.10623
543.85518	0.12692
541.92661	0.12897
539.99805	0.07587
538.06948	0.03200
536.14092	0.03548
534.21235	0.04681
532.28379	0.04294
530.35522	0.04814
528.42666	0.07484
526.49810	0.10157
524.56953	0.10817
522.64097	0.09468
520.71240	0.08719
518.78384	0.08769
516.85527	0.07206
514.92671	0.05582
512.99814	0.07004
511.06958	0.08671
509.14102	0.08619
507.21245	0.08332
505.28389	0.06266
503.35532	0.05616
501.42676	0.07257
499.49819	0.06791
