3997.91411	0.06833
3995.98555	0.06840
3994.05698	0.06885
3992.12842	0.06962
3990.19985	0.07021
3988.27129	0.07036
3986.34272	0.07020
3984.41416	0.06993
3982.48560	0.06992
3980.55703	0.07048
3978.62847	0.07128
3976.69990	0.07179
3974.77134	0.07176
3972.84277	0.07165
3970.91421	0.07197
3968.98564	0.07237
3967.05708	0.07239
3965.12852	0.07208
3963.19995	0.07157
3961.27139	0.07118
3959.34282	0.07135
3957.41426	0.07187
3955.48569	0.07241
3953.55713	0.07295
3951.62856	0.07338
3949.70000	0.07371
3947.77144	0.07376
3945.84287	0.07362
3943.91431	0.07394
3941.98574	0.07443
3940.05718	0.07418
3938.12861	0.07336
3936.20005	0.07268
3934.27148	0.07263
3932.34292	0.07336
3930.41436	0.07413
3928.48579	0.07404
3926.55723	0.07357
3924.62866	0.07326
3922.70010	0.07283
3920.77153	0.07237
3918.84297	0.07248
3916.91440	0.07298
3914.98584	0.07305
3913.05728	0.07249
3911.12871	0.07197
3909.20015	0.07194
3907.27158	0.07235
3905.34302	0.07336
3903.41445	0.07505
3901.48589	0.07656
3899.55732	0.07683
3897.62876	0.07548
3895.70020	0.07367
3893.77163	0.07290
3891.84307	0.07336
3889.91450	0.07345
3887.98594	0.07229
3886.05737	0.07207
3884.12881	0.07343
3882.20024	0.07445
3880.27168	0.07472
3878.34312	0.07430
3876.41455	0.07363
3874.48599	0.07415
3872.55742	0.07555
3870.62886	0.07658
3868.70029	0.07714
3866.77173	0.07735
3864.84316	0.07788
3862.91460	0.07852
3860.98604	0.07767
3859.05747	0.07620
3857.12891	0.07604
3855.20034	0.07762
3853.27178	0.08090
3851.34321	0.08288
3849.41465	0.08101
3847.48608	0.07907
3845.55752	0.07869
3843.62896	0.07986
3841.70039	0.08209
3839.77183	0.08445
3837.84326	0.08628
3835.91470	0.08652
3833.98613	0.08548
3832.05757	0.08487
3830.12900	0.08499
3828.20044	0.08535
3826.27187	0.08612
3824.34331	0.08720
3822.41475	0.08868
3820.48618	0.09091
3818.55762	0.09203
3816.62905	0.09197
3814.70049	0.09183
3812.77192	0.09115
3810.84336	0.09098
3808.91479	0.09220
3806.98623	0.09442
3805.05767	0.09637
3803.12910	0.09801
3801.20054	0.10058
3799.27197	0.10216
3797.34341	0.10158
3795.41484	0.10134
3793.48628	0.10172
3791.55771	0.10222
3789.62915	0.10310
3787.70059	0.10425
3785.77202	0.10562
3783.84346	0.10730
3781.91489	0.10884
3779.98633	0.11063
3778.05776	0.11285
3776.12920	0.11412
3774.20063	0.11484
3772.27207	0.11640
3770.34351	0.11900
3768.41494	0.12184
3766.48638	0.12394
3764.55781	0.12573
3762.62925	0.12728
3760.70068	0.12897
3758.77212	0.13179
3756.84355	0.13493
3754.91499	0.13750
3752.98643	0.14056
3751.05786	0.14483
3749.12930	0.14911
3747.20073	0.15134
3745.27217	0.15319
3743.34360	0.15616
3741.41504	0.15843
3739.48647	0.16007
3737.55791	0.16313
3735.62935	0.16875
3733.70078	0.17490
3731.77222	0.17824
3729.84365	0.18072
3727.91509	0.18435
3725.98652	0.18973
3724.05796	0.19630
3722.12939	0.20300
3720.20083	0.20999
3718.27227	0.21726
3716.34370	0.22453
3714.41514	0.23213
3712.48657	0.24184
3710.55801	0.25483
3708.62944	0.26722
3706.70088	0.27714
3704.77231	0.28763
3702.84375	0.30066
3700.91519	0.31739
3698.98662	0.33547
3697.05806	0.35260
3695.12949	0.37081
3693.20093	0.39067
3691.27236	0.41313
3689.34380	0.44183
3687.41523	0.47500
3685.48667	0.50354
3683.55811	0.52886
3681.62954	0.55678
3679.70098	0.58867
3677.77241	0.62212
3675.84385	0.66122
3673.91528	0.71289
3671.98672	0.75577
3670.05815	0.79453
3668.12959	0.84601
3666.20103	0.89236
3664.27246	0.93175
3662.34390	0.97473
3660.41533	1.02134
3658.48677	1.06719
3656.55820	1.11576
3654.62964	1.16958
3652.70107	1.21528
3650.77251	1.25585
3648.84395	1.31044
3646.91538	1.37507
3644.98682	1.42399
3643.05825	1.46313
3641.12969	1.50273
3639.20112	1.54560
3637.27256	1.58864
3635.34399	1.63085
3633.41543	1.67394
3631.48687	1.71501
3629.55830	1.75612
3627.62974	1.80859
3625.70117	1.85773
3623.77261	1.89089
3621.84404	1.92208
3619.91548	1.95819
3617.98691	2.00314
3616.05835	2.04791
3614.12979	2.08594
3612.20122	2.12525
3610.27266	2.16424
3608.34409	2.20320
3606.41553	2.24512
3604.48696	2.28444
3602.55840	2.31942
3600.62983	2.35653
3598.70127	2.39574
3596.77271	2.43383
3594.84414	2.47402
3592.91558	2.51680
3590.98701	2.55647
3589.05845	2.59307
3587.12988	2.63735
3585.20132	2.68585
3583.27275	2.72667
3581.34419	2.76447
3579.41562	2.80500
3577.48706	2.84850
3575.55850	2.89264
3573.62993	2.93600
3571.70137	2.97667
3569.77280	3.01654
3567.84424	3.06044
3565.91567	3.11227
3563.98711	3.16199
3562.05854	3.20356
3560.12998	3.24358
3558.20142	3.28444
3556.27285	3.32778
3554.34429	3.37392
3552.41572	3.42247
3550.48716	3.47115
3548.55859	3.51648
3546.63003	3.55908
3544.70146	3.60480
3542.77290	3.65292
3540.84434	3.69977
3538.91577	3.74694
3536.98721	3.79301
3535.05864	3.83970
3533.13008	3.88821
3531.20151	3.93653
3529.27295	3.98521
3527.34438	4.03547
3525.41582	4.08414
3523.48726	4.13117
3521.55869	4.17930
3519.63013	4.22596
3517.70156	4.27213
3515.77300	4.32016
3513.84443	4.36866
3511.91587	4.41343
3509.98730	4.45655
3508.05874	4.50516
3506.13018	4.55590
3504.20161	4.60141
3502.27305	4.64662
3500.34448	4.69931
3498.41592	4.75217
3496.48735	4.80000
3494.55879	4.84834
3492.63022	4.89766
3490.70166	4.94623
3488.77310	4.99476
3486.84453	5.04182
3484.91597	5.08912
3482.98740	5.13880
3481.05884	5.18888
3479.13027	5.23587
3477.20171	5.28263
3475.27314	5.33358
3473.34458	5.38174
3471.41602	5.42206
3469.48745	5.46275
3467.55889	5.51149
3465.63032	5.56647
3463.70176	5.61625
3461.77319	5.64787
3459.84463	5.67640
3457.91606	5.72673
3455.98750	5.79375
3454.05894	5.85953
3452.13037	5.92233
3450.20181	5.98180
3448.27324	6.02478
3446.34468	6.06372
3444.41611	6.12002
3442.48755	6.17301
3440.55898	6.20523
3438.63042	6.23951
3436.70186	6.27979
3434.77329	6.32503
3432.84473	6.39231
3430.91616	6.47042
3428.98760	6.53017
3427.05903	6.55982
3425.13047	6.58990
3423.20190	6.64259
3421.27334	6.70341
3419.34478	6.74027
3417.41621	6.75474
3415.48765	6.79948
3413.55908	6.88056
3411.63052	6.95109
3409.70195	6.99926
3407.77339	7.03984
3405.84482	7.05373
3403.91626	7.07243
3401.98770	7.11529
3400.05913	7.15113
3398.13057	7.19128
3396.20200	7.22322
3394.27344	7.23885
3392.34487	7.28008
3390.41631	7.36494
3388.48774	7.44415
3386.55918	7.50334
3384.63062	7.57500
3382.70205	7.62402
3380.77349	7.60620
3378.84492	7.57147
3376.91636	7.57397
3374.98779	7.60453
3373.05923	7.63722
3371.13066	7.61928
3369.20210	7.58633
3367.27354	7.61486
3365.34497	7.68363
3363.41641	7.74886
3361.48784	7.79826
3359.55928	7.83276
3357.63071	7.87648
3355.70215	7.93325
3353.77358	7.92799
3351.84502	7.86312
3349.91646	7.82273
3347.98789	7.80530
3346.05933	7.76650
3344.13076	7.76383
3342.20220	7.81282
3340.27363	7.80533
3338.34507	7.74181
3336.41650	7.72014
3334.48794	7.76735
3332.55937	7.84832
3330.63081	7.95461
3328.70225	7.99996
3326.77368	7.97477
3324.84512	7.96535
3322.91655	7.92516
3320.98799	7.90454
3319.05942	7.93756
3317.13086	7.95227
3315.20229	7.95718
3313.27373	7.97614
3311.34517	7.98370
3309.41660	8.00757
3307.48804	8.05439
3305.55947	8.04890
3303.63091	7.99258
3301.70234	7.95112
3299.77378	7.97008
3297.84521	8.04852
3295.91665	8.16423
3293.98809	8.21125
3292.05952	8.10267
3290.13096	7.95156
3288.20239	7.87918
3286.27383	7.89695
3284.34526	7.95561
3282.41670	8.02511
3280.48813	8.05952
3278.55957	8.02958
3276.63101	8.01262
3274.70244	8.06598
3272.77388	8.08804
3270.84531	8.04070
3268.91675	8.03723
3266.98818	8.07608
3265.05962	8.12266
3263.13105	8.17063
3261.20249	8.19951
3259.27393	8.22336
3257.34536	8.23413
3255.41680	8.20918
3253.48823	8.18662
3251.55967	8.17307
3249.63110	8.11287
3247.70254	8.01280
3245.77397	7.95056
3243.84541	7.94848
3241.91685	7.93551
3239.98828	7.90588
3238.05972	7.91380
3236.13115	7.94164
3234.20259	7.94681
3232.27402	7.94289
3230.34546	7.93617
3228.41689	7.92249
3226.48833	7.92830
3224.55977	7.93405
3222.63120	7.89630
3220.70264	7.80285
3218.77407	7.71443
3216.84551	7.72305
3214.91694	7.83369
3212.98838	7.95135
3211.05981	7.97664
3209.13125	7.88855
3207.20269	7.74937
3205.27412	7.66153
3203.34556	7.65706
3201.41699	7.68994
3199.48843	7.71993
3197.55986	7.73437
3195.63130	7.70240
3193.70273	7.62760
3191.77417	7.54604
3189.84561	7.47138
3187.91704	7.41800
3185.98848	7.38639
3184.05991	7.38399
3182.13135	7.37484
3180.20278	7.28733
3178.27422	7.18214
3176.34565	7.15296
3174.41709	7.16269
3172.48853	7.13453
3170.55996	7.07010
3168.63140	6.99551
3166.70283	6.92147
3164.77427	6.85215
3162.84570	6.78081
3160.91714	6.71395
3158.98857	6.66042
3157.06001	6.60028
3155.13145	6.51969
3153.20288	6.42831
3151.27432	6.34062
3149.34575	6.27590
3147.41719	6.23464
3145.48862	6.18666
3143.56006	6.12445
3141.63149	6.06396
3139.70293	6.00326
3137.77437	5.94405
3135.84580	5.88666
3133.91724	5.81998
3131.98867	5.73885
3130.06011	5.65596
3128.13154	5.58662
3126.20298	5.51609
3124.27441	5.43198
3122.34585	5.34891
3120.41729	5.27700
3118.48872	5.21396
3116.56016	5.15113
3114.63159	5.07985
3112.70303	5.00538
3110.77446	4.93602
3108.84590	4.87066
3106.91733	4.80598
3104.98877	4.73854
3103.06021	4.66738
3101.13164	4.59538
3099.20308	4.52637
3097.27451	4.45972
3095.34595	4.39413
3093.41738	4.33300
3091.48882	4.27707
3089.56025	4.21978
3087.63169	4.15433
3085.70312	4.08672
3083.77456	4.02476
3081.84600	3.96500
3079.91743	3.90452
3077.98887	3.84394
3076.06030	3.78263
3074.13174	3.72116
3072.20317	3.66155
3070.27461	3.60428
3068.34604	3.54843
3066.41748	3.49326
3064.48892	3.43797
3062.56035	3.38268
3060.63179	3.32770
3058.70322	3.27257
3056.77466	3.21807
3054.84609	3.16455
3052.91753	3.11132
3050.98896	3.05840
3049.06040	3.00652
3047.13184	2.95716
3045.20327	2.90956
3043.27471	2.86096
3041.34614	2.81111
3039.41758	2.76221
3037.48901	2.71568
3035.56045	2.67063
3033.63188	2.62561
3031.70332	2.58047
3029.77476	2.53595
3027.84619	2.49222
3025.91763	2.44853
3023.98906	2.40502
3022.06050	2.36277
3020.13193	2.32179
3018.20337	2.28117
3016.27480	2.24037
3014.34624	2.20038
3012.41768	2.16213
3010.48911	2.12440
3008.56055	2.08663
3006.63198	2.05008
3004.70342	2.01478
3002.77485	1.97998
3000.84629	1.94554
2998.91772	1.91142
2996.98916	1.87823
2995.06060	1.84595
2993.13203	1.81366
2991.20347	1.78212
2989.27490	1.75230
2987.34634	1.72345
2985.41777	1.69474
2983.48921	1.66580
2981.56064	1.63716
2979.63208	1.61005
2977.70352	1.58425
2975.77495	1.55843
2973.84639	1.53257
2971.91782	1.50746
2969.98926	1.48297
2968.06069	1.45881
2966.13213	1.43537
2964.20356	1.41209
2962.27500	1.38818
2960.34644	1.36416
2958.41787	1.34043
2956.48931	1.31669
2954.56074	1.29275
2952.63218	1.26890
2950.70361	1.24563
2948.77505	1.22297
2946.84648	1.20040
2944.91792	1.17825
2942.98936	1.15736
2941.06079	1.13753
2939.13223	1.11799
2937.20366	1.09855
2935.27510	1.07917
2933.34653	1.05967
2931.41797	1.04020
2929.48940	1.02112
2927.56084	1.00229
2925.63228	0.98347
2923.70371	0.96502
2921.77515	0.94732
2919.84658	0.93005
2917.91802	0.91252
2915.98945	0.89490
2914.06089	0.87797
2912.13232	0.86195
2910.20376	0.84644
2908.27520	0.83094
2906.34663	0.81548
2904.41807	0.80055
2902.48950	0.78646
2900.56094	0.77296
2898.63237	0.75956
2896.70381	0.74638
2894.77524	0.73352
2892.84668	0.72063
2890.91812	0.70813
2888.98955	0.69660
2887.06099	0.68576
2885.13242	0.67561
2883.20386	0.66613
2881.27529	0.65653
2879.34673	0.64645
2877.41816	0.63647
2875.48960	0.62676
2873.56104	0.61675
2871.63247	0.60621
2869.70391	0.59526
2867.77534	0.58414
2865.84678	0.57311
2863.91821	0.56222
2861.98965	0.55148
2860.06108	0.54099
2858.13252	0.53102
2856.20396	0.52168
2854.27539	0.51248
2852.34683	0.50347
2850.41826	0.49516
2848.48970	0.48713
2846.56113	0.47886
2844.63257	0.47077
2842.70400	0.46332
2840.77544	0.45662
2838.84687	0.45041
2836.91831	0.44432
2834.98975	0.43835
2833.06118	0.43265
2831.13262	0.42691
2829.20405	0.42083
2827.27549	0.41472
2825.34692	0.40893
2823.41836	0.40329
2821.48979	0.39756
2819.56123	0.39172
2817.63267	0.38581
2815.70410	0.38009
2813.77554	0.37472
2811.84697	0.36952
2809.91841	0.36434
2807.98984	0.35911
2806.06128	0.35380
2804.13271	0.34852
2802.20415	0.34357
2800.27559	0.33905
2798.34702	0.33459
2796.41846	0.32987
2794.48989	0.32512
2792.56133	0.32047
2790.63276	0.31592
2788.70420	0.31155
2786.77563	0.30737
2784.84707	0.30327
2782.91851	0.29916
2780.98994	0.29504
2779.06138	0.29108
2777.13281	0.28743
2775.20425	0.28395
2773.27568	0.28036
2771.34712	0.27666
2769.41855	0.27288
2767.48999	0.26909
2765.56143	0.26558
2763.63286	0.26239
2761.70430	0.25918
2759.77573	0.25591
2757.84717	0.25280
2755.91860	0.24988
2753.99004	0.24698
2752.06147	0.24404
2750.13291	0.24114
2748.20435	0.23832
2746.27578	0.23548
2744.34722	0.23266
2742.41865	0.22993
2740.49009	0.22730
2738.56152	0.22470
2736.63296	0.22214
2734.70439	0.21968
2732.77583	0.21728
2730.84727	0.21498
2728.91870	0.21275
2726.99014	0.21053
2725.06157	0.20846
2723.13301	0.20652
2721.20444	0.20460
2719.27588	0.20276
2717.34731	0.20084
2715.41875	0.19871
2713.49019	0.19665
2711.56162	0.19483
2709.63306	0.19314
2707.70449	0.19143
2705.77593	0.18968
2703.84736	0.18807
2701.91880	0.18677
2699.99023	0.18567
2698.06167	0.18441
2696.13311	0.18287
2694.20454	0.18144
2692.27598	0.18028
2690.34741	0.17910
2688.41885	0.17772
2686.49028	0.17617
2684.56172	0.17469
2682.63315	0.17356
2680.70459	0.17262
2678.77603	0.17176
2676.84746	0.17095
2674.91890	0.17000
2672.99033	0.16895
2671.06177	0.16782
2669.13320	0.16658
2667.20464	0.16550
2665.27607	0.16472
2663.34751	0.16393
2661.41895	0.16307
2659.49038	0.16224
2657.56182	0.16145
2655.63325	0.16073
2653.70469	0.16019
2651.77612	0.15970
2649.84756	0.15912
2647.91899	0.15861
2645.99043	0.15823
2644.06187	0.15769
2642.13330	0.15701
2640.20474	0.15643
2638.27617	0.15587
2636.34761	0.15520
2634.41904	0.15462
2632.49048	0.15428
2630.56191	0.15415
2628.63335	0.15396
2626.70479	0.15353
2624.77622	0.15313
2622.84766	0.15293
2620.91909	0.15271
2618.99053	0.15248
2617.06196	0.15237
2615.13340	0.15226
2613.20483	0.15202
2611.27627	0.15180
2609.34771	0.15178
2607.41914	0.15174
2605.49058	0.15136
2603.56201	0.15094
2601.63345	0.15094
2599.70488	0.15121
2597.77632	0.15140
2595.84775	0.15151
2593.91919	0.15160
2591.99062	0.15168
2590.06206	0.15174
2588.13350	0.15183
2586.20493	0.15204
2584.27637	0.15239
2582.34780	0.15280
2580.41924	0.15313
2578.49067	0.15338
2576.56211	0.15367
2574.63354	0.15399
2572.70498	0.15427
2570.77642	0.15460
2568.84785	0.15503
2566.91929	0.15536
2564.99072	0.15549
2563.06216	0.15566
2561.13359	0.15599
2559.20503	0.15642
2557.27646	0.15693
2555.34790	0.15751
2553.41934	0.15814
2551.49077	0.15875
2549.56221	0.15931
2547.63364	0.15994
2545.70508	0.16061
2543.77651	0.16116
2541.84795	0.16165
2539.91938	0.16215
2537.99082	0.16274
2536.06226	0.16347
2534.13369	0.16416
2532.20513	0.16469
2530.27656	0.16529
2528.34800	0.16605
2526.41943	0.16677
2524.49087	0.16741
2522.56230	0.16814
2520.63374	0.16897
2518.70518	0.16967
2516.77661	0.17024
2514.84805	0.17088
2512.91948	0.17171
2510.99092	0.17257
2509.06235	0.17339
2507.13379	0.17429
2505.20522	0.17520
2503.27666	0.17592
2501.34810	0.17665
2499.41953	0.17753
2497.49097	0.17832
2495.56240	0.17907
2493.63384	0.18001
2491.70527	0.18095
2489.77671	0.18168
2487.84814	0.18243
2485.91958	0.18332
2483.99102	0.18425
2482.06245	0.18517
2480.13389	0.18603
2478.20532	0.18679
2476.27676	0.18766
2474.34819	0.18862
2472.41963	0.18948
2470.49106	0.19029
2468.56250	0.19112
2466.63394	0.19193
2464.70537	0.19279
2462.77681	0.19384
2460.84824	0.19501
2458.91968	0.19605
2456.99111	0.19694
2455.06255	0.19785
2453.13398	0.19877
2451.20542	0.19968
2449.27686	0.20067
2447.34829	0.20165
2445.41973	0.20251
2443.49116	0.20332
2441.56260	0.20426
2439.63403	0.20538
2437.70547	0.20649
2435.77690	0.20755
2433.84834	0.20867
2431.91978	0.20975
2429.99121	0.21069
2428.06265	0.21166
2426.13408	0.21283
2424.20552	0.21407
2422.27695	0.21517
2420.34839	0.21619
2418.41982	0.21727
2416.49126	0.21843
2414.56270	0.21961
2412.63413	0.22074
2410.70557	0.22179
2408.77700	0.22283
2406.84844	0.22400
2404.91987	0.22535
2402.99131	0.22664
2401.06274	0.22778
2399.13418	0.22891
2397.20562	0.23010
2395.27705	0.23129
2393.34849	0.23244
2391.41992	0.23365
2389.49136	0.23493
2387.56279	0.23609
2385.63423	0.23698
2383.70566	0.23756
2381.77710	0.23791
2379.84854	0.23818
2377.91997	0.23825
2375.99141	0.23784
2374.06284	0.23737
2372.13428	0.23728
2370.20571	0.23704
2368.27715	0.23617
2366.34858	0.23554
2364.42002	0.23527
2362.49146	0.23452
2360.56289	0.23420
2358.63433	0.23558
2356.70576	0.23899
2354.77720	0.24406
2352.84863	0.24939
2350.92007	0.25345
2348.99150	0.25558
2347.06294	0.25597
2345.13437	0.25530
2343.20581	0.25507
2341.27725	0.25655
2339.34868	0.25865
2337.42012	0.26029
2335.49155	0.26221
2333.56299	0.26470
2331.63442	0.26712
2329.70586	0.26895
2327.77729	0.27045
2325.84873	0.27239
2323.92017	0.27503
2321.99160	0.27775
2320.06304	0.28020
2318.13447	0.28285
2316.20591	0.28552
2314.27734	0.28773
2312.34878	0.28975
2310.42021	0.29210
2308.49165	0.29474
2306.56309	0.29727
2304.63452	0.29945
2302.70596	0.30145
2300.77739	0.30354
2298.84883	0.30577
2296.92026	0.30804
2294.99170	0.31023
2293.06313	0.31246
2291.13457	0.31476
2289.20601	0.31695
2287.27744	0.31900
2285.34888	0.32108
2283.42031	0.32318
2281.49175	0.32530
2279.56318	0.32744
2277.63462	0.32949
2275.70605	0.33147
2273.77749	0.33348
2271.84893	0.33549
2269.92036	0.33753
2267.99180	0.33965
2266.06323	0.34178
2264.13467	0.34385
2262.20610	0.34593
2260.27754	0.34806
2258.34897	0.35028
2256.42041	0.35252
2254.49185	0.35461
2252.56328	0.35660
2250.63472	0.35873
2248.70615	0.36100
2246.77759	0.36327
2244.84902	0.36555
2242.92046	0.36783
2240.99189	0.37004
2239.06333	0.37215
2237.13477	0.37427
2235.20620	0.37647
2233.27764	0.37870
2231.34907	0.38094
2229.42051	0.38321
2227.49194	0.38549
2225.56338	0.38777
2223.63481	0.39004
2221.70625	0.39226
2219.77769	0.39445
2217.84912	0.39664
2215.92056	0.39882
2213.99199	0.40098
2212.06343	0.40310
2210.13486	0.40515
2208.20630	0.40715
2206.27773	0.40923
2204.34917	0.41144
2202.42061	0.41362
2200.49204	0.41569
2198.56348	0.41767
2196.63491	0.41960
2194.70635	0.42149
2192.77778	0.42335
2190.84922	0.42526
2188.92065	0.42714
2186.99209	0.42891
2185.06353	0.43065
2183.13496	0.43241
2181.20640	0.43418
2179.27783	0.43587
2177.34927	0.43743
2175.42070	0.43890
2173.49214	0.44027
2171.56357	0.44150
2169.63501	0.44281
2167.70645	0.44427
2165.77788	0.44560
2163.84932	0.44672
2161.92075	0.44778
2159.99219	0.44882
2158.06362	0.44986
2156.13506	0.45087
2154.20649	0.45174
2152.27793	0.45248
2150.34937	0.45315
2148.42080	0.45380
2146.49224	0.45436
2144.56367	0.45479
2142.63511	0.45520
2140.70654	0.45558
2138.77798	0.45594
2136.84941	0.45617
2134.92085	0.45616
2132.99229	0.45601
2131.06372	0.45592
2129.13516	0.45576
2127.20659	0.45543
2125.27803	0.45509
2123.34946	0.45475
2121.42090	0.45433
2119.49233	0.45382
2117.56377	0.45320
2115.63521	0.45235
2113.70664	0.45134
2111.77808	0.45038
2109.84951	0.44944
2107.92095	0.44835
2105.99238	0.44715
2104.06382	0.44600
2102.13525	0.44482
2100.20669	0.44353
2098.27812	0.44210
2096.34956	0.44059
2094.42100	0.43905
2092.49243	0.43736
2090.56387	0.43553
2088.63530	0.43365
2086.70674	0.43181
2084.77817	0.42998
2082.84961	0.42807
2080.92104	0.42599
2078.99248	0.42383
2077.06392	0.42178
2075.13535	0.41982
2073.20679	0.41777
2071.27822	0.41548
2069.34966	0.41307
2067.42109	0.41065
2065.49253	0.40830
2063.56396	0.40603
2061.63540	0.40371
2059.70684	0.40122
2057.77827	0.39863
2055.84971	0.39600
2053.92114	0.39330
2051.99258	0.39073
2050.06401	0.38832
2048.13545	0.38578
2046.20688	0.38307
2044.27832	0.38039
2042.34976	0.37769
2040.42119	0.37488
2038.49263	0.37207
2036.56406	0.36935
2034.63550	0.36659
2032.70693	0.36374
2030.77837	0.36088
2028.84980	0.35799
2026.92124	0.35519
2024.99268	0.35248
2023.06411	0.34977
2021.13555	0.34705
2019.20698	0.34443
2017.27842	0.34187
2015.34985	0.33904
2013.42129	0.33591
2011.49272	0.33295
2009.56416	0.33034
2007.63560	0.32778
2005.70703	0.32518
2003.77847	0.32258
2001.84990	0.31992
1999.92134	0.31727
1997.99277	0.31473
1996.06421	0.31226
1994.13564	0.30988
1992.20708	0.30745
1990.27852	0.30474
1988.34995	0.30206
1986.42139	0.29962
1984.49282	0.29725
1982.56426	0.29487
1980.63569	0.29254
1978.70713	0.29036
1976.77856	0.28823
1974.85000	0.28605
1972.92144	0.28380
1970.99287	0.28162
1969.06431	0.27965
1967.13574	0.27774
1965.20718	0.27568
1963.27861	0.27368
1961.35005	0.27184
1959.42148	0.27000
1957.49292	0.26823
1955.56436	0.26658
1953.63579	0.26484
1951.70723	0.26303
1949.77866	0.26136
1947.85010	0.25984
1945.92153	0.25842
1943.99297	0.25705
1942.06440	0.25561
1940.13584	0.25406
1938.20728	0.25254
1936.27871	0.25113
1934.35015	0.24982
1932.42158	0.24859
1930.49302	0.24733
1928.56445	0.24611
1926.63589	0.24507
1924.70732	0.24423
1922.77876	0.24343
1920.85020	0.24258
1918.92163	0.24177
1916.99307	0.24094
1915.06450	0.23991
1913.13594	0.23890
1911.20737	0.23822
1909.27881	0.23769
1907.35024	0.23705
1905.42168	0.23636
1903.49312	0.23577
1901.56455	0.23528
1899.63599	0.23482
1897.70742	0.23440
1895.77886	0.23397
1893.85029	0.23354
1891.92173	0.23323
1889.99316	0.23315
1888.06460	0.23287
1886.13604	0.23239
1884.20747	0.23213
1882.27891	0.23204
1880.35034	0.23191
1878.42178	0.23174
1876.49321	0.23169
1874.56465	0.23174
1872.63608	0.23195
1870.70752	0.23238
1868.77896	0.23310
1866.85039	0.23343
1864.92183	0.23310
1862.99326	0.23289
1861.06470	0.23311
1859.13613	0.23358
1857.20757	0.23402
1855.27900	0.23447
1853.35044	0.23486
1851.42187	0.23529
1849.49331	0.23591
1847.56475	0.23675
1845.63618	0.23775
1843.70762	0.23879
1841.77905	0.23942
1839.85049	0.23976
1837.92192	0.24048
1835.99336	0.24136
1834.06479	0.24220
1832.13623	0.24330
1830.20767	0.24510
1828.27910	0.24687
1826.35054	0.24790
1824.42197	0.24894
1822.49341	0.24999
1820.56484	0.25110
1818.63628	0.25247
1816.70771	0.25414
1814.77915	0.25574
1812.85059	0.25743
1810.92202	0.25953
1808.99346	0.26173
1807.06489	0.26369
1805.13633	0.26556
1803.20776	0.26778
1801.27920	0.27037
1799.35063	0.27323
1797.42207	0.27574
1795.49351	0.27809
1793.56494	0.28098
1791.63638	0.28472
1789.70781	0.28804
1787.77925	0.29042
1785.85068	0.29333
1783.92212	0.29688
1781.99355	0.30086
1780.06499	0.30515
1778.13643	0.30943
1776.20786	0.31355
1774.27930	0.31821
1772.35073	0.32441
1770.42217	0.33056
1768.49360	0.33537
1766.56504	0.34017
1764.63647	0.34542
1762.70791	0.35142
1760.77935	0.35898
1758.85078	0.36608
1756.92222	0.37320
1754.99365	0.38086
1753.06509	0.38790
1751.13652	0.39633
1749.20796	0.40685
1747.27939	0.41723
1745.35083	0.42652
1743.42227	0.43636
1741.49370	0.44698
1739.56514	0.45927
1737.63657	0.47162
1735.70801	0.48275
1733.77944	0.49938
1731.85088	0.51871
1729.92231	0.53376
1727.99375	0.54900
1726.06519	0.56564
1724.13662	0.58404
1722.20806	0.60404
1720.27949	0.62280
1718.35093	0.64501
1716.42236	0.67691
1714.49380	0.70657
1712.56523	0.73079
1710.63667	0.75466
1708.70811	0.78054
1706.77954	0.81004
1704.85098	0.84505
1702.92241	0.87632
1700.99385	0.90753
1699.06528	0.95380
1697.13672	0.99674
1695.20815	1.04088
1693.27959	1.08430
1691.35103	1.11996
1689.42246	1.16090
1687.49390	1.20403
1685.56533	1.24622
1683.63677	1.30997
1681.70820	1.37528
1679.77964	1.41785
1677.85107	1.45903
1675.92251	1.50719
1673.99395	1.56609
1672.06538	1.61787
1670.13682	1.66855
1668.20825	1.73453
1666.27969	1.78991
1664.35112	1.83814
1662.42256	1.89899
1660.49399	1.96762
1658.56543	2.02127
1656.63687	2.06413
1654.70830	2.10339
1652.77974	2.16316
1650.85117	2.21809
1648.92261	2.23647
1646.99404	2.25939
1645.06548	2.28663
1643.13691	2.30390
1641.20835	2.31144
1639.27979	2.31737
1637.35122	2.31868
1635.42266	2.31255
1633.49409	2.30139
1631.56553	2.28636
1629.63696	2.26869
1627.70840	2.23984
1625.77983	2.20520
1623.85127	2.16288
1621.92271	2.11098
1619.99414	2.06323
1618.06558	2.01683
1616.13701	1.95216
1614.20845	1.88600
1612.27988	1.83489
1610.35132	1.78232
1608.42275	1.72614
1606.49419	1.67066
1604.56562	1.61904
1602.63706	1.56992
1600.70850	1.52315
1598.77993	1.48006
1596.85137	1.43922
1594.92280	1.39978
1592.99424	1.36186
1591.06567	1.32713
1589.13711	1.29506
1587.20854	1.26554
1585.27998	1.23844
1583.35142	1.21354
1581.42285	1.19142
1579.49429	1.17288
1577.56572	1.15641
1575.63716	1.13696
1573.70859	1.12024
1571.78003	1.10990
1569.85146	1.10009
1567.92290	1.08950
1565.99434	1.08184
1564.06577	1.07722
1562.13721	1.07453
1560.20864	1.07406
1558.28008	1.07778
1556.35151	1.08191
1554.42295	1.08378
1552.49438	1.08565
1550.56582	1.08607
1548.63726	1.08367
1546.70869	1.07831
1544.78013	1.06991
1542.85156	1.05844
1540.92300	1.04105
1538.99443	1.01292
1537.06587	0.99101
1535.13730	0.97574
1533.20874	0.95613
1531.28018	0.93542
1529.35161	0.92049
1527.42305	0.90667
1525.49448	0.89228
1523.56592	0.87991
1521.63735	0.86815
1519.70879	0.85627
1517.78022	0.84597
1515.85166	0.83375
1513.92310	0.82080
1511.99453	0.80963
1510.06597	0.79978
1508.13740	0.79052
1506.20884	0.77641
1504.28027	0.76331
1502.35171	0.75575
1500.42314	0.74942
1498.49458	0.74273
1496.56602	0.73478
1494.63745	0.72661
1492.70889	0.72016
1490.78032	0.71478
1488.85176	0.70897
1486.92319	0.70312
1484.99463	0.69813
1483.06606	0.69429
1481.13750	0.69125
1479.20894	0.68892
1477.28037	0.68767
1475.35181	0.68746
1473.42324	0.68783
1471.49468	0.68709
1469.56611	0.68470
1467.63755	0.68225
1465.70898	0.68051
1463.78042	0.67919
1461.85186	0.67822
1459.92329	0.67811
1457.99473	0.67870
1456.06616	0.67832
1454.13760	0.67600
1452.20903	0.67341
1450.28047	0.67093
1448.35190	0.66861
1446.42334	0.66615
1444.49478	0.66349
1442.56621	0.66085
1440.63765	0.65822
1438.70908	0.65556
1436.78052	0.65232
1434.85195	0.64857
1432.92339	0.64560
1430.99482	0.64369
1429.06626	0.64260
1427.13770	0.64209
1425.20913	0.64222
1423.28057	0.64283
1421.35200	0.64337
1419.42344	0.64393
1417.49487	0.64403
1415.56631	0.64318
1413.63774	0.64256
1411.70918	0.64271
1409.78062	0.64361
1407.85205	0.64515
1405.92349	0.64716
1403.99492	0.64890
1402.06636	0.64940
1400.13779	0.64889
1398.20923	0.64772
1396.28066	0.64557
1394.35210	0.64184
1392.42354	0.63722
1390.49497	0.63296
1388.56641	0.62875
1386.63784	0.62384
1384.70928	0.61874
1382.78071	0.61392
1380.85215	0.60912
1378.92358	0.60480
1376.99502	0.60161
1375.06646	0.59962
1373.13789	0.59824
1371.20933	0.59705
1369.28076	0.59608
1367.35220	0.59487
1365.42363	0.59330
1363.49507	0.59168
1361.56650	0.59001
1359.63794	0.58846
1357.70937	0.58724
1355.78081	0.58611
1353.85225	0.58503
1351.92368	0.58434
1349.99512	0.58395
1348.06655	0.58339
1346.13799	0.58249
1344.20942	0.58156
1342.28086	0.58093
1340.35229	0.58067
1338.42373	0.58038
1336.49517	0.57970
1334.56660	0.57899
1332.63804	0.57876
1330.70947	0.57899
1328.78091	0.57939
1326.85234	0.57983
1324.92378	0.58038
1322.99521	0.58106
1321.06665	0.58180
1319.13809	0.58253
1317.20952	0.58296
1315.28096	0.58297
1313.35239	0.58269
1311.42383	0.58215
1309.49526	0.58150
1307.56670	0.58093
1305.63813	0.58048
1303.70957	0.58016
1301.78101	0.57983
1299.85244	0.57921
1297.92388	0.57829
1295.99531	0.57727
1294.06675	0.57615
1292.13818	0.57483
1290.20962	0.57352
1288.28105	0.57238
1286.35249	0.57119
1284.42393	0.56991
1282.49536	0.56868
1280.56680	0.56733
1278.63823	0.56584
1276.70967	0.56455
1274.78110	0.56361
1272.85254	0.56280
1270.92397	0.56202
1268.99541	0.56132
1267.06685	0.56068
1265.13828	0.55996
1263.20972	0.55912
1261.28115	0.55817
1259.35259	0.55716
1257.42402	0.55633
1255.49546	0.55591
1253.56689	0.55597
1251.63833	0.55622
1249.70977	0.55638
1247.78120	0.55633
1245.85264	0.55602
1243.92407	0.55547
1241.99551	0.55463
1240.06694	0.55344
1238.13838	0.55191
1236.20981	0.55007
1234.28125	0.54788
1232.35269	0.54549
1230.42412	0.54325
1228.49556	0.54129
1226.56699	0.53944
1224.63843	0.53773
1222.70986	0.53620
1220.78130	0.53473
1218.85273	0.53332
1216.92417	0.53218
1214.99561	0.53125
1213.06704	0.53032
1211.13848	0.52953
1209.20991	0.52888
1207.28135	0.52807
1205.35278	0.52699
1203.42422	0.52595
1201.49565	0.52517
1199.56709	0.52438
1197.63853	0.52356
1195.70996	0.52299
1193.78140	0.52272
1191.85283	0.52245
1189.92427	0.52198
1187.99570	0.52155
1186.06714	0.52138
1184.13857	0.52136
1182.21001	0.52172
1180.28145	0.52268
1178.35288	0.52401
1176.42432	0.52523
1174.49575	0.52613
1172.56719	0.52665
1170.63862	0.52674
1168.71006	0.52638
1166.78149	0.52569
1164.85293	0.52494
1162.92437	0.52427
1160.99580	0.52363
1159.06724	0.52297
1157.13867	0.52222
1155.21011	0.52129
1153.28154	0.52012
1151.35298	0.51858
1149.42441	0.51664
1147.49585	0.51437
1145.56729	0.51184
1143.63872	0.50931
1141.71016	0.50706
1139.78159	0.50520
1137.85303	0.50363
1135.92446	0.50220
1133.99590	0.50104
1132.06733	0.50026
1130.13877	0.49957
1128.21021	0.49866
1126.28164	0.49761
1124.35308	0.49659
1122.42451	0.49561
1120.49595	0.49483
1118.56738	0.49436
1116.63882	0.49419
1114.71025	0.49425
1112.78169	0.49442
1110.85312	0.49466
1108.92456	0.49502
1106.99600	0.49576
1105.06743	0.49718
1103.13887	0.49913
1101.21030	0.50102
1099.28174	0.50269
1097.35317	0.50464
1095.42461	0.50737
1093.49604	0.51089
1091.56748	0.51505
1089.63892	0.51977
1087.71035	0.52508
1085.78179	0.53097
1083.85322	0.53711
1081.92466	0.54302
1079.99609	0.54822
1078.06753	0.55178
1076.13896	0.55259
1074.21040	0.55040
1072.28184	0.54586
1070.35327	0.53980
1068.42471	0.53307
1066.49614	0.52642
1064.56758	0.52015
1062.63901	0.51429
1060.71045	0.50898
1058.78188	0.50440
1056.85332	0.50045
1054.92476	0.49688
1052.99619	0.49353
1051.06763	0.49050
1049.13906	0.48796
1047.21050	0.48570
1045.28193	0.48346
1043.35337	0.48145
1041.42480	0.47996
1039.49624	0.47887
1037.56768	0.47801
1035.63911	0.47734
1033.71055	0.47695
1031.78198	0.47689
1029.85342	0.47689
1027.92485	0.47694
1025.99629	0.47721
1024.06772	0.47748
1022.13916	0.47765
1020.21060	0.47811
1018.28203	0.47910
1016.35347	0.48019
1014.42490	0.48105
1012.49634	0.48203
1010.56777	0.48333
1008.63921	0.48466
1006.71064	0.48602
1004.78208	0.48774
1002.85352	0.49009
1000.92495	0.49298
998.99639	0.49618
997.06782	0.49975
995.13926	0.50385
993.21069	0.50813
991.28213	0.51184
989.35356	0.51449
987.42500	0.51610
985.49644	0.51697
983.56787	0.51762
981.63931	0.51876
979.71074	0.52040
977.78218	0.52209
975.85361	0.52402
973.92505	0.52665
971.99648	0.52981
970.06792	0.53318
968.13936	0.53706
966.21079	0.54157
964.28223	0.54628
962.35366	0.55095
960.42510	0.55574
958.49653	0.56090
956.56797	0.56653
954.63940	0.57245
952.71084	0.57838
950.78228	0.58432
948.85371	0.59060
946.92515	0.59726
944.99658	0.60415
943.06802	0.61106
941.13945	0.61764
939.21089	0.62357
937.28232	0.62912
935.35376	0.63481
933.42520	0.64030
931.49663	0.64544
929.56807	0.65128
927.63950	0.65809
925.71094	0.66484
923.78237	0.67083
921.85381	0.67681
919.92524	0.68342
917.99668	0.68996
916.06812	0.69615
914.13955	0.70247
912.21099	0.70996
910.28242	0.71931
908.35386	0.72884
906.42529	0.73690
904.49673	0.74458
902.56816	0.75351
900.63960	0.76327
898.71104	0.77282
896.78247	0.78256
894.85391	0.79269
892.92534	0.80272
890.99678	0.81305
889.06821	0.82417
887.13965	0.83534
885.21108	0.84629
883.28252	0.85853
881.35396	0.87197
879.42539	0.88386
877.49683	0.89337
875.56826	0.90248
873.63970	0.91255
871.71113	0.92386
869.78257	0.93638
867.85400	0.94947
865.92544	0.96148
863.99687	0.97160
862.06831	0.98215
860.13975	0.99521
858.21118	1.00923
856.28262	1.02116
854.35405	1.03070
852.42549	1.04112
850.49692	1.05426
848.56836	1.06694
846.63979	1.07692
844.71123	1.08689
842.78267	1.09931
840.85410	1.11314
838.92554	1.12494
836.99697	1.13400
835.06841	1.14219
833.13984	1.15039
831.21128	1.15998
829.28271	1.17097
827.35415	1.17932
825.42559	1.18580
823.49702	1.19720
821.56846	1.21037
819.63989	1.22016
817.71133	1.23068
815.78276	1.24400
813.85420	1.25282
811.92563	1.25144
809.99707	1.25080
808.06851	1.26042
806.13994	1.26592
804.21138	1.25207
802.28281	1.24367
800.35425	1.26326
798.42568	1.29200
796.49712	1.31150
794.56855	1.32483
792.63999	1.32451
790.71143	1.31374
788.78286	1.30860
786.85430	1.31646
784.92573	1.34674
782.99717	1.34351
781.06860	1.27405
779.14004	1.21513
777.21147	1.19866
775.28291	1.22872
773.35435	1.27856
771.42578	1.27372
769.49722	1.22687
767.56865	1.21786
765.64009	1.26283
763.71152	1.30569
761.78296	1.24408
759.85439	1.13916
757.92583	1.11229
755.99727	1.17062
754.06870	1.22256
752.14014	1.14863
750.21157	1.05639
748.28301	1.05267
746.35444	1.10764
744.42588	1.12837
742.49731	1.09118
740.56875	1.03051
738.64019	0.94319
736.71162	0.87795
734.78306	0.88820
732.85449	0.89012
730.92593	0.80760
728.99736	0.68691
727.06880	0.50209
725.14023	0.32415
723.21167	0.22695
721.28311	0.22562
719.35454	0.26152
717.42598	0.28449
715.49741	0.28835
713.56885	0.25066
711.64028	0.15429
709.71172	0.07812
707.78315	0.09816
705.85459	0.14673
703.92603	0.11013
701.99746	0.07580
700.06890	0.04942
698.14033	-0.04803
696.21177	-0.16015
694.28320	-0.16743
692.35464	-0.09386
690.42607	0.09659
688.49751	0.44144
686.56895	0.38095
684.64038	0.19090
682.71182	0.14421
680.78325	0.20430
678.85469	0.13363
676.92612	-0.05873
674.99756	-0.15475
673.06899	-0.01126
671.14043	0.19084
669.21187	0.16303
667.28330	0.02820
665.35474	0.01052
663.42617	0.07997
661.49761	0.15963
659.56904	0.16634
657.64048	0.10517
655.71191	0.06097
653.78335	0.11917
651.85479	0.25285
649.92622	0.30322
647.99766	0.26623
646.06909	0.20327
644.14053	0.20593
642.21196	0.27316
640.28340	0.25790
638.35483	0.18179
636.42627	0.12730
634.49771	0.13176
632.56914	0.12851
630.64058	0.10199
628.71201	0.08058
626.78345	0.07399
624.85488	0.11635
622.92632	0.16015
620.99775	0.13763
619.06919	0.14038
617.14062	0.21554
615.21206	0.24806
613.28350	0.17022
611.35493	0.12072
609.42637	0.08918
607.49780	0.04659
605.56924	0.02344
603.64067	0.05430
601.71211	0.12318
599.78354	0.17246
597.85498	0.19079
595.92642	0.19052
593.99785	0.20063
592.06929	0.21781
590.14072	0.19710
588.21216	0.14698
586.28359	0.04451
584.35503	-0.06930
582.42646	-0.05867
580.49790	0.04361
578.56934	0.11831
576.64077	0.11494
574.71221	0.03461
572.78364	0.01588
570.85508	0.04269
568.92651	0.02261
566.99795	0.02502
565.06938	0.10526
563.14082	0.14933
561.21226	0.09647
559.28369	0.04174
557.35513	0.08066
555.42656	0.17061
553.49800	0.16329
551.56943	0.14545
549.64087	0.16151
547.71230	0.14620
545.78374	0.09827
543.85518	0.07093
541.92661	0.05949
539.99805	0.07656
538.06948	0.11759
536.14092	0.12076
534.21235	0.09516
532.28379	0.09847
530.35522	0.12610
528.42666	0.14426
526.49810	0.10860
524.56953	0.06149
522.64097	0.06971
520.71240	0.10404
518.78384	0.10832
516.85527	0.11867
514.92671	0.17461
512.99814	0.18156
511.06958	0.13940
509.14102	0.11525
507.21245	0.09156
505.28389	0.05856
503.35532	0.05589
501.42676	0.11048
499.49819	0.16399
