3997.91411	0.06216
3995.98555	0.06238
3994.05698	0.06251
3992.12842	0.06280
3990.19985	0.06336
3988.27129	0.06384
3986.34272	0.06409
3984.41416	0.06419
3982.48560	0.06407
3980.55703	0.06376
3978.62847	0.06359
3976.69990	0.06407
3974.77134	0.06479
3972.84277	0.06495
3970.91421	0.06504
3968.98564	0.06558
3967.05708	0.06607
3965.12852	0.06616
3963.19995	0.06614
3961.27139	0.06607
3959.34282	0.06599
3957.41426	0.06626
3955.48569	0.06658
3953.55713	0.06643
3951.62856	0.06606
3949.70000	0.06613
3947.77144	0.06661
3945.84287	0.06675
3943.91431	0.06649
3941.98574	0.06650
3940.05718	0.06655
3938.12861	0.06619
3936.20005	0.06603
3934.27148	0.06646
3932.34292	0.06707
3930.41436	0.06728
3928.48579	0.06685
3926.55723	0.06653
3924.62866	0.06685
3922.70010	0.06705
3920.77153	0.06683
3918.84297	0.06677
3916.91440	0.06667
3914.98584	0.06597
3913.05728	0.06500
3911.12871	0.06457
3909.20015	0.06482
3907.27158	0.06525
3905.34302	0.06567
3903.41445	0.06644
3901.48589	0.06739
3899.55732	0.06761
3897.62876	0.06692
3895.70020	0.06617
3893.77163	0.06605
3891.84307	0.06645
3889.91450	0.06673
3887.98594	0.06648
3886.05737	0.06640
3884.12881	0.06697
3882.20024	0.06770
3880.27168	0.06821
3878.34312	0.06821
3876.41455	0.06789
3874.48599	0.06796
3872.55742	0.06829
3870.62886	0.06864
3868.70029	0.06947
3866.77173	0.07008
3864.84316	0.07049
3862.91460	0.07104
3860.98604	0.07066
3859.05747	0.06985
3857.12891	0.06970
3855.20034	0.07036
3853.27178	0.07218
3851.34321	0.07341
3849.41465	0.07225
3847.48608	0.07139
3845.55752	0.07182
3843.62896	0.07320
3841.70039	0.07480
3839.77183	0.07595
3837.84326	0.07683
3835.91470	0.07733
3833.98613	0.07732
3832.05757	0.07704
3830.12900	0.07673
3828.20044	0.07701
3826.27187	0.07826
3824.34331	0.07984
3822.41475	0.08135
3820.48618	0.08310
3818.55762	0.08384
3816.62905	0.08383
3814.70049	0.08444
3812.77192	0.08475
3810.84336	0.08479
3808.91479	0.08569
3806.98623	0.08775
3805.05767	0.08997
3803.12910	0.09169
3801.20054	0.09356
3799.27197	0.09457
3797.34341	0.09438
3795.41484	0.09452
3793.48628	0.09494
3791.55771	0.09545
3789.62915	0.09626
3787.70059	0.09737
3785.77202	0.09904
3783.84346	0.10126
3781.91489	0.10333
3779.98633	0.10500
3778.05776	0.10625
3776.12920	0.10685
3774.20063	0.10755
3772.27207	0.10904
3770.34351	0.11157
3768.41494	0.11453
3766.48638	0.11674
3764.55781	0.11862
3762.62925	0.12031
3760.70068	0.12191
3758.77212	0.12417
3756.84355	0.12683
3754.91499	0.12904
3752.98643	0.13134
3751.05786	0.13516
3749.12930	0.14004
3747.20073	0.14317
3745.27217	0.14554
3743.34360	0.14887
3741.41504	0.15169
3739.48647	0.15419
3737.55791	0.15809
3735.62935	0.16386
3733.70078	0.17030
3731.77222	0.17534
3729.84365	0.17895
3727.91509	0.18238
3725.98652	0.18720
3724.05796	0.19341
3722.12939	0.19984
3720.20083	0.20655
3718.27227	0.21316
3716.34370	0.21950
3714.41514	0.22642
3712.48657	0.23613
3710.55801	0.25037
3708.62944	0.26451
3706.70088	0.27521
3704.77231	0.28559
3702.84375	0.29816
3700.91519	0.31467
3698.98662	0.33284
3697.05806	0.34970
3695.12949	0.36697
3693.20093	0.38555
3691.27236	0.40641
3689.34380	0.43343
3687.41523	0.46652
3685.48667	0.49602
3683.55811	0.52153
3681.62954	0.54889
3679.70098	0.57981
3677.77241	0.61255
3675.84385	0.65145
3673.91528	0.70322
3671.98672	0.74581
3670.05815	0.78320
3668.12959	0.83382
3666.20103	0.88094
3664.27246	0.92076
3662.34390	0.96359
3660.41533	1.01009
3658.48677	1.05568
3656.55820	1.10363
3654.62964	1.15720
3652.70107	1.20331
3650.77251	1.24410
3648.84395	1.29933
3646.91538	1.36590
3644.98682	1.41517
3643.05825	1.45333
3641.12969	1.49305
3639.20112	1.53709
3637.27256	1.58084
3635.34399	1.62281
3633.41543	1.66515
3631.48687	1.70600
3629.55830	1.74830
3627.62974	1.80190
3625.70117	1.85053
3623.77261	1.88417
3621.84404	1.91710
3619.91548	1.95409
3617.98691	1.99783
3616.05835	2.04075
3614.12979	2.07767
3612.20122	2.11667
3610.27266	2.15583
3608.34409	2.19475
3606.41553	2.23645
3604.48696	2.27605
3602.55840	2.31194
3600.62983	2.35109
3598.70127	2.39327
3596.77271	2.43279
3594.84414	2.47230
3592.91558	2.51372
3590.98701	2.55213
3589.05845	2.58897
3587.12988	2.63413
3585.20132	2.68103
3583.27275	2.72020
3581.34419	2.75834
3579.41562	2.79864
3577.48706	2.84027
3575.55850	2.88322
3573.62993	2.92767
3571.70137	2.96942
3569.77280	3.00713
3567.84424	3.04756
3565.91567	3.09955
3563.98711	3.15135
3562.05854	3.19358
3560.12998	3.23573
3558.20142	3.28197
3556.27285	3.32941
3554.34429	3.37391
3552.41572	3.41882
3550.48716	3.46690
3548.55859	3.51381
3546.63003	3.55811
3544.70146	3.60546
3542.77290	3.65525
3540.84434	3.70004
3538.91577	3.74247
3536.98721	3.78995
3535.05864	3.84199
3533.13008	3.89157
3531.20151	3.93853
3529.27295	3.98630
3527.34438	4.03641
3525.41582	4.08381
3523.48726	4.12654
3521.55869	4.17234
3519.63013	4.22129
3517.70156	4.26880
3515.77300	4.31744
3513.84443	4.36982
3511.91587	4.41904
3509.98730	4.46375
3508.05874	4.50798
3506.13018	4.55187
3504.20161	4.60020
3502.27305	4.65561
3500.34448	4.70943
3498.41592	4.75572
3496.48735	4.80247
3494.55879	4.85474
3492.63022	4.90774
3490.70166	4.95571
3488.77310	4.99496
3486.84453	5.03275
3484.91597	5.08271
3482.98740	5.14156
3481.05884	5.19691
3479.13027	5.24404
3477.20171	5.28653
3475.27314	5.33286
3473.34458	5.38453
3471.41602	5.43159
3469.48745	5.47096
3467.55889	5.51196
3465.63032	5.56033
3463.70176	5.61501
3461.77319	5.66770
3459.84463	5.71458
3457.91606	5.75984
3455.98750	5.80627
3454.05894	5.86014
3452.13037	5.92246
3450.20181	5.97814
3448.27324	6.01660
3446.34468	6.05612
3444.41611	6.11248
3442.48755	6.16510
3440.55898	6.19922
3438.63042	6.23637
3436.70186	6.28632
3434.77329	6.34667
3432.84473	6.41113
3430.91616	6.46719
3428.98760	6.52081
3427.05903	6.56932
3425.13047	6.61333
3423.20190	6.65807
3421.27334	6.70557
3419.34478	6.76165
3417.41621	6.82229
3415.48765	6.87051
3413.55908	6.89965
3411.63052	6.93806
3409.70195	6.99973
3407.77339	7.05502
3405.84482	7.08247
3403.91626	7.11605
3401.98770	7.17197
3400.05913	7.24422
3398.13057	7.33486
3396.20200	7.41581
3394.27344	7.41554
3392.34487	7.34801
3390.41631	7.35938
3388.48774	7.46237
3386.55918	7.53893
3384.63062	7.55469
3382.70205	7.57386
3380.77349	7.60430
3378.84492	7.63255
3376.91636	7.67425
3374.98779	7.69111
3373.05923	7.68361
3371.13066	7.66380
3369.20210	7.65806
3367.27354	7.69448
3365.34497	7.75805
3363.41641	7.83387
3361.48784	7.88755
3359.55928	7.86895
3357.63071	7.80406
3355.70215	7.77331
3353.77358	7.77289
3351.84502	7.79129
3349.91646	7.80800
3347.98789	7.82949
3346.05933	7.91333
3344.13076	8.01747
3342.20220	8.01747
3340.27363	7.92603
3338.34507	7.89089
3336.41650	7.92958
3334.48794	7.94780
3332.55937	7.90262
3330.63081	7.89842
3328.70225	7.98200
3326.77368	8.06295
3324.84512	8.08078
3322.91655	8.05263
3320.98799	8.03727
3319.05942	8.03380
3317.13086	8.04997
3315.20229	8.12534
3313.27373	8.27010
3311.34517	8.35721
3309.41660	8.28899
3307.48804	8.21139
3305.55947	8.19625
3303.63091	8.19200
3301.70234	8.12279
3299.77378	8.03891
3297.84521	8.00583
3295.91665	7.97760
3293.98809	7.94993
3292.05952	7.96482
3290.13096	8.01567
3288.20239	8.09822
3286.27383	8.19196
3284.34526	8.19409
3282.41670	8.14923
3280.48813	8.16546
3278.55957	8.20595
3276.63101	8.21457
3274.70244	8.18112
3272.77388	8.13192
3270.84531	8.07485
3268.91675	7.94779
3266.98818	7.84809
3265.05962	7.92209
3263.13105	8.08398
3261.20249	8.18839
3259.27393	8.17841
3257.34536	8.11992
3255.41680	8.12754
3253.48823	8.11633
3251.55967	8.06533
3249.63110	8.11687
3247.70254	8.23676
3245.77397	8.31994
3243.84541	8.35418
3241.91685	8.31886
3239.98828	8.29500
3238.05972	8.28999
3236.13115	8.19777
3234.20259	8.07934
3232.27402	8.01204
3230.34546	7.95826
3228.41689	7.90817
3226.48833	7.91749
3224.55977	7.97622
3222.63120	8.03717
3220.70264	8.05208
3218.77407	7.97661
3216.84551	7.93538
3214.91694	8.02687
3212.98838	8.06754
3211.05981	7.96337
3209.13125	7.92083
3207.20269	7.96969
3205.27412	7.96899
3203.34556	7.91570
3201.41699	7.89208
3199.48843	7.85637
3197.55986	7.77064
3195.63130	7.72401
3193.70273	7.72439
3191.77417	7.68191
3189.84561	7.58903
3187.91704	7.50755
3185.98848	7.45814
3184.05991	7.42806
3182.13135	7.40586
3180.20278	7.35852
3178.27422	7.27991
3176.34565	7.19701
3174.41709	7.12028
3172.48853	7.06101
3170.55996	7.01286
3168.63140	6.97317
3166.70283	6.93364
3164.77427	6.87593
3162.84570	6.81589
3160.91714	6.75510
3158.98857	6.69041
3157.06001	6.62988
3155.13145	6.57090
3153.20288	6.50687
3151.27432	6.43553
3149.34575	6.36619
3147.41719	6.29605
3145.48862	6.21759
3143.56006	6.14196
3141.63149	6.07629
3139.70293	6.01108
3137.77437	5.93789
3135.84580	5.86270
3133.91724	5.79578
3131.98867	5.73175
3130.06011	5.66793
3128.13154	5.60861
3126.20298	5.54465
3124.27441	5.46951
3122.34585	5.38512
3120.41729	5.29982
3118.48872	5.22524
3116.56016	5.15852
3114.63159	5.09015
3112.70303	5.02615
3110.77446	4.96853
3108.84590	4.90423
3106.91733	4.83175
3104.98877	4.75818
3103.06021	4.68682
3101.13164	4.61592
3099.20308	4.54397
3097.27451	4.47678
3095.34595	4.41589
3093.41738	4.35478
3091.48882	4.28999
3089.56025	4.22380
3087.63169	4.15967
3085.70312	4.09829
3083.77456	4.03629
3081.84600	3.97220
3079.91743	3.90756
3077.98887	3.84466
3076.06030	3.78577
3074.13174	3.72797
3072.20317	3.66764
3070.27461	3.60678
3068.34604	3.54705
3066.41748	3.48845
3064.48892	3.43261
3062.56035	3.37935
3060.63179	3.32700
3058.70322	3.27421
3056.77466	3.21938
3054.84609	3.16348
3052.91753	3.10946
3050.98896	3.05889
3049.06040	3.01007
3047.13184	2.95972
3045.20327	2.90769
3043.27471	2.85689
3041.34614	2.80881
3039.41758	2.76186
3037.48901	2.71492
3035.56045	2.66905
3033.63188	2.62373
3031.70332	2.57738
3029.77476	2.53117
3027.84619	2.48686
3025.91763	2.44415
3023.98906	2.40228
3022.06050	2.36086
3020.13193	2.31953
3018.20337	2.27818
3016.27480	2.23671
3014.34624	2.19578
3012.41768	2.15688
3010.48911	2.11978
3008.56055	2.08278
3006.63198	2.04556
3004.70342	2.00917
3002.77485	1.97399
3000.84629	1.93949
2998.91772	1.90532
2996.98916	1.87146
2995.06060	1.83841
2993.13203	1.80676
2991.20347	1.77631
2989.27490	1.74631
2987.34634	1.71623
2985.41777	1.68633
2983.48921	1.65713
2981.56064	1.62878
2979.63208	1.60119
2977.70352	1.57399
2975.77495	1.54658
2973.84639	1.51910
2971.91782	1.49252
2969.98926	1.46683
2968.06069	1.44094
2966.13213	1.41485
2964.20356	1.38962
2962.27500	1.36530
2960.34644	1.34132
2958.41787	1.31757
2956.48931	1.29401
2954.56074	1.27103
2952.63218	1.24836
2950.70361	1.22555
2948.77505	1.20323
2946.84648	1.18164
2944.91792	1.16034
2942.98936	1.13887
2941.06079	1.11708
2939.13223	1.09551
2937.20366	1.07437
2935.27510	1.05289
2933.34653	1.03105
2931.41797	1.00967
2929.48940	0.98890
2927.56084	0.96878
2925.63228	0.94925
2923.70371	0.93081
2921.77515	0.91406
2919.84658	0.89825
2917.91802	0.88291
2915.98945	0.86874
2914.06089	0.85548
2912.13232	0.84214
2910.20376	0.82844
2908.27520	0.81454
2906.34663	0.80093
2904.41807	0.78787
2902.48950	0.77507
2900.56094	0.76226
2898.63237	0.74965
2896.70381	0.73748
2894.77524	0.72563
2892.84668	0.71404
2890.91812	0.70270
2888.98955	0.69142
2887.06099	0.68020
2885.13242	0.66954
2883.20386	0.65937
2881.27529	0.64912
2879.34673	0.63910
2877.41816	0.62961
2875.48960	0.61993
2873.56104	0.60957
2871.63247	0.59889
2869.70391	0.58797
2867.77534	0.57685
2865.84678	0.56574
2863.91821	0.55424
2861.98965	0.54220
2860.06108	0.53021
2858.13252	0.51864
2856.20396	0.50751
2854.27539	0.49711
2852.34683	0.48828
2850.41826	0.48090
2848.48970	0.47397
2846.56113	0.46750
2844.63257	0.46190
2842.70400	0.45696
2840.77544	0.45204
2838.84687	0.44682
2836.91831	0.44130
2834.98975	0.43555
2833.06118	0.42979
2831.13262	0.42412
2829.20405	0.41849
2827.27549	0.41290
2825.34692	0.40719
2823.41836	0.40124
2821.48979	0.39523
2819.56123	0.38939
2817.63267	0.38386
2815.70410	0.37851
2813.77554	0.37304
2811.84697	0.36753
2809.91841	0.36213
2807.98984	0.35691
2806.06128	0.35177
2804.13271	0.34666
2802.20415	0.34163
2800.27559	0.33673
2798.34702	0.33201
2796.41846	0.32728
2794.48989	0.32248
2792.56133	0.31795
2790.63276	0.31372
2788.70420	0.30950
2786.77563	0.30526
2784.84707	0.30119
2782.91851	0.29725
2780.98994	0.29327
2779.06138	0.28930
2777.13281	0.28533
2775.20425	0.28135
2773.27568	0.27756
2771.34712	0.27400
2769.41855	0.27039
2767.48999	0.26671
2765.56143	0.26321
2763.63286	0.25998
2761.70430	0.25690
2759.77573	0.25386
2757.84717	0.25078
2755.91860	0.24767
2753.99004	0.24457
2752.06147	0.24148
2750.13291	0.23850
2748.20435	0.23570
2746.27578	0.23298
2744.34722	0.23035
2742.41865	0.22775
2740.49009	0.22514
2738.56152	0.22263
2736.63296	0.22024
2734.70439	0.21785
2732.77583	0.21547
2730.84727	0.21326
2728.91870	0.21120
2726.99014	0.20908
2725.06157	0.20693
2723.13301	0.20489
2721.20444	0.20281
2719.27588	0.20074
2717.34731	0.19885
2715.41875	0.19702
2713.49019	0.19516
2711.56162	0.19328
2709.63306	0.19147
2707.70449	0.18979
2705.77593	0.18814
2703.84736	0.18647
2701.91880	0.18481
2699.99023	0.18318
2698.06167	0.18170
2696.13311	0.18040
2694.20454	0.17910
2692.27598	0.17778
2690.34741	0.17634
2688.41885	0.17474
2686.49028	0.17324
2684.56172	0.17209
2682.63315	0.17121
2680.70459	0.17029
2678.77603	0.16914
2676.84746	0.16798
2674.91890	0.16701
2672.99033	0.16596
2671.06177	0.16467
2669.13320	0.16341
2667.20464	0.16239
2665.27607	0.16154
2663.34751	0.16074
2661.41895	0.15995
2659.49038	0.15917
2657.56182	0.15848
2655.63325	0.15776
2653.70469	0.15694
2651.77612	0.15620
2649.84756	0.15559
2647.91899	0.15482
2645.99043	0.15390
2644.06187	0.15319
2642.13330	0.15268
2640.20474	0.15222
2638.27617	0.15180
2636.34761	0.15140
2634.41904	0.15100
2632.49048	0.15059
2630.56191	0.15011
2628.63335	0.14961
2626.70479	0.14920
2624.77622	0.14894
2622.84766	0.14879
2620.91909	0.14859
2618.99053	0.14830
2617.06196	0.14804
2615.13340	0.14780
2613.20483	0.14759
2611.27627	0.14745
2609.34771	0.14740
2607.41914	0.14748
2605.49058	0.14745
2603.56201	0.14716
2601.63345	0.14689
2599.70488	0.14685
2597.77632	0.14691
2595.84775	0.14701
2593.91919	0.14712
2591.99062	0.14709
2590.06206	0.14695
2588.13350	0.14705
2586.20493	0.14745
2584.27637	0.14787
2582.34780	0.14809
2580.41924	0.14828
2578.49067	0.14864
2576.56211	0.14901
2574.63354	0.14919
2572.70498	0.14933
2570.77642	0.14962
2568.84785	0.15008
2566.91929	0.15065
2564.99072	0.15119
2563.06216	0.15156
2561.13359	0.15182
2559.20503	0.15218
2557.27646	0.15266
2555.34790	0.15316
2553.41934	0.15366
2551.49077	0.15420
2549.56221	0.15475
2547.63364	0.15541
2545.70508	0.15619
2543.77651	0.15688
2541.84795	0.15741
2539.91938	0.15792
2537.99082	0.15849
2536.06226	0.15912
2534.13369	0.15967
2532.20513	0.16016
2530.27656	0.16076
2528.34800	0.16155
2526.41943	0.16242
2524.49087	0.16325
2522.56230	0.16399
2520.63374	0.16466
2518.70518	0.16538
2516.77661	0.16615
2514.84805	0.16683
2512.91948	0.16751
2510.99092	0.16828
2509.06235	0.16905
2507.13379	0.16987
2505.20522	0.17076
2503.27666	0.17166
2501.34810	0.17253
2499.41953	0.17337
2497.49097	0.17419
2495.56240	0.17505
2493.63384	0.17604
2491.70527	0.17704
2489.77671	0.17776
2487.84814	0.17831
2485.91958	0.17906
2483.99102	0.18001
2482.06245	0.18093
2480.13389	0.18176
2478.20532	0.18257
2476.27676	0.18341
2474.34819	0.18436
2472.41963	0.18542
2470.49106	0.18639
2468.56250	0.18717
2466.63394	0.18798
2464.70537	0.18888
2462.77681	0.18973
2460.84824	0.19054
2458.91968	0.19145
2456.99111	0.19255
2455.06255	0.19372
2453.13398	0.19478
2451.20542	0.19571
2449.27686	0.19654
2447.34829	0.19733
2445.41973	0.19826
2443.49116	0.19937
2441.56260	0.20055
2439.63403	0.20171
2437.70547	0.20278
2435.77690	0.20375
2433.84834	0.20458
2431.91978	0.20538
2429.99121	0.20630
2428.06265	0.20736
2426.13408	0.20847
2424.20552	0.20963
2422.27695	0.21085
2420.34839	0.21197
2418.41982	0.21291
2416.49126	0.21394
2414.56270	0.21508
2412.63413	0.21611
2410.70557	0.21719
2408.77700	0.21847
2406.84844	0.21979
2404.91987	0.22112
2402.99131	0.22248
2401.06274	0.22370
2399.13418	0.22481
2397.20562	0.22589
2395.27705	0.22693
2393.34849	0.22802
2391.41992	0.22934
2389.49136	0.23088
2387.56279	0.23253
2385.63423	0.23435
2383.70566	0.23674
2381.77710	0.23986
2379.84854	0.24349
2377.91997	0.24759
2375.99141	0.25233
2374.06284	0.25784
2372.13428	0.26397
2370.20571	0.27025
2368.27715	0.27601
2366.34858	0.28167
2364.42002	0.28734
2362.49146	0.29160
2360.56289	0.29470
2358.63433	0.29707
2356.70576	0.29699
2354.77720	0.29405
2352.84863	0.28968
2350.92007	0.28522
2348.99150	0.28266
2347.06294	0.28350
2345.13437	0.28839
2343.20581	0.29522
2341.27725	0.29938
2339.34868	0.30031
2337.42012	0.30041
2335.49155	0.30126
2333.56299	0.30248
2331.63442	0.30323
2329.70586	0.30292
2327.77729	0.30219
2325.84873	0.30219
2323.92017	0.30280
2321.99160	0.30331
2320.06304	0.30351
2318.13447	0.30331
2316.20591	0.30285
2314.27734	0.30283
2312.34878	0.30355
2310.42021	0.30454
2308.49165	0.30524
2306.56309	0.30569
2304.63452	0.30611
2302.70596	0.30674
2300.77739	0.30782
2298.84883	0.30915
2296.92026	0.31050
2294.99170	0.31189
2293.06313	0.31328
2291.13457	0.31459
2289.20601	0.31588
2287.27744	0.31728
2285.34888	0.31867
2283.42031	0.32015
2281.49175	0.32201
2279.56318	0.32424
2277.63462	0.32657
2275.70605	0.32884
2273.77749	0.33095
2271.84893	0.33290
2269.92036	0.33487
2267.99180	0.33692
2266.06323	0.33902
2264.13467	0.34104
2262.20610	0.34298
2260.27754	0.34500
2258.34897	0.34707
2256.42041	0.34910
2254.49185	0.35104
2252.56328	0.35300
2250.63472	0.35505
2248.70615	0.35713
2246.77759	0.35934
2244.84902	0.36165
2242.92046	0.36384
2240.99189	0.36591
2239.06333	0.36801
2237.13477	0.37023
2235.20620	0.37252
2233.27764	0.37489
2231.34907	0.37732
2229.42051	0.37960
2227.49194	0.38164
2225.56338	0.38367
2223.63481	0.38583
2221.70625	0.38802
2219.77769	0.39013
2217.84912	0.39223
2215.92056	0.39450
2213.99199	0.39677
2212.06343	0.39887
2210.13486	0.40095
2208.20630	0.40301
2206.27773	0.40500
2204.34917	0.40703
2202.42061	0.40912
2200.49204	0.41123
2198.56348	0.41333
2196.63491	0.41527
2194.70635	0.41708
2192.77778	0.41894
2190.84922	0.42092
2188.92065	0.42284
2186.99209	0.42460
2185.06353	0.42628
2183.13496	0.42801
2181.20640	0.42980
2179.27783	0.43152
2177.34927	0.43316
2175.42070	0.43473
2173.49214	0.43618
2171.56357	0.43751
2169.63501	0.43875
2167.70645	0.43991
2165.77788	0.44112
2163.84932	0.44248
2161.92075	0.44377
2159.99219	0.44485
2158.06362	0.44579
2156.13506	0.44665
2154.20649	0.44742
2152.27793	0.44811
2150.34937	0.44883
2148.42080	0.44961
2146.49224	0.45029
2144.56367	0.45085
2142.63511	0.45132
2140.70654	0.45160
2138.77798	0.45174
2136.84941	0.45180
2134.92085	0.45184
2132.99229	0.45189
2131.06372	0.45189
2129.13516	0.45174
2127.20659	0.45146
2125.27803	0.45115
2123.34946	0.45069
2121.42090	0.45004
2119.49233	0.44938
2117.56377	0.44883
2115.63521	0.44825
2113.70664	0.44742
2111.77808	0.44630
2109.84951	0.44515
2107.92095	0.44408
2105.99238	0.44302
2104.06382	0.44199
2102.13525	0.44081
2100.20669	0.43940
2098.27812	0.43800
2096.34956	0.43657
2094.42100	0.43489
2092.49243	0.43312
2090.56387	0.43149
2088.63530	0.42982
2086.70674	0.42791
2084.77817	0.42583
2082.84961	0.42388
2080.92104	0.42205
2078.99248	0.42004
2077.06392	0.41778
2075.13535	0.41551
2073.20679	0.41334
2071.27822	0.41116
2069.34966	0.40891
2067.42109	0.40667
2065.49253	0.40443
2063.56396	0.40216
2061.63540	0.39984
2059.70684	0.39737
2057.77827	0.39475
2055.84971	0.39214
2053.92114	0.38954
2051.99258	0.38695
2050.06401	0.38436
2048.13545	0.38168
2046.20688	0.37893
2044.27832	0.37622
2042.34976	0.37352
2040.42119	0.37075
2038.49263	0.36800
2036.56406	0.36532
2034.63550	0.36267
2032.70693	0.35996
2030.77837	0.35716
2028.84980	0.35430
2026.92124	0.35147
2024.99268	0.34867
2023.06411	0.34585
2021.13555	0.34303
2019.20698	0.34034
2017.27842	0.33773
2015.34985	0.33500
2013.42129	0.33220
2011.49272	0.32946
2009.56416	0.32679
2007.63560	0.32413
2005.70703	0.32137
2003.77847	0.31863
2001.84990	0.31605
1999.92134	0.31358
1997.99277	0.31109
1996.06421	0.30857
1994.13564	0.30609
1992.20708	0.30361
1990.27852	0.30102
1988.34995	0.29844
1986.42139	0.29603
1984.49282	0.29373
1982.56426	0.29138
1980.63569	0.28892
1978.70713	0.28657
1976.77856	0.28443
1974.85000	0.28239
1972.92144	0.28026
1970.99287	0.27809
1969.06431	0.27599
1967.13574	0.27395
1965.20718	0.27191
1963.27861	0.26995
1961.35005	0.26810
1959.42148	0.26628
1957.49292	0.26446
1955.56436	0.26262
1953.63579	0.26087
1951.70723	0.25921
1949.77866	0.25757
1947.85010	0.25593
1945.92153	0.25447
1943.99297	0.25324
1942.06440	0.25190
1940.13584	0.25023
1938.20728	0.24861
1936.27871	0.24727
1934.35015	0.24606
1932.42158	0.24490
1930.49302	0.24373
1928.56445	0.24258
1926.63589	0.24152
1924.70732	0.24065
1922.77876	0.23986
1920.85020	0.23894
1918.92163	0.23801
1916.99307	0.23710
1915.06450	0.23613
1913.13594	0.23527
1911.20737	0.23467
1909.27881	0.23412
1907.35024	0.23351
1905.42168	0.23280
1903.49312	0.23203
1901.56455	0.23133
1899.63599	0.23075
1897.70742	0.23035
1895.77886	0.23011
1893.85029	0.22983
1891.92173	0.22947
1889.99316	0.22924
1888.06460	0.22892
1886.13604	0.22857
1884.20747	0.22841
1882.27891	0.22831
1880.35034	0.22817
1878.42178	0.22808
1876.49321	0.22815
1874.56465	0.22825
1872.63608	0.22836
1870.70752	0.22859
1868.77896	0.22912
1866.85039	0.22943
1864.92183	0.22925
1862.99326	0.22919
1861.06470	0.22944
1859.13613	0.22990
1857.20757	0.23037
1855.27900	0.23084
1853.35044	0.23123
1851.42187	0.23167
1849.49331	0.23226
1847.56475	0.23298
1845.63618	0.23391
1843.70762	0.23503
1841.77905	0.23576
1839.85049	0.23608
1837.92192	0.23679
1835.99336	0.23779
1834.06479	0.23880
1832.13623	0.23986
1830.20767	0.24131
1828.27910	0.24274
1826.35054	0.24379
1824.42197	0.24505
1822.49341	0.24633
1820.56484	0.24760
1818.63628	0.24896
1816.70771	0.25045
1814.77915	0.25195
1812.85059	0.25370
1810.92202	0.25578
1808.99346	0.25780
1807.06489	0.25971
1805.13633	0.26167
1803.20776	0.26394
1801.27920	0.26653
1799.35063	0.26944
1797.42207	0.27200
1795.49351	0.27431
1793.56494	0.27711
1791.63638	0.28084
1789.70781	0.28423
1787.77925	0.28663
1785.85068	0.28961
1783.92212	0.29329
1781.99355	0.29728
1780.06499	0.30152
1778.13643	0.30584
1776.20786	0.30987
1774.27930	0.31430
1772.35073	0.32025
1770.42217	0.32642
1768.49360	0.33145
1766.56504	0.33634
1764.63647	0.34161
1762.70791	0.34753
1760.77935	0.35471
1758.85078	0.36133
1756.92222	0.36798
1754.99365	0.37518
1753.06509	0.38177
1751.13652	0.38972
1749.20796	0.39970
1747.27939	0.40959
1745.35083	0.41845
1743.42227	0.42805
1741.49370	0.43884
1739.56514	0.45157
1737.63657	0.46424
1735.70801	0.47541
1733.77944	0.49209
1731.85088	0.51185
1729.92231	0.52752
1727.99375	0.54344
1726.06519	0.56060
1724.13662	0.57925
1722.20806	0.59931
1720.27949	0.61791
1718.35093	0.63957
1716.42236	0.67099
1714.49380	0.70127
1712.56523	0.72646
1710.63667	0.75079
1708.70811	0.77673
1706.77954	0.80625
1704.85098	0.84130
1702.92241	0.87278
1700.99385	0.90443
1699.06528	0.95067
1697.13672	0.99282
1695.20815	1.03630
1693.27959	1.07932
1691.35103	1.11439
1689.42246	1.15462
1687.49390	1.19717
1685.56533	1.23834
1683.63677	1.30031
1681.70820	1.36489
1679.77964	1.40743
1677.85107	1.44754
1675.92251	1.49337
1673.99395	1.54999
1672.06538	1.60095
1670.13682	1.65134
1668.20825	1.71612
1666.27969	1.76930
1664.35112	1.81465
1662.42256	1.87070
1660.49399	1.93236
1658.56543	1.98026
1656.63687	2.01948
1654.70830	2.05508
1652.77974	2.10857
1650.85117	2.16185
1648.92261	2.18371
1646.99404	2.20874
1645.06548	2.23581
1643.13691	2.25516
1641.20835	2.26704
1639.27979	2.27604
1637.35122	2.27958
1635.42266	2.27663
1633.49409	2.26875
1631.56553	2.25607
1629.63696	2.23974
1627.70840	2.21260
1625.77983	2.17934
1623.85127	2.13649
1621.92271	2.08599
1619.99414	2.04223
1618.06558	1.99919
1616.13701	1.93781
1614.20845	1.87466
1612.27988	1.82562
1610.35132	1.77472
1608.42275	1.72015
1606.49419	1.66690
1604.56562	1.61809
1602.63706	1.57088
1600.70850	1.52476
1598.77993	1.48234
1596.85137	1.44241
1594.92280	1.40355
1592.99424	1.36586
1591.06567	1.33106
1589.13711	1.29818
1587.20854	1.26743
1585.27998	1.23927
1583.35142	1.21320
1581.42285	1.18911
1579.49429	1.16824
1577.56572	1.14978
1575.63716	1.12798
1573.70859	1.10847
1571.78003	1.09558
1569.85146	1.08262
1567.92290	1.06833
1565.99434	1.05748
1564.06577	1.04947
1562.13721	1.04349
1560.20864	1.03962
1558.28008	1.03578
1556.35151	1.03229
1554.42295	1.02947
1552.49438	1.02682
1550.56582	1.02354
1548.63726	1.01830
1546.70869	1.01117
1544.78013	1.00211
1542.85156	0.99101
1540.92300	0.97560
1538.99443	0.95158
1537.06587	0.93317
1535.13730	0.92056
1533.20874	0.90442
1531.28018	0.88734
1529.35161	0.87477
1527.42305	0.86289
1525.49448	0.85056
1523.56592	0.83998
1521.63735	0.82996
1519.70879	0.81973
1517.78022	0.81091
1515.85166	0.80094
1513.92310	0.79051
1511.99453	0.78149
1510.06597	0.77374
1508.13740	0.76664
1506.20884	0.75540
1504.28027	0.74451
1502.35171	0.73805
1500.42314	0.73261
1498.49458	0.72710
1496.56602	0.72096
1494.63745	0.71473
1492.70889	0.70976
1490.78032	0.70563
1488.85176	0.70114
1486.92319	0.69683
1484.99463	0.69336
1483.06606	0.69059
1481.13750	0.68842
1479.20894	0.68696
1477.28037	0.68620
1475.35181	0.68595
1473.42324	0.68580
1471.49468	0.68454
1469.56611	0.68221
1467.63755	0.67995
1465.70898	0.67816
1463.78042	0.67679
1461.85186	0.67573
1459.92329	0.67516
1457.99473	0.67493
1456.06616	0.67372
1454.13760	0.67119
1452.20903	0.66849
1450.28047	0.66577
1448.35190	0.66317
1446.42334	0.66057
1444.49478	0.65800
1442.56621	0.65553
1440.63765	0.65299
1438.70908	0.65042
1436.78052	0.64741
1434.85195	0.64418
1432.92339	0.64169
1430.99482	0.63986
1429.06626	0.63848
1427.13770	0.63775
1425.20913	0.63769
1423.28057	0.63792
1421.35200	0.63802
1419.42344	0.63796
1417.49487	0.63732
1415.56631	0.63599
1413.63774	0.63485
1411.70918	0.63420
1409.78062	0.63400
1407.85205	0.63420
1405.92349	0.63481
1403.99492	0.63543
1402.06636	0.63535
1400.13779	0.63458
1398.20923	0.63304
1396.28066	0.63065
1394.35210	0.62750
1392.42354	0.62406
1390.49497	0.62090
1388.56641	0.61769
1386.63784	0.61389
1384.70928	0.60991
1382.78071	0.60627
1380.85215	0.60290
1378.92358	0.60000
1376.99502	0.59798
1375.06646	0.59674
1373.13789	0.59570
1371.20933	0.59484
1369.28076	0.59430
1367.35220	0.59353
1365.42363	0.59227
1363.49507	0.59087
1361.56650	0.58939
1359.63794	0.58780
1357.70937	0.58641
1355.78081	0.58520
1353.85225	0.58399
1351.92368	0.58283
1349.99512	0.58186
1348.06655	0.58109
1346.13799	0.58032
1344.20942	0.57946
1342.28086	0.57861
1340.35229	0.57781
1338.42373	0.57690
1336.49517	0.57593
1334.56660	0.57509
1332.63804	0.57451
1330.70947	0.57419
1328.78091	0.57420
1326.85234	0.57451
1324.92378	0.57483
1322.99521	0.57511
1321.06665	0.57546
1319.13809	0.57574
1317.20952	0.57579
1315.28096	0.57561
1313.35239	0.57518
1311.42383	0.57441
1309.49526	0.57341
1307.56670	0.57239
1305.63813	0.57155
1303.70957	0.57084
1301.78101	0.57009
1299.85244	0.56920
1297.92388	0.56824
1295.99531	0.56722
1294.06675	0.56623
1292.13818	0.56531
1290.20962	0.56430
1288.28105	0.56316
1286.35249	0.56191
1284.42393	0.56067
1282.49536	0.55955
1280.56680	0.55840
1278.63823	0.55715
1276.70967	0.55601
1274.78110	0.55514
1272.85254	0.55451
1270.92397	0.55402
1268.99541	0.55341
1267.06685	0.55266
1265.13828	0.55191
1263.20972	0.55113
1261.28115	0.55035
1259.35259	0.54972
1257.42402	0.54919
1255.49546	0.54873
1253.56689	0.54838
1251.63833	0.54816
1249.70977	0.54803
1247.78120	0.54790
1245.85264	0.54758
1243.92407	0.54686
1241.99551	0.54594
1240.06694	0.54491
1238.13838	0.54360
1236.20981	0.54209
1234.28125	0.54051
1232.35269	0.53889
1230.42412	0.53722
1228.49556	0.53547
1226.56699	0.53377
1224.63843	0.53223
1222.70986	0.53077
1220.78130	0.52937
1218.85273	0.52799
1216.92417	0.52677
1214.99561	0.52586
1213.06704	0.52512
1211.13848	0.52449
1209.20991	0.52400
1207.28135	0.52345
1205.35278	0.52273
1203.42422	0.52194
1201.49565	0.52116
1199.56709	0.52046
1197.63853	0.51980
1195.70996	0.51912
1193.78140	0.51848
1191.85283	0.51791
1189.92427	0.51741
1187.99570	0.51701
1186.06714	0.51662
1184.13857	0.51635
1182.21001	0.51656
1180.28145	0.51717
1178.35288	0.51800
1176.42432	0.51914
1174.49575	0.52037
1172.56719	0.52135
1170.63862	0.52219
1168.71006	0.52308
1166.78149	0.52389
1164.85293	0.52447
1162.92437	0.52495
1160.99580	0.52539
1159.06724	0.52571
1157.13867	0.52573
1155.21011	0.52525
1153.28154	0.52430
1151.35298	0.52291
1149.42441	0.52096
1147.49585	0.51845
1145.56729	0.51566
1143.63872	0.51301
1141.71016	0.51074
1139.78159	0.50881
1137.85303	0.50737
1135.92446	0.50661
1133.99590	0.50623
1132.06733	0.50582
1130.13877	0.50545
1128.21021	0.50518
1126.28164	0.50475
1124.35308	0.50421
1122.42451	0.50388
1120.49595	0.50389
1118.56738	0.50411
1116.63882	0.50436
1114.71025	0.50467
1112.78169	0.50521
1110.85312	0.50611
1108.92456	0.50732
1106.99600	0.50851
1105.06743	0.50933
1103.13887	0.50992
1101.21030	0.51077
1099.28174	0.51206
1097.35317	0.51386
1095.42461	0.51654
1093.49604	0.52029
1091.56748	0.52510
1089.63892	0.53144
1087.71035	0.53960
1085.78179	0.54879
1083.85322	0.55773
1081.92466	0.56555
1079.99609	0.57143
1078.06753	0.57431
1076.13896	0.57385
1074.21040	0.57059
1072.28184	0.56517
1070.35327	0.55835
1068.42471	0.55087
1066.49614	0.54355
1064.56758	0.53708
1062.63901	0.53161
1060.71045	0.52681
1058.78188	0.52245
1056.85332	0.51856
1054.92476	0.51517
1052.99619	0.51233
1051.06763	0.51022
1049.13906	0.50898
1047.21050	0.50843
1045.28193	0.50834
1043.35337	0.50867
1041.42480	0.50929
1039.49624	0.50978
1037.56768	0.50982
1035.63911	0.50950
1033.71055	0.50888
1031.78198	0.50776
1029.85342	0.50608
1027.92485	0.50425
1025.99629	0.50261
1024.06772	0.50113
1022.13916	0.49977
1020.21060	0.49875
1018.28203	0.49809
1016.35347	0.49774
1014.42490	0.49759
1012.49634	0.49725
1010.56777	0.49663
1008.63921	0.49625
1006.71064	0.49656
1004.78208	0.49751
1002.85352	0.49890
1000.92495	0.50093
998.99639	0.50404
997.06782	0.50819
995.13926	0.51279
993.21069	0.51702
991.28213	0.52023
989.35356	0.52220
987.42500	0.52277
985.49644	0.52218
983.56787	0.52151
981.63931	0.52152
979.71074	0.52220
977.78218	0.52354
975.85361	0.52559
973.92505	0.52807
971.99648	0.53076
970.06792	0.53387
968.13936	0.53755
966.21079	0.54167
964.28223	0.54605
962.35366	0.55070
960.42510	0.55583
958.49653	0.56119
956.56797	0.56653
954.63940	0.57230
952.71084	0.57868
950.78228	0.58522
948.85371	0.59160
946.92515	0.59779
944.99658	0.60389
943.06802	0.61001
941.13945	0.61609
939.21089	0.62207
937.28232	0.62796
935.35376	0.63363
933.42520	0.63923
931.49663	0.64475
929.56807	0.64998
927.63950	0.65572
925.71094	0.66225
923.78237	0.66901
921.85381	0.67580
919.92524	0.68253
917.99668	0.68960
916.06812	0.69706
914.13955	0.70416
912.21099	0.71132
910.28242	0.71950
908.35386	0.72868
906.42529	0.73818
904.49673	0.74711
902.56816	0.75539
900.63960	0.76360
898.71104	0.77225
896.78247	0.78179
894.85391	0.79180
892.92534	0.80194
890.99678	0.81266
889.06821	0.82365
887.13965	0.83409
885.21108	0.84386
883.28252	0.85471
881.35396	0.86742
879.42539	0.87953
877.49683	0.89105
875.56826	0.90511
873.63970	0.92023
871.71113	0.93253
869.78257	0.94255
867.85400	0.95276
865.92544	0.96390
863.99687	0.97579
862.06831	0.98725
860.13975	0.99767
858.21118	1.00905
856.28262	1.02155
854.35405	1.03304
852.42549	1.04335
850.49692	1.05359
848.56836	1.06441
846.63979	1.07593
844.71123	1.08794
842.78267	1.09983
840.85410	1.11160
838.92554	1.12318
836.99697	1.13378
835.06841	1.14376
833.13984	1.15511
831.21128	1.16669
829.28271	1.17701
827.35415	1.19034
825.42559	1.20453
823.49702	1.21291
821.56846	1.21815
819.63989	1.22494
817.71133	1.23221
815.78276	1.23829
813.85420	1.24553
811.92563	1.25845
809.99707	1.28022
808.06851	1.30406
806.13994	1.31614
804.21138	1.30950
802.28281	1.29662
800.35425	1.30277
798.42568	1.33440
796.49712	1.35990
794.56855	1.36038
792.63999	1.36802
790.71143	1.37046
788.78286	1.33014
786.85430	1.29160
784.92573	1.30398
782.99717	1.34563
781.06860	1.36040
779.14004	1.36976
777.21147	1.42370
775.28291	1.45958
773.35435	1.40588
771.42578	1.33431
769.49722	1.26134
767.56865	1.21947
765.64009	1.25204
763.71152	1.28173
761.78296	1.22128
759.85439	1.14984
757.92583	1.11573
755.99727	1.14894
754.06870	1.30719
752.14014	1.50042
750.21157	1.46380
748.28301	1.33775
746.35444	1.21111
744.42588	1.12613
742.49731	1.06108
740.56875	1.02817
738.64019	1.06291
736.71162	1.07346
734.78306	0.99030
732.85449	0.88088
730.92593	0.77753
728.99736	0.59660
727.06880	0.32368
725.14023	0.11970
723.21167	-0.01209
721.28311	-0.15758
719.35454	-0.22444
717.42598	-0.21146
715.49741	-0.16303
713.56885	-0.05900
711.64028	0.05289
709.71172	0.09890
707.78315	0.09879
705.85459	0.13895
703.92603	0.21267
701.99746	0.31318
700.06890	0.52488
698.14033	0.64097
696.21177	0.38415
694.28320	0.25053
692.35464	0.26980
690.42607	0.31619
688.49751	0.33157
686.56895	0.32418
684.64038	0.36228
682.71182	0.53941
680.78325	0.61636
678.85469	0.42550
676.92612	0.31514
674.99756	0.28561
673.06899	0.28774
671.14043	0.32862
669.21187	0.42541
667.28330	0.49068
665.35474	0.43682
663.42617	0.33872
661.49761	0.30649
659.56904	0.37706
657.64048	0.49398
655.71191	0.55928
653.78335	0.55758
651.85479	0.49552
649.92622	0.39918
647.99766	0.36364
646.06909	0.38776
644.14053	0.42814
642.21196	0.44400
640.28340	0.37744
638.35483	0.32034
636.42627	0.35772
634.49771	0.40333
632.56914	0.36399
630.64058	0.30574
628.71201	0.28901
626.78345	0.36956
624.85488	0.48379
622.92632	0.47922
620.99775	0.40835
619.06919	0.36616
617.14062	0.40637
615.21206	0.49279
613.28350	0.45644
611.35493	0.39256
609.42637	0.38629
607.49780	0.31579
605.56924	0.25280
603.64067	0.30874
601.71211	0.44439
599.78354	0.36902
597.85498	0.23872
595.92642	0.26795
593.99785	0.31554
592.06929	0.26515
590.14072	0.21456
588.21216	0.23889
586.28359	0.32492
584.35503	0.40461
582.42646	0.44730
580.49790	0.44314
578.56934	0.41650
576.64077	0.39933
574.71221	0.36818
572.78364	0.32077
570.85508	0.30812
568.92651	0.37895
566.99795	0.56754
565.06938	0.69840
563.14082	0.46557
561.21226	0.33069
559.28369	0.32064
557.35513	0.34879
555.42656	0.34692
553.49800	0.30449
551.56943	0.26588
549.64087	0.27457
547.71230	0.30600
545.78374	0.30379
543.85518	0.29274
541.92661	0.28711
539.99805	0.26609
538.06948	0.27837
536.14092	0.36544
534.21235	0.42901
532.28379	0.40502
530.35522	0.43012
528.42666	0.42169
526.49810	0.30498
524.56953	0.22781
522.64097	0.23432
520.71240	0.31904
518.78384	0.47676
516.85527	0.54335
514.92671	0.33886
512.99814	0.20917
511.06958	0.19184
509.14102	0.23022
507.21245	0.28100
505.28389	0.28177
503.35532	0.23936
501.42676	0.21467
499.49819	0.19584
