3997.91411	0.06217
3995.98555	0.06245
3994.05698	0.06299
3992.12842	0.06360
3990.19985	0.06374
3988.27129	0.06357
3986.34272	0.06359
3984.41416	0.06379
3982.48560	0.06389
3980.55703	0.06423
3978.62847	0.06513
3976.69990	0.06605
3974.77134	0.06619
3972.84277	0.06577
3970.91421	0.06575
3968.98564	0.06619
3967.05708	0.06638
3965.12852	0.06618
3963.19995	0.06612
3961.27139	0.06635
3959.34282	0.06652
3957.41426	0.06679
3955.48569	0.06737
3953.55713	0.06791
3951.62856	0.06863
3949.70000	0.06974
3947.77144	0.07024
3945.84287	0.06972
3943.91431	0.06956
3941.98574	0.06995
3940.05718	0.06944
3938.12861	0.06825
3936.20005	0.06743
3934.27148	0.06757
3932.34292	0.06903
3930.41436	0.07027
3928.48579	0.06965
3926.55723	0.06902
3924.62866	0.06985
3922.70010	0.07041
3920.77153	0.06993
3918.84297	0.06997
3916.91440	0.07025
3914.98584	0.06902
3913.05728	0.06675
3911.12871	0.06543
3909.20015	0.06557
3907.27158	0.06720
3905.34302	0.07098
3903.41445	0.07590
3901.48589	0.07838
3899.55732	0.07724
3897.62876	0.07403
3895.70020	0.07091
3893.77163	0.07002
3891.84307	0.07147
3889.91450	0.07203
3887.98594	0.07058
3886.05737	0.07085
3884.12881	0.07303
3882.20024	0.07408
3880.27168	0.07430
3878.34312	0.07313
3876.41455	0.07135
3874.48599	0.07229
3872.55742	0.07527
3870.62886	0.07777
3868.70029	0.07883
3866.77173	0.07822
3864.84316	0.07834
3862.91460	0.07886
3860.98604	0.07697
3859.05747	0.07491
3857.12891	0.07586
3855.20034	0.08030
3853.27178	0.08741
3851.34321	0.08897
3849.41465	0.08249
3847.48608	0.07751
3845.55752	0.07648
3843.62896	0.07869
3841.70039	0.08272
3839.77183	0.08702
3837.84326	0.09005
3835.91470	0.08964
3833.98613	0.08703
3832.05757	0.08519
3830.12900	0.08424
3828.20044	0.08386
3826.27187	0.08461
3824.34331	0.08624
3822.41475	0.08961
3820.48618	0.09502
3818.55762	0.09647
3816.62905	0.09444
3814.70049	0.09274
3812.77192	0.08992
3810.84336	0.08769
3808.91479	0.08872
3806.98623	0.09291
3805.05767	0.09685
3803.12910	0.09969
3801.20054	0.10385
3799.27197	0.10548
3797.34341	0.10344
3795.41484	0.10162
3793.48628	0.09969
3791.55771	0.09819
3789.62915	0.09829
3787.70059	0.09978
3785.77202	0.10243
3783.84346	0.10510
3781.91489	0.10678
3779.98633	0.10897
3778.05776	0.11133
3776.12920	0.11148
3774.20063	0.11121
3772.27207	0.11297
3770.34351	0.11697
3768.41494	0.12126
3766.48638	0.12354
3764.55781	0.12464
3762.62925	0.12554
3760.70068	0.12775
3758.77212	0.13217
3756.84355	0.13615
3754.91499	0.13883
3752.98643	0.14341
3751.05786	0.15153
3749.12930	0.15843
3747.20073	0.15954
3745.27217	0.16047
3743.34360	0.16385
3741.41504	0.16640
3739.48647	0.16891
3737.55791	0.17490
3735.62935	0.18530
3733.70078	0.19476
3731.77222	0.19778
3729.84365	0.19868
3727.91509	0.20120
3725.98652	0.20648
3724.05796	0.21322
3722.12939	0.21883
3720.20083	0.22311
3718.27227	0.22661
3716.34370	0.23031
3714.41514	0.23643
3712.48657	0.24858
3710.55801	0.26689
3708.62944	0.28138
3706.70088	0.28975
3704.77231	0.29912
3702.84375	0.31232
3700.91519	0.32924
3698.98662	0.34633
3697.05806	0.36249
3695.12949	0.38077
3693.20093	0.40155
3691.27236	0.42554
3689.34380	0.45522
3687.41523	0.48698
3685.48667	0.51280
3683.55811	0.53617
3681.62954	0.56352
3679.70098	0.59649
3677.77241	0.63271
3675.84385	0.67559
3673.91528	0.72836
3671.98672	0.76844
3670.05815	0.80550
3668.12959	0.85597
3666.20103	0.89996
3664.27246	0.93731
3662.34390	0.97940
3660.41533	1.02607
3658.48677	1.07287
3656.55820	1.12308
3654.62964	1.17827
3652.70107	1.22477
3650.77251	1.26762
3648.84395	1.32726
3646.91538	1.39446
3644.98682	1.43967
3643.05825	1.47466
3641.12969	1.51300
3639.20112	1.55704
3637.27256	1.60197
3635.34399	1.64594
3633.41543	1.69004
3631.48687	1.73185
3629.55830	1.77564
3627.62974	1.83099
3625.70117	1.87876
3623.77261	1.91011
3621.84404	1.94150
3619.91548	1.97891
3617.98691	2.02421
3616.05835	2.06751
3614.12979	2.10388
3612.20122	2.14168
3610.27266	2.17952
3608.34409	2.21842
3606.41553	2.26007
3604.48696	2.29783
3602.55840	2.33124
3600.62983	2.36894
3598.70127	2.41157
3596.77271	2.45261
3594.84414	2.49265
3592.91558	2.53336
3590.98701	2.57182
3589.05845	2.60876
3587.12988	2.65348
3585.20132	2.70039
3583.27275	2.73808
3581.34419	2.77420
3579.41562	2.81442
3577.48706	2.85616
3575.55850	2.89736
3573.62993	2.93937
3571.70137	2.98099
3569.77280	3.02272
3567.84424	3.06779
3565.91567	3.11878
3563.98711	3.16610
3562.05854	3.20565
3560.12998	3.24540
3558.20142	3.28846
3556.27285	3.33348
3554.34429	3.37832
3552.41572	3.42479
3550.48716	3.47354
3548.55859	3.52156
3546.63003	3.56593
3544.70146	3.60882
3542.77290	3.65240
3540.84434	3.69691
3538.91577	3.74321
3536.98721	3.79020
3535.05864	3.83954
3533.13008	3.88965
3531.20151	3.93746
3529.27295	3.98468
3527.34438	4.03444
3525.41582	4.08378
3523.48726	4.13075
3521.55869	4.17853
3519.63013	4.22717
3517.70156	4.27652
3515.77300	4.32357
3513.84443	4.36718
3511.91587	4.41102
3509.98730	4.45996
3508.05874	4.51387
3506.13018	4.56574
3504.20161	4.61445
3502.27305	4.66238
3500.34448	4.70892
3498.41592	4.75585
3496.48735	4.80495
3494.55879	4.85407
3492.63022	4.90254
3490.70166	4.94857
3488.77310	4.99234
3486.84453	5.04102
3484.91597	5.09423
3482.98740	5.14556
3481.05884	5.19647
3479.13027	5.24500
3477.20171	5.28691
3475.27314	5.32841
3473.34458	5.37373
3471.41602	5.41685
3469.48745	5.46091
3467.55889	5.51558
3465.63032	5.56902
3463.70176	5.60913
3461.77319	5.65230
3459.84463	5.71454
3457.91606	5.78017
3455.98750	5.83149
3454.05894	5.87432
3452.13037	5.92854
3450.20181	5.99956
3448.27324	6.05804
3446.34468	6.09328
3444.41611	6.13203
3442.48755	6.18503
3440.55898	6.23788
3438.63042	6.28691
3436.70186	6.32762
3434.77329	6.36166
3432.84473	6.41098
3430.91616	6.48396
3428.98760	6.56330
3427.05903	6.60739
3425.13047	6.62026
3423.20190	6.64309
3421.27334	6.68819
3419.34478	6.73952
3417.41621	6.78571
3415.48765	6.83528
3413.55908	6.89437
3411.63052	6.96277
3409.70195	7.00652
3407.77339	7.01755
3405.84482	7.03300
3403.91626	7.07498
3401.98770	7.13944
3400.05913	7.21040
3398.13057	7.26575
3396.20200	7.29376
3394.27344	7.30528
3392.34487	7.33123
3390.41631	7.41660
3388.48774	7.49541
3386.55918	7.49650
3384.63062	7.48230
3382.70205	7.49983
3380.77349	7.52733
3378.84492	7.56533
3376.91636	7.65005
3374.98779	7.72708
3373.05923	7.73752
3371.13066	7.71277
3369.20210	7.69262
3367.27354	7.70401
3365.34497	7.75416
3363.41641	7.81242
3361.48784	7.89426
3359.55928	7.99427
3357.63071	7.98529
3355.70215	7.88875
3353.77358	7.86431
3351.84502	7.96806
3349.91646	8.08753
3347.98789	8.11202
3346.05933	8.07414
3344.13076	8.02490
3342.20220	7.95472
3340.27363	7.87867
3338.34507	7.86548
3336.41650	7.88200
3334.48794	7.90556
3332.55937	7.92837
3330.63081	7.91517
3328.70225	7.94457
3326.77368	8.05259
3324.84512	8.12923
3322.91655	8.13108
3320.98799	8.14298
3319.05942	8.15996
3317.13086	8.13803
3315.20229	8.14312
3313.27373	8.22410
3311.34517	8.24347
3309.41660	8.14978
3307.48804	8.05726
3305.55947	7.98801
3303.63091	7.96625
3301.70234	7.99126
3299.77378	7.99938
3297.84521	8.00188
3295.91665	8.08798
3293.98809	8.17594
3292.05952	8.14911
3290.13096	8.11611
3288.20239	8.09659
3286.27383	8.06656
3284.34526	8.07232
3282.41670	8.06191
3280.48813	8.03411
3278.55957	8.10571
3276.63101	8.20979
3274.70244	8.18672
3272.77388	8.11404
3270.84531	8.11980
3268.91675	8.14827
3266.98818	8.11846
3265.05962	8.12475
3263.13105	8.17823
3261.20249	8.17475
3259.27393	8.13700
3257.34536	8.12135
3255.41680	8.14771
3253.48823	8.21491
3251.55967	8.21666
3249.63110	8.12042
3247.70254	8.06870
3245.77397	8.10560
3243.84541	8.17348
3241.91685	8.24767
3239.98828	8.31393
3238.05972	8.31232
3236.13115	8.25391
3234.20259	8.21884
3232.27402	8.13941
3230.34546	8.01758
3228.41689	8.04122
3226.48833	8.16823
3224.55977	8.18625
3222.63120	8.07804
3220.70264	7.92111
3218.77407	7.84606
3216.84551	7.94196
3214.91694	8.10941
3212.98838	8.09653
3211.05981	7.91567
3209.13125	7.82881
3207.20269	7.88206
3205.27412	7.97782
3203.34556	8.02342
3201.41699	8.00278
3199.48843	7.94733
3197.55986	7.83924
3195.63130	7.72806
3193.70273	7.66069
3191.77417	7.57920
3189.84561	7.50690
3187.91704	7.50881
3185.98848	7.50667
3184.05991	7.46018
3182.13135	7.42840
3180.20278	7.37230
3178.27422	7.28991
3176.34565	7.24982
3174.41709	7.21885
3172.48853	7.15811
3170.55996	7.08839
3168.63140	7.00698
3166.70283	6.91888
3164.77427	6.84594
3162.84570	6.78154
3160.91714	6.71951
3158.98857	6.67690
3157.06001	6.64769
3155.13145	6.59947
3153.20288	6.52866
3151.27432	6.45699
3149.34575	6.38514
3147.41719	6.31270
3145.48862	6.25095
3143.56006	6.19669
3141.63149	6.13719
3139.70293	6.06811
3137.77437	5.99500
3135.84580	5.91921
3133.91724	5.84436
3131.98867	5.77215
3130.06011	5.69734
3128.13154	5.62401
3126.20298	5.55488
3124.27441	5.48209
3122.34585	5.40507
3120.41729	5.32945
3118.48872	5.25012
3116.56016	5.16513
3114.63159	5.08378
3112.70303	5.01520
3110.77446	4.95507
3108.84590	4.89145
3106.91733	4.82078
3104.98877	4.74595
3103.06021	4.67606
3101.13164	4.61302
3099.20308	4.54740
3097.27451	4.47565
3095.34595	4.40217
3093.41738	4.33266
3091.48882	4.26759
3089.56025	4.20215
3087.63169	4.13417
3085.70312	4.06717
3083.77456	4.00461
3081.84600	3.94493
3079.91743	3.88312
3077.98887	3.81853
3076.06030	3.75517
3074.13174	3.69517
3072.20317	3.63689
3070.27461	3.57778
3068.34604	3.51799
3066.41748	3.45817
3064.48892	3.39916
3062.56035	3.34252
3060.63179	3.28774
3058.70322	3.23243
3056.77466	3.17668
3054.84609	3.12264
3052.91753	3.07018
3050.98896	3.01838
3049.06040	2.96675
3047.13184	2.91589
3045.20327	2.86523
3043.27471	2.81349
3041.34614	2.76329
3039.41758	2.71633
3037.48901	2.67011
3035.56045	2.62340
3033.63188	2.57751
3031.70332	2.53222
3029.77476	2.48723
3027.84619	2.44341
3025.91763	2.40012
3023.98906	2.35708
3022.06050	2.31541
3020.13193	2.27475
3018.20337	2.23418
3016.27480	2.19404
3014.34624	2.15467
3012.41768	2.11569
3010.48911	2.07699
3008.56055	2.03905
3006.63198	2.00232
3004.70342	1.96629
3002.77485	1.93049
3000.84629	1.89500
2998.91772	1.86009
2996.98916	1.82635
2995.06060	1.79356
2993.13203	1.76061
2991.20347	1.72751
2989.27490	1.69534
2987.34634	1.66412
2985.41777	1.63319
2983.48921	1.60234
2981.56064	1.57173
2979.63208	1.54223
2977.70352	1.51389
2975.77495	1.48564
2973.84639	1.45753
2971.91782	1.43014
2969.98926	1.40318
2968.06069	1.37621
2966.13213	1.34948
2964.20356	1.32374
2962.27500	1.29901
2960.34644	1.27452
2958.41787	1.25016
2956.48931	1.22644
2954.56074	1.20326
2952.63218	1.18042
2950.70361	1.15807
2948.77505	1.13607
2946.84648	1.11431
2944.91792	1.09290
2942.98936	1.07181
2941.06079	1.05123
2939.13223	1.03119
2937.20366	1.01123
2935.27510	0.99147
2933.34653	0.97257
2931.41797	0.95429
2929.48940	0.93624
2927.56084	0.91885
2925.63228	0.90214
2923.70371	0.88548
2921.77515	0.86893
2919.84658	0.85301
2917.91802	0.83731
2915.98945	0.82156
2914.06089	0.80610
2912.13232	0.79094
2910.20376	0.77632
2908.27520	0.76224
2906.34663	0.74838
2904.41807	0.73493
2902.48950	0.72217
2900.56094	0.70984
2898.63237	0.69763
2896.70381	0.68539
2894.77524	0.67321
2892.84668	0.66115
2890.91812	0.64915
2888.98955	0.63737
2887.06099	0.62610
2885.13242	0.61536
2883.20386	0.60495
2881.27529	0.59473
2879.34673	0.58432
2877.41816	0.57360
2875.48960	0.56300
2873.56104	0.55282
2871.63247	0.54302
2869.70391	0.53350
2867.77534	0.52399
2865.84678	0.51462
2863.91821	0.50575
2861.98965	0.49721
2860.06108	0.48846
2858.13252	0.47960
2856.20396	0.47120
2854.27539	0.46335
2852.34683	0.45563
2850.41826	0.44790
2848.48970	0.44027
2846.56113	0.43289
2844.63257	0.42580
2842.70400	0.41906
2840.77544	0.41292
2838.84687	0.40726
2836.91831	0.40163
2834.98975	0.39581
2833.06118	0.39010
2831.13262	0.38455
2829.20405	0.37889
2827.27549	0.37333
2825.34692	0.36798
2823.41836	0.36257
2821.48979	0.35709
2819.56123	0.35168
2817.63267	0.34625
2815.70410	0.34084
2813.77554	0.33568
2811.84697	0.33070
2809.91841	0.32567
2807.98984	0.32078
2806.06128	0.31606
2804.13271	0.31118
2802.20415	0.30639
2800.27559	0.30206
2798.34702	0.29795
2796.41846	0.29374
2794.48989	0.28945
2792.56133	0.28518
2790.63276	0.28104
2788.70420	0.27703
2786.77563	0.27305
2784.84707	0.26914
2782.91851	0.26545
2780.98994	0.26194
2779.06138	0.25841
2777.13281	0.25489
2775.20425	0.25165
2773.27568	0.24859
2771.34712	0.24542
2769.41855	0.24210
2767.48999	0.23870
2765.56143	0.23537
2763.63286	0.23221
2761.70430	0.22921
2759.77573	0.22636
2757.84717	0.22363
2755.91860	0.22105
2753.99004	0.21854
2752.06147	0.21589
2750.13291	0.21311
2748.20435	0.21049
2746.27578	0.20818
2744.34722	0.20593
2742.41865	0.20340
2740.49009	0.20071
2738.56152	0.19828
2736.63296	0.19624
2734.70439	0.19423
2732.77583	0.19196
2730.84727	0.18973
2728.91870	0.18782
2726.99014	0.18605
2725.06157	0.18434
2723.13301	0.18269
2721.20444	0.18096
2719.27588	0.17916
2717.34731	0.17730
2715.41875	0.17540
2713.49019	0.17358
2711.56162	0.17180
2709.63306	0.17020
2707.70449	0.16885
2705.77593	0.16741
2703.84736	0.16589
2701.91880	0.16466
2699.99023	0.16363
2698.06167	0.16247
2696.13311	0.16110
2694.20454	0.15970
2692.27598	0.15851
2690.34741	0.15749
2688.41885	0.15637
2686.49028	0.15503
2684.56172	0.15367
2682.63315	0.15251
2680.70459	0.15149
2678.77603	0.15057
2676.84746	0.14971
2674.91890	0.14888
2672.99033	0.14801
2671.06177	0.14707
2669.13320	0.14611
2667.20464	0.14519
2665.27607	0.14431
2663.34751	0.14359
2661.41895	0.14299
2659.49038	0.14243
2657.56182	0.14177
2655.63325	0.14112
2653.70469	0.14078
2651.77612	0.14050
2649.84756	0.13992
2647.91899	0.13941
2645.99043	0.13918
2644.06187	0.13873
2642.13330	0.13801
2640.20474	0.13744
2638.27617	0.13703
2636.34761	0.13657
2634.41904	0.13622
2632.49048	0.13609
2630.56191	0.13595
2628.63335	0.13589
2626.70479	0.13591
2624.77622	0.13581
2622.84766	0.13562
2620.91909	0.13544
2618.99053	0.13537
2617.06196	0.13535
2615.13340	0.13531
2613.20483	0.13517
2611.27627	0.13500
2609.34771	0.13507
2607.41914	0.13529
2605.49058	0.13522
2603.56201	0.13496
2601.63345	0.13500
2599.70488	0.13526
2597.77632	0.13543
2595.84775	0.13554
2593.91919	0.13577
2591.99062	0.13612
2590.06206	0.13649
2588.13350	0.13677
2586.20493	0.13707
2584.27637	0.13752
2582.34780	0.13800
2580.41924	0.13831
2578.49067	0.13857
2576.56211	0.13895
2574.63354	0.13946
2572.70498	0.14000
2570.77642	0.14050
2568.84785	0.14098
2566.91929	0.14142
2564.99072	0.14181
2563.06216	0.14221
2561.13359	0.14267
2559.20503	0.14317
2557.27646	0.14375
2555.34790	0.14448
2553.41934	0.14528
2551.49077	0.14600
2549.56221	0.14660
2547.63364	0.14728
2545.70508	0.14804
2543.77651	0.14865
2541.84795	0.14911
2539.91938	0.14971
2537.99082	0.15046
2536.06226	0.15127
2534.13369	0.15222
2532.20513	0.15315
2530.27656	0.15386
2528.34800	0.15450
2526.41943	0.15519
2524.49087	0.15586
2522.56230	0.15657
2520.63374	0.15745
2518.70518	0.15829
2516.77661	0.15898
2514.84805	0.15978
2512.91948	0.16086
2510.99092	0.16197
2509.06235	0.16291
2507.13379	0.16375
2505.20522	0.16460
2503.27666	0.16548
2501.34810	0.16643
2499.41953	0.16742
2497.49097	0.16832
2495.56240	0.16916
2493.63384	0.17004
2491.70527	0.17089
2489.77671	0.17183
2487.84814	0.17298
2485.91958	0.17414
2483.99102	0.17504
2482.06245	0.17581
2480.13389	0.17667
2478.20532	0.17765
2476.27676	0.17868
2474.34819	0.17965
2472.41963	0.18058
2470.49106	0.18157
2468.56250	0.18258
2466.63394	0.18347
2464.70537	0.18433
2462.77681	0.18538
2460.84824	0.18666
2458.91968	0.18786
2456.99111	0.18882
2455.06255	0.18967
2453.13398	0.19059
2451.20542	0.19166
2449.27686	0.19286
2447.34829	0.19397
2445.41973	0.19482
2443.49116	0.19560
2441.56260	0.19661
2439.63403	0.19788
2437.70547	0.19917
2435.77690	0.20038
2433.84834	0.20156
2431.91978	0.20272
2429.99121	0.20385
2428.06265	0.20495
2426.13408	0.20611
2424.20552	0.20728
2422.27695	0.20841
2420.34839	0.20958
2418.41982	0.21081
2416.49126	0.21196
2414.56270	0.21300
2412.63413	0.21404
2410.70557	0.21513
2408.77700	0.21635
2406.84844	0.21765
2404.91987	0.21897
2402.99131	0.22032
2401.06274	0.22170
2399.13418	0.22307
2397.20562	0.22439
2395.27705	0.22566
2393.34849	0.22686
2391.41992	0.22815
2389.49136	0.22976
2387.56279	0.23195
2385.63423	0.23524
2383.70566	0.24019
2381.77710	0.24715
2379.84854	0.25583
2377.91997	0.26562
2375.99141	0.27680
2374.06284	0.29024
2372.13428	0.30575
2370.20571	0.32234
2368.27715	0.33907
2366.34858	0.35500
2364.42002	0.36896
2362.49146	0.37875
2360.56289	0.38308
2358.63433	0.38313
2356.70576	0.37905
2354.77720	0.36946
2352.84863	0.35464
2350.92007	0.33824
2348.99150	0.32808
2347.06294	0.32862
2345.13437	0.34020
2343.20581	0.35633
2341.27725	0.36533
2339.34868	0.36626
2337.42012	0.36480
2335.49155	0.36389
2333.56299	0.36304
2331.63442	0.36166
2329.70586	0.36004
2327.77729	0.35836
2325.84873	0.35556
2323.92017	0.35163
2321.99160	0.34730
2320.06304	0.34216
2318.13447	0.33662
2316.20591	0.33217
2314.27734	0.32950
2312.34878	0.32831
2310.42021	0.32742
2308.49165	0.32573
2306.56309	0.32337
2304.63452	0.32113
2302.70596	0.31982
2300.77739	0.31953
2298.84883	0.31949
2296.92026	0.31944
2294.99170	0.31965
2293.06313	0.32006
2291.13457	0.32047
2289.20601	0.32087
2287.27744	0.32122
2285.34888	0.32160
2283.42031	0.32247
2281.49175	0.32424
2279.56318	0.32669
2277.63462	0.32921
2275.70605	0.33155
2273.77749	0.33380
2271.84893	0.33598
2269.92036	0.33815
2267.99180	0.34030
2266.06323	0.34226
2264.13467	0.34403
2262.20610	0.34583
2260.27754	0.34769
2258.34897	0.34959
2256.42041	0.35142
2254.49185	0.35318
2252.56328	0.35514
2250.63472	0.35723
2248.70615	0.35917
2246.77759	0.36101
2244.84902	0.36300
2242.92046	0.36512
2240.99189	0.36728
2239.06333	0.36948
2237.13477	0.37164
2235.20620	0.37375
2233.27764	0.37591
2231.34907	0.37814
2229.42051	0.38033
2227.49194	0.38242
2225.56338	0.38460
2223.63481	0.38695
2221.70625	0.38924
2219.77769	0.39137
2217.84912	0.39348
2215.92056	0.39566
2213.99199	0.39791
2212.06343	0.40018
2210.13486	0.40235
2208.20630	0.40440
2206.27773	0.40647
2204.34917	0.40867
2202.42061	0.41088
2200.49204	0.41293
2198.56348	0.41489
2196.63491	0.41700
2194.70635	0.41906
2192.77778	0.42093
2190.84922	0.42285
2188.92065	0.42480
2186.99209	0.42653
2185.06353	0.42824
2183.13496	0.43010
2181.20640	0.43198
2179.27783	0.43366
2177.34927	0.43516
2175.42070	0.43657
2173.49214	0.43790
2171.56357	0.43920
2169.63501	0.44052
2167.70645	0.44187
2165.77788	0.44324
2163.84932	0.44450
2161.92075	0.44558
2159.99219	0.44664
2158.06362	0.44770
2156.13506	0.44865
2154.20649	0.44956
2152.27793	0.45050
2150.34937	0.45136
2148.42080	0.45212
2146.49224	0.45275
2144.56367	0.45324
2142.63511	0.45361
2140.70654	0.45394
2138.77798	0.45427
2136.84941	0.45444
2134.92085	0.45435
2132.99229	0.45421
2131.06372	0.45418
2129.13516	0.45413
2127.20659	0.45397
2125.27803	0.45369
2123.34946	0.45321
2121.42090	0.45258
2119.49233	0.45194
2117.56377	0.45139
2115.63521	0.45071
2113.70664	0.44983
2111.77808	0.44884
2109.84951	0.44785
2107.92095	0.44689
2105.99238	0.44584
2104.06382	0.44462
2102.13525	0.44334
2100.20669	0.44207
2098.27812	0.44076
2096.34956	0.43930
2094.42100	0.43757
2092.49243	0.43576
2090.56387	0.43416
2088.63530	0.43262
2086.70674	0.43083
2084.77817	0.42879
2082.84961	0.42678
2080.92104	0.42483
2078.99248	0.42281
2077.06392	0.42075
2075.13535	0.41869
2073.20679	0.41653
2071.27822	0.41418
2069.34966	0.41179
2067.42109	0.40953
2065.49253	0.40738
2063.56396	0.40511
2061.63540	0.40262
2059.70684	0.40003
2057.77827	0.39748
2055.84971	0.39504
2053.92114	0.39256
2051.99258	0.38991
2050.06401	0.38720
2048.13545	0.38455
2046.20688	0.38198
2044.27832	0.37944
2042.34976	0.37685
2040.42119	0.37411
2038.49263	0.37125
2036.56406	0.36841
2034.63550	0.36561
2032.70693	0.36272
2030.77837	0.35984
2028.84980	0.35703
2026.92124	0.35425
2024.99268	0.35150
2023.06411	0.34875
2021.13555	0.34606
2019.20698	0.34361
2017.27842	0.34112
2015.34985	0.33819
2013.42129	0.33502
2011.49272	0.33202
2009.56416	0.32936
2007.63560	0.32686
2005.70703	0.32424
2003.77847	0.32146
2001.84990	0.31876
1999.92134	0.31617
1997.99277	0.31355
1996.06421	0.31098
1994.13564	0.30878
1992.20708	0.30678
1990.27852	0.30430
1988.34995	0.30146
1986.42139	0.29877
1984.49282	0.29612
1982.56426	0.29348
1980.63569	0.29102
1978.70713	0.28882
1976.77856	0.28669
1974.85000	0.28454
1972.92144	0.28234
1970.99287	0.28023
1969.06431	0.27846
1967.13574	0.27679
1965.20718	0.27461
1963.27861	0.27227
1961.35005	0.27023
1959.42148	0.26834
1957.49292	0.26656
1955.56436	0.26490
1953.63579	0.26317
1951.70723	0.26133
1949.77866	0.25959
1947.85010	0.25806
1945.92153	0.25680
1943.99297	0.25577
1942.06440	0.25454
1940.13584	0.25266
1938.20728	0.25075
1936.27871	0.24927
1934.35015	0.24806
1932.42158	0.24690
1930.49302	0.24566
1928.56445	0.24444
1926.63589	0.24340
1924.70732	0.24280
1922.77876	0.24242
1920.85020	0.24167
1918.92163	0.24080
1916.99307	0.23986
1915.06450	0.23844
1913.13594	0.23712
1911.20737	0.23656
1909.27881	0.23630
1907.35024	0.23561
1905.42168	0.23461
1903.49312	0.23381
1901.56455	0.23323
1899.63599	0.23273
1897.70742	0.23245
1895.77886	0.23237
1893.85029	0.23210
1891.92173	0.23172
1889.99316	0.23173
1888.06460	0.23152
1886.13604	0.23087
1884.20747	0.23040
1882.27891	0.23014
1880.35034	0.22999
1878.42178	0.22993
1876.49321	0.22990
1874.56465	0.22998
1872.63608	0.23046
1870.70752	0.23164
1868.77896	0.23327
1866.85039	0.23362
1864.92183	0.23247
1862.99326	0.23164
1861.06470	0.23162
1859.13613	0.23205
1857.20757	0.23244
1855.27900	0.23276
1853.35044	0.23312
1851.42187	0.23369
1849.49331	0.23461
1847.56475	0.23591
1845.63618	0.23755
1843.70762	0.23897
1841.77905	0.23902
1839.85049	0.23858
1837.92192	0.23904
1835.99336	0.23990
1834.06479	0.24083
1832.13623	0.24245
1830.20767	0.24500
1828.27910	0.24682
1826.35054	0.24745
1824.42197	0.24838
1822.49341	0.24913
1820.56484	0.24973
1818.63628	0.25085
1816.70771	0.25249
1814.77915	0.25414
1812.85059	0.25619
1810.92202	0.25883
1808.99346	0.26108
1807.06489	0.26261
1805.13633	0.26417
1803.20776	0.26668
1801.27920	0.27001
1799.35063	0.27326
1797.42207	0.27569
1795.49351	0.27819
1793.56494	0.28176
1791.63638	0.28598
1789.70781	0.28856
1787.77925	0.29001
1785.85068	0.29278
1783.92212	0.29663
1781.99355	0.30088
1780.06499	0.30534
1778.13643	0.30958
1776.20786	0.31382
1774.27930	0.31935
1772.35073	0.32676
1770.42217	0.33297
1768.49360	0.33687
1766.56504	0.34088
1764.63647	0.34582
1762.70791	0.35212
1760.77935	0.36004
1758.85078	0.36713
1756.92222	0.37428
1754.99365	0.38202
1753.06509	0.38939
1751.13652	0.39896
1749.20796	0.41071
1747.27939	0.42119
1745.35083	0.42982
1743.42227	0.43908
1741.49370	0.44971
1739.56514	0.46226
1737.63657	0.47464
1735.70801	0.48623
1733.77944	0.50406
1731.85088	0.52349
1729.92231	0.53762
1727.99375	0.55218
1726.06519	0.56871
1724.13662	0.58752
1722.20806	0.60790
1720.27949	0.62723
1718.35093	0.65089
1716.42236	0.68434
1714.49380	0.71361
1712.56523	0.73646
1710.63667	0.75944
1708.70811	0.78525
1706.77954	0.81524
1704.85098	0.85051
1702.92241	0.88151
1700.99385	0.91253
1699.06528	0.95777
1697.13672	0.99790
1695.20815	1.03747
1693.27959	1.07541
1691.35103	1.10644
1689.42246	1.14276
1687.49390	1.18098
1685.56533	1.21848
1683.63677	1.27481
1681.70820	1.33053
1679.77964	1.36584
1677.85107	1.40004
1675.92251	1.43990
1673.99395	1.48862
1672.06538	1.53170
1670.13682	1.57372
1668.20825	1.62606
1666.27969	1.66747
1664.35112	1.70260
1662.42256	1.74602
1660.49399	1.79371
1658.56543	1.83095
1656.63687	1.86189
1654.70830	1.89235
1652.77974	1.94374
1650.85117	1.99485
1648.92261	2.01687
1646.99404	2.04356
1645.06548	2.07341
1643.13691	2.09516
1641.20835	2.11027
1639.27979	2.12236
1637.35122	2.12972
1635.42266	2.13387
1633.49409	2.13202
1631.56553	2.12188
1629.63696	2.10847
1627.70840	2.08646
1625.77983	2.06032
1623.85127	2.02705
1621.92271	1.98379
1619.99414	1.94280
1618.06558	1.90277
1616.13701	1.84702
1614.20845	1.78900
1612.27988	1.74367
1610.35132	1.69685
1608.42275	1.64629
1606.49419	1.59568
1604.56562	1.54819
1602.63706	1.50212
1600.70850	1.45670
1598.77993	1.41410
1596.85137	1.37396
1594.92280	1.33550
1592.99424	1.29814
1591.06567	1.26314
1589.13711	1.23000
1587.20854	1.19878
1585.27998	1.16925
1583.35142	1.14107
1581.42285	1.11502
1579.49429	1.09276
1577.56572	1.07293
1575.63716	1.04746
1573.70859	1.02298
1571.78003	1.00689
1569.85146	0.99060
1567.92290	0.97089
1565.99434	0.95385
1564.06577	0.93913
1562.13721	0.92722
1560.20864	0.91879
1558.28008	0.90381
1556.35151	0.88500
1554.42295	0.87163
1552.49438	0.85962
1550.56582	0.84884
1548.63726	0.83843
1546.70869	0.82959
1544.78013	0.82275
1542.85156	0.81683
1540.92300	0.80988
1538.99443	0.79691
1537.06587	0.78502
1535.13730	0.77813
1533.20874	0.77131
1531.28018	0.76324
1529.35161	0.75721
1527.42305	0.75270
1525.49448	0.74804
1523.56592	0.74365
1521.63735	0.73910
1519.70879	0.73264
1517.78022	0.72634
1515.85166	0.71983
1513.92310	0.71321
1511.99453	0.70861
1510.06597	0.70624
1508.13740	0.70532
1506.20884	0.70059
1504.28027	0.69194
1502.35171	0.68660
1500.42314	0.68359
1498.49458	0.68126
1496.56602	0.67784
1494.63745	0.67342
1492.70889	0.67040
1490.78032	0.66924
1488.85176	0.66735
1486.92319	0.66281
1484.99463	0.65800
1483.06606	0.65449
1481.13750	0.65168
1479.20894	0.64900
1477.28037	0.64704
1475.35181	0.64592
1473.42324	0.64442
1471.49468	0.64048
1469.56611	0.63564
1467.63755	0.63237
1465.70898	0.63010
1463.78042	0.62727
1461.85186	0.62472
1459.92329	0.62427
1457.99473	0.62505
1456.06616	0.62263
1454.13760	0.61768
1452.20903	0.61437
1450.28047	0.61231
1448.35190	0.61071
1446.42334	0.60868
1444.49478	0.60642
1442.56621	0.60481
1440.63765	0.60375
1438.70908	0.60317
1436.78052	0.60272
1434.85195	0.60109
1432.92339	0.59890
1430.99482	0.59738
1429.06626	0.59586
1427.13770	0.59392
1425.20913	0.59247
1423.28057	0.59151
1421.35200	0.59069
1419.42344	0.59006
1417.49487	0.58842
1415.56631	0.58562
1413.63774	0.58331
1411.70918	0.58171
1409.78062	0.58031
1407.85205	0.57908
1405.92349	0.57834
1403.99492	0.57745
1402.06636	0.57598
1400.13779	0.57492
1398.20923	0.57443
1396.28066	0.57366
1394.35210	0.57205
1392.42354	0.56985
1390.49497	0.56808
1388.56641	0.56709
1386.63784	0.56602
1384.70928	0.56429
1382.78071	0.56265
1380.85215	0.56147
1378.92358	0.56060
1376.99502	0.56013
1375.06646	0.55995
1373.13789	0.55897
1371.20933	0.55728
1369.28076	0.55598
1367.35220	0.55482
1365.42363	0.55378
1363.49507	0.55346
1361.56650	0.55297
1359.63794	0.55151
1357.70937	0.55007
1355.78081	0.54902
1353.85225	0.54810
1351.92368	0.54722
1349.99512	0.54649
1348.06655	0.54575
1346.13799	0.54489
1344.20942	0.54414
1342.28086	0.54379
1340.35229	0.54369
1338.42373	0.54305
1336.49517	0.54158
1334.56660	0.54000
1332.63804	0.53882
1330.70947	0.53792
1328.78091	0.53708
1326.85234	0.53627
1324.92378	0.53549
1322.99521	0.53474
1321.06665	0.53413
1319.13809	0.53362
1317.20952	0.53291
1315.28096	0.53206
1313.35239	0.53118
1311.42383	0.53020
1309.49526	0.52921
1307.56670	0.52829
1305.63813	0.52743
1303.70957	0.52676
1301.78101	0.52620
1299.85244	0.52561
1297.92388	0.52502
1295.99531	0.52450
1294.06675	0.52402
1292.13818	0.52344
1290.20962	0.52275
1288.28105	0.52215
1286.35249	0.52175
1284.42393	0.52135
1282.49536	0.52081
1280.56680	0.52025
1278.63823	0.51981
1276.70967	0.51950
1274.78110	0.51924
1272.85254	0.51885
1270.92397	0.51826
1268.99541	0.51766
1267.06685	0.51733
1265.13828	0.51716
1263.20972	0.51687
1261.28115	0.51630
1259.35259	0.51563
1257.42402	0.51515
1255.49546	0.51489
1253.56689	0.51461
1251.63833	0.51430
1249.70977	0.51405
1247.78120	0.51388
1245.85264	0.51371
1243.92407	0.51343
1241.99551	0.51300
1240.06694	0.51249
1238.13838	0.51200
1236.20981	0.51162
1234.28125	0.51128
1232.35269	0.51082
1230.42412	0.51023
1228.49556	0.50970
1226.56699	0.50916
1224.63843	0.50848
1222.70986	0.50788
1220.78130	0.50749
1218.85273	0.50706
1216.92417	0.50647
1214.99561	0.50588
1213.06704	0.50528
1211.13848	0.50456
1209.20991	0.50392
1207.28135	0.50350
1205.35278	0.50310
1203.42422	0.50263
1201.49565	0.50210
1199.56709	0.50149
1197.63853	0.50084
1195.70996	0.50030
1193.78140	0.49990
1191.85283	0.49953
1189.92427	0.49923
1187.99570	0.49895
1186.06714	0.49869
1184.13857	0.49858
1182.21001	0.49862
1180.28145	0.49871
1178.35288	0.49886
1176.42432	0.49920
1174.49575	0.49959
1172.56719	0.49983
1170.63862	0.50000
1168.71006	0.50019
1166.78149	0.50019
1164.85293	0.50010
1162.92437	0.50010
1160.99580	0.50006
1159.06724	0.49980
1157.13867	0.49931
1155.21011	0.49857
1153.28154	0.49758
1151.35298	0.49629
1149.42441	0.49463
1147.49585	0.49277
1145.56729	0.49086
1143.63872	0.48887
1141.71016	0.48674
1139.78159	0.48445
1137.85303	0.48216
1135.92446	0.48001
1133.99590	0.47803
1132.06733	0.47618
1130.13877	0.47438
1128.21021	0.47270
1126.28164	0.47120
1124.35308	0.46989
1122.42451	0.46892
1120.49595	0.46832
1118.56738	0.46789
1116.63882	0.46753
1114.71025	0.46727
1112.78169	0.46733
1110.85312	0.46776
1108.92456	0.46826
1106.99600	0.46884
1105.06743	0.46968
1103.13887	0.47095
1101.21030	0.47290
1099.28174	0.47516
1097.35317	0.47765
1095.42461	0.48084
1093.49604	0.48465
1091.56748	0.48888
1089.63892	0.49358
1087.71035	0.49884
1085.78179	0.50467
1083.85322	0.51089
1081.92466	0.51706
1079.99609	0.52256
1078.06753	0.52666
1076.13896	0.52856
1074.21040	0.52750
1072.28184	0.52343
1070.35327	0.51726
1068.42471	0.51044
1066.49614	0.50404
1064.56758	0.49812
1062.63901	0.49244
1060.71045	0.48721
1058.78188	0.48260
1056.85332	0.47867
1054.92476	0.47544
1052.99619	0.47255
1051.06763	0.46989
1049.13906	0.46771
1047.21050	0.46584
1045.28193	0.46428
1043.35337	0.46328
1041.42480	0.46253
1039.49624	0.46176
1037.56768	0.46113
1035.63911	0.46081
1033.71055	0.46089
1031.78198	0.46127
1029.85342	0.46159
1027.92485	0.46182
1025.99629	0.46223
1024.06772	0.46280
1022.13916	0.46342
1020.21060	0.46429
1018.28203	0.46547
1016.35347	0.46658
1014.42490	0.46757
1012.49634	0.46888
1010.56777	0.47052
1008.63921	0.47218
1006.71064	0.47390
1004.78208	0.47588
1002.85352	0.47831
1000.92495	0.48121
998.99639	0.48445
997.06782	0.48791
995.13926	0.49141
993.21069	0.49494
991.28213	0.49839
989.35356	0.50130
987.42500	0.50327
985.49644	0.50446
983.56787	0.50541
981.63931	0.50670
979.71074	0.50852
977.78218	0.51067
975.85361	0.51315
973.92505	0.51602
971.99648	0.51918
970.06792	0.52263
968.13936	0.52642
966.21079	0.53063
964.28223	0.53523
962.35366	0.54012
960.42510	0.54527
958.49653	0.55072
956.56797	0.55656
954.63940	0.56284
952.71084	0.56928
950.78228	0.57559
948.85371	0.58190
946.92515	0.58832
944.99658	0.59469
943.06802	0.60096
941.13945	0.60723
939.21089	0.61321
937.28232	0.61871
935.35376	0.62416
933.42520	0.62980
931.49663	0.63529
929.56807	0.64073
927.63950	0.64686
925.71094	0.65358
923.78237	0.66022
921.85381	0.66664
919.92524	0.67302
917.99668	0.67992
916.06812	0.68765
914.13955	0.69525
912.21099	0.70245
910.28242	0.71042
908.35386	0.71880
906.42529	0.72706
904.49673	0.73593
902.56816	0.74502
900.63960	0.75409
898.71104	0.76384
896.78247	0.77430
894.85391	0.78436
892.92534	0.79356
890.99678	0.80304
889.06821	0.81307
887.13965	0.82421
885.21108	0.83695
883.28252	0.84925
881.35396	0.86038
879.42539	0.87209
877.49683	0.88454
875.56826	0.89686
873.63970	0.90835
871.71113	0.91877
869.78257	0.92896
867.85400	0.93958
865.92544	0.95008
863.99687	0.95957
862.06831	0.96962
860.13975	0.98160
858.21118	0.99383
856.28262	1.00586
854.35405	1.01917
852.42549	1.03301
850.49692	1.04512
848.56836	1.05536
846.63979	1.06565
844.71123	1.07619
842.78267	1.08602
840.85410	1.09506
838.92554	1.10302
836.99697	1.11374
835.06841	1.12968
833.13984	1.14497
831.21128	1.15559
829.28271	1.16427
827.35415	1.17182
825.42559	1.17522
823.49702	1.17920
821.56846	1.18951
819.63989	1.20290
817.71133	1.21463
815.78276	1.22747
813.85420	1.24460
811.92563	1.25538
809.99707	1.25719
808.06851	1.25396
806.13994	1.24139
804.21138	1.23278
802.28281	1.24349
800.35425	1.26121
798.42568	1.26919
796.49712	1.27722
794.56855	1.29804
792.63999	1.31070
790.71143	1.28726
788.78286	1.26692
786.85430	1.29532
784.92573	1.32745
782.99717	1.30016
781.06860	1.26789
779.14004	1.27448
777.21147	1.31154
775.28291	1.37689
773.35435	1.42606
771.42578	1.35496
769.49722	1.22774
767.56865	1.18092
765.64009	1.21795
763.71152	1.21240
761.78296	1.14098
759.85439	1.13319
757.92583	1.17039
755.99727	1.13323
754.06870	1.06893
752.14014	1.05917
750.21157	1.07239
748.28301	1.00900
746.35444	0.92054
744.42588	0.91889
742.49731	1.01204
740.56875	1.08848
738.64019	1.01474
736.71162	0.88903
734.78306	0.79566
732.85449	0.77948
730.92593	0.83884
728.99736	0.79680
727.06880	0.62350
725.14023	0.48873
723.21167	0.46000
721.28311	0.45470
719.35454	0.31993
717.42598	0.22553
715.49741	0.25777
713.56885	0.29323
711.64028	0.26765
709.71172	0.27474
707.78315	0.28240
705.85459	0.18948
703.92603	0.17096
701.99746	0.20113
700.06890	0.12268
698.14033	-0.02918
696.21177	-0.12886
694.28320	-0.10884
692.35464	-0.04255
690.42607	-0.00694
688.49751	-0.01355
686.56895	-0.00925
684.64038	0.01017
682.71182	0.04591
680.78325	0.08091
678.85469	0.05938
676.92612	-0.01966
674.99756	-0.09228
673.06899	-0.07690
671.14043	-0.05847
669.21187	-0.04343
667.28330	0.02985
665.35474	0.09989
663.42617	0.11609
661.49761	0.12447
659.56904	0.10299
657.64048	0.06770
655.71191	0.02454
653.78335	0.00378
651.85479	0.04798
649.92622	0.08172
647.99766	0.05249
646.06909	0.01948
644.14053	0.06897
642.21196	0.17715
640.28340	0.22791
638.35483	0.20952
636.42627	0.17371
634.49771	0.18787
632.56914	0.21086
630.64058	0.17016
628.71201	0.13942
626.78345	0.13482
624.85488	0.11430
622.92632	0.09579
620.99775	0.13173
619.06919	0.25541
617.14062	0.36830
615.21206	0.28875
613.28350	0.12907
611.35493	0.09285
609.42637	0.16493
607.49780	0.22946
605.56924	0.19842
603.64067	0.14539
601.71211	0.14834
599.78354	0.13024
597.85498	0.06743
595.92642	0.00385
593.99785	-0.03436
592.06929	-0.02749
590.14072	0.01152
588.21216	0.04035
586.28359	0.01126
584.35503	-0.05673
582.42646	-0.02582
580.49790	0.09682
578.56934	0.14340
576.64077	0.10608
574.71221	0.07242
572.78364	0.08236
570.85508	0.06999
568.92651	0.03270
566.99795	0.03777
565.06938	0.08116
563.14082	0.09936
561.21226	0.12113
559.28369	0.14203
557.35513	0.09222
555.42656	0.06767
553.49800	0.11624
551.56943	0.12978
549.64087	0.08027
547.71230	0.04390
545.78374	0.02395
543.85518	0.00200
541.92661	-0.00376
539.99805	0.04948
538.06948	0.13242
536.14092	0.18990
534.21235	0.21794
532.28379	0.17765
530.35522	0.10947
528.42666	0.07826
526.49810	0.07619
524.56953	0.09042
522.64097	0.11825
520.71240	0.10797
518.78384	0.05072
516.85527	0.01133
514.92671	0.03273
512.99814	0.07666
511.06958	0.07140
509.14102	0.04243
507.21245	0.04304
505.28389	0.06775
503.35532	0.08897
501.42676	0.12255
499.49819	0.14961
