3997.91411	0.06758
3995.98555	0.06807
3994.05698	0.06875
3992.12842	0.06917
3990.19985	0.06912
3988.27129	0.06919
3986.34272	0.06943
3984.41416	0.06957
3982.48560	0.06966
3980.55703	0.06983
3978.62847	0.07017
3976.69990	0.07061
3974.77134	0.07094
3972.84277	0.07126
3970.91421	0.07157
3968.98564	0.07153
3967.05708	0.07113
3965.12852	0.07080
3963.19995	0.07082
3961.27139	0.07120
3959.34282	0.07167
3957.41426	0.07184
3955.48569	0.07208
3953.55713	0.07241
3951.62856	0.07227
3949.70000	0.07218
3947.77144	0.07237
3945.84287	0.07229
3943.91431	0.07249
3941.98574	0.07304
3940.05718	0.07282
3938.12861	0.07201
3936.20005	0.07145
3934.27148	0.07149
3932.34292	0.07206
3930.41436	0.07275
3928.48579	0.07305
3926.55723	0.07295
3924.62866	0.07292
3922.70010	0.07288
3920.77153	0.07259
3918.84297	0.07251
3916.91440	0.07292
3914.98584	0.07276
3913.05728	0.07158
3911.12871	0.07060
3909.20015	0.07049
3907.27158	0.07105
3905.34302	0.07219
3903.41445	0.07358
3901.48589	0.07441
3899.55732	0.07465
3897.62876	0.07429
3895.70020	0.07341
3893.77163	0.07302
3891.84307	0.07364
3889.91450	0.07371
3887.98594	0.07241
3886.05737	0.07203
3884.12881	0.07304
3882.20024	0.07377
3880.27168	0.07412
3878.34312	0.07373
3876.41455	0.07289
3874.48599	0.07345
3872.55742	0.07512
3870.62886	0.07648
3868.70029	0.07718
3866.77173	0.07688
3864.84316	0.07646
3862.91460	0.07666
3860.98604	0.07670
3859.05747	0.07632
3857.12891	0.07638
3855.20034	0.07770
3853.27178	0.08054
3851.34321	0.08204
3849.41465	0.08037
3847.48608	0.07877
3845.55752	0.07836
3843.62896	0.07894
3841.70039	0.08026
3839.77183	0.08213
3837.84326	0.08404
3835.91470	0.08467
3833.98613	0.08385
3832.05757	0.08344
3830.12900	0.08410
3828.20044	0.08487
3826.27187	0.08555
3824.34331	0.08635
3822.41475	0.08759
3820.48618	0.08967
3818.55762	0.09078
3816.62905	0.09085
3814.70049	0.09129
3812.77192	0.09117
3810.84336	0.09060
3808.91479	0.09099
3806.98623	0.09320
3805.05767	0.09596
3803.12910	0.09765
3801.20054	0.09942
3799.27197	0.10066
3797.34341	0.10040
3795.41484	0.10025
3793.48628	0.10041
3791.55771	0.10088
3789.62915	0.10203
3787.70059	0.10363
3785.77202	0.10546
3783.84346	0.10727
3781.91489	0.10878
3779.98633	0.11059
3778.05776	0.11258
3776.12920	0.11354
3774.20063	0.11414
3772.27207	0.11558
3770.34351	0.11806
3768.41494	0.12083
3766.48638	0.12277
3764.55781	0.12448
3762.62925	0.12628
3760.70068	0.12816
3758.77212	0.13052
3756.84355	0.13307
3754.91499	0.13565
3752.98643	0.13915
3751.05786	0.14430
3749.12930	0.14908
3747.20073	0.15065
3745.27217	0.15199
3743.34360	0.15531
3741.41504	0.15834
3739.48647	0.16110
3737.55791	0.16560
3735.62935	0.17198
3733.70078	0.17782
3731.77222	0.18100
3729.84365	0.18342
3727.91509	0.18669
3725.98652	0.19167
3724.05796	0.19796
3722.12939	0.20438
3720.20083	0.21104
3718.27227	0.21782
3716.34370	0.22453
3714.41514	0.23177
3712.48657	0.24149
3710.55801	0.25495
3708.62944	0.26854
3706.70088	0.27929
3704.77231	0.28929
3702.84375	0.30193
3700.91519	0.31913
3698.98662	0.33720
3697.05806	0.35373
3695.12949	0.37148
3693.20093	0.39099
3691.27236	0.41312
3689.34380	0.44132
3687.41523	0.47395
3685.48667	0.50206
3683.55811	0.52675
3681.62954	0.55414
3679.70098	0.58605
3677.77241	0.62000
3675.84385	0.65961
3673.91528	0.71096
3671.98672	0.75252
3670.05815	0.78990
3668.12959	0.84096
3666.20103	0.88803
3664.27246	0.92792
3662.34390	0.97105
3660.41533	1.01797
3658.48677	1.06438
3656.55820	1.11343
3654.62964	1.16728
3652.70107	1.21270
3650.77251	1.25316
3648.84395	1.30808
3646.91538	1.37352
3644.98682	1.42218
3643.05825	1.46061
3641.12969	1.50056
3639.20112	1.54436
3637.27256	1.58845
3635.34399	1.63177
3633.41543	1.67490
3631.48687	1.71451
3629.55830	1.75471
3627.62974	1.80812
3625.70117	1.85794
3623.77261	1.89147
3621.84404	1.92372
3619.91548	1.96138
3617.98691	2.00669
3616.05835	2.04967
3614.12979	2.08566
3612.20122	2.12330
3610.27266	2.16160
3608.34409	2.20121
3606.41553	2.24376
3604.48696	2.28330
3602.55840	2.31884
3600.62983	2.35748
3598.70127	2.39950
3596.77271	2.43989
3594.84414	2.48004
3592.91558	2.52102
3590.98701	2.55898
3589.05845	2.59433
3587.12988	2.63690
3585.20132	2.68451
3583.27275	2.72616
3581.34419	2.76504
3579.41562	2.80543
3577.48706	2.84699
3575.55850	2.88970
3573.62993	2.93430
3571.70137	2.97696
3569.77280	3.01631
3567.84424	3.05869
3565.91567	3.11167
3563.98711	3.16290
3562.05854	3.20475
3560.12998	3.24659
3558.20142	3.29055
3556.27285	3.33510
3554.34429	3.37977
3552.41572	3.42564
3550.48716	3.47168
3548.55859	3.51699
3546.63003	3.56300
3544.70146	3.61237
3542.77290	3.66277
3540.84434	3.70950
3538.91577	3.75383
3536.98721	3.79930
3535.05864	3.84798
3533.13008	3.89714
3531.20151	3.94523
3529.27295	3.99270
3527.34438	4.04010
3525.41582	4.08605
3523.48726	4.13351
3521.55869	4.18663
3519.63013	4.23912
3517.70156	4.28479
3515.77300	4.32567
3513.84443	4.37192
3511.91587	4.42721
3509.98730	4.48366
3508.05874	4.53266
3506.13018	4.57459
3504.20161	4.61823
3502.27305	4.66602
3500.34448	4.71408
3498.41592	4.76425
3496.48735	4.81747
3494.55879	4.86795
3492.63022	4.91319
3490.70166	4.95656
3488.77310	5.00304
3486.84453	5.05346
3484.91597	5.10657
3482.98740	5.15908
3481.05884	5.20753
3479.13027	5.25576
3477.20171	5.30881
3475.27314	5.36129
3473.34458	5.40250
3471.41602	5.43985
3469.48745	5.48676
3467.55889	5.53971
3465.63032	5.58909
3463.70176	5.63251
3461.77319	5.68126
3459.84463	5.74266
3457.91606	5.80535
3455.98750	5.86212
3454.05894	5.91222
3452.13037	5.96125
3450.20181	6.01582
3448.27324	6.06841
3446.34468	6.11627
3444.41611	6.16467
3442.48755	6.21795
3440.55898	6.27851
3438.63042	6.34075
3436.70186	6.37481
3434.77329	6.38201
3432.84473	6.40536
3430.91616	6.45853
3428.98760	6.52927
3427.05903	6.59851
3425.13047	6.65877
3423.20190	6.70668
3421.27334	6.76471
3419.34478	6.84872
3417.41621	6.92733
3415.48765	6.97296
3413.55908	6.98063
3411.63052	6.98797
3409.70195	7.03420
3407.77339	7.11424
3405.84482	7.18218
3403.91626	7.22974
3401.98770	7.28593
3400.05913	7.33978
3398.13057	7.37640
3396.20200	7.41489
3394.27344	7.44449
3392.34487	7.45581
3390.41631	7.52024
3388.48774	7.60508
3386.55918	7.61051
3384.63062	7.56772
3382.70205	7.57965
3380.77349	7.67465
3378.84492	7.77659
3376.91636	7.84537
3374.98779	7.88379
3373.05923	7.87034
3371.13066	7.82455
3369.20210	7.84428
3367.27354	7.91471
3365.34497	7.93656
3363.41641	7.93370
3361.48784	7.96916
3359.55928	8.03456
3357.63071	8.07573
3355.70215	8.07362
3353.77358	8.05370
3351.84502	8.09953
3349.91646	8.21453
3347.98789	8.30137
3346.05933	8.29241
3344.13076	8.15279
3342.20220	7.99302
3340.27363	7.98809
3338.34507	8.12318
3336.41650	8.19672
3334.48794	8.16987
3332.55937	8.18317
3330.63081	8.26238
3328.70225	8.27595
3326.77368	8.22059
3324.84512	8.21928
3322.91655	8.25591
3320.98799	8.31509
3319.05942	8.39573
3317.13086	8.45607
3315.20229	8.49930
3313.27373	8.53583
3311.34517	8.48881
3309.41660	8.38477
3307.48804	8.34178
3305.55947	8.36433
3303.63091	8.40081
3301.70234	8.41496
3299.77378	8.43938
3297.84521	8.49196
3295.91665	8.53131
3293.98809	8.47071
3292.05952	8.32557
3290.13096	8.26503
3288.20239	8.37027
3286.27383	8.51675
3284.34526	8.55286
3282.41670	8.51245
3280.48813	8.43841
3278.55957	8.40201
3276.63101	8.45506
3274.70244	8.51423
3272.77388	8.50215
3270.84531	8.47053
3268.91675	8.43800
3266.98818	8.35901
3265.05962	8.28874
3263.13105	8.31226
3261.20249	8.46249
3259.27393	8.64005
3257.34536	8.73313
3255.41680	8.73093
3253.48823	8.62336
3251.55967	8.52113
3249.63110	8.47952
3247.70254	8.42288
3245.77397	8.40602
3243.84541	8.46028
3241.91685	8.43921
3239.98828	8.37422
3238.05972	8.35249
3236.13115	8.37326
3234.20259	8.42768
3232.27402	8.40621
3230.34546	8.31326
3228.41689	8.27672
3226.48833	8.30977
3224.55977	8.31765
3222.63120	8.25589
3220.70264	8.18844
3218.77407	8.17772
3216.84551	8.23790
3214.91694	8.32349
3212.98838	8.36044
3211.05981	8.30248
3209.13125	8.14656
3207.20269	8.01194
3205.27412	8.01384
3203.34556	8.10029
3201.41699	8.16895
3199.48843	8.14282
3197.55986	8.02990
3195.63130	7.93202
3193.70273	7.86419
3191.77417	7.81240
3189.84561	7.77404
3187.91704	7.70285
3185.98848	7.60230
3184.05991	7.50446
3182.13135	7.42977
3180.20278	7.42709
3178.27422	7.47472
3176.34565	7.47467
3174.41709	7.40376
3172.48853	7.31890
3170.55996	7.24653
3168.63140	7.15780
3166.70283	7.05563
3164.77427	6.98875
3162.84570	6.95540
3160.91714	6.90444
3158.98857	6.80874
3157.06001	6.68132
3155.13145	6.57064
3153.20288	6.50691
3151.27432	6.45785
3149.34575	6.39938
3147.41719	6.34272
3145.48862	6.27426
3143.56006	6.19029
3141.63149	6.11921
3139.70293	6.05694
3137.77437	5.98311
3135.84580	5.90460
3133.91724	5.83711
3131.98867	5.77203
3130.06011	5.69186
3128.13154	5.60781
3126.20298	5.53606
3124.27441	5.47101
3122.34585	5.40026
3120.41729	5.32250
3118.48872	5.24044
3116.56016	5.15994
3114.63159	5.09031
3112.70303	5.02538
3110.77446	4.95500
3108.84590	4.88632
3106.91733	4.82425
3104.98877	4.75884
3103.06021	4.68590
3101.13164	4.61382
3099.20308	4.54732
3097.27451	4.48280
3095.34595	4.41853
3093.41738	4.35343
3091.48882	4.28529
3089.56025	4.21502
3087.63169	4.14623
3085.70312	4.08358
3083.77456	4.02573
3081.84600	3.96754
3079.91743	3.90739
3077.98887	3.84589
3076.06030	3.78357
3074.13174	3.72260
3072.20317	3.66590
3070.27461	3.61085
3068.34604	3.55320
3066.41748	3.49308
3064.48892	3.43333
3062.56035	3.37744
3060.63179	3.32507
3058.70322	3.27239
3056.77466	3.21845
3054.84609	3.16438
3052.91753	3.10994
3050.98896	3.05661
3049.06040	3.00599
3047.13184	2.95669
3045.20327	2.90719
3043.27471	2.85751
3041.34614	2.80831
3039.41758	2.76035
3037.48901	2.71351
3035.56045	2.66753
3033.63188	2.62236
3031.70332	2.57713
3029.77476	2.53178
3027.84619	2.48764
3025.91763	2.44481
3023.98906	2.40235
3022.06050	2.35995
3020.13193	2.31847
3018.20337	2.27891
3016.27480	2.24007
3014.34624	2.20060
3012.41768	2.16101
3010.48911	2.12156
3008.56055	2.08335
3006.63198	2.04702
3004.70342	2.01105
3002.77485	1.97523
3000.84629	1.94055
2998.91772	1.90722
2996.98916	1.87487
2995.06060	1.84241
2993.13203	1.80994
2991.20347	1.77911
2989.27490	1.74985
2987.34634	1.72066
2985.41777	1.69165
2983.48921	1.66358
2981.56064	1.63565
2979.63208	1.60736
2977.70352	1.58006
2975.77495	1.55417
2973.84639	1.52836
2971.91782	1.50269
2969.98926	1.47814
2968.06069	1.45414
2966.13213	1.42979
2964.20356	1.40547
2962.27500	1.38201
2960.34644	1.35916
2958.41787	1.33593
2956.48931	1.31198
2954.56074	1.28813
2952.63218	1.26540
2950.70361	1.24343
2948.77505	1.22140
2946.84648	1.19914
2944.91792	1.17701
2942.98936	1.15545
2941.06079	1.13451
2939.13223	1.11403
2937.20366	1.09402
2935.27510	1.07425
2933.34653	1.05460
2931.41797	1.03527
2929.48940	1.01644
2927.56084	0.99816
2925.63228	0.98009
2923.70371	0.96207
2921.77515	0.94444
2919.84658	0.92759
2917.91802	0.91120
2915.98945	0.89465
2914.06089	0.87787
2912.13232	0.86131
2910.20376	0.84526
2908.27520	0.82995
2906.34663	0.81553
2904.41807	0.80151
2902.48950	0.78756
2900.56094	0.77400
2898.63237	0.76072
2896.70381	0.74758
2894.77524	0.73477
2892.84668	0.72240
2890.91812	0.71072
2888.98955	0.69963
2887.06099	0.68845
2885.13242	0.67731
2883.20386	0.66687
2881.27529	0.65697
2879.34673	0.64721
2877.41816	0.63750
2875.48960	0.62781
2873.56104	0.61798
2871.63247	0.60781
2869.70391	0.59693
2867.77534	0.58534
2865.84678	0.57380
2863.91821	0.56284
2861.98965	0.55233
2860.06108	0.54210
2858.13252	0.53212
2856.20396	0.52260
2854.27539	0.51378
2852.34683	0.50531
2850.41826	0.49688
2848.48970	0.48851
2846.56113	0.48021
2844.63257	0.47237
2842.70400	0.46529
2840.77544	0.45874
2838.84687	0.45241
2836.91831	0.44631
2834.98975	0.44047
2833.06118	0.43460
2831.13262	0.42847
2829.20405	0.42231
2827.27549	0.41637
2825.34692	0.41060
2823.41836	0.40495
2821.48979	0.39921
2819.56123	0.39335
2817.63267	0.38757
2815.70410	0.38205
2813.77554	0.37670
2811.84697	0.37130
2809.91841	0.36593
2807.98984	0.36074
2806.06128	0.35559
2804.13271	0.35038
2802.20415	0.34517
2800.27559	0.34014
2798.34702	0.33545
2796.41846	0.33088
2794.48989	0.32625
2792.56133	0.32160
2790.63276	0.31707
2788.70420	0.31274
2786.77563	0.30844
2784.84707	0.30414
2782.91851	0.30004
2780.98994	0.29613
2779.06138	0.29233
2777.13281	0.28864
2775.20425	0.28488
2773.27568	0.28100
2771.34712	0.27726
2769.41855	0.27364
2767.48999	0.27005
2765.56143	0.26657
2763.63286	0.26329
2761.70430	0.26010
2759.77573	0.25675
2757.84717	0.25340
2755.91860	0.25038
2753.99004	0.24761
2752.06147	0.24487
2750.13291	0.24209
2748.20435	0.23917
2746.27578	0.23614
2744.34722	0.23323
2742.41865	0.23057
2740.49009	0.22808
2738.56152	0.22562
2736.63296	0.22315
2734.70439	0.22066
2732.77583	0.21824
2730.84727	0.21602
2728.91870	0.21390
2726.99014	0.21176
2725.06157	0.20958
2723.13301	0.20737
2721.20444	0.20524
2719.27588	0.20321
2717.34731	0.20125
2715.41875	0.19940
2713.49019	0.19772
2711.56162	0.19602
2709.63306	0.19418
2707.70449	0.19236
2705.77593	0.19068
2703.84736	0.18919
2701.91880	0.18788
2699.99023	0.18646
2698.06167	0.18489
2696.13311	0.18332
2694.20454	0.18186
2692.27598	0.18057
2690.34741	0.17937
2688.41885	0.17818
2686.49028	0.17698
2684.56172	0.17572
2682.63315	0.17443
2680.70459	0.17326
2678.77603	0.17234
2676.84746	0.17144
2674.91890	0.17025
2672.99033	0.16897
2671.06177	0.16787
2669.13320	0.16680
2667.20464	0.16569
2665.27607	0.16481
2663.34751	0.16419
2661.41895	0.16341
2659.49038	0.16237
2657.56182	0.16144
2655.63325	0.16078
2653.70469	0.16026
2651.77612	0.15975
2649.84756	0.15918
2647.91899	0.15846
2645.99043	0.15772
2644.06187	0.15716
2642.13330	0.15665
2640.20474	0.15608
2638.27617	0.15560
2636.34761	0.15514
2634.41904	0.15457
2632.49048	0.15397
2630.56191	0.15349
2628.63335	0.15316
2626.70479	0.15288
2624.77622	0.15277
2622.84766	0.15276
2620.91909	0.15249
2618.99053	0.15210
2617.06196	0.15177
2615.13340	0.15150
2613.20483	0.15132
2611.27627	0.15126
2609.34771	0.15116
2607.41914	0.15098
2605.49058	0.15094
2603.56201	0.15099
2601.63345	0.15098
2599.70488	0.15092
2597.77632	0.15098
2595.84775	0.15116
2593.91919	0.15125
2591.99062	0.15118
2590.06206	0.15115
2588.13350	0.15124
2586.20493	0.15132
2584.27637	0.15148
2582.34780	0.15182
2580.41924	0.15213
2578.49067	0.15234
2576.56211	0.15264
2574.63354	0.15310
2572.70498	0.15359
2570.77642	0.15398
2568.84785	0.15428
2566.91929	0.15446
2564.99072	0.15472
2563.06216	0.15520
2561.13359	0.15570
2559.20503	0.15603
2557.27646	0.15632
2555.34790	0.15672
2553.41934	0.15730
2551.49077	0.15785
2549.56221	0.15834
2547.63364	0.15893
2545.70508	0.15958
2543.77651	0.16016
2541.84795	0.16064
2539.91938	0.16115
2537.99082	0.16187
2536.06226	0.16268
2534.13369	0.16340
2532.20513	0.16406
2530.27656	0.16467
2528.34800	0.16516
2526.41943	0.16573
2524.49087	0.16647
2522.56230	0.16725
2520.63374	0.16805
2518.70518	0.16881
2516.77661	0.16947
2514.84805	0.17016
2512.91948	0.17093
2510.99092	0.17167
2509.06235	0.17249
2507.13379	0.17343
2505.20522	0.17431
2503.27666	0.17507
2501.34810	0.17584
2499.41953	0.17664
2497.49097	0.17748
2495.56240	0.17838
2493.63384	0.17923
2491.70527	0.18001
2489.77671	0.18068
2487.84814	0.18135
2485.91958	0.18223
2483.99102	0.18316
2482.06245	0.18398
2480.13389	0.18481
2478.20532	0.18576
2476.27676	0.18676
2474.34819	0.18773
2472.41963	0.18863
2470.49106	0.18948
2468.56250	0.19036
2466.63394	0.19133
2464.70537	0.19224
2462.77681	0.19299
2460.84824	0.19387
2458.91968	0.19497
2456.99111	0.19607
2455.06255	0.19705
2453.13398	0.19804
2451.20542	0.19901
2449.27686	0.19992
2447.34829	0.20090
2445.41973	0.20197
2443.49116	0.20294
2441.56260	0.20377
2439.63403	0.20460
2437.70547	0.20549
2435.77690	0.20641
2433.84834	0.20740
2431.91978	0.20862
2429.99121	0.20991
2428.06265	0.21097
2426.13408	0.21188
2424.20552	0.21281
2422.27695	0.21380
2420.34839	0.21486
2418.41982	0.21602
2416.49126	0.21721
2414.56270	0.21835
2412.63413	0.21945
2410.70557	0.22057
2408.77700	0.22170
2406.84844	0.22280
2404.91987	0.22383
2402.99131	0.22487
2401.06274	0.22615
2399.13418	0.22751
2397.20562	0.22875
2395.27705	0.22999
2393.34849	0.23127
2391.41992	0.23249
2389.49136	0.23370
2387.56279	0.23506
2385.63423	0.23666
2383.70566	0.23861
2381.77710	0.24092
2379.84854	0.24350
2377.91997	0.24624
2375.99141	0.24907
2374.06284	0.25249
2372.13428	0.25696
2370.20571	0.26178
2368.27715	0.26594
2366.34858	0.27001
2364.42002	0.27426
2362.49146	0.27726
2360.56289	0.27908
2358.63433	0.28032
2356.70576	0.28045
2354.77720	0.27949
2352.84863	0.27825
2350.92007	0.27711
2348.99150	0.27638
2347.06294	0.27670
2345.13437	0.27883
2343.20581	0.28266
2341.27725	0.28621
2339.34868	0.28817
2337.42012	0.28930
2335.49155	0.29088
2333.56299	0.29279
2331.63442	0.29409
2329.70586	0.29466
2327.77729	0.29527
2325.84873	0.29604
2323.92017	0.29667
2321.99160	0.29740
2320.06304	0.29818
2318.13447	0.29875
2316.20591	0.29951
2314.27734	0.30065
2312.34878	0.30164
2310.42021	0.30241
2308.49165	0.30335
2306.56309	0.30439
2304.63452	0.30538
2302.70596	0.30668
2300.77739	0.30832
2298.84883	0.30990
2296.92026	0.31131
2294.99170	0.31272
2293.06313	0.31419
2291.13457	0.31572
2289.20601	0.31733
2287.27744	0.31895
2285.34888	0.32067
2283.42031	0.32257
2281.49175	0.32452
2279.56318	0.32647
2277.63462	0.32851
2275.70605	0.33071
2273.77749	0.33294
2271.84893	0.33504
2269.92036	0.33697
2267.99180	0.33887
2266.06323	0.34089
2264.13467	0.34303
2262.20610	0.34520
2260.27754	0.34735
2258.34897	0.34947
2256.42041	0.35149
2254.49185	0.35350
2252.56328	0.35562
2250.63472	0.35774
2248.70615	0.35985
2246.77759	0.36197
2244.84902	0.36408
2242.92046	0.36619
2240.99189	0.36828
2239.06333	0.37039
2237.13477	0.37262
2235.20620	0.37485
2233.27764	0.37708
2231.34907	0.37941
2229.42051	0.38172
2227.49194	0.38387
2225.56338	0.38602
2223.63481	0.38824
2221.70625	0.39042
2219.77769	0.39263
2217.84912	0.39492
2215.92056	0.39714
2213.99199	0.39927
2212.06343	0.40137
2210.13486	0.40337
2208.20630	0.40529
2206.27773	0.40728
2204.34917	0.40944
2202.42061	0.41173
2200.49204	0.41396
2198.56348	0.41599
2196.63491	0.41786
2194.70635	0.41964
2192.77778	0.42146
2190.84922	0.42342
2188.92065	0.42536
2186.99209	0.42707
2185.06353	0.42865
2183.13496	0.43028
2181.20640	0.43197
2179.27783	0.43364
2177.34927	0.43524
2175.42070	0.43681
2173.49214	0.43831
2171.56357	0.43969
2169.63501	0.44107
2167.70645	0.44242
2165.77788	0.44361
2163.84932	0.44475
2161.92075	0.44595
2159.99219	0.44715
2158.06362	0.44819
2156.13506	0.44914
2154.20649	0.44996
2152.27793	0.45052
2150.34937	0.45102
2148.42080	0.45170
2146.49224	0.45238
2144.56367	0.45285
2142.63511	0.45323
2140.70654	0.45356
2138.77798	0.45381
2136.84941	0.45401
2134.92085	0.45415
2132.99229	0.45415
2131.06372	0.45399
2129.13516	0.45376
2127.20659	0.45353
2125.27803	0.45329
2123.34946	0.45285
2121.42090	0.45224
2119.49233	0.45161
2117.56377	0.45097
2115.63521	0.45023
2113.70664	0.44936
2111.77808	0.44837
2109.84951	0.44732
2107.92095	0.44626
2105.99238	0.44512
2104.06382	0.44390
2102.13525	0.44268
2100.20669	0.44140
2098.27812	0.43995
2096.34956	0.43846
2094.42100	0.43701
2092.49243	0.43550
2090.56387	0.43387
2088.63530	0.43213
2086.70674	0.43030
2084.77817	0.42831
2082.84961	0.42625
2080.92104	0.42422
2078.99248	0.42231
2077.06392	0.42037
2075.13535	0.41825
2073.20679	0.41606
2071.27822	0.41383
2069.34966	0.41155
2067.42109	0.40927
2065.49253	0.40695
2063.56396	0.40444
2061.63540	0.40189
2059.70684	0.39946
2057.77827	0.39710
2055.84971	0.39468
2053.92114	0.39208
2051.99258	0.38935
2050.06401	0.38665
2048.13545	0.38405
2046.20688	0.38143
2044.27832	0.37881
2042.34976	0.37625
2040.42119	0.37362
2038.49263	0.37080
2036.56406	0.36793
2034.63550	0.36507
2032.70693	0.36213
2030.77837	0.35929
2028.84980	0.35663
2026.92124	0.35400
2024.99268	0.35130
2023.06411	0.34858
2021.13555	0.34590
2019.20698	0.34323
2017.27842	0.34047
2015.34985	0.33755
2013.42129	0.33462
2011.49272	0.33187
2009.56416	0.32928
2007.63560	0.32670
2005.70703	0.32408
2003.77847	0.32143
2001.84990	0.31872
1999.92134	0.31603
1997.99277	0.31341
1996.06421	0.31088
1994.13564	0.30854
1992.20708	0.30629
1990.27852	0.30378
1988.34995	0.30105
1986.42139	0.29843
1984.49282	0.29606
1982.56426	0.29384
1980.63569	0.29154
1978.70713	0.28917
1976.77856	0.28693
1974.85000	0.28487
1972.92144	0.28278
1970.99287	0.28065
1969.06431	0.27862
1967.13574	0.27669
1965.20718	0.27469
1963.27861	0.27267
1961.35005	0.27068
1959.42148	0.26870
1957.49292	0.26682
1955.56436	0.26502
1953.63579	0.26328
1951.70723	0.26166
1949.77866	0.26011
1947.85010	0.25856
1945.92153	0.25721
1943.99297	0.25607
1942.06440	0.25475
1940.13584	0.25309
1938.20728	0.25137
1936.27871	0.24986
1934.35015	0.24857
1932.42158	0.24734
1930.49302	0.24603
1928.56445	0.24483
1926.63589	0.24387
1924.70732	0.24312
1922.77876	0.24239
1920.85020	0.24151
1918.92163	0.24057
1916.99307	0.23965
1915.06450	0.23869
1913.13594	0.23774
1911.20737	0.23703
1909.27881	0.23645
1907.35024	0.23575
1905.42168	0.23500
1903.49312	0.23436
1901.56455	0.23380
1899.63599	0.23330
1897.70742	0.23300
1895.77886	0.23280
1893.85029	0.23246
1891.92173	0.23200
1889.99316	0.23176
1888.06460	0.23153
1886.13604	0.23119
1884.20747	0.23092
1882.27891	0.23069
1880.35034	0.23052
1878.42178	0.23043
1876.49321	0.23047
1874.56465	0.23063
1872.63608	0.23089
1870.70752	0.23130
1868.77896	0.23190
1866.85039	0.23208
1864.92183	0.23179
1862.99326	0.23168
1861.06470	0.23183
1859.13613	0.23215
1857.20757	0.23251
1855.27900	0.23298
1853.35044	0.23351
1851.42187	0.23408
1849.49331	0.23473
1847.56475	0.23559
1845.63618	0.23668
1843.70762	0.23781
1841.77905	0.23839
1839.85049	0.23862
1837.92192	0.23930
1835.99336	0.24022
1834.06479	0.24113
1832.13623	0.24225
1830.20767	0.24389
1828.27910	0.24545
1826.35054	0.24641
1824.42197	0.24748
1822.49341	0.24854
1820.56484	0.24963
1818.63628	0.25099
1816.70771	0.25269
1814.77915	0.25441
1812.85059	0.25630
1810.92202	0.25845
1808.99346	0.26043
1807.06489	0.26223
1805.13633	0.26410
1803.20776	0.26637
1801.27920	0.26899
1799.35063	0.27182
1797.42207	0.27429
1795.49351	0.27670
1793.56494	0.27970
1791.63638	0.28344
1789.70781	0.28664
1787.77925	0.28898
1785.85068	0.29197
1783.92212	0.29563
1781.99355	0.29966
1780.06499	0.30392
1778.13643	0.30817
1776.20786	0.31217
1774.27930	0.31659
1772.35073	0.32257
1770.42217	0.32883
1768.49360	0.33390
1766.56504	0.33880
1764.63647	0.34403
1762.70791	0.34997
1760.77935	0.35745
1758.85078	0.36455
1756.92222	0.37167
1754.99365	0.37933
1753.06509	0.38640
1751.13652	0.39495
1749.20796	0.40554
1747.27939	0.41582
1745.35083	0.42486
1743.42227	0.43431
1741.49370	0.44477
1739.56514	0.45712
1737.63657	0.46942
1735.70801	0.48040
1733.77944	0.49685
1731.85088	0.51619
1729.92231	0.53159
1727.99375	0.54715
1726.06519	0.56386
1724.13662	0.58215
1722.20806	0.60193
1720.27949	0.62054
1718.35093	0.64261
1716.42236	0.67418
1714.49380	0.70381
1712.56523	0.72823
1710.63667	0.75224
1708.70811	0.77833
1706.77954	0.80818
1704.85098	0.84334
1702.92241	0.87448
1700.99385	0.90576
1699.06528	0.95206
1697.13672	0.99449
1695.20815	1.03814
1693.27959	1.08157
1691.35103	1.11742
1689.42246	1.15847
1687.49390	1.20170
1685.56533	1.24414
1683.63677	1.30808
1681.70820	1.37338
1679.77964	1.41620
1677.85107	1.45741
1675.92251	1.50498
1673.99395	1.56293
1672.06538	1.61441
1670.13682	1.66542
1668.20825	1.73070
1666.27969	1.78495
1664.35112	1.83361
1662.42256	1.89501
1660.49399	1.96174
1658.56543	2.01346
1656.63687	2.05697
1654.70830	2.09826
1652.77974	2.15526
1650.85117	2.20399
1648.92261	2.22268
1646.99404	2.24786
1645.06548	2.27551
1643.13691	2.29215
1641.20835	2.29939
1639.27979	2.30619
1637.35122	2.31143
1635.42266	2.31133
1633.49409	2.30293
1631.56553	2.28780
1629.63696	2.26887
1627.70840	2.23901
1625.77983	2.20450
1623.85127	2.16126
1621.92271	2.10789
1619.99414	2.06060
1618.06558	2.01584
1616.13701	1.95224
1614.20845	1.88649
1612.27988	1.83631
1610.35132	1.78460
1608.42275	1.72864
1606.49419	1.67345
1604.56562	1.62289
1602.63706	1.57495
1600.70850	1.52863
1598.77993	1.48553
1596.85137	1.44434
1594.92280	1.40402
1592.99424	1.36512
1591.06567	1.32986
1589.13711	1.29730
1587.20854	1.26704
1585.27998	1.23917
1583.35142	1.21340
1581.42285	1.18984
1579.49429	1.16957
1577.56572	1.15172
1575.63716	1.13114
1573.70859	1.11348
1571.78003	1.10222
1569.85146	1.09127
1567.92290	1.07964
1565.99434	1.07094
1564.06577	1.06476
1562.13721	1.06075
1560.20864	1.05971
1558.28008	1.06151
1556.35151	1.06231
1554.42295	1.06201
1552.49438	1.06183
1550.56582	1.06032
1548.63726	1.05673
1546.70869	1.05114
1544.78013	1.04276
1542.85156	1.03145
1540.92300	1.01515
1538.99443	0.98873
1537.06587	0.96798
1535.13730	0.95376
1533.20874	0.93559
1531.28018	0.91621
1529.35161	0.90197
1527.42305	0.88885
1525.49448	0.87548
1523.56592	0.86409
1521.63735	0.85314
1519.70879	0.84194
1517.78022	0.83247
1515.85166	0.82139
1513.92310	0.80935
1511.99453	0.79885
1510.06597	0.78979
1508.13740	0.78153
1506.20884	0.76850
1504.28027	0.75577
1502.35171	0.74846
1500.42314	0.74257
1498.49458	0.73651
1496.56602	0.72939
1494.63745	0.72217
1492.70889	0.71663
1490.78032	0.71212
1488.85176	0.70701
1486.92319	0.70161
1484.99463	0.69713
1483.06606	0.69385
1481.13750	0.69126
1479.20894	0.68928
1477.28037	0.68833
1475.35181	0.68840
1473.42324	0.68899
1471.49468	0.68832
1469.56611	0.68608
1467.63755	0.68391
1465.70898	0.68226
1463.78042	0.68078
1461.85186	0.67961
1459.92329	0.67934
1457.99473	0.67978
1456.06616	0.67886
1454.13760	0.67596
1452.20903	0.67322
1450.28047	0.67079
1448.35190	0.66835
1446.42334	0.66550
1444.49478	0.66259
1442.56621	0.65999
1440.63765	0.65743
1438.70908	0.65481
1436.78052	0.65165
1434.85195	0.64804
1432.92339	0.64513
1430.99482	0.64305
1429.06626	0.64168
1427.13770	0.64105
1425.20913	0.64105
1423.28057	0.64141
1421.35200	0.64170
1419.42344	0.64190
1417.49487	0.64157
1415.56631	0.64037
1413.63774	0.63937
1411.70918	0.63912
1409.78062	0.63972
1407.85205	0.64095
1405.92349	0.64250
1403.99492	0.64362
1402.06636	0.64365
1400.13779	0.64302
1398.20923	0.64195
1396.28066	0.63987
1394.35210	0.63633
1392.42354	0.63215
1390.49497	0.62846
1388.56641	0.62496
1386.63784	0.62074
1384.70928	0.61604
1382.78071	0.61163
1380.85215	0.60751
1378.92358	0.60387
1376.99502	0.60116
1375.06646	0.59936
1373.13789	0.59797
1371.20933	0.59680
1369.28076	0.59584
1367.35220	0.59473
1365.42363	0.59341
1363.49507	0.59206
1361.56650	0.59052
1359.63794	0.58887
1357.70937	0.58739
1355.78081	0.58603
1353.85225	0.58483
1351.92368	0.58390
1349.99512	0.58324
1348.06655	0.58256
1346.13799	0.58171
1344.20942	0.58089
1342.28086	0.58025
1340.35229	0.57980
1338.42373	0.57917
1336.49517	0.57828
1334.56660	0.57762
1332.63804	0.57734
1330.70947	0.57726
1328.78091	0.57742
1326.85234	0.57793
1324.92378	0.57858
1322.99521	0.57914
1321.06665	0.57959
1319.13809	0.57990
1317.20952	0.58001
1315.28096	0.57998
1313.35239	0.57970
1311.42383	0.57903
1309.49526	0.57820
1307.56670	0.57765
1305.63813	0.57736
1303.70957	0.57698
1301.78101	0.57639
1299.85244	0.57560
1297.92388	0.57462
1295.99531	0.57353
1294.06675	0.57249
1292.13818	0.57154
1290.20962	0.57055
1288.28105	0.56945
1286.35249	0.56826
1284.42393	0.56702
1282.49536	0.56575
1280.56680	0.56450
1278.63823	0.56330
1276.70967	0.56224
1274.78110	0.56136
1272.85254	0.56061
1270.92397	0.55992
1268.99541	0.55923
1267.06685	0.55844
1265.13828	0.55757
1263.20972	0.55674
1261.28115	0.55594
1259.35259	0.55529
1257.42402	0.55484
1255.49546	0.55449
1253.56689	0.55426
1251.63833	0.55420
1249.70977	0.55428
1247.78120	0.55424
1245.85264	0.55392
1243.92407	0.55333
1241.99551	0.55244
1240.06694	0.55122
1238.13838	0.54966
1236.20981	0.54778
1234.28125	0.54571
1232.35269	0.54372
1230.42412	0.54189
1228.49556	0.54014
1226.56699	0.53847
1224.63843	0.53682
1222.70986	0.53512
1220.78130	0.53359
1218.85273	0.53235
1216.92417	0.53123
1214.99561	0.53011
1213.06704	0.52906
1211.13848	0.52819
1209.20991	0.52754
1207.28135	0.52699
1205.35278	0.52630
1203.42422	0.52548
1201.49565	0.52470
1199.56709	0.52395
1197.63853	0.52322
1195.70996	0.52257
1193.78140	0.52208
1191.85283	0.52165
1189.92427	0.52133
1187.99570	0.52127
1186.06714	0.52134
1184.13857	0.52142
1182.21001	0.52165
1180.28145	0.52226
1178.35288	0.52329
1176.42432	0.52460
1174.49575	0.52582
1172.56719	0.52658
1170.63862	0.52689
1168.71006	0.52696
1166.78149	0.52700
1164.85293	0.52706
1162.92437	0.52707
1160.99580	0.52692
1159.06724	0.52661
1157.13867	0.52613
1155.21011	0.52538
1153.28154	0.52428
1151.35298	0.52276
1149.42441	0.52077
1147.49585	0.51842
1145.56729	0.51593
1143.63872	0.51338
1141.71016	0.51084
1139.78159	0.50868
1137.85303	0.50708
1135.92446	0.50584
1133.99590	0.50480
1132.06733	0.50399
1130.13877	0.50334
1128.21021	0.50264
1126.28164	0.50179
1124.35308	0.50091
1122.42451	0.50009
1120.49595	0.49962
1118.56738	0.49968
1116.63882	0.49995
1114.71025	0.50028
1112.78169	0.50089
1110.85312	0.50174
1108.92456	0.50266
1106.99600	0.50379
1105.06743	0.50506
1103.13887	0.50604
1101.21030	0.50711
1099.28174	0.50890
1097.35317	0.51132
1095.42461	0.51409
1093.49604	0.51734
1091.56748	0.52144
1089.63892	0.52674
1087.71035	0.53343
1085.78179	0.54116
1083.85322	0.54904
1081.92466	0.55630
1079.99609	0.56204
1078.06753	0.56527
1076.13896	0.56566
1074.21040	0.56305
1072.28184	0.55765
1070.35327	0.55085
1068.42471	0.54385
1066.49614	0.53693
1064.56758	0.53053
1062.63901	0.52488
1060.71045	0.51981
1058.78188	0.51529
1056.85332	0.51118
1054.92476	0.50740
1052.99619	0.50420
1051.06763	0.50167
1049.13906	0.49960
1047.21050	0.49781
1045.28193	0.49647
1043.35337	0.49576
1041.42480	0.49534
1039.49624	0.49498
1037.56768	0.49484
1035.63911	0.49460
1033.71055	0.49391
1031.78198	0.49308
1029.85342	0.49234
1027.92485	0.49148
1025.99629	0.49051
1024.06772	0.48985
1022.13916	0.48962
1020.21060	0.48962
1018.28203	0.48986
1016.35347	0.49024
1014.42490	0.49059
1012.49634	0.49097
1010.56777	0.49133
1008.63921	0.49168
1006.71064	0.49240
1004.78208	0.49373
1002.85352	0.49545
1000.92495	0.49777
998.99639	0.50114
997.06782	0.50535
995.13926	0.50971
993.21069	0.51374
991.28213	0.51713
989.35356	0.51945
987.42500	0.52055
985.49644	0.52103
983.56787	0.52154
981.63931	0.52214
979.71074	0.52292
977.78218	0.52427
975.85361	0.52637
973.92505	0.52901
971.99648	0.53197
970.06792	0.53523
968.13936	0.53880
966.21079	0.54276
964.28223	0.54719
962.35366	0.55198
960.42510	0.55713
958.49653	0.56279
956.56797	0.56860
954.63940	0.57434
952.71084	0.58053
950.78228	0.58707
948.85371	0.59348
946.92515	0.59971
944.99658	0.60563
943.06802	0.61156
941.13945	0.61823
939.21089	0.62516
937.28232	0.63135
935.35376	0.63679
933.42520	0.64192
931.49663	0.64743
929.56807	0.65348
927.63950	0.65942
925.71094	0.66513
923.78237	0.67102
921.85381	0.67748
919.92524	0.68491
917.99668	0.69285
916.06812	0.70045
914.13955	0.70766
912.21099	0.71517
910.28242	0.72323
908.35386	0.73161
906.42529	0.74068
904.49673	0.75079
902.56816	0.76100
900.63960	0.76998
898.71104	0.77829
896.78247	0.78785
894.85391	0.79894
892.92534	0.80943
890.99678	0.81813
889.06821	0.82783
887.13965	0.84023
885.21108	0.85314
883.28252	0.86496
881.35396	0.87657
879.42539	0.88914
877.49683	0.90147
875.56826	0.91244
873.63970	0.92339
871.71113	0.93527
869.78257	0.94713
867.85400	0.95876
865.92544	0.97082
863.99687	0.98255
862.06831	0.99347
860.13975	1.00478
858.21118	1.01695
856.28262	1.02831
854.35405	1.03899
852.42549	1.05089
850.49692	1.06379
848.56836	1.07687
846.63979	1.08867
844.71123	1.09870
842.78267	1.11005
840.85410	1.12457
838.92554	1.14014
836.99697	1.15466
835.06841	1.16657
833.13984	1.17803
831.21128	1.19372
829.28271	1.20962
827.35415	1.22022
825.42559	1.22766
823.49702	1.24131
821.56846	1.26423
819.63989	1.27819
817.71133	1.27911
815.78276	1.28668
813.85420	1.30833
811.92563	1.34350
809.99707	1.38382
808.06851	1.39831
806.13994	1.37637
804.21138	1.35592
802.28281	1.35902
800.35425	1.37469
798.42568	1.40374
796.49712	1.44240
794.56855	1.48935
792.63999	1.57975
790.71143	1.68530
788.78286	1.72137
786.85430	1.74719
784.92573	1.87427
782.99717	1.80311
781.06860	1.54362
779.14004	1.43642
777.21147	1.48539
775.28291	1.62983
773.35435	1.96126
771.42578	4.62855
769.49722	2.24217
767.56865	1.68267
765.64009	1.52624
763.71152	1.47323
761.78296	1.44866
759.85439	1.34463
757.92583	1.22966
755.99727	1.14798
754.06870	1.07964
752.14014	1.05770
750.21157	1.08692
748.28301	1.08047
746.35444	0.98313
744.42588	0.89970
742.49731	0.87775
740.56875	0.87291
738.64019	0.87769
736.71162	0.89522
734.78306	0.84503
732.85449	0.72155
730.92593	0.62134
728.99736	0.58168
727.06880	0.55151
725.14023	0.41099
723.21167	0.25237
721.28311	0.19559
719.35454	0.22869
717.42598	0.23326
715.49741	0.16870
713.56885	0.15834
711.64028	0.19951
709.71172	0.27030
707.78315	0.24454
705.85459	0.07875
703.92603	-0.00156
701.99746	0.07843
700.06890	0.18909
698.14033	0.28774
696.21177	0.33951
694.28320	0.32384
692.35464	0.28853
690.42607	0.26149
688.49751	0.21616
686.56895	0.17434
684.64038	0.17851
682.71182	0.11213
680.78325	0.00275
678.85469	-0.00367
676.92612	0.05681
674.99756	0.09485
673.06899	0.13574
671.14043	0.20277
669.21187	0.19939
667.28330	0.13798
665.35474	0.08778
663.42617	0.07476
661.49761	0.10264
659.56904	0.15864
657.64048	0.22294
655.71191	0.22759
653.78335	0.21284
651.85479	0.20730
649.92622	0.18142
647.99766	0.17464
646.06909	0.18991
644.14053	0.18800
642.21196	0.18323
640.28340	0.19280
638.35483	0.22767
636.42627	0.25673
634.49771	0.20003
632.56914	0.13302
630.64058	0.13601
628.71201	0.17459
626.78345	0.21877
624.85488	0.24786
622.92632	0.21506
620.99775	0.14859
619.06919	0.10634
617.14062	0.11702
615.21206	0.17263
613.28350	0.24060
611.35493	0.29197
609.42637	0.29064
607.49780	0.23748
605.56924	0.20451
603.64067	0.19207
601.71211	0.13138
599.78354	0.08407
597.85498	0.09972
595.92642	0.13313
593.99785	0.12832
592.06929	0.09372
590.14072	0.09882
588.21216	0.13703
586.28359	0.16384
584.35503	0.14520
582.42646	0.13405
580.49790	0.19577
578.56934	0.28794
576.64077	0.27510
574.71221	0.18772
572.78364	0.15110
570.85508	0.17916
568.92651	0.21696
566.99795	0.21262
565.06938	0.17049
563.14082	0.14434
561.21226	0.16359
559.28369	0.20943
557.35513	0.22020
555.42656	0.19627
553.49800	0.19121
551.56943	0.18842
549.64087	0.16155
547.71230	0.11133
545.78374	0.07998
543.85518	0.09055
541.92661	0.12461
539.99805	0.15810
538.06948	0.15725
536.14092	0.12947
534.21235	0.13499
532.28379	0.19085
530.35522	0.26681
528.42666	0.30066
526.49810	0.25464
524.56953	0.20529
522.64097	0.19661
520.71240	0.22371
518.78384	0.29680
516.85527	0.39902
514.92671	0.31846
512.99814	0.18464
511.06958	0.13768
509.14102	0.15629
507.21245	0.17954
505.28389	0.19956
503.35532	0.22005
501.42676	0.15863
499.49819	0.06027
