3997.91411	0.06295
3995.98555	0.06310
3994.05698	0.06310
3992.12842	0.06323
3990.19985	0.06357
3988.27129	0.06407
3986.34272	0.06458
3984.41416	0.06473
3982.48560	0.06458
3980.55703	0.06479
3978.62847	0.06530
3976.69990	0.06562
3974.77134	0.06563
3972.84277	0.06552
3970.91421	0.06574
3968.98564	0.06647
3967.05708	0.06692
3965.12852	0.06671
3963.19995	0.06660
3961.27139	0.06693
3959.34282	0.06750
3957.41426	0.06804
3955.48569	0.06793
3953.55713	0.06722
3951.62856	0.06701
3949.70000	0.06751
3947.77144	0.06782
3945.84287	0.06772
3943.91431	0.06760
3941.98574	0.06774
3940.05718	0.06788
3938.12861	0.06766
3936.20005	0.06731
3934.27148	0.06712
3932.34292	0.06725
3930.41436	0.06751
3928.48579	0.06715
3926.55723	0.06656
3924.62866	0.06673
3922.70010	0.06722
3920.77153	0.06725
3918.84297	0.06698
3916.91440	0.06669
3914.98584	0.06650
3913.05728	0.06620
3911.12871	0.06598
3909.20015	0.06610
3907.27158	0.06634
3905.34302	0.06644
3903.41445	0.06656
3901.48589	0.06698
3899.55732	0.06761
3897.62876	0.06765
3895.70020	0.06698
3893.77163	0.06658
3891.84307	0.06674
3889.91450	0.06701
3887.98594	0.06709
3886.05737	0.06734
3884.12881	0.06792
3882.20024	0.06836
3880.27168	0.06866
3878.34312	0.06865
3876.41455	0.06829
3874.48599	0.06829
3872.55742	0.06843
3870.62886	0.06901
3868.70029	0.07065
3866.77173	0.07124
3864.84316	0.07070
3862.91460	0.07063
3860.98604	0.07066
3859.05747	0.07056
3857.12891	0.07038
3855.20034	0.07049
3853.27178	0.07247
3851.34321	0.07508
3849.41465	0.07447
3847.48608	0.07307
3845.55752	0.07262
3843.62896	0.07306
3841.70039	0.07401
3839.77183	0.07540
3837.84326	0.07727
3835.91470	0.07847
3833.98613	0.07837
3832.05757	0.07794
3830.12900	0.07789
3828.20044	0.07840
3826.27187	0.07947
3824.34331	0.08048
3822.41475	0.08129
3820.48618	0.08283
3818.55762	0.08404
3816.62905	0.08428
3814.70049	0.08506
3812.77192	0.08573
3810.84336	0.08579
3808.91479	0.08637
3806.98623	0.08818
3805.05767	0.09025
3803.12910	0.09155
3801.20054	0.09321
3799.27197	0.09460
3797.34341	0.09471
3795.41484	0.09520
3793.48628	0.09617
3791.55771	0.09712
3789.62915	0.09814
3787.70059	0.09909
3785.77202	0.10018
3783.84346	0.10185
3781.91489	0.10380
3779.98633	0.10559
3778.05776	0.10719
3776.12920	0.10820
3774.20063	0.10894
3772.27207	0.11032
3770.34351	0.11284
3768.41494	0.11579
3766.48638	0.11770
3764.55781	0.11924
3762.62925	0.12081
3760.70068	0.12236
3758.77212	0.12476
3756.84355	0.12784
3754.91499	0.13015
3752.98643	0.13204
3751.05786	0.13541
3749.12930	0.14018
3747.20073	0.14282
3745.27217	0.14417
3743.34360	0.14732
3741.41504	0.15074
3739.48647	0.15285
3737.55791	0.15549
3735.62935	0.15974
3733.70078	0.16554
3731.77222	0.17114
3729.84365	0.17516
3727.91509	0.17849
3725.98652	0.18292
3724.05796	0.18904
3722.12939	0.19615
3720.20083	0.20371
3718.27227	0.21136
3716.34370	0.21896
3714.41514	0.22640
3712.48657	0.23531
3710.55801	0.24789
3708.62944	0.26119
3706.70088	0.27216
3704.77231	0.28273
3702.84375	0.29526
3700.91519	0.31200
3698.98662	0.33079
3697.05806	0.34826
3695.12949	0.36609
3693.20093	0.38507
3691.27236	0.40626
3689.34380	0.43426
3687.41523	0.46882
3685.48667	0.49899
3683.55811	0.52454
3681.62954	0.55170
3679.70098	0.58230
3677.77241	0.61476
3675.84385	0.65382
3673.91528	0.70615
3671.98672	0.74885
3670.05815	0.78669
3668.12959	0.83815
3666.20103	0.88562
3664.27246	0.92582
3662.34390	0.96909
3660.41533	1.01589
3658.48677	1.06152
3656.55820	1.10928
3654.62964	1.16304
3652.70107	1.20939
3650.77251	1.24995
3648.84395	1.30450
3646.91538	1.37025
3644.98682	1.41982
3643.05825	1.45885
3641.12969	1.49871
3639.20112	1.54252
3637.27256	1.58681
3635.34399	1.62950
3633.41543	1.67162
3631.48687	1.71155
3629.55830	1.75280
3627.62974	1.80554
3625.70117	1.85371
3623.77261	1.88663
3621.84404	1.91841
3619.91548	1.95548
3617.98691	2.00210
3616.05835	2.04831
3614.12979	2.08632
3612.20122	2.12371
3610.27266	2.16007
3608.34409	2.19794
3606.41553	2.24113
3604.48696	2.28232
3602.55840	2.31716
3600.62983	2.35395
3598.70127	2.39562
3596.77271	2.43566
3594.84414	2.47434
3592.91558	2.51419
3590.98701	2.55256
3589.05845	2.58998
3587.12988	2.63444
3585.20132	2.68225
3583.27275	2.72354
3581.34419	2.76202
3579.41562	2.80280
3577.48706	2.84554
3575.55850	2.88861
3573.62993	2.93284
3571.70137	2.97526
3569.77280	3.01459
3567.84424	3.05649
3565.91567	3.10817
3563.98711	3.15905
3562.05854	3.20091
3560.12998	3.24118
3558.20142	3.28328
3556.27285	3.32655
3554.34429	3.37125
3552.41572	3.42049
3550.48716	3.47082
3548.55859	3.51666
3546.63003	3.56001
3544.70146	3.60661
3542.77290	3.65612
3540.84434	3.70542
3538.91577	3.75359
3536.98721	3.79918
3535.05864	3.84527
3533.13008	3.89230
3531.20151	3.94006
3529.27295	3.98991
3527.34438	4.04086
3525.41582	4.09071
3523.48726	4.13926
3521.55869	4.18635
3519.63013	4.23109
3517.70156	4.27604
3515.77300	4.32092
3513.84443	4.36728
3511.91587	4.41933
3509.98730	4.47568
3508.05874	4.52889
3506.13018	4.57536
3504.20161	4.61861
3502.27305	4.66158
3500.34448	4.70675
3498.41592	4.75705
3496.48735	4.81205
3494.55879	4.86329
3492.63022	4.90330
3490.70166	4.93816
3488.77310	4.98262
3486.84453	5.04061
3484.91597	5.10081
3482.98740	5.15443
3481.05884	5.20093
3479.13027	5.24601
3477.20171	5.29837
3475.27314	5.35606
3473.34458	5.40831
3471.41602	5.44946
3469.48745	5.47906
3467.55889	5.50994
3465.63032	5.56436
3463.70176	5.63343
3461.77319	5.68841
3459.84463	5.73837
3457.91606	5.79771
3455.98750	5.85336
3454.05894	5.90028
3452.13037	5.94577
3450.20181	5.98856
3448.27324	6.02854
3446.34468	6.07580
3444.41611	6.12528
3442.48755	6.17852
3440.55898	6.24951
3438.63042	6.32539
3436.70186	6.37828
3434.77329	6.42100
3432.84473	6.48078
3430.91616	6.53682
3428.98760	6.57642
3427.05903	6.61890
3425.13047	6.67859
3423.20190	6.74444
3421.27334	6.79598
3419.34478	6.83953
3417.41621	6.87891
3415.48765	6.91609
3413.55908	6.97493
3411.63052	7.02858
3409.70195	7.04444
3407.77339	7.07367
3405.84482	7.13375
3403.91626	7.20027
3401.98770	7.24222
3400.05913	7.25916
3398.13057	7.28889
3396.20200	7.32094
3394.27344	7.33011
3392.34487	7.33875
3390.41631	7.38381
3388.48774	7.44301
3386.55918	7.47986
3384.63062	7.49018
3382.70205	7.54407
3380.77349	7.65012
3378.84492	7.68612
3376.91636	7.69631
3374.98779	7.78603
3373.05923	7.86424
3371.13066	7.82950
3369.20210	7.77504
3367.27354	7.78992
3365.34497	7.87403
3363.41641	7.93394
3361.48784	7.88891
3359.55928	7.83261
3357.63071	7.85438
3355.70215	7.90874
3353.77358	7.91690
3351.84502	7.94328
3349.91646	8.01382
3347.98789	8.06176
3346.05933	8.06889
3344.13076	8.02103
3342.20220	7.94230
3340.27363	7.95530
3338.34507	8.11715
3336.41650	8.27745
3334.48794	8.33219
3332.55937	8.27192
3330.63081	8.11684
3328.70225	8.00473
3326.77368	7.97890
3324.84512	7.96428
3322.91655	7.98044
3320.98799	8.09221
3319.05942	8.19669
3317.13086	8.20131
3315.20229	8.15940
3313.27373	8.15195
3311.34517	8.18825
3309.41660	8.22026
3307.48804	8.26273
3305.55947	8.35476
3303.63091	8.41551
3301.70234	8.35085
3299.77378	8.26647
3297.84521	8.23036
3295.91665	8.24089
3293.98809	8.31859
3292.05952	8.44276
3290.13096	8.47169
3288.20239	8.37976
3286.27383	8.32974
3284.34526	8.35311
3282.41670	8.39691
3280.48813	8.38661
3278.55957	8.37648
3276.63101	8.39719
3274.70244	8.34256
3272.77388	8.26058
3270.84531	8.25343
3268.91675	8.29975
3266.98818	8.35005
3265.05962	8.43648
3263.13105	8.50932
3261.20249	8.47516
3259.27393	8.38573
3257.34536	8.35776
3255.41680	8.43670
3253.48823	8.49405
3251.55967	8.42322
3249.63110	8.33700
3247.70254	8.34715
3245.77397	8.42812
3243.84541	8.46297
3241.91685	8.38202
3239.98828	8.25005
3238.05972	8.16261
3236.13115	8.22548
3234.20259	8.37138
3232.27402	8.36943
3230.34546	8.33859
3228.41689	8.40714
3226.48833	8.39473
3224.55977	8.27804
3222.63120	8.19643
3220.70264	8.18995
3218.77407	8.23959
3216.84551	8.24242
3214.91694	8.17691
3212.98838	8.13422
3211.05981	8.09698
3209.13125	8.06329
3207.20269	8.06968
3205.27412	8.08959
3203.34556	8.07183
3201.41699	7.98840
3199.48843	7.86434
3197.55986	7.77119
3195.63130	7.76152
3193.70273	7.76815
3191.77417	7.69153
3189.84561	7.56028
3187.91704	7.44903
3185.98848	7.37838
3184.05991	7.35327
3182.13135	7.37268
3180.20278	7.37482
3178.27422	7.33127
3176.34565	7.30514
3174.41709	7.29705
3172.48853	7.24661
3170.55996	7.16624
3168.63140	7.10091
3166.70283	7.02750
3164.77427	6.91308
3162.84570	6.78949
3160.91714	6.70769
3158.98857	6.67580
3157.06001	6.64981
3155.13145	6.59712
3153.20288	6.52708
3151.27432	6.45734
3149.34575	6.40258
3147.41719	6.35652
3145.48862	6.28959
3143.56006	6.20030
3141.63149	6.12058
3139.70293	6.05520
3137.77437	5.98751
3135.84580	5.91987
3133.91724	5.85369
3131.98867	5.78118
3130.06011	5.70460
3128.13154	5.62791
3126.20298	5.55613
3124.27441	5.48995
3122.34585	5.42115
3120.41729	5.34927
3118.48872	5.27674
3116.56016	5.20023
3114.63159	5.11963
3112.70303	5.04504
3110.77446	4.97893
3108.84590	4.91175
3106.91733	4.84256
3104.98877	4.77512
3103.06021	4.70545
3101.13164	4.63263
3099.20308	4.56591
3097.27451	4.50431
3095.34595	4.43765
3093.41738	4.36664
3091.48882	4.29614
3089.56025	4.22674
3087.63169	4.16031
3085.70312	4.09946
3083.77456	4.04012
3081.84600	3.97596
3079.91743	3.90915
3077.98887	3.84606
3076.06030	3.78745
3074.13174	3.72867
3072.20317	3.66655
3070.27461	3.60414
3068.34604	3.54488
3066.41748	3.48816
3064.48892	3.43271
3062.56035	3.37698
3060.63179	3.32094
3058.70322	3.26576
3056.77466	3.21166
3054.84609	3.15845
3052.91753	3.10521
3050.98896	3.05236
3049.06040	3.00117
3047.13184	2.95096
3045.20327	2.90039
3043.27471	2.84969
3041.34614	2.79954
3039.41758	2.75059
3037.48901	2.70373
3035.56045	2.65855
3033.63188	2.61367
3031.70332	2.56857
3029.77476	2.52391
3027.84619	2.48021
3025.91763	2.43688
3023.98906	2.39354
3022.06050	2.35097
3020.13193	2.30920
3018.20337	2.26776
3016.27480	2.22689
3014.34624	2.18734
3012.41768	2.14947
3010.48911	2.11190
3008.56055	2.07352
3006.63198	2.03569
3004.70342	1.99955
3002.77485	1.96419
3000.84629	1.92892
2998.91772	1.89431
2996.98916	1.86054
2995.06060	1.82711
2993.13203	1.79432
2991.20347	1.76311
2989.27490	1.73316
2987.34634	1.70321
2985.41777	1.67279
2983.48921	1.64293
2981.56064	1.61462
2979.63208	1.58667
2977.70352	1.55806
2975.77495	1.52988
2973.84639	1.50277
2971.91782	1.47599
2969.98926	1.44930
2968.06069	1.42280
2966.13213	1.39647
2964.20356	1.37089
2962.27500	1.34614
2960.34644	1.32158
2958.41787	1.29707
2956.48931	1.27304
2954.56074	1.24988
2952.63218	1.22715
2950.70361	1.20453
2948.77505	1.18239
2946.84648	1.16067
2944.91792	1.13933
2942.98936	1.11837
2941.06079	1.09713
2939.13223	1.07523
2937.20366	1.05309
2935.27510	1.03121
2933.34653	1.00976
2931.41797	0.98831
2929.48940	0.96697
2927.56084	0.94687
2925.63228	0.92778
2923.70371	0.90929
2921.77515	0.89237
2919.84658	0.87730
2917.91802	0.86338
2915.98945	0.84992
2914.06089	0.83680
2912.13232	0.82395
2910.20376	0.81082
2908.27520	0.79749
2906.34663	0.78433
2904.41807	0.77109
2902.48950	0.75799
2900.56094	0.74558
2898.63237	0.73363
2896.70381	0.72189
2894.77524	0.71009
2892.84668	0.69809
2890.91812	0.68633
2888.98955	0.67507
2887.06099	0.66427
2885.13242	0.65405
2883.20386	0.64410
2881.27529	0.63383
2879.34673	0.62345
2877.41816	0.61346
2875.48960	0.60360
2873.56104	0.59323
2871.63247	0.58232
2869.70391	0.57134
2867.77534	0.56067
2865.84678	0.55014
2863.91821	0.53912
2861.98965	0.52747
2860.06108	0.51591
2858.13252	0.50495
2856.20396	0.49445
2854.27539	0.48442
2852.34683	0.47544
2850.41826	0.46789
2848.48970	0.46144
2846.56113	0.45581
2844.63257	0.45090
2842.70400	0.44627
2840.77544	0.44124
2838.84687	0.43592
2836.91831	0.43068
2834.98975	0.42532
2833.06118	0.41976
2831.13262	0.41414
2829.20405	0.40849
2827.27549	0.40286
2825.34692	0.39718
2823.41836	0.39127
2821.48979	0.38539
2819.56123	0.37983
2817.63267	0.37447
2815.70410	0.36915
2813.77554	0.36384
2811.84697	0.35865
2809.91841	0.35351
2807.98984	0.34824
2806.06128	0.34296
2804.13271	0.33799
2802.20415	0.33330
2800.27559	0.32862
2798.34702	0.32386
2796.41846	0.31912
2794.48989	0.31457
2792.56133	0.31035
2790.63276	0.30621
2788.70420	0.30202
2786.77563	0.29796
2784.84707	0.29398
2782.91851	0.28989
2780.98994	0.28580
2779.06138	0.28199
2777.13281	0.27836
2775.20425	0.27460
2773.27568	0.27089
2771.34712	0.26734
2769.41855	0.26384
2767.48999	0.26036
2765.56143	0.25701
2763.63286	0.25389
2761.70430	0.25090
2759.77573	0.24787
2757.84717	0.24480
2755.91860	0.24171
2753.99004	0.23859
2752.06147	0.23560
2750.13291	0.23291
2748.20435	0.23037
2746.27578	0.22779
2744.34722	0.22522
2742.41865	0.22261
2740.49009	0.21998
2738.56152	0.21746
2736.63296	0.21503
2734.70439	0.21259
2732.77583	0.21018
2730.84727	0.20796
2728.91870	0.20602
2726.99014	0.20420
2725.06157	0.20229
2723.13301	0.20023
2721.20444	0.19807
2719.27588	0.19605
2717.34731	0.19420
2715.41875	0.19238
2713.49019	0.19061
2711.56162	0.18897
2709.63306	0.18729
2707.70449	0.18555
2705.77593	0.18394
2703.84736	0.18240
2701.91880	0.18083
2699.99023	0.17926
2698.06167	0.17770
2696.13311	0.17630
2694.20454	0.17510
2692.27598	0.17386
2690.34741	0.17247
2688.41885	0.17109
2686.49028	0.16990
2684.56172	0.16882
2682.63315	0.16779
2680.70459	0.16676
2678.77603	0.16562
2676.84746	0.16449
2674.91890	0.16350
2672.99033	0.16248
2671.06177	0.16137
2669.13320	0.16030
2667.20464	0.15932
2665.27607	0.15842
2663.34751	0.15754
2661.41895	0.15664
2659.49038	0.15582
2657.56182	0.15515
2655.63325	0.15454
2653.70469	0.15381
2651.77612	0.15300
2649.84756	0.15241
2647.91899	0.15189
2645.99043	0.15116
2644.06187	0.15045
2642.13330	0.15001
2640.20474	0.14977
2638.27617	0.14952
2636.34761	0.14915
2634.41904	0.14873
2632.49048	0.14826
2630.56191	0.14771
2628.63335	0.14732
2626.70479	0.14706
2624.77622	0.14673
2622.84766	0.14644
2620.91909	0.14628
2618.99053	0.14605
2617.06196	0.14580
2615.13340	0.14573
2613.20483	0.14573
2611.27627	0.14566
2609.34771	0.14561
2607.41914	0.14560
2605.49058	0.14547
2603.56201	0.14529
2601.63345	0.14527
2599.70488	0.14536
2597.77632	0.14546
2595.84775	0.14561
2593.91919	0.14577
2591.99062	0.14581
2590.06206	0.14578
2588.13350	0.14591
2586.20493	0.14620
2584.27637	0.14644
2582.34780	0.14662
2580.41924	0.14695
2578.49067	0.14746
2576.56211	0.14785
2574.63354	0.14808
2572.70498	0.14834
2570.77642	0.14866
2568.84785	0.14915
2566.91929	0.14977
2564.99072	0.15029
2563.06216	0.15069
2561.13359	0.15107
2559.20503	0.15149
2557.27646	0.15196
2555.34790	0.15253
2553.41934	0.15314
2551.49077	0.15374
2549.56221	0.15429
2547.63364	0.15480
2545.70508	0.15533
2543.77651	0.15590
2541.84795	0.15653
2539.91938	0.15724
2537.99082	0.15795
2536.06226	0.15860
2534.13369	0.15915
2532.20513	0.15975
2530.27656	0.16048
2528.34800	0.16137
2526.41943	0.16234
2524.49087	0.16310
2522.56230	0.16368
2520.63374	0.16436
2518.70518	0.16522
2516.77661	0.16601
2514.84805	0.16661
2512.91948	0.16727
2510.99092	0.16811
2509.06235	0.16891
2507.13379	0.16963
2505.20522	0.17042
2503.27666	0.17134
2501.34810	0.17231
2499.41953	0.17327
2497.49097	0.17421
2495.56240	0.17512
2493.63384	0.17606
2491.70527	0.17698
2489.77671	0.17775
2487.84814	0.17850
2485.91958	0.17941
2483.99102	0.18031
2482.06245	0.18113
2480.13389	0.18204
2478.20532	0.18296
2476.27676	0.18384
2474.34819	0.18485
2472.41963	0.18595
2470.49106	0.18692
2468.56250	0.18768
2466.63394	0.18842
2464.70537	0.18927
2462.77681	0.19025
2460.84824	0.19133
2458.91968	0.19240
2456.99111	0.19339
2455.06255	0.19426
2453.13398	0.19520
2451.20542	0.19631
2449.27686	0.19733
2447.34829	0.19817
2445.41973	0.19909
2443.49116	0.20019
2441.56260	0.20130
2439.63403	0.20237
2437.70547	0.20341
2435.77690	0.20438
2433.84834	0.20536
2431.91978	0.20638
2429.99121	0.20742
2428.06265	0.20846
2426.13408	0.20958
2424.20552	0.21078
2422.27695	0.21193
2420.34839	0.21298
2418.41982	0.21406
2416.49126	0.21530
2414.56270	0.21656
2412.63413	0.21768
2410.70557	0.21877
2408.77700	0.22003
2406.84844	0.22133
2404.91987	0.22254
2402.99131	0.22373
2401.06274	0.22494
2399.13418	0.22612
2397.20562	0.22725
2395.27705	0.22845
2393.34849	0.22976
2391.41992	0.23104
2389.49136	0.23231
2387.56279	0.23356
2385.63423	0.23456
2383.70566	0.23515
2381.77710	0.23539
2379.84854	0.23552
2377.91997	0.23562
2375.99141	0.23540
2374.06284	0.23492
2372.13428	0.23446
2370.20571	0.23357
2368.27715	0.23173
2366.34858	0.23004
2364.42002	0.22957
2362.49146	0.23015
2360.56289	0.23176
2358.63433	0.23420
2356.70576	0.23720
2354.77720	0.24099
2352.84863	0.24552
2350.92007	0.24973
2348.99150	0.25230
2347.06294	0.25304
2345.13437	0.25257
2343.20581	0.25224
2341.27725	0.25331
2339.34868	0.25504
2337.42012	0.25670
2335.49155	0.25891
2333.56299	0.26138
2331.63442	0.26320
2329.70586	0.26448
2327.77729	0.26628
2325.84873	0.26915
2323.92017	0.27240
2321.99160	0.27540
2320.06304	0.27829
2318.13447	0.28107
2316.20591	0.28356
2314.27734	0.28600
2312.34878	0.28843
2310.42021	0.29069
2308.49165	0.29288
2306.56309	0.29524
2304.63452	0.29764
2302.70596	0.29979
2300.77739	0.30182
2298.84883	0.30400
2296.92026	0.30624
2294.99170	0.30836
2293.06313	0.31044
2291.13457	0.31258
2289.20601	0.31476
2287.27744	0.31693
2285.34888	0.31902
2283.42031	0.32096
2281.49175	0.32291
2279.56318	0.32494
2277.63462	0.32695
2275.70605	0.32896
2273.77749	0.33101
2271.84893	0.33309
2269.92036	0.33520
2267.99180	0.33728
2266.06323	0.33922
2264.13467	0.34116
2262.20610	0.34338
2260.27754	0.34579
2258.34897	0.34816
2256.42041	0.35038
2254.49185	0.35244
2252.56328	0.35448
2250.63472	0.35667
2248.70615	0.35890
2246.77759	0.36109
2244.84902	0.36336
2242.92046	0.36572
2240.99189	0.36806
2239.06333	0.37033
2237.13477	0.37254
2235.20620	0.37476
2233.27764	0.37700
2231.34907	0.37928
2229.42051	0.38154
2227.49194	0.38370
2225.56338	0.38592
2223.63481	0.38822
2221.70625	0.39042
2219.77769	0.39252
2217.84912	0.39460
2215.92056	0.39673
2213.99199	0.39891
2212.06343	0.40103
2210.13486	0.40315
2208.20630	0.40534
2206.27773	0.40753
2204.34917	0.40967
2202.42061	0.41180
2200.49204	0.41384
2198.56348	0.41576
2196.63491	0.41762
2194.70635	0.41949
2192.77778	0.42142
2190.84922	0.42340
2188.92065	0.42534
2186.99209	0.42718
2185.06353	0.42891
2183.13496	0.43057
2181.20640	0.43226
2179.27783	0.43395
2177.34927	0.43558
2175.42070	0.43710
2173.49214	0.43858
2171.56357	0.44007
2169.63501	0.44148
2167.70645	0.44273
2165.77788	0.44384
2163.84932	0.44489
2161.92075	0.44606
2159.99219	0.44732
2158.06362	0.44842
2156.13506	0.44926
2154.20649	0.45006
2152.27793	0.45092
2150.34937	0.45170
2148.42080	0.45232
2146.49224	0.45278
2144.56367	0.45317
2142.63511	0.45361
2140.70654	0.45401
2138.77798	0.45433
2136.84941	0.45454
2134.92085	0.45459
2132.99229	0.45455
2131.06372	0.45446
2129.13516	0.45421
2127.20659	0.45381
2125.27803	0.45346
2123.34946	0.45313
2121.42090	0.45267
2119.49233	0.45208
2117.56377	0.45143
2115.63521	0.45066
2113.70664	0.44980
2111.77808	0.44892
2109.84951	0.44796
2107.92095	0.44692
2105.99238	0.44581
2104.06382	0.44471
2102.13525	0.44341
2100.20669	0.44190
2098.27812	0.44038
2096.34956	0.43889
2094.42100	0.43732
2092.49243	0.43578
2090.56387	0.43436
2088.63530	0.43275
2086.70674	0.43081
2084.77817	0.42869
2082.84961	0.42656
2080.92104	0.42456
2078.99248	0.42265
2077.06392	0.42068
2075.13535	0.41863
2073.20679	0.41648
2071.27822	0.41418
2069.34966	0.41183
2067.42109	0.40955
2065.49253	0.40733
2063.56396	0.40494
2061.63540	0.40239
2059.70684	0.39982
2057.77827	0.39726
2055.84971	0.39469
2053.92114	0.39209
2051.99258	0.38946
2050.06401	0.38680
2048.13545	0.38416
2046.20688	0.38153
2044.27832	0.37891
2042.34976	0.37634
2040.42119	0.37381
2038.49263	0.37113
2036.56406	0.36830
2034.63550	0.36547
2032.70693	0.36268
2030.77837	0.35991
2028.84980	0.35718
2026.92124	0.35439
2024.99268	0.35144
2023.06411	0.34851
2021.13555	0.34575
2019.20698	0.34310
2017.27842	0.34039
2015.34985	0.33751
2013.42129	0.33462
2011.49272	0.33181
2009.56416	0.32915
2007.63560	0.32665
2005.70703	0.32410
2003.77847	0.32141
2001.84990	0.31873
1999.92134	0.31607
1997.99277	0.31341
1996.06421	0.31079
1994.13564	0.30830
1992.20708	0.30596
1990.27852	0.30354
1988.34995	0.30108
1986.42139	0.29866
1984.49282	0.29629
1982.56426	0.29397
1980.63569	0.29167
1978.70713	0.28938
1976.77856	0.28712
1974.85000	0.28488
1972.92144	0.28266
1970.99287	0.28057
1969.06431	0.27857
1967.13574	0.27652
1965.20718	0.27443
1963.27861	0.27244
1961.35005	0.27054
1959.42148	0.26872
1957.49292	0.26698
1955.56436	0.26526
1953.63579	0.26351
1951.70723	0.26173
1949.77866	0.26008
1947.85010	0.25855
1945.92153	0.25709
1943.99297	0.25570
1942.06440	0.25420
1940.13584	0.25253
1938.20728	0.25103
1936.27871	0.24974
1934.35015	0.24852
1932.42158	0.24735
1930.49302	0.24617
1928.56445	0.24502
1926.63589	0.24395
1924.70732	0.24304
1922.77876	0.24218
1920.85020	0.24118
1918.92163	0.24023
1916.99307	0.23931
1915.06450	0.23834
1913.13594	0.23750
1911.20737	0.23691
1909.27881	0.23636
1907.35024	0.23573
1905.42168	0.23499
1903.49312	0.23430
1901.56455	0.23380
1899.63599	0.23332
1897.70742	0.23279
1895.77886	0.23230
1893.85029	0.23199
1891.92173	0.23181
1889.99316	0.23170
1888.06460	0.23143
1886.13604	0.23108
1884.20747	0.23082
1882.27891	0.23063
1880.35034	0.23057
1878.42178	0.23060
1876.49321	0.23066
1874.56465	0.23064
1872.63608	0.23064
1870.70752	0.23080
1868.77896	0.23132
1866.85039	0.23168
1864.92183	0.23158
1862.99326	0.23156
1861.06470	0.23184
1859.13613	0.23231
1857.20757	0.23271
1855.27900	0.23311
1853.35044	0.23355
1851.42187	0.23408
1849.49331	0.23472
1847.56475	0.23542
1845.63618	0.23625
1843.70762	0.23733
1841.77905	0.23818
1839.85049	0.23859
1837.92192	0.23929
1835.99336	0.24027
1834.06479	0.24124
1832.13623	0.24220
1830.20767	0.24357
1828.27910	0.24505
1826.35054	0.24609
1824.42197	0.24729
1822.49341	0.24862
1820.56484	0.24996
1818.63628	0.25142
1816.70771	0.25303
1814.77915	0.25453
1812.85059	0.25614
1810.92202	0.25816
1808.99346	0.26029
1807.06489	0.26228
1805.13633	0.26413
1803.20776	0.26627
1801.27920	0.26874
1799.35063	0.27150
1797.42207	0.27410
1795.49351	0.27663
1793.56494	0.27952
1791.63638	0.28321
1789.70781	0.28669
1787.77925	0.28928
1785.85068	0.29234
1783.92212	0.29604
1781.99355	0.30004
1780.06499	0.30426
1778.13643	0.30858
1776.20786	0.31259
1774.27930	0.31688
1772.35073	0.32272
1770.42217	0.32905
1768.49360	0.33429
1766.56504	0.33923
1764.63647	0.34434
1762.70791	0.34997
1760.77935	0.35713
1758.85078	0.36398
1756.92222	0.37081
1754.99365	0.37809
1753.06509	0.38472
1751.13652	0.39263
1749.20796	0.40246
1747.27939	0.41224
1745.35083	0.42114
1743.42227	0.43077
1741.49370	0.44152
1739.56514	0.45432
1737.63657	0.46728
1735.70801	0.47865
1733.77944	0.49531
1731.85088	0.51518
1729.92231	0.53114
1727.99375	0.54725
1726.06519	0.56443
1724.13662	0.58297
1722.20806	0.60293
1720.27949	0.62152
1718.35093	0.64332
1716.42236	0.67514
1714.49380	0.70566
1712.56523	0.73074
1710.63667	0.75494
1708.70811	0.78076
1706.77954	0.81001
1704.85098	0.84487
1702.92241	0.87620
1700.99385	0.90733
1699.06528	0.95285
1697.13672	0.99451
1695.20815	1.03751
1693.27959	1.08001
1691.35103	1.11443
1689.42246	1.15350
1687.49390	1.19445
1685.56533	1.23398
1683.63677	1.29345
1681.70820	1.35572
1679.77964	1.39725
1677.85107	1.43640
1675.92251	1.48089
1673.99395	1.53573
1672.06538	1.58489
1670.13682	1.63293
1668.20825	1.69354
1666.27969	1.74249
1664.35112	1.78461
1662.42256	1.83772
1660.49399	1.89659
1658.56543	1.94166
1656.63687	1.97811
1654.70830	2.01324
1652.77974	2.06879
1650.85117	2.12025
1648.92261	2.13994
1646.99404	2.16533
1645.06548	2.19318
1643.13691	2.21125
1641.20835	2.22289
1639.27979	2.23378
1637.35122	2.24080
1635.42266	2.24207
1633.49409	2.23507
1631.56553	2.22052
1629.63696	2.20287
1627.70840	2.17670
1625.77983	2.14757
1623.85127	2.11091
1621.92271	2.06395
1619.99414	2.01914
1618.06558	1.97444
1616.13701	1.91433
1614.20845	1.85399
1612.27988	1.80634
1610.35132	1.75625
1608.42275	1.70267
1606.49419	1.64993
1604.56562	1.60089
1602.63706	1.55388
1600.70850	1.50851
1598.77993	1.46650
1596.85137	1.42650
1594.92280	1.38744
1592.99424	1.34966
1591.06567	1.31478
1589.13711	1.28174
1587.20854	1.25056
1585.27998	1.22146
1583.35142	1.19441
1581.42285	1.16981
1579.49429	1.14834
1577.56572	1.12875
1575.63716	1.10574
1573.70859	1.08545
1571.78003	1.07140
1569.85146	1.05645
1567.92290	1.04027
1565.99434	1.02795
1564.06577	1.01806
1562.13721	1.01038
1560.20864	1.00489
1558.28008	0.99695
1556.35151	0.98920
1554.42295	0.98397
1552.49438	0.97883
1550.56582	0.97300
1548.63726	0.96565
1546.70869	0.95752
1544.78013	0.94841
1542.85156	0.93801
1540.92300	0.92507
1538.99443	0.90542
1537.06587	0.88946
1535.13730	0.87841
1533.20874	0.86517
1531.28018	0.85112
1529.35161	0.84039
1527.42305	0.83026
1525.49448	0.81987
1523.56592	0.81087
1521.63735	0.80212
1519.70879	0.79292
1517.78022	0.78504
1515.85166	0.77672
1513.92310	0.76822
1511.99453	0.76061
1510.06597	0.75365
1508.13740	0.74717
1506.20884	0.73791
1504.28027	0.72935
1502.35171	0.72409
1500.42314	0.71953
1498.49458	0.71474
1496.56602	0.70918
1494.63745	0.70366
1492.70889	0.69932
1490.78032	0.69570
1488.85176	0.69202
1486.92319	0.68839
1484.99463	0.68510
1483.06606	0.68230
1481.13750	0.67998
1479.20894	0.67814
1477.28037	0.67687
1475.35181	0.67608
1473.42324	0.67540
1471.49468	0.67360
1469.56611	0.67077
1467.63755	0.66813
1465.70898	0.66604
1463.78042	0.66423
1461.85186	0.66269
1459.92329	0.66171
1457.99473	0.66093
1456.06616	0.65932
1454.13760	0.65693
1452.20903	0.65455
1450.28047	0.65215
1448.35190	0.64972
1446.42334	0.64704
1444.49478	0.64440
1442.56621	0.64208
1440.63765	0.63990
1438.70908	0.63783
1436.78052	0.63559
1434.85195	0.63306
1432.92339	0.63076
1430.99482	0.62909
1429.06626	0.62799
1427.13770	0.62706
1425.20913	0.62630
1423.28057	0.62582
1421.35200	0.62528
1419.42344	0.62457
1417.49487	0.62360
1415.56631	0.62224
1413.63774	0.62102
1411.70918	0.62024
1409.78062	0.61983
1407.85205	0.61966
1405.92349	0.61970
1403.99492	0.61973
1402.06636	0.61935
1400.13779	0.61846
1398.20923	0.61705
1396.28066	0.61521
1394.35210	0.61278
1392.42354	0.60987
1390.49497	0.60706
1388.56641	0.60435
1386.63784	0.60133
1384.70928	0.59805
1382.78071	0.59501
1380.85215	0.59253
1378.92358	0.59049
1376.99502	0.58869
1375.06646	0.58730
1373.13789	0.58636
1371.20933	0.58563
1369.28076	0.58493
1367.35220	0.58398
1365.42363	0.58281
1363.49507	0.58165
1361.56650	0.58041
1359.63794	0.57907
1357.70937	0.57784
1355.78081	0.57673
1353.85225	0.57563
1351.92368	0.57458
1349.99512	0.57375
1348.06655	0.57303
1346.13799	0.57216
1344.20942	0.57114
1342.28086	0.57017
1340.35229	0.56931
1338.42373	0.56845
1336.49517	0.56765
1334.56660	0.56698
1332.63804	0.56644
1330.70947	0.56605
1328.78091	0.56577
1326.85234	0.56555
1324.92378	0.56542
1322.99521	0.56536
1321.06665	0.56531
1319.13809	0.56517
1317.20952	0.56486
1315.28096	0.56440
1313.35239	0.56391
1311.42383	0.56326
1309.49526	0.56235
1307.56670	0.56140
1305.63813	0.56064
1303.70957	0.55995
1301.78101	0.55914
1299.85244	0.55831
1297.92388	0.55751
1295.99531	0.55656
1294.06675	0.55548
1292.13818	0.55448
1290.20962	0.55357
1288.28105	0.55274
1286.35249	0.55200
1284.42393	0.55119
1282.49536	0.55027
1280.56680	0.54929
1278.63823	0.54821
1276.70967	0.54721
1274.78110	0.54638
1272.85254	0.54564
1270.92397	0.54507
1268.99541	0.54464
1267.06685	0.54428
1265.13828	0.54384
1263.20972	0.54319
1261.28115	0.54246
1259.35259	0.54180
1257.42402	0.54123
1255.49546	0.54087
1253.56689	0.54066
1251.63833	0.54040
1249.70977	0.54018
1247.78120	0.54015
1245.85264	0.54002
1243.92407	0.53947
1241.99551	0.53869
1240.06694	0.53780
1238.13838	0.53665
1236.20981	0.53528
1234.28125	0.53384
1232.35269	0.53249
1230.42412	0.53137
1228.49556	0.53029
1226.56699	0.52907
1224.63843	0.52779
1222.70986	0.52653
1220.78130	0.52534
1218.85273	0.52427
1216.92417	0.52335
1214.99561	0.52260
1213.06704	0.52192
1211.13848	0.52131
1209.20991	0.52079
1207.28135	0.52019
1205.35278	0.51945
1203.42422	0.51878
1201.49565	0.51813
1199.56709	0.51742
1197.63853	0.51673
1195.70996	0.51609
1193.78140	0.51559
1191.85283	0.51519
1189.92427	0.51475
1187.99570	0.51433
1186.06714	0.51400
1184.13857	0.51380
1182.21001	0.51387
1180.28145	0.51417
1178.35288	0.51464
1176.42432	0.51548
1174.49575	0.51661
1172.56719	0.51759
1170.63862	0.51823
1168.71006	0.51864
1166.78149	0.51906
1164.85293	0.51964
1162.92437	0.52026
1160.99580	0.52081
1159.06724	0.52113
1157.13867	0.52093
1155.21011	0.52023
1153.28154	0.51913
1151.35298	0.51763
1149.42441	0.51568
1147.49585	0.51340
1145.56729	0.51096
1143.63872	0.50851
1141.71016	0.50624
1139.78159	0.50430
1137.85303	0.50274
1135.92446	0.50157
1133.99590	0.50066
1132.06733	0.49991
1130.13877	0.49927
1128.21021	0.49857
1126.28164	0.49778
1124.35308	0.49711
1122.42451	0.49652
1120.49595	0.49613
1118.56738	0.49622
1116.63882	0.49662
1114.71025	0.49698
1112.78169	0.49738
1110.85312	0.49794
1108.92456	0.49875
1106.99600	0.49976
1105.06743	0.50081
1103.13887	0.50205
1101.21030	0.50346
1099.28174	0.50490
1097.35317	0.50682
1095.42461	0.50962
1093.49604	0.51334
1091.56748	0.51801
1089.63892	0.52377
1087.71035	0.53105
1085.78179	0.53975
1083.85322	0.54857
1081.92466	0.55607
1079.99609	0.56169
1078.06753	0.56482
1076.13896	0.56457
1074.21040	0.56141
1072.28184	0.55668
1070.35327	0.55064
1068.42471	0.54357
1066.49614	0.53646
1064.56758	0.52996
1062.63901	0.52422
1060.71045	0.51914
1058.78188	0.51461
1056.85332	0.51058
1054.92476	0.50707
1052.99619	0.50436
1051.06763	0.50239
1049.13906	0.50068
1047.21050	0.49927
1045.28193	0.49865
1043.35337	0.49887
1041.42480	0.49927
1039.49624	0.49939
1037.56768	0.49932
1035.63911	0.49920
1033.71055	0.49887
1031.78198	0.49820
1029.85342	0.49704
1027.92485	0.49548
1025.99629	0.49407
1024.06772	0.49315
1022.13916	0.49261
1020.21060	0.49230
1018.28203	0.49223
1016.35347	0.49237
1014.42490	0.49251
1012.49634	0.49253
1010.56777	0.49253
1008.63921	0.49279
1006.71064	0.49341
1004.78208	0.49434
1002.85352	0.49574
1000.92495	0.49799
998.99639	0.50134
997.06782	0.50548
995.13926	0.50979
993.21069	0.51387
991.28213	0.51733
989.35356	0.51971
987.42500	0.52075
985.49644	0.52067
983.56787	0.52023
981.63931	0.52035
979.71074	0.52134
977.78218	0.52289
975.85361	0.52485
973.92505	0.52733
971.99648	0.53039
970.06792	0.53386
968.13936	0.53755
966.21079	0.54152
964.28223	0.54597
962.35366	0.55101
960.42510	0.55633
958.49653	0.56156
956.56797	0.56691
954.63940	0.57269
952.71084	0.57873
950.78228	0.58493
948.85371	0.59146
946.92515	0.59802
944.99658	0.60431
943.06802	0.61076
941.13945	0.61725
939.21089	0.62304
937.28232	0.62834
935.35376	0.63372
933.42520	0.63944
931.49663	0.64535
929.56807	0.65147
927.63950	0.65793
925.71094	0.66430
923.78237	0.67033
921.85381	0.67651
919.92524	0.68307
917.99668	0.68964
916.06812	0.69625
914.13955	0.70341
912.21099	0.71146
910.28242	0.72014
908.35386	0.72944
906.42529	0.73918
904.49673	0.74761
902.56816	0.75487
900.63960	0.76412
898.71104	0.77530
896.78247	0.78585
894.85391	0.79534
892.92534	0.80420
890.99678	0.81372
889.06821	0.82530
887.13965	0.83822
885.21108	0.85086
883.28252	0.86228
881.35396	0.87318
879.42539	0.88418
877.49683	0.89493
875.56826	0.90613
873.63970	0.91748
871.71113	0.92783
869.78257	0.93865
867.85400	0.95169
865.92544	0.96512
863.99687	0.97696
862.06831	0.98707
860.13975	0.99637
858.21118	1.00847
856.28262	1.02217
854.35405	1.03276
852.42549	1.04278
850.49692	1.05546
848.56836	1.06729
846.63979	1.07614
844.71123	1.08655
842.78267	1.10079
840.85410	1.11457
838.92554	1.12547
836.99697	1.13608
835.06841	1.14492
833.13984	1.15214
831.21128	1.16598
829.28271	1.18421
827.35415	1.19822
825.42559	1.20968
823.49702	1.22110
821.56846	1.23657
819.63989	1.25949
817.71133	1.27812
815.78276	1.28641
813.85420	1.29214
811.92563	1.30367
809.99707	1.32826
808.06851	1.34878
806.13994	1.35000
804.21138	1.34923
802.28281	1.35960
800.35425	1.38196
798.42568	1.40448
796.49712	1.41547
794.56855	1.42435
792.63999	1.44743
790.71143	1.47101
788.78286	1.46387
786.85430	1.44131
784.92573	1.42277
782.99717	1.39385
781.06860	1.42417
779.14004	1.56686
777.21147	1.62465
775.28291	1.47104
773.35435	1.37629
771.42578	1.31702
769.49722	1.23892
767.56865	1.17541
765.64009	1.15105
763.71152	1.16838
761.78296	1.23241
759.85439	1.30943
757.92583	1.33118
755.99727	1.30941
754.06870	1.22978
752.14014	1.10767
750.21157	1.02751
748.28301	1.00079
746.35444	0.98446
744.42588	0.92846
742.49731	0.84332
740.56875	0.78735
738.64019	0.75846
736.71162	0.68549
734.78306	0.60750
732.85449	0.55019
730.92593	0.41067
728.99736	0.20941
727.06880	0.05034
725.14023	-0.02337
723.21167	-0.03906
721.28311	-0.05687
719.35454	-0.12341
717.42598	-0.25351
715.49741	-0.28671
713.56885	-0.19421
711.64028	-0.08166
709.71172	0.03205
707.78315	0.07007
705.85459	0.00011
703.92603	-0.03402
701.99746	0.01042
700.06890	0.06983
698.14033	0.09409
696.21177	0.06917
694.28320	0.05309
692.35464	0.08301
690.42607	0.14221
688.49751	0.22120
686.56895	0.27257
684.64038	0.24422
682.71182	0.19668
680.78325	0.17254
678.85469	0.16947
676.92612	0.19833
674.99756	0.24471
673.06899	0.26296
671.14043	0.24582
669.21187	0.25222
667.28330	0.25419
665.35474	0.18037
663.42617	0.09592
661.49761	0.07697
659.56904	0.12073
657.64048	0.18933
655.71191	0.24686
653.78335	0.24066
651.85479	0.20812
649.92622	0.19438
647.99766	0.18200
646.06909	0.17205
644.14053	0.17903
642.21196	0.19695
640.28340	0.22392
638.35483	0.28012
636.42627	0.37572
634.49771	0.46770
632.56914	0.42155
630.64058	0.28113
628.71201	0.18249
626.78345	0.17756
624.85488	0.22646
622.92632	0.23667
620.99775	0.21277
619.06919	0.21446
617.14062	0.20656
615.21206	0.17549
613.28350	0.16511
611.35493	0.18191
609.42637	0.18792
607.49780	0.19414
605.56924	0.21236
603.64067	0.21126
601.71211	0.18425
599.78354	0.15204
597.85498	0.14161
595.92642	0.16249
593.99785	0.18664
592.06929	0.19521
590.14072	0.16786
588.21216	0.12887
586.28359	0.14486
584.35503	0.19856
582.42646	0.21041
580.49790	0.17321
578.56934	0.14282
576.64077	0.14480
574.71221	0.17535
572.78364	0.25246
570.85508	0.34866
568.92651	0.33384
566.99795	0.26055
565.06938	0.21974
563.14082	0.22387
561.21226	0.25388
559.28369	0.23191
557.35513	0.18088
555.42656	0.14670
553.49800	0.11952
551.56943	0.10701
549.64087	0.09986
547.71230	0.08441
545.78374	0.08358
543.85518	0.09627
541.92661	0.11378
539.99805	0.14764
538.06948	0.20231
536.14092	0.22089
534.21235	0.16920
532.28379	0.11202
530.35522	0.09424
528.42666	0.12507
526.49810	0.17034
524.56953	0.20452
522.64097	0.26517
520.71240	0.32193
518.78384	0.30310
516.85527	0.22856
514.92671	0.14983
512.99814	0.12110
511.06958	0.12442
509.14102	0.11502
507.21245	0.10181
505.28389	0.10041
503.35532	0.12368
501.42676	0.16805
499.49819	0.21840
