3997.91411	0.06309
3995.98555	0.06327
3994.05698	0.06351
3992.12842	0.06385
3990.19985	0.06438
3988.27129	0.06516
3986.34272	0.06592
3984.41416	0.06605
3982.48560	0.06568
3980.55703	0.06544
3978.62847	0.06545
3976.69990	0.06570
3974.77134	0.06595
3972.84277	0.06596
3970.91421	0.06619
3968.98564	0.06691
3967.05708	0.06763
3965.12852	0.06767
3963.19995	0.06737
3961.27139	0.06756
3959.34282	0.06803
3957.41426	0.06832
3955.48569	0.06845
3953.55713	0.06825
3951.62856	0.06784
3949.70000	0.06788
3947.77144	0.06824
3945.84287	0.06823
3943.91431	0.06807
3941.98574	0.06818
3940.05718	0.06810
3938.12861	0.06766
3936.20005	0.06744
3934.27148	0.06784
3932.34292	0.06862
3930.41436	0.06897
3928.48579	0.06839
3926.55723	0.06790
3924.62866	0.06817
3922.70010	0.06822
3920.77153	0.06800
3918.84297	0.06845
3916.91440	0.06920
3914.98584	0.06893
3913.05728	0.06756
3911.12871	0.06664
3909.20015	0.06686
3907.27158	0.06741
3905.34302	0.06792
3903.41445	0.06847
3901.48589	0.06895
3899.55732	0.06943
3897.62876	0.06934
3895.70020	0.06869
3893.77163	0.06838
3891.84307	0.06852
3889.91450	0.06852
3887.98594	0.06835
3886.05737	0.06873
3884.12881	0.06937
3882.20024	0.06978
3880.27168	0.07044
3878.34312	0.07039
3876.41455	0.06952
3874.48599	0.06919
3872.55742	0.06912
3870.62886	0.06940
3868.70029	0.07080
3866.77173	0.07162
3864.84316	0.07195
3862.91460	0.07268
3860.98604	0.07247
3859.05747	0.07171
3857.12891	0.07165
3855.20034	0.07265
3853.27178	0.07527
3851.34321	0.07704
3849.41465	0.07538
3847.48608	0.07379
3845.55752	0.07382
3843.62896	0.07505
3841.70039	0.07636
3839.77183	0.07746
3837.84326	0.07896
3835.91470	0.07993
3833.98613	0.07962
3832.05757	0.07916
3830.12900	0.07899
3828.20044	0.07907
3826.27187	0.07986
3824.34331	0.08133
3822.41475	0.08302
3820.48618	0.08482
3818.55762	0.08537
3816.62905	0.08554
3814.70049	0.08670
3812.77192	0.08694
3810.84336	0.08631
3808.91479	0.08661
3806.98623	0.08843
3805.05767	0.09057
3803.12910	0.09224
3801.20054	0.09451
3799.27197	0.09614
3797.34341	0.09619
3795.41484	0.09646
3793.48628	0.09698
3791.55771	0.09763
3789.62915	0.09863
3787.70059	0.09971
3785.77202	0.10089
3783.84346	0.10238
3781.91489	0.10408
3779.98633	0.10608
3778.05776	0.10795
3776.12920	0.10870
3774.20063	0.10928
3772.27207	0.11084
3770.34351	0.11340
3768.41494	0.11628
3766.48638	0.11839
3764.55781	0.12005
3762.62925	0.12143
3760.70068	0.12295
3758.77212	0.12558
3756.84355	0.12864
3754.91499	0.13087
3752.98643	0.13319
3751.05786	0.13721
3749.12930	0.14230
3747.20073	0.14513
3745.27217	0.14702
3743.34360	0.15038
3741.41504	0.15324
3739.48647	0.15510
3737.55791	0.15821
3735.62935	0.16368
3733.70078	0.17054
3731.77222	0.17578
3729.84365	0.17894
3727.91509	0.18193
3725.98652	0.18672
3724.05796	0.19310
3722.12939	0.19959
3720.20083	0.20621
3718.27227	0.21289
3716.34370	0.21961
3714.41514	0.22675
3712.48657	0.23610
3710.55801	0.24969
3708.62944	0.26379
3706.70088	0.27458
3704.77231	0.28474
3702.84375	0.29722
3700.91519	0.31391
3698.98662	0.33219
3697.05806	0.34930
3695.12949	0.36732
3693.20093	0.38656
3691.27236	0.40776
3689.34380	0.43545
3687.41523	0.46891
3685.48667	0.49795
3683.55811	0.52328
3681.62954	0.55102
3679.70098	0.58236
3677.77241	0.61524
3675.84385	0.65429
3673.91528	0.70589
3671.98672	0.74788
3670.05815	0.78536
3668.12959	0.83641
3666.20103	0.88375
3664.27246	0.92418
3662.34390	0.96743
3660.41533	1.01372
3658.48677	1.05925
3656.55820	1.10772
3654.62964	1.16143
3652.70107	1.20671
3650.77251	1.24723
3648.84395	1.30324
3646.91538	1.36949
3644.98682	1.41782
3643.05825	1.45605
3641.12969	1.49617
3639.20112	1.54035
3637.27256	1.58420
3635.34399	1.62645
3633.41543	1.66816
3631.48687	1.70708
3629.55830	1.74752
3627.62974	1.80099
3625.70117	1.85152
3623.77261	1.88615
3621.84404	1.91909
3619.91548	1.95788
3617.98691	2.00442
3616.05835	2.04715
3614.12979	2.08245
3612.20122	2.12032
3610.27266	2.15912
3608.34409	2.19876
3606.41553	2.24133
3604.48696	2.28117
3602.55840	2.31674
3600.62983	2.35439
3598.70127	2.39455
3596.77271	2.43366
3594.84414	2.47322
3592.91558	2.51376
3590.98701	2.55238
3589.05845	2.58942
3587.12988	2.63327
3585.20132	2.68125
3583.27275	2.72352
3581.34419	2.76265
3579.41562	2.80224
3577.48706	2.84349
3575.55850	2.88654
3573.62993	2.93034
3571.70137	2.97265
3569.77280	3.01467
3567.84424	3.06017
3565.91567	3.11277
3563.98711	3.16235
3562.05854	3.20413
3560.12998	3.24483
3558.20142	3.28728
3556.27285	3.33323
3554.34429	3.38002
3552.41572	3.42480
3550.48716	3.46790
3548.55859	3.51243
3546.63003	3.55824
3544.70146	3.60509
3542.77290	3.65442
3540.84434	3.70419
3538.91577	3.75132
3536.98721	3.79734
3535.05864	3.84856
3533.13008	3.90111
3531.20151	3.94919
3529.27295	3.99600
3527.34438	4.04502
3525.41582	4.09237
3523.48726	4.13493
3521.55869	4.17718
3519.63013	4.22271
3517.70156	4.27350
3515.77300	4.32637
3513.84443	4.37645
3511.91587	4.42526
3509.98730	4.47673
3508.05874	4.52930
3506.13018	4.57896
3504.20161	4.62738
3502.27305	4.67472
3500.34448	4.71695
3498.41592	4.76020
3496.48735	4.81050
3494.55879	4.85891
3492.63022	4.90144
3490.70166	4.94625
3488.77310	4.99718
3486.84453	5.05172
3484.91597	5.10698
3482.98740	5.16026
3481.05884	5.21031
3479.13027	5.25754
3477.20171	5.30619
3475.27314	5.35814
3473.34458	5.40284
3471.41602	5.43685
3469.48745	5.47621
3467.55889	5.52649
3465.63032	5.57919
3463.70176	5.63869
3461.77319	5.70217
3459.84463	5.74906
3457.91606	5.78194
3455.98750	5.82648
3454.05894	5.87943
3452.13037	5.92759
3450.20181	5.97757
3448.27324	6.02599
3446.34468	6.07789
3444.41611	6.13761
3442.48755	6.19551
3440.55898	6.24435
3438.63042	6.27559
3436.70186	6.30148
3434.77329	6.35078
3432.84473	6.42554
3430.91616	6.49939
3428.98760	6.55384
3427.05903	6.59033
3425.13047	6.62751
3423.20190	6.67786
3421.27334	6.74703
3419.34478	6.79985
3417.41621	6.80271
3415.48765	6.80843
3413.55908	6.85540
3411.63052	6.92023
3409.70195	6.97783
3407.77339	7.04446
3405.84482	7.12857
3403.91626	7.20803
3401.98770	7.25314
3400.05913	7.28395
3398.13057	7.33469
3396.20200	7.37456
3394.27344	7.38413
3392.34487	7.39141
3390.41631	7.43059
3388.48774	7.45873
3386.55918	7.44732
3384.63062	7.45947
3382.70205	7.50973
3380.77349	7.56827
3378.84492	7.65360
3376.91636	7.74986
3374.98779	7.80473
3373.05923	7.83517
3371.13066	7.85785
3369.20210	7.90662
3367.27354	7.95652
3365.34497	7.95608
3363.41641	7.92687
3361.48784	7.90701
3359.55928	7.94403
3357.63071	7.99880
3355.70215	8.00804
3353.77358	8.01513
3351.84502	8.10144
3349.91646	8.18842
3347.98789	8.14867
3346.05933	8.05990
3344.13076	8.04811
3342.20220	8.10130
3340.27363	8.12376
3338.34507	8.13223
3336.41650	8.19219
3334.48794	8.29285
3332.55937	8.31061
3330.63081	8.22070
3328.70225	8.14058
3326.77368	8.09062
3324.84512	8.06389
3322.91655	8.10539
3320.98799	8.20296
3319.05942	8.27428
3317.13086	8.33692
3315.20229	8.35317
3313.27373	8.26662
3311.34517	8.20875
3309.41660	8.21625
3307.48804	8.16635
3305.55947	8.08466
3303.63091	8.09779
3301.70234	8.13835
3299.77378	8.12935
3297.84521	8.14163
3295.91665	8.16971
3293.98809	8.16809
3292.05952	8.18515
3290.13096	8.20913
3288.20239	8.18796
3286.27383	8.14975
3284.34526	8.14213
3282.41670	8.17490
3280.48813	8.23093
3278.55957	8.31052
3276.63101	8.34007
3274.70244	8.28761
3272.77388	8.21203
3270.84531	8.12448
3268.91675	8.05180
3266.98818	8.05359
3265.05962	8.13159
3263.13105	8.22330
3261.20249	8.33166
3259.27393	8.40445
3257.34536	8.34707
3255.41680	8.21898
3253.48823	8.20302
3251.55967	8.40084
3249.63110	8.59127
3247.70254	8.54282
3245.77397	8.41257
3243.84541	8.35069
3241.91685	8.33479
3239.98828	8.32880
3238.05972	8.35148
3236.13115	8.35895
3234.20259	8.31729
3232.27402	8.29978
3230.34546	8.31762
3228.41689	8.27884
3226.48833	8.18085
3224.55977	8.08366
3222.63120	8.00269
3220.70264	7.96976
3218.77407	8.02509
3216.84551	8.12454
3214.91694	8.15543
3212.98838	8.12491
3211.05981	8.08620
3209.13125	7.99498
3207.20269	7.90842
3205.27412	7.89541
3203.34556	7.87847
3201.41699	7.82845
3199.48843	7.80749
3197.55986	7.80280
3195.63130	7.75464
3193.70273	7.68498
3191.77417	7.62652
3189.84561	7.58503
3187.91704	7.56460
3185.98848	7.53404
3184.05991	7.47266
3182.13135	7.37953
3180.20278	7.27917
3178.27422	7.22981
3176.34565	7.24023
3174.41709	7.23929
3172.48853	7.18080
3170.55996	7.08190
3168.63140	6.98844
3166.70283	6.94931
3164.77427	6.93027
3162.84570	6.86254
3160.91714	6.77091
3158.98857	6.71066
3157.06001	6.67228
3155.13145	6.61208
3153.20288	6.52119
3151.27432	6.42955
3149.34575	6.36245
3147.41719	6.31420
3145.48862	6.25233
3143.56006	6.17133
3141.63149	6.09808
3139.70293	6.02433
3137.77437	5.94316
3135.84580	5.87788
3133.91724	5.81993
3131.98867	5.74593
3130.06011	5.66674
3128.13154	5.59232
3126.20298	5.51639
3124.27441	5.44521
3122.34585	5.37959
3120.41729	5.30869
3118.48872	5.23398
3116.56016	5.16300
3114.63159	5.09841
3112.70303	5.03803
3110.77446	4.97207
3108.84590	4.89764
3106.91733	4.82844
3104.98877	4.76676
3103.06021	4.69802
3101.13164	4.62021
3099.20308	4.54554
3097.27451	4.47816
3095.34595	4.41427
3093.41738	4.35160
3091.48882	4.28837
3089.56025	4.22483
3087.63169	4.16220
3085.70312	4.10015
3083.77456	4.03848
3081.84600	3.97606
3079.91743	3.91263
3077.98887	3.85078
3076.06030	3.79188
3074.13174	3.73516
3072.20317	3.67864
3070.27461	3.62015
3068.34604	3.55998
3066.41748	3.50102
3064.48892	3.44488
3062.56035	3.38997
3060.63179	3.33583
3058.70322	3.28178
3056.77466	3.22725
3054.84609	3.17452
3052.91753	3.12331
3050.98896	3.07143
3049.06040	3.01905
3047.13184	2.96747
3045.20327	2.91787
3043.27471	2.86980
3041.34614	2.82178
3039.41758	2.77438
3037.48901	2.72747
3035.56045	2.67997
3033.63188	2.63357
3031.70332	2.58910
3029.77476	2.54504
3027.84619	2.50145
3025.91763	2.45876
3023.98906	2.41610
3022.06050	2.37295
3020.13193	2.32981
3018.20337	2.28803
3016.27480	2.24809
3014.34624	2.20877
3012.41768	2.16954
3010.48911	2.13112
3008.56055	2.09382
3006.63198	2.05722
3004.70342	2.02118
3002.77485	1.98588
3000.84629	1.95157
2998.91772	1.91782
2996.98916	1.88436
2995.06060	1.85200
2993.13203	1.82061
2991.20347	1.78959
2989.27490	1.75919
2987.34634	1.72947
2985.41777	1.70018
2983.48921	1.67151
2981.56064	1.64390
2979.63208	1.61715
2977.70352	1.59084
2975.77495	1.56486
2973.84639	1.53890
2971.91782	1.51293
2969.98926	1.48754
2968.06069	1.46277
2966.13213	1.43813
2964.20356	1.41372
2962.27500	1.38936
2960.34644	1.36486
2958.41787	1.34058
2956.48931	1.31667
2954.56074	1.29333
2952.63218	1.27026
2950.70361	1.24697
2948.77505	1.22398
2946.84648	1.20196
2944.91792	1.18070
2942.98936	1.15971
2941.06079	1.13868
2939.13223	1.11723
2937.20366	1.09536
2935.27510	1.07355
2933.34653	1.05167
2931.41797	1.02959
2929.48940	1.00828
2927.56084	0.98815
2925.63228	0.96869
2923.70371	0.94982
2921.77515	0.93198
2919.84658	0.91562
2917.91802	0.90033
2915.98945	0.88578
2914.06089	0.87150
2912.13232	0.85680
2910.20376	0.84237
2908.27520	0.82870
2906.34663	0.81519
2904.41807	0.80168
2902.48950	0.78845
2900.56094	0.77538
2898.63237	0.76238
2896.70381	0.74990
2894.77524	0.73789
2892.84668	0.72590
2890.91812	0.71392
2888.98955	0.70236
2887.06099	0.69153
2885.13242	0.68149
2883.20386	0.67177
2881.27529	0.66195
2879.34673	0.65231
2877.41816	0.64277
2875.48960	0.63303
2873.56104	0.62300
2871.63247	0.61250
2869.70391	0.60127
2867.77534	0.58936
2865.84678	0.57727
2863.91821	0.56520
2861.98965	0.55283
2860.06108	0.54051
2858.13252	0.52893
2856.20396	0.51788
2854.27539	0.50720
2852.34683	0.49764
2850.41826	0.48968
2848.48970	0.48284
2846.56113	0.47650
2844.63257	0.47074
2842.70400	0.46553
2840.77544	0.46031
2838.84687	0.45501
2836.91831	0.44966
2834.98975	0.44387
2833.06118	0.43792
2831.13262	0.43226
2829.20405	0.42672
2827.27549	0.42103
2825.34692	0.41520
2823.41836	0.40938
2821.48979	0.40367
2819.56123	0.39796
2817.63267	0.39205
2815.70410	0.38616
2813.77554	0.38069
2811.84697	0.37559
2809.91841	0.37051
2807.98984	0.36520
2806.06128	0.35973
2804.13271	0.35449
2802.20415	0.34956
2800.27559	0.34470
2798.34702	0.33980
2796.41846	0.33494
2794.48989	0.33029
2792.56133	0.32584
2790.63276	0.32139
2788.70420	0.31686
2786.77563	0.31247
2784.84707	0.30824
2782.91851	0.30399
2780.98994	0.29985
2779.06138	0.29586
2777.13281	0.29187
2775.20425	0.28795
2773.27568	0.28424
2771.34712	0.28053
2769.41855	0.27673
2767.48999	0.27304
2765.56143	0.26960
2763.63286	0.26632
2761.70430	0.26315
2759.77573	0.26009
2757.84717	0.25705
2755.91860	0.25394
2753.99004	0.25077
2752.06147	0.24761
2750.13291	0.24466
2748.20435	0.24188
2746.27578	0.23900
2744.34722	0.23608
2742.41865	0.23325
2740.49009	0.23054
2738.56152	0.22807
2736.63296	0.22563
2734.70439	0.22302
2732.77583	0.22047
2730.84727	0.21813
2728.91870	0.21597
2726.99014	0.21399
2725.06157	0.21202
2723.13301	0.20986
2721.20444	0.20758
2719.27588	0.20548
2717.34731	0.20361
2715.41875	0.20167
2713.49019	0.19969
2711.56162	0.19789
2709.63306	0.19615
2707.70449	0.19434
2705.77593	0.19266
2703.84736	0.19108
2701.91880	0.18946
2699.99023	0.18791
2698.06167	0.18656
2696.13311	0.18520
2694.20454	0.18375
2692.27598	0.18236
2690.34741	0.18089
2688.41885	0.17935
2686.49028	0.17801
2684.56172	0.17692
2682.63315	0.17595
2680.70459	0.17498
2678.77603	0.17384
2676.84746	0.17260
2674.91890	0.17155
2672.99033	0.17058
2671.06177	0.16947
2669.13320	0.16829
2667.20464	0.16719
2665.27607	0.16617
2663.34751	0.16526
2661.41895	0.16449
2659.49038	0.16380
2657.56182	0.16306
2655.63325	0.16224
2653.70469	0.16136
2651.77612	0.16052
2649.84756	0.15985
2647.91899	0.15914
2645.99043	0.15837
2644.06187	0.15782
2642.13330	0.15737
2640.20474	0.15691
2638.27617	0.15660
2636.34761	0.15627
2634.41904	0.15575
2632.49048	0.15519
2630.56191	0.15463
2628.63335	0.15414
2626.70479	0.15371
2624.77622	0.15331
2622.84766	0.15306
2620.91909	0.15283
2618.99053	0.15256
2617.06196	0.15238
2615.13340	0.15228
2613.20483	0.15213
2611.27627	0.15194
2609.34771	0.15176
2607.41914	0.15158
2605.49058	0.15146
2603.56201	0.15141
2601.63345	0.15138
2599.70488	0.15142
2597.77632	0.15153
2595.84775	0.15155
2593.91919	0.15159
2591.99062	0.15172
2590.06206	0.15169
2588.13350	0.15171
2586.20493	0.15199
2584.27637	0.15229
2582.34780	0.15234
2580.41924	0.15237
2578.49067	0.15265
2576.56211	0.15306
2574.63354	0.15342
2572.70498	0.15375
2570.77642	0.15408
2568.84785	0.15441
2566.91929	0.15477
2564.99072	0.15519
2563.06216	0.15564
2561.13359	0.15602
2559.20503	0.15643
2557.27646	0.15686
2555.34790	0.15727
2553.41934	0.15777
2551.49077	0.15835
2549.56221	0.15884
2547.63364	0.15928
2545.70508	0.15982
2543.77651	0.16044
2541.84795	0.16111
2539.91938	0.16177
2537.99082	0.16229
2536.06226	0.16272
2534.13369	0.16322
2532.20513	0.16385
2530.27656	0.16463
2528.34800	0.16553
2526.41943	0.16635
2524.49087	0.16697
2522.56230	0.16748
2520.63374	0.16802
2518.70518	0.16870
2516.77661	0.16941
2514.84805	0.17006
2512.91948	0.17083
2510.99092	0.17174
2509.06235	0.17261
2507.13379	0.17345
2505.20522	0.17427
2503.27666	0.17501
2501.34810	0.17573
2499.41953	0.17659
2497.49097	0.17754
2495.56240	0.17840
2493.63384	0.17921
2491.70527	0.18008
2489.77671	0.18091
2487.84814	0.18176
2485.91958	0.18265
2483.99102	0.18344
2482.06245	0.18416
2480.13389	0.18491
2478.20532	0.18572
2476.27676	0.18661
2474.34819	0.18759
2472.41963	0.18860
2470.49106	0.18948
2468.56250	0.19022
2466.63394	0.19095
2464.70537	0.19180
2462.77681	0.19272
2460.84824	0.19361
2458.91968	0.19447
2456.99111	0.19540
2455.06255	0.19642
2453.13398	0.19748
2451.20542	0.19852
2449.27686	0.19952
2447.34829	0.20044
2445.41973	0.20141
2443.49116	0.20250
2441.56260	0.20359
2439.63403	0.20462
2437.70547	0.20559
2435.77690	0.20646
2433.84834	0.20726
2431.91978	0.20810
2429.99121	0.20912
2428.06265	0.21023
2426.13408	0.21136
2424.20552	0.21254
2422.27695	0.21371
2420.34839	0.21478
2418.41982	0.21576
2416.49126	0.21680
2414.56270	0.21792
2412.63413	0.21897
2410.70557	0.21998
2408.77700	0.22121
2406.84844	0.22263
2404.91987	0.22393
2402.99131	0.22510
2401.06274	0.22632
2399.13418	0.22759
2397.20562	0.22874
2395.27705	0.22978
2393.34849	0.23083
2391.41992	0.23202
2389.49136	0.23338
2387.56279	0.23488
2385.63423	0.23641
2383.70566	0.23802
2381.77710	0.23987
2379.84854	0.24210
2377.91997	0.24449
2375.99141	0.24673
2374.06284	0.24903
2372.13428	0.25184
2370.20571	0.25489
2368.27715	0.25706
2366.34858	0.25882
2364.42002	0.26172
2362.49146	0.26548
2360.56289	0.26929
2358.63433	0.27239
2356.70576	0.27375
2354.77720	0.27327
2352.84863	0.27196
2350.92007	0.27083
2348.99150	0.27034
2347.06294	0.27086
2345.13437	0.27299
2343.20581	0.27661
2341.27725	0.27991
2339.34868	0.28165
2337.42012	0.28292
2335.49155	0.28480
2333.56299	0.28636
2331.63442	0.28703
2329.70586	0.28727
2327.77729	0.28798
2325.84873	0.28952
2323.92017	0.29138
2321.99160	0.29300
2320.06304	0.29413
2318.13447	0.29487
2316.20591	0.29569
2314.27734	0.29702
2312.34878	0.29869
2310.42021	0.30043
2308.49165	0.30214
2306.56309	0.30346
2304.63452	0.30439
2302.70596	0.30551
2300.77739	0.30709
2298.84883	0.30879
2296.92026	0.31033
2294.99170	0.31194
2293.06313	0.31372
2291.13457	0.31540
2289.20601	0.31698
2287.27744	0.31861
2285.34888	0.32026
2283.42031	0.32205
2281.49175	0.32403
2279.56318	0.32610
2277.63462	0.32829
2275.70605	0.33045
2273.77749	0.33242
2271.84893	0.33437
2269.92036	0.33646
2267.99180	0.33861
2266.06323	0.34068
2264.13467	0.34269
2262.20610	0.34482
2260.27754	0.34702
2258.34897	0.34913
2256.42041	0.35112
2254.49185	0.35310
2252.56328	0.35516
2250.63472	0.35717
2248.70615	0.35917
2246.77759	0.36141
2244.84902	0.36382
2242.92046	0.36608
2240.99189	0.36824
2239.06333	0.37041
2237.13477	0.37255
2235.20620	0.37475
2233.27764	0.37714
2231.34907	0.37952
2229.42051	0.38175
2227.49194	0.38385
2225.56338	0.38587
2223.63481	0.38795
2221.70625	0.39017
2219.77769	0.39244
2217.84912	0.39472
2215.92056	0.39701
2213.99199	0.39922
2212.06343	0.40132
2210.13486	0.40340
2208.20630	0.40550
2206.27773	0.40754
2204.34917	0.40954
2202.42061	0.41157
2200.49204	0.41361
2198.56348	0.41561
2196.63491	0.41753
2194.70635	0.41951
2192.77778	0.42158
2190.84922	0.42351
2188.92065	0.42525
2186.99209	0.42699
2185.06353	0.42877
2183.13496	0.43052
2181.20640	0.43215
2179.27783	0.43363
2177.34927	0.43513
2175.42070	0.43665
2173.49214	0.43818
2171.56357	0.43976
2169.63501	0.44116
2167.70645	0.44228
2165.77788	0.44342
2163.84932	0.44472
2161.92075	0.44600
2159.99219	0.44716
2158.06362	0.44827
2156.13506	0.44921
2154.20649	0.44993
2152.27793	0.45063
2150.34937	0.45133
2148.42080	0.45193
2146.49224	0.45243
2144.56367	0.45296
2142.63511	0.45353
2140.70654	0.45397
2138.77798	0.45421
2136.84941	0.45427
2134.92085	0.45425
2132.99229	0.45420
2131.06372	0.45408
2129.13516	0.45385
2127.20659	0.45355
2125.27803	0.45330
2123.34946	0.45295
2121.42090	0.45239
2119.49233	0.45177
2117.56377	0.45109
2115.63521	0.45026
2113.70664	0.44938
2111.77808	0.44848
2109.84951	0.44752
2107.92095	0.44652
2105.99238	0.44540
2104.06382	0.44416
2102.13525	0.44283
2100.20669	0.44149
2098.27812	0.44014
2096.34956	0.43863
2094.42100	0.43695
2092.49243	0.43529
2090.56387	0.43363
2088.63530	0.43182
2086.70674	0.42993
2084.77817	0.42805
2082.84961	0.42613
2080.92104	0.42409
2078.99248	0.42201
2077.06392	0.41999
2075.13535	0.41801
2073.20679	0.41582
2071.27822	0.41338
2069.34966	0.41100
2067.42109	0.40876
2065.49253	0.40647
2063.56396	0.40403
2061.63540	0.40151
2059.70684	0.39899
2057.77827	0.39646
2055.84971	0.39398
2053.92114	0.39152
2051.99258	0.38900
2050.06401	0.38633
2048.13545	0.38357
2046.20688	0.38079
2044.27832	0.37811
2042.34976	0.37555
2040.42119	0.37296
2038.49263	0.37019
2036.56406	0.36735
2034.63550	0.36462
2032.70693	0.36195
2030.77837	0.35925
2028.84980	0.35647
2026.92124	0.35359
2024.99268	0.35061
2023.06411	0.34775
2021.13555	0.34506
2019.20698	0.34244
2017.27842	0.33973
2015.34985	0.33692
2013.42129	0.33412
2011.49272	0.33132
2009.56416	0.32855
2007.63560	0.32587
2005.70703	0.32330
2003.77847	0.32072
2001.84990	0.31811
1999.92134	0.31550
1997.99277	0.31288
1996.06421	0.31033
1994.13564	0.30790
1992.20708	0.30555
1990.27852	0.30311
1988.34995	0.30061
1986.42139	0.29812
1984.49282	0.29571
1982.56426	0.29343
1980.63569	0.29118
1978.70713	0.28891
1976.77856	0.28666
1974.85000	0.28442
1972.92144	0.28220
1970.99287	0.28009
1969.06431	0.27814
1967.13574	0.27617
1965.20718	0.27401
1963.27861	0.27194
1961.35005	0.27017
1959.42148	0.26849
1957.49292	0.26670
1955.56436	0.26487
1953.63579	0.26312
1951.70723	0.26142
1949.77866	0.25977
1947.85010	0.25821
1945.92153	0.25675
1943.99297	0.25542
1942.06440	0.25405
1940.13584	0.25239
1938.20728	0.25073
1936.27871	0.24938
1934.35015	0.24825
1932.42158	0.24716
1930.49302	0.24593
1928.56445	0.24459
1926.63589	0.24338
1924.70732	0.24252
1922.77876	0.24184
1920.85020	0.24100
1918.92163	0.24008
1916.99307	0.23915
1915.06450	0.23821
1913.13594	0.23745
1911.20737	0.23689
1909.27881	0.23624
1907.35024	0.23540
1905.42168	0.23450
1903.49312	0.23379
1901.56455	0.23330
1899.63599	0.23294
1897.70742	0.23264
1895.77886	0.23234
1893.85029	0.23200
1891.92173	0.23166
1889.99316	0.23153
1888.06460	0.23131
1886.13604	0.23088
1884.20747	0.23057
1882.27891	0.23041
1880.35034	0.23032
1878.42178	0.23029
1876.49321	0.23029
1874.56465	0.23028
1872.63608	0.23035
1870.70752	0.23066
1868.77896	0.23131
1866.85039	0.23164
1864.92183	0.23147
1862.99326	0.23142
1861.06470	0.23168
1859.13613	0.23213
1857.20757	0.23254
1855.27900	0.23292
1853.35044	0.23330
1851.42187	0.23382
1849.49331	0.23452
1847.56475	0.23537
1845.63618	0.23636
1843.70762	0.23747
1841.77905	0.23821
1839.85049	0.23853
1837.92192	0.23918
1835.99336	0.24012
1834.06479	0.24109
1832.13623	0.24214
1830.20767	0.24367
1828.27910	0.24525
1826.35054	0.24632
1824.42197	0.24748
1822.49341	0.24863
1820.56484	0.24978
1818.63628	0.25114
1816.70771	0.25279
1814.77915	0.25442
1812.85059	0.25620
1810.92202	0.25830
1808.99346	0.26033
1807.06489	0.26215
1805.13633	0.26397
1803.20776	0.26623
1801.27920	0.26889
1799.35063	0.27171
1797.42207	0.27414
1795.49351	0.27650
1793.56494	0.27937
1791.63638	0.28308
1789.70781	0.28647
1787.77925	0.28896
1785.85068	0.29199
1783.92212	0.29563
1781.99355	0.29954
1780.06499	0.30373
1778.13643	0.30805
1776.20786	0.31210
1774.27930	0.31649
1772.35073	0.32238
1770.42217	0.32860
1768.49360	0.33368
1766.56504	0.33851
1764.63647	0.34359
1762.70791	0.34927
1760.77935	0.35631
1758.85078	0.36291
1756.92222	0.36962
1754.99365	0.37697
1753.06509	0.38371
1751.13652	0.39172
1749.20796	0.40162
1747.27939	0.41139
1745.35083	0.42023
1743.42227	0.42975
1741.49370	0.44037
1739.56514	0.45315
1737.63657	0.46603
1735.70801	0.47723
1733.77944	0.49385
1731.85088	0.51368
1729.92231	0.52936
1727.99375	0.54520
1726.06519	0.56238
1724.13662	0.58105
1722.20806	0.60101
1720.27949	0.61955
1718.35093	0.64143
1716.42236	0.67316
1714.49380	0.70321
1712.56523	0.72792
1710.63667	0.75204
1708.70811	0.77810
1706.77954	0.80779
1704.85098	0.84304
1702.92241	0.87477
1700.99385	0.90678
1699.06528	0.95366
1697.13672	0.99638
1695.20815	1.04043
1693.27959	1.08401
1691.35103	1.11973
1689.42246	1.16095
1687.49390	1.20475
1685.56533	1.24793
1683.63677	1.31296
1681.70820	1.37881
1679.77964	1.42131
1677.85107	1.46245
1675.92251	1.51069
1673.99395	1.56988
1672.06538	1.62220
1670.13682	1.67402
1668.20825	1.74090
1666.27969	1.79586
1664.35112	1.84418
1662.42256	1.90668
1660.49399	1.97788
1658.56543	2.03382
1656.63687	2.07852
1654.70830	2.11821
1652.77974	2.17375
1650.85117	2.22458
1648.92261	2.24507
1646.99404	2.27226
1645.06548	2.29902
1643.13691	2.31218
1641.20835	2.31768
1639.27979	2.32498
1637.35122	2.33109
1635.42266	2.32871
1633.49409	2.31634
1631.56553	2.29929
1629.63696	2.27900
1627.70840	2.24852
1625.77983	2.21455
1623.85127	2.17096
1621.92271	2.11638
1619.99414	2.06792
1618.06558	2.02192
1616.13701	1.95821
1614.20845	1.89265
1612.27988	1.84122
1610.35132	1.78786
1608.42275	1.73093
1606.49419	1.67520
1604.56562	1.62431
1602.63706	1.57596
1600.70850	1.52870
1598.77993	1.48511
1596.85137	1.44461
1594.92280	1.40540
1592.99424	1.36719
1591.06567	1.33219
1589.13711	1.30017
1587.20854	1.27122
1585.27998	1.24481
1583.35142	1.21993
1581.42285	1.19723
1579.49429	1.17834
1577.56572	1.16218
1575.63716	1.14349
1573.70859	1.12708
1571.78003	1.11636
1569.85146	1.10602
1567.92290	1.09572
1565.99434	1.08888
1564.06577	1.08444
1562.13721	1.08167
1560.20864	1.08187
1558.28008	1.08648
1556.35151	1.09026
1554.42295	1.09215
1552.49438	1.09446
1550.56582	1.09517
1548.63726	1.09283
1546.70869	1.08752
1544.78013	1.07896
1542.85156	1.06696
1540.92300	1.04936
1538.99443	1.02111
1537.06587	0.99854
1535.13730	0.98260
1533.20874	0.96238
1531.28018	0.94142
1529.35161	0.92639
1527.42305	0.91229
1525.49448	0.89737
1523.56592	0.88435
1521.63735	0.87237
1519.70879	0.86054
1517.78022	0.85016
1515.85166	0.83816
1513.92310	0.82532
1511.99453	0.81376
1510.06597	0.80352
1508.13740	0.79408
1506.20884	0.77950
1504.28027	0.76606
1502.35171	0.75848
1500.42314	0.75204
1498.49458	0.74527
1496.56602	0.73750
1494.63745	0.72964
1492.70889	0.72347
1490.78032	0.71825
1488.85176	0.71235
1486.92319	0.70650
1484.99463	0.70167
1483.06606	0.69784
1481.13750	0.69478
1479.20894	0.69266
1477.28037	0.69173
1475.35181	0.69165
1473.42324	0.69173
1471.49468	0.69059
1469.56611	0.68829
1467.63755	0.68605
1465.70898	0.68443
1463.78042	0.68343
1461.85186	0.68301
1459.92329	0.68343
1457.99473	0.68458
1456.06616	0.68474
1454.13760	0.68260
1452.20903	0.67999
1450.28047	0.67755
1448.35190	0.67535
1446.42334	0.67305
1444.49478	0.67053
1442.56621	0.66777
1440.63765	0.66490
1438.70908	0.66221
1436.78052	0.65899
1434.85195	0.65507
1432.92339	0.65202
1430.99482	0.65022
1429.06626	0.64930
1427.13770	0.64900
1425.20913	0.64937
1423.28057	0.65021
1421.35200	0.65102
1419.42344	0.65191
1417.49487	0.65213
1415.56631	0.65102
1413.63774	0.64998
1411.70918	0.64989
1409.78062	0.65081
1407.85205	0.65237
1405.92349	0.65429
1403.99492	0.65599
1402.06636	0.65663
1400.13779	0.65632
1398.20923	0.65506
1396.28066	0.65258
1394.35210	0.64881
1392.42354	0.64425
1390.49497	0.63986
1388.56641	0.63554
1386.63784	0.63062
1384.70928	0.62534
1382.78071	0.62039
1380.85215	0.61597
1378.92358	0.61215
1376.99502	0.60905
1375.06646	0.60692
1373.13789	0.60558
1371.20933	0.60468
1369.28076	0.60399
1367.35220	0.60302
1365.42363	0.60157
1363.49507	0.60009
1361.56650	0.59862
1359.63794	0.59689
1357.70937	0.59527
1355.78081	0.59395
1353.85225	0.59283
1351.92368	0.59194
1349.99512	0.59129
1348.06655	0.59062
1346.13799	0.58977
1344.20942	0.58886
1342.28086	0.58798
1340.35229	0.58721
1338.42373	0.58656
1336.49517	0.58599
1334.56660	0.58559
1332.63804	0.58545
1330.70947	0.58552
1328.78091	0.58580
1326.85234	0.58640
1324.92378	0.58725
1322.99521	0.58815
1321.06665	0.58885
1319.13809	0.58932
1317.20952	0.58962
1315.28096	0.58968
1313.35239	0.58943
1311.42383	0.58880
1309.49526	0.58800
1307.56670	0.58745
1305.63813	0.58714
1303.70957	0.58675
1301.78101	0.58610
1299.85244	0.58518
1297.92388	0.58407
1295.99531	0.58284
1294.06675	0.58169
1292.13818	0.58059
1290.20962	0.57932
1288.28105	0.57803
1286.35249	0.57685
1284.42393	0.57569
1282.49536	0.57439
1280.56680	0.57290
1278.63823	0.57140
1276.70967	0.57005
1274.78110	0.56884
1272.85254	0.56781
1270.92397	0.56707
1268.99541	0.56646
1267.06685	0.56583
1265.13828	0.56517
1263.20972	0.56428
1261.28115	0.56313
1259.35259	0.56215
1257.42402	0.56152
1255.49546	0.56121
1253.56689	0.56117
1251.63833	0.56122
1249.70977	0.56119
1247.78120	0.56108
1245.85264	0.56087
1243.92407	0.56035
1241.99551	0.55949
1240.06694	0.55826
1238.13838	0.55650
1236.20981	0.55433
1234.28125	0.55209
1232.35269	0.54991
1230.42412	0.54779
1228.49556	0.54570
1226.56699	0.54364
1224.63843	0.54164
1222.70986	0.53981
1220.78130	0.53825
1218.85273	0.53691
1216.92417	0.53561
1214.99561	0.53432
1213.06704	0.53326
1211.13848	0.53258
1209.20991	0.53203
1207.28135	0.53135
1205.35278	0.53058
1203.42422	0.52976
1201.49565	0.52885
1199.56709	0.52781
1197.63853	0.52679
1195.70996	0.52599
1193.78140	0.52546
1191.85283	0.52510
1189.92427	0.52479
1187.99570	0.52443
1186.06714	0.52405
1184.13857	0.52389
1182.21001	0.52419
1180.28145	0.52508
1178.35288	0.52636
1176.42432	0.52771
1174.49575	0.52888
1172.56719	0.52961
1170.63862	0.52987
1168.71006	0.52993
1166.78149	0.53001
1164.85293	0.53003
1162.92437	0.52981
1160.99580	0.52945
1159.06724	0.52934
1157.13867	0.52932
1155.21011	0.52887
1153.28154	0.52774
1151.35298	0.52590
1149.42441	0.52362
1147.49585	0.52124
1145.56729	0.51883
1143.63872	0.51649
1141.71016	0.51431
1139.78159	0.51249
1137.85303	0.51124
1135.92446	0.51059
1133.99590	0.51036
1132.06733	0.51016
1130.13877	0.50989
1128.21021	0.50957
1126.28164	0.50893
1124.35308	0.50811
1122.42451	0.50754
1120.49595	0.50728
1118.56738	0.50733
1116.63882	0.50769
1114.71025	0.50814
1112.78169	0.50867
1110.85312	0.50935
1108.92456	0.51021
1106.99600	0.51124
1105.06743	0.51228
1103.13887	0.51337
1101.21030	0.51465
1099.28174	0.51610
1097.35317	0.51809
1095.42461	0.52112
1093.49604	0.52507
1091.56748	0.52967
1089.63892	0.53510
1087.71035	0.54184
1085.78179	0.54998
1083.85322	0.55856
1081.92466	0.56612
1079.99609	0.57157
1078.06753	0.57435
1076.13896	0.57422
1074.21040	0.57134
1072.28184	0.56616
1070.35327	0.55936
1068.42471	0.55200
1066.49614	0.54510
1064.56758	0.53879
1062.63901	0.53291
1060.71045	0.52768
1058.78188	0.52317
1056.85332	0.51907
1054.92476	0.51547
1052.99619	0.51256
1051.06763	0.51023
1049.13906	0.50842
1047.21050	0.50708
1045.28193	0.50619
1043.35337	0.50566
1041.42480	0.50518
1039.49624	0.50471
1037.56768	0.50428
1035.63911	0.50382
1033.71055	0.50335
1031.78198	0.50259
1029.85342	0.50138
1027.92485	0.50001
1025.99629	0.49877
1024.06772	0.49769
1022.13916	0.49687
1020.21060	0.49649
1018.28203	0.49650
1016.35347	0.49669
1014.42490	0.49668
1012.49634	0.49633
1010.56777	0.49613
1008.63921	0.49634
1006.71064	0.49692
1004.78208	0.49810
1002.85352	0.49999
1000.92495	0.50252
998.99639	0.50580
997.06782	0.50992
995.13926	0.51441
993.21069	0.51855
991.28213	0.52196
989.35356	0.52436
987.42500	0.52544
985.49644	0.52548
983.56787	0.52530
981.63931	0.52554
979.71074	0.52635
977.78218	0.52755
975.85361	0.52916
973.92505	0.53138
971.99648	0.53432
970.06792	0.53786
968.13936	0.54178
966.21079	0.54593
964.28223	0.55023
962.35366	0.55481
960.42510	0.55989
958.49653	0.56527
956.56797	0.57074
954.63940	0.57652
952.71084	0.58259
950.78228	0.58890
948.85371	0.59541
946.92515	0.60191
944.99658	0.60821
943.06802	0.61458
941.13945	0.62118
939.21089	0.62744
937.28232	0.63300
935.35376	0.63822
933.42520	0.64390
931.49663	0.65020
929.56807	0.65633
927.63950	0.66208
925.71094	0.66800
923.78237	0.67427
921.85381	0.68102
919.92524	0.68841
917.99668	0.69532
916.06812	0.70155
914.13955	0.70911
912.21099	0.71839
910.28242	0.72722
908.35386	0.73491
906.42529	0.74335
904.49673	0.75321
902.56816	0.76286
900.63960	0.77164
898.71104	0.78077
896.78247	0.79076
894.85391	0.80035
892.92534	0.81011
890.99678	0.82132
889.06821	0.83306
887.13965	0.84440
885.21108	0.85438
883.28252	0.86343
881.35396	0.87422
879.42539	0.88718
877.49683	0.90018
875.56826	0.91309
873.63970	0.92631
871.71113	0.93742
869.78257	0.94667
867.85400	0.95693
865.92544	0.96730
863.99687	0.97773
862.06831	0.98960
860.13975	1.00129
858.21118	1.01252
856.28262	1.02408
854.35405	1.03638
852.42549	1.05035
850.49692	1.06531
848.56836	1.07861
846.63979	1.08816
844.71123	1.09765
842.78267	1.11114
840.85410	1.12602
838.92554	1.13977
836.99697	1.15271
835.06841	1.16381
833.13984	1.17235
831.21128	1.18087
829.28271	1.19176
827.35415	1.20270
825.42559	1.21288
823.49702	1.22691
821.56846	1.24470
819.63989	1.26039
817.71133	1.27109
815.78276	1.28041
813.85420	1.28709
811.92563	1.28992
809.99707	1.29869
808.06851	1.31605
806.13994	1.33138
804.21138	1.33497
802.28281	1.33835
800.35425	1.34687
798.42568	1.35274
796.49712	1.38161
794.56855	1.45614
792.63999	1.55162
790.71143	1.61994
788.78286	1.59056
786.85430	1.48990
784.92573	1.46061
782.99717	1.54265
781.06860	1.66118
779.14004	1.62936
777.21147	1.49375
775.28291	1.44260
773.35435	1.47981
771.42578	1.54009
769.49722	1.57970
767.56865	1.57857
765.64009	1.53657
763.71152	1.53981
761.78296	1.73861
759.85439	4.55913
757.92583	4.54755
755.99727	2.42690
754.06870	2.12458
752.14014	1.97133
750.21157	2.20801
748.28301	1.92041
746.35444	1.37051
744.42588	1.21468
742.49731	1.24226
740.56875	1.22160
738.64019	1.13519
736.71162	1.11487
734.78306	1.10424
732.85449	0.98187
730.92593	0.75341
728.99736	0.53928
727.06880	0.45895
725.14023	0.71661
723.21167	4.33927
721.28311	0.73881
719.35454	0.20991
717.42598	0.20642
715.49741	1.49648
713.56885	4.28141
711.64028	0.92282
709.71172	0.39158
707.78315	0.15208
705.85459	0.08216
703.92603	0.14619
701.99746	0.25127
700.06890	0.38347
698.14033	0.52270
696.21177	0.44226
694.28320	0.36603
692.35464	0.57722
690.42607	1.01815
688.49751	0.68444
686.56895	0.50201
684.64038	0.50480
682.71182	0.56601
680.78325	0.58787
678.85469	0.59957
676.92612	0.60849
674.99756	0.57101
673.06899	0.49808
671.14043	0.46541
669.21187	0.52459
667.28330	0.65662
665.35474	0.80091
663.42617	0.58681
661.49761	0.36092
659.56904	0.36929
657.64048	0.54123
655.71191	0.71210
653.78335	1.19827
651.85479	3.91113
649.92622	0.86028
647.99766	0.57545
646.06909	0.48827
644.14053	0.38931
642.21196	0.38789
640.28340	0.61049
638.35483	3.83013
636.42627	3.81856
634.49771	0.71294
632.56914	0.60138
630.64058	0.50331
628.71201	0.41374
626.78345	0.47024
624.85488	0.56903
622.92632	0.57639
620.99775	0.61162
619.06919	0.72558
617.14062	1.04675
615.21206	3.69127
613.28350	3.67970
611.35493	0.80024
609.42637	0.60267
607.49780	0.62338
605.56924	0.91507
603.64067	3.62184
601.71211	1.33694
599.78354	0.64367
597.85498	0.42836
595.92642	0.44884
593.99785	0.60660
592.06929	0.55467
590.14072	0.42919
588.21216	0.40348
586.28359	0.48063
584.35503	0.59358
582.42646	0.51626
580.49790	0.37454
578.56934	0.27445
576.64077	0.24267
574.71221	0.27745
572.78364	0.38492
570.85508	0.57285
568.92651	0.64468
566.99795	0.45776
565.06938	0.30732
563.14082	0.24457
561.21226	0.26501
559.28369	0.35301
557.35513	0.45408
555.42656	0.43836
553.49800	0.34837
551.56943	0.27862
549.64087	0.24222
547.71230	0.23586
545.78374	0.25995
543.85518	0.30303
541.92661	0.34850
539.99805	0.38893
538.06948	0.41471
536.14092	0.43449
534.21235	0.51223
532.28379	0.50637
530.35522	0.37408
528.42666	0.33967
526.49810	0.39553
524.56953	0.47219
522.64097	0.43193
520.71240	0.32209
518.78384	0.29817
516.85527	0.37272
514.92671	0.48279
512.99814	0.49812
511.06958	0.37447
509.14102	0.23441
507.21245	0.19719
505.28389	0.24453
503.35532	0.25290
501.42676	0.22848
499.49819	0.25918
