3997.91411	0.07211
3995.98555	0.07256
3994.05698	0.07306
3992.12842	0.07327
3990.19985	0.07334
3988.27129	0.07354
3986.34272	0.07383
3984.41416	0.07391
3982.48560	0.07383
3980.55703	0.07396
3978.62847	0.07452
3976.69990	0.07533
3974.77134	0.07570
3972.84277	0.07551
3970.91421	0.07543
3968.98564	0.07562
3967.05708	0.07574
3965.12852	0.07561
3963.19995	0.07537
3961.27139	0.07533
3959.34282	0.07566
3957.41426	0.07611
3955.48569	0.07634
3953.55713	0.07640
3951.62856	0.07659
3949.70000	0.07692
3947.77144	0.07689
3945.84287	0.07654
3943.91431	0.07684
3941.98574	0.07758
3940.05718	0.07749
3938.12861	0.07681
3936.20005	0.07643
3934.27148	0.07638
3932.34292	0.07650
3930.41436	0.07664
3928.48579	0.07676
3926.55723	0.07703
3924.62866	0.07757
3922.70010	0.07784
3920.77153	0.07742
3918.84297	0.07683
3916.91440	0.07643
3914.98584	0.07577
3913.05728	0.07499
3911.12871	0.07494
3909.20015	0.07553
3907.27158	0.07618
3905.34302	0.07720
3903.41445	0.07867
3901.48589	0.07941
3899.55732	0.07897
3897.62876	0.07787
3895.70020	0.07679
3893.77163	0.07636
3891.84307	0.07662
3889.91450	0.07650
3887.98594	0.07555
3886.05737	0.07561
3884.12881	0.07701
3882.20024	0.07771
3880.27168	0.07754
3878.34312	0.07721
3876.41455	0.07706
3874.48599	0.07776
3872.55742	0.07859
3870.62886	0.07871
3868.70029	0.07926
3866.77173	0.08018
3864.84316	0.08094
3862.91460	0.08143
3860.98604	0.08084
3859.05747	0.07987
3857.12891	0.08009
3855.20034	0.08195
3853.27178	0.08504
3851.34321	0.08627
3849.41465	0.08429
3847.48608	0.08264
3845.55752	0.08250
3843.62896	0.08387
3841.70039	0.08612
3839.77183	0.08818
3837.84326	0.08944
3835.91470	0.08917
3833.98613	0.08822
3832.05757	0.08786
3830.12900	0.08778
3828.20044	0.08785
3826.27187	0.08873
3824.34331	0.09016
3822.41475	0.09179
3820.48618	0.09377
3818.55762	0.09456
3816.62905	0.09454
3814.70049	0.09484
3812.77192	0.09442
3810.84336	0.09407
3808.91479	0.09521
3806.98623	0.09781
3805.05767	0.10037
3803.12910	0.10241
3801.20054	0.10479
3799.27197	0.10555
3797.34341	0.10462
3795.41484	0.10450
3793.48628	0.10483
3791.55771	0.10519
3789.62915	0.10610
3787.70059	0.10761
3785.77202	0.10950
3783.84346	0.11128
3781.91489	0.11260
3779.98633	0.11433
3778.05776	0.11656
3776.12920	0.11788
3774.20063	0.11884
3772.27207	0.12041
3770.34351	0.12249
3768.41494	0.12472
3766.48638	0.12658
3764.55781	0.12826
3762.62925	0.12983
3760.70068	0.13167
3758.77212	0.13451
3756.84355	0.13747
3754.91499	0.13995
3752.98643	0.14317
3751.05786	0.14774
3749.12930	0.15182
3747.20073	0.15362
3745.27217	0.15547
3743.34360	0.15842
3741.41504	0.16031
3739.48647	0.16185
3737.55791	0.16514
3735.62935	0.17060
3733.70078	0.17636
3731.77222	0.18001
3729.84365	0.18225
3727.91509	0.18499
3725.98652	0.18999
3724.05796	0.19689
3722.12939	0.20393
3720.20083	0.21135
3718.27227	0.21925
3716.34370	0.22698
3714.41514	0.23492
3712.48657	0.24487
3710.55801	0.25755
3708.62944	0.26931
3706.70088	0.27920
3704.77231	0.28972
3702.84375	0.30254
3700.91519	0.31934
3698.98662	0.33775
3697.05806	0.35509
3695.12949	0.37352
3693.20093	0.39338
3691.27236	0.41550
3689.34380	0.44419
3687.41523	0.47819
3685.48667	0.50740
3683.55811	0.53282
3681.62954	0.56051
3679.70098	0.59207
3677.77241	0.62514
3675.84385	0.66363
3673.91528	0.71543
3671.98672	0.75962
3670.05815	0.79939
3668.12959	0.85064
3666.20103	0.89615
3664.27246	0.93558
3662.34390	0.97928
3660.41533	1.02610
3658.48677	1.07143
3656.55820	1.11949
3654.62964	1.17316
3652.70107	1.21884
3650.77251	1.25922
3648.84395	1.31415
3646.91538	1.37984
3644.98682	1.42842
3643.05825	1.46700
3641.12969	1.50702
3639.20112	1.55047
3637.27256	1.59377
3635.34399	1.63581
3633.41543	1.67726
3631.48687	1.71578
3629.55830	1.75627
3627.62974	1.81051
3625.70117	1.86066
3623.77261	1.89436
3621.84404	1.92741
3619.91548	1.96652
3617.98691	2.01291
3616.05835	2.05624
3614.12979	2.09257
3612.20122	2.13119
3610.27266	2.17080
3608.34409	2.21084
3606.41553	2.25216
3604.48696	2.28937
3602.55840	2.32327
3600.62983	2.36148
3598.70127	2.40251
3596.77271	2.44101
3594.84414	2.48033
3592.91558	2.52235
3590.98701	2.56264
3589.05845	2.59971
3587.12988	2.64251
3585.20132	2.69060
3583.27275	2.73230
3581.34419	2.76957
3579.41562	2.80967
3577.48706	2.85354
3575.55850	2.89806
3573.62993	2.94189
3571.70137	2.98290
3569.77280	3.02352
3567.84424	3.06974
3565.91567	3.12272
3563.98711	3.16959
3562.05854	3.20890
3560.12998	3.24976
3558.20142	3.29339
3556.27285	3.33730
3554.34429	3.38096
3552.41572	3.42899
3550.48716	3.47905
3548.55859	3.52511
3546.63003	3.56956
3544.70146	3.61893
3542.77290	3.67127
3540.84434	3.71855
3538.91577	3.76051
3536.98721	3.80472
3535.05864	3.85628
3533.13008	3.90789
3531.20151	3.95546
3529.27295	4.00170
3527.34438	4.05042
3525.41582	4.10018
3523.48726	4.14582
3521.55869	4.19247
3519.63013	4.24417
3517.70156	4.29339
3515.77300	4.33692
3513.84443	4.38305
3511.91587	4.43237
3509.98730	4.48163
3508.05874	4.53359
3506.13018	4.58679
3504.20161	4.63617
3502.27305	4.68358
3500.34448	4.73271
3498.41592	4.77930
3496.48735	4.82301
3494.55879	4.86883
3492.63022	4.91834
3490.70166	4.96754
3488.77310	5.01437
3486.84453	5.06384
3484.91597	5.11836
3482.98740	5.17327
3481.05884	5.22258
3479.13027	5.26425
3477.20171	5.30587
3475.27314	5.35429
3473.34458	5.40460
3471.41602	5.45342
3469.48745	5.50219
3467.55889	5.54944
3465.63032	5.60068
3463.70176	5.65709
3461.77319	5.70746
3459.84463	5.75213
3457.91606	5.79760
3455.98750	5.85738
3454.05894	5.92800
3452.13037	5.97978
3450.20181	6.02051
3448.27324	6.07231
3446.34468	6.12788
3444.41611	6.17291
3442.48755	6.20907
3440.55898	6.24785
3438.63042	6.29675
3436.70186	6.35166
3434.77329	6.40639
3432.84473	6.46228
3430.91616	6.52166
3428.98760	6.57476
3427.05903	6.61818
3425.13047	6.67562
3423.20190	6.74103
3421.27334	6.79167
3419.34478	6.82131
3417.41621	6.85526
3415.48765	6.91590
3413.55908	6.97138
3411.63052	7.01293
3409.70195	7.07037
3407.77339	7.13929
3405.84482	7.16548
3403.91626	7.16997
3401.98770	7.21511
3400.05913	7.28822
3398.13057	7.35752
3396.20200	7.40793
3394.27344	7.43721
3392.34487	7.47763
3390.41631	7.54636
3388.48774	7.59072
3386.55918	7.62614
3384.63062	7.68069
3382.70205	7.72855
3380.77349	7.73350
3378.84492	7.68875
3376.91636	7.67039
3374.98779	7.70764
3373.05923	7.80237
3371.13066	7.88599
3369.20210	7.87784
3367.27354	7.87002
3365.34497	7.94235
3363.41641	8.03684
3361.48784	8.07935
3359.55928	8.08883
3357.63071	8.09061
3355.70215	8.04754
3353.77358	7.98684
3351.84502	8.00017
3349.91646	8.05255
3347.98789	8.10152
3346.05933	8.08612
3344.13076	7.96193
3342.20220	7.89922
3340.27363	7.97515
3338.34507	8.06656
3336.41650	8.10559
3334.48794	8.16826
3332.55937	8.20284
3330.63081	8.16386
3328.70225	8.17142
3326.77368	8.25017
3324.84512	8.24447
3322.91655	8.13837
3320.98799	8.11906
3319.05942	8.15376
3317.13086	8.16257
3315.20229	8.19468
3313.27373	8.20716
3311.34517	8.13516
3309.41660	8.07459
3307.48804	8.12054
3305.55947	8.23163
3303.63091	8.31532
3301.70234	8.25973
3299.77378	8.14322
3297.84521	8.12466
3295.91665	8.17353
3293.98809	8.27087
3292.05952	8.43131
3290.13096	8.45685
3288.20239	8.30683
3286.27383	8.22552
3284.34526	8.27877
3282.41670	8.32459
3280.48813	8.23919
3278.55957	8.19553
3276.63101	8.37585
3274.70244	8.65905
3272.77388	8.70957
3270.84531	8.52889
3268.91675	8.35970
3266.98818	8.29499
3265.05962	8.34706
3263.13105	8.45856
3261.20249	8.56882
3259.27393	8.56454
3257.34536	8.45863
3255.41680	8.40734
3253.48823	8.40779
3251.55967	8.42287
3249.63110	8.41790
3247.70254	8.35641
3245.77397	8.29219
3243.84541	8.29122
3241.91685	8.32813
3239.98828	8.30241
3238.05972	8.23423
3236.13115	8.26593
3234.20259	8.40520
3232.27402	8.48817
3230.34546	8.45204
3228.41689	8.42881
3226.48833	8.42840
3224.55977	8.33992
3222.63120	8.21563
3220.70264	8.14717
3218.77407	8.14259
3216.84551	8.19388
3214.91694	8.24704
3212.98838	8.18533
3211.05981	8.04443
3209.13125	7.99014
3207.20269	8.05406
3205.27412	8.15053
3203.34556	8.17733
3201.41699	8.05454
3199.48843	7.84946
3197.55986	7.74317
3195.63130	7.78781
3193.70273	7.85369
3191.77417	7.82714
3189.84561	7.76894
3187.91704	7.71508
3185.98848	7.64337
3184.05991	7.60809
3182.13135	7.57351
3180.20278	7.48236
3178.27422	7.40764
3176.34565	7.35532
3174.41709	7.28706
3172.48853	7.21584
3170.55996	7.15266
3168.63140	7.11870
3166.70283	7.09241
3164.77427	7.02778
3162.84570	6.95528
3160.91714	6.89355
3158.98857	6.81225
3157.06001	6.70894
3155.13145	6.61410
3153.20288	6.53743
3151.27432	6.46342
3149.34575	6.37958
3147.41719	6.29233
3145.48862	6.23264
3143.56006	6.20148
3141.63149	6.15235
3139.70293	6.07333
3137.77437	5.99897
3135.84580	5.93675
3133.91724	5.87084
3131.98867	5.79637
3130.06011	5.72083
3128.13154	5.65237
3126.20298	5.58291
3124.27441	5.50114
3122.34585	5.41402
3120.41729	5.33496
3118.48872	5.26421
3116.56016	5.19557
3114.63159	5.12099
3112.70303	5.04064
3110.77446	4.96835
3108.84590	4.90503
3106.91733	4.83729
3104.98877	4.76388
3103.06021	4.69689
3101.13164	4.63477
3099.20308	4.56617
3097.27451	4.49395
3095.34595	4.42653
3093.41738	4.36280
3091.48882	4.29615
3089.56025	4.22494
3087.63169	4.15562
3085.70312	4.09481
3083.77456	4.03776
3081.84600	3.97673
3079.91743	3.91317
3077.98887	3.85086
3076.06030	3.79031
3074.13174	3.73093
3072.20317	3.67212
3070.27461	3.61265
3068.34604	3.55252
3066.41748	3.49358
3064.48892	3.43737
3062.56035	3.38264
3060.63179	3.32708
3058.70322	3.27077
3056.77466	3.21510
3054.84609	3.16170
3052.91753	3.11000
3050.98896	3.05797
3049.06040	3.00561
3047.13184	2.95376
3045.20327	2.90338
3043.27471	2.85452
3041.34614	2.80559
3039.41758	2.75623
3037.48901	2.70825
3035.56045	2.66244
3033.63188	2.61784
3031.70332	2.57322
3029.77476	2.52860
3027.84619	2.48522
3025.91763	2.44242
3023.98906	2.39888
3022.06050	2.35571
3020.13193	2.31398
3018.20337	2.27287
3016.27480	2.23203
3014.34624	2.19222
3012.41768	2.15359
3010.48911	2.11594
3008.56055	2.07901
3006.63198	2.04238
3004.70342	2.00573
3002.77485	1.96960
3000.84629	1.93502
2998.91772	1.90138
2996.98916	1.86769
2995.06060	1.83460
2993.13203	1.80270
2991.20347	1.77147
2989.27490	1.74024
2987.34634	1.70933
2985.41777	1.67952
2983.48921	1.65059
2981.56064	1.62201
2979.63208	1.59390
2977.70352	1.56654
2975.77495	1.53959
2973.84639	1.51285
2971.91782	1.48682
2969.98926	1.46162
2968.06069	1.43696
2966.13213	1.41283
2964.20356	1.38881
2962.27500	1.36440
2960.34644	1.33999
2958.41787	1.31603
2956.48931	1.29244
2954.56074	1.26898
2952.63218	1.24559
2950.70361	1.22256
2948.77505	1.20027
2946.84648	1.17858
2944.91792	1.15729
2942.98936	1.13673
2941.06079	1.11665
2939.13223	1.09652
2937.20366	1.07668
2935.27510	1.05723
2933.34653	1.03787
2931.41797	1.01899
2929.48940	1.00077
2927.56084	0.98262
2925.63228	0.96459
2923.70371	0.94744
2921.77515	0.93098
2919.84658	0.91448
2917.91802	0.89762
2915.98945	0.88038
2914.06089	0.86337
2912.13232	0.84746
2910.20376	0.83246
2908.27520	0.81753
2906.34663	0.80272
2904.41807	0.78832
2902.48950	0.77427
2900.56094	0.76062
2898.63237	0.74740
2896.70381	0.73446
2894.77524	0.72176
2892.84668	0.70945
2890.91812	0.69765
2888.98955	0.68625
2887.06099	0.67516
2885.13242	0.66438
2883.20386	0.65398
2881.27529	0.64394
2879.34673	0.63396
2877.41816	0.62366
2875.48960	0.61336
2873.56104	0.60341
2871.63247	0.59357
2869.70391	0.58344
2867.77534	0.57305
2865.84678	0.56262
2863.91821	0.55227
2861.98965	0.54206
2860.06108	0.53213
2858.13252	0.52266
2856.20396	0.51366
2854.27539	0.50486
2852.34683	0.49612
2850.41826	0.48760
2848.48970	0.47945
2846.56113	0.47169
2844.63257	0.46410
2842.70400	0.45671
2840.77544	0.45003
2838.84687	0.44397
2836.91831	0.43781
2834.98975	0.43143
2833.06118	0.42523
2831.13262	0.41932
2829.20405	0.41352
2827.27549	0.40784
2825.34692	0.40214
2823.41836	0.39623
2821.48979	0.39040
2819.56123	0.38471
2817.63267	0.37900
2815.70410	0.37345
2813.77554	0.36814
2811.84697	0.36287
2809.91841	0.35759
2807.98984	0.35242
2806.06128	0.34737
2804.13271	0.34238
2802.20415	0.33750
2800.27559	0.33283
2798.34702	0.32824
2796.41846	0.32364
2794.48989	0.31911
2792.56133	0.31467
2790.63276	0.31033
2788.70420	0.30609
2786.77563	0.30190
2784.84707	0.29766
2782.91851	0.29356
2780.98994	0.28971
2779.06138	0.28586
2777.13281	0.28202
2775.20425	0.27843
2773.27568	0.27500
2771.34712	0.27149
2769.41855	0.26790
2767.48999	0.26435
2765.56143	0.26094
2763.63286	0.25770
2761.70430	0.25456
2759.77573	0.25142
2757.84717	0.24837
2755.91860	0.24561
2753.99004	0.24294
2752.06147	0.24002
2750.13291	0.23703
2748.20435	0.23428
2746.27578	0.23176
2744.34722	0.22936
2742.41865	0.22674
2740.49009	0.22391
2738.56152	0.22134
2736.63296	0.21895
2734.70439	0.21648
2732.77583	0.21409
2730.84727	0.21197
2728.91870	0.21000
2726.99014	0.20787
2725.06157	0.20573
2723.13301	0.20382
2721.20444	0.20203
2719.27588	0.20023
2717.34731	0.19832
2715.41875	0.19625
2713.49019	0.19424
2711.56162	0.19241
2709.63306	0.19069
2707.70449	0.18910
2705.77593	0.18754
2703.84736	0.18607
2701.91880	0.18479
2699.99023	0.18357
2698.06167	0.18207
2696.13311	0.18034
2694.20454	0.17897
2692.27598	0.17806
2690.34741	0.17704
2688.41885	0.17566
2686.49028	0.17417
2684.56172	0.17287
2682.63315	0.17178
2680.70459	0.17066
2678.77603	0.16945
2676.84746	0.16839
2674.91890	0.16749
2672.99033	0.16653
2671.06177	0.16549
2669.13320	0.16450
2667.20464	0.16368
2665.27607	0.16285
2663.34751	0.16188
2661.41895	0.16097
2659.49038	0.16020
2657.56182	0.15944
2655.63325	0.15869
2653.70469	0.15811
2651.77612	0.15763
2649.84756	0.15711
2647.91899	0.15659
2645.99043	0.15598
2644.06187	0.15517
2642.13330	0.15447
2640.20474	0.15409
2638.27617	0.15372
2636.34761	0.15318
2634.41904	0.15273
2632.49048	0.15244
2630.56191	0.15219
2628.63335	0.15193
2626.70479	0.15158
2624.77622	0.15122
2622.84766	0.15099
2620.91909	0.15082
2618.99053	0.15066
2617.06196	0.15049
2615.13340	0.15035
2613.20483	0.15028
2611.27627	0.15016
2609.34771	0.15009
2607.41914	0.15013
2605.49058	0.15002
2603.56201	0.14976
2601.63345	0.14978
2599.70488	0.15004
2597.77632	0.15018
2595.84775	0.15016
2593.91919	0.15014
2591.99062	0.15019
2590.06206	0.15035
2588.13350	0.15055
2586.20493	0.15078
2584.27637	0.15114
2582.34780	0.15148
2580.41924	0.15166
2578.49067	0.15184
2576.56211	0.15217
2574.63354	0.15263
2572.70498	0.15314
2570.77642	0.15357
2568.84785	0.15393
2566.91929	0.15432
2564.99072	0.15474
2563.06216	0.15515
2561.13359	0.15550
2559.20503	0.15583
2557.27646	0.15627
2555.34790	0.15687
2553.41934	0.15747
2551.49077	0.15804
2549.56221	0.15866
2547.63364	0.15930
2545.70508	0.15988
2543.77651	0.16042
2541.84795	0.16099
2539.91938	0.16159
2537.99082	0.16226
2536.06226	0.16305
2534.13369	0.16382
2532.20513	0.16452
2530.27656	0.16522
2528.34800	0.16591
2526.41943	0.16657
2524.49087	0.16726
2522.56230	0.16791
2520.63374	0.16845
2518.70518	0.16911
2516.77661	0.16995
2514.84805	0.17075
2512.91948	0.17157
2510.99092	0.17247
2509.06235	0.17336
2507.13379	0.17418
2505.20522	0.17503
2503.27666	0.17598
2501.34810	0.17693
2499.41953	0.17771
2497.49097	0.17831
2495.56240	0.17898
2493.63384	0.17989
2491.70527	0.18081
2489.77671	0.18166
2487.84814	0.18264
2485.91958	0.18366
2483.99102	0.18454
2482.06245	0.18538
2480.13389	0.18623
2478.20532	0.18705
2476.27676	0.18793
2474.34819	0.18894
2472.41963	0.18980
2470.49106	0.19047
2468.56250	0.19131
2466.63394	0.19231
2464.70537	0.19331
2462.77681	0.19435
2460.84824	0.19541
2458.91968	0.19646
2456.99111	0.19758
2455.06255	0.19858
2453.13398	0.19938
2451.20542	0.20025
2449.27686	0.20131
2447.34829	0.20240
2445.41973	0.20339
2443.49116	0.20422
2441.56260	0.20505
2439.63403	0.20611
2437.70547	0.20734
2435.77690	0.20858
2433.84834	0.20971
2431.91978	0.21069
2429.99121	0.21159
2428.06265	0.21260
2426.13408	0.21374
2424.20552	0.21484
2422.27695	0.21584
2420.34839	0.21690
2418.41982	0.21805
2416.49126	0.21921
2414.56270	0.22037
2412.63413	0.22148
2410.70557	0.22247
2408.77700	0.22349
2406.84844	0.22479
2404.91987	0.22627
2402.99131	0.22759
2401.06274	0.22864
2399.13418	0.22968
2397.20562	0.23093
2395.27705	0.23222
2393.34849	0.23335
2391.41992	0.23444
2389.49136	0.23559
2387.56279	0.23665
2385.63423	0.23727
2383.70566	0.23720
2381.77710	0.23650
2379.84854	0.23532
2377.91997	0.23375
2375.99141	0.23187
2374.06284	0.22974
2372.13428	0.22714
2370.20571	0.22385
2368.27715	0.22015
2366.34858	0.21746
2364.42002	0.21661
2362.49146	0.21580
2360.56289	0.21384
2358.63433	0.21302
2356.70576	0.21672
2354.77720	0.22443
2352.84863	0.23267
2350.92007	0.23955
2348.99150	0.24372
2347.06294	0.24448
2345.13437	0.24231
2343.20581	0.23995
2341.27725	0.24035
2339.34868	0.24234
2337.42012	0.24437
2335.49155	0.24677
2333.56299	0.24954
2331.63442	0.25208
2329.70586	0.25425
2327.77729	0.25661
2325.84873	0.25963
2323.92017	0.26332
2321.99160	0.26733
2320.06304	0.27135
2318.13447	0.27525
2316.20591	0.27885
2314.27734	0.28204
2312.34878	0.28493
2310.42021	0.28774
2308.49165	0.29066
2306.56309	0.29374
2304.63452	0.29680
2302.70596	0.29951
2300.77739	0.30204
2298.84883	0.30456
2296.92026	0.30698
2294.99170	0.30941
2293.06313	0.31196
2291.13457	0.31453
2289.20601	0.31705
2287.27744	0.31952
2285.34888	0.32201
2283.42031	0.32444
2281.49175	0.32656
2279.56318	0.32840
2277.63462	0.33007
2275.70605	0.33184
2273.77749	0.33396
2271.84893	0.33620
2269.92036	0.33833
2267.99180	0.34045
2266.06323	0.34252
2264.13467	0.34454
2262.20610	0.34673
2260.27754	0.34905
2258.34897	0.35132
2256.42041	0.35346
2254.49185	0.35548
2252.56328	0.35753
2250.63472	0.35982
2248.70615	0.36233
2246.77759	0.36484
2244.84902	0.36719
2242.92046	0.36941
2240.99189	0.37163
2239.06333	0.37390
2237.13477	0.37616
2235.20620	0.37836
2233.27764	0.38050
2231.34907	0.38263
2229.42051	0.38482
2227.49194	0.38706
2225.56338	0.38932
2223.63481	0.39159
2221.70625	0.39378
2219.77769	0.39591
2217.84912	0.39804
2215.92056	0.40017
2213.99199	0.40235
2212.06343	0.40468
2210.13486	0.40706
2208.20630	0.40916
2206.27773	0.41107
2204.34917	0.41311
2202.42061	0.41526
2200.49204	0.41737
2198.56348	0.41941
2196.63491	0.42141
2194.70635	0.42336
2192.77778	0.42510
2190.84922	0.42673
2188.92065	0.42856
2186.99209	0.43056
2185.06353	0.43247
2183.13496	0.43421
2181.20640	0.43585
2179.27783	0.43745
2177.34927	0.43898
2175.42070	0.44040
2173.49214	0.44176
2171.56357	0.44311
2169.63501	0.44451
2167.70645	0.44599
2165.77788	0.44743
2163.84932	0.44874
2161.92075	0.44982
2159.99219	0.45075
2158.06362	0.45177
2156.13506	0.45285
2154.20649	0.45371
2152.27793	0.45439
2150.34937	0.45505
2148.42080	0.45576
2146.49224	0.45645
2144.56367	0.45696
2142.63511	0.45732
2140.70654	0.45768
2138.77798	0.45801
2136.84941	0.45813
2134.92085	0.45803
2132.99229	0.45791
2131.06372	0.45785
2129.13516	0.45764
2127.20659	0.45731
2125.27803	0.45713
2123.34946	0.45690
2121.42090	0.45637
2119.49233	0.45570
2117.56377	0.45510
2115.63521	0.45447
2113.70664	0.45358
2111.77808	0.45255
2109.84951	0.45159
2107.92095	0.45065
2105.99238	0.44955
2104.06382	0.44825
2102.13525	0.44683
2100.20669	0.44545
2098.27812	0.44408
2096.34956	0.44262
2094.42100	0.44101
2092.49243	0.43936
2090.56387	0.43773
2088.63530	0.43596
2086.70674	0.43403
2084.77817	0.43204
2082.84961	0.43004
2080.92104	0.42803
2078.99248	0.42596
2077.06392	0.42387
2075.13535	0.42185
2073.20679	0.41980
2071.27822	0.41755
2069.34966	0.41524
2067.42109	0.41288
2065.49253	0.41048
2063.56396	0.40817
2061.63540	0.40592
2059.70684	0.40348
2057.77827	0.40077
2055.84971	0.39793
2053.92114	0.39512
2051.99258	0.39252
2050.06401	0.39006
2048.13545	0.38756
2046.20688	0.38496
2044.27832	0.38229
2042.34976	0.37954
2040.42119	0.37677
2038.49263	0.37407
2036.56406	0.37145
2034.63550	0.36875
2032.70693	0.36586
2030.77837	0.36294
2028.84980	0.36016
2026.92124	0.35751
2024.99268	0.35478
2023.06411	0.35195
2021.13555	0.34918
2019.20698	0.34651
2017.27842	0.34384
2015.34985	0.34097
2013.42129	0.33804
2011.49272	0.33520
2009.56416	0.33246
2007.63560	0.32983
2005.70703	0.32725
2003.77847	0.32459
2001.84990	0.32191
1999.92134	0.31929
1997.99277	0.31670
1996.06421	0.31416
1994.13564	0.31176
1992.20708	0.30934
1990.27852	0.30671
1988.34995	0.30405
1986.42139	0.30154
1984.49282	0.29910
1982.56426	0.29670
1980.63569	0.29438
1978.70713	0.29217
1976.77856	0.29001
1974.85000	0.28787
1972.92144	0.28565
1970.99287	0.28346
1969.06431	0.28153
1967.13574	0.27965
1965.20718	0.27752
1963.27861	0.27543
1961.35005	0.27355
1959.42148	0.27171
1957.49292	0.26991
1955.56436	0.26821
1953.63579	0.26645
1951.70723	0.26463
1949.77866	0.26301
1947.85010	0.26154
1945.92153	0.26004
1943.99297	0.25853
1942.06440	0.25706
1940.13584	0.25555
1938.20728	0.25413
1936.27871	0.25284
1934.35015	0.25158
1932.42158	0.25038
1930.49302	0.24919
1928.56445	0.24792
1926.63589	0.24667
1924.70732	0.24572
1922.77876	0.24500
1920.85020	0.24420
1918.92163	0.24336
1916.99307	0.24247
1915.06450	0.24137
1913.13594	0.24030
1911.20737	0.23966
1909.27881	0.23920
1907.35024	0.23854
1905.42168	0.23775
1903.49312	0.23713
1901.56455	0.23663
1899.63599	0.23616
1897.70742	0.23578
1895.77886	0.23540
1893.85029	0.23500
1891.92173	0.23466
1889.99316	0.23457
1888.06460	0.23446
1886.13604	0.23414
1884.20747	0.23381
1882.27891	0.23355
1880.35034	0.23335
1878.42178	0.23322
1876.49321	0.23319
1874.56465	0.23322
1872.63608	0.23345
1870.70752	0.23392
1868.77896	0.23455
1866.85039	0.23482
1864.92183	0.23464
1862.99326	0.23460
1861.06470	0.23482
1859.13613	0.23520
1857.20757	0.23557
1855.27900	0.23599
1853.35044	0.23641
1851.42187	0.23689
1849.49331	0.23753
1847.56475	0.23834
1845.63618	0.23931
1843.70762	0.24036
1841.77905	0.24098
1839.85049	0.24126
1837.92192	0.24193
1835.99336	0.24284
1834.06479	0.24379
1832.13623	0.24488
1830.20767	0.24646
1828.27910	0.24806
1826.35054	0.24912
1824.42197	0.25028
1822.49341	0.25146
1820.56484	0.25260
1818.63628	0.25392
1816.70771	0.25550
1814.77915	0.25711
1812.85059	0.25890
1810.92202	0.26107
1808.99346	0.26320
1807.06489	0.26502
1805.13633	0.26683
1803.20776	0.26911
1801.27920	0.27176
1799.35063	0.27461
1797.42207	0.27707
1795.49351	0.27939
1793.56494	0.28230
1791.63638	0.28608
1789.70781	0.28948
1787.77925	0.29197
1785.85068	0.29502
1783.92212	0.29868
1781.99355	0.30263
1780.06499	0.30684
1778.13643	0.31117
1776.20786	0.31532
1774.27930	0.31986
1772.35073	0.32580
1770.42217	0.33192
1768.49360	0.33707
1766.56504	0.34222
1764.63647	0.34758
1762.70791	0.35344
1760.77935	0.36081
1758.85078	0.36788
1756.92222	0.37505
1754.99365	0.38282
1753.06509	0.38993
1751.13652	0.39848
1749.20796	0.40914
1747.27939	0.41952
1745.35083	0.42874
1743.42227	0.43861
1741.49370	0.44933
1739.56514	0.46169
1737.63657	0.47401
1735.70801	0.48498
1733.77944	0.50136
1731.85088	0.52064
1729.92231	0.53593
1727.99375	0.55154
1726.06519	0.56849
1724.13662	0.58706
1722.20806	0.60708
1720.27949	0.62578
1718.35093	0.64778
1716.42236	0.67948
1714.49380	0.70944
1712.56523	0.73409
1710.63667	0.75813
1708.70811	0.78407
1706.77954	0.81360
1704.85098	0.84825
1702.92241	0.87891
1700.99385	0.90976
1699.06528	0.95555
1697.13672	0.99746
1695.20815	1.04024
1693.27959	1.08225
1691.35103	1.11655
1689.42246	1.15576
1687.49390	1.19685
1685.56533	1.23713
1683.63677	1.29812
1681.70820	1.36010
1679.77964	1.40027
1677.85107	1.43898
1675.92251	1.48378
1673.99395	1.53855
1672.06538	1.58741
1670.13682	1.63563
1668.20825	1.69698
1666.27969	1.74741
1664.35112	1.79114
1662.42256	1.84488
1660.49399	1.90443
1658.56543	1.95161
1656.63687	1.99041
1654.70830	2.02720
1652.77974	2.08287
1650.85117	2.13374
1648.92261	2.15400
1646.99404	2.18096
1645.06548	2.21035
1643.13691	2.22763
1641.20835	2.23662
1639.27979	2.24524
1637.35122	2.25143
1635.42266	2.25106
1633.49409	2.24148
1631.56553	2.22635
1629.63696	2.20882
1627.70840	2.18104
1625.77983	2.14898
1623.85127	2.11047
1621.92271	2.06262
1619.99414	2.01796
1618.06558	1.97418
1616.13701	1.91309
1614.20845	1.85046
1612.27988	1.80205
1610.35132	1.75182
1608.42275	1.69802
1606.49419	1.64484
1604.56562	1.59481
1602.63706	1.54640
1600.70850	1.49955
1598.77993	1.45645
1596.85137	1.41603
1594.92280	1.37706
1592.99424	1.33952
1591.06567	1.30487
1589.13711	1.27234
1587.20854	1.24206
1585.27998	1.21402
1583.35142	1.18799
1581.42285	1.16455
1579.49429	1.14467
1577.56572	1.12680
1575.63716	1.10498
1573.70859	1.08526
1571.78003	1.07241
1569.85146	1.05970
1567.92290	1.04526
1565.99434	1.03375
1564.06577	1.02503
1562.13721	1.01854
1560.20864	1.01427
1558.28008	1.00906
1556.35151	1.00409
1554.42295	1.00089
1552.49438	0.99760
1550.56582	0.99305
1548.63726	0.98669
1546.70869	0.97951
1544.78013	0.97111
1542.85156	0.96087
1540.92300	0.94738
1538.99443	0.92607
1537.06587	0.90855
1535.13730	0.89663
1533.20874	0.88225
1531.28018	0.86686
1529.35161	0.85518
1527.42305	0.84432
1525.49448	0.83335
1523.56592	0.82389
1521.63735	0.81461
1519.70879	0.80483
1517.78022	0.79626
1515.85166	0.78684
1513.92310	0.77735
1511.99453	0.76933
1510.06597	0.76211
1508.13740	0.75502
1506.20884	0.74409
1504.28027	0.73394
1502.35171	0.72807
1500.42314	0.72335
1498.49458	0.71865
1496.56602	0.71290
1494.63745	0.70668
1492.70889	0.70180
1490.78032	0.69775
1488.85176	0.69311
1486.92319	0.68825
1484.99463	0.68409
1483.06606	0.68076
1481.13750	0.67792
1479.20894	0.67543
1477.28037	0.67371
1475.35181	0.67276
1473.42324	0.67203
1471.49468	0.67038
1469.56611	0.66797
1467.63755	0.66577
1465.70898	0.66397
1463.78042	0.66227
1461.85186	0.66081
1459.92329	0.66022
1457.99473	0.66053
1456.06616	0.65999
1454.13760	0.65744
1452.20903	0.65471
1450.28047	0.65222
1448.35190	0.64997
1446.42334	0.64773
1444.49478	0.64562
1442.56621	0.64367
1440.63765	0.64165
1438.70908	0.63967
1436.78052	0.63737
1434.85195	0.63450
1432.92339	0.63198
1430.99482	0.63015
1429.06626	0.62881
1427.13770	0.62792
1425.20913	0.62754
1423.28057	0.62740
1421.35200	0.62726
1419.42344	0.62731
1417.49487	0.62680
1415.56631	0.62524
1413.63774	0.62385
1411.70918	0.62313
1409.78062	0.62299
1407.85205	0.62322
1405.92349	0.62369
1403.99492	0.62396
1402.06636	0.62348
1400.13779	0.62265
1398.20923	0.62159
1396.28066	0.61980
1394.35210	0.61701
1392.42354	0.61379
1390.49497	0.61085
1388.56641	0.60804
1386.63784	0.60487
1384.70928	0.60142
1382.78071	0.59808
1380.85215	0.59494
1378.92358	0.59228
1376.99502	0.59031
1375.06646	0.58884
1373.13789	0.58748
1371.20933	0.58634
1369.28076	0.58550
1367.35220	0.58442
1365.42363	0.58306
1363.49507	0.58191
1361.56650	0.58077
1359.63794	0.57937
1357.70937	0.57805
1355.78081	0.57700
1353.85225	0.57606
1351.92368	0.57508
1349.99512	0.57416
1348.06655	0.57340
1346.13799	0.57264
1344.20942	0.57175
1342.28086	0.57094
1340.35229	0.57044
1338.42373	0.56987
1336.49517	0.56899
1334.56660	0.56818
1332.63804	0.56767
1330.70947	0.56739
1328.78091	0.56726
1326.85234	0.56722
1324.92378	0.56730
1322.99521	0.56737
1321.06665	0.56727
1319.13809	0.56706
1317.20952	0.56677
1315.28096	0.56644
1313.35239	0.56605
1311.42383	0.56547
1309.49526	0.56475
1307.56670	0.56403
1305.63813	0.56336
1303.70957	0.56271
1301.78101	0.56210
1299.85244	0.56147
1297.92388	0.56074
1295.99531	0.55990
1294.06675	0.55895
1292.13818	0.55788
1290.20962	0.55685
1288.28105	0.55594
1286.35249	0.55511
1284.42393	0.55432
1282.49536	0.55336
1280.56680	0.55224
1278.63823	0.55123
1276.70967	0.55038
1274.78110	0.54960
1272.85254	0.54886
1270.92397	0.54828
1268.99541	0.54779
1267.06685	0.54719
1265.13828	0.54652
1263.20972	0.54599
1261.28115	0.54545
1259.35259	0.54468
1257.42402	0.54387
1255.49546	0.54333
1253.56689	0.54302
1251.63833	0.54284
1249.70977	0.54275
1247.78120	0.54261
1245.85264	0.54231
1243.92407	0.54179
1241.99551	0.54115
1240.06694	0.54034
1238.13838	0.53915
1236.20981	0.53764
1234.28125	0.53609
1232.35269	0.53469
1230.42412	0.53339
1228.49556	0.53204
1226.56699	0.53059
1224.63843	0.52921
1222.70986	0.52798
1220.78130	0.52681
1218.85273	0.52568
1216.92417	0.52471
1214.99561	0.52393
1213.06704	0.52312
1211.13848	0.52233
1209.20991	0.52173
1207.28135	0.52129
1205.35278	0.52073
1203.42422	0.51988
1201.49565	0.51890
1199.56709	0.51804
1197.63853	0.51728
1195.70996	0.51653
1193.78140	0.51590
1191.85283	0.51547
1189.92427	0.51514
1187.99570	0.51484
1186.06714	0.51467
1184.13857	0.51471
1182.21001	0.51493
1180.28145	0.51530
1178.35288	0.51592
1176.42432	0.51686
1174.49575	0.51785
1172.56719	0.51847
1170.63862	0.51871
1168.71006	0.51887
1166.78149	0.51897
1164.85293	0.51895
1162.92437	0.51886
1160.99580	0.51873
1159.06724	0.51858
1157.13867	0.51814
1155.21011	0.51727
1153.28154	0.51609
1151.35298	0.51468
1149.42441	0.51298
1147.49585	0.51092
1145.56729	0.50855
1143.63872	0.50611
1141.71016	0.50384
1139.78159	0.50177
1137.85303	0.50011
1135.92446	0.49903
1133.99590	0.49816
1132.06733	0.49712
1130.13877	0.49608
1128.21021	0.49516
1126.28164	0.49416
1124.35308	0.49307
1122.42451	0.49221
1120.49595	0.49181
1118.56738	0.49180
1116.63882	0.49200
1114.71025	0.49226
1112.78169	0.49247
1110.85312	0.49278
1108.92456	0.49352
1106.99600	0.49456
1105.06743	0.49552
1103.13887	0.49656
1101.21030	0.49793
1099.28174	0.49960
1097.35317	0.50169
1095.42461	0.50429
1093.49604	0.50770
1091.56748	0.51234
1089.63892	0.51805
1087.71035	0.52453
1085.78179	0.53175
1083.85322	0.53914
1081.92466	0.54582
1079.99609	0.55125
1078.06753	0.55458
1076.13896	0.55509
1074.21040	0.55276
1072.28184	0.54800
1070.35327	0.54155
1068.42471	0.53448
1066.49614	0.52766
1064.56758	0.52158
1062.63901	0.51628
1060.71045	0.51154
1058.78188	0.50726
1056.85332	0.50334
1054.92476	0.49962
1052.99619	0.49639
1051.06763	0.49403
1049.13906	0.49241
1047.21050	0.49107
1045.28193	0.48989
1043.35337	0.48895
1041.42480	0.48828
1039.49624	0.48789
1037.56768	0.48757
1035.63911	0.48716
1033.71055	0.48684
1031.78198	0.48663
1029.85342	0.48616
1027.92485	0.48531
1025.99629	0.48444
1024.06772	0.48391
1022.13916	0.48373
1020.21060	0.48382
1018.28203	0.48423
1016.35347	0.48486
1014.42490	0.48538
1012.49634	0.48584
1010.56777	0.48646
1008.63921	0.48712
1006.71064	0.48807
1004.78208	0.48967
1002.85352	0.49179
1000.92495	0.49429
998.99639	0.49727
997.06782	0.50083
995.13926	0.50495
993.21069	0.50920
991.28213	0.51272
989.35356	0.51505
987.42500	0.51641
985.49644	0.51711
983.56787	0.51756
981.63931	0.51822
979.71074	0.51929
977.78218	0.52079
975.85361	0.52297
973.92505	0.52587
971.99648	0.52911
970.06792	0.53257
968.13936	0.53626
966.21079	0.54015
964.28223	0.54445
962.35366	0.54932
960.42510	0.55456
958.49653	0.56004
956.56797	0.56586
954.63940	0.57196
952.71084	0.57838
950.78228	0.58502
948.85371	0.59143
946.92515	0.59762
944.99658	0.60385
943.06802	0.61018
941.13945	0.61666
939.21089	0.62293
937.28232	0.62876
935.35376	0.63453
933.42520	0.64011
931.49663	0.64534
929.56807	0.65072
927.63950	0.65676
925.71094	0.66340
923.78237	0.67012
921.85381	0.67684
919.92524	0.68388
917.99668	0.69098
916.06812	0.69774
914.13955	0.70502
912.21099	0.71369
910.28242	0.72302
908.35386	0.73194
906.42529	0.74065
904.49673	0.74976
902.56816	0.75871
900.63960	0.76703
898.71104	0.77617
896.78247	0.78685
894.85391	0.79726
892.92534	0.80711
890.99678	0.81782
889.06821	0.82853
887.13965	0.83873
885.21108	0.85035
883.28252	0.86389
881.35396	0.87686
879.42539	0.88722
877.49683	0.89633
875.56826	0.90645
873.63970	0.91725
871.71113	0.92741
869.78257	0.93793
867.85400	0.94957
865.92544	0.96181
863.99687	0.97483
862.06831	0.98782
860.13975	1.00025
858.21118	1.01378
856.28262	1.02778
854.35405	1.03982
852.42549	1.05046
850.49692	1.06173
848.56836	1.07402
846.63979	1.08679
844.71123	1.09881
842.78267	1.10899
840.85410	1.11867
838.92554	1.13157
836.99697	1.14993
835.06841	1.16902
833.13984	1.18367
831.21128	1.19651
829.28271	1.20788
827.35415	1.21443
825.42559	1.22108
823.49702	1.23440
821.56846	1.25149
819.63989	1.26402
817.71133	1.26710
815.78276	1.27171
813.85420	1.28670
811.92563	1.30348
809.99707	1.31628
808.06851	1.32929
806.13994	1.34857
804.21138	1.37396
802.28281	1.40979
800.35425	1.46011
798.42568	1.51896
796.49712	1.57703
794.56855	1.56948
792.63999	1.48478
790.71143	1.43663
788.78286	1.45591
786.85430	1.50344
784.92573	1.56067
782.99717	1.63630
781.06860	1.73028
779.14004	1.85164
777.21147	1.72616
775.28291	1.50916
773.35435	1.48615
771.42578	1.57677
769.49722	1.55548
767.56865	1.53853
765.64009	1.56115
763.71152	1.53254
761.78296	1.52721
759.85439	1.52982
757.92583	1.47067
755.99727	1.31251
754.06870	1.14174
752.14014	1.08546
750.21157	1.15417
748.28301	1.19362
746.35444	1.09426
744.42588	0.99280
742.49731	0.93903
740.56875	0.94591
738.64019	0.99498
736.71162	0.98060
734.78306	0.84640
732.85449	0.66639
730.92593	0.54626
728.99736	0.51502
727.06880	0.51611
725.14023	0.47203
723.21167	0.40820
721.28311	0.39939
719.35454	0.41135
717.42598	0.41964
715.49741	0.38009
713.56885	0.26865
711.64028	0.19905
709.71172	0.19356
707.78315	0.17654
705.85459	0.13242
703.92603	0.19520
701.99746	0.35291
700.06890	0.36396
698.14033	0.17538
696.21177	0.08135
694.28320	0.18774
692.35464	0.18838
690.42607	0.00439
688.49751	-0.02322
686.56895	0.10858
684.64038	0.20204
682.71182	0.15647
680.78325	0.17817
678.85469	0.26929
676.92612	0.22963
674.99756	0.08887
673.06899	0.08326
671.14043	0.14800
669.21187	0.15528
667.28330	0.09019
665.35474	0.12883
663.42617	0.28797
661.49761	0.36581
659.56904	0.34666
657.64048	0.37737
655.71191	0.40829
653.78335	0.37240
651.85479	0.36655
649.92622	0.27831
647.99766	0.10171
646.06909	-0.05248
644.14053	-0.06501
642.21196	0.09759
640.28340	0.25640
638.35483	0.25172
636.42627	0.14225
634.49771	0.06249
632.56914	0.06235
630.64058	0.09605
628.71201	0.11727
626.78345	0.16842
624.85488	0.27923
622.92632	0.35177
620.99775	0.32833
619.06919	0.31644
617.14062	0.30286
615.21206	0.24389
613.28350	0.16094
611.35493	0.12771
609.42637	0.16844
607.49780	0.24185
605.56924	0.31420
603.64067	0.30928
601.71211	0.28215
599.78354	0.31879
597.85498	0.34133
595.92642	0.28837
593.99785	0.23126
592.06929	0.21057
590.14072	0.20133
588.21216	0.16507
586.28359	0.08844
584.35503	0.03954
582.42646	0.13620
580.49790	0.27497
578.56934	0.26376
576.64077	0.22465
574.71221	0.24655
572.78364	0.29845
570.85508	0.19384
568.92651	0.00390
566.99795	-0.05158
565.06938	0.08394
563.14082	0.19132
561.21226	0.15379
559.28369	0.17400
557.35513	0.36554
555.42656	0.48060
553.49800	0.27978
551.56943	0.14652
549.64087	0.06166
547.71230	0.03728
545.78374	0.06384
543.85518	0.10325
541.92661	0.12141
539.99805	0.11869
538.06948	0.13332
536.14092	0.14591
534.21235	0.13529
532.28379	0.14012
530.35522	0.17914
528.42666	0.21915
526.49810	0.18769
524.56953	0.14284
522.64097	0.14880
520.71240	0.12108
518.78384	0.06171
516.85527	0.05787
514.92671	0.11090
512.99814	0.15979
511.06958	0.18453
509.14102	0.17631
507.21245	0.11854
505.28389	0.08545
503.35532	0.14638
501.42676	0.28862
499.49819	0.34188
