3997.91411	0.06520
3995.98555	0.06524
3994.05698	0.06572
3992.12842	0.06633
3990.19985	0.06640
3988.27129	0.06616
3986.34272	0.06636
3984.41416	0.06686
3982.48560	0.06702
3980.55703	0.06714
3978.62847	0.06771
3976.69990	0.06838
3974.77134	0.06848
3972.84277	0.06818
3970.91421	0.06831
3968.98564	0.06882
3967.05708	0.06902
3965.12852	0.06876
3963.19995	0.06850
3961.27139	0.06860
3959.34282	0.06912
3957.41426	0.06974
3955.48569	0.07002
3953.55713	0.07009
3951.62856	0.07044
3949.70000	0.07120
3947.77144	0.07163
3945.84287	0.07137
3943.91431	0.07139
3941.98574	0.07183
3940.05718	0.07166
3938.12861	0.07094
3936.20005	0.07025
3934.27148	0.07012
3932.34292	0.07095
3930.41436	0.07170
3928.48579	0.07114
3926.55723	0.07041
3924.62866	0.07096
3922.70010	0.07172
3920.77153	0.07152
3918.84297	0.07140
3916.91440	0.07148
3914.98584	0.07075
3913.05728	0.06957
3911.12871	0.06897
3909.20015	0.06921
3907.27158	0.07017
3905.34302	0.07219
3903.41445	0.07499
3901.48589	0.07664
3899.55732	0.07624
3897.62876	0.07419
3895.70020	0.07170
3893.77163	0.07082
3891.84307	0.07177
3889.91450	0.07186
3887.98594	0.07030
3886.05737	0.07047
3884.12881	0.07278
3882.20024	0.07411
3880.27168	0.07427
3878.34312	0.07362
3876.41455	0.07282
3874.48599	0.07385
3872.55742	0.07600
3870.62886	0.07750
3868.70029	0.07800
3866.77173	0.07728
3864.84316	0.07697
3862.91460	0.07733
3860.98604	0.07639
3859.05747	0.07528
3857.12891	0.07608
3855.20034	0.07886
3853.27178	0.08303
3851.34321	0.08414
3849.41465	0.08028
3847.48608	0.07719
3845.55752	0.07683
3843.62896	0.07874
3841.70039	0.08175
3839.77183	0.08493
3837.84326	0.08749
3835.91470	0.08778
3833.98613	0.08626
3832.05757	0.08476
3830.12900	0.08379
3828.20044	0.08359
3826.27187	0.08447
3824.34331	0.08597
3822.41475	0.08846
3820.48618	0.09247
3818.55762	0.09426
3816.62905	0.09333
3814.70049	0.09216
3812.77192	0.09052
3810.84336	0.08958
3808.91479	0.09070
3806.98623	0.09368
3805.05767	0.09662
3803.12910	0.09901
3801.20054	0.10210
3799.27197	0.10325
3797.34341	0.10197
3795.41484	0.10128
3793.48628	0.10071
3791.55771	0.10021
3789.62915	0.10072
3787.70059	0.10211
3785.77202	0.10395
3783.84346	0.10572
3781.91489	0.10734
3779.98633	0.10980
3778.05776	0.11242
3776.12920	0.11311
3774.20063	0.11328
3772.27207	0.11488
3770.34351	0.11797
3768.41494	0.12143
3766.48638	0.12383
3764.55781	0.12533
3762.62925	0.12635
3760.70068	0.12814
3758.77212	0.13177
3756.84355	0.13562
3754.91499	0.13849
3752.98643	0.14219
3751.05786	0.14807
3749.12930	0.15322
3747.20073	0.15407
3745.27217	0.15469
3743.34360	0.15741
3741.41504	0.15946
3739.48647	0.16090
3737.55791	0.16419
3735.62935	0.17039
3733.70078	0.17723
3731.77222	0.18043
3729.84365	0.18140
3727.91509	0.18376
3725.98652	0.18906
3724.05796	0.19619
3722.12939	0.20335
3720.20083	0.21040
3718.27227	0.21739
3716.34370	0.22451
3714.41514	0.23236
3712.48657	0.24305
3710.55801	0.25752
3708.62944	0.27003
3706.70088	0.27871
3704.77231	0.28818
3702.84375	0.30089
3700.91519	0.31801
3698.98662	0.33647
3697.05806	0.35366
3695.12949	0.37206
3693.20093	0.39237
3691.27236	0.41591
3689.34380	0.44623
3687.41523	0.48002
3685.48667	0.50787
3683.55811	0.53268
3681.62954	0.56063
3679.70098	0.59316
3677.77241	0.62796
3675.84385	0.66876
3673.91528	0.72124
3671.98672	0.76339
3670.05815	0.80141
3668.12959	0.85232
3666.20103	0.89829
3664.27246	0.93772
3662.34390	0.98074
3660.41533	1.02729
3658.48677	1.07321
3656.55820	1.12211
3654.62964	1.17641
3652.70107	1.22285
3650.77251	1.26494
3648.84395	1.32193
3646.91538	1.38780
3644.98682	1.43496
3643.05825	1.47164
3641.12969	1.51016
3639.20112	1.55363
3637.27256	1.59795
3635.34399	1.64090
3633.41543	1.68327
3631.48687	1.72291
3629.55830	1.76401
3627.62974	1.81795
3625.70117	1.86778
3623.77261	1.90096
3621.84404	1.93227
3619.91548	1.96925
3617.98691	2.01554
3616.05835	2.06001
3614.12979	2.09675
3612.20122	2.13515
3610.27266	2.17322
3608.34409	2.21141
3606.41553	2.25289
3604.48696	2.29129
3602.55840	2.32471
3600.62983	2.36133
3598.70127	2.40217
3596.77271	2.44182
3594.84414	2.48182
3592.91558	2.52355
3590.98701	2.56347
3589.05845	2.60082
3587.12988	2.64343
3585.20132	2.68922
3583.27275	2.72947
3581.34419	2.76801
3579.41562	2.80919
3577.48706	2.85195
3575.55850	2.89432
3573.62993	2.93701
3571.70137	2.97858
3569.77280	3.01890
3567.84424	3.06219
3565.91567	3.11364
3563.98711	3.16237
3562.05854	3.20244
3560.12998	3.24273
3558.20142	3.28647
3556.27285	3.33183
3554.34429	3.37534
3552.41572	3.42004
3550.48716	3.46915
3548.55859	3.51880
3546.63003	3.56582
3544.70146	3.61324
3542.77290	3.65934
3540.84434	3.70050
3538.91577	3.74236
3536.98721	3.78868
3535.05864	3.83853
3533.13008	3.88831
3531.20151	3.93542
3529.27295	3.98092
3527.34438	4.03005
3525.41582	4.08187
3523.48726	4.13020
3521.55869	4.17532
3519.63013	4.22016
3517.70156	4.26737
3515.77300	4.31508
3513.84443	4.36215
3511.91587	4.41009
3509.98730	4.46075
3508.05874	4.51483
3506.13018	4.56853
3504.20161	4.61809
3502.27305	4.66323
3500.34448	4.70476
3498.41592	4.74655
3496.48735	4.79655
3494.55879	4.85169
3492.63022	4.89980
3490.70166	4.94095
3488.77310	4.98507
3486.84453	5.03628
3484.91597	5.09171
3482.98740	5.14825
3481.05884	5.20047
3479.13027	5.24623
3477.20171	5.29294
3475.27314	5.34272
3473.34458	5.39432
3471.41602	5.44803
3469.48745	5.49758
3467.55889	5.54170
3465.63032	5.59263
3463.70176	5.64893
3461.77319	5.68965
3459.84463	5.72593
3457.91606	5.78223
3455.98750	5.84543
3454.05894	5.89464
3452.13037	5.93306
3450.20181	5.97795
3448.27324	6.04019
3446.34468	6.10860
3444.41611	6.16016
3442.48755	6.19676
3440.55898	6.22885
3438.63042	6.26567
3436.70186	6.31097
3434.77329	6.35850
3432.84473	6.40516
3430.91616	6.45085
3428.98760	6.50259
3427.05903	6.55983
3425.13047	6.61559
3423.20190	6.66363
3421.27334	6.71765
3419.34478	6.78513
3417.41621	6.83111
3415.48765	6.82982
3413.55908	6.83005
3411.63052	6.88113
3409.70195	6.95365
3407.77339	7.02771
3405.84482	7.10259
3403.91626	7.16054
3401.98770	7.17779
3400.05913	7.17799
3398.13057	7.19449
3396.20200	7.20934
3394.27344	7.22319
3392.34487	7.24753
3390.41631	7.29487
3388.48774	7.35119
3386.55918	7.41735
3384.63062	7.51177
3382.70205	7.59411
3380.77349	7.62370
3378.84492	7.64420
3376.91636	7.67163
3374.98779	7.66797
3373.05923	7.67111
3371.13066	7.67963
3369.20210	7.68856
3367.27354	7.69654
3365.34497	7.68702
3363.41641	7.69270
3361.48784	7.71064
3359.55928	7.71670
3357.63071	7.71469
3355.70215	7.74724
3353.77358	7.79717
3351.84502	7.81843
3349.91646	7.83304
3347.98789	7.88792
3346.05933	7.94945
3344.13076	7.93894
3342.20220	7.90041
3340.27363	7.88067
3338.34507	7.86105
3336.41650	7.82541
3334.48794	7.79646
3332.55937	7.81428
3330.63081	7.90278
3328.70225	8.00552
3326.77368	8.04570
3324.84512	8.05281
3322.91655	8.06630
3320.98799	8.10015
3319.05942	8.12644
3317.13086	8.09356
3315.20229	8.02204
3313.27373	7.98792
3311.34517	8.01633
3309.41660	8.05726
3307.48804	8.04515
3305.55947	8.01719
3303.63091	8.02895
3301.70234	8.01829
3299.77378	7.96605
3297.84521	7.95529
3295.91665	8.01324
3293.98809	8.03867
3292.05952	8.04175
3290.13096	8.11104
3288.20239	8.15691
3286.27383	8.10042
3284.34526	7.99042
3282.41670	7.87810
3280.48813	7.81488
3278.55957	7.86936
3276.63101	8.01931
3274.70244	8.10843
3272.77388	8.05481
3270.84531	8.02568
3268.91675	8.09188
3266.98818	8.10439
3265.05962	8.07046
3263.13105	8.06353
3261.20249	8.00751
3259.27393	7.94433
3257.34536	7.99444
3255.41680	8.08066
3253.48823	8.12172
3251.55967	8.16082
3249.63110	8.15432
3247.70254	8.07732
3245.77397	8.01591
3243.84541	8.03789
3241.91685	8.08297
3239.98828	8.03567
3238.05972	7.91144
3236.13115	7.85401
3234.20259	7.92090
3232.27402	8.02890
3230.34546	8.10631
3228.41689	8.13256
3226.48833	8.09622
3224.55977	8.03231
3222.63120	7.99179
3220.70264	7.96686
3218.77407	7.95919
3216.84551	7.93827
3214.91694	7.84928
3212.98838	7.78026
3211.05981	7.81751
3209.13125	7.92804
3207.20269	8.02171
3205.27412	8.00432
3203.34556	7.88761
3201.41699	7.77358
3199.48843	7.70175
3197.55986	7.65803
3195.63130	7.64342
3193.70273	7.67489
3191.77417	7.69670
3189.84561	7.62497
3187.91704	7.51269
3185.98848	7.43839
3184.05991	7.41397
3182.13135	7.40706
3180.20278	7.36574
3178.27422	7.27756
3176.34565	7.17816
3174.41709	7.10488
3172.48853	7.05518
3170.55996	7.00740
3168.63140	6.95400
3166.70283	6.89545
3164.77427	6.83967
3162.84570	6.78830
3160.91714	6.73347
3158.98857	6.67626
3157.06001	6.61055
3155.13145	6.54008
3153.20288	6.49080
3151.27432	6.45923
3149.34575	6.39843
3147.41719	6.30354
3145.48862	6.22090
3143.56006	6.15926
3141.63149	6.10621
3139.70293	6.04632
3137.77437	5.96636
3135.84580	5.88287
3133.91724	5.80150
3131.98867	5.71381
3130.06011	5.63250
3128.13154	5.56199
3126.20298	5.49347
3124.27441	5.43185
3122.34585	5.37191
3120.41729	5.30128
3118.48872	5.22757
3116.56016	5.16017
3114.63159	5.09736
3112.70303	5.03524
3110.77446	4.96960
3108.84590	4.89678
3106.91733	4.81991
3104.98877	4.74579
3103.06021	4.67689
3101.13164	4.60908
3099.20308	4.53968
3097.27451	4.47173
3095.34595	4.40642
3093.41738	4.34129
3091.48882	4.27425
3089.56025	4.20649
3087.63169	4.14089
3085.70312	4.07804
3083.77456	4.01498
3081.84600	3.94977
3079.91743	3.88494
3077.98887	3.82250
3076.06030	3.76106
3074.13174	3.70005
3072.20317	3.63993
3070.27461	3.57995
3068.34604	3.51967
3066.41748	3.46012
3064.48892	3.40341
3062.56035	3.34935
3060.63179	3.29481
3058.70322	3.23867
3056.77466	3.18217
3054.84609	3.12626
3052.91753	3.07197
3050.98896	3.01951
3049.06040	2.96854
3047.13184	2.91882
3045.20327	2.86907
3043.27471	2.81921
3041.34614	2.77003
3039.41758	2.72134
3037.48901	2.67285
3035.56045	2.62527
3033.63188	2.57983
3031.70332	2.53568
3029.77476	2.49099
3027.84619	2.44628
3025.91763	2.40289
3023.98906	2.36078
3022.06050	2.31921
3020.13193	2.27839
3018.20337	2.23813
3016.27480	2.19766
3014.34624	2.15765
3012.41768	2.11887
3010.48911	2.08101
3008.56055	2.04363
3006.63198	2.00662
3004.70342	1.97006
3002.77485	1.93391
3000.84629	1.89854
2998.91772	1.86421
2996.98916	1.83053
2995.06060	1.79753
2993.13203	1.76514
2991.20347	1.73274
2989.27490	1.70050
2987.34634	1.66941
2985.41777	1.63926
2983.48921	1.60870
2981.56064	1.57809
2979.63208	1.54881
2977.70352	1.52035
2975.77495	1.49155
2973.84639	1.46243
2971.91782	1.43407
2969.98926	1.40689
2968.06069	1.38006
2966.13213	1.35360
2964.20356	1.32808
2962.27500	1.30330
2960.34644	1.27887
2958.41787	1.25476
2956.48931	1.23103
2954.56074	1.20800
2952.63218	1.18570
2950.70361	1.16346
2948.77505	1.14128
2946.84648	1.11978
2944.91792	1.09856
2942.98936	1.07748
2941.06079	1.05703
2939.13223	1.03699
2937.20366	1.01704
2935.27510	0.99714
2933.34653	0.97740
2931.41797	0.95855
2929.48940	0.94125
2927.56084	0.92457
2925.63228	0.90756
2923.70371	0.89064
2921.77515	0.87407
2919.84658	0.85773
2917.91802	0.84161
2915.98945	0.82588
2914.06089	0.81081
2912.13232	0.79613
2910.20376	0.78142
2908.27520	0.76704
2906.34663	0.75344
2904.41807	0.74053
2902.48950	0.72801
2900.56094	0.71546
2898.63237	0.70265
2896.70381	0.68995
2894.77524	0.67777
2892.84668	0.66589
2890.91812	0.65400
2888.98955	0.64229
2887.06099	0.63098
2885.13242	0.62017
2883.20386	0.60954
2881.27529	0.59885
2879.34673	0.58824
2877.41816	0.57760
2875.48960	0.56698
2873.56104	0.55674
2871.63247	0.54700
2869.70391	0.53753
2867.77534	0.52817
2865.84678	0.51905
2863.91821	0.51026
2861.98965	0.50164
2860.06108	0.49293
2858.13252	0.48420
2856.20396	0.47566
2854.27539	0.46738
2852.34683	0.45941
2850.41826	0.45181
2848.48970	0.44441
2846.56113	0.43714
2844.63257	0.43024
2842.70400	0.42377
2840.77544	0.41765
2838.84687	0.41182
2836.91831	0.40592
2834.98975	0.39982
2833.06118	0.39397
2831.13262	0.38851
2829.20405	0.38296
2827.27549	0.37724
2825.34692	0.37164
2823.41836	0.36614
2821.48979	0.36065
2819.56123	0.35516
2817.63267	0.34976
2815.70410	0.34457
2813.77554	0.33952
2811.84697	0.33445
2809.91841	0.32936
2807.98984	0.32449
2806.06128	0.31983
2804.13271	0.31506
2802.20415	0.31031
2800.27559	0.30592
2798.34702	0.30166
2796.41846	0.29729
2794.48989	0.29296
2792.56133	0.28876
2790.63276	0.28459
2788.70420	0.28048
2786.77563	0.27659
2784.84707	0.27281
2782.91851	0.26915
2780.98994	0.26555
2779.06138	0.26175
2777.13281	0.25792
2775.20425	0.25452
2773.27568	0.25154
2771.34712	0.24850
2769.41855	0.24518
2767.48999	0.24186
2765.56143	0.23875
2763.63286	0.23578
2761.70430	0.23278
2759.77573	0.22969
2757.84717	0.22678
2755.91860	0.22411
2753.99004	0.22151
2752.06147	0.21892
2750.13291	0.21625
2748.20435	0.21362
2746.27578	0.21126
2744.34722	0.20896
2742.41865	0.20639
2740.49009	0.20379
2738.56152	0.20143
2736.63296	0.19916
2734.70439	0.19697
2732.77583	0.19499
2730.84727	0.19317
2728.91870	0.19131
2726.99014	0.18928
2725.06157	0.18730
2723.13301	0.18550
2721.20444	0.18363
2719.27588	0.18164
2717.34731	0.17977
2715.41875	0.17803
2713.49019	0.17641
2711.56162	0.17498
2709.63306	0.17363
2707.70449	0.17213
2705.77593	0.17048
2703.84736	0.16891
2701.91880	0.16760
2699.99023	0.16640
2698.06167	0.16501
2696.13311	0.16344
2694.20454	0.16209
2692.27598	0.16110
2690.34741	0.16012
2688.41885	0.15890
2686.49028	0.15761
2684.56172	0.15641
2682.63315	0.15536
2680.70459	0.15438
2678.77603	0.15346
2676.84746	0.15264
2674.91890	0.15178
2672.99033	0.15080
2671.06177	0.14977
2669.13320	0.14881
2667.20464	0.14794
2665.27607	0.14707
2663.34751	0.14620
2661.41895	0.14548
2659.49038	0.14493
2657.56182	0.14437
2655.63325	0.14376
2653.70469	0.14333
2651.77612	0.14295
2649.84756	0.14239
2647.91899	0.14196
2645.99043	0.14174
2644.06187	0.14123
2642.13330	0.14044
2640.20474	0.13987
2638.27617	0.13952
2636.34761	0.13911
2634.41904	0.13882
2632.49048	0.13883
2630.56191	0.13887
2628.63335	0.13872
2626.70479	0.13834
2624.77622	0.13788
2622.84766	0.13755
2620.91909	0.13741
2618.99053	0.13746
2617.06196	0.13759
2615.13340	0.13772
2613.20483	0.13769
2611.27627	0.13749
2609.34771	0.13739
2607.41914	0.13746
2605.49058	0.13749
2603.56201	0.13749
2601.63345	0.13772
2599.70488	0.13805
2597.77632	0.13812
2595.84775	0.13808
2593.91919	0.13815
2591.99062	0.13830
2590.06206	0.13857
2588.13350	0.13891
2586.20493	0.13921
2584.27637	0.13955
2582.34780	0.13997
2580.41924	0.14028
2578.49067	0.14056
2576.56211	0.14094
2574.63354	0.14139
2572.70498	0.14185
2570.77642	0.14233
2568.84785	0.14282
2566.91929	0.14329
2564.99072	0.14371
2563.06216	0.14416
2561.13359	0.14473
2559.20503	0.14537
2557.27646	0.14598
2555.34790	0.14650
2553.41934	0.14706
2551.49077	0.14775
2549.56221	0.14846
2547.63364	0.14912
2545.70508	0.14975
2543.77651	0.15033
2541.84795	0.15094
2539.91938	0.15164
2537.99082	0.15237
2536.06226	0.15319
2534.13369	0.15415
2532.20513	0.15502
2530.27656	0.15558
2528.34800	0.15613
2526.41943	0.15695
2524.49087	0.15791
2522.56230	0.15879
2520.63374	0.15964
2518.70518	0.16042
2516.77661	0.16108
2514.84805	0.16180
2512.91948	0.16271
2510.99092	0.16368
2509.06235	0.16461
2507.13379	0.16548
2505.20522	0.16632
2503.27666	0.16723
2501.34810	0.16824
2499.41953	0.16915
2497.49097	0.16979
2495.56240	0.17050
2493.63384	0.17154
2491.70527	0.17261
2489.77671	0.17357
2487.84814	0.17468
2485.91958	0.17584
2483.99102	0.17676
2482.06245	0.17755
2480.13389	0.17842
2478.20532	0.17939
2476.27676	0.18045
2474.34819	0.18150
2472.41963	0.18241
2470.49106	0.18333
2468.56250	0.18430
2466.63394	0.18519
2464.70537	0.18606
2462.77681	0.18709
2460.84824	0.18828
2458.91968	0.18952
2456.99111	0.19070
2455.06255	0.19172
2453.13398	0.19267
2451.20542	0.19366
2449.27686	0.19471
2447.34829	0.19577
2445.41973	0.19677
2443.49116	0.19767
2441.56260	0.19858
2439.63403	0.19974
2437.70547	0.20108
2435.77690	0.20234
2433.84834	0.20350
2431.91978	0.20464
2429.99121	0.20571
2428.06265	0.20668
2426.13408	0.20774
2424.20552	0.20899
2422.27695	0.21017
2420.34839	0.21119
2418.41982	0.21231
2416.49126	0.21351
2414.56270	0.21467
2412.63413	0.21578
2410.70557	0.21691
2408.77700	0.21809
2406.84844	0.21934
2404.91987	0.22066
2402.99131	0.22197
2401.06274	0.22321
2399.13418	0.22443
2397.20562	0.22570
2395.27705	0.22695
2393.34849	0.22812
2391.41992	0.22933
2389.49136	0.23061
2387.56279	0.23182
2385.63423	0.23274
2383.70566	0.23325
2381.77710	0.23335
2379.84854	0.23306
2377.91997	0.23244
2375.99141	0.23160
2374.06284	0.23064
2372.13428	0.22924
2370.20571	0.22729
2368.27715	0.22562
2366.34858	0.22474
2364.42002	0.22377
2362.49146	0.22251
2360.56289	0.22236
2358.63433	0.22440
2356.70576	0.22874
2354.77720	0.23423
2352.84863	0.23976
2350.92007	0.24459
2348.99150	0.24756
2347.06294	0.24838
2345.13437	0.24767
2343.20581	0.24667
2341.27725	0.24699
2339.34868	0.24859
2337.42012	0.25057
2335.49155	0.25288
2333.56299	0.25549
2331.63442	0.25785
2329.70586	0.25995
2327.77729	0.26238
2325.84873	0.26501
2323.92017	0.26777
2321.99160	0.27097
2320.06304	0.27436
2318.13447	0.27765
2316.20591	0.28071
2314.27734	0.28334
2312.34878	0.28555
2310.42021	0.28777
2308.49165	0.29033
2306.56309	0.29303
2304.63452	0.29560
2302.70596	0.29797
2300.77739	0.30026
2298.84883	0.30252
2296.92026	0.30471
2294.99170	0.30691
2293.06313	0.30926
2291.13457	0.31169
2289.20601	0.31407
2287.27744	0.31635
2285.34888	0.31859
2283.42031	0.32079
2281.49175	0.32289
2279.56318	0.32491
2277.63462	0.32690
2275.70605	0.32885
2273.77749	0.33085
2271.84893	0.33297
2269.92036	0.33511
2267.99180	0.33720
2266.06323	0.33922
2264.13467	0.34126
2262.20610	0.34346
2260.27754	0.34575
2258.34897	0.34803
2256.42041	0.35028
2254.49185	0.35244
2252.56328	0.35452
2250.63472	0.35665
2248.70615	0.35891
2246.77759	0.36129
2244.84902	0.36370
2242.92046	0.36605
2240.99189	0.36823
2239.06333	0.37035
2237.13477	0.37256
2235.20620	0.37482
2233.27764	0.37703
2231.34907	0.37922
2229.42051	0.38145
2227.49194	0.38369
2225.56338	0.38591
2223.63481	0.38820
2221.70625	0.39047
2219.77769	0.39263
2217.84912	0.39472
2215.92056	0.39692
2213.99199	0.39931
2212.06343	0.40168
2210.13486	0.40388
2208.20630	0.40594
2206.27773	0.40798
2204.34917	0.41005
2202.42061	0.41210
2200.49204	0.41416
2198.56348	0.41629
2196.63491	0.41831
2194.70635	0.42011
2192.77778	0.42189
2190.84922	0.42380
2188.92065	0.42580
2186.99209	0.42767
2185.06353	0.42939
2183.13496	0.43110
2181.20640	0.43280
2179.27783	0.43441
2177.34927	0.43597
2175.42070	0.43755
2173.49214	0.43907
2171.56357	0.44040
2169.63501	0.44167
2167.70645	0.44306
2165.77788	0.44448
2163.84932	0.44572
2161.92075	0.44681
2159.99219	0.44792
2158.06362	0.44903
2156.13506	0.45002
2154.20649	0.45089
2152.27793	0.45172
2150.34937	0.45243
2148.42080	0.45301
2146.49224	0.45351
2144.56367	0.45395
2142.63511	0.45440
2140.70654	0.45485
2138.77798	0.45527
2136.84941	0.45543
2134.92085	0.45526
2132.99229	0.45503
2131.06372	0.45498
2129.13516	0.45492
2127.20659	0.45467
2125.27803	0.45428
2123.34946	0.45386
2121.42090	0.45345
2119.49233	0.45295
2117.56377	0.45232
2115.63521	0.45159
2113.70664	0.45078
2111.77808	0.44993
2109.84951	0.44906
2107.92095	0.44809
2105.99238	0.44694
2104.06382	0.44570
2102.13525	0.44441
2100.20669	0.44305
2098.27812	0.44157
2096.34956	0.43998
2094.42100	0.43832
2092.49243	0.43662
2090.56387	0.43492
2088.63530	0.43320
2086.70674	0.43144
2084.77817	0.42962
2082.84961	0.42775
2080.92104	0.42583
2078.99248	0.42387
2077.06392	0.42179
2075.13535	0.41960
2073.20679	0.41744
2071.27822	0.41525
2069.34966	0.41294
2067.42109	0.41053
2065.49253	0.40808
2063.56396	0.40564
2061.63540	0.40328
2059.70684	0.40092
2057.77827	0.39840
2055.84971	0.39580
2053.92114	0.39318
2051.99258	0.39052
2050.06401	0.38790
2048.13545	0.38539
2046.20688	0.38289
2044.27832	0.38028
2042.34976	0.37750
2040.42119	0.37465
2038.49263	0.37187
2036.56406	0.36915
2034.63550	0.36648
2032.70693	0.36370
2030.77837	0.36080
2028.84980	0.35792
2026.92124	0.35517
2024.99268	0.35250
2023.06411	0.34979
2021.13555	0.34711
2019.20698	0.34463
2017.27842	0.34217
2015.34985	0.33927
2013.42129	0.33610
2011.49272	0.33313
2009.56416	0.33037
2007.63560	0.32768
2005.70703	0.32500
2003.77847	0.32231
2001.84990	0.31967
1999.92134	0.31706
1997.99277	0.31446
1996.06421	0.31194
1994.13564	0.30968
1992.20708	0.30744
1990.27852	0.30481
1988.34995	0.30201
1986.42139	0.29936
1984.49282	0.29686
1982.56426	0.29446
1980.63569	0.29214
1978.70713	0.28989
1976.77856	0.28769
1974.85000	0.28553
1972.92144	0.28335
1970.99287	0.28117
1969.06431	0.27918
1967.13574	0.27728
1965.20718	0.27513
1963.27861	0.27295
1961.35005	0.27098
1959.42148	0.26918
1957.49292	0.26756
1955.56436	0.26598
1953.63579	0.26421
1951.70723	0.26227
1949.77866	0.26048
1947.85010	0.25896
1945.92153	0.25767
1943.99297	0.25652
1942.06440	0.25523
1940.13584	0.25358
1938.20728	0.25192
1936.27871	0.25046
1934.35015	0.24905
1932.42158	0.24773
1930.49302	0.24650
1928.56445	0.24534
1926.63589	0.24428
1924.70732	0.24348
1922.77876	0.24281
1920.85020	0.24197
1918.92163	0.24113
1916.99307	0.24024
1915.06450	0.23908
1913.13594	0.23807
1911.20737	0.23750
1909.27881	0.23694
1907.35024	0.23612
1905.42168	0.23534
1903.49312	0.23477
1901.56455	0.23421
1899.63599	0.23360
1897.70742	0.23321
1895.77886	0.23299
1893.85029	0.23263
1891.92173	0.23223
1889.99316	0.23217
1888.06460	0.23208
1886.13604	0.23163
1884.20747	0.23119
1882.27891	0.23097
1880.35034	0.23087
1878.42178	0.23082
1876.49321	0.23082
1874.56465	0.23089
1872.63608	0.23118
1870.70752	0.23191
1868.77896	0.23298
1866.85039	0.23321
1864.92183	0.23257
1862.99326	0.23225
1861.06470	0.23239
1859.13613	0.23270
1857.20757	0.23307
1855.27900	0.23357
1853.35044	0.23404
1851.42187	0.23457
1849.49331	0.23536
1847.56475	0.23638
1845.63618	0.23763
1843.70762	0.23884
1841.77905	0.23918
1839.85049	0.23908
1837.92192	0.23965
1835.99336	0.24058
1834.06479	0.24152
1832.13623	0.24281
1830.20767	0.24491
1828.27910	0.24675
1826.35054	0.24763
1824.42197	0.24863
1822.49341	0.24956
1820.56484	0.25045
1818.63628	0.25168
1816.70771	0.25329
1814.77915	0.25498
1812.85059	0.25694
1810.92202	0.25933
1808.99346	0.26154
1807.06489	0.26327
1805.13633	0.26500
1803.20776	0.26736
1801.27920	0.27025
1799.35063	0.27328
1797.42207	0.27584
1795.49351	0.27833
1793.56494	0.28152
1791.63638	0.28539
1789.70781	0.28841
1787.77925	0.29050
1785.85068	0.29338
1783.92212	0.29703
1781.99355	0.30118
1780.06499	0.30562
1778.13643	0.30992
1776.20786	0.31407
1774.27930	0.31907
1772.35073	0.32584
1770.42217	0.33210
1768.49360	0.33659
1766.56504	0.34118
1764.63647	0.34638
1762.70791	0.35251
1760.77935	0.36018
1758.85078	0.36724
1756.92222	0.37437
1754.99365	0.38207
1753.06509	0.38920
1751.13652	0.39822
1749.20796	0.40960
1747.27939	0.42013
1745.35083	0.42905
1743.42227	0.43871
1741.49370	0.44954
1739.56514	0.46207
1737.63657	0.47454
1735.70801	0.48595
1733.77944	0.50299
1731.85088	0.52235
1729.92231	0.53727
1727.99375	0.55251
1726.06519	0.56930
1724.13662	0.58792
1722.20806	0.60806
1720.27949	0.62703
1718.35093	0.64968
1716.42236	0.68220
1714.49380	0.71216
1712.56523	0.73611
1710.63667	0.75954
1708.70811	0.78520
1706.77954	0.81459
1704.85098	0.84919
1702.92241	0.87986
1700.99385	0.91054
1699.06528	0.95578
1697.13672	0.99643
1695.20815	1.03678
1693.27959	1.07618
1691.35103	1.10836
1689.42246	1.14514
1687.49390	1.18358
1685.56533	1.22100
1683.63677	1.27722
1681.70820	1.33405
1679.77964	1.37075
1677.85107	1.40609
1675.92251	1.44702
1673.99395	1.49678
1672.06538	1.54037
1670.13682	1.58284
1668.20825	1.63693
1666.27969	1.68013
1664.35112	1.71548
1662.42256	1.75769
1660.49399	1.80432
1658.56543	1.84154
1656.63687	1.87282
1654.70830	1.90362
1652.77974	1.95559
1650.85117	2.00741
1648.92261	2.02930
1646.99404	2.05655
1645.06548	2.08780
1643.13691	2.10935
1641.20835	2.12421
1639.27979	2.13809
1637.35122	2.14845
1635.42266	2.15247
1633.49409	2.14722
1631.56553	2.13546
1629.63696	2.12172
1627.70840	2.10036
1625.77983	2.07453
1623.85127	2.04058
1621.92271	1.99839
1619.99414	1.95904
1618.06558	1.91895
1616.13701	1.86314
1614.20845	1.80609
1612.27988	1.76134
1610.35132	1.71485
1608.42275	1.66460
1606.49419	1.61431
1604.56562	1.56768
1602.63706	1.52265
1600.70850	1.47772
1598.77993	1.43576
1596.85137	1.39642
1594.92280	1.35808
1592.99424	1.32078
1591.06567	1.28630
1589.13711	1.25337
1587.20854	1.22188
1585.27998	1.19204
1583.35142	1.16359
1581.42285	1.13690
1579.49429	1.11332
1577.56572	1.09184
1575.63716	1.06564
1573.70859	1.04158
1571.78003	1.02516
1569.85146	1.00748
1567.92290	0.98678
1565.99434	0.96960
1564.06577	0.95448
1562.13721	0.94173
1560.20864	0.93151
1558.28008	0.91353
1556.35151	0.89454
1554.42295	0.88223
1552.49438	0.87076
1550.56582	0.85981
1548.63726	0.84881
1546.70869	0.83933
1544.78013	0.83152
1542.85156	0.82409
1540.92300	0.81537
1538.99443	0.80240
1537.06587	0.79208
1535.13730	0.78567
1533.20874	0.77825
1531.28018	0.76970
1529.35161	0.76325
1527.42305	0.75773
1525.49448	0.75216
1523.56592	0.74716
1521.63735	0.74172
1519.70879	0.73479
1517.78022	0.72867
1515.85166	0.72276
1513.92310	0.71691
1511.99453	0.71244
1510.06597	0.70946
1508.13740	0.70769
1506.20884	0.70312
1504.28027	0.69597
1502.35171	0.69135
1500.42314	0.68829
1498.49458	0.68584
1496.56602	0.68281
1494.63745	0.67891
1492.70889	0.67577
1490.78032	0.67383
1488.85176	0.67168
1486.92319	0.66829
1484.99463	0.66478
1483.06606	0.66205
1481.13750	0.65977
1479.20894	0.65748
1477.28037	0.65562
1475.35181	0.65446
1473.42324	0.65318
1471.49468	0.64980
1469.56611	0.64552
1467.63755	0.64253
1465.70898	0.64043
1463.78042	0.63794
1461.85186	0.63549
1459.92329	0.63440
1457.99473	0.63388
1456.06616	0.63082
1454.13760	0.62626
1452.20903	0.62295
1450.28047	0.62036
1448.35190	0.61803
1446.42334	0.61567
1444.49478	0.61342
1442.56621	0.61138
1440.63765	0.60952
1438.70908	0.60821
1436.78052	0.60729
1434.85195	0.60578
1432.92339	0.60391
1430.99482	0.60237
1429.06626	0.60084
1427.13770	0.59919
1425.20913	0.59796
1423.28057	0.59711
1421.35200	0.59631
1419.42344	0.59546
1417.49487	0.59388
1415.56631	0.59152
1413.63774	0.58953
1411.70918	0.58805
1409.78062	0.58652
1407.85205	0.58491
1405.92349	0.58354
1403.99492	0.58210
1402.06636	0.58058
1400.13779	0.57947
1398.20923	0.57857
1396.28066	0.57734
1394.35210	0.57556
1392.42354	0.57344
1390.49497	0.57176
1388.56641	0.57081
1386.63784	0.56989
1384.70928	0.56836
1382.78071	0.56675
1380.85215	0.56555
1378.92358	0.56469
1376.99502	0.56395
1375.06646	0.56323
1373.13789	0.56219
1371.20933	0.56090
1369.28076	0.55977
1367.35220	0.55880
1365.42363	0.55811
1363.49507	0.55774
1361.56650	0.55700
1359.63794	0.55554
1357.70937	0.55413
1355.78081	0.55316
1353.85225	0.55235
1351.92368	0.55147
1349.99512	0.55068
1348.06655	0.54998
1346.13799	0.54911
1344.20942	0.54815
1342.28086	0.54745
1340.35229	0.54711
1338.42373	0.54648
1336.49517	0.54517
1334.56660	0.54372
1332.63804	0.54269
1330.70947	0.54202
1328.78091	0.54133
1326.85234	0.54055
1324.92378	0.53982
1322.99521	0.53917
1321.06665	0.53855
1319.13809	0.53792
1317.20952	0.53715
1315.28096	0.53635
1313.35239	0.53565
1311.42383	0.53485
1309.49526	0.53388
1307.56670	0.53297
1305.63813	0.53209
1303.70957	0.53118
1301.78101	0.53033
1299.85244	0.52945
1297.92388	0.52851
1295.99531	0.52755
1294.06675	0.52667
1292.13818	0.52603
1290.20962	0.52558
1288.28105	0.52514
1286.35249	0.52470
1284.42393	0.52430
1282.49536	0.52378
1280.56680	0.52318
1278.63823	0.52265
1276.70967	0.52224
1274.78110	0.52192
1272.85254	0.52153
1270.92397	0.52103
1268.99541	0.52052
1267.06685	0.52004
1265.13828	0.51964
1263.20972	0.51942
1261.28115	0.51918
1259.35259	0.51871
1257.42402	0.51806
1255.49546	0.51747
1253.56689	0.51709
1251.63833	0.51693
1249.70977	0.51693
1247.78120	0.51696
1245.85264	0.51676
1243.92407	0.51623
1241.99551	0.51568
1240.06694	0.51531
1238.13838	0.51502
1236.20981	0.51455
1234.28125	0.51391
1232.35269	0.51334
1230.42412	0.51285
1228.49556	0.51221
1226.56699	0.51149
1224.63843	0.51090
1222.70986	0.51028
1220.78130	0.50957
1218.85273	0.50893
1216.92417	0.50846
1214.99561	0.50815
1213.06704	0.50776
1211.13848	0.50702
1209.20991	0.50611
1207.28135	0.50539
1205.35278	0.50485
1203.42422	0.50436
1201.49565	0.50404
1199.56709	0.50375
1197.63853	0.50335
1195.70996	0.50286
1193.78140	0.50233
1191.85283	0.50188
1189.92427	0.50160
1187.99570	0.50142
1186.06714	0.50126
1184.13857	0.50119
1182.21001	0.50127
1180.28145	0.50140
1178.35288	0.50162
1176.42432	0.50199
1174.49575	0.50242
1172.56719	0.50286
1170.63862	0.50312
1168.71006	0.50338
1166.78149	0.50379
1164.85293	0.50406
1162.92437	0.50408
1160.99580	0.50404
1159.06724	0.50393
1157.13867	0.50359
1155.21011	0.50285
1153.28154	0.50157
1151.35298	0.49989
1149.42441	0.49805
1147.49585	0.49615
1145.56729	0.49418
1143.63872	0.49225
1141.71016	0.49023
1139.78159	0.48801
1137.85303	0.48588
1135.92446	0.48385
1133.99590	0.48190
1132.06733	0.48028
1130.13877	0.47898
1128.21021	0.47788
1126.28164	0.47693
1124.35308	0.47590
1122.42451	0.47460
1120.49595	0.47331
1118.56738	0.47242
1116.63882	0.47184
1114.71025	0.47112
1112.78169	0.47038
1110.85312	0.47025
1108.92456	0.47078
1106.99600	0.47162
1105.06743	0.47281
1103.13887	0.47446
1101.21030	0.47637
1099.28174	0.47842
1097.35317	0.48076
1095.42461	0.48368
1093.49604	0.48733
1091.56748	0.49157
1089.63892	0.49620
1087.71035	0.50136
1085.78179	0.50719
1083.85322	0.51340
1081.92466	0.51965
1079.99609	0.52546
1078.06753	0.52963
1076.13896	0.53108
1074.21040	0.52953
1072.28184	0.52531
1070.35327	0.51943
1068.42471	0.51312
1066.49614	0.50689
1064.56758	0.50085
1062.63901	0.49509
1060.71045	0.48961
1058.78188	0.48467
1056.85332	0.48060
1054.92476	0.47729
1052.99619	0.47440
1051.06763	0.47210
1049.13906	0.47054
1047.21050	0.46924
1045.28193	0.46800
1043.35337	0.46687
1041.42480	0.46586
1039.49624	0.46512
1037.56768	0.46466
1035.63911	0.46426
1033.71055	0.46385
1031.78198	0.46370
1029.85342	0.46389
1027.92485	0.46418
1025.99629	0.46443
1024.06772	0.46470
1022.13916	0.46527
1020.21060	0.46629
1018.28203	0.46743
1016.35347	0.46851
1014.42490	0.46973
1012.49634	0.47111
1010.56777	0.47246
1008.63921	0.47387
1006.71064	0.47556
1004.78208	0.47766
1002.85352	0.48017
1000.92495	0.48297
998.99639	0.48589
997.06782	0.48914
995.13926	0.49283
993.21069	0.49651
991.28213	0.49979
989.35356	0.50258
987.42500	0.50458
985.49644	0.50572
983.56787	0.50663
981.63931	0.50787
979.71074	0.50957
977.78218	0.51160
975.85361	0.51403
973.92505	0.51702
971.99648	0.52043
970.06792	0.52415
968.13936	0.52821
966.21079	0.53259
964.28223	0.53700
962.35366	0.54151
960.42510	0.54673
958.49653	0.55257
956.56797	0.55838
954.63940	0.56410
952.71084	0.57015
950.78228	0.57677
948.85371	0.58359
946.92515	0.58978
944.99658	0.59548
943.06802	0.60159
941.13945	0.60801
939.21089	0.61385
937.28232	0.61918
935.35376	0.62478
933.42520	0.63066
931.49663	0.63634
929.56807	0.64201
927.63950	0.64791
925.71094	0.65381
923.78237	0.65972
921.85381	0.66605
919.92524	0.67302
917.99668	0.68051
916.06812	0.68803
914.13955	0.69532
912.21099	0.70306
910.28242	0.71110
908.35386	0.71887
906.42529	0.72640
904.49673	0.73394
902.56816	0.74281
900.63960	0.75354
898.71104	0.76397
896.78247	0.77303
894.85391	0.78220
892.92534	0.79213
890.99678	0.80211
889.06821	0.81251
887.13965	0.82468
885.21108	0.83752
883.28252	0.84790
881.35396	0.85678
879.42539	0.86789
877.49683	0.88129
875.56826	0.89447
873.63970	0.90575
871.71113	0.91542
869.78257	0.92487
867.85400	0.93595
865.92544	0.94952
863.99687	0.96308
862.06831	0.97441
860.13975	0.98452
858.21118	0.99339
856.28262	1.00158
854.35405	1.01189
852.42549	1.02445
850.49692	1.03774
848.56836	1.05014
846.63979	1.06000
844.71123	1.06962
842.78267	1.08129
840.85410	1.09338
838.92554	1.10430
836.99697	1.11486
835.06841	1.12621
833.13984	1.13718
831.21128	1.14685
829.28271	1.15595
827.35415	1.16422
825.42559	1.17428
823.49702	1.18508
821.56846	1.18867
819.63989	1.18958
817.71133	1.19926
815.78276	1.21447
813.85420	1.22278
811.92563	1.23043
809.99707	1.24803
808.06851	1.26109
806.13994	1.26255
804.21138	1.26445
802.28281	1.26932
800.35425	1.27183
798.42568	1.26286
796.49712	1.23992
794.56855	1.22782
792.63999	1.23340
790.71143	1.22862
788.78286	1.21988
786.85430	1.23104
784.92573	1.24671
782.99717	1.23947
781.06860	1.22332
779.14004	1.22452
777.21147	1.22418
775.28291	1.18087
773.35435	1.13563
771.42578	1.15240
769.49722	1.19327
767.56865	1.15676
765.64009	1.09735
763.71152	1.11268
761.78296	1.16542
759.85439	1.17777
757.92583	1.19734
755.99727	1.19837
754.06870	1.13661
752.14014	1.10085
750.21157	1.05861
748.28301	0.95122
746.35444	0.86208
744.42588	0.81618
742.49731	0.78586
740.56875	0.75037
738.64019	0.70518
736.71162	0.66527
734.78306	0.61201
732.85449	0.53869
730.92593	0.49530
728.99736	0.46767
727.06880	0.39528
725.14023	0.30010
723.21167	0.23165
721.28311	0.19481
719.35454	0.16166
717.42598	0.12812
715.49741	0.09860
713.56885	0.07561
711.64028	0.08066
709.71172	0.09524
707.78315	0.05204
705.85459	-0.03476
703.92603	-0.06064
701.99746	-0.03374
700.06890	-0.03026
698.14033	-0.09033
696.21177	-0.16517
694.28320	-0.16184
692.35464	-0.11167
690.42607	-0.07549
688.49751	-0.06134
686.56895	-0.05974
684.64038	-0.10565
682.71182	-0.13342
680.78325	-0.03988
678.85469	0.06010
676.92612	0.00079
674.99756	-0.09329
673.06899	-0.06811
671.14043	-0.04148
669.21187	-0.08909
667.28330	-0.15948
665.35474	-0.15338
663.42617	-0.07852
661.49761	-0.01574
659.56904	-0.01919
657.64048	-0.05050
655.71191	-0.04929
653.78335	-0.01520
651.85479	-0.01585
649.92622	-0.03491
647.99766	-0.05012
646.06909	-0.06097
644.14053	-0.03327
642.21196	0.02687
640.28340	0.06858
638.35483	0.07873
636.42627	0.05472
634.49771	0.00994
632.56914	-0.00379
630.64058	0.03860
628.71201	0.07604
626.78345	0.08070
624.85488	0.09897
622.92632	0.11608
620.99775	0.13252
619.06919	0.13459
617.14062	0.07754
615.21206	-0.01065
613.28350	-0.05457
611.35493	-0.00270
609.42637	0.05210
607.49780	0.01584
605.56924	-0.04508
603.64067	-0.04581
601.71211	-0.00030
599.78354	0.03371
597.85498	0.04500
595.92642	0.04809
593.99785	0.09453
592.06929	0.19276
590.14072	0.23598
588.21216	0.14765
586.28359	0.01722
584.35503	-0.06919
582.42646	-0.03350
580.49790	0.07863
578.56934	0.15909
576.64077	0.16839
574.71221	0.10984
572.78364	0.06406
570.85508	0.02142
568.92651	-0.03088
566.99795	-0.01441
565.06938	0.06317
563.14082	0.09536
561.21226	0.06969
559.28369	0.03586
557.35513	0.05096
555.42656	0.11956
553.49800	0.12433
551.56943	0.04551
549.64087	-0.00768
547.71230	0.04344
545.78374	0.11707
543.85518	0.09779
541.92661	0.02888
539.99805	0.00507
538.06948	0.01772
536.14092	0.01120
534.21235	0.00357
532.28379	0.01886
530.35522	0.04589
528.42666	0.06964
526.49810	0.05808
524.56953	0.03658
522.64097	0.06056
520.71240	0.09902
518.78384	0.09257
516.85527	0.05867
514.92671	0.04611
512.99814	0.04059
511.06958	0.02056
509.14102	-0.00130
507.21245	-0.00672
505.28389	-0.01125
503.35532	-0.02764
501.42676	-0.03619
499.49819	-0.02305
