3997.91411	0.06735
3995.98555	0.06774
3994.05698	0.06831
3992.12842	0.06887
3990.19985	0.06923
3988.27129	0.06950
3986.34272	0.06985
3984.41416	0.07001
3982.48560	0.06987
3980.55703	0.06994
3978.62847	0.07038
3976.69990	0.07093
3974.77134	0.07121
3972.84277	0.07126
3970.91421	0.07170
3968.98564	0.07225
3967.05708	0.07207
3965.12852	0.07159
3963.19995	0.07164
3961.27139	0.07192
3959.34282	0.07211
3957.41426	0.07239
3955.48569	0.07266
3953.55713	0.07286
3951.62856	0.07341
3949.70000	0.07454
3947.77144	0.07522
3945.84287	0.07486
3943.91431	0.07487
3941.98574	0.07527
3940.05718	0.07442
3938.12861	0.07300
3936.20005	0.07257
3934.27148	0.07341
3932.34292	0.07520
3930.41436	0.07640
3928.48579	0.07582
3926.55723	0.07532
3924.62866	0.07623
3922.70010	0.07662
3920.77153	0.07579
3918.84297	0.07566
3916.91440	0.07583
3914.98584	0.07435
3913.05728	0.07191
3911.12871	0.07059
3909.20015	0.07101
3907.27158	0.07310
3905.34302	0.07715
3903.41445	0.08215
3901.48589	0.08489
3899.55732	0.08394
3897.62876	0.08003
3895.70020	0.07585
3893.77163	0.07490
3891.84307	0.07711
3889.91450	0.07805
3887.98594	0.07641
3886.05737	0.07672
3884.12881	0.07922
3882.20024	0.08064
3880.27168	0.08109
3878.34312	0.07945
3876.41455	0.07699
3874.48599	0.07789
3872.55742	0.08139
3870.62886	0.08452
3868.70029	0.08589
3866.77173	0.08502
3864.84316	0.08487
3862.91460	0.08538
3860.98604	0.08327
3859.05747	0.08056
3857.12891	0.08090
3855.20034	0.08540
3853.27178	0.09340
3851.34321	0.09566
3849.41465	0.08878
3847.48608	0.08296
3845.55752	0.08126
3843.62896	0.08337
3841.70039	0.08796
3839.77183	0.09335
3837.84326	0.09717
3835.91470	0.09637
3833.98613	0.09308
3832.05757	0.09077
3830.12900	0.08933
3828.20044	0.08873
3826.27187	0.08951
3824.34331	0.09113
3822.41475	0.09449
3820.48618	0.10009
3818.55762	0.10246
3816.62905	0.10163
3814.70049	0.09996
3812.77192	0.09608
3810.84336	0.09317
3808.91479	0.09433
3806.98623	0.09910
3805.05767	0.10350
3803.12910	0.10670
3801.20054	0.11106
3799.27197	0.11216
3797.34341	0.10934
3795.41484	0.10679
3793.48628	0.10427
3791.55771	0.10272
3789.62915	0.10319
3787.70059	0.10490
3785.77202	0.10731
3783.84346	0.10973
3781.91489	0.11164
3779.98633	0.11416
3778.05776	0.11641
3776.12920	0.11607
3774.20063	0.11565
3772.27207	0.11781
3770.34351	0.12222
3768.41494	0.12631
3766.48638	0.12818
3764.55781	0.12904
3762.62925	0.12978
3760.70068	0.13216
3758.77212	0.13695
3756.84355	0.14127
3754.91499	0.14436
3752.98643	0.14951
3751.05786	0.15834
3749.12930	0.16569
3747.20073	0.16673
3745.27217	0.16788
3743.34360	0.17193
3741.41504	0.17517
3739.48647	0.17875
3737.55791	0.18641
3735.62935	0.19876
3733.70078	0.20965
3731.77222	0.21295
3729.84365	0.21414
3727.91509	0.21794
3725.98652	0.22470
3724.05796	0.23139
3722.12939	0.23508
3720.20083	0.23680
3718.27227	0.23780
3716.34370	0.23920
3714.41514	0.24410
3712.48657	0.25713
3710.55801	0.27822
3708.62944	0.29485
3706.70088	0.30328
3704.77231	0.31223
3702.84375	0.32542
3700.91519	0.34212
3698.98662	0.35861
3697.05806	0.37433
3695.12949	0.39201
3693.20093	0.41199
3691.27236	0.43546
3689.34380	0.46448
3687.41523	0.49460
3685.48667	0.51846
3683.55811	0.54047
3681.62954	0.56714
3679.70098	0.59977
3677.77241	0.63586
3675.84385	0.67861
3673.91528	0.73080
3671.98672	0.77088
3670.05815	0.80838
3668.12959	0.85803
3666.20103	0.90054
3664.27246	0.93731
3662.34390	0.97943
3660.41533	1.02630
3658.48677	1.07323
3656.55820	1.12318
3654.62964	1.17810
3652.70107	1.22527
3650.77251	1.26969
3648.84395	1.33038
3646.91538	1.39644
3644.98682	1.44043
3643.05825	1.47554
3641.12969	1.51401
3639.20112	1.55792
3637.27256	1.60393
3635.34399	1.64965
3633.41543	1.69455
3631.48687	1.73649
3629.55830	1.78091
3627.62974	1.83759
3625.70117	1.88645
3623.77261	1.91861
3621.84404	1.94998
3619.91548	1.98643
3617.98691	2.03119
3616.05835	2.07374
3614.12979	2.10849
3612.20122	2.14548
3610.27266	2.18399
3608.34409	2.22482
3606.41553	2.26901
3604.48696	2.30880
3602.55840	2.34414
3600.62983	2.38241
3598.70127	2.42258
3596.77271	2.46138
3594.84414	2.50209
3592.91558	2.54340
3590.98701	2.58067
3589.05845	2.61658
3587.12988	2.66026
3585.20132	2.70694
3583.27275	2.74573
3581.34419	2.78159
3579.41562	2.81968
3577.48706	2.85912
3575.55850	2.89950
3573.62993	2.94229
3571.70137	2.98498
3569.77280	3.02669
3567.84424	3.07240
3565.91567	3.12744
3563.98711	3.17758
3562.05854	3.21722
3560.12998	3.25684
3558.20142	3.29810
3556.27285	3.33962
3554.34429	3.38196
3552.41572	3.42957
3550.48716	3.47998
3548.55859	3.52594
3546.63003	3.57013
3544.70146	3.61939
3542.77290	3.67064
3540.84434	3.71684
3538.91577	3.75974
3536.98721	3.80537
3535.05864	3.85500
3533.13008	3.90225
3531.20151	3.94812
3529.27295	3.99731
3527.34438	4.04905
3525.41582	4.09758
3523.48726	4.14083
3521.55869	4.18684
3519.63013	4.23611
3517.70156	4.28022
3515.77300	4.32229
3513.84443	4.37127
3511.91587	4.42445
3509.98730	4.47942
3508.05874	4.53417
3506.13018	4.58097
3504.20161	4.62121
3502.27305	4.66295
3500.34448	4.70840
3498.41592	4.75767
3496.48735	4.81200
3494.55879	4.86394
3492.63022	4.90635
3490.70166	4.94679
3488.77310	4.99514
3486.84453	5.04943
3484.91597	5.10256
3482.98740	5.15142
3481.05884	5.19854
3479.13027	5.24526
3477.20171	5.29191
3475.27314	5.34056
3473.34458	5.38783
3471.41602	5.43700
3469.48745	5.49265
3467.55889	5.54222
3465.63032	5.58018
3463.70176	5.62249
3461.77319	5.67493
3459.84463	5.72306
3457.91606	5.76517
3455.98750	5.82478
3454.05894	5.89416
3452.13037	5.94359
3450.20181	5.98869
3448.27324	6.04767
3446.34468	6.10866
3444.41611	6.15369
3442.48755	6.18066
3440.55898	6.20470
3438.63042	6.24296
3436.70186	6.29847
3434.77329	6.35721
3432.84473	6.40113
3430.91616	6.43670
3428.98760	6.48761
3427.05903	6.54930
3425.13047	6.61246
3423.20190	6.67272
3421.27334	6.72973
3419.34478	6.77751
3417.41621	6.81771
3415.48765	6.88357
3413.55908	6.96542
3411.63052	7.00088
3409.70195	6.99087
3407.77339	7.00699
3405.84482	7.04295
3403.91626	7.05887
3401.98770	7.07177
3400.05913	7.12863
3398.13057	7.24002
3396.20200	7.33173
3394.27344	7.35337
3392.34487	7.35889
3390.41631	7.39054
3388.48774	7.41830
3386.55918	7.45227
3384.63062	7.49910
3382.70205	7.53794
3380.77349	7.55468
3378.84492	7.55030
3376.91636	7.57630
3374.98779	7.62521
3373.05923	7.68320
3371.13066	7.78357
3369.20210	7.88301
3367.27354	7.86270
3365.34497	7.79213
3363.41641	7.80510
3361.48784	7.86682
3359.55928	7.89347
3357.63071	7.87178
3355.70215	7.89606
3353.77358	7.97002
3351.84502	7.98365
3349.91646	7.93977
3347.98789	7.94942
3346.05933	8.02153
3344.13076	8.08258
3342.20220	8.08708
3340.27363	8.00868
3338.34507	7.94560
3336.41650	7.96896
3334.48794	8.02546
3332.55937	8.03655
3330.63081	7.99622
3328.70225	7.96356
3326.77368	7.96699
3324.84512	7.99193
3322.91655	8.04235
3320.98799	8.12957
3319.05942	8.18518
3317.13086	8.15556
3315.20229	8.08813
3313.27373	8.09681
3311.34517	8.18916
3309.41660	8.25193
3307.48804	8.25007
3305.55947	8.17979
3303.63091	8.06979
3301.70234	8.03247
3299.77378	8.10895
3297.84521	8.18119
3295.91665	8.17751
3293.98809	8.15506
3292.05952	8.14737
3290.13096	8.15529
3288.20239	8.17961
3286.27383	8.17152
3284.34526	8.12384
3282.41670	8.17432
3280.48813	8.31877
3278.55957	8.37990
3276.63101	8.29208
3274.70244	8.15189
3272.77388	8.06488
3270.84531	8.08072
3268.91675	8.14637
3266.98818	8.12940
3265.05962	8.04465
3263.13105	8.01810
3261.20249	8.08450
3259.27393	8.17134
3257.34536	8.29525
3255.41680	8.48469
3253.48823	8.56065
3251.55967	8.46055
3249.63110	8.32494
3247.70254	8.20229
3245.77397	8.11820
3243.84541	8.16765
3241.91685	8.30528
3239.98828	8.29583
3238.05972	8.20753
3236.13115	8.26037
3234.20259	8.27363
3232.27402	8.07686
3230.34546	7.93229
3228.41689	7.95719
3226.48833	7.98583
3224.55977	7.92383
3222.63120	7.88146
3220.70264	7.86346
3218.77407	7.84792
3216.84551	7.90256
3214.91694	7.98963
3212.98838	8.01051
3211.05981	7.95859
3209.13125	7.92290
3207.20269	7.92855
3205.27412	7.88836
3203.34556	7.79821
3201.41699	7.69599
3199.48843	7.59529
3197.55986	7.56898
3195.63130	7.64078
3193.70273	7.70435
3191.77417	7.67947
3189.84561	7.62652
3187.91704	7.58809
3185.98848	7.52594
3184.05991	7.44014
3182.13135	7.39522
3180.20278	7.39901
3178.27422	7.35377
3176.34565	7.25484
3174.41709	7.18777
3172.48853	7.13234
3170.55996	7.06812
3168.63140	7.02303
3166.70283	6.97034
3164.77427	6.89371
3162.84570	6.81897
3160.91714	6.75017
3158.98857	6.69296
3157.06001	6.64769
3155.13145	6.58688
3153.20288	6.50116
3151.27432	6.42521
3149.34575	6.37889
3147.41719	6.33015
3145.48862	6.26376
3143.56006	6.20302
3141.63149	6.14246
3139.70293	6.06740
3137.77437	5.99667
3135.84580	5.92871
3133.91724	5.84715
3131.98867	5.76674
3130.06011	5.69728
3128.13154	5.62951
3126.20298	5.55951
3124.27441	5.48796
3122.34585	5.41645
3120.41729	5.34378
3118.48872	5.26544
3116.56016	5.18933
3114.63159	5.12250
3112.70303	5.05831
3110.77446	4.99160
3108.84590	4.91923
3106.91733	4.84190
3104.98877	4.76813
3103.06021	4.70225
3101.13164	4.63796
3099.20308	4.57012
3097.27451	4.49933
3095.34595	4.42640
3093.41738	4.35475
3091.48882	4.28719
3089.56025	4.22318
3087.63169	4.16340
3085.70312	4.10554
3083.77456	4.04330
3081.84600	3.97553
3079.91743	3.90667
3077.98887	3.84151
3076.06030	3.78151
3074.13174	3.72338
3072.20317	3.66414
3070.27461	3.60418
3068.34604	3.54502
3066.41748	3.48723
3064.48892	3.43002
3062.56035	3.37265
3060.63179	3.31658
3058.70322	3.26322
3056.77466	3.21003
3054.84609	3.15424
3052.91753	3.09811
3050.98896	3.04495
3049.06040	2.99391
3047.13184	2.94326
3045.20327	2.89305
3043.27471	2.84359
3041.34614	2.79461
3039.41758	2.74581
3037.48901	2.69736
3035.56045	2.64928
3033.63188	2.60206
3031.70332	2.55668
3029.77476	2.51286
3027.84619	2.46946
3025.91763	2.42551
3023.98906	2.38166
3022.06050	2.33946
3020.13193	2.29819
3018.20337	2.25680
3016.27480	2.21602
3014.34624	2.17630
3012.41768	2.13724
3010.48911	2.09863
3008.56055	2.06084
3006.63198	2.02409
3004.70342	1.98810
3002.77485	1.95294
3000.84629	1.91837
2998.91772	1.88375
2996.98916	1.84939
2995.06060	1.81575
2993.13203	1.78298
2991.20347	1.75113
2989.27490	1.71966
2987.34634	1.68841
2985.41777	1.65791
2983.48921	1.62794
2981.56064	1.59784
2979.63208	1.56803
2977.70352	1.53918
2975.77495	1.51084
2973.84639	1.48241
2971.91782	1.45421
2969.98926	1.42697
2968.06069	1.40071
2966.13213	1.37481
2964.20356	1.34883
2962.27500	1.32329
2960.34644	1.29862
2958.41787	1.27462
2956.48931	1.25124
2954.56074	1.22841
2952.63218	1.20619
2950.70361	1.18464
2948.77505	1.16354
2946.84648	1.14271
2944.91792	1.12200
2942.98936	1.10146
2941.06079	1.08116
2939.13223	1.06094
2937.20366	1.04089
2935.27510	1.02125
2933.34653	1.00198
2931.41797	0.98318
2929.48940	0.96518
2927.56084	0.94806
2925.63228	0.93160
2923.70371	0.91530
2921.77515	0.89876
2919.84658	0.88232
2917.91802	0.86616
2915.98945	0.85032
2914.06089	0.83520
2912.13232	0.82080
2910.20376	0.80652
2908.27520	0.79196
2906.34663	0.77758
2904.41807	0.76397
2902.48950	0.75110
2900.56094	0.73868
2898.63237	0.72627
2896.70381	0.71378
2894.77524	0.70153
2892.84668	0.68948
2890.91812	0.67765
2888.98955	0.66622
2887.06099	0.65512
2885.13242	0.64435
2883.20386	0.63371
2881.27529	0.62301
2879.34673	0.61240
2877.41816	0.60179
2875.48960	0.59114
2873.56104	0.58073
2871.63247	0.57064
2869.70391	0.56077
2867.77534	0.55114
2865.84678	0.54166
2863.91821	0.53229
2861.98965	0.52315
2860.06108	0.51411
2858.13252	0.50517
2856.20396	0.49661
2854.27539	0.48838
2852.34683	0.48023
2850.41826	0.47228
2848.48970	0.46449
2846.56113	0.45667
2844.63257	0.44901
2842.70400	0.44189
2840.77544	0.43559
2838.84687	0.42957
2836.91831	0.42332
2834.98975	0.41721
2833.06118	0.41147
2831.13262	0.40575
2829.20405	0.39985
2827.27549	0.39396
2825.34692	0.38813
2823.41836	0.38219
2821.48979	0.37623
2819.56123	0.37043
2817.63267	0.36479
2815.70410	0.35927
2813.77554	0.35389
2811.84697	0.34874
2809.91841	0.34382
2807.98984	0.33909
2806.06128	0.33437
2804.13271	0.32935
2802.20415	0.32420
2800.27559	0.31939
2798.34702	0.31490
2796.41846	0.31043
2794.48989	0.30594
2792.56133	0.30155
2790.63276	0.29725
2788.70420	0.29314
2786.77563	0.28926
2784.84707	0.28535
2782.91851	0.28142
2780.98994	0.27764
2779.06138	0.27394
2777.13281	0.27034
2775.20425	0.26701
2773.27568	0.26384
2771.34712	0.26045
2769.41855	0.25676
2767.48999	0.25312
2765.56143	0.24989
2763.63286	0.24694
2761.70430	0.24396
2759.77573	0.24099
2757.84717	0.23816
2755.91860	0.23543
2753.99004	0.23261
2752.06147	0.22970
2750.13291	0.22692
2748.20435	0.22441
2746.27578	0.22204
2744.34722	0.21954
2742.41865	0.21673
2740.49009	0.21401
2738.56152	0.21170
2736.63296	0.20956
2734.70439	0.20737
2732.77583	0.20515
2730.84727	0.20304
2728.91870	0.20106
2726.99014	0.19914
2725.06157	0.19730
2723.13301	0.19547
2721.20444	0.19351
2719.27588	0.19152
2717.34731	0.18961
2715.41875	0.18772
2713.49019	0.18595
2711.56162	0.18430
2709.63306	0.18273
2707.70449	0.18122
2705.77593	0.17961
2703.84736	0.17802
2701.91880	0.17662
2699.99023	0.17529
2698.06167	0.17378
2696.13311	0.17222
2694.20454	0.17100
2692.27598	0.16993
2690.34741	0.16863
2688.41885	0.16715
2686.49028	0.16571
2684.56172	0.16443
2682.63315	0.16332
2680.70459	0.16235
2678.77603	0.16141
2676.84746	0.16042
2674.91890	0.15943
2672.99033	0.15851
2671.06177	0.15753
2669.13320	0.15630
2667.20464	0.15504
2665.27607	0.15410
2663.34751	0.15339
2661.41895	0.15269
2659.49038	0.15204
2657.56182	0.15137
2655.63325	0.15058
2653.70469	0.14992
2651.77612	0.14938
2649.84756	0.14874
2647.91899	0.14816
2645.99043	0.14773
2644.06187	0.14715
2642.13330	0.14644
2640.20474	0.14586
2638.27617	0.14540
2636.34761	0.14496
2634.41904	0.14462
2632.49048	0.14442
2630.56191	0.14427
2628.63335	0.14406
2626.70479	0.14378
2624.77622	0.14349
2622.84766	0.14314
2620.91909	0.14284
2618.99053	0.14269
2617.06196	0.14255
2615.13340	0.14249
2613.20483	0.14250
2611.27627	0.14239
2609.34771	0.14230
2607.41914	0.14234
2605.49058	0.14230
2603.56201	0.14218
2601.63345	0.14229
2599.70488	0.14266
2597.77632	0.14294
2595.84775	0.14308
2593.91919	0.14320
2591.99062	0.14325
2590.06206	0.14323
2588.13350	0.14330
2586.20493	0.14363
2584.27637	0.14420
2582.34780	0.14472
2580.41924	0.14495
2578.49067	0.14507
2576.56211	0.14536
2574.63354	0.14583
2572.70498	0.14635
2570.77642	0.14682
2568.84785	0.14719
2566.91929	0.14752
2564.99072	0.14790
2563.06216	0.14845
2561.13359	0.14910
2559.20503	0.14967
2557.27646	0.15009
2555.34790	0.15047
2553.41934	0.15102
2551.49077	0.15184
2549.56221	0.15274
2547.63364	0.15344
2545.70508	0.15395
2543.77651	0.15450
2541.84795	0.15520
2539.91938	0.15592
2537.99082	0.15662
2536.06226	0.15737
2534.13369	0.15815
2532.20513	0.15885
2530.27656	0.15944
2528.34800	0.16015
2526.41943	0.16107
2524.49087	0.16194
2522.56230	0.16261
2520.63374	0.16328
2518.70518	0.16404
2516.77661	0.16481
2514.84805	0.16564
2512.91948	0.16654
2510.99092	0.16736
2509.06235	0.16812
2507.13379	0.16897
2505.20522	0.16987
2503.27666	0.17072
2501.34810	0.17155
2499.41953	0.17246
2497.49097	0.17334
2495.56240	0.17422
2493.63384	0.17522
2491.70527	0.17614
2489.77671	0.17697
2487.84814	0.17797
2485.91958	0.17908
2483.99102	0.18002
2482.06245	0.18086
2480.13389	0.18165
2478.20532	0.18248
2476.27676	0.18347
2474.34819	0.18451
2472.41963	0.18536
2470.49106	0.18618
2468.56250	0.18716
2466.63394	0.18809
2464.70537	0.18893
2462.77681	0.18994
2460.84824	0.19120
2458.91968	0.19249
2456.99111	0.19363
2455.06255	0.19460
2453.13398	0.19545
2451.20542	0.19635
2449.27686	0.19733
2447.34829	0.19836
2445.41973	0.19932
2443.49116	0.20017
2441.56260	0.20112
2439.63403	0.20230
2437.70547	0.20362
2435.77690	0.20490
2433.84834	0.20604
2431.91978	0.20705
2429.99121	0.20798
2428.06265	0.20888
2426.13408	0.20994
2424.20552	0.21119
2422.27695	0.21245
2420.34839	0.21355
2418.41982	0.21455
2416.49126	0.21561
2414.56270	0.21676
2412.63413	0.21792
2410.70557	0.21899
2408.77700	0.22009
2406.84844	0.22140
2404.91987	0.22293
2402.99131	0.22436
2401.06274	0.22552
2399.13418	0.22666
2397.20562	0.22795
2395.27705	0.22931
2393.34849	0.23060
2391.41992	0.23197
2389.49136	0.23383
2387.56279	0.23681
2385.63423	0.24200
2383.70566	0.25060
2381.77710	0.26305
2379.84854	0.27868
2377.91997	0.29661
2375.99141	0.31720
2374.06284	0.34168
2372.13428	0.37012
2370.20571	0.40121
2368.27715	0.43296
2366.34858	0.46293
2364.42002	0.48907
2362.49146	0.50922
2360.56289	0.52090
2358.63433	0.52107
2356.70576	0.50722
2354.77720	0.48172
2352.84863	0.44956
2350.92007	0.41706
2348.99150	0.39744
2347.06294	0.39812
2345.13437	0.41893
2343.20581	0.44768
2341.27725	0.46334
2339.34868	0.46443
2337.42012	0.46087
2335.49155	0.45738
2333.56299	0.45396
2331.63442	0.45035
2329.70586	0.44585
2327.77729	0.43979
2325.84873	0.43159
2323.92017	0.42173
2321.99160	0.41122
2320.06304	0.40014
2318.13447	0.38873
2316.20591	0.37847
2314.27734	0.37112
2312.34878	0.36671
2310.42021	0.36283
2308.49165	0.35743
2306.56309	0.35092
2304.63452	0.34503
2302.70596	0.34125
2300.77739	0.33932
2298.84883	0.33774
2296.92026	0.33607
2294.99170	0.33457
2293.06313	0.33307
2291.13457	0.33151
2289.20601	0.33012
2287.27744	0.32893
2285.34888	0.32806
2283.42031	0.32811
2281.49175	0.32966
2279.56318	0.33241
2277.63462	0.33546
2275.70605	0.33831
2273.77749	0.34083
2271.84893	0.34300
2269.92036	0.34503
2267.99180	0.34702
2266.06323	0.34886
2264.13467	0.35044
2262.20610	0.35195
2260.27754	0.35350
2258.34897	0.35506
2256.42041	0.35662
2254.49185	0.35813
2252.56328	0.35962
2250.63472	0.36119
2248.70615	0.36282
2246.77759	0.36460
2244.84902	0.36669
2242.92046	0.36884
2240.99189	0.37085
2239.06333	0.37290
2237.13477	0.37499
2235.20620	0.37692
2233.27764	0.37880
2231.34907	0.38098
2229.42051	0.38337
2227.49194	0.38565
2225.56338	0.38781
2223.63481	0.39004
2221.70625	0.39223
2219.77769	0.39429
2217.84912	0.39635
2215.92056	0.39845
2213.99199	0.40063
2212.06343	0.40293
2210.13486	0.40517
2208.20630	0.40732
2206.27773	0.40945
2204.34917	0.41162
2202.42061	0.41382
2200.49204	0.41596
2198.56348	0.41795
2196.63491	0.41985
2194.70635	0.42171
2192.77778	0.42352
2190.84922	0.42538
2188.92065	0.42723
2186.99209	0.42899
2185.06353	0.43069
2183.13496	0.43245
2181.20640	0.43426
2179.27783	0.43596
2177.34927	0.43759
2175.42070	0.43918
2173.49214	0.44072
2171.56357	0.44226
2169.63501	0.44369
2167.70645	0.44489
2165.77788	0.44607
2163.84932	0.44733
2161.92075	0.44847
2159.99219	0.44950
2158.06362	0.45055
2156.13506	0.45158
2154.20649	0.45253
2152.27793	0.45340
2150.34937	0.45402
2148.42080	0.45444
2146.49224	0.45498
2144.56367	0.45567
2142.63511	0.45633
2140.70654	0.45677
2138.77798	0.45700
2136.84941	0.45705
2134.92085	0.45695
2132.99229	0.45686
2131.06372	0.45685
2129.13516	0.45663
2127.20659	0.45623
2125.27803	0.45597
2123.34946	0.45572
2121.42090	0.45531
2119.49233	0.45475
2117.56377	0.45403
2115.63521	0.45308
2113.70664	0.45211
2111.77808	0.45130
2109.84951	0.45055
2107.92095	0.44961
2105.99238	0.44836
2104.06382	0.44698
2102.13525	0.44563
2100.20669	0.44436
2098.27812	0.44300
2096.34956	0.44148
2094.42100	0.43986
2092.49243	0.43824
2090.56387	0.43663
2088.63530	0.43493
2086.70674	0.43311
2084.77817	0.43120
2082.84961	0.42915
2080.92104	0.42703
2078.99248	0.42504
2077.06392	0.42317
2075.13535	0.42114
2073.20679	0.41891
2071.27822	0.41659
2069.34966	0.41423
2067.42109	0.41190
2065.49253	0.40968
2063.56396	0.40738
2061.63540	0.40490
2059.70684	0.40243
2057.77827	0.39990
2055.84971	0.39712
2053.92114	0.39424
2051.99258	0.39164
2050.06401	0.38931
2048.13545	0.38688
2046.20688	0.38420
2044.27832	0.38154
2042.34976	0.37897
2040.42119	0.37624
2038.49263	0.37334
2036.56406	0.37045
2034.63550	0.36763
2032.70693	0.36480
2030.77837	0.36198
2028.84980	0.35917
2026.92124	0.35645
2024.99268	0.35381
2023.06411	0.35109
2021.13555	0.34827
2019.20698	0.34557
2017.27842	0.34296
2015.34985	0.34008
2013.42129	0.33703
2011.49272	0.33417
2009.56416	0.33149
2007.63560	0.32880
2005.70703	0.32608
2003.77847	0.32340
2001.84990	0.32078
1999.92134	0.31820
1997.99277	0.31562
1996.06421	0.31312
1994.13564	0.31099
1992.20708	0.30895
1990.27852	0.30635
1988.34995	0.30343
1986.42139	0.30069
1984.49282	0.29814
1982.56426	0.29567
1980.63569	0.29331
1978.70713	0.29107
1976.77856	0.28888
1974.85000	0.28669
1972.92144	0.28451
1970.99287	0.28243
1969.06431	0.28065
1967.13574	0.27893
1965.20718	0.27677
1963.27861	0.27448
1961.35005	0.27247
1959.42148	0.27054
1957.49292	0.26875
1955.56436	0.26709
1953.63579	0.26531
1951.70723	0.26344
1949.77866	0.26181
1947.85010	0.26051
1945.92153	0.25942
1943.99297	0.25839
1942.06440	0.25708
1940.13584	0.25514
1938.20728	0.25319
1936.27871	0.25171
1934.35015	0.25044
1932.42158	0.24920
1930.49302	0.24790
1928.56445	0.24665
1926.63589	0.24570
1924.70732	0.24521
1922.77876	0.24476
1920.85020	0.24391
1918.92163	0.24310
1916.99307	0.24220
1915.06450	0.24074
1913.13594	0.23941
1911.20737	0.23887
1909.27881	0.23864
1907.35024	0.23794
1905.42168	0.23688
1903.49312	0.23604
1901.56455	0.23543
1899.63599	0.23492
1897.70742	0.23466
1895.77886	0.23459
1893.85029	0.23430
1891.92173	0.23396
1889.99316	0.23411
1888.06460	0.23399
1886.13604	0.23323
1884.20747	0.23265
1882.27891	0.23237
1880.35034	0.23221
1878.42178	0.23211
1876.49321	0.23205
1874.56465	0.23213
1872.63608	0.23266
1870.70752	0.23410
1868.77896	0.23606
1866.85039	0.23626
1864.92183	0.23476
1862.99326	0.23377
1861.06470	0.23368
1859.13613	0.23405
1857.20757	0.23446
1855.27900	0.23487
1853.35044	0.23530
1851.42187	0.23591
1849.49331	0.23690
1847.56475	0.23839
1845.63618	0.24021
1843.70762	0.24161
1841.77905	0.24152
1839.85049	0.24099
1837.92192	0.24145
1835.99336	0.24231
1834.06479	0.24316
1832.13623	0.24476
1830.20767	0.24742
1828.27910	0.24933
1826.35054	0.24993
1824.42197	0.25074
1822.49341	0.25134
1820.56484	0.25193
1818.63628	0.25317
1816.70771	0.25487
1814.77915	0.25657
1812.85059	0.25868
1810.92202	0.26133
1808.99346	0.26345
1807.06489	0.26489
1805.13633	0.26649
1803.20776	0.26911
1801.27920	0.27248
1799.35063	0.27563
1797.42207	0.27800
1795.49351	0.28065
1793.56494	0.28449
1791.63638	0.28878
1789.70781	0.29112
1787.77925	0.29239
1785.85068	0.29509
1783.92212	0.29890
1781.99355	0.30322
1780.06499	0.30777
1778.13643	0.31200
1776.20786	0.31625
1774.27930	0.32188
1772.35073	0.32935
1770.42217	0.33544
1768.49360	0.33915
1766.56504	0.34305
1764.63647	0.34801
1762.70791	0.35446
1760.77935	0.36243
1758.85078	0.36941
1756.92222	0.37646
1754.99365	0.38411
1753.06509	0.39154
1751.13652	0.40133
1749.20796	0.41317
1747.27939	0.42351
1745.35083	0.43213
1743.42227	0.44148
1741.49370	0.45202
1739.56514	0.46442
1737.63657	0.47684
1735.70801	0.48862
1733.77944	0.50663
1731.85088	0.52597
1729.92231	0.53979
1727.99375	0.55404
1726.06519	0.57026
1724.13662	0.58884
1722.20806	0.60942
1720.27949	0.62935
1718.35093	0.65346
1716.42236	0.68663
1714.49380	0.71537
1712.56523	0.73804
1710.63667	0.76102
1708.70811	0.78702
1706.77954	0.81739
1704.85098	0.85286
1702.92241	0.88375
1700.99385	0.91473
1699.06528	0.96017
1697.13672	1.00062
1695.20815	1.04037
1693.27959	1.07817
1691.35103	1.10907
1689.42246	1.14552
1687.49390	1.18419
1685.56533	1.22216
1683.63677	1.27831
1681.70820	1.33368
1679.77964	1.36922
1677.85107	1.40376
1675.92251	1.44404
1673.99395	1.49340
1672.06538	1.53743
1670.13682	1.58061
1668.20825	1.63352
1666.27969	1.67507
1664.35112	1.71049
1662.42256	1.75342
1660.49399	1.79976
1658.56543	1.83624
1656.63687	1.86757
1654.70830	1.89966
1652.77974	1.95233
1650.85117	2.00094
1648.92261	2.02134
1646.99404	2.05042
1645.06548	2.08421
1643.13691	2.10499
1641.20835	2.11749
1639.27979	2.12965
1637.35122	2.13862
1635.42266	2.14058
1633.49409	2.13426
1631.56553	2.12263
1629.63696	2.10929
1627.70840	2.08814
1625.77983	2.06260
1623.85127	2.02936
1621.92271	1.98692
1619.99414	1.94802
1618.06558	1.91065
1616.13701	1.85503
1614.20845	1.79457
1612.27988	1.74870
1610.35132	1.70228
1608.42275	1.65143
1606.49419	1.60071
1604.56562	1.55384
1602.63706	1.50843
1600.70850	1.46335
1598.77993	1.42123
1596.85137	1.38192
1594.92280	1.34424
1592.99424	1.30759
1591.06567	1.27321
1589.13711	1.24046
1587.20854	1.20971
1585.27998	1.18117
1583.35142	1.15419
1581.42285	1.12892
1579.49429	1.10730
1577.56572	1.08855
1575.63716	1.06425
1573.70859	1.03991
1571.78003	1.02339
1569.85146	1.00668
1567.92290	0.98651
1565.99434	0.96896
1564.06577	0.95384
1562.13721	0.94197
1560.20864	0.93373
1558.28008	0.91775
1556.35151	0.89762
1554.42295	0.88392
1552.49438	0.87186
1550.56582	0.86075
1548.63726	0.84970
1546.70869	0.84055
1544.78013	0.83395
1542.85156	0.82877
1540.92300	0.82251
1538.99443	0.80855
1537.06587	0.79533
1535.13730	0.78802
1533.20874	0.78092
1531.28018	0.77214
1529.35161	0.76530
1527.42305	0.76022
1525.49448	0.75536
1523.56592	0.75099
1521.63735	0.74620
1519.70879	0.73928
1517.78022	0.73271
1515.85166	0.72602
1513.92310	0.71930
1511.99453	0.71465
1510.06597	0.71231
1508.13740	0.71177
1506.20884	0.70741
1504.28027	0.69848
1502.35171	0.69280
1500.42314	0.68973
1498.49458	0.68762
1496.56602	0.68432
1494.63745	0.67974
1492.70889	0.67647
1490.78032	0.67513
1488.85176	0.67348
1486.92319	0.66939
1484.99463	0.66479
1483.06606	0.66144
1481.13750	0.65896
1479.20894	0.65670
1477.28037	0.65518
1475.35181	0.65462
1473.42324	0.65403
1471.49468	0.65099
1469.56611	0.64646
1467.63755	0.64345
1465.70898	0.64198
1463.78042	0.64025
1461.85186	0.63818
1459.92329	0.63783
1457.99473	0.63909
1456.06616	0.63763
1454.13760	0.63287
1452.20903	0.62907
1450.28047	0.62660
1448.35190	0.62495
1446.42334	0.62293
1444.49478	0.62049
1442.56621	0.61859
1440.63765	0.61735
1438.70908	0.61684
1436.78052	0.61659
1434.85195	0.61519
1432.92339	0.61336
1430.99482	0.61218
1429.06626	0.61079
1427.13770	0.60898
1425.20913	0.60782
1423.28057	0.60724
1421.35200	0.60681
1419.42344	0.60674
1417.49487	0.60543
1415.56631	0.60229
1413.63774	0.59948
1411.70918	0.59747
1409.78062	0.59567
1407.85205	0.59406
1405.92349	0.59280
1403.99492	0.59109
1402.06636	0.58909
1400.13779	0.58809
1398.20923	0.58773
1396.28066	0.58675
1394.35210	0.58470
1392.42354	0.58223
1390.49497	0.58064
1388.56641	0.58001
1386.63784	0.57911
1384.70928	0.57741
1382.78071	0.57604
1380.85215	0.57534
1378.92358	0.57481
1376.99502	0.57447
1375.06646	0.57454
1373.13789	0.57409
1371.20933	0.57286
1369.28076	0.57200
1367.35220	0.57153
1365.42363	0.57107
1363.49507	0.57075
1361.56650	0.56983
1359.63794	0.56794
1357.70937	0.56631
1355.78081	0.56523
1353.85225	0.56407
1351.92368	0.56273
1349.99512	0.56154
1348.06655	0.56047
1346.13799	0.55929
1344.20942	0.55808
1342.28086	0.55736
1340.35229	0.55722
1338.42373	0.55659
1336.49517	0.55484
1334.56660	0.55291
1332.63804	0.55156
1330.70947	0.55069
1328.78091	0.54994
1326.85234	0.54917
1324.92378	0.54846
1322.99521	0.54787
1321.06665	0.54741
1319.13809	0.54693
1317.20952	0.54620
1315.28096	0.54530
1313.35239	0.54441
1311.42383	0.54332
1309.49526	0.54202
1307.56670	0.54073
1305.63813	0.53952
1303.70957	0.53844
1301.78101	0.53752
1299.85244	0.53665
1297.92388	0.53573
1295.99531	0.53484
1294.06675	0.53399
1292.13818	0.53323
1290.20962	0.53266
1288.28105	0.53218
1286.35249	0.53160
1284.42393	0.53093
1282.49536	0.53027
1280.56680	0.52967
1278.63823	0.52918
1276.70967	0.52878
1274.78110	0.52838
1272.85254	0.52789
1270.92397	0.52738
1268.99541	0.52701
1267.06685	0.52677
1265.13828	0.52638
1263.20972	0.52588
1261.28115	0.52539
1259.35259	0.52485
1257.42402	0.52431
1255.49546	0.52387
1253.56689	0.52346
1251.63833	0.52300
1249.70977	0.52264
1247.78120	0.52240
1245.85264	0.52201
1243.92407	0.52148
1241.99551	0.52106
1240.06694	0.52059
1238.13838	0.51998
1236.20981	0.51942
1234.28125	0.51892
1232.35269	0.51837
1230.42412	0.51770
1228.49556	0.51690
1226.56699	0.51594
1224.63843	0.51489
1222.70986	0.51390
1220.78130	0.51313
1218.85273	0.51251
1216.92417	0.51197
1214.99561	0.51150
1213.06704	0.51093
1211.13848	0.51020
1209.20991	0.50957
1207.28135	0.50921
1205.35278	0.50884
1203.42422	0.50829
1201.49565	0.50776
1199.56709	0.50718
1197.63853	0.50640
1195.70996	0.50563
1193.78140	0.50501
1191.85283	0.50442
1189.92427	0.50383
1187.99570	0.50334
1186.06714	0.50294
1184.13857	0.50272
1182.21001	0.50277
1180.28145	0.50289
1178.35288	0.50304
1176.42432	0.50340
1174.49575	0.50399
1172.56719	0.50469
1170.63862	0.50547
1168.71006	0.50632
1166.78149	0.50727
1164.85293	0.50830
1162.92437	0.50941
1160.99580	0.51040
1159.06724	0.51105
1157.13867	0.51129
1155.21011	0.51105
1153.28154	0.51021
1151.35298	0.50884
1149.42441	0.50703
1147.49585	0.50482
1145.56729	0.50232
1143.63872	0.49979
1141.71016	0.49752
1139.78159	0.49554
1137.85303	0.49397
1135.92446	0.49295
1133.99590	0.49221
1132.06733	0.49149
1130.13877	0.49105
1128.21021	0.49110
1126.28164	0.49109
1124.35308	0.49064
1122.42451	0.49014
1120.49595	0.48998
1118.56738	0.49010
1116.63882	0.49036
1114.71025	0.49077
1112.78169	0.49136
1110.85312	0.49211
1108.92456	0.49295
1106.99600	0.49365
1105.06743	0.49414
1103.13887	0.49477
1101.21030	0.49570
1099.28174	0.49681
1097.35317	0.49824
1095.42461	0.50052
1093.49604	0.50417
1091.56748	0.50946
1089.63892	0.51639
1087.71035	0.52474
1085.78179	0.53401
1083.85322	0.54326
1081.92466	0.55142
1079.99609	0.55757
1078.06753	0.56068
1076.13896	0.56024
1074.21040	0.55691
1072.28184	0.55156
1070.35327	0.54466
1068.42471	0.53723
1066.49614	0.53028
1064.56758	0.52392
1062.63901	0.51835
1060.71045	0.51381
1058.78188	0.50998
1056.85332	0.50651
1054.92476	0.50344
1052.99619	0.50094
1051.06763	0.49919
1049.13906	0.49836
1047.21050	0.49847
1045.28193	0.49930
1043.35337	0.50049
1041.42480	0.50167
1039.49624	0.50268
1037.56768	0.50339
1035.63911	0.50346
1033.71055	0.50286
1031.78198	0.50174
1029.85342	0.50019
1027.92485	0.49826
1025.99629	0.49625
1024.06772	0.49467
1022.13916	0.49368
1020.21060	0.49308
1018.28203	0.49263
1016.35347	0.49218
1014.42490	0.49166
1012.49634	0.49110
1010.56777	0.49059
1008.63921	0.49039
1006.71064	0.49053
1004.78208	0.49101
1002.85352	0.49237
1000.92495	0.49483
998.99639	0.49809
997.06782	0.50210
995.13926	0.50656
993.21069	0.51064
991.28213	0.51366
989.35356	0.51539
987.42500	0.51591
985.49644	0.51568
983.56787	0.51546
981.63931	0.51578
979.71074	0.51658
977.78218	0.51786
975.85361	0.51987
973.92505	0.52248
971.99648	0.52539
970.06792	0.52882
968.13936	0.53285
966.21079	0.53708
964.28223	0.54142
962.35366	0.54602
960.42510	0.55087
958.49653	0.55617
956.56797	0.56196
954.63940	0.56788
952.71084	0.57397
950.78228	0.58036
948.85371	0.58670
946.92515	0.59290
944.99658	0.59922
943.06802	0.60581
941.13945	0.61240
939.21089	0.61836
937.28232	0.62388
935.35376	0.62955
933.42520	0.63546
931.49663	0.64122
929.56807	0.64649
927.63950	0.65217
925.71094	0.65888
923.78237	0.66585
921.85381	0.67244
919.92524	0.67872
917.99668	0.68521
916.06812	0.69214
914.13955	0.69936
912.21099	0.70696
910.28242	0.71491
908.35386	0.72322
906.42529	0.73182
904.49673	0.74021
902.56816	0.74884
900.63960	0.75893
898.71104	0.77003
896.78247	0.78066
894.85391	0.79067
892.92534	0.80073
890.99678	0.81080
889.06821	0.82084
887.13965	0.83151
885.21108	0.84243
883.28252	0.85253
881.35396	0.86248
879.42539	0.87362
877.49683	0.88588
875.56826	0.89779
873.63970	0.90854
871.71113	0.91933
869.78257	0.93070
867.85400	0.94222
865.92544	0.95433
863.99687	0.96619
862.06831	0.97743
860.13975	0.98960
858.21118	1.00212
856.28262	1.01292
854.35405	1.02242
852.42549	1.03304
850.49692	1.04581
848.56836	1.05910
846.63979	1.07127
844.71123	1.08136
842.78267	1.08976
840.85410	1.10036
838.92554	1.11393
836.99697	1.12575
835.06841	1.13343
833.13984	1.14100
831.21128	1.15245
829.28271	1.16287
827.35415	1.17096
825.42559	1.18313
823.49702	1.19381
821.56846	1.19764
819.63989	1.20400
817.71133	1.21134
815.78276	1.21681
813.85420	1.23485
811.92563	1.26475
809.99707	1.28551
808.06851	1.29266
806.13994	1.29943
804.21138	1.31401
802.28281	1.33213
800.35425	1.32311
798.42568	1.27648
796.49712	1.24336
794.56855	1.23972
792.63999	1.23484
790.71143	1.24734
788.78286	1.28442
786.85430	1.29257
784.92573	1.29609
782.99717	1.33468
781.06860	1.36894
779.14004	1.33797
777.21147	1.28644
775.28291	1.27459
773.35435	1.25306
771.42578	1.20799
769.49722	1.18003
767.56865	1.15232
765.64009	1.13133
763.71152	1.16809
761.78296	1.22390
759.85439	1.18256
757.92583	1.10693
755.99727	1.10169
754.06870	1.15782
752.14014	1.19014
750.21157	1.15616
748.28301	1.06075
746.35444	0.95477
744.42588	0.87992
742.49731	0.84518
740.56875	0.85112
738.64019	0.83040
736.71162	0.72574
734.78306	0.61415
732.85449	0.54279
730.92593	0.49777
728.99736	0.47518
727.06880	0.45006
725.14023	0.38997
723.21167	0.33688
721.28311	0.33097
719.35454	0.29448
717.42598	0.22956
715.49741	0.26647
713.56885	0.42388
711.64028	0.48106
709.71172	0.31557
707.78315	0.18215
705.85459	0.04064
703.92603	-0.03672
701.99746	-0.01106
700.06890	0.03109
698.14033	0.03556
696.21177	-0.00455
694.28320	-0.03233
692.35464	-0.01639
690.42607	0.03396
688.49751	0.11511
686.56895	0.19941
684.64038	0.18973
682.71182	0.09101
680.78325	0.06494
678.85469	0.12778
676.92612	0.16119
674.99756	0.10545
673.06899	0.12630
671.14043	0.11233
669.21187	0.01126
667.28330	-0.01064
665.35474	0.11729
663.42617	0.25928
661.49761	0.31530
659.56904	0.29153
657.64048	0.18708
655.71191	0.06906
653.78335	-0.00511
651.85479	0.00215
649.92622	0.08604
647.99766	0.16477
646.06909	0.17618
644.14053	0.23137
642.21196	0.31760
640.28340	0.30624
638.35483	0.23751
636.42627	0.15295
634.49771	0.09808
632.56914	0.07043
630.64058	0.05065
628.71201	0.06562
626.78345	0.15357
624.85488	0.28147
622.92632	0.27835
620.99775	0.18101
619.06919	0.15980
617.14062	0.21063
615.21206	0.24187
613.28350	0.18150
611.35493	0.17065
609.42637	0.22470
607.49780	0.20656
605.56924	0.10344
603.64067	0.04859
601.71211	0.07599
599.78354	0.08876
597.85498	0.06333
595.92642	0.04870
593.99785	0.07622
592.06929	0.11578
590.14072	0.13639
588.21216	0.13433
586.28359	0.09194
584.35503	0.01300
582.42646	0.02118
580.49790	0.16996
578.56934	0.27245
576.64077	0.20437
574.71221	0.11447
572.78364	0.08842
570.85508	0.06699
568.92651	0.04324
566.99795	0.12486
565.06938	0.27183
563.14082	0.27448
561.21226	0.20350
559.28369	0.11592
557.35513	0.07645
555.42656	0.10206
553.49800	0.08475
551.56943	0.05951
549.64087	0.11159
547.71230	0.18267
545.78374	0.11188
543.85518	0.00135
541.92661	-0.05767
539.99805	-0.01222
538.06948	0.09581
536.14092	0.19949
534.21235	0.25311
532.28379	0.22966
530.35522	0.19834
528.42666	0.17690
526.49810	0.14642
524.56953	0.10136
522.64097	0.06017
520.71240	0.03437
518.78384	0.03127
516.85527	0.07250
514.92671	0.11010
512.99814	0.08696
511.06958	0.07764
509.14102	0.08119
507.21245	0.04576
505.28389	0.01920
503.35532	0.04617
501.42676	0.10037
499.49819	0.13830
