3997.91411	0.07665
3995.98555	0.07734
3994.05698	0.07805
3992.12842	0.07837
3990.19985	0.07845
3988.27129	0.07846
3986.34272	0.07833
3984.41416	0.07828
3982.48560	0.07848
3980.55703	0.07896
3978.62847	0.07970
3976.69990	0.08043
3974.77134	0.08057
3972.84277	0.08012
3970.91421	0.07990
3968.98564	0.08016
3967.05708	0.08028
3965.12852	0.08023
3963.19995	0.08048
3961.27139	0.08093
3959.34282	0.08128
3957.41426	0.08161
3955.48569	0.08186
3953.55713	0.08212
3951.62856	0.08281
3949.70000	0.08367
3947.77144	0.08368
3945.84287	0.08293
3943.91431	0.08281
3941.98574	0.08321
3940.05718	0.08295
3938.12861	0.08225
3936.20005	0.08161
3934.27148	0.08151
3932.34292	0.08226
3930.41436	0.08289
3928.48579	0.08262
3926.55723	0.08241
3924.62866	0.08305
3922.70010	0.08372
3920.77153	0.08357
3918.84297	0.08333
3916.91440	0.08310
3914.98584	0.08199
3913.05728	0.08062
3911.12871	0.08025
3909.20015	0.08075
3907.27158	0.08189
3905.34302	0.08421
3903.41445	0.08721
3901.48589	0.08856
3899.55732	0.08744
3897.62876	0.08503
3895.70020	0.08282
3893.77163	0.08227
3891.84307	0.08353
3889.91450	0.08410
3887.98594	0.08265
3886.05737	0.08223
3884.12881	0.08380
3882.20024	0.08504
3880.27168	0.08546
3878.34312	0.08479
3876.41455	0.08370
3874.48599	0.08441
3872.55742	0.08621
3870.62886	0.08727
3868.70029	0.08763
3866.77173	0.08740
3864.84316	0.08769
3862.91460	0.08833
3860.98604	0.08749
3859.05747	0.08636
3857.12891	0.08699
3855.20034	0.08984
3853.27178	0.09464
3851.34321	0.09613
3849.41465	0.09191
3847.48608	0.08846
3845.55752	0.08786
3843.62896	0.08957
3841.70039	0.09242
3839.77183	0.09551
3837.84326	0.09795
3835.91470	0.09804
3833.98613	0.09642
3832.05757	0.09497
3830.12900	0.09392
3828.20044	0.09352
3826.27187	0.09444
3824.34331	0.09614
3822.41475	0.09858
3820.48618	0.10234
3818.55762	0.10438
3816.62905	0.10421
3814.70049	0.10336
3812.77192	0.10108
3810.84336	0.09949
3808.91479	0.10063
3806.98623	0.10412
3805.05767	0.10727
3803.12910	0.10947
3801.20054	0.11257
3799.27197	0.11381
3797.34341	0.11236
3795.41484	0.11141
3793.48628	0.11093
3791.55771	0.11065
3789.62915	0.11119
3787.70059	0.11265
3785.77202	0.11470
3783.84346	0.11657
3781.91489	0.11795
3779.98633	0.12001
3778.05776	0.12246
3776.12920	0.12324
3774.20063	0.12357
3772.27207	0.12546
3770.34351	0.12885
3768.41494	0.13202
3766.48638	0.13369
3764.55781	0.13502
3762.62925	0.13624
3760.70068	0.13799
3758.77212	0.14137
3756.84355	0.14490
3754.91499	0.14752
3752.98643	0.15131
3751.05786	0.15760
3749.12930	0.16324
3747.20073	0.16480
3745.27217	0.16585
3743.34360	0.16833
3741.41504	0.17004
3739.48647	0.17168
3737.55791	0.17581
3735.62935	0.18329
3733.70078	0.19083
3731.77222	0.19427
3729.84365	0.19595
3727.91509	0.19880
3725.98652	0.20413
3724.05796	0.21089
3722.12939	0.21712
3720.20083	0.22311
3718.27227	0.22936
3716.34370	0.23588
3714.41514	0.24341
3712.48657	0.25434
3710.55801	0.26910
3708.62944	0.28144
3706.70088	0.29028
3704.77231	0.30006
3702.84375	0.31286
3700.91519	0.32953
3698.98662	0.34701
3697.05806	0.36341
3695.12949	0.38138
3693.20093	0.40134
3691.27236	0.42431
3689.34380	0.45385
3687.41523	0.48694
3685.48667	0.51426
3683.55811	0.53844
3681.62954	0.56568
3679.70098	0.59741
3677.77241	0.63154
3675.84385	0.67212
3673.91528	0.72452
3671.98672	0.76667
3670.05815	0.80481
3668.12959	0.85550
3666.20103	0.90071
3664.27246	0.93923
3662.34390	0.98165
3660.41533	1.02826
3658.48677	1.07439
3656.55820	1.12291
3654.62964	1.17722
3652.70107	1.22435
3650.77251	1.26672
3648.84395	1.32432
3646.91538	1.39138
3644.98682	1.43846
3643.05825	1.47432
3641.12969	1.51192
3639.20112	1.55445
3637.27256	1.59813
3635.34399	1.64127
3633.41543	1.68510
3631.48687	1.72667
3629.55830	1.76949
3627.62974	1.82433
3625.70117	1.87254
3623.77261	1.90376
3621.84404	1.93447
3619.91548	1.97136
3617.98691	2.01653
3616.05835	2.06038
3614.12979	2.09907
3612.20122	2.14021
3610.27266	2.17965
3608.34409	2.21833
3606.41553	2.25993
3604.48696	2.29876
3602.55840	2.33475
3600.62983	2.37431
3598.70127	2.41494
3596.77271	2.45255
3594.84414	2.49150
3592.91558	2.53361
3590.98701	2.57397
3589.05845	2.61081
3587.12988	2.65243
3585.20132	2.69829
3583.27275	2.74018
3581.34419	2.77944
3579.41562	2.81955
3577.48706	2.86165
3575.55850	2.90472
3573.62993	2.94802
3571.70137	2.98905
3569.77280	3.02932
3567.84424	3.07413
3565.91567	3.12623
3563.98711	3.17443
3562.05854	3.21603
3560.12998	3.25919
3558.20142	3.30373
3556.27285	3.34795
3554.34429	3.39190
3552.41572	3.43771
3550.48716	3.48532
3548.55859	3.53309
3546.63003	3.57980
3544.70146	3.62578
3542.77290	3.67180
3540.84434	3.71845
3538.91577	3.76604
3536.98721	3.81381
3535.05864	3.86368
3533.13008	3.91313
3531.20151	3.96017
3529.27295	4.00840
3527.34438	4.05792
3525.41582	4.10440
3523.48726	4.15210
3521.55869	4.20405
3519.63013	4.25256
3517.70156	4.29974
3515.77300	4.34974
3513.84443	4.39802
3511.91587	4.44577
3509.98730	4.50003
3508.05874	4.55462
3506.13018	4.59876
3504.20161	4.63902
3502.27305	4.68684
3500.34448	4.74266
3498.41592	4.79885
3496.48735	4.84927
3494.55879	4.89250
3492.63022	4.93637
3490.70166	4.98864
3488.77310	5.04091
3486.84453	5.08329
3484.91597	5.12919
3482.98740	5.19001
3481.05884	5.25140
3479.13027	5.29513
3477.20171	5.32796
3475.27314	5.37100
3473.34458	5.42692
3471.41602	5.48533
3469.48745	5.54323
3467.55889	5.59784
3465.63032	5.64486
3463.70176	5.69069
3461.77319	5.74351
3459.84463	5.80039
3457.91606	5.85171
3455.98750	5.90251
3454.05894	5.95596
3452.13037	6.00341
3450.20181	6.05086
3448.27324	6.09540
3446.34468	6.12631
3444.41611	6.16068
3442.48755	6.21816
3440.55898	6.29008
3438.63042	6.37669
3436.70186	6.46765
3434.77329	6.51347
3432.84473	6.51941
3430.91616	6.55403
3428.98760	6.62569
3427.05903	6.68443
3425.13047	6.73515
3423.20190	6.79563
3421.27334	6.84860
3419.34478	6.88236
3417.41621	6.91939
3415.48765	6.97718
3413.55908	7.04367
3411.63052	7.12838
3409.70195	7.21169
3407.77339	7.26281
3405.84482	7.30657
3403.91626	7.37691
3401.98770	7.46555
3400.05913	7.53467
3398.13057	7.54201
3396.20200	7.50971
3394.27344	7.51248
3392.34487	7.56284
3390.41631	7.63003
3388.48774	7.66870
3386.55918	7.71548
3384.63062	7.81489
3382.70205	7.89223
3380.77349	7.87044
3378.84492	7.80343
3376.91636	7.82919
3374.98779	7.99134
3373.05923	8.13861
3371.13066	8.10189
3369.20210	8.03071
3367.27354	8.06217
3365.34497	8.13521
3363.41641	8.15793
3361.48784	8.13873
3359.55928	8.14850
3357.63071	8.14224
3355.70215	8.10347
3353.77358	8.12861
3351.84502	8.26055
3349.91646	8.38938
3347.98789	8.42296
3346.05933	8.39022
3344.13076	8.32951
3342.20220	8.28275
3340.27363	8.27502
3338.34507	8.28426
3336.41650	8.24178
3334.48794	8.22348
3332.55937	8.29067
3330.63081	8.31337
3328.70225	8.27203
3326.77368	8.33476
3324.84512	8.48142
3322.91655	8.51388
3320.98799	8.42586
3319.05942	8.34563
3317.13086	8.41911
3315.20229	8.60878
3313.27373	8.67090
3311.34517	8.60028
3309.41660	8.60056
3307.48804	8.66920
3305.55947	8.63505
3303.63091	8.52840
3301.70234	8.50920
3299.77378	8.58549
3297.84521	8.64849
3295.91665	8.69961
3293.98809	8.72100
3292.05952	8.67365
3290.13096	8.68328
3288.20239	8.77907
3286.27383	8.79449
3284.34526	8.72163
3282.41670	8.69403
3280.48813	8.62751
3278.55957	8.55514
3276.63101	8.60710
3274.70244	8.67551
3272.77388	8.59292
3270.84531	8.45072
3268.91675	8.45564
3266.98818	8.57999
3265.05962	8.64937
3263.13105	8.68021
3261.20249	8.74317
3259.27393	8.70176
3257.34536	8.53701
3255.41680	8.49099
3253.48823	8.65157
3251.55967	8.83522
3249.63110	8.88927
3247.70254	8.82757
3245.77397	8.69768
3243.84541	8.62544
3241.91685	8.63301
3239.98828	8.61860
3238.05972	8.56515
3236.13115	8.57041
3234.20259	8.63921
3232.27402	8.70935
3230.34546	8.72617
3228.41689	8.61011
3226.48833	8.49155
3224.55977	8.49300
3222.63120	8.50834
3220.70264	8.47038
3218.77407	8.44502
3216.84551	8.45673
3214.91694	8.50658
3212.98838	8.52534
3211.05981	8.51031
3209.13125	8.59813
3207.20269	8.68740
3205.27412	8.53628
3203.34556	8.25852
3201.41699	8.08485
3199.48843	8.05714
3197.55986	8.12212
3195.63130	8.18146
3193.70273	8.12829
3191.77417	8.00587
3189.84561	7.88723
3187.91704	7.77890
3185.98848	7.69054
3184.05991	7.60941
3182.13135	7.53306
3180.20278	7.49910
3178.27422	7.48156
3176.34565	7.43197
3174.41709	7.36576
3172.48853	7.29699
3170.55996	7.22660
3168.63140	7.16792
3166.70283	7.12932
3164.77427	7.08288
3162.84570	6.99613
3160.91714	6.88713
3158.98857	6.79008
3157.06001	6.72084
3155.13145	6.68092
3153.20288	6.64597
3151.27432	6.58954
3149.34575	6.51926
3147.41719	6.44162
3145.48862	6.33960
3143.56006	6.22213
3141.63149	6.12942
3139.70293	6.07106
3137.77437	6.02232
3135.84580	5.96379
3133.91724	5.89604
3131.98867	5.82035
3130.06011	5.73890
3128.13154	5.66779
3126.20298	5.60434
3124.27441	5.53339
3122.34585	5.45773
3120.41729	5.37973
3118.48872	5.29882
3116.56016	5.21918
3114.63159	5.14126
3112.70303	5.06682
3110.77446	4.99710
3108.84590	4.92810
3106.91733	4.85565
3104.98877	4.78033
3103.06021	4.70954
3101.13164	4.64413
3099.20308	4.57847
3097.27451	4.51306
3095.34595	4.44706
3093.41738	4.37668
3091.48882	4.30576
3089.56025	4.23964
3087.63169	4.17548
3085.70312	4.11139
3083.77456	4.04904
3081.84600	3.98587
3079.91743	3.92058
3077.98887	3.85616
3076.06030	3.79502
3074.13174	3.73847
3072.20317	3.68385
3070.27461	3.62636
3068.34604	3.56601
3066.41748	3.50445
3064.48892	3.44417
3062.56035	3.38960
3060.63179	3.33928
3058.70322	3.28613
3056.77466	3.22844
3054.84609	3.17120
3052.91753	3.11767
3050.98896	3.06668
3049.06040	3.01631
3047.13184	2.96565
3045.20327	2.91475
3043.27471	2.86430
3041.34614	2.81503
3039.41758	2.76761
3037.48901	2.72120
3035.56045	2.67431
3033.63188	2.62730
3031.70332	2.58142
3029.77476	2.53623
3027.84619	2.49090
3025.91763	2.44650
3023.98906	2.40405
3022.06050	2.36304
3020.13193	2.32265
3018.20337	2.28206
3016.27480	2.24081
3014.34624	2.20037
3012.41768	2.16230
3010.48911	2.12545
3008.56055	2.08846
3006.63198	2.05134
3004.70342	2.01444
3002.77485	1.97832
3000.84629	1.94316
2998.91772	1.90898
2996.98916	1.87579
2995.06060	1.84316
2993.13203	1.81067
2991.20347	1.77868
2989.27490	1.74778
2987.34634	1.71808
2985.41777	1.68928
2983.48921	1.66054
2981.56064	1.63116
2979.63208	1.60202
2977.70352	1.57420
2975.77495	1.54743
2973.84639	1.52117
2971.91782	1.49550
2969.98926	1.47049
2968.06069	1.44570
2966.13213	1.42105
2964.20356	1.39681
2962.27500	1.37273
2960.34644	1.34840
2958.41787	1.32429
2956.48931	1.30085
2954.56074	1.27777
2952.63218	1.25470
2950.70361	1.23159
2948.77505	1.20884
2946.84648	1.18707
2944.91792	1.16658
2942.98936	1.14670
2941.06079	1.12673
2939.13223	1.10705
2937.20366	1.08776
2935.27510	1.06834
2933.34653	1.04890
2931.41797	1.03028
2929.48940	1.01268
2927.56084	0.99497
2925.63228	0.97660
2923.70371	0.95855
2921.77515	0.94141
2919.84658	0.92483
2917.91802	0.90845
2915.98945	0.89151
2914.06089	0.87387
2912.13232	0.85686
2910.20376	0.84108
2908.27520	0.82566
2906.34663	0.81046
2904.41807	0.79617
2902.48950	0.78296
2900.56094	0.77017
2898.63237	0.75708
2896.70381	0.74392
2894.77524	0.73115
2892.84668	0.71873
2890.91812	0.70659
2888.98955	0.69494
2887.06099	0.68385
2885.13242	0.67321
2883.20386	0.66288
2881.27529	0.65276
2879.34673	0.64275
2877.41816	0.63265
2875.48960	0.62250
2873.56104	0.61267
2871.63247	0.60293
2869.70391	0.59252
2867.77534	0.58159
2865.84678	0.57087
2863.91821	0.56062
2861.98965	0.55067
2860.06108	0.54077
2858.13252	0.53103
2856.20396	0.52175
2854.27539	0.51296
2852.34683	0.50445
2850.41826	0.49638
2848.48970	0.48845
2846.56113	0.48011
2844.63257	0.47181
2842.70400	0.46427
2840.77544	0.45770
2838.84687	0.45166
2836.91831	0.44533
2834.98975	0.43869
2833.06118	0.43230
2831.13262	0.42626
2829.20405	0.42033
2827.27549	0.41455
2825.34692	0.40891
2823.41836	0.40311
2821.48979	0.39718
2819.56123	0.39137
2817.63267	0.38573
2815.70410	0.38025
2813.77554	0.37495
2811.84697	0.36958
2809.91841	0.36410
2807.98984	0.35889
2806.06128	0.35392
2804.13271	0.34895
2802.20415	0.34412
2800.27559	0.33949
2798.34702	0.33474
2796.41846	0.32988
2794.48989	0.32522
2792.56133	0.32074
2790.63276	0.31631
2788.70420	0.31198
2786.77563	0.30774
2784.84707	0.30354
2782.91851	0.29944
2780.98994	0.29556
2779.06138	0.29184
2777.13281	0.28816
2775.20425	0.28454
2773.27568	0.28095
2771.34712	0.27729
2769.41855	0.27361
2767.48999	0.27003
2765.56143	0.26659
2763.63286	0.26337
2761.70430	0.26020
2759.77573	0.25687
2757.84717	0.25371
2755.91860	0.25097
2753.99004	0.24820
2752.06147	0.24517
2750.13291	0.24226
2748.20435	0.23975
2746.27578	0.23733
2744.34722	0.23460
2742.41865	0.23165
2740.49009	0.22891
2738.56152	0.22650
2736.63296	0.22421
2734.70439	0.22186
2732.77583	0.21941
2730.84727	0.21707
2728.91870	0.21500
2726.99014	0.21301
2725.06157	0.21100
2723.13301	0.20906
2721.20444	0.20721
2719.27588	0.20534
2717.34731	0.20337
2715.41875	0.20143
2713.49019	0.19959
2711.56162	0.19777
2709.63306	0.19602
2707.70449	0.19435
2705.77593	0.19256
2703.84736	0.19090
2701.91880	0.18966
2699.99023	0.18861
2698.06167	0.18735
2696.13311	0.18583
2694.20454	0.18434
2692.27598	0.18304
2690.34741	0.18179
2688.41885	0.18047
2686.49028	0.17913
2684.56172	0.17788
2682.63315	0.17679
2680.70459	0.17564
2678.77603	0.17446
2676.84746	0.17346
2674.91890	0.17248
2672.99033	0.17133
2671.06177	0.17016
2669.13320	0.16900
2667.20464	0.16787
2665.27607	0.16698
2663.34751	0.16625
2661.41895	0.16551
2659.49038	0.16477
2657.56182	0.16405
2655.63325	0.16334
2653.70469	0.16278
2651.77612	0.16225
2649.84756	0.16163
2647.91899	0.16105
2645.99043	0.16045
2644.06187	0.15963
2642.13330	0.15887
2640.20474	0.15846
2638.27617	0.15813
2636.34761	0.15760
2634.41904	0.15699
2632.49048	0.15656
2630.56191	0.15638
2628.63335	0.15620
2626.70479	0.15586
2624.77622	0.15549
2622.84766	0.15521
2620.91909	0.15496
2618.99053	0.15469
2617.06196	0.15446
2615.13340	0.15441
2613.20483	0.15444
2611.27627	0.15431
2609.34771	0.15411
2607.41914	0.15400
2605.49058	0.15393
2603.56201	0.15378
2601.63345	0.15369
2599.70488	0.15380
2597.77632	0.15403
2595.84775	0.15422
2593.91919	0.15416
2591.99062	0.15401
2590.06206	0.15412
2588.13350	0.15440
2586.20493	0.15482
2584.27637	0.15536
2582.34780	0.15570
2580.41924	0.15576
2578.49067	0.15583
2576.56211	0.15616
2574.63354	0.15657
2572.70498	0.15688
2570.77642	0.15718
2568.84785	0.15759
2566.91929	0.15803
2564.99072	0.15838
2563.06216	0.15874
2561.13359	0.15911
2559.20503	0.15946
2557.27646	0.15983
2555.34790	0.16032
2553.41934	0.16106
2551.49077	0.16193
2549.56221	0.16261
2547.63364	0.16310
2545.70508	0.16363
2543.77651	0.16417
2541.84795	0.16466
2539.91938	0.16521
2537.99082	0.16590
2536.06226	0.16676
2534.13369	0.16766
2532.20513	0.16829
2530.27656	0.16864
2528.34800	0.16907
2526.41943	0.16980
2524.49087	0.17063
2522.56230	0.17136
2520.63374	0.17206
2518.70518	0.17277
2516.77661	0.17346
2514.84805	0.17419
2512.91948	0.17506
2510.99092	0.17601
2509.06235	0.17689
2507.13379	0.17767
2505.20522	0.17840
2503.27666	0.17912
2501.34810	0.17988
2499.41953	0.18073
2497.49097	0.18158
2495.56240	0.18258
2493.63384	0.18366
2491.70527	0.18455
2489.77671	0.18531
2487.84814	0.18615
2485.91958	0.18703
2483.99102	0.18787
2482.06245	0.18865
2480.13389	0.18947
2478.20532	0.19039
2476.27676	0.19135
2474.34819	0.19219
2472.41963	0.19296
2470.49106	0.19374
2468.56250	0.19457
2466.63394	0.19548
2464.70537	0.19654
2462.77681	0.19770
2460.84824	0.19883
2458.91968	0.19984
2456.99111	0.20085
2455.06255	0.20188
2453.13398	0.20281
2451.20542	0.20369
2449.27686	0.20453
2447.34829	0.20530
2445.41973	0.20616
2443.49116	0.20718
2441.56260	0.20826
2439.63403	0.20933
2437.70547	0.21039
2435.77690	0.21153
2433.84834	0.21266
2431.91978	0.21366
2429.99121	0.21468
2428.06265	0.21579
2426.13408	0.21692
2424.20552	0.21805
2422.27695	0.21909
2420.34839	0.22006
2418.41982	0.22109
2416.49126	0.22219
2414.56270	0.22335
2412.63413	0.22449
2410.70557	0.22558
2408.77700	0.22674
2406.84844	0.22808
2404.91987	0.22948
2402.99131	0.23070
2401.06274	0.23184
2399.13418	0.23305
2397.20562	0.23427
2395.27705	0.23550
2393.34849	0.23672
2391.41992	0.23792
2389.49136	0.23917
2387.56279	0.24057
2385.63423	0.24221
2383.70566	0.24422
2381.77710	0.24669
2379.84854	0.24953
2377.91997	0.25264
2375.99141	0.25608
2374.06284	0.26018
2372.13428	0.26505
2370.20571	0.27030
2368.27715	0.27532
2366.34858	0.28048
2364.42002	0.28615
2362.49146	0.29079
2360.56289	0.29316
2358.63433	0.29365
2356.70576	0.29312
2354.77720	0.29170
2352.84863	0.28909
2350.92007	0.28601
2348.99150	0.28427
2347.06294	0.28498
2345.13437	0.28853
2343.20581	0.29384
2341.27725	0.29819
2339.34868	0.30059
2337.42012	0.30175
2335.49155	0.30251
2333.56299	0.30313
2331.63442	0.30367
2329.70586	0.30415
2327.77729	0.30474
2325.84873	0.30528
2323.92017	0.30563
2321.99160	0.30589
2320.06304	0.30599
2318.13447	0.30605
2316.20591	0.30629
2314.27734	0.30677
2312.34878	0.30768
2310.42021	0.30904
2308.49165	0.31039
2306.56309	0.31134
2304.63452	0.31205
2302.70596	0.31294
2300.77739	0.31427
2298.84883	0.31582
2296.92026	0.31730
2294.99170	0.31879
2293.06313	0.32038
2291.13457	0.32192
2289.20601	0.32348
2287.27744	0.32518
2285.34888	0.32699
2283.42031	0.32885
2281.49175	0.33084
2279.56318	0.33296
2277.63462	0.33499
2275.70605	0.33690
2273.77749	0.33891
2271.84893	0.34107
2269.92036	0.34322
2267.99180	0.34539
2266.06323	0.34742
2264.13467	0.34924
2262.20610	0.35122
2260.27754	0.35338
2258.34897	0.35549
2256.42041	0.35751
2254.49185	0.35952
2252.56328	0.36162
2250.63472	0.36381
2248.70615	0.36592
2246.77759	0.36799
2244.84902	0.37022
2242.92046	0.37253
2240.99189	0.37481
2239.06333	0.37704
2237.13477	0.37920
2235.20620	0.38132
2233.27764	0.38342
2231.34907	0.38558
2229.42051	0.38781
2227.49194	0.39004
2225.56338	0.39228
2223.63481	0.39455
2221.70625	0.39674
2219.77769	0.39889
2217.84912	0.40101
2215.92056	0.40304
2213.99199	0.40514
2212.06343	0.40741
2210.13486	0.40969
2208.20630	0.41182
2206.27773	0.41383
2204.34917	0.41586
2202.42061	0.41797
2200.49204	0.42011
2198.56348	0.42216
2196.63491	0.42405
2194.70635	0.42590
2192.77778	0.42776
2190.84922	0.42965
2188.92065	0.43158
2186.99209	0.43350
2185.06353	0.43529
2183.13496	0.43698
2181.20640	0.43867
2179.27783	0.44026
2177.34927	0.44177
2175.42070	0.44334
2173.49214	0.44491
2171.56357	0.44630
2169.63501	0.44760
2167.70645	0.44888
2165.77788	0.45005
2163.84932	0.45117
2161.92075	0.45228
2159.99219	0.45340
2158.06362	0.45448
2156.13506	0.45545
2154.20649	0.45631
2152.27793	0.45709
2150.34937	0.45774
2148.42080	0.45829
2146.49224	0.45880
2144.56367	0.45928
2142.63511	0.45976
2140.70654	0.46021
2138.77798	0.46056
2136.84941	0.46073
2134.92085	0.46068
2132.99229	0.46052
2131.06372	0.46041
2129.13516	0.46023
2127.20659	0.45992
2125.27803	0.45958
2123.34946	0.45922
2121.42090	0.45876
2119.49233	0.45815
2117.56377	0.45744
2115.63521	0.45664
2113.70664	0.45585
2111.77808	0.45512
2109.84951	0.45420
2107.92095	0.45295
2105.99238	0.45156
2104.06382	0.45026
2102.13525	0.44899
2100.20669	0.44775
2098.27812	0.44646
2096.34956	0.44504
2094.42100	0.44350
2092.49243	0.44191
2090.56387	0.44024
2088.63530	0.43832
2086.70674	0.43618
2084.77817	0.43412
2082.84961	0.43228
2080.92104	0.43040
2078.99248	0.42842
2077.06392	0.42639
2075.13535	0.42425
2073.20679	0.42204
2071.27822	0.41977
2069.34966	0.41738
2067.42109	0.41498
2065.49253	0.41262
2063.56396	0.41021
2061.63540	0.40783
2059.70684	0.40545
2057.77827	0.40294
2055.84971	0.40029
2053.92114	0.39756
2051.99258	0.39502
2050.06401	0.39259
2048.13545	0.39001
2046.20688	0.38726
2044.27832	0.38458
2042.34976	0.38202
2040.42119	0.37930
2038.49263	0.37638
2036.56406	0.37357
2034.63550	0.37084
2032.70693	0.36801
2030.77837	0.36512
2028.84980	0.36228
2026.92124	0.35952
2024.99268	0.35682
2023.06411	0.35414
2021.13555	0.35143
2019.20698	0.34879
2017.27842	0.34612
2015.34985	0.34319
2013.42129	0.34019
2011.49272	0.33742
2009.56416	0.33483
2007.63560	0.33217
2005.70703	0.32944
2003.77847	0.32673
2001.84990	0.32399
1999.92134	0.32129
1997.99277	0.31865
1996.06421	0.31620
1994.13564	0.31408
1992.20708	0.31196
1990.27852	0.30939
1988.34995	0.30662
1986.42139	0.30398
1984.49282	0.30141
1982.56426	0.29896
1980.63569	0.29669
1978.70713	0.29455
1976.77856	0.29237
1974.85000	0.29008
1972.92144	0.28779
1970.99287	0.28566
1969.06431	0.28381
1967.13574	0.28205
1965.20718	0.28000
1963.27861	0.27788
1961.35005	0.27589
1959.42148	0.27394
1957.49292	0.27212
1955.56436	0.27042
1953.63579	0.26867
1951.70723	0.26692
1949.77866	0.26529
1947.85010	0.26378
1945.92153	0.26241
1943.99297	0.26111
1942.06440	0.25966
1940.13584	0.25791
1938.20728	0.25619
1936.27871	0.25484
1934.35015	0.25370
1932.42158	0.25256
1930.49302	0.25132
1928.56445	0.25010
1926.63589	0.24905
1924.70732	0.24826
1922.77876	0.24754
1920.85020	0.24666
1918.92163	0.24585
1916.99307	0.24504
1915.06450	0.24387
1913.13594	0.24272
1911.20737	0.24214
1909.27881	0.24176
1907.35024	0.24103
1905.42168	0.24010
1903.49312	0.23938
1901.56455	0.23890
1899.63599	0.23850
1897.70742	0.23821
1895.77886	0.23793
1893.85029	0.23750
1891.92173	0.23703
1889.99316	0.23692
1888.06460	0.23675
1886.13604	0.23632
1884.20747	0.23603
1882.27891	0.23585
1880.35034	0.23565
1878.42178	0.23554
1876.49321	0.23560
1874.56465	0.23570
1872.63608	0.23588
1870.70752	0.23643
1868.77896	0.23743
1866.85039	0.23783
1864.92183	0.23730
1862.99326	0.23687
1861.06470	0.23693
1859.13613	0.23730
1857.20757	0.23765
1855.27900	0.23805
1853.35044	0.23852
1851.42187	0.23907
1849.49331	0.23985
1847.56475	0.24093
1845.63618	0.24220
1843.70762	0.24336
1841.77905	0.24381
1839.85049	0.24390
1837.92192	0.24451
1835.99336	0.24537
1834.06479	0.24623
1832.13623	0.24751
1830.20767	0.24948
1828.27910	0.25109
1826.35054	0.25188
1824.42197	0.25291
1822.49341	0.25397
1820.56484	0.25500
1818.63628	0.25628
1816.70771	0.25782
1814.77915	0.25937
1812.85059	0.26127
1810.92202	0.26363
1808.99346	0.26575
1807.06489	0.26746
1805.13633	0.26923
1803.20776	0.27163
1801.27920	0.27457
1799.35063	0.27757
1797.42207	0.28000
1795.49351	0.28245
1793.56494	0.28565
1791.63638	0.28951
1789.70781	0.29248
1787.77925	0.29451
1785.85068	0.29736
1783.92212	0.30102
1781.99355	0.30512
1780.06499	0.30948
1778.13643	0.31379
1776.20786	0.31801
1774.27930	0.32297
1772.35073	0.32956
1770.42217	0.33575
1768.49360	0.34032
1766.56504	0.34483
1764.63647	0.34986
1762.70791	0.35588
1760.77935	0.36356
1758.85078	0.37067
1756.92222	0.37777
1754.99365	0.38544
1753.06509	0.39269
1751.13652	0.40177
1749.20796	0.41293
1747.27939	0.42325
1745.35083	0.43210
1743.42227	0.44156
1741.49370	0.45223
1739.56514	0.46492
1737.63657	0.47752
1735.70801	0.48879
1733.77944	0.50560
1731.85088	0.52468
1729.92231	0.53931
1727.99375	0.55429
1726.06519	0.57088
1724.13662	0.58950
1722.20806	0.60976
1720.27949	0.62877
1718.35093	0.65149
1716.42236	0.68405
1714.49380	0.71379
1712.56523	0.73763
1710.63667	0.76126
1708.70811	0.78724
1706.77954	0.81702
1704.85098	0.85212
1702.92241	0.88346
1700.99385	0.91529
1699.06528	0.96205
1697.13672	1.00424
1695.20815	1.04678
1693.27959	1.08834
1691.35103	1.12287
1689.42246	1.16309
1687.49390	1.20530
1685.56533	1.24701
1683.63677	1.31009
1681.70820	1.37232
1679.77964	1.41178
1677.85107	1.45074
1675.92251	1.49715
1673.99395	1.55421
1672.06538	1.60438
1670.13682	1.65360
1668.20825	1.71553
1666.27969	1.76519
1664.35112	1.80873
1662.42256	1.86389
1660.49399	1.92461
1658.56543	1.97246
1656.63687	2.01310
1654.70830	2.05293
1652.77974	2.11233
1650.85117	2.16214
1648.92261	2.17933
1646.99404	2.20431
1645.06548	2.23202
1643.13691	2.24918
1641.20835	2.25981
1639.27979	2.27119
1637.35122	2.28051
1635.42266	2.28190
1633.49409	2.27062
1631.56553	2.25346
1629.63696	2.23559
1627.70840	2.20967
1625.77983	2.17983
1623.85127	2.14033
1621.92271	2.08929
1619.99414	2.04345
1618.06558	2.00069
1616.13701	1.94004
1614.20845	1.87593
1612.27988	1.82658
1610.35132	1.77671
1608.42275	1.72343
1606.49419	1.67044
1604.56562	1.62108
1602.63706	1.57344
1600.70850	1.52700
1598.77993	1.48463
1596.85137	1.44525
1594.92280	1.40651
1592.99424	1.36792
1591.06567	1.33218
1589.13711	1.29923
1587.20854	1.26881
1585.27998	1.24031
1583.35142	1.21331
1581.42285	1.18857
1579.49429	1.16757
1577.56572	1.14938
1575.63716	1.12751
1573.70859	1.10719
1571.78003	1.09371
1569.85146	1.08015
1567.92290	1.06457
1565.99434	1.05244
1564.06577	1.04321
1562.13721	1.03634
1560.20864	1.03301
1558.28008	1.02976
1556.35151	1.02347
1554.42295	1.01789
1552.49438	1.01303
1550.56582	1.00792
1548.63726	1.00148
1546.70869	0.99427
1544.78013	0.98637
1542.85156	0.97692
1540.92300	0.96300
1538.99443	0.93972
1537.06587	0.92117
1535.13730	0.90918
1533.20874	0.89445
1531.28018	0.87797
1529.35161	0.86562
1527.42305	0.85489
1525.49448	0.84425
1523.56592	0.83512
1521.63735	0.82620
1519.70879	0.81624
1517.78022	0.80718
1515.85166	0.79703
1513.92310	0.78664
1511.99453	0.77817
1510.06597	0.77141
1508.13740	0.76583
1506.20884	0.75566
1504.28027	0.74398
1502.35171	0.73720
1500.42314	0.73238
1498.49458	0.72795
1496.56602	0.72250
1494.63745	0.71611
1492.70889	0.71110
1490.78032	0.70778
1488.85176	0.70428
1486.92319	0.69955
1484.99463	0.69506
1483.06606	0.69197
1481.13750	0.68992
1479.20894	0.68855
1477.28037	0.68811
1475.35181	0.68826
1473.42324	0.68829
1471.49468	0.68699
1469.56611	0.68430
1467.63755	0.68189
1465.70898	0.68017
1463.78042	0.67839
1461.85186	0.67678
1459.92329	0.67658
1457.99473	0.67758
1456.06616	0.67631
1454.13760	0.67194
1452.20903	0.66802
1450.28047	0.66497
1448.35190	0.66234
1446.42334	0.65940
1444.49478	0.65638
1442.56621	0.65370
1440.63765	0.65140
1438.70908	0.64950
1436.78052	0.64713
1434.85195	0.64363
1432.92339	0.64066
1430.99482	0.63886
1429.06626	0.63751
1427.13770	0.63646
1425.20913	0.63619
1423.28057	0.63634
1421.35200	0.63651
1419.42344	0.63685
1417.49487	0.63616
1415.56631	0.63415
1413.63774	0.63250
1411.70918	0.63152
1409.78062	0.63100
1407.85205	0.63104
1405.92349	0.63153
1403.99492	0.63172
1402.06636	0.63119
1400.13779	0.63035
1398.20923	0.62919
1396.28066	0.62742
1394.35210	0.62459
1392.42354	0.62094
1390.49497	0.61767
1388.56641	0.61487
1386.63784	0.61162
1384.70928	0.60789
1382.78071	0.60452
1380.85215	0.60163
1378.92358	0.59920
1376.99502	0.59735
1375.06646	0.59604
1373.13789	0.59476
1371.20933	0.59344
1369.28076	0.59241
1367.35220	0.59138
1365.42363	0.59029
1363.49507	0.58934
1361.56650	0.58820
1359.63794	0.58664
1357.70937	0.58516
1355.78081	0.58391
1353.85225	0.58271
1351.92368	0.58164
1349.99512	0.58077
1348.06655	0.57988
1346.13799	0.57890
1344.20942	0.57800
1342.28086	0.57738
1340.35229	0.57710
1338.42373	0.57663
1336.49517	0.57557
1334.56660	0.57443
1332.63804	0.57365
1330.70947	0.57319
1328.78091	0.57296
1326.85234	0.57298
1324.92378	0.57319
1322.99521	0.57348
1321.06665	0.57376
1319.13809	0.57396
1317.20952	0.57392
1315.28096	0.57361
1313.35239	0.57304
1311.42383	0.57216
1309.49526	0.57124
1307.56670	0.57042
1305.63813	0.56957
1303.70957	0.56874
1301.78101	0.56792
1299.85244	0.56712
1297.92388	0.56631
1295.99531	0.56529
1294.06675	0.56411
1292.13818	0.56304
1290.20962	0.56213
1288.28105	0.56129
1286.35249	0.56047
1284.42393	0.55954
1282.49536	0.55839
1280.56680	0.55718
1278.63823	0.55615
1276.70967	0.55538
1274.78110	0.55469
1272.85254	0.55390
1270.92397	0.55312
1268.99541	0.55252
1267.06685	0.55209
1265.13828	0.55151
1263.20972	0.55063
1261.28115	0.54970
1259.35259	0.54901
1257.42402	0.54849
1255.49546	0.54806
1253.56689	0.54779
1251.63833	0.54768
1249.70977	0.54765
1247.78120	0.54757
1245.85264	0.54728
1243.92407	0.54680
1241.99551	0.54615
1240.06694	0.54515
1238.13838	0.54377
1236.20981	0.54227
1234.28125	0.54081
1232.35269	0.53933
1230.42412	0.53779
1228.49556	0.53622
1226.56699	0.53459
1224.63843	0.53301
1222.70986	0.53172
1220.78130	0.53068
1218.85273	0.52968
1216.92417	0.52870
1214.99561	0.52785
1213.06704	0.52713
1211.13848	0.52642
1209.20991	0.52564
1207.28135	0.52491
1205.35278	0.52427
1203.42422	0.52359
1201.49565	0.52294
1199.56709	0.52233
1197.63853	0.52150
1195.70996	0.52059
1193.78140	0.52002
1191.85283	0.51972
1189.92427	0.51935
1187.99570	0.51891
1186.06714	0.51864
1184.13857	0.51873
1182.21001	0.51911
1180.28145	0.51972
1178.35288	0.52054
1176.42432	0.52154
1174.49575	0.52270
1172.56719	0.52375
1170.63862	0.52441
1168.71006	0.52484
1166.78149	0.52522
1164.85293	0.52551
1162.92437	0.52576
1160.99580	0.52598
1159.06724	0.52609
1157.13867	0.52590
1155.21011	0.52518
1153.28154	0.52389
1151.35298	0.52209
1149.42441	0.52002
1147.49585	0.51791
1145.56729	0.51564
1143.63872	0.51315
1141.71016	0.51060
1139.78159	0.50823
1137.85303	0.50635
1135.92446	0.50505
1133.99590	0.50415
1132.06733	0.50347
1130.13877	0.50291
1128.21021	0.50232
1126.28164	0.50173
1124.35308	0.50121
1122.42451	0.50078
1120.49595	0.50047
1118.56738	0.50019
1116.63882	0.50002
1114.71025	0.50019
1112.78169	0.50065
1110.85312	0.50107
1108.92456	0.50148
1106.99600	0.50219
1105.06743	0.50331
1103.13887	0.50467
1101.21030	0.50598
1099.28174	0.50714
1097.35317	0.50861
1095.42461	0.51098
1093.49604	0.51457
1091.56748	0.51954
1089.63892	0.52570
1087.71035	0.53278
1085.78179	0.54053
1083.85322	0.54847
1081.92466	0.55594
1079.99609	0.56179
1078.06753	0.56481
1076.13896	0.56485
1074.21040	0.56213
1072.28184	0.55688
1070.35327	0.55001
1068.42471	0.54272
1066.49614	0.53568
1064.56758	0.52928
1062.63901	0.52374
1060.71045	0.51896
1058.78188	0.51474
1056.85332	0.51102
1054.92476	0.50773
1052.99619	0.50478
1051.06763	0.50237
1049.13906	0.50068
1047.21050	0.49968
1045.28193	0.49921
1043.35337	0.49893
1041.42480	0.49861
1039.49624	0.49834
1037.56768	0.49813
1035.63911	0.49793
1033.71055	0.49746
1031.78198	0.49665
1029.85342	0.49576
1027.92485	0.49465
1025.99629	0.49334
1024.06772	0.49220
1022.13916	0.49155
1020.21060	0.49147
1018.28203	0.49172
1016.35347	0.49207
1014.42490	0.49236
1012.49634	0.49246
1010.56777	0.49258
1008.63921	0.49302
1006.71064	0.49383
1004.78208	0.49497
1002.85352	0.49669
1000.92495	0.49919
998.99639	0.50236
997.06782	0.50607
995.13926	0.51013
993.21069	0.51407
991.28213	0.51746
989.35356	0.51994
987.42500	0.52121
985.49644	0.52150
983.56787	0.52155
981.63931	0.52213
979.71074	0.52335
977.78218	0.52509
975.85361	0.52737
973.92505	0.53002
971.99648	0.53288
970.06792	0.53610
968.13936	0.53993
966.21079	0.54425
964.28223	0.54863
962.35366	0.55307
960.42510	0.55794
958.49653	0.56327
956.56797	0.56904
954.63940	0.57525
952.71084	0.58173
950.78228	0.58830
948.85371	0.59468
946.92515	0.60094
944.99658	0.60734
943.06802	0.61357
941.13945	0.61957
939.21089	0.62558
937.28232	0.63152
935.35376	0.63753
933.42520	0.64371
931.49663	0.64975
929.56807	0.65556
927.63950	0.66113
925.71094	0.66689
923.78237	0.67361
921.85381	0.68073
919.92524	0.68748
917.99668	0.69478
916.06812	0.70271
914.13955	0.71003
912.21099	0.71725
910.28242	0.72605
908.35386	0.73583
906.42529	0.74449
904.49673	0.75287
902.56816	0.76279
900.63960	0.77297
898.71104	0.78244
896.78247	0.79219
894.85391	0.80281
892.92534	0.81400
890.99678	0.82467
889.06821	0.83473
887.13965	0.84578
885.21108	0.85800
883.28252	0.86985
881.35396	0.88146
879.42539	0.89381
877.49683	0.90550
875.56826	0.91587
873.63970	0.92668
871.71113	0.93759
869.78257	0.94758
867.85400	0.95851
865.92544	0.97199
863.99687	0.98669
862.06831	0.99984
860.13975	1.00991
858.21118	1.02022
856.28262	1.03446
854.35405	1.04981
852.42549	1.06197
850.49692	1.07186
848.56836	1.08278
846.63979	1.09509
844.71123	1.10771
842.78267	1.12153
840.85410	1.13636
838.92554	1.14980
836.99697	1.16113
835.06841	1.17114
833.13984	1.18195
831.21128	1.19504
829.28271	1.20939
827.35415	1.22613
825.42559	1.24537
823.49702	1.26271
821.56846	1.27631
819.63989	1.29265
817.71133	1.31658
815.78276	1.34186
813.85420	1.36217
811.92563	1.37552
809.99707	1.38340
808.06851	1.39215
806.13994	1.40623
804.21138	1.42925
802.28281	1.46814
800.35425	1.52945
798.42568	1.60617
796.49712	1.65542
794.56855	1.64768
792.63999	1.63321
790.71143	1.66843
788.78286	1.75345
786.85430	1.79276
784.92573	1.79708
782.99717	2.27757
781.06860	4.68641
779.14004	4.67484
777.21147	1.88188
775.28291	1.71690
773.35435	1.58902
771.42578	1.45506
769.49722	1.36638
767.56865	1.33869
765.64009	1.36103
763.71152	1.39107
761.78296	1.39364
759.85439	1.36431
757.92583	1.27654
755.99727	1.19261
754.06870	1.14936
752.14014	1.12249
750.21157	1.07762
748.28301	1.00166
746.35444	0.90888
744.42588	0.85759
742.49731	0.84176
740.56875	0.81151
738.64019	0.77593
736.71162	0.69903
734.78306	0.59556
732.85449	0.54898
730.92593	0.52775
728.99736	0.47941
727.06880	0.41899
725.14023	0.33118
723.21167	0.22458
721.28311	0.15438
719.35454	0.11519
717.42598	0.09550
715.49741	0.09478
713.56885	0.08311
711.64028	0.05918
709.71172	0.03069
707.78315	-0.03407
705.85459	-0.11004
703.92603	-0.11240
701.99746	-0.08466
700.06890	-0.08166
698.14033	-0.12736
696.21177	-0.19155
694.28320	-0.18491
692.35464	-0.14995
690.42607	-0.11699
688.49751	-0.05132
686.56895	-0.00549
684.64038	-0.02659
682.71182	-0.06710
680.78325	-0.07782
678.85469	-0.07068
676.92612	-0.08555
674.99756	-0.09127
673.06899	-0.01543
671.14043	0.03145
669.21187	-0.00348
667.28330	-0.04529
665.35474	-0.03869
663.42617	-0.01245
661.49761	0.02105
659.56904	0.02619
657.64048	-0.00916
655.71191	-0.05511
653.78335	-0.07472
651.85479	-0.04968
649.92622	-0.00389
647.99766	0.03207
646.06909	0.03404
644.14053	0.02650
642.21196	0.07801
640.28340	0.10140
638.35483	0.03906
636.42627	-0.05107
634.49771	-0.09114
632.56914	-0.08364
630.64058	-0.07222
628.71201	-0.02083
626.78345	0.10874
624.85488	0.21070
622.92632	0.14166
620.99775	0.03726
619.06919	0.01226
617.14062	0.02539
615.21206	0.04899
613.28350	0.08723
611.35493	0.08681
609.42637	0.08705
607.49780	0.07307
605.56924	0.00190
603.64067	-0.02432
601.71211	0.05745
599.78354	0.12110
597.85498	0.08560
595.92642	0.01710
593.99785	-0.00961
592.06929	0.01669
590.14072	0.04063
588.21216	0.01350
586.28359	-0.06602
584.35503	-0.13183
582.42646	-0.08645
580.49790	0.01824
578.56934	0.07366
576.64077	0.06454
574.71221	0.02269
572.78364	0.03679
570.85508	0.03584
568.92651	-0.05782
566.99795	-0.11393
565.06938	-0.05759
563.14082	0.01943
561.21226	0.06150
559.28369	0.03637
557.35513	-0.03107
555.42656	-0.03240
553.49800	0.00032
551.56943	-0.02827
549.64087	-0.07709
547.71230	-0.06496
545.78374	-0.04486
543.85518	-0.06766
541.92661	-0.08233
539.99805	-0.04987
538.06948	-0.00950
536.14092	0.00169
534.21235	-0.00493
532.28379	0.00462
530.35522	0.03413
528.42666	0.04267
526.49810	0.02379
524.56953	0.03451
522.64097	0.08234
520.71240	0.09667
518.78384	0.05035
516.85527	0.01610
514.92671	0.02883
512.99814	0.02895
511.06958	-0.00745
509.14102	-0.05066
507.21245	-0.08018
505.28389	-0.07940
503.35532	-0.06235
501.42676	-0.04051
499.49819	0.00403
