3997.91411	0.07051
3995.98555	0.07097
3994.05698	0.07090
3992.12842	0.07094
3990.19985	0.07154
3988.27129	0.07210
3986.34272	0.07227
3984.41416	0.07235
3982.48560	0.07249
3980.55703	0.07254
3978.62847	0.07279
3976.69990	0.07326
3974.77134	0.07341
3972.84277	0.07333
3970.91421	0.07333
3968.98564	0.07354
3967.05708	0.07406
3965.12852	0.07465
3963.19995	0.07503
3961.27139	0.07522
3959.34282	0.07518
3957.41426	0.07497
3955.48569	0.07486
3953.55713	0.07495
3951.62856	0.07520
3949.70000	0.07568
3947.77144	0.07635
3945.84287	0.07683
3943.91431	0.07693
3941.98574	0.07663
3940.05718	0.07567
3938.12861	0.07483
3936.20005	0.07492
3934.27148	0.07558
3932.34292	0.07610
3930.41436	0.07616
3928.48579	0.07582
3926.55723	0.07533
3924.62866	0.07521
3922.70010	0.07536
3920.77153	0.07513
3918.84297	0.07479
3916.91440	0.07476
3914.98584	0.07464
3913.05728	0.07413
3911.12871	0.07364
3909.20015	0.07359
3907.27158	0.07396
3905.34302	0.07460
3903.41445	0.07545
3901.48589	0.07594
3899.55732	0.07597
3897.62876	0.07568
3895.70020	0.07507
3893.77163	0.07478
3891.84307	0.07511
3889.91450	0.07541
3887.98594	0.07509
3886.05737	0.07507
3884.12881	0.07583
3882.20024	0.07639
3880.27168	0.07653
3878.34312	0.07622
3876.41455	0.07572
3874.48599	0.07601
3872.55742	0.07692
3870.62886	0.07760
3868.70029	0.07792
3866.77173	0.07803
3864.84316	0.07852
3862.91460	0.07899
3860.98604	0.07844
3859.05747	0.07792
3857.12891	0.07839
3855.20034	0.07971
3853.27178	0.08211
3851.34321	0.08383
3849.41465	0.08252
3847.48608	0.08100
3845.55752	0.08085
3843.62896	0.08170
3841.70039	0.08277
3839.77183	0.08395
3837.84326	0.08545
3835.91470	0.08615
3833.98613	0.08587
3832.05757	0.08602
3830.12900	0.08660
3828.20044	0.08704
3826.27187	0.08771
3824.34331	0.08856
3822.41475	0.08950
3820.48618	0.09093
3818.55762	0.09164
3816.62905	0.09163
3814.70049	0.09202
3812.77192	0.09227
3810.84336	0.09258
3808.91479	0.09371
3806.98623	0.09571
3805.05767	0.09770
3803.12910	0.09928
3801.20054	0.10126
3799.27197	0.10288
3797.34341	0.10343
3795.41484	0.10371
3793.48628	0.10380
3791.55771	0.10409
3789.62915	0.10473
3787.70059	0.10579
3785.77202	0.10741
3783.84346	0.10918
3781.91489	0.11083
3779.98633	0.11264
3778.05776	0.11448
3776.12920	0.11556
3774.20063	0.11630
3772.27207	0.11777
3770.34351	0.12031
3768.41494	0.12308
3766.48638	0.12495
3764.55781	0.12643
3762.62925	0.12790
3760.70068	0.12984
3758.77212	0.13292
3756.84355	0.13610
3754.91499	0.13819
3752.98643	0.14034
3751.05786	0.14400
3749.12930	0.14802
3747.20073	0.15003
3745.27217	0.15148
3743.34360	0.15398
3741.41504	0.15643
3739.48647	0.15839
3737.55791	0.16140
3735.62935	0.16647
3733.70078	0.17249
3731.77222	0.17668
3729.84365	0.17920
3727.91509	0.18208
3725.98652	0.18686
3724.05796	0.19329
3722.12939	0.20035
3720.20083	0.20803
3718.27227	0.21612
3716.34370	0.22421
3714.41514	0.23203
3712.48657	0.24114
3710.55801	0.25366
3708.62944	0.26647
3706.70088	0.27676
3704.77231	0.28719
3702.84375	0.30020
3700.91519	0.31720
3698.98662	0.33528
3697.05806	0.35210
3695.12949	0.37021
3693.20093	0.39003
3691.27236	0.41192
3689.34380	0.44003
3687.41523	0.47402
3685.48667	0.50407
3683.55811	0.53028
3681.62954	0.55805
3679.70098	0.58896
3677.77241	0.62191
3675.84385	0.66129
3673.91528	0.71275
3671.98672	0.75516
3670.05815	0.79372
3668.12959	0.84494
3666.20103	0.89143
3664.27246	0.93118
3662.34390	0.97442
3660.41533	1.02130
3658.48677	1.06742
3656.55820	1.11611
3654.62964	1.17021
3652.70107	1.21615
3650.77251	1.25633
3648.84395	1.31061
3646.91538	1.37568
3644.98682	1.42450
3643.05825	1.46311
3641.12969	1.50276
3639.20112	1.54640
3637.27256	1.59015
3635.34399	1.63249
3633.41543	1.67511
3631.48687	1.71487
3629.55830	1.75348
3627.62974	1.80333
3625.70117	1.85279
3623.77261	1.88839
3621.84404	1.92264
3619.91548	1.96183
3617.98691	2.00796
3616.05835	2.05128
3614.12979	2.08758
3612.20122	2.12543
3610.27266	2.16309
3608.34409	2.20144
3606.41553	2.24286
3604.48696	2.28174
3602.55840	2.31721
3600.62983	2.35586
3598.70127	2.39705
3596.77271	2.43662
3594.84414	2.47772
3592.91558	2.52103
3590.98701	2.56036
3589.05845	2.59590
3587.12988	2.63976
3585.20132	2.68976
3583.27275	2.73227
3581.34419	2.77058
3579.41562	2.81065
3577.48706	2.85258
3575.55850	2.89514
3573.62993	2.93906
3571.70137	2.98158
3569.77280	3.02205
3567.84424	3.06463
3565.91567	3.11385
3563.98711	3.16085
3562.05854	3.20242
3560.12998	3.24690
3558.20142	3.29281
3556.27285	3.33538
3554.34429	3.37685
3552.41572	3.42401
3550.48716	3.47411
3548.55859	3.52006
3546.63003	3.56390
3544.70146	3.61239
3542.77290	3.66509
3540.84434	3.71459
3538.91577	3.75918
3536.98721	3.80328
3535.05864	3.85236
3533.13008	3.90349
3531.20151	3.95260
3529.27295	4.00245
3527.34438	4.05348
3525.41582	4.09926
3523.48726	4.14086
3521.55869	4.18501
3519.63013	4.23092
3517.70156	4.27824
3515.77300	4.32849
3513.84443	4.38147
3511.91587	4.43455
3509.98730	4.48308
3508.05874	4.52532
3506.13018	4.56766
3504.20161	4.61686
3502.27305	4.67118
3500.34448	4.72156
3498.41592	4.76785
3496.48735	4.81713
3494.55879	4.86812
3492.63022	4.91816
3490.70166	4.96547
3488.77310	5.01288
3486.84453	5.06562
3484.91597	5.11515
3482.98740	5.15512
3481.05884	5.20219
3479.13027	5.26408
3477.20171	5.32633
3475.27314	5.37903
3473.34458	5.42302
3471.41602	5.46852
3469.48745	5.51837
3467.55889	5.56438
3465.63032	5.60661
3463.70176	5.65557
3461.77319	5.71292
3459.84463	5.77360
3457.91606	5.83915
3455.98750	5.89820
3454.05894	5.92819
3452.13037	5.94786
3450.20181	5.99127
3448.27324	6.04448
3446.34468	6.08847
3444.41611	6.13465
3442.48755	6.19752
3440.55898	6.26898
3438.63042	6.33488
3436.70186	6.39485
3434.77329	6.45083
3432.84473	6.50143
3430.91616	6.54506
3428.98760	6.59653
3427.05903	6.66340
3425.13047	6.71524
3423.20190	6.73697
3421.27334	6.77143
3419.34478	6.81031
3417.41621	6.83757
3415.48765	6.89806
3413.55908	6.97053
3411.63052	7.01707
3409.70195	7.05508
3407.77339	7.11289
3405.84482	7.17846
3403.91626	7.22195
3401.98770	7.24425
3400.05913	7.26981
3398.13057	7.32106
3396.20200	7.39916
3394.27344	7.48957
3392.34487	7.54316
3390.41631	7.56833
3388.48774	7.61288
3386.55918	7.64666
3384.63062	7.64121
3382.70205	7.65153
3380.77349	7.70795
3378.84492	7.76851
3376.91636	7.81639
3374.98779	7.85357
3373.05923	7.85441
3371.13066	7.84086
3369.20210	7.90264
3367.27354	8.00298
3365.34497	8.01119
3363.41641	7.94538
3361.48784	7.93664
3359.55928	7.99194
3357.63071	8.01151
3355.70215	8.04304
3353.77358	8.13669
3351.84502	8.18927
3349.91646	8.15966
3347.98789	8.16126
3346.05933	8.17536
3344.13076	8.12606
3342.20220	8.14112
3340.27363	8.26497
3338.34507	8.31203
3336.41650	8.26970
3334.48794	8.31023
3332.55937	8.34741
3330.63081	8.31490
3328.70225	8.29735
3326.77368	8.30384
3324.84512	8.29529
3322.91655	8.21653
3320.98799	8.11874
3319.05942	8.09144
3317.13086	8.15290
3315.20229	8.20888
3313.27373	8.20528
3311.34517	8.19423
3309.41660	8.18595
3307.48804	8.19392
3305.55947	8.24513
3303.63091	8.26757
3301.70234	8.24367
3299.77378	8.28785
3297.84521	8.28677
3295.91665	8.17866
3293.98809	8.17580
3292.05952	8.32908
3290.13096	8.46401
3288.20239	8.49293
3286.27383	8.55928
3284.34526	8.63220
3282.41670	8.51912
3280.48813	8.31738
3278.55957	8.22432
3276.63101	8.24883
3274.70244	8.36693
3272.77388	8.48566
3270.84531	8.46567
3268.91675	8.38845
3266.98818	8.34774
3265.05962	8.34455
3263.13105	8.34104
3261.20249	8.36414
3259.27393	8.48552
3257.34536	8.66981
3255.41680	8.76680
3253.48823	8.72256
3251.55967	8.64530
3249.63110	8.58376
3247.70254	8.55062
3245.77397	8.53010
3243.84541	8.48008
3241.91685	8.41674
3239.98828	8.37031
3238.05972	8.28620
3236.13115	8.18448
3234.20259	8.20650
3232.27402	8.34629
3230.34546	8.44659
3228.41689	8.39065
3226.48833	8.23847
3224.55977	8.15840
3222.63120	8.23659
3220.70264	8.38922
3218.77407	8.44248
3216.84551	8.39149
3214.91694	8.30356
3212.98838	8.20136
3211.05981	8.18196
3209.13125	8.21710
3207.20269	8.17766
3205.27412	8.10028
3203.34556	8.03300
3201.41699	8.00522
3199.48843	8.03990
3197.55986	8.04600
3195.63130	8.00462
3193.70273	7.96611
3191.77417	7.88941
3189.84561	7.78019
3187.91704	7.71357
3185.98848	7.70270
3184.05991	7.65870
3182.13135	7.56042
3180.20278	7.51506
3178.27422	7.52986
3176.34565	7.51597
3174.41709	7.42296
3172.48853	7.27126
3170.55996	7.16125
3168.63140	7.14358
3166.70283	7.13718
3164.77427	7.09634
3162.84570	7.03530
3160.91714	6.92316
3158.98857	6.80359
3157.06001	6.73797
3155.13145	6.69614
3153.20288	6.64522
3151.27432	6.56946
3149.34575	6.45368
3147.41719	6.34762
3145.48862	6.30832
3143.56006	6.29897
3141.63149	6.24120
3139.70293	6.13270
3137.77437	6.02576
3135.84580	5.93383
3133.91724	5.84359
3131.98867	5.76285
3130.06011	5.70170
3128.13154	5.64371
3126.20298	5.57568
3124.27441	5.50698
3122.34585	5.44322
3120.41729	5.37697
3118.48872	5.29937
3116.56016	5.21567
3114.63159	5.13740
3112.70303	5.06620
3110.77446	4.99487
3108.84590	4.91917
3106.91733	4.84312
3104.98877	4.77127
3103.06021	4.70526
3101.13164	4.64155
3099.20308	4.57494
3097.27451	4.50535
3095.34595	4.43656
3093.41738	4.36921
3091.48882	4.30225
3089.56025	4.23536
3087.63169	4.16940
3085.70312	4.10746
3083.77456	4.04631
3081.84600	3.98194
3079.91743	3.91528
3077.98887	3.84967
3076.06030	3.78973
3074.13174	3.73378
3072.20317	3.67717
3070.27461	3.61908
3068.34604	3.56104
3066.41748	3.50338
3064.48892	3.44479
3062.56035	3.38575
3060.63179	3.32937
3058.70322	3.27645
3056.77466	3.22337
3054.84609	3.16885
3052.91753	3.11507
3050.98896	3.06261
3049.06040	3.01069
3047.13184	2.95946
3045.20327	2.90951
3043.27471	2.86047
3041.34614	2.81119
3039.41758	2.76216
3037.48901	2.71480
3035.56045	2.66873
3033.63188	2.62327
3031.70332	2.57837
3029.77476	2.53399
3027.84619	2.48997
3025.91763	2.44596
3023.98906	2.40249
3022.06050	2.36025
3020.13193	2.31889
3018.20337	2.27826
3016.27480	2.23815
3014.34624	2.19794
3012.41768	2.15807
3010.48911	2.11932
3008.56055	2.08154
3006.63198	2.04493
3004.70342	2.00929
3002.77485	1.97402
3000.84629	1.93951
2998.91772	1.90556
2996.98916	1.87158
2995.06060	1.83814
2993.13203	1.80564
2991.20347	1.77383
2989.27490	1.74282
2987.34634	1.71277
2985.41777	1.68317
2983.48921	1.65371
2981.56064	1.62500
2979.63208	1.59726
2977.70352	1.56981
2975.77495	1.54263
2973.84639	1.51630
2971.91782	1.49033
2969.98926	1.46435
2968.06069	1.43886
2966.13213	1.41373
2964.20356	1.38855
2962.27500	1.36379
2960.34644	1.33992
2958.41787	1.31629
2956.48931	1.29272
2954.56074	1.26980
2952.63218	1.24721
2950.70361	1.22449
2948.77505	1.20210
2946.84648	1.18061
2944.91792	1.15956
2942.98936	1.13846
2941.06079	1.11802
2939.13223	1.09825
2937.20366	1.07845
2935.27510	1.05901
2933.34653	1.04030
2931.41797	1.02175
2929.48940	1.00286
2927.56084	0.98373
2925.63228	0.96491
2923.70371	0.94707
2921.77515	0.93011
2919.84658	0.91361
2917.91802	0.89743
2915.98945	0.88101
2914.06089	0.86444
2912.13232	0.84888
2910.20376	0.83433
2908.27520	0.81990
2906.34663	0.80538
2904.41807	0.79108
2902.48950	0.77724
2900.56094	0.76392
2898.63237	0.75095
2896.70381	0.73821
2894.77524	0.72568
2892.84668	0.71339
2890.91812	0.70145
2888.98955	0.68977
2887.06099	0.67843
2885.13242	0.66773
2883.20386	0.65727
2881.27529	0.64687
2879.34673	0.63661
2877.41816	0.62640
2875.48960	0.61642
2873.56104	0.60672
2871.63247	0.59675
2869.70391	0.58630
2867.77534	0.57593
2865.84678	0.56568
2863.91821	0.55521
2861.98965	0.54482
2860.06108	0.53476
2858.13252	0.52484
2856.20396	0.51534
2854.27539	0.50651
2852.34683	0.49782
2850.41826	0.48909
2848.48970	0.48086
2846.56113	0.47337
2844.63257	0.46634
2842.70400	0.45966
2840.77544	0.45303
2838.84687	0.44639
2836.91831	0.44014
2834.98975	0.43422
2833.06118	0.42829
2831.13262	0.42231
2829.20405	0.41632
2827.27549	0.41035
2825.34692	0.40441
2823.41836	0.39852
2821.48979	0.39274
2819.56123	0.38701
2817.63267	0.38123
2815.70410	0.37541
2813.77554	0.36981
2811.84697	0.36453
2809.91841	0.35930
2807.98984	0.35413
2806.06128	0.34913
2804.13271	0.34428
2802.20415	0.33954
2800.27559	0.33467
2798.34702	0.32970
2796.41846	0.32501
2794.48989	0.32054
2792.56133	0.31605
2790.63276	0.31153
2788.70420	0.30716
2786.77563	0.30301
2784.84707	0.29902
2782.91851	0.29518
2780.98994	0.29140
2779.06138	0.28756
2777.13281	0.28364
2775.20425	0.27972
2773.27568	0.27595
2771.34712	0.27243
2769.41855	0.26911
2767.48999	0.26575
2765.56143	0.26231
2763.63286	0.25911
2761.70430	0.25618
2759.77573	0.25320
2757.84717	0.25006
2755.91860	0.24682
2753.99004	0.24361
2752.06147	0.24055
2750.13291	0.23767
2748.20435	0.23498
2746.27578	0.23242
2744.34722	0.22987
2742.41865	0.22739
2740.49009	0.22507
2738.56152	0.22263
2736.63296	0.22000
2734.70439	0.21750
2732.77583	0.21521
2730.84727	0.21302
2728.91870	0.21083
2726.99014	0.20874
2725.06157	0.20679
2723.13301	0.20479
2721.20444	0.20272
2719.27588	0.20077
2717.34731	0.19887
2715.41875	0.19694
2713.49019	0.19523
2711.56162	0.19368
2709.63306	0.19207
2707.70449	0.19040
2705.77593	0.18870
2703.84736	0.18701
2701.91880	0.18532
2699.99023	0.18376
2698.06167	0.18235
2696.13311	0.18091
2694.20454	0.17942
2692.27598	0.17802
2690.34741	0.17676
2688.41885	0.17565
2686.49028	0.17449
2684.56172	0.17312
2682.63315	0.17176
2680.70459	0.17065
2678.77603	0.16964
2676.84746	0.16860
2674.91890	0.16771
2672.99033	0.16690
2671.06177	0.16586
2669.13320	0.16469
2667.20464	0.16366
2665.27607	0.16270
2663.34751	0.16172
2661.41895	0.16093
2659.49038	0.16036
2657.56182	0.15962
2655.63325	0.15879
2653.70469	0.15816
2651.77612	0.15755
2649.84756	0.15685
2647.91899	0.15615
2645.99043	0.15551
2644.06187	0.15500
2642.13330	0.15453
2640.20474	0.15406
2638.27617	0.15359
2636.34761	0.15311
2634.41904	0.15273
2632.49048	0.15247
2630.56191	0.15212
2628.63335	0.15157
2626.70479	0.15112
2624.77622	0.15083
2622.84766	0.15050
2620.91909	0.15023
2618.99053	0.15012
2617.06196	0.15008
2615.13340	0.15010
2613.20483	0.15005
2611.27627	0.14977
2609.34771	0.14945
2607.41914	0.14939
2605.49058	0.14948
2603.56201	0.14943
2601.63345	0.14935
2599.70488	0.14940
2597.77632	0.14947
2595.84775	0.14944
2593.91919	0.14953
2591.99062	0.14990
2590.06206	0.15024
2588.13350	0.15030
2586.20493	0.15028
2584.27637	0.15055
2582.34780	0.15098
2580.41924	0.15127
2578.49067	0.15149
2576.56211	0.15182
2574.63354	0.15210
2572.70498	0.15238
2570.77642	0.15289
2568.84785	0.15346
2566.91929	0.15382
2564.99072	0.15406
2563.06216	0.15436
2561.13359	0.15479
2559.20503	0.15533
2557.27646	0.15591
2555.34790	0.15647
2553.41934	0.15699
2551.49077	0.15761
2549.56221	0.15826
2547.63364	0.15869
2545.70508	0.15902
2543.77651	0.15953
2541.84795	0.16015
2539.91938	0.16086
2537.99082	0.16160
2536.06226	0.16227
2534.13369	0.16301
2532.20513	0.16386
2530.27656	0.16456
2528.34800	0.16509
2526.41943	0.16574
2524.49087	0.16661
2522.56230	0.16747
2520.63374	0.16823
2518.70518	0.16904
2516.77661	0.16983
2514.84805	0.17050
2512.91948	0.17114
2510.99092	0.17185
2509.06235	0.17263
2507.13379	0.17340
2505.20522	0.17425
2503.27666	0.17527
2501.34810	0.17628
2499.41953	0.17718
2497.49097	0.17809
2495.56240	0.17889
2493.63384	0.17955
2491.70527	0.18033
2489.77671	0.18121
2487.84814	0.18202
2485.91958	0.18284
2483.99102	0.18375
2482.06245	0.18467
2480.13389	0.18559
2478.20532	0.18664
2476.27676	0.18766
2474.34819	0.18849
2472.41963	0.18930
2470.49106	0.19021
2468.56250	0.19110
2466.63394	0.19185
2464.70537	0.19259
2462.77681	0.19352
2460.84824	0.19464
2458.91968	0.19573
2456.99111	0.19664
2455.06255	0.19757
2453.13398	0.19869
2451.20542	0.19982
2449.27686	0.20068
2447.34829	0.20144
2445.41973	0.20228
2443.49116	0.20322
2441.56260	0.20430
2439.63403	0.20551
2437.70547	0.20667
2435.77690	0.20773
2433.84834	0.20875
2431.91978	0.20976
2429.99121	0.21077
2428.06265	0.21178
2426.13408	0.21281
2424.20552	0.21384
2422.27695	0.21491
2420.34839	0.21620
2418.41982	0.21763
2416.49126	0.21889
2414.56270	0.21997
2412.63413	0.22102
2410.70557	0.22197
2408.77700	0.22292
2406.84844	0.22413
2404.91987	0.22557
2402.99131	0.22689
2401.06274	0.22797
2399.13418	0.22897
2397.20562	0.23002
2395.27705	0.23114
2393.34849	0.23242
2391.41992	0.23377
2389.49136	0.23492
2387.56279	0.23571
2385.63423	0.23607
2383.70566	0.23580
2381.77710	0.23485
2379.84854	0.23340
2377.91997	0.23152
2375.99141	0.22922
2374.06284	0.22643
2372.13428	0.22284
2370.20571	0.21828
2368.27715	0.21364
2366.34858	0.21019
2364.42002	0.20718
2362.49146	0.20384
2360.56289	0.20211
2358.63433	0.20427
2356.70576	0.21011
2354.77720	0.21755
2352.84863	0.22566
2350.92007	0.23381
2348.99150	0.23924
2347.06294	0.24041
2345.13437	0.23795
2343.20581	0.23437
2341.27725	0.23306
2339.34868	0.23469
2337.42012	0.23745
2335.49155	0.24015
2333.56299	0.24285
2331.63442	0.24580
2329.70586	0.24887
2327.77729	0.25194
2325.84873	0.25523
2323.92017	0.25876
2321.99160	0.26264
2320.06304	0.26711
2318.13447	0.27173
2316.20591	0.27576
2314.27734	0.27907
2312.34878	0.28197
2310.42021	0.28494
2308.49165	0.28828
2306.56309	0.29177
2304.63452	0.29501
2302.70596	0.29784
2300.77739	0.30047
2298.84883	0.30303
2296.92026	0.30549
2294.99170	0.30800
2293.06313	0.31062
2291.13457	0.31319
2289.20601	0.31581
2287.27744	0.31853
2285.34888	0.32111
2283.42031	0.32333
2281.49175	0.32529
2279.56318	0.32720
2277.63462	0.32915
2275.70605	0.33112
2273.77749	0.33297
2271.84893	0.33479
2269.92036	0.33678
2267.99180	0.33901
2266.06323	0.34127
2264.13467	0.34350
2262.20610	0.34574
2260.27754	0.34795
2258.34897	0.35010
2256.42041	0.35219
2254.49185	0.35429
2252.56328	0.35659
2250.63472	0.35908
2248.70615	0.36159
2246.77759	0.36399
2244.84902	0.36630
2242.92046	0.36856
2240.99189	0.37077
2239.06333	0.37301
2237.13477	0.37524
2235.20620	0.37739
2233.27764	0.37954
2231.34907	0.38174
2229.42051	0.38391
2227.49194	0.38606
2225.56338	0.38825
2223.63481	0.39047
2221.70625	0.39271
2219.77769	0.39501
2217.84912	0.39725
2215.92056	0.39938
2213.99199	0.40149
2212.06343	0.40367
2210.13486	0.40590
2208.20630	0.40811
2206.27773	0.41022
2204.34917	0.41231
2202.42061	0.41443
2200.49204	0.41645
2198.56348	0.41844
2196.63491	0.42047
2194.70635	0.42240
2192.77778	0.42415
2190.84922	0.42589
2188.92065	0.42768
2186.99209	0.42945
2185.06353	0.43121
2183.13496	0.43299
2181.20640	0.43472
2179.27783	0.43635
2177.34927	0.43791
2175.42070	0.43944
2173.49214	0.44095
2171.56357	0.44251
2169.63501	0.44405
2167.70645	0.44536
2165.77788	0.44652
2163.84932	0.44782
2161.92075	0.44918
2159.99219	0.45030
2158.06362	0.45113
2156.13506	0.45191
2154.20649	0.45280
2152.27793	0.45370
2150.34937	0.45448
2148.42080	0.45504
2146.49224	0.45543
2144.56367	0.45584
2142.63511	0.45633
2140.70654	0.45670
2138.77798	0.45694
2136.84941	0.45719
2134.92085	0.45735
2132.99229	0.45722
2131.06372	0.45694
2129.13516	0.45672
2127.20659	0.45654
2125.27803	0.45619
2123.34946	0.45570
2121.42090	0.45528
2119.49233	0.45481
2117.56377	0.45409
2115.63521	0.45326
2113.70664	0.45239
2111.77808	0.45144
2109.84951	0.45057
2107.92095	0.44970
2105.99238	0.44858
2104.06382	0.44727
2102.13525	0.44593
2100.20669	0.44450
2098.27812	0.44294
2096.34956	0.44139
2094.42100	0.43981
2092.49243	0.43815
2090.56387	0.43641
2088.63530	0.43457
2086.70674	0.43277
2084.77817	0.43101
2082.84961	0.42915
2080.92104	0.42714
2078.99248	0.42505
2077.06392	0.42292
2075.13535	0.42078
2073.20679	0.41865
2071.27822	0.41651
2069.34966	0.41432
2067.42109	0.41198
2065.49253	0.40950
2063.56396	0.40700
2061.63540	0.40456
2059.70684	0.40212
2057.77827	0.39965
2055.84971	0.39701
2053.92114	0.39424
2051.99258	0.39172
2050.06401	0.38942
2048.13545	0.38699
2046.20688	0.38421
2044.27832	0.38127
2042.34976	0.37847
2040.42119	0.37584
2038.49263	0.37309
2036.56406	0.37024
2034.63550	0.36747
2032.70693	0.36470
2030.77837	0.36186
2028.84980	0.35902
2026.92124	0.35621
2024.99268	0.35338
2023.06411	0.35065
2021.13555	0.34800
2019.20698	0.34533
2017.27842	0.34260
2015.34985	0.33975
2013.42129	0.33689
2011.49272	0.33422
2009.56416	0.33168
2007.63560	0.32899
2005.70703	0.32617
2003.77847	0.32340
2001.84990	0.32081
1999.92134	0.31831
1997.99277	0.31577
1996.06421	0.31323
1994.13564	0.31078
1992.20708	0.30826
1990.27852	0.30555
1988.34995	0.30292
1986.42139	0.30053
1984.49282	0.29821
1982.56426	0.29580
1980.63569	0.29339
1978.70713	0.29111
1976.77856	0.28891
1974.85000	0.28671
1972.92144	0.28457
1970.99287	0.28251
1969.06431	0.28051
1967.13574	0.27849
1965.20718	0.27642
1963.27861	0.27451
1961.35005	0.27272
1959.42148	0.27090
1957.49292	0.26902
1955.56436	0.26714
1953.63579	0.26530
1951.70723	0.26357
1949.77866	0.26193
1947.85010	0.26037
1945.92153	0.25895
1943.99297	0.25762
1942.06440	0.25617
1940.13584	0.25461
1938.20728	0.25315
1936.27871	0.25179
1934.35015	0.25048
1932.42158	0.24931
1930.49302	0.24829
1928.56445	0.24729
1926.63589	0.24625
1924.70732	0.24523
1922.77876	0.24419
1920.85020	0.24313
1918.92163	0.24223
1916.99307	0.24140
1915.06450	0.24047
1913.13594	0.23961
1911.20737	0.23894
1909.27881	0.23829
1907.35024	0.23759
1905.42168	0.23687
1903.49312	0.23629
1901.56455	0.23582
1899.63599	0.23534
1897.70742	0.23489
1895.77886	0.23447
1893.85029	0.23408
1891.92173	0.23381
1889.99316	0.23373
1888.06460	0.23352
1886.13604	0.23314
1884.20747	0.23280
1882.27891	0.23255
1880.35034	0.23241
1878.42178	0.23239
1876.49321	0.23245
1874.56465	0.23244
1872.63608	0.23251
1870.70752	0.23285
1868.77896	0.23352
1866.85039	0.23386
1864.92183	0.23363
1862.99326	0.23351
1861.06470	0.23375
1859.13613	0.23416
1857.20757	0.23451
1855.27900	0.23494
1853.35044	0.23544
1851.42187	0.23599
1849.49331	0.23658
1847.56475	0.23726
1845.63618	0.23812
1843.70762	0.23918
1841.77905	0.23994
1839.85049	0.24037
1837.92192	0.24122
1835.99336	0.24223
1834.06479	0.24309
1832.13623	0.24400
1830.20767	0.24541
1828.27910	0.24694
1826.35054	0.24809
1824.42197	0.24933
1822.49341	0.25050
1820.56484	0.25166
1818.63628	0.25305
1816.70771	0.25474
1814.77915	0.25639
1812.85059	0.25808
1810.92202	0.26006
1808.99346	0.26217
1807.06489	0.26419
1805.13633	0.26605
1803.20776	0.26814
1801.27920	0.27066
1799.35063	0.27354
1797.42207	0.27612
1795.49351	0.27857
1793.56494	0.28148
1791.63638	0.28520
1789.70781	0.28866
1787.77925	0.29113
1785.85068	0.29403
1783.92212	0.29766
1781.99355	0.30174
1780.06499	0.30596
1778.13643	0.31021
1776.20786	0.31428
1774.27930	0.31872
1772.35073	0.32468
1770.42217	0.33106
1768.49360	0.33634
1766.56504	0.34131
1764.63647	0.34651
1762.70791	0.35239
1760.77935	0.35984
1758.85078	0.36683
1756.92222	0.37390
1754.99365	0.38172
1753.06509	0.38888
1751.13652	0.39727
1749.20796	0.40778
1747.27939	0.41821
1745.35083	0.42744
1743.42227	0.43715
1741.49370	0.44783
1739.56514	0.46042
1737.63657	0.47307
1735.70801	0.48416
1733.77944	0.50057
1731.85088	0.52028
1729.92231	0.53597
1727.99375	0.55161
1726.06519	0.56837
1724.13662	0.58673
1722.20806	0.60672
1720.27949	0.62549
1718.35093	0.64737
1716.42236	0.67873
1714.49380	0.70858
1712.56523	0.73340
1710.63667	0.75760
1708.70811	0.78347
1706.77954	0.81276
1704.85098	0.84742
1702.92241	0.87843
1700.99385	0.90954
1699.06528	0.95543
1697.13672	0.99772
1695.20815	1.04069
1693.27959	1.08215
1691.35103	1.11579
1689.42246	1.15466
1687.49390	1.19549
1685.56533	1.23518
1683.63677	1.29551
1681.70820	1.35734
1679.77964	1.39751
1677.85107	1.43605
1675.92251	1.48010
1673.99395	1.53372
1672.06538	1.58224
1670.13682	1.63061
1668.20825	1.69158
1666.27969	1.74123
1664.35112	1.78398
1662.42256	1.83682
1660.49399	1.89560
1658.56543	1.94150
1656.63687	1.97756
1654.70830	2.00982
1652.77974	2.06304
1650.85117	2.11682
1648.92261	2.13798
1646.99404	2.16429
1645.06548	2.19404
1643.13691	2.21343
1641.20835	2.22480
1639.27979	2.23456
1637.35122	2.24087
1635.42266	2.24144
1633.49409	2.23325
1631.56553	2.21883
1629.63696	2.20159
1627.70840	2.17316
1625.77983	2.13969
1623.85127	2.09947
1621.92271	2.05107
1619.99414	2.00823
1618.06558	1.96693
1616.13701	1.90788
1614.20845	1.84633
1612.27988	1.79812
1610.35132	1.74706
1608.42275	1.69192
1606.49419	1.63904
1604.56562	1.59065
1602.63706	1.54322
1600.70850	1.49696
1598.77993	1.45480
1596.85137	1.41507
1594.92280	1.37627
1592.99424	1.33896
1591.06567	1.30477
1589.13711	1.27260
1587.20854	1.24278
1585.27998	1.21551
1583.35142	1.18995
1581.42285	1.16641
1579.49429	1.14629
1577.56572	1.12831
1575.63716	1.10618
1573.70859	1.08619
1571.78003	1.07319
1569.85146	1.05984
1567.92290	1.04459
1565.99434	1.03268
1564.06577	1.02328
1562.13721	1.01580
1560.20864	1.01063
1558.28008	1.00380
1556.35151	0.99670
1554.42295	0.99179
1552.49438	0.98703
1550.56582	0.98157
1548.63726	0.97472
1546.70869	0.96714
1544.78013	0.95857
1542.85156	0.94836
1540.92300	0.93448
1538.99443	0.91300
1537.06587	0.89671
1535.13730	0.88617
1533.20874	0.87272
1531.28018	0.85764
1529.35161	0.84626
1527.42305	0.83590
1525.49448	0.82551
1523.56592	0.81677
1521.63735	0.80825
1519.70879	0.79888
1517.78022	0.79062
1515.85166	0.78170
1513.92310	0.77259
1511.99453	0.76477
1510.06597	0.75798
1508.13740	0.75166
1506.20884	0.74143
1504.28027	0.73150
1502.35171	0.72581
1500.42314	0.72116
1498.49458	0.71628
1496.56602	0.71053
1494.63745	0.70470
1492.70889	0.70009
1490.78032	0.69622
1488.85176	0.69179
1486.92319	0.68720
1484.99463	0.68329
1483.06606	0.68004
1481.13750	0.67722
1479.20894	0.67497
1477.28037	0.67351
1475.35181	0.67249
1473.42324	0.67164
1471.49468	0.67021
1469.56611	0.66794
1467.63755	0.66570
1465.70898	0.66400
1463.78042	0.66271
1461.85186	0.66154
1459.92329	0.66084
1457.99473	0.66072
1456.06616	0.65985
1454.13760	0.65741
1452.20903	0.65494
1450.28047	0.65267
1448.35190	0.65051
1446.42334	0.64815
1444.49478	0.64562
1442.56621	0.64330
1440.63765	0.64130
1438.70908	0.63960
1436.78052	0.63761
1434.85195	0.63507
1432.92339	0.63281
1430.99482	0.63116
1429.06626	0.62989
1427.13770	0.62901
1425.20913	0.62874
1423.28057	0.62896
1421.35200	0.62908
1419.42344	0.62874
1417.49487	0.62780
1415.56631	0.62641
1413.63774	0.62509
1411.70918	0.62407
1409.78062	0.62353
1407.85205	0.62340
1405.92349	0.62348
1403.99492	0.62348
1402.06636	0.62298
1400.13779	0.62207
1398.20923	0.62071
1396.28066	0.61877
1394.35210	0.61617
1392.42354	0.61326
1390.49497	0.61055
1388.56641	0.60788
1386.63784	0.60472
1384.70928	0.60133
1382.78071	0.59834
1380.85215	0.59580
1378.92358	0.59362
1376.99502	0.59189
1375.06646	0.59062
1373.13789	0.58952
1371.20933	0.58859
1369.28076	0.58791
1367.35220	0.58708
1365.42363	0.58590
1363.49507	0.58462
1361.56650	0.58326
1359.63794	0.58178
1357.70937	0.58046
1355.78081	0.57930
1353.85225	0.57821
1351.92368	0.57728
1349.99512	0.57644
1348.06655	0.57559
1346.13799	0.57471
1344.20942	0.57375
1342.28086	0.57271
1340.35229	0.57176
1338.42373	0.57091
1336.49517	0.57004
1334.56660	0.56926
1332.63804	0.56879
1330.70947	0.56852
1328.78091	0.56825
1326.85234	0.56802
1324.92378	0.56800
1322.99521	0.56821
1321.06665	0.56844
1319.13809	0.56847
1317.20952	0.56825
1315.28096	0.56787
1313.35239	0.56726
1311.42383	0.56643
1309.49526	0.56557
1307.56670	0.56476
1305.63813	0.56390
1303.70957	0.56294
1301.78101	0.56200
1299.85244	0.56118
1297.92388	0.56029
1295.99531	0.55924
1294.06675	0.55821
1292.13818	0.55731
1290.20962	0.55639
1288.28105	0.55547
1286.35249	0.55468
1284.42393	0.55385
1282.49536	0.55291
1280.56680	0.55196
1278.63823	0.55086
1276.70967	0.54967
1274.78110	0.54876
1272.85254	0.54826
1270.92397	0.54793
1268.99541	0.54751
1267.06685	0.54687
1265.13828	0.54595
1263.20972	0.54502
1261.28115	0.54443
1259.35259	0.54417
1257.42402	0.54393
1255.49546	0.54354
1253.56689	0.54311
1251.63833	0.54284
1249.70977	0.54269
1247.78120	0.54262
1245.85264	0.54251
1243.92407	0.54210
1241.99551	0.54141
1240.06694	0.54053
1238.13838	0.53938
1236.20981	0.53795
1234.28125	0.53645
1232.35269	0.53501
1230.42412	0.53359
1228.49556	0.53212
1226.56699	0.53067
1224.63843	0.52939
1222.70986	0.52824
1220.78130	0.52711
1218.85273	0.52589
1216.92417	0.52469
1214.99561	0.52369
1213.06704	0.52291
1211.13848	0.52224
1209.20991	0.52157
1207.28135	0.52100
1205.35278	0.52045
1203.42422	0.51968
1201.49565	0.51871
1199.56709	0.51787
1197.63853	0.51716
1195.70996	0.51642
1193.78140	0.51575
1191.85283	0.51520
1189.92427	0.51474
1187.99570	0.51438
1186.06714	0.51411
1184.13857	0.51401
1182.21001	0.51424
1180.28145	0.51476
1178.35288	0.51540
1176.42432	0.51616
1174.49575	0.51693
1172.56719	0.51756
1170.63862	0.51815
1168.71006	0.51880
1166.78149	0.51934
1164.85293	0.51971
1162.92437	0.51998
1160.99580	0.52014
1159.06724	0.52019
1157.13867	0.52016
1155.21011	0.51980
1153.28154	0.51885
1151.35298	0.51730
1149.42441	0.51525
1147.49585	0.51305
1145.56729	0.51091
1143.63872	0.50866
1141.71016	0.50628
1139.78159	0.50413
1137.85303	0.50258
1135.92446	0.50146
1133.99590	0.50066
1132.06733	0.50011
1130.13877	0.49960
1128.21021	0.49915
1126.28164	0.49876
1124.35308	0.49825
1122.42451	0.49761
1120.49595	0.49712
1118.56738	0.49703
1116.63882	0.49731
1114.71025	0.49782
1112.78169	0.49842
1110.85312	0.49901
1108.92456	0.49956
1106.99600	0.50023
1105.06743	0.50117
1103.13887	0.50220
1101.21030	0.50327
1099.28174	0.50461
1097.35317	0.50670
1095.42461	0.50972
1093.49604	0.51345
1091.56748	0.51802
1089.63892	0.52388
1087.71035	0.53114
1085.78179	0.53923
1083.85322	0.54743
1081.92466	0.55512
1079.99609	0.56109
1078.06753	0.56421
1076.13896	0.56422
1074.21040	0.56141
1072.28184	0.55628
1070.35327	0.54960
1068.42471	0.54218
1066.49614	0.53484
1064.56758	0.52826
1062.63901	0.52254
1060.71045	0.51752
1058.78188	0.51332
1056.85332	0.50973
1054.92476	0.50627
1052.99619	0.50303
1051.06763	0.50054
1049.13906	0.49925
1047.21050	0.49897
1045.28193	0.49903
1043.35337	0.49906
1041.42480	0.49919
1039.49624	0.49926
1037.56768	0.49899
1035.63911	0.49850
1033.71055	0.49802
1031.78198	0.49743
1029.85342	0.49639
1027.92485	0.49497
1025.99629	0.49349
1024.06772	0.49225
1022.13916	0.49161
1020.21060	0.49158
1018.28203	0.49172
1016.35347	0.49193
1014.42490	0.49202
1012.49634	0.49175
1010.56777	0.49156
1008.63921	0.49184
1006.71064	0.49254
1004.78208	0.49372
1002.85352	0.49555
1000.92495	0.49805
998.99639	0.50118
997.06782	0.50497
995.13926	0.50914
993.21069	0.51313
991.28213	0.51639
989.35356	0.51844
987.42500	0.51926
985.49644	0.51942
983.56787	0.51954
981.63931	0.51990
979.71074	0.52079
977.78218	0.52250
975.85361	0.52484
973.92505	0.52731
971.99648	0.53000
970.06792	0.53332
968.13936	0.53712
966.21079	0.54106
964.28223	0.54528
962.35366	0.54999
960.42510	0.55537
958.49653	0.56142
956.56797	0.56756
954.63940	0.57342
952.71084	0.57947
950.78228	0.58619
948.85371	0.59308
946.92515	0.59945
944.99658	0.60540
943.06802	0.61163
941.13945	0.61836
939.21089	0.62463
937.28232	0.63022
935.35376	0.63588
933.42520	0.64159
931.49663	0.64721
929.56807	0.65314
927.63950	0.65955
925.71094	0.66636
923.78237	0.67295
921.85381	0.67901
919.92524	0.68528
917.99668	0.69251
916.06812	0.70074
914.13955	0.70918
912.21099	0.71702
910.28242	0.72479
908.35386	0.73336
906.42529	0.74229
904.49673	0.75074
902.56816	0.75919
900.63960	0.76810
898.71104	0.77702
896.78247	0.78684
894.85391	0.79868
892.92534	0.81094
890.99678	0.82190
889.06821	0.83233
887.13965	0.84260
885.21108	0.85289
883.28252	0.86448
881.35396	0.87690
879.42539	0.88823
877.49683	0.89856
875.56826	0.90993
873.63970	0.92321
871.71113	0.93669
869.78257	0.94822
867.85400	0.95842
865.92544	0.96908
863.99687	0.98089
862.06831	0.99314
860.13975	1.00463
858.21118	1.01607
856.28262	1.02855
854.35405	1.04232
852.42549	1.05640
850.49692	1.06914
848.56836	1.08002
846.63979	1.08902
844.71123	1.09881
842.78267	1.11168
840.85410	1.12385
838.92554	1.13348
836.99697	1.14555
835.06841	1.15961
833.13984	1.17342
831.21128	1.19375
829.28271	1.21907
827.35415	1.23614
825.42559	1.24656
823.49702	1.25813
821.56846	1.26812
819.63989	1.27936
817.71133	1.29260
815.78276	1.30090
813.85420	1.30443
811.92563	1.31523
809.99707	1.34176
808.06851	1.37001
806.13994	1.38504
804.21138	1.39832
802.28281	1.42464
800.35425	1.45684
798.42568	1.50312
796.49712	1.56163
794.56855	1.58116
792.63999	1.58859
790.71143	1.65325
788.78286	1.76527
786.85430	1.88524
784.92573	1.96990
782.99717	4.69798
781.06860	4.68641
779.14004	4.67484
777.21147	2.05018
775.28291	1.72199
773.35435	1.64648
771.42578	1.59071
769.49722	1.59017
767.56865	1.71441
765.64009	1.99013
763.71152	1.61404
761.78296	1.29183
759.85439	1.19746
757.92583	1.24525
755.99727	1.38208
754.06870	1.55751
752.14014	1.77018
750.21157	1.66692
748.28301	1.34973
746.35444	1.14101
744.42588	1.01497
742.49731	0.96293
740.56875	0.97004
738.64019	0.97042
736.71162	0.89443
734.78306	0.80092
732.85449	0.73592
730.92593	0.66886
728.99736	0.57308
727.06880	0.50544
725.14023	0.46073
723.21167	0.35925
721.28311	0.25326
719.35454	0.20575
717.42598	0.21253
715.49741	0.17343
713.56885	-0.01979
711.64028	-0.20184
709.71172	-0.21941
707.78315	-0.11187
705.85459	-0.03140
703.92603	-0.00153
701.99746	-0.07691
700.06890	-0.15925
698.14033	-0.12614
696.21177	-0.00937
694.28320	0.11056
692.35464	0.21423
690.42607	0.28059
688.49751	0.22879
686.56895	0.14717
684.64038	0.13394
682.71182	0.15232
680.78325	0.08768
678.85469	0.01800
676.92612	0.06327
674.99756	0.09961
673.06899	0.05116
671.14043	-0.00263
669.21187	-0.02685
667.28330	-0.02142
665.35474	-0.00522
663.42617	0.00410
661.49761	0.00839
659.56904	0.05333
657.64048	0.16690
655.71191	0.26162
653.78335	0.22170
651.85479	0.05146
649.92622	-0.11235
647.99766	-0.09351
646.06909	0.01775
644.14053	0.08273
642.21196	0.07034
640.28340	0.03600
638.35483	0.00725
636.42627	0.03949
634.49771	0.23274
632.56914	0.38000
630.64058	0.24735
628.71201	0.14558
626.78345	0.11604
624.85488	0.08599
622.92632	0.06391
620.99775	0.08563
619.06919	0.13638
617.14062	0.18127
615.21206	0.18643
613.28350	0.15212
611.35493	0.12449
609.42637	0.10806
607.49780	0.12568
605.56924	0.21051
603.64067	0.23288
601.71211	0.12852
599.78354	0.06013
597.85498	0.10607
595.92642	0.14738
593.99785	0.06869
592.06929	0.00845
590.14072	0.08237
588.21216	0.18253
586.28359	0.19598
584.35503	0.17048
582.42646	0.22472
580.49790	0.26011
578.56934	0.20429
576.64077	0.10616
574.71221	0.01149
572.78364	0.01111
570.85508	0.09928
568.92651	0.16146
566.99795	0.17745
565.06938	0.24537
563.14082	0.41534
561.21226	0.42097
559.28369	0.26199
557.35513	0.10097
555.42656	0.02487
553.49800	0.03465
551.56943	0.05959
549.64087	0.09392
547.71230	0.09982
545.78374	0.05914
543.85518	0.04367
541.92661	0.05543
539.99805	0.05423
538.06948	0.05537
536.14092	0.07128
534.21235	0.09826
532.28379	0.14589
530.35522	0.19932
528.42666	0.18644
526.49810	0.11476
524.56953	0.05867
522.64097	0.04447
520.71240	0.05487
518.78384	0.06691
516.85527	0.10624
514.92671	0.18863
512.99814	0.22651
511.06958	0.18476
509.14102	0.12607
507.21245	0.06180
505.28389	0.03649
503.35532	0.06447
501.42676	0.09489
499.49819	0.12735
