3997.91411	0.06422
3995.98555	0.06443
3994.05698	0.06506
3992.12842	0.06572
3990.19985	0.06616
3988.27129	0.06641
3986.34272	0.06653
3984.41416	0.06673
3982.48560	0.06692
3980.55703	0.06695
3978.62847	0.06704
3976.69990	0.06759
3974.77134	0.06849
3972.84277	0.06910
3970.91421	0.06913
3968.98564	0.06882
3967.05708	0.06850
3965.12852	0.06828
3963.19995	0.06831
3961.27139	0.06882
3959.34282	0.06935
3957.41426	0.06933
3955.48569	0.06934
3953.55713	0.06976
3951.62856	0.07020
3949.70000	0.07068
3947.77144	0.07104
3945.84287	0.07069
3943.91431	0.07062
3941.98574	0.07133
3940.05718	0.07102
3938.12861	0.06953
3936.20005	0.06844
3934.27148	0.06865
3932.34292	0.07002
3930.41436	0.07118
3928.48579	0.07122
3926.55723	0.07114
3924.62866	0.07160
3922.70010	0.07169
3920.77153	0.07123
3918.84297	0.07132
3916.91440	0.07195
3914.98584	0.07165
3913.05728	0.07007
3911.12871	0.06852
3909.20015	0.06799
3907.27158	0.06886
3905.34302	0.07123
3903.41445	0.07414
3901.48589	0.07557
3899.55732	0.07519
3897.62876	0.07358
3895.70020	0.07176
3893.77163	0.07165
3891.84307	0.07331
3889.91450	0.07349
3887.98594	0.07141
3886.05737	0.07085
3884.12881	0.07240
3882.20024	0.07381
3880.27168	0.07459
3878.34312	0.07376
3876.41455	0.07225
3874.48599	0.07316
3872.55742	0.07600
3870.62886	0.07845
3868.70029	0.07930
3866.77173	0.07850
3864.84316	0.07851
3862.91460	0.07901
3860.98604	0.07747
3859.05747	0.07571
3857.12891	0.07604
3855.20034	0.07844
3853.27178	0.08286
3851.34321	0.08517
3849.41465	0.08163
3847.48608	0.07794
3845.55752	0.07690
3843.62896	0.07834
3841.70039	0.08117
3839.77183	0.08473
3837.84326	0.08800
3835.91470	0.08816
3833.98613	0.08601
3832.05757	0.08465
3830.12900	0.08415
3828.20044	0.08404
3826.27187	0.08482
3824.34331	0.08636
3822.41475	0.08918
3820.48618	0.09323
3818.55762	0.09424
3816.62905	0.09288
3814.70049	0.09171
3812.77192	0.08970
3810.84336	0.08823
3808.91479	0.08918
3806.98623	0.09271
3805.05767	0.09615
3803.12910	0.09825
3801.20054	0.10117
3799.27197	0.10252
3797.34341	0.10135
3795.41484	0.10050
3793.48628	0.09943
3791.55771	0.09843
3789.62915	0.09861
3787.70059	0.09994
3785.77202	0.10243
3783.84346	0.10525
3781.91489	0.10735
3779.98633	0.10960
3778.05776	0.11165
3776.12920	0.11169
3774.20063	0.11151
3772.27207	0.11338
3770.34351	0.11708
3768.41494	0.12063
3766.48638	0.12258
3764.55781	0.12388
3762.62925	0.12526
3760.70068	0.12763
3758.77212	0.13112
3756.84355	0.13392
3754.91499	0.13633
3752.98643	0.14095
3751.05786	0.14872
3749.12930	0.15508
3747.20073	0.15607
3745.27217	0.15725
3743.34360	0.16048
3741.41504	0.16277
3739.48647	0.16555
3737.55791	0.17146
3735.62935	0.18084
3733.70078	0.18934
3731.77222	0.19199
3729.84365	0.19269
3727.91509	0.19540
3725.98652	0.20081
3724.05796	0.20742
3722.12939	0.21331
3720.20083	0.21810
3718.27227	0.22206
3716.34370	0.22653
3714.41514	0.23323
3712.48657	0.24442
3710.55801	0.26061
3708.62944	0.27487
3706.70088	0.28402
3704.77231	0.29320
3702.84375	0.30604
3700.91519	0.32344
3698.98662	0.34144
3697.05806	0.35773
3695.12949	0.37503
3693.20093	0.39424
3691.27236	0.41676
3689.34380	0.44600
3687.41523	0.47877
3685.48667	0.50522
3683.55811	0.52795
3681.62954	0.55401
3679.70098	0.58546
3677.77241	0.61997
3675.84385	0.66084
3673.91528	0.71292
3671.98672	0.75442
3670.05815	0.79214
3668.12959	0.84227
3666.20103	0.88648
3664.27246	0.92445
3662.34390	0.96722
3660.41533	1.01418
3658.48677	1.06044
3656.55820	1.10972
3654.62964	1.16424
3652.70107	1.21042
3650.77251	1.25251
3648.84395	1.31018
3646.91538	1.37589
3644.98682	1.42185
3643.05825	1.45846
3641.12969	1.49803
3639.20112	1.54192
3637.27256	1.58630
3635.34399	1.63043
3633.41543	1.67450
3631.48687	1.71565
3629.55830	1.75814
3627.62974	1.81194
3625.70117	1.86028
3623.77261	1.89356
3621.84404	1.92590
3619.91548	1.96339
3617.98691	2.00977
3616.05835	2.05443
3614.12979	2.09026
3612.20122	2.12660
3610.27266	2.16450
3608.34409	2.20558
3606.41553	2.24932
3604.48696	2.28795
3602.55840	2.32259
3600.62983	2.36131
3598.70127	2.40353
3596.77271	2.44383
3594.84414	2.48327
3592.91558	2.52304
3590.98701	2.56070
3589.05845	2.59786
3587.12988	2.64354
3585.20132	2.69177
3583.27275	2.73057
3581.34419	2.76680
3579.41562	2.80731
3577.48706	2.85057
3575.55850	2.89386
3573.62993	2.93708
3571.70137	2.97814
3569.77280	3.01895
3567.84424	3.06490
3565.91567	3.11833
3563.98711	3.16601
3562.05854	3.20420
3560.12998	3.24433
3558.20142	3.28854
3556.27285	3.33336
3554.34429	3.37922
3552.41572	3.42788
3550.48716	3.47458
3548.55859	3.51844
3546.63003	3.56410
3544.70146	3.61471
3542.77290	3.66610
3540.84434	3.71313
3538.91577	3.75762
3536.98721	3.80039
3535.05864	3.84367
3533.13008	3.88942
3531.20151	3.93849
3529.27295	3.99073
3527.34438	4.04529
3525.41582	4.09662
3523.48726	4.14240
3521.55869	4.18996
3519.63013	4.23800
3517.70156	4.28060
3515.77300	4.32230
3513.84443	4.37071
3511.91587	4.42314
3509.98730	4.47499
3508.05874	4.52566
3506.13018	4.57523
3504.20161	4.62320
3502.27305	4.67185
3500.34448	4.72389
3498.41592	4.77324
3496.48735	4.81973
3494.55879	4.86657
3492.63022	4.91049
3490.70166	4.95431
3488.77310	5.00408
3486.84453	5.05539
3484.91597	5.10160
3482.98740	5.14741
3481.05884	5.19918
3479.13027	5.25714
3477.20171	5.31545
3475.27314	5.36135
3473.34458	5.39435
3471.41602	5.42718
3469.48745	5.46799
3467.55889	5.52071
3465.63032	5.57911
3463.70176	5.63321
3461.77319	5.68210
3459.84463	5.73475
3457.91606	5.78936
3455.98750	5.83316
3454.05894	5.87403
3452.13037	5.92717
3450.20181	5.98274
3448.27324	6.02665
3446.34468	6.07396
3444.41611	6.13248
3442.48755	6.18405
3440.55898	6.22358
3438.63042	6.26978
3436.70186	6.31595
3434.77329	6.34942
3432.84473	6.40227
3430.91616	6.48049
3428.98760	6.55669
3427.05903	6.61009
3425.13047	6.62386
3423.20190	6.63390
3421.27334	6.69990
3419.34478	6.79782
3417.41621	6.87427
3415.48765	6.92322
3413.55908	6.94232
3411.63052	6.95010
3409.70195	6.96991
3407.77339	7.00466
3405.84482	7.05676
3403.91626	7.12621
3401.98770	7.18401
3400.05913	7.22504
3398.13057	7.26858
3396.20200	7.31439
3394.27344	7.35658
3392.34487	7.37236
3390.41631	7.38131
3388.48774	7.40963
3386.55918	7.44259
3384.63062	7.45409
3382.70205	7.46543
3380.77349	7.52613
3378.84492	7.62073
3376.91636	7.69329
3374.98779	7.72437
3373.05923	7.72120
3371.13066	7.67752
3369.20210	7.67354
3367.27354	7.75144
3365.34497	7.84010
3363.41641	7.92706
3361.48784	8.01128
3359.55928	8.03564
3357.63071	8.02680
3355.70215	8.03984
3353.77358	8.06646
3351.84502	8.11120
3349.91646	8.12131
3347.98789	8.06939
3346.05933	8.04075
3344.13076	8.07931
3342.20220	8.09912
3340.27363	8.07879
3338.34507	8.11580
3336.41650	8.14519
3334.48794	8.12466
3332.55937	8.15072
3330.63081	8.25595
3328.70225	8.37778
3326.77368	8.44022
3324.84512	8.40124
3322.91655	8.30672
3320.98799	8.26702
3319.05942	8.25817
3317.13086	8.24411
3315.20229	8.28827
3313.27373	8.36726
3311.34517	8.34471
3309.41660	8.26513
3307.48804	8.22739
3305.55947	8.18997
3303.63091	8.15963
3301.70234	8.16982
3299.77378	8.19769
3297.84521	8.24951
3295.91665	8.36107
3293.98809	8.40492
3292.05952	8.29491
3290.13096	8.17828
3288.20239	8.20078
3286.27383	8.32373
3284.34526	8.32106
3282.41670	8.25294
3280.48813	8.31277
3278.55957	8.37536
3276.63101	8.27812
3274.70244	8.18050
3272.77388	8.19049
3270.84531	8.25931
3268.91675	8.35320
3266.98818	8.40115
3265.05962	8.39401
3263.13105	8.40229
3261.20249	8.41661
3259.27393	8.36328
3257.34536	8.28347
3255.41680	8.24822
3253.48823	8.28375
3251.55967	8.39032
3249.63110	8.46052
3247.70254	8.45703
3245.77397	8.41531
3243.84541	8.32837
3241.91685	8.26010
3239.98828	8.27793
3238.05972	8.35179
3236.13115	8.38101
3234.20259	8.30165
3232.27402	8.24776
3230.34546	8.34490
3228.41689	8.44640
3226.48833	8.39771
3224.55977	8.33307
3222.63120	8.31921
3220.70264	8.24392
3218.77407	8.16480
3216.84551	8.17237
3214.91694	8.12934
3212.98838	7.99272
3211.05981	7.88854
3209.13125	7.84234
3207.20269	7.84529
3205.27412	7.91353
3203.34556	7.97285
3201.41699	7.95941
3199.48843	7.95858
3197.55986	7.97922
3195.63130	7.93388
3193.70273	7.84754
3191.77417	7.77886
3189.84561	7.72558
3187.91704	7.64555
3185.98848	7.53461
3184.05991	7.44952
3182.13135	7.40085
3180.20278	7.36862
3178.27422	7.34181
3176.34565	7.28657
3174.41709	7.18547
3172.48853	7.09326
3170.55996	7.04814
3168.63140	7.01880
3166.70283	6.97093
3164.77427	6.90077
3162.84570	6.83449
3160.91714	6.77316
3158.98857	6.69398
3157.06001	6.61837
3155.13145	6.57585
3153.20288	6.54748
3151.27432	6.48234
3149.34575	6.37731
3147.41719	6.28634
3145.48862	6.23652
3143.56006	6.20125
3141.63149	6.14036
3139.70293	6.05376
3137.77437	5.96845
3135.84580	5.89855
3133.91724	5.84717
3131.98867	5.79242
3130.06011	5.71349
3128.13154	5.62239
3126.20298	5.53303
3124.27441	5.45380
3122.34585	5.38735
3120.41729	5.32402
3118.48872	5.25114
3116.56016	5.17407
3114.63159	5.10211
3112.70303	5.02897
3110.77446	4.95438
3108.84590	4.88267
3106.91733	4.81014
3104.98877	4.73981
3103.06021	4.67782
3101.13164	4.61576
3099.20308	4.54989
3097.27451	4.48841
3095.34595	4.42817
3093.41738	4.36268
3091.48882	4.29620
3089.56025	4.23256
3087.63169	4.16921
3085.70312	4.10485
3083.77456	4.04106
3081.84600	3.97954
3079.91743	3.92064
3077.98887	3.86099
3076.06030	3.79820
3074.13174	3.73688
3072.20317	3.68084
3070.27461	3.62557
3068.34604	3.56712
3066.41748	3.50823
3064.48892	3.45167
3062.56035	3.39613
3060.63179	3.34096
3058.70322	3.28686
3056.77466	3.23308
3054.84609	3.17925
3052.91753	3.12602
3050.98896	3.07479
3049.06040	3.02505
3047.13184	2.97480
3045.20327	2.92456
3043.27471	2.87519
3041.34614	2.82682
3039.41758	2.77983
3037.48901	2.73355
3035.56045	2.68741
3033.63188	2.64198
3031.70332	2.59667
3029.77476	2.55130
3027.84619	2.50788
3025.91763	2.46607
3023.98906	2.42351
3022.06050	2.38001
3020.13193	2.33702
3018.20337	2.29546
3016.27480	2.25537
3014.34624	2.21621
3012.41768	2.17698
3010.48911	2.13789
3008.56055	2.10016
3006.63198	2.06374
3004.70342	2.02781
3002.77485	1.99238
3000.84629	1.95801
2998.91772	1.92455
2996.98916	1.89180
2995.06060	1.85990
2993.13203	1.82855
2991.20347	1.79759
2989.27490	1.76743
2987.34634	1.73816
2985.41777	1.70983
2983.48921	1.68226
2981.56064	1.65479
2979.63208	1.62775
2977.70352	1.60164
2975.77495	1.57605
2973.84639	1.55104
2971.91782	1.52669
2969.98926	1.50229
2968.06069	1.47763
2966.13213	1.45316
2964.20356	1.42911
2962.27500	1.40565
2960.34644	1.38262
2958.41787	1.35921
2956.48931	1.33509
2954.56074	1.31108
2952.63218	1.28799
2950.70361	1.26550
2948.77505	1.24279
2946.84648	1.21988
2944.91792	1.19800
2942.98936	1.17762
2941.06079	1.15769
2939.13223	1.13747
2937.20366	1.11709
2935.27510	1.09660
2933.34653	1.07617
2931.41797	1.05595
2929.48940	1.03585
2927.56084	1.01628
2925.63228	0.99716
2923.70371	0.97844
2921.77515	0.96080
2919.84658	0.94392
2917.91802	0.92724
2915.98945	0.91078
2914.06089	0.89462
2912.13232	0.87885
2910.20376	0.86320
2908.27520	0.84753
2906.34663	0.83221
2904.41807	0.81741
2902.48950	0.80335
2900.56094	0.79005
2898.63237	0.77694
2896.70381	0.76403
2894.77524	0.75163
2892.84668	0.73934
2890.91812	0.72721
2888.98955	0.71574
2887.06099	0.70484
2885.13242	0.69440
2883.20386	0.68447
2881.27529	0.67465
2879.34673	0.66453
2877.41816	0.65440
2875.48960	0.64461
2873.56104	0.63485
2871.63247	0.62463
2869.70391	0.61365
2867.77534	0.60196
2865.84678	0.58994
2863.91821	0.57798
2861.98965	0.56618
2860.06108	0.55458
2858.13252	0.54343
2856.20396	0.53318
2854.27539	0.52387
2852.34683	0.51497
2850.41826	0.50624
2848.48970	0.49805
2846.56113	0.49052
2844.63257	0.48344
2842.70400	0.47686
2840.77544	0.47053
2838.84687	0.46402
2836.91831	0.45755
2834.98975	0.45147
2833.06118	0.44565
2831.13262	0.43972
2829.20405	0.43362
2827.27549	0.42751
2825.34692	0.42144
2823.41836	0.41547
2821.48979	0.40955
2819.56123	0.40357
2817.63267	0.39782
2815.70410	0.39248
2813.77554	0.38731
2811.84697	0.38201
2809.91841	0.37647
2807.98984	0.37080
2806.06128	0.36524
2804.13271	0.35985
2802.20415	0.35462
2800.27559	0.34964
2798.34702	0.34483
2796.41846	0.34013
2794.48989	0.33554
2792.56133	0.33097
2790.63276	0.32634
2788.70420	0.32171
2786.77563	0.31714
2784.84707	0.31282
2782.91851	0.30875
2780.98994	0.30468
2779.06138	0.30052
2777.13281	0.29644
2775.20425	0.29244
2773.27568	0.28856
2771.34712	0.28498
2769.41855	0.28157
2767.48999	0.27800
2765.56143	0.27435
2763.63286	0.27074
2761.70430	0.26716
2759.77573	0.26368
2757.84717	0.26035
2755.91860	0.25717
2753.99004	0.25414
2752.06147	0.25129
2750.13291	0.24852
2748.20435	0.24569
2746.27578	0.24280
2744.34722	0.23998
2742.41865	0.23729
2740.49009	0.23461
2738.56152	0.23185
2736.63296	0.22912
2734.70439	0.22657
2732.77583	0.22415
2730.84727	0.22179
2728.91870	0.21952
2726.99014	0.21730
2725.06157	0.21513
2723.13301	0.21304
2721.20444	0.21093
2719.27588	0.20873
2717.34731	0.20659
2715.41875	0.20457
2713.49019	0.20258
2711.56162	0.20059
2709.63306	0.19867
2707.70449	0.19683
2705.77593	0.19517
2703.84736	0.19383
2701.91880	0.19262
2699.99023	0.19119
2698.06167	0.18956
2696.13311	0.18802
2694.20454	0.18673
2692.27598	0.18548
2690.34741	0.18406
2688.41885	0.18261
2686.49028	0.18128
2684.56172	0.18002
2682.63315	0.17877
2680.70459	0.17762
2678.77603	0.17659
2676.84746	0.17551
2674.91890	0.17432
2672.99033	0.17321
2671.06177	0.17220
2669.13320	0.17107
2667.20464	0.16985
2665.27607	0.16884
2663.34751	0.16802
2661.41895	0.16717
2659.49038	0.16625
2657.56182	0.16536
2655.63325	0.16452
2653.70469	0.16377
2651.77612	0.16316
2649.84756	0.16254
2647.91899	0.16175
2645.99043	0.16098
2644.06187	0.16043
2642.13330	0.16001
2640.20474	0.15956
2638.27617	0.15900
2636.34761	0.15841
2634.41904	0.15785
2632.49048	0.15737
2630.56191	0.15697
2628.63335	0.15660
2626.70479	0.15619
2624.77622	0.15580
2622.84766	0.15559
2620.91909	0.15542
2618.99053	0.15504
2617.06196	0.15454
2615.13340	0.15428
2613.20483	0.15421
2611.27627	0.15407
2609.34771	0.15380
2607.41914	0.15357
2605.49058	0.15346
2603.56201	0.15339
2601.63345	0.15333
2599.70488	0.15328
2597.77632	0.15328
2595.84775	0.15332
2593.91919	0.15335
2591.99062	0.15341
2590.06206	0.15353
2588.13350	0.15366
2586.20493	0.15371
2584.27637	0.15369
2582.34780	0.15379
2580.41924	0.15401
2578.49067	0.15428
2576.56211	0.15470
2574.63354	0.15515
2572.70498	0.15553
2570.77642	0.15592
2568.84785	0.15628
2566.91929	0.15654
2564.99072	0.15678
2563.06216	0.15711
2561.13359	0.15754
2559.20503	0.15801
2557.27646	0.15840
2555.34790	0.15878
2553.41934	0.15920
2551.49077	0.15961
2549.56221	0.16011
2547.63364	0.16074
2545.70508	0.16139
2543.77651	0.16200
2541.84795	0.16252
2539.91938	0.16300
2537.99082	0.16359
2536.06226	0.16430
2534.13369	0.16497
2532.20513	0.16557
2530.27656	0.16623
2528.34800	0.16686
2526.41943	0.16743
2524.49087	0.16802
2522.56230	0.16865
2520.63374	0.16936
2518.70518	0.17017
2516.77661	0.17097
2514.84805	0.17163
2512.91948	0.17220
2510.99092	0.17291
2509.06235	0.17395
2507.13379	0.17511
2505.20522	0.17589
2503.27666	0.17629
2501.34810	0.17682
2499.41953	0.17770
2497.49097	0.17868
2495.56240	0.17951
2493.63384	0.18026
2491.70527	0.18108
2489.77671	0.18185
2487.84814	0.18255
2485.91958	0.18335
2483.99102	0.18420
2482.06245	0.18496
2480.13389	0.18581
2478.20532	0.18680
2476.27676	0.18777
2474.34819	0.18869
2472.41963	0.18954
2470.49106	0.19035
2468.56250	0.19116
2466.63394	0.19203
2464.70537	0.19292
2462.77681	0.19371
2460.84824	0.19449
2458.91968	0.19542
2456.99111	0.19645
2455.06255	0.19750
2453.13398	0.19843
2451.20542	0.19922
2449.27686	0.20017
2447.34829	0.20132
2445.41973	0.20239
2443.49116	0.20337
2441.56260	0.20432
2439.63403	0.20523
2437.70547	0.20615
2435.77690	0.20708
2433.84834	0.20801
2431.91978	0.20897
2429.99121	0.20994
2428.06265	0.21089
2426.13408	0.21192
2424.20552	0.21302
2422.27695	0.21410
2420.34839	0.21525
2418.41982	0.21646
2416.49126	0.21763
2414.56270	0.21880
2412.63413	0.21990
2410.70557	0.22087
2408.77700	0.22192
2406.84844	0.22320
2404.91987	0.22445
2402.99131	0.22551
2401.06274	0.22657
2399.13418	0.22772
2397.20562	0.22898
2395.27705	0.23038
2393.34849	0.23178
2391.41992	0.23312
2389.49136	0.23461
2387.56279	0.23663
2385.63423	0.23963
2383.70566	0.24405
2381.77710	0.25004
2379.84854	0.25739
2377.91997	0.26609
2375.99141	0.27619
2374.06284	0.28779
2372.13428	0.30100
2370.20571	0.31532
2368.27715	0.32973
2366.34858	0.34309
2364.42002	0.35462
2362.49146	0.36400
2360.56289	0.36994
2358.63433	0.37097
2356.70576	0.36685
2354.77720	0.35761
2352.84863	0.34468
2350.92007	0.33135
2348.99150	0.32319
2347.06294	0.32342
2345.13437	0.33259
2343.20581	0.34606
2341.27725	0.35398
2339.34868	0.35466
2337.42012	0.35330
2335.49155	0.35295
2333.56299	0.35305
2331.63442	0.35297
2329.70586	0.35240
2327.77729	0.35098
2325.84873	0.34833
2323.92017	0.34490
2321.99160	0.34135
2320.06304	0.33739
2318.13447	0.33309
2316.20591	0.32974
2314.27734	0.32802
2312.34878	0.32708
2310.42021	0.32582
2308.49165	0.32408
2306.56309	0.32219
2304.63452	0.32056
2302.70596	0.31988
2300.77739	0.32014
2298.84883	0.32053
2296.92026	0.32074
2294.99170	0.32097
2293.06313	0.32128
2291.13457	0.32167
2289.20601	0.32210
2287.27744	0.32262
2285.34888	0.32333
2283.42031	0.32438
2281.49175	0.32595
2279.56318	0.32807
2277.63462	0.33046
2275.70605	0.33299
2273.77749	0.33555
2271.84893	0.33785
2269.92036	0.33982
2267.99180	0.34163
2266.06323	0.34353
2264.13467	0.34551
2262.20610	0.34742
2260.27754	0.34926
2258.34897	0.35114
2256.42041	0.35296
2254.49185	0.35475
2252.56328	0.35659
2250.63472	0.35845
2248.70615	0.36032
2246.77759	0.36232
2244.84902	0.36441
2242.92046	0.36652
2240.99189	0.36861
2239.06333	0.37069
2237.13477	0.37275
2235.20620	0.37481
2233.27764	0.37700
2231.34907	0.37933
2229.42051	0.38168
2227.49194	0.38387
2225.56338	0.38599
2223.63481	0.38818
2221.70625	0.39030
2219.77769	0.39239
2217.84912	0.39461
2215.92056	0.39682
2213.99199	0.39898
2212.06343	0.40118
2210.13486	0.40337
2208.20630	0.40545
2206.27773	0.40749
2204.34917	0.40947
2202.42061	0.41139
2200.49204	0.41336
2198.56348	0.41548
2196.63491	0.41759
2194.70635	0.41954
2192.77778	0.42142
2190.84922	0.42333
2188.92065	0.42516
2186.99209	0.42688
2185.06353	0.42863
2183.13496	0.43044
2181.20640	0.43224
2179.27783	0.43395
2177.34927	0.43553
2175.42070	0.43692
2173.49214	0.43820
2171.56357	0.43956
2169.63501	0.44099
2167.70645	0.44232
2165.77788	0.44362
2163.84932	0.44488
2161.92075	0.44596
2159.99219	0.44689
2158.06362	0.44774
2156.13506	0.44864
2154.20649	0.44960
2152.27793	0.45048
2150.34937	0.45123
2148.42080	0.45191
2146.49224	0.45247
2144.56367	0.45293
2142.63511	0.45326
2140.70654	0.45348
2138.77798	0.45371
2136.84941	0.45387
2134.92085	0.45390
2132.99229	0.45394
2131.06372	0.45398
2129.13516	0.45383
2127.20659	0.45342
2125.27803	0.45288
2123.34946	0.45232
2121.42090	0.45178
2119.49233	0.45122
2117.56377	0.45057
2115.63521	0.44983
2113.70664	0.44902
2111.77808	0.44812
2109.84951	0.44709
2107.92095	0.44593
2105.99238	0.44471
2104.06382	0.44355
2102.13525	0.44237
2100.20669	0.44099
2098.27812	0.43937
2096.34956	0.43779
2094.42100	0.43638
2092.49243	0.43491
2090.56387	0.43326
2088.63530	0.43146
2086.70674	0.42957
2084.77817	0.42767
2082.84961	0.42584
2080.92104	0.42387
2078.99248	0.42178
2077.06392	0.41974
2075.13535	0.41765
2073.20679	0.41543
2071.27822	0.41313
2069.34966	0.41086
2067.42109	0.40861
2065.49253	0.40631
2063.56396	0.40387
2061.63540	0.40141
2059.70684	0.39897
2057.77827	0.39643
2055.84971	0.39382
2053.92114	0.39120
2051.99258	0.38854
2050.06401	0.38586
2048.13545	0.38330
2046.20688	0.38075
2044.27832	0.37811
2042.34976	0.37540
2040.42119	0.37265
2038.49263	0.36990
2036.56406	0.36721
2034.63550	0.36451
2032.70693	0.36165
2030.77837	0.35883
2028.84980	0.35615
2026.92124	0.35341
2024.99268	0.35057
2023.06411	0.34783
2021.13555	0.34519
2019.20698	0.34262
2017.27842	0.33996
2015.34985	0.33700
2013.42129	0.33396
2011.49272	0.33111
2009.56416	0.32841
2007.63560	0.32578
2005.70703	0.32318
2003.77847	0.32049
2001.84990	0.31777
1999.92134	0.31516
1997.99277	0.31260
1996.06421	0.31018
1994.13564	0.30803
1992.20708	0.30589
1990.27852	0.30330
1988.34995	0.30051
1986.42139	0.29784
1984.49282	0.29540
1982.56426	0.29311
1980.63569	0.29079
1978.70713	0.28856
1976.77856	0.28643
1974.85000	0.28427
1972.92144	0.28207
1970.99287	0.28001
1969.06431	0.27823
1967.13574	0.27655
1965.20718	0.27447
1963.27861	0.27215
1961.35005	0.27005
1959.42148	0.26807
1957.49292	0.26624
1955.56436	0.26461
1953.63579	0.26292
1951.70723	0.26115
1949.77866	0.25953
1947.85010	0.25811
1945.92153	0.25687
1943.99297	0.25582
1942.06440	0.25460
1940.13584	0.25279
1938.20728	0.25087
1936.27871	0.24936
1934.35015	0.24807
1932.42158	0.24681
1930.49302	0.24552
1928.56445	0.24431
1926.63589	0.24336
1924.70732	0.24285
1922.77876	0.24240
1920.85020	0.24151
1918.92163	0.24057
1916.99307	0.23971
1915.06450	0.23863
1913.13594	0.23762
1911.20737	0.23700
1909.27881	0.23644
1907.35024	0.23561
1905.42168	0.23472
1903.49312	0.23400
1901.56455	0.23342
1899.63599	0.23291
1897.70742	0.23262
1895.77886	0.23256
1893.85029	0.23232
1891.92173	0.23191
1889.99316	0.23186
1888.06460	0.23172
1886.13604	0.23119
1884.20747	0.23075
1882.27891	0.23042
1880.35034	0.23020
1878.42178	0.23013
1876.49321	0.23012
1874.56465	0.23016
1872.63608	0.23055
1870.70752	0.23157
1868.77896	0.23291
1866.85039	0.23308
1864.92183	0.23214
1862.99326	0.23155
1861.06470	0.23158
1859.13613	0.23194
1857.20757	0.23232
1855.27900	0.23273
1853.35044	0.23316
1851.42187	0.23372
1849.49331	0.23454
1847.56475	0.23570
1845.63618	0.23717
1843.70762	0.23849
1841.77905	0.23873
1839.85049	0.23859
1837.92192	0.23923
1835.99336	0.24018
1834.06479	0.24106
1832.13623	0.24239
1830.20767	0.24455
1828.27910	0.24635
1826.35054	0.24722
1824.42197	0.24819
1822.49341	0.24895
1820.56484	0.24970
1818.63628	0.25094
1816.70771	0.25259
1814.77915	0.25427
1812.85059	0.25624
1810.92202	0.25855
1808.99346	0.26055
1807.06489	0.26220
1805.13633	0.26404
1803.20776	0.26658
1801.27920	0.26958
1799.35063	0.27243
1797.42207	0.27474
1795.49351	0.27726
1793.56494	0.28063
1791.63638	0.28445
1789.70781	0.28713
1787.77925	0.28903
1785.85068	0.29199
1783.92212	0.29575
1781.99355	0.29977
1780.06499	0.30401
1778.13643	0.30828
1776.20786	0.31254
1774.27930	0.31758
1772.35073	0.32416
1770.42217	0.33026
1768.49360	0.33476
1766.56504	0.33922
1764.63647	0.34418
1762.70791	0.35012
1760.77935	0.35758
1758.85078	0.36440
1756.92222	0.37126
1754.99365	0.37867
1753.06509	0.38572
1751.13652	0.39482
1749.20796	0.40604
1747.27939	0.41619
1745.35083	0.42474
1743.42227	0.43401
1741.49370	0.44450
1739.56514	0.45690
1737.63657	0.46921
1735.70801	0.48050
1733.77944	0.49764
1731.85088	0.51685
1729.92231	0.53119
1727.99375	0.54571
1726.06519	0.56196
1724.13662	0.58040
1722.20806	0.60054
1720.27949	0.61984
1718.35093	0.64335
1716.42236	0.67617
1714.49380	0.70513
1712.56523	0.72835
1710.63667	0.75183
1708.70811	0.77801
1706.77954	0.80825
1704.85098	0.84383
1702.92241	0.87541
1700.99385	0.90794
1699.06528	0.95639
1697.13672	0.99960
1695.20815	1.04249
1693.27959	1.08486
1691.35103	1.12060
1689.42246	1.16261
1687.49390	1.20711
1685.56533	1.25109
1683.63677	1.31776
1681.70820	1.38470
1679.77964	1.42743
1677.85107	1.46892
1675.92251	1.51804
1673.99395	1.57914
1672.06538	1.63371
1670.13682	1.68679
1668.20825	1.75435
1666.27969	1.81136
1664.35112	1.86250
1662.42256	1.92707
1660.49399	1.99865
1658.56543	2.05413
1656.63687	2.09920
1654.70830	2.14108
1652.77974	2.20129
1650.85117	2.25512
1648.92261	2.27566
1646.99404	2.29945
1645.06548	2.32027
1643.13691	2.33244
1641.20835	2.33989
1639.27979	2.34880
1637.35122	2.35462
1635.42266	2.34971
1633.49409	2.33604
1631.56553	2.32088
1629.63696	2.30292
1627.70840	2.27209
1625.77983	2.23559
1623.85127	2.19033
1621.92271	2.13424
1619.99414	2.08390
1618.06558	2.03735
1616.13701	1.97280
1614.20845	1.90495
1612.27988	1.85273
1610.35132	1.80011
1608.42275	1.74358
1606.49419	1.68754
1604.56562	1.63633
1602.63706	1.58792
1600.70850	1.54090
1598.77993	1.49708
1596.85137	1.45571
1594.92280	1.41588
1592.99424	1.37791
1591.06567	1.34374
1589.13711	1.31237
1587.20854	1.28339
1585.27998	1.25698
1583.35142	1.23302
1581.42285	1.21144
1579.49429	1.19340
1577.56572	1.17836
1575.63716	1.16080
1573.70859	1.14446
1571.78003	1.13374
1569.85146	1.12420
1567.92290	1.11457
1565.99434	1.10813
1564.06577	1.10485
1562.13721	1.10370
1560.20864	1.10629
1558.28008	1.11486
1556.35151	1.11950
1554.42295	1.12059
1552.49438	1.12295
1550.56582	1.12444
1548.63726	1.12282
1546.70869	1.11803
1544.78013	1.11053
1542.85156	1.09970
1540.92300	1.08115
1538.99443	1.04929
1537.06587	1.02435
1535.13730	1.00769
1533.20874	0.98642
1531.28018	0.96317
1529.35161	0.94619
1527.42305	0.93123
1525.49448	0.91606
1523.56592	0.90312
1521.63735	0.89120
1519.70879	0.87881
1517.78022	0.86787
1515.85166	0.85492
1513.92310	0.84049
1511.99453	0.82786
1510.06597	0.81758
1508.13740	0.80903
1506.20884	0.79408
1504.28027	0.77755
1502.35171	0.76798
1500.42314	0.76108
1498.49458	0.75455
1496.56602	0.74640
1494.63745	0.73735
1492.70889	0.73057
1490.78032	0.72559
1488.85176	0.71983
1486.92319	0.71327
1484.99463	0.70778
1483.06606	0.70398
1481.13750	0.70135
1479.20894	0.69949
1477.28037	0.69893
1475.35181	0.70002
1473.42324	0.70179
1471.49468	0.70126
1469.56611	0.69825
1467.63755	0.69575
1465.70898	0.69458
1463.78042	0.69386
1461.85186	0.69331
1459.92329	0.69407
1457.99473	0.69638
1456.06616	0.69668
1454.13760	0.69303
1452.20903	0.68950
1450.28047	0.68690
1448.35190	0.68477
1446.42334	0.68204
1444.49478	0.67872
1442.56621	0.67560
1440.63765	0.67288
1438.70908	0.67057
1436.78052	0.66770
1434.85195	0.66353
1432.92339	0.65998
1430.99482	0.65803
1429.06626	0.65716
1427.13770	0.65687
1425.20913	0.65739
1423.28057	0.65857
1421.35200	0.65975
1419.42344	0.66104
1417.49487	0.66143
1415.56631	0.66007
1413.63774	0.65891
1411.70918	0.65897
1409.78062	0.66001
1407.85205	0.66167
1405.92349	0.66391
1403.99492	0.66590
1402.06636	0.66662
1400.13779	0.66654
1398.20923	0.66555
1396.28066	0.66301
1394.35210	0.65870
1392.42354	0.65329
1390.49497	0.64845
1388.56641	0.64414
1386.63784	0.63891
1384.70928	0.63292
1382.78071	0.62736
1380.85215	0.62237
1378.92358	0.61815
1376.99502	0.61513
1375.06646	0.61332
1373.13789	0.61197
1371.20933	0.61075
1369.28076	0.60986
1367.35220	0.60888
1365.42363	0.60769
1363.49507	0.60660
1361.56650	0.60505
1359.63794	0.60284
1357.70937	0.60090
1355.78081	0.59946
1353.85225	0.59826
1351.92368	0.59724
1349.99512	0.59639
1348.06655	0.59550
1346.13799	0.59448
1344.20942	0.59351
1342.28086	0.59297
1340.35229	0.59287
1338.42373	0.59251
1336.49517	0.59160
1334.56660	0.59084
1332.63804	0.59063
1330.70947	0.59081
1328.78091	0.59126
1326.85234	0.59196
1324.92378	0.59290
1322.99521	0.59402
1321.06665	0.59522
1319.13809	0.59632
1317.20952	0.59702
1315.28096	0.59716
1313.35239	0.59684
1311.42383	0.59614
1309.49526	0.59530
1307.56670	0.59467
1305.63813	0.59431
1303.70957	0.59389
1301.78101	0.59322
1299.85244	0.59222
1297.92388	0.59097
1295.99531	0.58973
1294.06675	0.58850
1292.13818	0.58715
1290.20962	0.58581
1288.28105	0.58451
1286.35249	0.58309
1284.42393	0.58159
1282.49536	0.58000
1280.56680	0.57833
1278.63823	0.57676
1276.70967	0.57533
1274.78110	0.57416
1272.85254	0.57332
1270.92397	0.57262
1268.99541	0.57197
1267.06685	0.57135
1265.13828	0.57044
1263.20972	0.56921
1261.28115	0.56816
1259.35259	0.56749
1257.42402	0.56695
1255.49546	0.56648
1253.56689	0.56628
1251.63833	0.56634
1249.70977	0.56651
1247.78120	0.56651
1245.85264	0.56609
1243.92407	0.56523
1241.99551	0.56419
1240.06694	0.56296
1238.13838	0.56124
1236.20981	0.55904
1234.28125	0.55661
1232.35269	0.55412
1230.42412	0.55183
1228.49556	0.54971
1226.56699	0.54755
1224.63843	0.54534
1222.70986	0.54331
1220.78130	0.54163
1218.85273	0.54019
1216.92417	0.53874
1214.99561	0.53742
1213.06704	0.53637
1211.13848	0.53555
1209.20991	0.53486
1207.28135	0.53423
1205.35278	0.53350
1203.42422	0.53263
1201.49565	0.53167
1199.56709	0.53070
1197.63853	0.52981
1195.70996	0.52904
1193.78140	0.52833
1191.85283	0.52766
1189.92427	0.52704
1187.99570	0.52662
1186.06714	0.52655
1184.13857	0.52677
1182.21001	0.52721
1180.28145	0.52800
1178.35288	0.52919
1176.42432	0.53056
1174.49575	0.53182
1172.56719	0.53275
1170.63862	0.53316
1168.71006	0.53323
1166.78149	0.53333
1164.85293	0.53350
1162.92437	0.53355
1160.99580	0.53345
1159.06724	0.53332
1157.13867	0.53309
1155.21011	0.53249
1153.28154	0.53137
1151.35298	0.52972
1149.42441	0.52758
1147.49585	0.52510
1145.56729	0.52238
1143.63872	0.51961
1141.71016	0.51734
1139.78159	0.51581
1137.85303	0.51468
1135.92446	0.51393
1133.99590	0.51368
1132.06733	0.51370
1130.13877	0.51368
1128.21021	0.51338
1126.28164	0.51287
1124.35308	0.51246
1122.42451	0.51226
1120.49595	0.51238
1118.56738	0.51272
1116.63882	0.51303
1114.71025	0.51328
1112.78169	0.51363
1110.85312	0.51422
1108.92456	0.51485
1106.99600	0.51546
1105.06743	0.51638
1103.13887	0.51762
1101.21030	0.51882
1099.28174	0.52008
1097.35317	0.52186
1095.42461	0.52444
1093.49604	0.52806
1091.56748	0.53291
1089.63892	0.53908
1087.71035	0.54651
1085.78179	0.55471
1083.85322	0.56299
1081.92466	0.57054
1079.99609	0.57623
1078.06753	0.57917
1076.13896	0.57889
1074.21040	0.57531
1072.28184	0.56941
1070.35327	0.56256
1068.42471	0.55524
1066.49614	0.54774
1064.56758	0.54087
1062.63901	0.53524
1060.71045	0.53056
1058.78188	0.52633
1056.85332	0.52249
1054.92476	0.51902
1052.99619	0.51593
1051.06763	0.51344
1049.13906	0.51172
1047.21050	0.51069
1045.28193	0.50996
1043.35337	0.50932
1041.42480	0.50892
1039.49624	0.50877
1037.56768	0.50874
1035.63911	0.50866
1033.71055	0.50813
1031.78198	0.50692
1029.85342	0.50536
1027.92485	0.50378
1025.99629	0.50199
1024.06772	0.50029
1022.13916	0.49948
1020.21060	0.49935
1018.28203	0.49934
1016.35347	0.49933
1014.42490	0.49914
1012.49634	0.49872
1010.56777	0.49827
1008.63921	0.49802
1006.71064	0.49835
1004.78208	0.49941
1002.85352	0.50105
1000.92495	0.50343
998.99639	0.50690
997.06782	0.51122
995.13926	0.51577
993.21069	0.52015
991.28213	0.52383
989.35356	0.52595
987.42500	0.52652
985.49644	0.52639
983.56787	0.52615
981.63931	0.52619
979.71074	0.52704
977.78218	0.52864
975.85361	0.53061
973.92505	0.53277
971.99648	0.53532
970.06792	0.53850
968.13936	0.54217
966.21079	0.54613
964.28223	0.55044
962.35366	0.55514
960.42510	0.56008
958.49653	0.56524
956.56797	0.57077
954.63940	0.57687
952.71084	0.58347
950.78228	0.59017
948.85371	0.59676
946.92515	0.60340
944.99658	0.61008
943.06802	0.61627
941.13945	0.62178
939.21089	0.62716
937.28232	0.63267
935.35376	0.63815
933.42520	0.64376
931.49663	0.64957
929.56807	0.65557
927.63950	0.66225
925.71094	0.66931
923.78237	0.67557
921.85381	0.68135
919.92524	0.68796
917.99668	0.69571
916.06812	0.70397
914.13955	0.71210
912.21099	0.72028
910.28242	0.72873
908.35386	0.73718
906.42529	0.74574
904.49673	0.75458
902.56816	0.76330
900.63960	0.77176
898.71104	0.78110
896.78247	0.79199
894.85391	0.80230
892.92534	0.81093
890.99678	0.82045
889.06821	0.83154
887.13965	0.84226
885.21108	0.85304
883.28252	0.86542
881.35396	0.87843
879.42539	0.89033
877.49683	0.90106
875.56826	0.91166
873.63970	0.92292
871.71113	0.93511
869.78257	0.94828
867.85400	0.96196
865.92544	0.97452
863.99687	0.98491
862.06831	0.99479
860.13975	1.00528
858.21118	1.01610
856.28262	1.02788
854.35405	1.04124
852.42549	1.05542
850.49692	1.06858
848.56836	1.08016
846.63979	1.09183
844.71123	1.10429
842.78267	1.11589
840.85410	1.12704
838.92554	1.13839
836.99697	1.14689
835.06841	1.15400
833.13984	1.16600
831.21128	1.18314
829.28271	1.19886
827.35415	1.20832
825.42559	1.21406
823.49702	1.22252
821.56846	1.23828
819.63989	1.26017
817.71133	1.28077
815.78276	1.29842
813.85420	1.31205
811.92563	1.31913
809.99707	1.33405
808.06851	1.36059
806.13994	1.37594
804.21138	1.37479
802.28281	1.37424
800.35425	1.38133
798.42568	1.40084
796.49712	1.43237
794.56855	1.46950
792.63999	1.49641
790.71143	1.48599
788.78286	1.46207
786.85430	1.43982
784.92573	1.44327
782.99717	1.52763
781.06860	1.61456
779.14004	1.54565
777.21147	1.46640
775.28291	1.51964
773.35435	1.69934
771.42578	1.68785
769.49722	1.56477
767.56865	1.54200
765.64009	1.50299
763.71152	1.40849
761.78296	1.42575
759.85439	1.65658
757.92583	1.63983
755.99727	1.32721
754.06870	1.17912
752.14014	1.16137
750.21157	1.21470
748.28301	1.22395
746.35444	1.18365
744.42588	1.11349
742.49731	0.98648
740.56875	0.91439
738.64019	0.93342
736.71162	0.91009
734.78306	0.77749
732.85449	0.66232
730.92593	0.62457
728.99736	0.67219
727.06880	0.75868
725.14023	0.62629
723.21167	0.42090
721.28311	0.31745
719.35454	0.28428
717.42598	0.31021
715.49741	0.37437
713.56885	0.37159
711.64028	0.25776
709.71172	0.23434
707.78315	0.32339
705.85459	0.44417
703.92603	0.57918
701.99746	0.63175
700.06890	0.60143
698.14033	0.49396
696.21177	0.35310
694.28320	0.29280
692.35464	0.29542
690.42607	0.25394
688.49751	0.17893
686.56895	0.22586
684.64038	0.47286
682.71182	1.43688
680.78325	0.87521
678.85469	0.37934
676.92612	0.26811
674.99756	0.21995
673.06899	0.15143
671.14043	0.15515
669.21187	0.26174
667.28330	0.36008
665.35474	0.41288
663.42617	0.50306
661.49761	0.54302
659.56904	0.46774
657.64048	0.43315
655.71191	0.47003
653.78335	0.47261
651.85479	0.56013
649.92622	0.77070
647.99766	0.51456
646.06909	0.30766
644.14053	0.26700
642.21196	0.30461
640.28340	0.39470
638.35483	0.59426
636.42627	0.60552
634.49771	0.47155
632.56914	0.44959
630.64058	0.39690
628.71201	0.31897
626.78345	0.34337
624.85488	0.45862
622.92632	0.51872
620.99775	0.51961
619.06919	0.56565
617.14062	0.62576
615.21206	0.95862
613.28350	3.67970
611.35493	3.66813
609.42637	0.59481
607.49780	0.35799
605.56924	0.29067
603.64067	0.31141
601.71211	0.32987
599.78354	0.34235
597.85498	0.35728
595.92642	0.37911
593.99785	0.40570
592.06929	0.41303
590.14072	0.35836
588.21216	0.29900
586.28359	0.23566
584.35503	0.13896
582.42646	0.09751
580.49790	0.12906
578.56934	0.18016
576.64077	0.25533
574.71221	0.32922
572.78364	0.31443
570.85508	0.28723
568.92651	0.28577
566.99795	0.22018
565.06938	0.13091
563.14082	0.13409
561.21226	0.23824
559.28369	0.32415
557.35513	0.31816
555.42656	0.29723
553.49800	0.27348
551.56943	0.23225
549.64087	0.22789
547.71230	0.26393
545.78374	0.25577
543.85518	0.28746
541.92661	0.35409
539.99805	0.31453
538.06948	0.26997
536.14092	0.27101
534.21235	0.27257
532.28379	0.25641
530.35522	0.24619
528.42666	0.28779
526.49810	0.35856
524.56953	0.40716
522.64097	0.57131
520.71240	0.78032
518.78384	0.48001
516.85527	0.29462
514.92671	0.22727
512.99814	0.24298
511.06958	0.29290
509.14102	0.30853
507.21245	0.32054
505.28389	0.30022
503.35532	0.24611
501.42676	0.22304
499.49819	0.17830
