3997.91411	0.05864
3995.98555	0.05912
3994.05698	0.05930
3992.12842	0.05932
3990.19985	0.05933
3988.27129	0.05964
3986.34272	0.06029
3984.41416	0.06063
3982.48560	0.06049
3980.55703	0.06049
3978.62847	0.06084
3976.69990	0.06148
3974.77134	0.06202
3972.84277	0.06207
3970.91421	0.06219
3968.98564	0.06282
3967.05708	0.06339
3965.12852	0.06342
3963.19995	0.06315
3961.27139	0.06297
3959.34282	0.06312
3957.41426	0.06350
3955.48569	0.06347
3953.55713	0.06280
3951.62856	0.06217
3949.70000	0.06216
3947.77144	0.06258
3945.84287	0.06292
3943.91431	0.06291
3941.98574	0.06284
3940.05718	0.06295
3938.12861	0.06297
3936.20005	0.06293
3934.27148	0.06298
3932.34292	0.06292
3930.41436	0.06260
3928.48579	0.06213
3926.55723	0.06180
3924.62866	0.06193
3922.70010	0.06233
3920.77153	0.06261
3918.84297	0.06267
3916.91440	0.06263
3914.98584	0.06256
3913.05728	0.06240
3911.12871	0.06215
3909.20015	0.06191
3907.27158	0.06167
3905.34302	0.06148
3903.41445	0.06139
3901.48589	0.06141
3899.55732	0.06160
3897.62876	0.06166
3895.70020	0.06166
3893.77163	0.06180
3891.84307	0.06184
3889.91450	0.06175
3887.98594	0.06176
3886.05737	0.06181
3884.12881	0.06188
3882.20024	0.06210
3880.27168	0.06259
3878.34312	0.06339
3876.41455	0.06388
3874.48599	0.06348
3872.55742	0.06255
3870.62886	0.06233
3868.70029	0.06334
3866.77173	0.06426
3864.84316	0.06474
3862.91460	0.06521
3860.98604	0.06529
3859.05747	0.06527
3857.12891	0.06521
3855.20034	0.06459
3853.27178	0.06415
3851.34321	0.06553
3849.41465	0.06682
3847.48608	0.06708
3845.55752	0.06719
3843.62896	0.06763
3841.70039	0.06842
3839.77183	0.06935
3837.84326	0.07026
3835.91470	0.07086
3833.98613	0.07115
3832.05757	0.07139
3830.12900	0.07184
3828.20044	0.07262
3826.27187	0.07373
3824.34331	0.07491
3822.41475	0.07562
3820.48618	0.07596
3818.55762	0.07634
3816.62905	0.07707
3814.70049	0.07835
3812.77192	0.07945
3810.84336	0.08001
3808.91479	0.08064
3806.98623	0.08177
3805.05767	0.08327
3803.12910	0.08464
3801.20054	0.08616
3799.27197	0.08752
3797.34341	0.08817
3795.41484	0.08897
3793.48628	0.09003
3791.55771	0.09135
3789.62915	0.09293
3787.70059	0.09416
3785.77202	0.09499
3783.84346	0.09616
3781.91489	0.09786
3779.98633	0.09951
3778.05776	0.10101
3776.12920	0.10251
3774.20063	0.10390
3772.27207	0.10535
3770.34351	0.10743
3768.41494	0.10983
3766.48638	0.11156
3764.55781	0.11335
3762.62925	0.11521
3760.70068	0.11659
3758.77212	0.11856
3756.84355	0.12155
3754.91499	0.12385
3752.98643	0.12514
3751.05786	0.12704
3749.12930	0.13079
3747.20073	0.13417
3745.27217	0.13665
3743.34360	0.14037
3741.41504	0.14414
3739.48647	0.14681
3737.55791	0.14985
3735.62935	0.15392
3733.70078	0.15929
3731.77222	0.16554
3729.84365	0.17117
3727.91509	0.17552
3725.98652	0.17993
3724.05796	0.18558
3722.12939	0.19219
3720.20083	0.19945
3718.27227	0.20673
3716.34370	0.21365
3714.41514	0.22035
3712.48657	0.22835
3710.55801	0.24034
3708.62944	0.25465
3706.70088	0.26710
3704.77231	0.27863
3702.84375	0.29167
3700.91519	0.30823
3698.98662	0.32630
3697.05806	0.34323
3695.12949	0.36078
3693.20093	0.37942
3691.27236	0.39959
3689.34380	0.42532
3687.41523	0.45800
3685.48667	0.48885
3683.55811	0.51601
3681.62954	0.54405
3679.70098	0.57420
3677.77241	0.60500
3675.84385	0.64178
3673.91528	0.69249
3671.98672	0.73526
3670.05815	0.77317
3668.12959	0.82486
3666.20103	0.87335
3664.27246	0.91400
3662.34390	0.95699
3660.41533	1.00347
3658.48677	1.04911
3656.55820	1.09666
3654.62964	1.14957
3652.70107	1.19523
3650.77251	1.23476
3648.84395	1.28709
3646.91538	1.35190
3644.98682	1.40302
3643.05825	1.44345
3641.12969	1.48391
3639.20112	1.52815
3637.27256	1.57249
3635.34399	1.61427
3633.41543	1.65521
3631.48687	1.69446
3629.55830	1.73444
3627.62974	1.78560
3625.70117	1.83551
3623.77261	1.87151
3621.84404	1.90495
3619.91548	1.94118
3617.98691	1.98396
3616.05835	2.02682
3614.12979	2.06404
3612.20122	2.10226
3610.27266	2.14067
3608.34409	2.18004
3606.41553	2.22276
3604.48696	2.26326
3602.55840	2.29866
3600.62983	2.33490
3598.70127	2.37397
3596.77271	2.41309
3594.84414	2.45382
3592.91558	2.49686
3590.98701	2.53679
3589.05845	2.57199
3587.12988	2.61297
3585.20132	2.66061
3583.27275	2.70344
3581.34419	2.74186
3579.41562	2.78102
3577.48706	2.82285
3575.55850	2.86673
3573.62993	2.91066
3571.70137	2.95176
3569.77280	2.99136
3567.84424	3.03282
3565.91567	3.08231
3563.98711	3.13259
3562.05854	3.17444
3560.12998	3.21526
3558.20142	3.25993
3556.27285	3.30707
3554.34429	3.35340
3552.41572	3.39921
3550.48716	3.44496
3548.55859	3.49006
3546.63003	3.53444
3544.70146	3.58051
3542.77290	3.62901
3540.84434	3.67758
3538.91577	3.72487
3536.98721	3.77041
3535.05864	3.81786
3533.13008	3.86788
3531.20151	3.91689
3529.27295	3.96290
3527.34438	4.00789
3525.41582	4.05278
3523.48726	4.09972
3521.55869	4.15185
3519.63013	4.20510
3517.70156	4.25613
3515.77300	4.30221
3513.84443	4.34136
3511.91587	4.37997
3509.98730	4.42863
3508.05874	4.48345
3506.13018	4.53179
3504.20161	4.57473
3502.27305	4.61940
3500.34448	4.67020
3498.41592	4.72405
3496.48735	4.77102
3494.55879	4.81232
3492.63022	4.86065
3490.70166	4.91243
3488.77310	4.95918
3486.84453	5.00370
3484.91597	5.04353
3482.98740	5.08315
3481.05884	5.13598
3479.13027	5.19614
3477.20171	5.24903
3475.27314	5.29398
3473.34458	5.33842
3471.41602	5.38263
3469.48745	5.42362
3467.55889	5.46958
3465.63032	5.52333
3463.70176	5.57178
3461.77319	5.61246
3459.84463	5.66224
3457.91606	5.71784
3455.98750	5.76954
3454.05894	5.82197
3452.13037	5.86910
3450.20181	5.90707
3448.27324	5.94668
3446.34468	6.00237
3444.41611	6.06417
3442.48755	6.11378
3440.55898	6.15856
3438.63042	6.20776
3436.70186	6.24872
3434.77329	6.28091
3432.84473	6.32513
3430.91616	6.37317
3428.98760	6.41561
3427.05903	6.46358
3425.13047	6.51522
3423.20190	6.55989
3421.27334	6.59454
3419.34478	6.63228
3417.41621	6.70739
3415.48765	6.79833
3413.55908	6.84743
3411.63052	6.88260
3409.70195	6.94272
3407.77339	6.99515
3405.84482	7.00200
3403.91626	6.99822
3401.98770	6.99954
3400.05913	6.99221
3398.13057	7.00848
3396.20200	7.06920
3394.27344	7.14803
3392.34487	7.20302
3390.41631	7.24876
3388.48774	7.31688
3386.55918	7.36542
3384.63062	7.36159
3382.70205	7.40342
3380.77349	7.49275
3378.84492	7.50394
3376.91636	7.46374
3374.98779	7.45850
3373.05923	7.52706
3371.13066	7.62642
3369.20210	7.66996
3367.27354	7.66729
3365.34497	7.68170
3363.41641	7.70680
3361.48784	7.73930
3359.55928	7.77524
3357.63071	7.76705
3355.70215	7.75849
3353.77358	7.74922
3351.84502	7.73836
3349.91646	7.78244
3347.98789	7.82587
3346.05933	7.79303
3344.13076	7.74618
3342.20220	7.75189
3340.27363	7.77201
3338.34507	7.75576
3336.41650	7.72108
3334.48794	7.75466
3332.55937	7.86833
3330.63081	7.97408
3328.70225	7.99637
3326.77368	7.96213
3324.84512	7.92009
3322.91655	7.86713
3320.98799	7.85219
3319.05942	7.89182
3317.13086	7.92608
3315.20229	7.90126
3313.27373	7.85727
3311.34517	7.84134
3309.41660	7.82193
3307.48804	7.82335
3305.55947	7.89643
3303.63091	7.96826
3301.70234	7.97831
3299.77378	7.98164
3297.84521	7.94137
3295.91665	7.84835
3293.98809	7.82855
3292.05952	7.92412
3290.13096	8.02123
3288.20239	8.05723
3286.27383	8.03764
3284.34526	7.91720
3282.41670	7.78379
3280.48813	7.78556
3278.55957	7.93618
3276.63101	8.05493
3274.70244	8.06732
3272.77388	8.05770
3270.84531	8.00791
3268.91675	7.96801
3266.98818	7.96077
3265.05962	7.93540
3263.13105	7.90354
3261.20249	7.88719
3259.27393	7.93434
3257.34536	8.09231
3255.41680	8.18240
3253.48823	8.08865
3251.55967	8.02259
3249.63110	8.00902
3247.70254	7.96514
3245.77397	7.94740
3243.84541	7.98737
3241.91685	8.02864
3239.98828	7.99651
3238.05972	7.84952
3236.13115	7.67663
3234.20259	7.60630
3232.27402	7.67594
3230.34546	7.81983
3228.41689	7.90054
3226.48833	7.84528
3224.55977	7.72181
3222.63120	7.65835
3220.70264	7.68608
3218.77407	7.70847
3216.84551	7.68554
3214.91694	7.66134
3212.98838	7.61732
3211.05981	7.57481
3209.13125	7.60447
3207.20269	7.66962
3205.27412	7.68900
3203.34556	7.65699
3201.41699	7.61677
3199.48843	7.57873
3197.55986	7.54480
3195.63130	7.51978
3193.70273	7.48798
3191.77417	7.44332
3189.84561	7.38270
3187.91704	7.32158
3185.98848	7.27937
3184.05991	7.26353
3182.13135	7.23867
3180.20278	7.17033
3178.27422	7.10202
3176.34565	7.05351
3174.41709	7.01236
3172.48853	6.97663
3170.55996	6.93007
3168.63140	6.86918
3166.70283	6.80157
3164.77427	6.72477
3162.84570	6.65128
3160.91714	6.61097
3158.98857	6.58977
3157.06001	6.52707
3155.13145	6.42045
3153.20288	6.33836
3151.27432	6.30774
3149.34575	6.27706
3147.41719	6.21145
3145.48862	6.13277
3143.56006	6.06101
3141.63149	5.99208
3139.70293	5.91072
3137.77437	5.82689
3135.84580	5.75999
3133.91724	5.70312
3131.98867	5.63777
3130.06011	5.56085
3128.13154	5.48441
3126.20298	5.41488
3124.27441	5.35302
3122.34585	5.29692
3120.41729	5.23842
3118.48872	5.17004
3116.56016	5.09510
3114.63159	5.02075
3112.70303	4.95051
3110.77446	4.88479
3108.84590	4.81862
3106.91733	4.75209
3104.98877	4.68887
3103.06021	4.62560
3101.13164	4.56100
3099.20308	4.49769
3097.27451	4.43430
3095.34595	4.36891
3093.41738	4.30306
3091.48882	4.23814
3089.56025	4.17366
3087.63169	4.11127
3085.70312	4.04977
3083.77456	3.98665
3081.84600	3.92753
3079.91743	3.87191
3077.98887	3.81237
3076.06030	3.75052
3074.13174	3.69055
3072.20317	3.63254
3070.27461	3.57536
3068.34604	3.51899
3066.41748	3.46387
3064.48892	3.40927
3062.56035	3.35446
3060.63179	3.30041
3058.70322	3.24834
3056.77466	3.19679
3054.84609	3.14428
3052.91753	3.09230
3050.98896	3.04250
3049.06040	2.99410
3047.13184	2.94473
3045.20327	2.89449
3043.27471	2.84565
3041.34614	2.79805
3039.41758	2.75142
3037.48901	2.70651
3035.56045	2.66166
3033.63188	2.61533
3031.70332	2.56934
3029.77476	2.52541
3027.84619	2.48204
3025.91763	2.43786
3023.98906	2.39415
3022.06050	2.35217
3020.13193	2.31152
3018.20337	2.27139
3016.27480	2.23180
3014.34624	2.19300
3012.41768	2.15483
3010.48911	2.11686
3008.56055	2.07909
3006.63198	2.04240
3004.70342	2.00714
3002.77485	1.97279
3000.84629	1.93886
2998.91772	1.90499
2996.98916	1.87167
2995.06060	1.83976
2993.13203	1.80911
2991.20347	1.77918
2989.27490	1.74981
2987.34634	1.72116
2985.41777	1.69328
2983.48921	1.66594
2981.56064	1.63912
2979.63208	1.61297
2977.70352	1.58723
2975.77495	1.56189
2973.84639	1.53719
2971.91782	1.51299
2969.98926	1.48909
2968.06069	1.46565
2966.13213	1.44298
2964.20356	1.42090
2962.27500	1.39839
2960.34644	1.37470
2958.41787	1.35056
2956.48931	1.32709
2954.56074	1.30450
2952.63218	1.28194
2950.70361	1.25867
2948.77505	1.23518
2946.84648	1.21226
2944.91792	1.19035
2942.98936	1.16967
2941.06079	1.14995
2939.13223	1.13058
2937.20366	1.11116
2935.27510	1.09164
2933.34653	1.07235
2931.41797	1.05360
2929.48940	1.03545
2927.56084	1.01733
2925.63228	0.99872
2923.70371	0.98008
2921.77515	0.96187
2919.84658	0.94420
2917.91802	0.92678
2915.98945	0.90903
2914.06089	0.89102
2912.13232	0.87337
2910.20376	0.85678
2908.27520	0.84132
2906.34663	0.82656
2904.41807	0.81177
2902.48950	0.79683
2900.56094	0.78243
2898.63237	0.76896
2896.70381	0.75604
2894.77524	0.74310
2892.84668	0.73021
2890.91812	0.71785
2888.98955	0.70596
2887.06099	0.69445
2885.13242	0.68369
2883.20386	0.67366
2881.27529	0.66399
2879.34673	0.65465
2877.41816	0.64565
2875.48960	0.63670
2873.56104	0.62710
2871.63247	0.61655
2869.70391	0.60548
2867.77534	0.59399
2865.84678	0.58227
2863.91821	0.57080
2861.98965	0.55962
2860.06108	0.54890
2858.13252	0.53900
2856.20396	0.52954
2854.27539	0.52028
2852.34683	0.51168
2850.41826	0.50336
2848.48970	0.49440
2846.56113	0.48515
2844.63257	0.47655
2842.70400	0.46871
2840.77544	0.46158
2838.84687	0.45516
2836.91831	0.44909
2834.98975	0.44311
2833.06118	0.43722
2831.13262	0.43129
2829.20405	0.42521
2827.27549	0.41908
2825.34692	0.41299
2823.41836	0.40700
2821.48979	0.40124
2819.56123	0.39561
2817.63267	0.38976
2815.70410	0.38389
2813.77554	0.37834
2811.84697	0.37294
2809.91841	0.36754
2807.98984	0.36220
2806.06128	0.35691
2804.13271	0.35167
2802.20415	0.34663
2800.27559	0.34180
2798.34702	0.33702
2796.41846	0.33216
2794.48989	0.32727
2792.56133	0.32255
2790.63276	0.31805
2788.70420	0.31378
2786.77563	0.30970
2784.84707	0.30559
2782.91851	0.30130
2780.98994	0.29703
2779.06138	0.29299
2777.13281	0.28919
2775.20425	0.28540
2773.27568	0.28148
2771.34712	0.27753
2769.41855	0.27370
2767.48999	0.26996
2765.56143	0.26632
2763.63286	0.26296
2761.70430	0.25987
2759.77573	0.25676
2757.84717	0.25350
2755.91860	0.25026
2753.99004	0.24712
2752.06147	0.24406
2750.13291	0.24106
2748.20435	0.23823
2746.27578	0.23553
2744.34722	0.23274
2742.41865	0.22984
2740.49009	0.22713
2738.56152	0.22470
2736.63296	0.22225
2734.70439	0.21968
2732.77583	0.21716
2730.84727	0.21479
2728.91870	0.21257
2726.99014	0.21042
2725.06157	0.20827
2723.13301	0.20614
2721.20444	0.20402
2719.27588	0.20190
2717.34731	0.19991
2715.41875	0.19808
2713.49019	0.19618
2711.56162	0.19421
2709.63306	0.19233
2707.70449	0.19059
2705.77593	0.18894
2703.84736	0.18736
2701.91880	0.18571
2699.99023	0.18405
2698.06167	0.18260
2696.13311	0.18139
2694.20454	0.18025
2692.27598	0.17901
2690.34741	0.17763
2688.41885	0.17619
2686.49028	0.17486
2684.56172	0.17369
2682.63315	0.17264
2680.70459	0.17162
2678.77603	0.17050
2676.84746	0.16947
2674.91890	0.16862
2672.99033	0.16760
2671.06177	0.16632
2669.13320	0.16512
2667.20464	0.16413
2665.27607	0.16318
2663.34751	0.16224
2661.41895	0.16142
2659.49038	0.16079
2657.56182	0.16023
2655.63325	0.15955
2653.70469	0.15867
2651.77612	0.15774
2649.84756	0.15706
2647.91899	0.15653
2645.99043	0.15579
2644.06187	0.15496
2642.13330	0.15448
2640.20474	0.15428
2638.27617	0.15391
2636.34761	0.15334
2634.41904	0.15290
2632.49048	0.15251
2630.56191	0.15192
2628.63335	0.15136
2626.70479	0.15098
2624.77622	0.15062
2622.84766	0.15034
2620.91909	0.15019
2618.99053	0.15004
2617.06196	0.14981
2615.13340	0.14959
2613.20483	0.14943
2611.27627	0.14929
2609.34771	0.14913
2607.41914	0.14896
2605.49058	0.14877
2603.56201	0.14863
2601.63345	0.14865
2599.70488	0.14864
2597.77632	0.14848
2595.84775	0.14839
2593.91919	0.14847
2591.99062	0.14850
2590.06206	0.14840
2588.13350	0.14839
2586.20493	0.14860
2584.27637	0.14893
2582.34780	0.14917
2580.41924	0.14935
2578.49067	0.14957
2576.56211	0.14980
2574.63354	0.15002
2572.70498	0.15029
2570.77642	0.15064
2568.84785	0.15109
2566.91929	0.15152
2564.99072	0.15180
2563.06216	0.15212
2561.13359	0.15258
2559.20503	0.15307
2557.27646	0.15349
2555.34790	0.15385
2553.41934	0.15421
2551.49077	0.15462
2549.56221	0.15515
2547.63364	0.15592
2545.70508	0.15675
2543.77651	0.15734
2541.84795	0.15770
2539.91938	0.15808
2537.99082	0.15864
2536.06226	0.15919
2534.13369	0.15965
2532.20513	0.16024
2530.27656	0.16100
2528.34800	0.16180
2526.41943	0.16255
2524.49087	0.16320
2522.56230	0.16375
2520.63374	0.16431
2518.70518	0.16503
2516.77661	0.16595
2514.84805	0.16673
2512.91948	0.16731
2510.99092	0.16799
2509.06235	0.16884
2507.13379	0.16968
2505.20522	0.17047
2503.27666	0.17125
2501.34810	0.17204
2499.41953	0.17289
2497.49097	0.17372
2495.56240	0.17434
2493.63384	0.17493
2491.70527	0.17576
2489.77671	0.17673
2487.84814	0.17770
2485.91958	0.17862
2483.99102	0.17949
2482.06245	0.18028
2480.13389	0.18103
2478.20532	0.18183
2476.27676	0.18269
2474.34819	0.18360
2472.41963	0.18454
2470.49106	0.18549
2468.56250	0.18636
2466.63394	0.18719
2464.70537	0.18808
2462.77681	0.18894
2460.84824	0.18967
2458.91968	0.19044
2456.99111	0.19137
2455.06255	0.19230
2453.13398	0.19316
2451.20542	0.19405
2449.27686	0.19502
2447.34829	0.19597
2445.41973	0.19693
2443.49116	0.19803
2441.56260	0.19922
2439.63403	0.20030
2437.70547	0.20120
2435.77690	0.20203
2433.84834	0.20290
2431.91978	0.20375
2429.99121	0.20458
2428.06265	0.20551
2426.13408	0.20665
2424.20552	0.20804
2422.27695	0.20939
2420.34839	0.21040
2418.41982	0.21127
2416.49126	0.21236
2414.56270	0.21353
2412.63413	0.21460
2410.70557	0.21573
2408.77700	0.21702
2406.84844	0.21835
2404.91987	0.21958
2402.99131	0.22069
2401.06274	0.22181
2399.13418	0.22301
2397.20562	0.22415
2395.27705	0.22521
2393.34849	0.22631
2391.41992	0.22753
2389.49136	0.22900
2387.56279	0.23063
2385.63423	0.23213
2383.70566	0.23371
2381.77710	0.23574
2379.84854	0.23822
2377.91997	0.24099
2375.99141	0.24396
2374.06284	0.24722
2372.13428	0.25094
2370.20571	0.25493
2368.27715	0.25838
2366.34858	0.26135
2364.42002	0.26471
2362.49146	0.26816
2360.56289	0.27098
2358.63433	0.27283
2356.70576	0.27347
2354.77720	0.27309
2352.84863	0.27186
2350.92007	0.27007
2348.99150	0.26922
2347.06294	0.27054
2345.13437	0.27423
2343.20581	0.27884
2341.27725	0.28218
2339.34868	0.28352
2337.42012	0.28381
2335.49155	0.28480
2333.56299	0.28623
2331.63442	0.28725
2329.70586	0.28781
2327.77729	0.28826
2325.84873	0.28877
2323.92017	0.28949
2321.99160	0.29055
2320.06304	0.29164
2318.13447	0.29241
2316.20591	0.29322
2314.27734	0.29437
2312.34878	0.29560
2310.42021	0.29673
2308.49165	0.29781
2306.56309	0.29886
2304.63452	0.29994
2302.70596	0.30127
2300.77739	0.30290
2298.84883	0.30452
2296.92026	0.30604
2294.99170	0.30769
2293.06313	0.30944
2291.13457	0.31095
2289.20601	0.31230
2287.27744	0.31385
2285.34888	0.31554
2283.42031	0.31724
2281.49175	0.31905
2279.56318	0.32111
2277.63462	0.32336
2275.70605	0.32548
2273.77749	0.32733
2271.84893	0.32921
2269.92036	0.33130
2267.99180	0.33346
2266.06323	0.33553
2264.13467	0.33760
2262.20610	0.33974
2260.27754	0.34183
2258.34897	0.34387
2256.42041	0.34587
2254.49185	0.34787
2252.56328	0.34988
2250.63472	0.35194
2248.70615	0.35412
2246.77759	0.35636
2244.84902	0.35863
2242.92046	0.36090
2240.99189	0.36306
2239.06333	0.36503
2237.13477	0.36701
2235.20620	0.36917
2233.27764	0.37148
2231.34907	0.37381
2229.42051	0.37603
2227.49194	0.37810
2225.56338	0.38019
2223.63481	0.38238
2221.70625	0.38463
2219.77769	0.38686
2217.84912	0.38898
2215.92056	0.39109
2213.99199	0.39325
2212.06343	0.39540
2210.13486	0.39753
2208.20630	0.39964
2206.27773	0.40165
2204.34917	0.40358
2202.42061	0.40557
2200.49204	0.40777
2198.56348	0.40993
2196.63491	0.41179
2194.70635	0.41358
2192.77778	0.41547
2190.84922	0.41734
2188.92065	0.41918
2186.99209	0.42100
2185.06353	0.42276
2183.13496	0.42445
2181.20640	0.42615
2179.27783	0.42782
2177.34927	0.42942
2175.42070	0.43093
2173.49214	0.43243
2171.56357	0.43396
2169.63501	0.43530
2167.70645	0.43637
2165.77788	0.43742
2163.84932	0.43857
2161.92075	0.43971
2159.99219	0.44087
2158.06362	0.44209
2156.13506	0.44318
2154.20649	0.44392
2152.27793	0.44443
2150.34937	0.44493
2148.42080	0.44561
2146.49224	0.44635
2144.56367	0.44699
2142.63511	0.44747
2140.70654	0.44773
2138.77798	0.44785
2136.84941	0.44795
2134.92085	0.44810
2132.99229	0.44815
2131.06372	0.44795
2129.13516	0.44765
2127.20659	0.44747
2125.27803	0.44729
2123.34946	0.44689
2121.42090	0.44633
2119.49233	0.44577
2117.56377	0.44518
2115.63521	0.44440
2113.70664	0.44345
2111.77808	0.44242
2109.84951	0.44133
2107.92095	0.44020
2105.99238	0.43914
2104.06382	0.43815
2102.13525	0.43697
2100.20669	0.43563
2098.27812	0.43429
2096.34956	0.43288
2094.42100	0.43128
2092.49243	0.42957
2090.56387	0.42780
2088.63530	0.42592
2086.70674	0.42401
2084.77817	0.42212
2082.84961	0.42025
2080.92104	0.41832
2078.99248	0.41634
2077.06392	0.41425
2075.13535	0.41200
2073.20679	0.40975
2071.27822	0.40768
2069.34966	0.40559
2067.42109	0.40325
2065.49253	0.40070
2063.56396	0.39820
2061.63540	0.39584
2059.70684	0.39352
2057.77827	0.39115
2055.84971	0.38863
2053.92114	0.38597
2051.99258	0.38330
2050.06401	0.38061
2048.13545	0.37795
2046.20688	0.37537
2044.27832	0.37287
2042.34976	0.37037
2040.42119	0.36777
2038.49263	0.36501
2036.56406	0.36223
2034.63550	0.35954
2032.70693	0.35687
2030.77837	0.35408
2028.84980	0.35112
2026.92124	0.34815
2024.99268	0.34523
2023.06411	0.34243
2021.13555	0.33982
2019.20698	0.33728
2017.27842	0.33456
2015.34985	0.33174
2013.42129	0.32902
2011.49272	0.32631
2009.56416	0.32363
2007.63560	0.32104
2005.70703	0.31848
2003.77847	0.31587
2001.84990	0.31322
1999.92134	0.31060
1997.99277	0.30806
1996.06421	0.30552
1994.13564	0.30292
1992.20708	0.30032
1990.27852	0.29786
1988.34995	0.29552
1986.42139	0.29317
1984.49282	0.29090
1982.56426	0.28871
1980.63569	0.28642
1978.70713	0.28408
1976.77856	0.28188
1974.85000	0.27970
1972.92144	0.27743
1970.99287	0.27525
1969.06431	0.27328
1967.13574	0.27138
1965.20718	0.26945
1963.27861	0.26759
1961.35005	0.26581
1959.42148	0.26401
1957.49292	0.26212
1955.56436	0.26023
1953.63579	0.25854
1951.70723	0.25691
1949.77866	0.25519
1947.85010	0.25341
1945.92153	0.25175
1943.99297	0.25031
1942.06440	0.24898
1940.13584	0.24756
1938.20728	0.24616
1936.27871	0.24488
1934.35015	0.24360
1932.42158	0.24233
1930.49302	0.24117
1928.56445	0.24011
1926.63589	0.23911
1924.70732	0.23814
1922.77876	0.23714
1920.85020	0.23607
1918.92163	0.23512
1916.99307	0.23432
1915.06450	0.23353
1913.13594	0.23275
1911.20737	0.23208
1909.27881	0.23142
1907.35024	0.23077
1905.42168	0.23011
1903.49312	0.22948
1901.56455	0.22895
1899.63599	0.22851
1897.70742	0.22814
1895.77886	0.22775
1893.85029	0.22737
1891.92173	0.22705
1889.99316	0.22681
1888.06460	0.22651
1886.13604	0.22624
1884.20747	0.22609
1882.27891	0.22599
1880.35034	0.22598
1878.42178	0.22595
1876.49321	0.22591
1874.56465	0.22588
1872.63608	0.22590
1870.70752	0.22587
1868.77896	0.22596
1866.85039	0.22621
1864.92183	0.22646
1862.99326	0.22676
1861.06470	0.22715
1859.13613	0.22763
1857.20757	0.22805
1855.27900	0.22852
1853.35044	0.22893
1851.42187	0.22938
1849.49331	0.22989
1847.56475	0.23039
1845.63618	0.23099
1843.70762	0.23194
1841.77905	0.23295
1839.85049	0.23360
1837.92192	0.23436
1835.99336	0.23530
1834.06479	0.23624
1832.13623	0.23709
1830.20767	0.23822
1828.27910	0.23962
1826.35054	0.24086
1824.42197	0.24220
1822.49341	0.24360
1820.56484	0.24496
1818.63628	0.24637
1816.70771	0.24795
1814.77915	0.24951
1812.85059	0.25114
1810.92202	0.25304
1808.99346	0.25511
1807.06489	0.25718
1805.13633	0.25913
1803.20776	0.26123
1801.27920	0.26358
1799.35063	0.26633
1797.42207	0.26885
1795.49351	0.27110
1793.56494	0.27365
1791.63638	0.27719
1789.70781	0.28092
1787.77925	0.28378
1785.85068	0.28687
1783.92212	0.29044
1781.99355	0.29432
1780.06499	0.29848
1778.13643	0.30279
1776.20786	0.30675
1774.27930	0.31085
1772.35073	0.31640
1770.42217	0.32262
1768.49360	0.32805
1766.56504	0.33327
1764.63647	0.33862
1762.70791	0.34441
1760.77935	0.35180
1758.85078	0.35889
1756.92222	0.36595
1754.99365	0.37386
1753.06509	0.38121
1751.13652	0.38942
1749.20796	0.39941
1747.27939	0.40973
1745.35083	0.41912
1743.42227	0.42876
1741.49370	0.43917
1739.56514	0.45136
1737.63657	0.46359
1735.70801	0.47425
1733.77944	0.48996
1731.85088	0.50913
1729.92231	0.52482
1727.99375	0.54064
1726.06519	0.55757
1724.13662	0.57579
1722.20806	0.59531
1720.27949	0.61334
1718.35093	0.63422
1716.42236	0.66494
1714.49380	0.69525
1712.56523	0.72068
1710.63667	0.74525
1708.70811	0.77133
1706.77954	0.80047
1704.85098	0.83492
1702.92241	0.86611
1700.99385	0.89775
1699.06528	0.94455
1697.13672	0.98763
1695.20815	1.03268
1693.27959	1.07779
1691.35103	1.11465
1689.42246	1.15693
1687.49390	1.20178
1685.56533	1.24523
1683.63677	1.31096
1681.70820	1.37992
1679.77964	1.42551
1677.85107	1.46860
1675.92251	1.51754
1673.99395	1.57764
1672.06538	1.63211
1670.13682	1.68600
1668.20825	1.75570
1666.27969	1.81453
1664.35112	1.86574
1662.42256	1.93014
1660.49399	2.00342
1658.56543	2.06158
1656.63687	2.10809
1654.70830	2.14851
1652.77974	2.20788
1650.85117	2.26616
1648.92261	2.28579
1646.99404	2.30497
1645.06548	2.32661
1643.13691	2.34335
1641.20835	2.35163
1639.27979	2.35634
1637.35122	2.35541
1635.42266	2.34885
1633.49409	2.34050
1631.56553	2.32731
1629.63696	2.30836
1627.70840	2.27665
1625.77983	2.24068
1623.85127	2.19605
1621.92271	2.14016
1619.99414	2.08984
1618.06558	2.04083
1616.13701	1.97343
1614.20845	1.90750
1612.27988	1.85756
1610.35132	1.80490
1608.42275	1.74802
1606.49419	1.69246
1604.56562	1.64096
1602.63706	1.59126
1600.70850	1.54363
1598.77993	1.50063
1596.85137	1.46052
1594.92280	1.42107
1592.99424	1.38237
1591.06567	1.34723
1589.13711	1.31536
1587.20854	1.28631
1585.27998	1.25949
1583.35142	1.23450
1581.42285	1.21216
1579.49429	1.19361
1577.56572	1.17746
1575.63716	1.15916
1573.70859	1.14405
1571.78003	1.13450
1569.85146	1.12527
1567.92290	1.11629
1565.99434	1.11084
1564.06577	1.10820
1562.13721	1.10690
1560.20864	1.10736
1558.28008	1.11418
1556.35151	1.12361
1554.42295	1.12934
1552.49438	1.13446
1550.56582	1.13746
1548.63726	1.13708
1546.70869	1.13282
1544.78013	1.12381
1542.85156	1.11023
1540.92300	1.08992
1538.99443	1.05877
1537.06587	1.03538
1535.13730	1.01873
1533.20874	0.99651
1531.28018	0.97278
1529.35161	0.95500
1527.42305	0.93810
1525.49448	0.92089
1523.56592	0.90631
1521.63735	0.89278
1519.70879	0.87992
1517.78022	0.86915
1515.85166	0.85655
1513.92310	0.84303
1511.99453	0.83056
1510.06597	0.81871
1508.13740	0.80704
1506.20884	0.79037
1504.28027	0.77623
1502.35171	0.76828
1500.42314	0.76114
1498.49458	0.75316
1496.56602	0.74415
1494.63745	0.73581
1492.70889	0.72925
1490.78032	0.72314
1488.85176	0.71653
1486.92319	0.71082
1484.99463	0.70632
1483.06606	0.70265
1481.13750	0.69988
1479.20894	0.69821
1477.28037	0.69751
1475.35181	0.69739
1473.42324	0.69769
1471.49468	0.69771
1469.56611	0.69674
1467.63755	0.69504
1465.70898	0.69325
1463.78042	0.69193
1461.85186	0.69141
1459.92329	0.69134
1457.99473	0.69124
1456.06616	0.69071
1454.13760	0.68921
1452.20903	0.68687
1450.28047	0.68402
1448.35190	0.68121
1446.42334	0.67862
1444.49478	0.67599
1442.56621	0.67293
1440.63765	0.66952
1438.70908	0.66601
1436.78052	0.66169
1434.85195	0.65719
1432.92339	0.65415
1430.99482	0.65220
1429.06626	0.65113
1427.13770	0.65090
1425.20913	0.65132
1423.28057	0.65236
1421.35200	0.65337
1419.42344	0.65390
1417.49487	0.65410
1415.56631	0.65391
1413.63774	0.65377
1411.70918	0.65424
1409.78062	0.65559
1407.85205	0.65756
1405.92349	0.66003
1403.99492	0.66257
1402.06636	0.66384
1400.13779	0.66345
1398.20923	0.66180
1396.28066	0.65917
1394.35210	0.65527
1392.42354	0.65051
1390.49497	0.64572
1388.56641	0.64050
1386.63784	0.63448
1384.70928	0.62849
1382.78071	0.62283
1380.85215	0.61740
1378.92358	0.61269
1376.99502	0.60898
1375.06646	0.60625
1373.13789	0.60438
1371.20933	0.60333
1369.28076	0.60265
1367.35220	0.60165
1365.42363	0.60011
1363.49507	0.59810
1361.56650	0.59598
1359.63794	0.59435
1357.70937	0.59322
1355.78081	0.59215
1353.85225	0.59105
1351.92368	0.59018
1349.99512	0.58962
1348.06655	0.58910
1346.13799	0.58836
1344.20942	0.58751
1342.28086	0.58674
1340.35229	0.58619
1338.42373	0.58579
1336.49517	0.58537
1334.56660	0.58508
1332.63804	0.58525
1330.70947	0.58581
1328.78091	0.58650
1326.85234	0.58740
1324.92378	0.58849
1322.99521	0.58955
1321.06665	0.59050
1319.13809	0.59137
1317.20952	0.59205
1315.28096	0.59239
1313.35239	0.59240
1311.42383	0.59205
1309.49526	0.59145
1307.56670	0.59088
1305.63813	0.59052
1303.70957	0.59027
1301.78101	0.58984
1299.85244	0.58906
1297.92388	0.58804
1295.99531	0.58688
1294.06675	0.58569
1292.13818	0.58451
1290.20962	0.58324
1288.28105	0.58172
1286.35249	0.58008
1284.42393	0.57867
1282.49536	0.57746
1280.56680	0.57620
1278.63823	0.57472
1276.70967	0.57309
1274.78110	0.57166
1272.85254	0.57071
1270.92397	0.57000
1268.99541	0.56916
1267.06685	0.56829
1265.13828	0.56745
1263.20972	0.56647
1261.28115	0.56541
1259.35259	0.56440
1257.42402	0.56363
1255.49546	0.56329
1253.56689	0.56330
1251.63833	0.56347
1249.70977	0.56364
1247.78120	0.56371
1245.85264	0.56355
1243.92407	0.56301
1241.99551	0.56204
1240.06694	0.56062
1238.13838	0.55858
1236.20981	0.55602
1234.28125	0.55330
1232.35269	0.55058
1230.42412	0.54802
1228.49556	0.54575
1226.56699	0.54369
1224.63843	0.54180
1222.70986	0.54014
1220.78130	0.53852
1218.85273	0.53683
1216.92417	0.53534
1214.99561	0.53408
1213.06704	0.53296
1211.13848	0.53217
1209.20991	0.53155
1207.28135	0.53080
1205.35278	0.53000
1203.42422	0.52916
1201.49565	0.52817
1199.56709	0.52718
1197.63853	0.52632
1195.70996	0.52567
1193.78140	0.52528
1191.85283	0.52493
1189.92427	0.52468
1187.99570	0.52469
1186.06714	0.52475
1184.13857	0.52472
1182.21001	0.52502
1180.28145	0.52591
1178.35288	0.52727
1176.42432	0.52887
1174.49575	0.53036
1172.56719	0.53142
1170.63862	0.53182
1168.71006	0.53156
1166.78149	0.53084
1164.85293	0.52997
1162.92437	0.52923
1160.99580	0.52875
1159.06724	0.52823
1157.13867	0.52733
1155.21011	0.52618
1153.28154	0.52484
1151.35298	0.52318
1149.42441	0.52105
1147.49585	0.51852
1145.56729	0.51594
1143.63872	0.51360
1141.71016	0.51143
1139.78159	0.50942
1137.85303	0.50789
1135.92446	0.50687
1133.99590	0.50596
1132.06733	0.50515
1130.13877	0.50471
1128.21021	0.50419
1126.28164	0.50319
1124.35308	0.50215
1122.42451	0.50148
1120.49595	0.50102
1118.56738	0.50067
1116.63882	0.50059
1114.71025	0.50068
1112.78169	0.50063
1110.85312	0.50045
1108.92456	0.50072
1106.99600	0.50181
1105.06743	0.50334
1103.13887	0.50483
1101.21030	0.50639
1099.28174	0.50843
1097.35317	0.51116
1095.42461	0.51438
1093.49604	0.51769
1091.56748	0.52117
1089.63892	0.52563
1087.71035	0.53129
1085.78179	0.53762
1083.85322	0.54413
1081.92466	0.55038
1079.99609	0.55554
1078.06753	0.55855
1076.13896	0.55879
1074.21040	0.55656
1072.28184	0.55236
1070.35327	0.54640
1068.42471	0.53943
1066.49614	0.53247
1064.56758	0.52592
1062.63901	0.52002
1060.71045	0.51498
1058.78188	0.51053
1056.85332	0.50635
1054.92476	0.50256
1052.99619	0.49929
1051.06763	0.49633
1049.13906	0.49362
1047.21050	0.49128
1045.28193	0.48929
1043.35337	0.48762
1041.42480	0.48626
1039.49624	0.48496
1037.56768	0.48379
1035.63911	0.48316
1033.71055	0.48289
1031.78198	0.48247
1029.85342	0.48190
1027.92485	0.48141
1025.99629	0.48108
1024.06772	0.48099
1022.13916	0.48117
1020.21060	0.48156
1018.28203	0.48226
1016.35347	0.48315
1014.42490	0.48388
1012.49634	0.48459
1010.56777	0.48556
1008.63921	0.48666
1006.71064	0.48799
1004.78208	0.48982
1002.85352	0.49200
1000.92495	0.49452
998.99639	0.49771
997.06782	0.50157
995.13926	0.50565
993.21069	0.50958
991.28213	0.51327
989.35356	0.51634
987.42500	0.51817
985.49644	0.51891
983.56787	0.51933
981.63931	0.51981
979.71074	0.52057
977.78218	0.52191
975.85361	0.52386
973.92505	0.52644
971.99648	0.52956
970.06792	0.53289
968.13936	0.53646
966.21079	0.54055
964.28223	0.54516
962.35366	0.55004
960.42510	0.55514
958.49653	0.56053
956.56797	0.56623
954.63940	0.57230
952.71084	0.57857
950.78228	0.58465
948.85371	0.59051
946.92515	0.59649
944.99658	0.60274
943.06802	0.60904
941.13945	0.61522
939.21089	0.62138
937.28232	0.62724
935.35376	0.63279
933.42520	0.63843
931.49663	0.64396
929.56807	0.64924
927.63950	0.65457
925.71094	0.66028
923.78237	0.66644
921.85381	0.67293
919.92524	0.67986
917.99668	0.68729
916.06812	0.69462
914.13955	0.70175
912.21099	0.70947
910.28242	0.71808
908.35386	0.72678
906.42529	0.73504
904.49673	0.74358
902.56816	0.75261
900.63960	0.76161
898.71104	0.77104
896.78247	0.78134
894.85391	0.79148
892.92534	0.80029
890.99678	0.80840
889.06821	0.81736
887.13965	0.82776
885.21108	0.84001
883.28252	0.85357
881.35396	0.86539
879.42539	0.87454
877.49683	0.88447
875.56826	0.89708
873.63970	0.90976
871.71113	0.92042
869.78257	0.93094
867.85400	0.94336
865.92544	0.95644
863.99687	0.96874
862.06831	0.98019
860.13975	0.99081
858.21118	1.00188
856.28262	1.01441
854.35405	1.02676
852.42549	1.03802
850.49692	1.04936
848.56836	1.06045
846.63979	1.07068
844.71123	1.08009
842.78267	1.08953
840.85410	1.10134
838.92554	1.11544
836.99697	1.12978
835.06841	1.14144
833.13984	1.14886
831.21128	1.15519
829.28271	1.16304
827.35415	1.17373
825.42559	1.18386
823.49702	1.18565
821.56846	1.18376
819.63989	1.19149
817.71133	1.21030
815.78276	1.22483
813.85420	1.21979
811.92563	1.20820
809.99707	1.20847
808.06851	1.21590
806.13994	1.22773
804.21138	1.24148
802.28281	1.24379
800.35425	1.23179
798.42568	1.22035
796.49712	1.23181
794.56855	1.26293
792.63999	1.27525
790.71143	1.25105
788.78286	1.22661
786.85430	1.23022
784.92573	1.22920
782.99717	1.19061
781.06860	1.16157
779.14004	1.15328
777.21147	1.13746
775.28291	1.13459
773.35435	1.14038
771.42578	1.14106
769.49722	1.14775
767.56865	1.12313
765.64009	1.09823
763.71152	1.15934
761.78296	1.24265
759.85439	1.15683
757.92583	1.01276
755.99727	0.94485
754.06870	0.95437
752.14014	0.95575
750.21157	0.88870
748.28301	0.80873
746.35444	0.74529
744.42588	0.71400
742.49731	0.71797
740.56875	0.70831
738.64019	0.67083
736.71162	0.60807
734.78306	0.49932
732.85449	0.39482
730.92593	0.30473
728.99736	0.18072
727.06880	0.02726
725.14023	-0.08251
723.21167	-0.12250
721.28311	-0.12477
719.35454	-0.11908
717.42598	-0.22232
715.49741	-0.29232
713.56885	-0.26209
711.64028	-0.23713
709.71172	-0.21558
707.78315	-0.16258
705.85459	-0.08941
703.92603	-0.04505
701.99746	0.02475
700.06890	0.10171
698.14033	0.12584
696.21177	0.10934
694.28320	0.13450
692.35464	0.20633
690.42607	0.20494
688.49751	0.16552
686.56895	0.13197
684.64038	0.11229
682.71182	0.15132
680.78325	0.21642
678.85469	0.23386
676.92612	0.22461
674.99756	0.21418
673.06899	0.17792
671.14043	0.11713
669.21187	0.07820
667.28330	0.07113
665.35474	0.06353
663.42617	0.04857
661.49761	0.04912
659.56904	0.06073
657.64048	0.07778
655.71191	0.09710
653.78335	0.08889
651.85479	0.07790
649.92622	0.09991
647.99766	0.12018
646.06909	0.09447
644.14053	0.07533
642.21196	0.08957
640.28340	0.10234
638.35483	0.11479
636.42627	0.13113
634.49771	0.12043
632.56914	0.09700
630.64058	0.08497
628.71201	0.10083
626.78345	0.16107
624.85488	0.21394
622.92632	0.22537
620.99775	0.25390
619.06919	0.27878
617.14062	0.26329
615.21206	0.22874
613.28350	0.15267
611.35493	0.08751
609.42637	0.09220
607.49780	0.12345
605.56924	0.13068
603.64067	0.11726
601.71211	0.10717
599.78354	0.11268
597.85498	0.14504
595.92642	0.22674
593.99785	0.28478
592.06929	0.23570
590.14072	0.13111
588.21216	0.05514
586.28359	0.04085
584.35503	0.06765
582.42646	0.10091
580.49790	0.13556
578.56934	0.19416
576.64077	0.25540
574.71221	0.30452
572.78364	0.36211
570.85508	0.34274
568.92651	0.23049
566.99795	0.14874
565.06938	0.12872
563.14082	0.16064
561.21226	0.20664
559.28369	0.19808
557.35513	0.14665
555.42656	0.09350
553.49800	0.06243
551.56943	0.05190
549.64087	0.04895
547.71230	0.07354
545.78374	0.12310
543.85518	0.14095
541.92661	0.13288
539.99805	0.11161
538.06948	0.06606
536.14092	0.03925
534.21235	0.04411
532.28379	0.06105
530.35522	0.07481
528.42666	0.08674
526.49810	0.10385
524.56953	0.12188
522.64097	0.12695
520.71240	0.14280
518.78384	0.19941
516.85527	0.24778
514.92671	0.22718
512.99814	0.19344
511.06958	0.17547
509.14102	0.14400
507.21245	0.09127
505.28389	0.06209
503.35532	0.07945
501.42676	0.08357
499.49819	0.04903
