3997.91411	0.06732
3995.98555	0.06794
3994.05698	0.06834
3992.12842	0.06853
3990.19985	0.06884
3988.27129	0.06928
3986.34272	0.06961
3984.41416	0.06986
3982.48560	0.07017
3980.55703	0.07050
3978.62847	0.07087
3976.69990	0.07141
3974.77134	0.07199
3972.84277	0.07221
3970.91421	0.07191
3968.98564	0.07159
3967.05708	0.07165
3965.12852	0.07189
3963.19995	0.07228
3961.27139	0.07279
3959.34282	0.07278
3957.41426	0.07219
3955.48569	0.07194
3953.55713	0.07234
3951.62856	0.07326
3949.70000	0.07459
3947.77144	0.07553
3945.84287	0.07534
3943.91431	0.07474
3941.98574	0.07444
3940.05718	0.07391
3938.12861	0.07315
3936.20005	0.07293
3934.27148	0.07353
3932.34292	0.07468
3930.41436	0.07547
3928.48579	0.07532
3926.55723	0.07498
3924.62866	0.07510
3922.70010	0.07513
3920.77153	0.07471
3918.84297	0.07447
3916.91440	0.07439
3914.98584	0.07360
3913.05728	0.07234
3911.12871	0.07161
3909.20015	0.07156
3907.27158	0.07233
3905.34302	0.07455
3903.41445	0.07774
3901.48589	0.07954
3899.55732	0.07916
3897.62876	0.07755
3895.70020	0.07561
3893.77163	0.07478
3891.84307	0.07537
3889.91450	0.07527
3887.98594	0.07414
3886.05737	0.07483
3884.12881	0.07705
3882.20024	0.07827
3880.27168	0.07876
3878.34312	0.07819
3876.41455	0.07701
3874.48599	0.07753
3872.55742	0.07906
3870.62886	0.08002
3868.70029	0.08047
3866.77173	0.08025
3864.84316	0.08023
3862.91460	0.08031
3860.98604	0.07941
3859.05747	0.07860
3857.12891	0.07921
3855.20034	0.08171
3853.27178	0.08625
3851.34321	0.08808
3849.41465	0.08439
3847.48608	0.08118
3845.55752	0.08042
3843.62896	0.08186
3841.70039	0.08464
3839.77183	0.08776
3837.84326	0.09031
3835.91470	0.09055
3833.98613	0.08894
3832.05757	0.08769
3830.12900	0.08729
3828.20044	0.08772
3826.27187	0.08893
3824.34331	0.09045
3822.41475	0.09272
3820.48618	0.09604
3818.55762	0.09708
3816.62905	0.09635
3814.70049	0.09593
3812.77192	0.09471
3810.84336	0.09374
3808.91479	0.09452
3806.98623	0.09707
3805.05767	0.09977
3803.12910	0.10170
3801.20054	0.10436
3799.27197	0.10635
3797.34341	0.10621
3795.41484	0.10577
3793.48628	0.10524
3791.55771	0.10495
3789.62915	0.10548
3787.70059	0.10673
3785.77202	0.10880
3783.84346	0.11088
3781.91489	0.11216
3779.98633	0.11413
3778.05776	0.11693
3776.12920	0.11811
3774.20063	0.11819
3772.27207	0.11932
3770.34351	0.12225
3768.41494	0.12567
3766.48638	0.12780
3764.55781	0.12945
3762.62925	0.13108
3760.70068	0.13342
3758.77212	0.13703
3756.84355	0.14019
3754.91499	0.14259
3752.98643	0.14656
3751.05786	0.15318
3749.12930	0.15867
3747.20073	0.15969
3745.27217	0.16089
3743.34360	0.16441
3741.41504	0.16737
3739.48647	0.16962
3737.55791	0.17333
3735.62935	0.17943
3733.70078	0.18594
3731.77222	0.18933
3729.84365	0.19142
3727.91509	0.19476
3725.98652	0.20033
3724.05796	0.20730
3722.12939	0.21409
3720.20083	0.22080
3718.27227	0.22764
3716.34370	0.23460
3714.41514	0.24219
3712.48657	0.25266
3710.55801	0.26783
3708.62944	0.28240
3706.70088	0.29259
3704.77231	0.30258
3702.84375	0.31582
3700.91519	0.33346
3698.98662	0.35190
3697.05806	0.36907
3695.12949	0.38798
3693.20093	0.40891
3691.27236	0.43211
3689.34380	0.46142
3687.41523	0.49592
3685.48667	0.52567
3683.55811	0.55142
3681.62954	0.57970
3679.70098	0.61278
3677.77241	0.64853
3675.84385	0.69032
3673.91528	0.74421
3671.98672	0.78703
3670.05815	0.82581
3668.12959	0.87949
3666.20103	0.92728
3664.27246	0.96698
3662.34390	1.01078
3660.41533	1.05881
3658.48677	1.10608
3656.55820	1.15627
3654.62964	1.21222
3652.70107	1.25960
3650.77251	1.30215
3648.84395	1.36183
3646.91538	1.43308
3644.98682	1.48224
3643.05825	1.51926
3641.12969	1.55844
3639.20112	1.60217
3637.27256	1.64623
3635.34399	1.68984
3633.41543	1.73439
3631.48687	1.77655
3629.55830	1.81963
3627.62974	1.87549
3625.70117	1.92576
3623.77261	1.95830
3621.84404	1.99013
3619.91548	2.02886
3617.98691	2.07707
3616.05835	2.12250
3614.12979	2.15949
3612.20122	2.19839
3610.27266	2.23724
3608.34409	2.27613
3606.41553	2.31755
3604.48696	2.35635
3602.55840	2.39214
3600.62983	2.43153
3598.70127	2.47397
3596.77271	2.51369
3594.84414	2.55248
3592.91558	2.59373
3590.98701	2.63431
3589.05845	2.67188
3587.12988	2.71497
3585.20132	2.76195
3583.27275	2.80201
3581.34419	2.83940
3579.41562	2.88036
3577.48706	2.92455
3575.55850	2.96873
3573.62993	3.01255
3571.70137	3.05434
3569.77280	3.09360
3567.84424	3.13531
3565.91567	3.18755
3563.98711	3.23779
3562.05854	3.27674
3560.12998	3.31525
3558.20142	3.35779
3556.27285	3.40298
3554.34429	3.44859
3552.41572	3.49645
3550.48716	3.54540
3548.55859	3.59086
3546.63003	3.63323
3544.70146	3.67918
3542.77290	3.72907
3540.84434	3.77544
3538.91577	3.82034
3536.98721	3.86826
3535.05864	3.91854
3533.13008	3.96686
3531.20151	4.01254
3529.27295	4.05909
3527.34438	4.11014
3525.41582	4.16216
3523.48726	4.21013
3521.55869	4.25626
3519.63013	4.30236
3517.70156	4.34796
3515.77300	4.39247
3513.84443	4.43734
3511.91587	4.48321
3509.98730	4.53251
3508.05874	4.58600
3506.13018	4.63830
3504.20161	4.68765
3502.27305	4.73633
3500.34448	4.78274
3498.41592	4.82519
3496.48735	4.86734
3494.55879	4.91142
3492.63022	4.96114
3490.70166	5.01657
3488.77310	5.07070
3486.84453	5.12184
3484.91597	5.16591
3482.98740	5.20342
3481.05884	5.24872
3479.13027	5.30133
3477.20171	5.35393
3475.27314	5.40650
3473.34458	5.45294
3471.41602	5.48960
3469.48745	5.52747
3467.55889	5.57525
3465.63032	5.62154
3463.70176	5.66789
3461.77319	5.72288
3459.84463	5.77441
3457.91606	5.82028
3455.98750	5.87323
3454.05894	5.93531
3452.13037	6.00384
3450.20181	6.06969
3448.27324	6.11427
3446.34468	6.14839
3444.41611	6.19447
3442.48755	6.23998
3440.55898	6.27487
3438.63042	6.32174
3436.70186	6.37369
3434.77329	6.41063
3432.84473	6.45065
3430.91616	6.50392
3428.98760	6.57112
3427.05903	6.64586
3425.13047	6.70550
3423.20190	6.74090
3421.27334	6.77685
3419.34478	6.82097
3417.41621	6.86920
3415.48765	6.92653
3413.55908	6.97321
3411.63052	6.99510
3409.70195	7.00737
3407.77339	7.04193
3405.84482	7.09011
3403.91626	7.13924
3401.98770	7.18746
3400.05913	7.22562
3398.13057	7.27215
3396.20200	7.32588
3394.27344	7.35687
3392.34487	7.37661
3390.41631	7.43766
3388.48774	7.51766
3386.55918	7.57708
3384.63062	7.60949
3382.70205	7.60766
3380.77349	7.59692
3378.84492	7.60753
3376.91636	7.63801
3374.98779	7.69555
3373.05923	7.78790
3371.13066	7.81862
3369.20210	7.76435
3367.27354	7.71808
3365.34497	7.72648
3363.41641	7.75725
3361.48784	7.76410
3359.55928	7.78047
3357.63071	7.83526
3355.70215	7.89931
3353.77358	7.91003
3351.84502	7.85436
3349.91646	7.79609
3347.98789	7.85129
3346.05933	7.98598
3344.13076	8.00026
3342.20220	7.91313
3340.27363	7.86015
3338.34507	7.82598
3336.41650	7.79672
3334.48794	7.86578
3332.55937	7.98999
3330.63081	8.00134
3328.70225	7.92262
3326.77368	7.93365
3324.84512	8.05523
3322.91655	8.13556
3320.98799	8.13262
3319.05942	8.10810
3317.13086	8.10531
3315.20229	8.08759
3313.27373	8.04035
3311.34517	7.99125
3309.41660	7.96013
3307.48804	7.98214
3305.55947	8.04465
3303.63091	8.09553
3301.70234	8.07801
3299.77378	8.02351
3297.84521	8.02965
3295.91665	8.13664
3293.98809	8.21857
3292.05952	8.20610
3290.13096	8.21008
3288.20239	8.21963
3286.27383	8.21905
3284.34526	8.23620
3282.41670	8.18914
3280.48813	8.06002
3278.55957	7.97533
3276.63101	7.95813
3274.70244	7.95155
3272.77388	7.93773
3270.84531	7.93192
3268.91675	7.95106
3266.98818	8.02970
3265.05962	8.19853
3263.13105	8.30256
3261.20249	8.22644
3259.27393	8.13373
3257.34536	8.10073
3255.41680	8.06620
3253.48823	8.08827
3251.55967	8.21752
3249.63110	8.30153
3247.70254	8.23957
3245.77397	8.12482
3243.84541	8.08685
3241.91685	8.09311
3239.98828	8.02942
3238.05972	7.97304
3236.13115	8.03196
3234.20259	8.13452
3232.27402	8.13838
3230.34546	8.06595
3228.41689	8.04653
3226.48833	8.06290
3224.55977	8.01900
3222.63120	7.97944
3220.70264	7.96290
3218.77407	7.90854
3216.84551	7.88066
3214.91694	7.90924
3212.98838	7.90906
3211.05981	7.87075
3209.13125	7.85638
3207.20269	7.83992
3205.27412	7.77733
3203.34556	7.69145
3201.41699	7.64368
3199.48843	7.62655
3197.55986	7.56895
3195.63130	7.52427
3193.70273	7.55590
3191.77417	7.59661
3189.84561	7.59791
3187.91704	7.54476
3185.98848	7.44947
3184.05991	7.39793
3182.13135	7.36968
3180.20278	7.27601
3178.27422	7.16750
3176.34565	7.10585
3174.41709	7.05482
3172.48853	6.98996
3170.55996	6.93575
3168.63140	6.90064
3166.70283	6.86046
3164.77427	6.79580
3162.84570	6.71041
3160.91714	6.62787
3158.98857	6.57158
3157.06001	6.52861
3155.13145	6.46906
3153.20288	6.37998
3151.27432	6.27688
3149.34575	6.19545
3147.41719	6.15206
3145.48862	6.11584
3143.56006	6.05107
3141.63149	5.96973
3139.70293	5.89329
3137.77437	5.82490
3135.84580	5.76065
3133.91724	5.69433
3131.98867	5.62074
3130.06011	5.54590
3128.13154	5.47949
3126.20298	5.41440
3124.27441	5.34082
3122.34585	5.25888
3120.41729	5.17959
3118.48872	5.11357
3116.56016	5.05354
3114.63159	4.98796
3112.70303	4.91949
3110.77446	4.85149
3108.84590	4.77981
3106.91733	4.70415
3104.98877	4.62845
3103.06021	4.55904
3101.13164	4.49712
3099.20308	4.43668
3097.27451	4.37257
3095.34595	4.30390
3093.41738	4.23677
3091.48882	4.17504
3089.56025	4.11411
3087.63169	4.05183
3085.70312	3.99023
3083.77456	3.92894
3081.84600	3.86707
3079.91743	3.80431
3077.98887	3.74284
3076.06030	3.68635
3074.13174	3.63230
3072.20317	3.57650
3070.27461	3.51902
3068.34604	3.46189
3066.41748	3.40686
3064.48892	3.35259
3062.56035	3.29758
3060.63179	3.24353
3058.70322	3.19107
3056.77466	3.13859
3054.84609	3.08541
3052.91753	3.03309
3050.98896	2.98356
3049.06040	2.93576
3047.13184	2.88723
3045.20327	2.83816
3043.27471	2.79008
3041.34614	2.74307
3039.41758	2.69647
3037.48901	2.64985
3035.56045	2.60395
3033.63188	2.55984
3031.70332	2.51672
3029.77476	2.47346
3027.84619	2.43061
3025.91763	2.38825
3023.98906	2.34590
3022.06050	2.30439
3020.13193	2.26441
3018.20337	2.22509
3016.27480	2.18593
3014.34624	2.14744
3012.41768	2.10983
3010.48911	2.07274
3008.56055	2.03612
3006.63198	2.00044
3004.70342	1.96520
3002.77485	1.93023
3000.84629	1.89656
2998.91772	1.86394
2996.98916	1.83149
2995.06060	1.79966
2993.13203	1.76858
2991.20347	1.73800
2989.27490	1.70802
2987.34634	1.67864
2985.41777	1.65009
2983.48921	1.62215
2981.56064	1.59413
2979.63208	1.56608
2977.70352	1.53867
2975.77495	1.51218
2973.84639	1.48649
2971.91782	1.46144
2969.98926	1.43691
2968.06069	1.41283
2966.13213	1.38885
2964.20356	1.36463
2962.27500	1.34056
2960.34644	1.31723
2958.41787	1.29437
2956.48931	1.27121
2954.56074	1.24800
2952.63218	1.22538
2950.70361	1.20311
2948.77505	1.18116
2946.84648	1.15977
2944.91792	1.13864
2942.98936	1.11773
2941.06079	1.09759
2939.13223	1.07845
2937.20366	1.05986
2935.27510	1.04099
2933.34653	1.02173
2931.41797	1.00298
2929.48940	0.98495
2927.56084	0.96725
2925.63228	0.94996
2923.70371	0.93309
2921.77515	0.91622
2919.84658	0.89933
2917.91802	0.88267
2915.98945	0.86664
2914.06089	0.85119
2912.13232	0.83577
2910.20376	0.82061
2908.27520	0.80599
2906.34663	0.79165
2904.41807	0.77745
2902.48950	0.76374
2900.56094	0.75079
2898.63237	0.73818
2896.70381	0.72574
2894.77524	0.71370
2892.84668	0.70191
2890.91812	0.69018
2888.98955	0.67877
2887.06099	0.66780
2885.13242	0.65701
2883.20386	0.64641
2881.27529	0.63634
2879.34673	0.62696
2877.41816	0.61769
2875.48960	0.60783
2873.56104	0.59750
2871.63247	0.58732
2869.70391	0.57731
2867.77534	0.56704
2865.84678	0.55638
2863.91821	0.54577
2861.98965	0.53565
2860.06108	0.52609
2858.13252	0.51690
2856.20396	0.50785
2854.27539	0.49894
2852.34683	0.49046
2850.41826	0.48230
2848.48970	0.47413
2846.56113	0.46617
2844.63257	0.45880
2842.70400	0.45196
2840.77544	0.44552
2838.84687	0.43939
2836.91831	0.43343
2834.98975	0.42766
2833.06118	0.42194
2831.13262	0.41606
2829.20405	0.41016
2827.27549	0.40433
2825.34692	0.39854
2823.41836	0.39291
2821.48979	0.38735
2819.56123	0.38154
2817.63267	0.37568
2815.70410	0.37016
2813.77554	0.36490
2811.84697	0.35978
2809.91841	0.35468
2807.98984	0.34944
2806.06128	0.34423
2804.13271	0.33923
2802.20415	0.33438
2800.27559	0.32964
2798.34702	0.32500
2796.41846	0.32043
2794.48989	0.31602
2792.56133	0.31182
2790.63276	0.30767
2788.70420	0.30330
2786.77563	0.29888
2784.84707	0.29484
2782.91851	0.29109
2780.98994	0.28713
2779.06138	0.28301
2777.13281	0.27911
2775.20425	0.27556
2773.27568	0.27223
2771.34712	0.26881
2769.41855	0.26520
2767.48999	0.26162
2765.56143	0.25822
2763.63286	0.25487
2761.70430	0.25150
2759.77573	0.24825
2757.84717	0.24535
2755.91860	0.24276
2753.99004	0.24011
2752.06147	0.23717
2750.13291	0.23413
2748.20435	0.23116
2746.27578	0.22833
2744.34722	0.22573
2742.41865	0.22329
2740.49009	0.22087
2738.56152	0.21849
2736.63296	0.21615
2734.70439	0.21380
2732.77583	0.21141
2730.84727	0.20902
2728.91870	0.20674
2726.99014	0.20463
2725.06157	0.20268
2723.13301	0.20084
2721.20444	0.19889
2719.27588	0.19683
2717.34731	0.19488
2715.41875	0.19309
2713.49019	0.19142
2711.56162	0.18980
2709.63306	0.18808
2707.70449	0.18628
2705.77593	0.18454
2703.84736	0.18290
2701.91880	0.18135
2699.99023	0.17981
2698.06167	0.17832
2696.13311	0.17702
2694.20454	0.17581
2692.27598	0.17458
2690.34741	0.17340
2688.41885	0.17224
2686.49028	0.17089
2684.56172	0.16939
2682.63315	0.16809
2680.70459	0.16706
2678.77603	0.16611
2676.84746	0.16506
2674.91890	0.16389
2672.99033	0.16278
2671.06177	0.16187
2669.13320	0.16098
2667.20464	0.15998
2665.27607	0.15911
2663.34751	0.15842
2661.41895	0.15763
2659.49038	0.15675
2657.56182	0.15597
2655.63325	0.15525
2653.70469	0.15457
2651.77612	0.15397
2649.84756	0.15336
2647.91899	0.15265
2645.99043	0.15201
2644.06187	0.15142
2642.13330	0.15083
2640.20474	0.15034
2638.27617	0.14994
2636.34761	0.14957
2634.41904	0.14916
2632.49048	0.14872
2630.56191	0.14828
2628.63335	0.14785
2626.70479	0.14747
2624.77622	0.14717
2622.84766	0.14702
2620.91909	0.14699
2618.99053	0.14681
2617.06196	0.14640
2615.13340	0.14606
2613.20483	0.14597
2611.27627	0.14598
2609.34771	0.14589
2607.41914	0.14576
2605.49058	0.14568
2603.56201	0.14559
2601.63345	0.14554
2599.70488	0.14566
2597.77632	0.14584
2595.84775	0.14593
2593.91919	0.14605
2591.99062	0.14616
2590.06206	0.14621
2588.13350	0.14634
2586.20493	0.14655
2584.27637	0.14671
2582.34780	0.14685
2580.41924	0.14706
2578.49067	0.14737
2576.56211	0.14766
2574.63354	0.14796
2572.70498	0.14839
2570.77642	0.14888
2568.84785	0.14925
2566.91929	0.14957
2564.99072	0.14993
2563.06216	0.15024
2561.13359	0.15056
2559.20503	0.15104
2557.27646	0.15164
2555.34790	0.15216
2553.41934	0.15256
2551.49077	0.15297
2549.56221	0.15342
2547.63364	0.15400
2545.70508	0.15468
2543.77651	0.15532
2541.84795	0.15596
2539.91938	0.15664
2537.99082	0.15732
2536.06226	0.15794
2534.13369	0.15846
2532.20513	0.15902
2530.27656	0.15974
2528.34800	0.16046
2526.41943	0.16100
2524.49087	0.16152
2522.56230	0.16234
2520.63374	0.16333
2518.70518	0.16420
2516.77661	0.16496
2514.84805	0.16561
2512.91948	0.16620
2510.99092	0.16693
2509.06235	0.16786
2507.13379	0.16877
2505.20522	0.16959
2503.27666	0.17053
2501.34810	0.17152
2499.41953	0.17228
2497.49097	0.17293
2495.56240	0.17368
2493.63384	0.17452
2491.70527	0.17535
2489.77671	0.17619
2487.84814	0.17711
2485.91958	0.17800
2483.99102	0.17875
2482.06245	0.17943
2480.13389	0.18015
2478.20532	0.18097
2476.27676	0.18191
2474.34819	0.18298
2472.41963	0.18403
2470.49106	0.18489
2468.56250	0.18568
2466.63394	0.18660
2464.70537	0.18761
2462.77681	0.18856
2460.84824	0.18940
2458.91968	0.19017
2456.99111	0.19106
2455.06255	0.19215
2453.13398	0.19322
2451.20542	0.19413
2449.27686	0.19499
2447.34829	0.19585
2445.41973	0.19680
2443.49116	0.19787
2441.56260	0.19900
2439.63403	0.20009
2437.70547	0.20112
2435.77690	0.20209
2433.84834	0.20309
2431.91978	0.20418
2429.99121	0.20531
2428.06265	0.20632
2426.13408	0.20716
2424.20552	0.20798
2422.27695	0.20897
2420.34839	0.21017
2418.41982	0.21153
2416.49126	0.21282
2414.56270	0.21388
2412.63413	0.21492
2410.70557	0.21598
2408.77700	0.21702
2406.84844	0.21813
2404.91987	0.21934
2402.99131	0.22049
2401.06274	0.22163
2399.13418	0.22284
2397.20562	0.22416
2395.27705	0.22560
2393.34849	0.22695
2391.41992	0.22815
2389.49136	0.22933
2387.56279	0.23058
2385.63423	0.23204
2383.70566	0.23385
2381.77710	0.23602
2379.84854	0.23840
2377.91997	0.24095
2375.99141	0.24387
2374.06284	0.24716
2372.13428	0.25053
2370.20571	0.25393
2368.27715	0.25719
2366.34858	0.26031
2364.42002	0.26352
2362.49146	0.26640
2360.56289	0.26833
2358.63433	0.26956
2356.70576	0.27030
2354.77720	0.27006
2352.84863	0.26941
2350.92007	0.26875
2348.99150	0.26849
2347.06294	0.26959
2345.13437	0.27247
2343.20581	0.27596
2341.27725	0.27856
2339.34868	0.28035
2337.42012	0.28153
2335.49155	0.28220
2333.56299	0.28303
2331.63442	0.28483
2329.70586	0.28681
2327.77729	0.28805
2325.84873	0.28887
2323.92017	0.28963
2321.99160	0.29047
2320.06304	0.29123
2318.13447	0.29185
2316.20591	0.29266
2314.27734	0.29371
2312.34878	0.29487
2310.42021	0.29611
2308.49165	0.29730
2306.56309	0.29841
2304.63452	0.29956
2302.70596	0.30094
2300.77739	0.30248
2298.84883	0.30395
2296.92026	0.30540
2294.99170	0.30699
2293.06313	0.30863
2291.13457	0.31021
2289.20601	0.31186
2287.27744	0.31365
2285.34888	0.31549
2283.42031	0.31731
2281.49175	0.31913
2279.56318	0.32110
2277.63462	0.32315
2275.70605	0.32512
2273.77749	0.32714
2271.84893	0.32930
2269.92036	0.33148
2267.99180	0.33357
2266.06323	0.33562
2264.13467	0.33766
2262.20610	0.33964
2260.27754	0.34157
2258.34897	0.34358
2256.42041	0.34571
2254.49185	0.34785
2252.56328	0.34990
2250.63472	0.35198
2248.70615	0.35424
2246.77759	0.35656
2244.84902	0.35869
2242.92046	0.36072
2240.99189	0.36282
2239.06333	0.36499
2237.13477	0.36711
2235.20620	0.36910
2233.27764	0.37109
2231.34907	0.37331
2229.42051	0.37566
2227.49194	0.37793
2225.56338	0.38011
2223.63481	0.38222
2221.70625	0.38440
2219.77769	0.38669
2217.84912	0.38895
2215.92056	0.39110
2213.99199	0.39324
2212.06343	0.39538
2210.13486	0.39743
2208.20630	0.39941
2206.27773	0.40139
2204.34917	0.40350
2202.42061	0.40575
2200.49204	0.40790
2198.56348	0.40985
2196.63491	0.41165
2194.70635	0.41341
2192.77778	0.41528
2190.84922	0.41723
2188.92065	0.41913
2186.99209	0.42100
2185.06353	0.42279
2183.13496	0.42448
2181.20640	0.42619
2179.27783	0.42795
2177.34927	0.42970
2175.42070	0.43141
2173.49214	0.43300
2171.56357	0.43442
2169.63501	0.43579
2167.70645	0.43712
2165.77788	0.43831
2163.84932	0.43935
2161.92075	0.44042
2159.99219	0.44159
2158.06362	0.44270
2156.13506	0.44370
2154.20649	0.44474
2152.27793	0.44581
2150.34937	0.44668
2148.42080	0.44734
2146.49224	0.44794
2144.56367	0.44851
2142.63511	0.44904
2140.70654	0.44944
2138.77798	0.44976
2136.84941	0.44998
2134.92085	0.45009
2132.99229	0.45019
2131.06372	0.45029
2129.13516	0.45028
2127.20659	0.45013
2125.27803	0.44990
2123.34946	0.44958
2121.42090	0.44921
2119.49233	0.44876
2117.56377	0.44822
2115.63521	0.44766
2113.70664	0.44711
2111.77808	0.44641
2109.84951	0.44552
2107.92095	0.44452
2105.99238	0.44343
2104.06382	0.44228
2102.13525	0.44108
2100.20669	0.43992
2098.27812	0.43876
2096.34956	0.43744
2094.42100	0.43596
2092.49243	0.43445
2090.56387	0.43300
2088.63530	0.43150
2086.70674	0.42977
2084.77817	0.42787
2082.84961	0.42603
2080.92104	0.42424
2078.99248	0.42239
2077.06392	0.42036
2075.13535	0.41824
2073.20679	0.41614
2071.27822	0.41405
2069.34966	0.41194
2067.42109	0.40988
2065.49253	0.40788
2063.56396	0.40565
2061.63540	0.40324
2059.70684	0.40082
2057.77827	0.39834
2055.84971	0.39585
2053.92114	0.39344
2051.99258	0.39098
2050.06401	0.38837
2048.13545	0.38576
2046.20688	0.38319
2044.27832	0.38073
2042.34976	0.37834
2040.42119	0.37578
2038.49263	0.37301
2036.56406	0.37029
2034.63550	0.36769
2032.70693	0.36507
2030.77837	0.36238
2028.84980	0.35962
2026.92124	0.35690
2024.99268	0.35423
2023.06411	0.35154
2021.13555	0.34884
2019.20698	0.34624
2017.27842	0.34366
2015.34985	0.34084
2013.42129	0.33788
2011.49272	0.33505
2009.56416	0.33236
2007.63560	0.32974
2005.70703	0.32716
2003.77847	0.32456
2001.84990	0.32190
1999.92134	0.31929
1997.99277	0.31681
1996.06421	0.31434
1994.13564	0.31200
1992.20708	0.30978
1990.27852	0.30730
1988.34995	0.30458
1986.42139	0.30187
1984.49282	0.29929
1982.56426	0.29694
1980.63569	0.29473
1978.70713	0.29261
1976.77856	0.29049
1974.85000	0.28827
1972.92144	0.28597
1970.99287	0.28377
1969.06431	0.28184
1967.13574	0.28002
1965.20718	0.27796
1963.27861	0.27576
1961.35005	0.27365
1959.42148	0.27167
1957.49292	0.26989
1955.56436	0.26822
1953.63579	0.26646
1951.70723	0.26465
1949.77866	0.26299
1947.85010	0.26146
1945.92153	0.26009
1943.99297	0.25891
1942.06440	0.25765
1940.13584	0.25589
1938.20728	0.25402
1936.27871	0.25248
1934.35015	0.25117
1932.42158	0.24991
1930.49302	0.24869
1928.56445	0.24756
1926.63589	0.24644
1924.70732	0.24557
1922.77876	0.24491
1920.85020	0.24405
1918.92163	0.24313
1916.99307	0.24217
1915.06450	0.24099
1913.13594	0.23993
1911.20737	0.23930
1909.27881	0.23883
1907.35024	0.23810
1905.42168	0.23717
1903.49312	0.23638
1901.56455	0.23575
1899.63599	0.23516
1897.70742	0.23474
1895.77886	0.23451
1893.85029	0.23425
1891.92173	0.23393
1889.99316	0.23386
1888.06460	0.23363
1886.13604	0.23304
1884.20747	0.23254
1882.27891	0.23222
1880.35034	0.23203
1878.42178	0.23200
1876.49321	0.23203
1874.56465	0.23199
1872.63608	0.23217
1870.70752	0.23290
1868.77896	0.23407
1866.85039	0.23443
1864.92183	0.23367
1862.99326	0.23306
1861.06470	0.23311
1859.13613	0.23354
1857.20757	0.23387
1855.27900	0.23420
1853.35044	0.23465
1851.42187	0.23515
1849.49331	0.23579
1847.56475	0.23677
1845.63618	0.23815
1843.70762	0.23945
1841.77905	0.23982
1839.85049	0.23978
1837.92192	0.24038
1835.99336	0.24126
1834.06479	0.24210
1832.13623	0.24334
1830.20767	0.24530
1828.27910	0.24691
1826.35054	0.24773
1824.42197	0.24878
1822.49341	0.24972
1820.56484	0.25057
1818.63628	0.25178
1816.70771	0.25336
1814.77915	0.25501
1812.85059	0.25695
1810.92202	0.25925
1808.99346	0.26132
1807.06489	0.26305
1805.13633	0.26481
1803.20776	0.26714
1801.27920	0.26999
1799.35063	0.27296
1797.42207	0.27538
1795.49351	0.27781
1793.56494	0.28102
1791.63638	0.28494
1789.70781	0.28787
1787.77925	0.28981
1785.85068	0.29266
1783.92212	0.29639
1781.99355	0.30051
1780.06499	0.30484
1778.13643	0.30903
1776.20786	0.31303
1774.27930	0.31779
1772.35073	0.32424
1770.42217	0.33039
1768.49360	0.33493
1766.56504	0.33943
1764.63647	0.34445
1762.70791	0.35038
1760.77935	0.35798
1758.85078	0.36499
1756.92222	0.37200
1754.99365	0.37966
1753.06509	0.38681
1751.13652	0.39569
1749.20796	0.40679
1747.27939	0.41714
1745.35083	0.42593
1743.42227	0.43528
1741.49370	0.44561
1739.56514	0.45787
1737.63657	0.47019
1735.70801	0.48114
1733.77944	0.49785
1731.85088	0.51744
1729.92231	0.53233
1727.99375	0.54715
1726.06519	0.56324
1724.13662	0.58138
1722.20806	0.60134
1720.27949	0.61996
1718.35093	0.64224
1716.42236	0.67491
1714.49380	0.70471
1712.56523	0.72821
1710.63667	0.75151
1708.70811	0.77713
1706.77954	0.80640
1704.85098	0.84130
1702.92241	0.87256
1700.99385	0.90379
1699.06528	0.95004
1697.13672	0.99174
1695.20815	1.03401
1693.27959	1.07546
1691.35103	1.10928
1689.42246	1.14833
1687.49390	1.18949
1685.56533	1.22967
1683.63677	1.29187
1681.70820	1.35548
1679.77964	1.39573
1677.85107	1.43466
1675.92251	1.47978
1673.99395	1.53556
1672.06538	1.58566
1670.13682	1.63498
1668.20825	1.69814
1666.27969	1.74928
1664.35112	1.79309
1662.42256	1.84845
1660.49399	1.91093
1658.56543	1.95966
1656.63687	1.99957
1654.70830	2.03701
1652.77974	2.09437
1650.85117	2.14756
1648.92261	2.16873
1646.99404	2.19789
1645.06548	2.22871
1643.13691	2.24680
1641.20835	2.25695
1639.27979	2.26666
1637.35122	2.27367
1635.42266	2.27566
1633.49409	2.26810
1631.56553	2.25244
1629.63696	2.23503
1627.70840	2.20906
1625.77983	2.17847
1623.85127	2.13851
1621.92271	2.08842
1619.99414	2.04304
1618.06558	1.99899
1616.13701	1.93723
1614.20845	1.87378
1612.27988	1.82457
1610.35132	1.77296
1608.42275	1.71742
1606.49419	1.66289
1604.56562	1.61202
1602.63706	1.56228
1600.70850	1.51380
1598.77993	1.46944
1596.85137	1.42770
1594.92280	1.38699
1592.99424	1.34755
1591.06567	1.31165
1589.13711	1.27857
1587.20854	1.24810
1585.27998	1.21981
1583.35142	1.19309
1581.42285	1.16871
1579.49429	1.14815
1577.56572	1.13003
1575.63716	1.10781
1573.70859	1.08759
1571.78003	1.07439
1569.85146	1.06113
1567.92290	1.04610
1565.99434	1.03409
1564.06577	1.02462
1562.13721	1.01773
1560.20864	1.01406
1558.28008	1.00963
1556.35151	1.00368
1554.42295	0.99915
1552.49438	0.99513
1550.56582	0.99081
1548.63726	0.98519
1546.70869	0.97881
1544.78013	0.97144
1542.85156	0.96205
1540.92300	0.94828
1538.99443	0.92570
1537.06587	0.90786
1535.13730	0.89617
1533.20874	0.88179
1531.28018	0.86600
1529.35161	0.85440
1527.42305	0.84393
1525.49448	0.83302
1523.56592	0.82377
1521.63735	0.81519
1519.70879	0.80565
1517.78022	0.79720
1515.85166	0.78746
1513.92310	0.77689
1511.99453	0.76819
1510.06597	0.76146
1508.13740	0.75597
1506.20884	0.74534
1504.28027	0.73356
1502.35171	0.72683
1500.42314	0.72179
1498.49458	0.71700
1496.56602	0.71101
1494.63745	0.70425
1492.70889	0.69915
1490.78032	0.69556
1488.85176	0.69137
1486.92319	0.68603
1484.99463	0.68105
1483.06606	0.67727
1481.13750	0.67443
1479.20894	0.67215
1477.28037	0.67070
1475.35181	0.67022
1473.42324	0.67014
1471.49468	0.66834
1469.56611	0.66496
1467.63755	0.66226
1465.70898	0.66060
1463.78042	0.65912
1461.85186	0.65776
1459.92329	0.65745
1457.99473	0.65826
1456.06616	0.65776
1454.13760	0.65466
1452.20903	0.65175
1450.28047	0.64943
1448.35190	0.64735
1446.42334	0.64499
1444.49478	0.64255
1442.56621	0.64043
1440.63765	0.63855
1438.70908	0.63693
1436.78052	0.63504
1434.85195	0.63222
1432.92339	0.62951
1430.99482	0.62763
1429.06626	0.62620
1427.13770	0.62518
1425.20913	0.62493
1423.28057	0.62510
1421.35200	0.62505
1419.42344	0.62504
1417.49487	0.62451
1415.56631	0.62288
1413.63774	0.62146
1411.70918	0.62083
1409.78062	0.62072
1407.85205	0.62089
1405.92349	0.62146
1403.99492	0.62195
1402.06636	0.62163
1400.13779	0.62096
1398.20923	0.62001
1396.28066	0.61831
1394.35210	0.61550
1392.42354	0.61189
1390.49497	0.60871
1388.56641	0.60614
1386.63784	0.60312
1384.70928	0.59933
1382.78071	0.59570
1380.85215	0.59271
1378.92358	0.59041
1376.99502	0.58882
1375.06646	0.58773
1373.13789	0.58653
1371.20933	0.58530
1369.28076	0.58433
1367.35220	0.58319
1365.42363	0.58186
1363.49507	0.58076
1361.56650	0.57952
1359.63794	0.57795
1357.70937	0.57666
1355.78081	0.57564
1353.85225	0.57464
1351.92368	0.57364
1349.99512	0.57277
1348.06655	0.57201
1346.13799	0.57117
1344.20942	0.57030
1342.28086	0.56975
1340.35229	0.56956
1338.42373	0.56906
1336.49517	0.56800
1334.56660	0.56703
1332.63804	0.56655
1330.70947	0.56642
1328.78091	0.56634
1326.85234	0.56621
1324.92378	0.56617
1322.99521	0.56635
1321.06665	0.56668
1319.13809	0.56698
1317.20952	0.56691
1315.28096	0.56646
1313.35239	0.56589
1311.42383	0.56515
1309.49526	0.56426
1307.56670	0.56350
1305.63813	0.56295
1303.70957	0.56235
1301.78101	0.56157
1299.85244	0.56074
1297.92388	0.56002
1295.99531	0.55925
1294.06675	0.55822
1292.13818	0.55711
1290.20962	0.55620
1288.28105	0.55538
1286.35249	0.55450
1284.42393	0.55364
1282.49536	0.55272
1280.56680	0.55170
1278.63823	0.55069
1276.70967	0.54977
1274.78110	0.54894
1272.85254	0.54832
1270.92397	0.54782
1268.99541	0.54716
1267.06685	0.54645
1265.13828	0.54599
1263.20972	0.54563
1261.28115	0.54507
1259.35259	0.54431
1257.42402	0.54362
1255.49546	0.54323
1253.56689	0.54310
1251.63833	0.54307
1249.70977	0.54310
1247.78120	0.54306
1245.85264	0.54289
1243.92407	0.54251
1241.99551	0.54177
1240.06694	0.54083
1238.13838	0.53992
1236.20981	0.53878
1234.28125	0.53720
1232.35269	0.53552
1230.42412	0.53406
1228.49556	0.53269
1226.56699	0.53127
1224.63843	0.52992
1222.70986	0.52870
1220.78130	0.52756
1218.85273	0.52647
1216.92417	0.52545
1214.99561	0.52455
1213.06704	0.52379
1211.13848	0.52309
1209.20991	0.52244
1207.28135	0.52183
1205.35278	0.52122
1203.42422	0.52049
1201.49565	0.51964
1199.56709	0.51885
1197.63853	0.51824
1195.70996	0.51768
1193.78140	0.51711
1191.85283	0.51657
1189.92427	0.51610
1187.99570	0.51580
1186.06714	0.51560
1184.13857	0.51548
1182.21001	0.51562
1180.28145	0.51609
1178.35288	0.51679
1176.42432	0.51766
1174.49575	0.51864
1172.56719	0.51947
1170.63862	0.51992
1168.71006	0.52006
1166.78149	0.52017
1164.85293	0.52031
1162.92437	0.52039
1160.99580	0.52030
1159.06724	0.52001
1157.13867	0.51941
1155.21011	0.51859
1153.28154	0.51770
1151.35298	0.51632
1149.42441	0.51422
1147.49585	0.51178
1145.56729	0.50928
1143.63872	0.50681
1141.71016	0.50449
1139.78159	0.50245
1137.85303	0.50080
1135.92446	0.49952
1133.99590	0.49853
1132.06733	0.49765
1130.13877	0.49679
1128.21021	0.49599
1126.28164	0.49516
1124.35308	0.49432
1122.42451	0.49369
1120.49595	0.49339
1118.56738	0.49327
1116.63882	0.49330
1114.71025	0.49352
1112.78169	0.49397
1110.85312	0.49467
1108.92456	0.49553
1106.99600	0.49652
1105.06743	0.49763
1103.13887	0.49887
1101.21030	0.50039
1099.28174	0.50230
1097.35317	0.50457
1095.42461	0.50724
1093.49604	0.51057
1091.56748	0.51477
1089.63892	0.52004
1087.71035	0.52659
1085.78179	0.53395
1083.85322	0.54136
1081.92466	0.54832
1079.99609	0.55401
1078.06753	0.55730
1076.13896	0.55758
1074.21040	0.55488
1072.28184	0.54996
1070.35327	0.54378
1068.42471	0.53700
1066.49614	0.53022
1064.56758	0.52402
1062.63901	0.51862
1060.71045	0.51388
1058.78188	0.50951
1056.85332	0.50544
1054.92476	0.50185
1052.99619	0.49890
1051.06763	0.49655
1049.13906	0.49465
1047.21050	0.49317
1045.28193	0.49216
1043.35337	0.49163
1041.42480	0.49132
1039.49624	0.49086
1037.56768	0.49042
1035.63911	0.49027
1033.71055	0.49003
1031.78198	0.48947
1029.85342	0.48873
1027.92485	0.48794
1025.99629	0.48728
1024.06772	0.48675
1022.13916	0.48643
1020.21060	0.48658
1018.28203	0.48711
1016.35347	0.48771
1014.42490	0.48820
1012.49634	0.48856
1010.56777	0.48896
1008.63921	0.48949
1006.71064	0.49030
1004.78208	0.49155
1002.85352	0.49348
1000.92495	0.49619
998.99639	0.49943
997.06782	0.50314
995.13926	0.50732
993.21069	0.51143
991.28213	0.51487
989.35356	0.51723
987.42500	0.51844
985.49644	0.51888
983.56787	0.51903
981.63931	0.51944
979.71074	0.52056
977.78218	0.52226
975.85361	0.52438
973.92505	0.52689
971.99648	0.52977
970.06792	0.53292
968.13936	0.53640
966.21079	0.54027
964.28223	0.54454
962.35366	0.54917
960.42510	0.55413
958.49653	0.55936
956.56797	0.56488
954.63940	0.57080
952.71084	0.57710
950.78228	0.58361
948.85371	0.59005
946.92515	0.59637
944.99658	0.60254
943.06802	0.60828
941.13945	0.61385
939.21089	0.61978
937.28232	0.62583
935.35376	0.63142
933.42520	0.63670
931.49663	0.64206
929.56807	0.64782
927.63950	0.65404
925.71094	0.66011
923.78237	0.66573
921.85381	0.67154
919.92524	0.67814
917.99668	0.68486
916.06812	0.69116
914.13955	0.69795
912.21099	0.70622
910.28242	0.71545
908.35386	0.72401
906.42529	0.73130
904.49673	0.73826
902.56816	0.74674
900.63960	0.75691
898.71104	0.76678
896.78247	0.77646
894.85391	0.78700
892.92534	0.79727
890.99678	0.80727
889.06821	0.81752
887.13965	0.82705
885.21108	0.83662
883.28252	0.84755
881.35396	0.85927
879.42539	0.87052
877.49683	0.88123
875.56826	0.89253
873.63970	0.90458
871.71113	0.91657
869.78257	0.92747
867.85400	0.93791
865.92544	0.94943
863.99687	0.96143
862.06831	0.97284
860.13975	0.98385
858.21118	0.99496
856.28262	1.00585
854.35405	1.01688
852.42549	1.02827
850.49692	1.03940
848.56836	1.05194
846.63979	1.06623
844.71123	1.07915
842.78267	1.08961
840.85410	1.09929
838.92554	1.10905
836.99697	1.11935
835.06841	1.12987
833.13984	1.14107
831.21128	1.15454
829.28271	1.16763
827.35415	1.17591
825.42559	1.18256
823.49702	1.19470
821.56846	1.20982
819.63989	1.22294
817.71133	1.23612
815.78276	1.24908
813.85420	1.25996
811.92563	1.27400
809.99707	1.29317
808.06851	1.30564
806.13994	1.30190
804.21138	1.29219
802.28281	1.29698
800.35425	1.31979
798.42568	1.34995
796.49712	1.37620
794.56855	1.38714
792.63999	1.38615
790.71143	1.39451
788.78286	1.44314
786.85430	1.51677
784.92573	1.49890
782.99717	1.38941
781.06860	1.31753
779.14004	1.31650
777.21147	1.37995
775.28291	1.45767
773.35435	1.45668
771.42578	1.44240
769.49722	1.52279
767.56865	1.66460
765.64009	1.54393
763.71152	1.36439
761.78296	1.31541
759.85439	1.33787
757.92583	1.35798
755.99727	1.28917
754.06870	1.16933
752.14014	1.10946
750.21157	1.11763
748.28301	1.16674
746.35444	1.28745
744.42588	1.51847
742.49731	1.41397
740.56875	1.04960
738.64019	0.88307
736.71162	0.83540
734.78306	0.77594
732.85449	0.73189
730.92593	0.79101
728.99736	0.95980
727.06880	1.18226
725.14023	0.94287
723.21167	0.63571
721.28311	0.45602
719.35454	0.35262
717.42598	0.64602
715.49741	4.29298
713.56885	0.39775
711.64028	0.18329
709.71172	0.15999
707.78315	0.10490
705.85459	0.18435
703.92603	0.51833
701.99746	0.96131
700.06890	0.81336
698.14033	0.49758
696.21177	0.39626
694.28320	0.41023
692.35464	0.40842
690.42607	0.48336
688.49751	0.73020
686.56895	0.98371
684.64038	1.27112
682.71182	4.09627
680.78325	4.08470
678.85469	1.06091
676.92612	0.46604
674.99756	0.46249
673.06899	0.74379
671.14043	0.90892
669.21187	0.60274
667.28330	0.53128
665.35474	0.58386
663.42617	0.43091
661.49761	0.28703
659.56904	0.31194
657.64048	0.57547
655.71191	1.35332
653.78335	0.92120
651.85479	0.75089
649.92622	0.67459
647.99766	0.52334
646.06909	0.48691
644.14053	0.56955
642.21196	0.69133
640.28340	0.81652
638.35483	0.81802
636.42627	0.66320
634.49771	0.54657
632.56914	0.50369
630.64058	0.66156
628.71201	3.77227
626.78345	0.76058
624.85488	0.35693
622.92632	0.22458
620.99775	0.27941
619.06919	0.41864
617.14062	0.39958
615.21206	0.35155
613.28350	0.40504
611.35493	0.45037
609.42637	0.42467
607.49780	0.44873
605.56924	0.51419
603.64067	0.35737
601.71211	0.20387
599.78354	0.18581
597.85498	0.27962
595.92642	0.39149
593.99785	0.44572
592.06929	0.46580
590.14072	0.39371
588.21216	0.32768
586.28359	0.34679
584.35503	0.41357
582.42646	0.39646
580.49790	0.29714
578.56934	0.24236
576.64077	0.28507
574.71221	0.36674
572.78364	0.34044
570.85508	0.26539
568.92651	0.21605
566.99795	0.20603
565.06938	0.27708
563.14082	0.42162
561.21226	0.53142
559.28369	0.44020
557.35513	0.30653
555.42656	0.25921
553.49800	0.21792
551.56943	0.16903
549.64087	0.21110
547.71230	0.31254
545.78374	0.38291
543.85518	0.38043
541.92661	0.31247
539.99805	0.26673
538.06948	0.25609
536.14092	0.29532
534.21235	0.37642
532.28379	0.43042
530.35522	0.43469
528.42666	0.37900
526.49810	0.31478
524.56953	0.26897
522.64097	0.24488
520.71240	0.30518
518.78384	0.52405
516.85527	0.74968
514.92671	0.44238
512.99814	0.26132
511.06958	0.19501
509.14102	0.18440
507.21245	0.18287
505.28389	0.18984
503.35532	0.22683
501.42676	0.30647
499.49819	0.40075
