3997.91411	0.06932
3995.98555	0.06980
3994.05698	0.06991
3992.12842	0.07022
3990.19985	0.07067
3988.27129	0.07091
3986.34272	0.07094
3984.41416	0.07104
3982.48560	0.07130
3980.55703	0.07154
3978.62847	0.07173
3976.69990	0.07212
3974.77134	0.07275
3972.84277	0.07306
3970.91421	0.07311
3968.98564	0.07348
3967.05708	0.07378
3965.12852	0.07367
3963.19995	0.07384
3961.27139	0.07436
3959.34282	0.07459
3957.41426	0.07450
3955.48569	0.07431
3953.55713	0.07423
3951.62856	0.07474
3949.70000	0.07594
3947.77144	0.07696
3945.84287	0.07693
3943.91431	0.07699
3941.98574	0.07762
3940.05718	0.07692
3938.12861	0.07523
3936.20005	0.07453
3934.27148	0.07533
3932.34292	0.07703
3930.41436	0.07818
3928.48579	0.07788
3926.55723	0.07746
3924.62866	0.07823
3922.70010	0.07868
3920.77153	0.07790
3918.84297	0.07793
3916.91440	0.07882
3914.98584	0.07789
3913.05728	0.07520
3911.12871	0.07332
3909.20015	0.07312
3907.27158	0.07470
3905.34302	0.07891
3903.41445	0.08471
3901.48589	0.08742
3899.55732	0.08563
3897.62876	0.08198
3895.70020	0.07886
3893.77163	0.07843
3891.84307	0.08052
3889.91450	0.08097
3887.98594	0.07872
3886.05737	0.07868
3884.12881	0.08124
3882.20024	0.08265
3880.27168	0.08280
3878.34312	0.08131
3876.41455	0.07937
3874.48599	0.08039
3872.55742	0.08367
3870.62886	0.08669
3868.70029	0.08812
3866.77173	0.08733
3864.84316	0.08738
3862.91460	0.08822
3860.98604	0.08638
3859.05747	0.08389
3857.12891	0.08436
3855.20034	0.08848
3853.27178	0.09543
3851.34321	0.09698
3849.41465	0.09015
3847.48608	0.08455
3845.55752	0.08322
3843.62896	0.08591
3841.70039	0.09073
3839.77183	0.09558
3837.84326	0.09926
3835.91470	0.09928
3833.98613	0.09662
3832.05757	0.09451
3830.12900	0.09330
3828.20044	0.09299
3826.27187	0.09402
3824.34331	0.09564
3822.41475	0.09870
3820.48618	0.10410
3818.55762	0.10597
3816.62905	0.10419
3814.70049	0.10208
3812.77192	0.09845
3810.84336	0.09578
3808.91479	0.09659
3806.98623	0.10054
3805.05767	0.10466
3803.12910	0.10815
3801.20054	0.11278
3799.27197	0.11431
3797.34341	0.11220
3795.41484	0.11034
3793.48628	0.10808
3791.55771	0.10652
3789.62915	0.10689
3787.70059	0.10861
3785.77202	0.11163
3783.84346	0.11484
3781.91489	0.11659
3779.98633	0.11843
3778.05776	0.12062
3776.12920	0.12067
3774.20063	0.12029
3772.27207	0.12210
3770.34351	0.12641
3768.41494	0.13091
3766.48638	0.13288
3764.55781	0.13362
3762.62925	0.13447
3760.70068	0.13710
3758.77212	0.14221
3756.84355	0.14632
3754.91499	0.14841
3752.98643	0.15280
3751.05786	0.16184
3749.12930	0.16975
3747.20073	0.17059
3745.27217	0.17118
3743.34360	0.17473
3741.41504	0.17755
3739.48647	0.18014
3737.55791	0.18594
3735.62935	0.19607
3733.70078	0.20558
3731.77222	0.20796
3729.84365	0.20781
3727.91509	0.21029
3725.98652	0.21638
3724.05796	0.22364
3722.12939	0.22935
3720.20083	0.23412
3718.27227	0.23847
3716.34370	0.24287
3714.41514	0.24921
3712.48657	0.26117
3710.55801	0.28003
3708.62944	0.29574
3706.70088	0.30425
3704.77231	0.31326
3702.84375	0.32658
3700.91519	0.34401
3698.98662	0.36144
3697.05806	0.37777
3695.12949	0.39631
3693.20093	0.41746
3691.27236	0.44221
3689.34380	0.47377
3687.41523	0.50802
3685.48667	0.53480
3683.55811	0.55796
3681.62954	0.58486
3679.70098	0.61783
3677.77241	0.65492
3675.84385	0.69920
3673.91528	0.75455
3671.98672	0.79676
3670.05815	0.83506
3668.12959	0.88758
3666.20103	0.93297
3664.27246	0.97076
3662.34390	1.01344
3660.41533	1.06107
3658.48677	1.10895
3656.55820	1.16096
3654.62964	1.21844
3652.70107	1.26634
3650.77251	1.31092
3648.84395	1.37410
3646.91538	1.44441
3644.98682	1.48992
3643.05825	1.52515
3641.12969	1.56352
3639.20112	1.60739
3637.27256	1.65293
3635.34399	1.69819
3633.41543	1.74425
3631.48687	1.78831
3629.55830	1.83350
3627.62974	1.89047
3625.70117	1.93960
3623.77261	1.97080
3621.84404	2.00271
3619.91548	2.04266
3617.98691	2.09097
3616.05835	2.13445
3614.12979	2.16914
3612.20122	2.20613
3610.27266	2.24517
3608.34409	2.28758
3606.41553	2.33205
3604.48696	2.36930
3602.55840	2.40240
3600.62983	2.44157
3598.70127	2.48487
3596.77271	2.52558
3594.84414	2.56614
3592.91558	2.60729
3590.98701	2.64456
3589.05845	2.67974
3587.12988	2.72494
3585.20132	2.77533
3583.27275	2.81476
3581.34419	2.84938
3579.41562	2.88811
3577.48706	2.93097
3575.55850	2.97399
3573.62993	3.01691
3571.70137	3.05956
3569.77280	3.10174
3567.84424	3.14671
3565.91567	3.20185
3563.98711	3.25413
3562.05854	3.29299
3560.12998	3.33024
3558.20142	3.37140
3556.27285	3.41439
3554.34429	3.45769
3552.41572	3.50362
3550.48716	3.54868
3548.55859	3.59090
3546.63003	3.63664
3544.70146	3.68908
3542.77290	3.74005
3540.84434	3.78484
3538.91577	3.82870
3536.98721	3.87496
3535.05864	3.92403
3533.13008	3.97283
3531.20151	4.02180
3529.27295	4.07138
3527.34438	4.12117
3525.41582	4.17021
3523.48726	4.21791
3521.55869	4.26657
3519.63013	4.31482
3517.70156	4.36217
3515.77300	4.40650
3513.84443	4.44979
3511.91587	4.49781
3509.98730	4.54997
3508.05874	4.60034
3506.13018	4.64672
3504.20161	4.69553
3502.27305	4.74600
3500.34448	4.79237
3498.41592	4.83786
3496.48735	4.88409
3494.55879	4.93034
3492.63022	4.97943
3490.70166	5.02756
3488.77310	5.07045
3486.84453	5.11534
3484.91597	5.16786
3482.98740	5.22123
3481.05884	5.26931
3479.13027	5.31280
3477.20171	5.35702
3475.27314	5.40589
3473.34458	5.45481
3471.41602	5.50003
3469.48745	5.54415
3467.55889	5.59270
3465.63032	5.65202
3463.70176	5.71295
3461.77319	5.75731
3459.84463	5.79089
3457.91606	5.82876
3455.98750	5.87607
3454.05894	5.92859
3452.13037	5.98213
3450.20181	6.04050
3448.27324	6.10058
3446.34468	6.15893
3444.41611	6.20999
3442.48755	6.24931
3440.55898	6.28679
3438.63042	6.33446
3436.70186	6.38331
3434.77329	6.43289
3432.84473	6.49237
3430.91616	6.53941
3428.98760	6.57135
3427.05903	6.61907
3425.13047	6.69537
3423.20190	6.76862
3421.27334	6.80605
3419.34478	6.82583
3417.41621	6.86563
3415.48765	6.92539
3413.55908	6.97939
3411.63052	7.01272
3409.70195	7.03695
3407.77339	7.08609
3405.84482	7.16581
3403.91626	7.25842
3401.98770	7.33171
3400.05913	7.38666
3398.13057	7.41655
3396.20200	7.41292
3394.27344	7.42349
3392.34487	7.45123
3390.41631	7.50713
3388.48774	7.56771
3386.55918	7.58735
3384.63062	7.58531
3382.70205	7.57571
3380.77349	7.55933
3378.84492	7.56684
3376.91636	7.62178
3374.98779	7.69877
3373.05923	7.76350
3371.13066	7.77729
3369.20210	7.78274
3367.27354	7.80747
3365.34497	7.82384
3363.41641	7.84486
3361.48784	7.86005
3359.55928	7.86543
3357.63071	7.89545
3355.70215	7.94525
3353.77358	7.95456
3351.84502	7.92498
3349.91646	7.91106
3347.98789	7.98751
3346.05933	8.09414
3344.13076	8.10340
3342.20220	8.08914
3340.27363	8.11350
3338.34507	8.13563
3336.41650	8.08896
3334.48794	8.00782
3332.55937	7.97544
3330.63081	8.03651
3328.70225	8.16346
3326.77368	8.25107
3324.84512	8.28389
3322.91655	8.30726
3320.98799	8.27530
3319.05942	8.15826
3317.13086	8.10030
3315.20229	8.16647
3313.27373	8.26978
3311.34517	8.30766
3309.41660	8.27657
3307.48804	8.26726
3305.55947	8.22481
3303.63091	8.06079
3301.70234	7.91419
3299.77378	7.90989
3297.84521	7.99577
3295.91665	8.10765
3293.98809	8.20214
3292.05952	8.24869
3290.13096	8.24758
3288.20239	8.17034
3286.27383	8.09431
3284.34526	8.11088
3282.41670	8.14766
3280.48813	8.14639
3278.55957	8.14677
3276.63101	8.08752
3274.70244	8.02049
3272.77388	8.07179
3270.84531	8.18414
3268.91675	8.23405
3266.98818	8.21189
3265.05962	8.20856
3263.13105	8.23821
3261.20249	8.24840
3259.27393	8.19811
3257.34536	8.13581
3255.41680	8.10312
3253.48823	8.10326
3251.55967	8.18427
3249.63110	8.23453
3247.70254	8.14885
3245.77397	8.10392
3243.84541	8.16475
3241.91685	8.16097
3239.98828	8.09563
3238.05972	8.09461
3236.13115	8.08674
3234.20259	8.05443
3232.27402	8.10537
3230.34546	8.16169
3228.41689	8.07881
3226.48833	7.94862
3224.55977	7.92798
3222.63120	8.03185
3220.70264	8.10049
3218.77407	8.05399
3216.84551	8.03388
3214.91694	8.05707
3212.98838	8.03651
3211.05981	7.97906
3209.13125	7.88265
3207.20269	7.78170
3205.27412	7.74963
3203.34556	7.75037
3201.41699	7.71230
3199.48843	7.65588
3197.55986	7.63958
3195.63130	7.65519
3193.70273	7.65545
3191.77417	7.61967
3189.84561	7.56156
3187.91704	7.48631
3185.98848	7.38971
3184.05991	7.32365
3182.13135	7.30814
3180.20278	7.27667
3178.27422	7.21715
3176.34565	7.17073
3174.41709	7.12097
3172.48853	7.06159
3170.55996	6.99931
3168.63140	6.91350
3166.70283	6.82244
3164.77427	6.76188
3162.84570	6.71803
3160.91714	6.65568
3158.98857	6.58806
3157.06001	6.54006
3155.13145	6.49220
3153.20288	6.41107
3151.27432	6.31177
3149.34575	6.23325
3147.41719	6.18045
3145.48862	6.13149
3143.56006	6.05509
3141.63149	5.95782
3139.70293	5.87510
3137.77437	5.80962
3135.84580	5.74465
3133.91724	5.67445
3131.98867	5.60271
3130.06011	5.53258
3128.13154	5.45966
3126.20298	5.38497
3124.27441	5.31672
3122.34585	5.25352
3120.41729	5.19199
3118.48872	5.12892
3116.56016	5.05998
3114.63159	4.98904
3112.70303	4.92125
3110.77446	4.85272
3108.84590	4.78301
3106.91733	4.71751
3104.98877	4.65106
3103.06021	4.57966
3101.13164	4.50836
3099.20308	4.44265
3097.27451	4.38236
3095.34595	4.32053
3093.41738	4.25396
3091.48882	4.18668
3089.56025	4.12218
3087.63169	4.05791
3085.70312	3.99296
3083.77456	3.93069
3081.84600	3.87081
3079.91743	3.81066
3077.98887	3.75026
3076.06030	3.69143
3074.13174	3.63344
3072.20317	3.57526
3070.27461	3.51788
3068.34604	3.46187
3066.41748	3.40793
3064.48892	3.35458
3062.56035	3.29969
3060.63179	3.24530
3058.70322	3.19280
3056.77466	3.14100
3054.84609	3.08904
3052.91753	3.03640
3050.98896	2.98446
3049.06040	2.93491
3047.13184	2.88652
3045.20327	2.83801
3043.27471	2.79015
3041.34614	2.74286
3039.41758	2.69592
3037.48901	2.65025
3035.56045	2.60528
3033.63188	2.56044
3031.70332	2.51664
3029.77476	2.47376
3027.84619	2.43124
3025.91763	2.38907
3023.98906	2.34722
3022.06050	2.30606
3020.13193	2.26625
3018.20337	2.22746
3016.27480	2.18850
3014.34624	2.14901
3012.41768	2.11013
3010.48911	2.07262
3008.56055	2.03594
3006.63198	2.00042
3004.70342	1.96633
3002.77485	1.93241
3000.84629	1.89836
2998.91772	1.86492
2996.98916	1.83228
2995.06060	1.80050
2993.13203	1.76962
2991.20347	1.73905
2989.27490	1.70839
2987.34634	1.67821
2985.41777	1.64914
2983.48921	1.62102
2981.56064	1.59327
2979.63208	1.56572
2977.70352	1.53839
2975.77495	1.51135
2973.84639	1.48475
2971.91782	1.45851
2969.98926	1.43261
2968.06069	1.40719
2966.13213	1.38207
2964.20356	1.35731
2962.27500	1.33311
2960.34644	1.30900
2958.41787	1.28488
2956.48931	1.26131
2954.56074	1.23854
2952.63218	1.21638
2950.70361	1.19438
2948.77505	1.17255
2946.84648	1.15125
2944.91792	1.13049
2942.98936	1.11003
2941.06079	1.08964
2939.13223	1.06914
2937.20366	1.04869
2935.27510	1.02859
2933.34653	1.00864
2931.41797	0.98872
2929.48940	0.96928
2927.56084	0.95047
2925.63228	0.93220
2923.70371	0.91488
2921.77515	0.89851
2919.84658	0.88293
2917.91802	0.86839
2915.98945	0.85453
2914.06089	0.84055
2912.13232	0.82637
2910.20376	0.81257
2908.27520	0.79929
2906.34663	0.78606
2904.41807	0.77272
2902.48950	0.75976
2900.56094	0.74728
2898.63237	0.73486
2896.70381	0.72253
2894.77524	0.71057
2892.84668	0.69905
2890.91812	0.68782
2888.98955	0.67678
2887.06099	0.66613
2885.13242	0.65614
2883.20386	0.64652
2881.27529	0.63654
2879.34673	0.62613
2877.41816	0.61599
2875.48960	0.60624
2873.56104	0.59616
2871.63247	0.58560
2869.70391	0.57507
2867.77534	0.56465
2865.84678	0.55407
2863.91821	0.54327
2861.98965	0.53236
2860.06108	0.52175
2858.13252	0.51174
2856.20396	0.50223
2854.27539	0.49336
2852.34683	0.48531
2850.41826	0.47780
2848.48970	0.47070
2846.56113	0.46409
2844.63257	0.45773
2842.70400	0.45166
2840.77544	0.44617
2838.84687	0.44095
2836.91831	0.43556
2834.98975	0.43005
2833.06118	0.42448
2831.13262	0.41875
2829.20405	0.41299
2827.27549	0.40737
2825.34692	0.40174
2823.41836	0.39597
2821.48979	0.39025
2819.56123	0.38466
2817.63267	0.37908
2815.70410	0.37352
2813.77554	0.36813
2811.84697	0.36294
2809.91841	0.35782
2807.98984	0.35270
2806.06128	0.34769
2804.13271	0.34285
2802.20415	0.33815
2800.27559	0.33348
2798.34702	0.32882
2796.41846	0.32419
2794.48989	0.31963
2792.56133	0.31521
2790.63276	0.31093
2788.70420	0.30673
2786.77563	0.30250
2784.84707	0.29830
2782.91851	0.29428
2780.98994	0.29030
2779.06138	0.28642
2777.13281	0.28274
2775.20425	0.27906
2773.27568	0.27546
2771.34712	0.27202
2769.41855	0.26855
2767.48999	0.26501
2765.56143	0.26157
2763.63286	0.25830
2761.70430	0.25514
2759.77573	0.25209
2757.84717	0.24917
2755.91860	0.24627
2753.99004	0.24336
2752.06147	0.24053
2750.13291	0.23784
2748.20435	0.23523
2746.27578	0.23261
2744.34722	0.23002
2742.41865	0.22745
2740.49009	0.22484
2738.56152	0.22237
2736.63296	0.22008
2734.70439	0.21785
2732.77583	0.21554
2730.84727	0.21314
2728.91870	0.21089
2726.99014	0.20891
2725.06157	0.20692
2723.13301	0.20471
2721.20444	0.20247
2719.27588	0.20044
2717.34731	0.19865
2715.41875	0.19697
2713.49019	0.19521
2711.56162	0.19339
2709.63306	0.19157
2707.70449	0.18997
2705.77593	0.18862
2703.84736	0.18724
2701.91880	0.18565
2699.99023	0.18398
2698.06167	0.18241
2696.13311	0.18102
2694.20454	0.17973
2692.27598	0.17842
2690.34741	0.17702
2688.41885	0.17565
2686.49028	0.17440
2684.56172	0.17323
2682.63315	0.17202
2680.70459	0.17073
2678.77603	0.16949
2676.84746	0.16833
2674.91890	0.16723
2672.99033	0.16619
2671.06177	0.16521
2669.13320	0.16428
2667.20464	0.16339
2665.27607	0.16260
2663.34751	0.16190
2661.41895	0.16115
2659.49038	0.16023
2657.56182	0.15925
2655.63325	0.15846
2653.70469	0.15786
2651.77612	0.15725
2649.84756	0.15652
2647.91899	0.15580
2645.99043	0.15523
2644.06187	0.15479
2642.13330	0.15439
2640.20474	0.15390
2638.27617	0.15325
2636.34761	0.15255
2634.41904	0.15207
2632.49048	0.15178
2630.56191	0.15149
2628.63335	0.15113
2626.70479	0.15075
2624.77622	0.15041
2622.84766	0.15011
2620.91909	0.14990
2618.99053	0.14973
2617.06196	0.14954
2615.13340	0.14934
2613.20483	0.14908
2611.27627	0.14879
2609.34771	0.14864
2607.41914	0.14859
2605.49058	0.14856
2603.56201	0.14855
2601.63345	0.14858
2599.70488	0.14871
2597.77632	0.14888
2595.84775	0.14900
2593.91919	0.14910
2591.99062	0.14918
2590.06206	0.14924
2588.13350	0.14932
2586.20493	0.14936
2584.27637	0.14939
2582.34780	0.14956
2580.41924	0.14985
2578.49067	0.15018
2576.56211	0.15057
2574.63354	0.15094
2572.70498	0.15117
2570.77642	0.15138
2568.84785	0.15175
2566.91929	0.15217
2564.99072	0.15265
2563.06216	0.15312
2561.13359	0.15346
2559.20503	0.15382
2557.27646	0.15423
2555.34790	0.15462
2553.41934	0.15527
2551.49077	0.15615
2549.56221	0.15679
2547.63364	0.15721
2545.70508	0.15771
2543.77651	0.15830
2541.84795	0.15891
2539.91938	0.15957
2537.99082	0.16020
2536.06226	0.16075
2534.13369	0.16130
2532.20513	0.16195
2530.27656	0.16262
2528.34800	0.16330
2526.41943	0.16400
2524.49087	0.16470
2522.56230	0.16531
2520.63374	0.16591
2518.70518	0.16671
2516.77661	0.16768
2514.84805	0.16856
2512.91948	0.16933
2510.99092	0.17002
2509.06235	0.17070
2507.13379	0.17141
2505.20522	0.17217
2503.27666	0.17304
2501.34810	0.17402
2499.41953	0.17487
2497.49097	0.17548
2495.56240	0.17621
2493.63384	0.17721
2491.70527	0.17827
2489.77671	0.17934
2487.84814	0.18029
2485.91958	0.18092
2483.99102	0.18150
2482.06245	0.18224
2480.13389	0.18309
2478.20532	0.18400
2476.27676	0.18490
2474.34819	0.18580
2472.41963	0.18678
2470.49106	0.18775
2468.56250	0.18855
2466.63394	0.18930
2464.70537	0.19007
2462.77681	0.19095
2460.84824	0.19203
2458.91968	0.19319
2456.99111	0.19429
2455.06255	0.19535
2453.13398	0.19634
2451.20542	0.19722
2449.27686	0.19809
2447.34829	0.19907
2445.41973	0.20010
2443.49116	0.20099
2441.56260	0.20183
2439.63403	0.20280
2437.70547	0.20381
2435.77690	0.20476
2433.84834	0.20577
2431.91978	0.20685
2429.99121	0.20794
2428.06265	0.20899
2426.13408	0.21000
2424.20552	0.21100
2422.27695	0.21207
2420.34839	0.21323
2418.41982	0.21440
2416.49126	0.21556
2414.56270	0.21673
2412.63413	0.21785
2410.70557	0.21899
2408.77700	0.22019
2406.84844	0.22136
2404.91987	0.22249
2402.99131	0.22361
2401.06274	0.22475
2399.13418	0.22596
2397.20562	0.22721
2395.27705	0.22846
2393.34849	0.22968
2391.41992	0.23099
2389.49136	0.23259
2387.56279	0.23478
2385.63423	0.23822
2383.70566	0.24359
2381.77710	0.25075
2379.84854	0.25916
2377.91997	0.26866
2375.99141	0.27954
2374.06284	0.29212
2372.13428	0.30611
2370.20571	0.32055
2368.27715	0.33477
2366.34858	0.34824
2364.42002	0.35994
2362.49146	0.36927
2360.56289	0.37594
2358.63433	0.37857
2356.70576	0.37488
2354.77720	0.36481
2352.84863	0.35139
2350.92007	0.33748
2348.99150	0.32840
2347.06294	0.32862
2345.13437	0.33864
2343.20581	0.35193
2341.27725	0.35898
2339.34868	0.36000
2337.42012	0.35923
2335.49155	0.35831
2333.56299	0.35736
2331.63442	0.35724
2329.70586	0.35720
2327.77729	0.35576
2325.84873	0.35317
2323.92017	0.35007
2321.99160	0.34640
2320.06304	0.34201
2318.13447	0.33728
2316.20591	0.33326
2314.27734	0.33084
2312.34878	0.32971
2310.42021	0.32863
2308.49165	0.32679
2306.56309	0.32437
2304.63452	0.32214
2302.70596	0.32090
2300.77739	0.32057
2298.84883	0.32051
2296.92026	0.32049
2294.99170	0.32052
2293.06313	0.32048
2291.13457	0.32041
2289.20601	0.32044
2287.27744	0.32070
2285.34888	0.32118
2283.42031	0.32206
2281.49175	0.32372
2279.56318	0.32603
2277.63462	0.32854
2275.70605	0.33095
2273.77749	0.33321
2271.84893	0.33531
2269.92036	0.33730
2267.99180	0.33919
2266.06323	0.34109
2264.13467	0.34297
2262.20610	0.34483
2260.27754	0.34671
2258.34897	0.34861
2256.42041	0.35045
2254.49185	0.35224
2252.56328	0.35408
2250.63472	0.35604
2248.70615	0.35800
2246.77759	0.35987
2244.84902	0.36177
2242.92046	0.36381
2240.99189	0.36587
2239.06333	0.36792
2237.13477	0.37002
2235.20620	0.37217
2233.27764	0.37433
2231.34907	0.37643
2229.42051	0.37851
2227.49194	0.38071
2225.56338	0.38301
2223.63481	0.38526
2221.70625	0.38743
2219.77769	0.38954
2217.84912	0.39158
2215.92056	0.39363
2213.99199	0.39582
2212.06343	0.39814
2210.13486	0.40039
2208.20630	0.40251
2206.27773	0.40456
2204.34917	0.40651
2202.42061	0.40841
2200.49204	0.41040
2198.56348	0.41248
2196.63491	0.41451
2194.70635	0.41651
2192.77778	0.41850
2190.84922	0.42036
2188.92065	0.42210
2186.99209	0.42387
2185.06353	0.42566
2183.13496	0.42735
2181.20640	0.42899
2179.27783	0.43066
2177.34927	0.43232
2175.42070	0.43393
2173.49214	0.43546
2171.56357	0.43686
2169.63501	0.43820
2167.70645	0.43954
2165.77788	0.44093
2163.84932	0.44227
2161.92075	0.44350
2159.99219	0.44460
2158.06362	0.44559
2156.13506	0.44647
2154.20649	0.44726
2152.27793	0.44812
2150.34937	0.44906
2148.42080	0.44991
2146.49224	0.45064
2144.56367	0.45123
2142.63511	0.45166
2140.70654	0.45208
2138.77798	0.45260
2136.84941	0.45297
2134.92085	0.45308
2132.99229	0.45312
2131.06372	0.45312
2129.13516	0.45303
2127.20659	0.45286
2125.27803	0.45269
2123.34946	0.45252
2121.42090	0.45222
2119.49233	0.45167
2117.56377	0.45101
2115.63521	0.45033
2113.70664	0.44961
2111.77808	0.44892
2109.84951	0.44823
2107.92095	0.44739
2105.99238	0.44644
2104.06382	0.44549
2102.13525	0.44433
2100.20669	0.44295
2098.27812	0.44156
2096.34956	0.44021
2094.42100	0.43884
2092.49243	0.43735
2090.56387	0.43578
2088.63530	0.43416
2086.70674	0.43250
2084.77817	0.43078
2082.84961	0.42899
2080.92104	0.42713
2078.99248	0.42527
2077.06392	0.42343
2075.13535	0.42153
2073.20679	0.41950
2071.27822	0.41741
2069.34966	0.41533
2067.42109	0.41326
2065.49253	0.41116
2063.56396	0.40887
2061.63540	0.40645
2059.70684	0.40400
2057.77827	0.40151
2055.84971	0.39904
2053.92114	0.39656
2051.99258	0.39407
2050.06401	0.39159
2048.13545	0.38905
2046.20688	0.38642
2044.27832	0.38383
2042.34976	0.38130
2040.42119	0.37873
2038.49263	0.37608
2036.56406	0.37341
2034.63550	0.37069
2032.70693	0.36792
2030.77837	0.36519
2028.84980	0.36252
2026.92124	0.35984
2024.99268	0.35713
2023.06411	0.35450
2021.13555	0.35198
2019.20698	0.34952
2017.27842	0.34692
2015.34985	0.34399
2013.42129	0.34101
2011.49272	0.33822
2009.56416	0.33557
2007.63560	0.33295
2005.70703	0.33035
2003.77847	0.32773
2001.84990	0.32505
1999.92134	0.32238
1997.99277	0.31971
1996.06421	0.31719
1994.13564	0.31511
1992.20708	0.31320
1990.27852	0.31079
1988.34995	0.30806
1986.42139	0.30536
1984.49282	0.30273
1982.56426	0.30026
1980.63569	0.29796
1978.70713	0.29572
1976.77856	0.29348
1974.85000	0.29128
1972.92144	0.28911
1970.99287	0.28702
1969.06431	0.28520
1967.13574	0.28357
1965.20718	0.28153
1963.27861	0.27911
1961.35005	0.27688
1959.42148	0.27485
1957.49292	0.27291
1955.56436	0.27112
1953.63579	0.26938
1951.70723	0.26764
1949.77866	0.26602
1947.85010	0.26459
1945.92153	0.26349
1943.99297	0.26270
1942.06440	0.26154
1940.13584	0.25946
1938.20728	0.25727
1936.27871	0.25567
1934.35015	0.25440
1932.42158	0.25317
1930.49302	0.25187
1928.56445	0.25055
1926.63589	0.24945
1924.70732	0.24895
1922.77876	0.24870
1920.85020	0.24790
1918.92163	0.24693
1916.99307	0.24597
1915.06450	0.24459
1913.13594	0.24335
1911.20737	0.24281
1909.27881	0.24248
1907.35024	0.24170
1905.42168	0.24058
1903.49312	0.23964
1901.56455	0.23886
1899.63599	0.23822
1897.70742	0.23794
1895.77886	0.23793
1893.85029	0.23778
1891.92173	0.23757
1889.99316	0.23770
1888.06460	0.23741
1886.13604	0.23649
1884.20747	0.23578
1882.27891	0.23541
1880.35034	0.23526
1878.42178	0.23526
1876.49321	0.23528
1874.56465	0.23526
1872.63608	0.23557
1870.70752	0.23679
1868.77896	0.23868
1866.85039	0.23898
1864.92183	0.23759
1862.99326	0.23664
1861.06470	0.23662
1859.13613	0.23696
1857.20757	0.23722
1855.27900	0.23749
1853.35044	0.23786
1851.42187	0.23846
1849.49331	0.23944
1847.56475	0.24081
1845.63618	0.24256
1843.70762	0.24406
1841.77905	0.24402
1839.85049	0.24344
1837.92192	0.24385
1835.99336	0.24473
1834.06479	0.24560
1832.13623	0.24716
1830.20767	0.24982
1828.27910	0.25175
1826.35054	0.25230
1824.42197	0.25303
1822.49341	0.25351
1820.56484	0.25394
1818.63628	0.25507
1816.70771	0.25673
1814.77915	0.25848
1812.85059	0.26065
1810.92202	0.26319
1808.99346	0.26516
1807.06489	0.26659
1805.13633	0.26831
1803.20776	0.27098
1801.27920	0.27432
1799.35063	0.27739
1797.42207	0.27958
1795.49351	0.28205
1793.56494	0.28573
1791.63638	0.28993
1789.70781	0.29221
1787.77925	0.29339
1785.85068	0.29608
1783.92212	0.29993
1781.99355	0.30412
1780.06499	0.30849
1778.13643	0.31266
1776.20786	0.31680
1774.27930	0.32222
1772.35073	0.32966
1770.42217	0.33596
1768.49360	0.33969
1766.56504	0.34333
1764.63647	0.34792
1762.70791	0.35407
1760.77935	0.36188
1758.85078	0.36870
1756.92222	0.37551
1754.99365	0.38292
1753.06509	0.39008
1751.13652	0.39972
1749.20796	0.41164
1747.27939	0.42181
1745.35083	0.42992
1743.42227	0.43880
1741.49370	0.44905
1739.56514	0.46133
1737.63657	0.47358
1735.70801	0.48488
1733.77944	0.50239
1731.85088	0.52184
1729.92231	0.53591
1727.99375	0.55017
1726.06519	0.56602
1724.13662	0.58412
1722.20806	0.60427
1720.27949	0.62365
1718.35093	0.64739
1716.42236	0.68112
1714.49380	0.71015
1712.56523	0.73233
1710.63667	0.75483
1708.70811	0.78068
1706.77954	0.81121
1704.85098	0.84707
1702.92241	0.87814
1700.99385	0.90950
1699.06528	0.95688
1697.13672	0.99944
1695.20815	1.04103
1693.27959	1.08050
1691.35103	1.11311
1689.42246	1.15239
1687.49390	1.19462
1685.56533	1.23616
1683.63677	1.29941
1681.70820	1.36226
1679.77964	1.40119
1677.85107	1.43899
1675.92251	1.48358
1673.99395	1.53963
1672.06538	1.58997
1670.13682	1.63897
1668.20825	1.70087
1666.27969	1.75026
1664.35112	1.79264
1662.42256	1.84613
1660.49399	1.90595
1658.56543	1.95236
1656.63687	1.99038
1654.70830	2.02768
1652.77974	2.08922
1650.85117	2.14632
1648.92261	2.16822
1646.99404	2.19622
1645.06548	2.22372
1643.13691	2.24098
1641.20835	2.25316
1639.27979	2.26559
1637.35122	2.27512
1635.42266	2.27880
1633.49409	2.27216
1631.56553	2.25802
1629.63696	2.24238
1627.70840	2.21736
1625.77983	2.18665
1623.85127	2.14722
1621.92271	2.09809
1619.99414	2.05287
1618.06558	2.00995
1616.13701	1.94946
1614.20845	1.88432
1612.27988	1.83348
1610.35132	1.78221
1608.42275	1.72809
1606.49419	1.67510
1604.56562	1.62562
1602.63706	1.57666
1600.70850	1.52809
1598.77993	1.48354
1596.85137	1.44237
1594.92280	1.40248
1592.99424	1.36322
1591.06567	1.32689
1589.13711	1.29295
1587.20854	1.26116
1585.27998	1.23167
1583.35142	1.20417
1581.42285	1.17881
1579.49429	1.15739
1577.56572	1.13900
1575.63716	1.11556
1573.70859	1.09288
1571.78003	1.07823
1569.85146	1.06414
1567.92290	1.04753
1565.99434	1.03380
1564.06577	1.02312
1562.13721	1.01540
1560.20864	1.01124
1558.28008	1.00492
1556.35151	0.99547
1554.42295	0.98823
1552.49438	0.98193
1550.56582	0.97604
1548.63726	0.96914
1546.70869	0.96193
1544.78013	0.95497
1542.85156	0.94753
1540.92300	0.93626
1538.99443	0.91399
1537.06587	0.89530
1535.13730	0.88413
1533.20874	0.87102
1531.28018	0.85576
1529.35161	0.84454
1527.42305	0.83557
1525.49448	0.82678
1523.56592	0.81917
1521.63735	0.81170
1519.70879	0.80225
1517.78022	0.79341
1515.85166	0.78380
1513.92310	0.77371
1511.99453	0.76587
1510.06597	0.76052
1508.13740	0.75682
1506.20884	0.74735
1504.28027	0.73466
1502.35171	0.72737
1500.42314	0.72279
1498.49458	0.71904
1496.56602	0.71390
1494.63745	0.70729
1492.70889	0.70254
1490.78032	0.70025
1488.85176	0.69753
1486.92319	0.69232
1484.99463	0.68716
1483.06606	0.68375
1481.13750	0.68146
1479.20894	0.67973
1477.28037	0.67909
1475.35181	0.67964
1473.42324	0.68027
1471.49468	0.67816
1469.56611	0.67380
1467.63755	0.67066
1465.70898	0.66919
1463.78042	0.66783
1461.85186	0.66625
1459.92329	0.66618
1457.99473	0.66790
1456.06616	0.66698
1454.13760	0.66191
1452.20903	0.65763
1450.28047	0.65464
1448.35190	0.65233
1446.42334	0.64971
1444.49478	0.64680
1442.56621	0.64412
1440.63765	0.64181
1438.70908	0.64022
1436.78052	0.63879
1434.85195	0.63624
1432.92339	0.63358
1430.99482	0.63185
1429.06626	0.63043
1427.13770	0.62912
1425.20913	0.62860
1423.28057	0.62864
1421.35200	0.62876
1419.42344	0.62926
1417.49487	0.62848
1415.56631	0.62577
1413.63774	0.62353
1411.70918	0.62244
1409.78062	0.62194
1407.85205	0.62175
1405.92349	0.62207
1403.99492	0.62217
1402.06636	0.62142
1400.13779	0.62072
1398.20923	0.62016
1396.28066	0.61894
1394.35210	0.61641
1392.42354	0.61275
1390.49497	0.60952
1388.56641	0.60723
1386.63784	0.60456
1384.70928	0.60084
1382.78071	0.59739
1380.85215	0.59478
1378.92358	0.59275
1376.99502	0.59140
1375.06646	0.59089
1373.13789	0.59020
1371.20933	0.58897
1369.28076	0.58803
1367.35220	0.58704
1365.42363	0.58590
1363.49507	0.58524
1361.56650	0.58439
1359.63794	0.58260
1357.70937	0.58081
1355.78081	0.57948
1353.85225	0.57830
1351.92368	0.57726
1349.99512	0.57658
1348.06655	0.57594
1346.13799	0.57504
1344.20942	0.57409
1342.28086	0.57357
1340.35229	0.57352
1338.42373	0.57304
1336.49517	0.57167
1334.56660	0.57024
1332.63804	0.56933
1330.70947	0.56888
1328.78091	0.56871
1326.85234	0.56868
1324.92378	0.56866
1322.99521	0.56870
1321.06665	0.56892
1319.13809	0.56922
1317.20952	0.56916
1315.28096	0.56870
1313.35239	0.56808
1311.42383	0.56725
1309.49526	0.56620
1307.56670	0.56519
1305.63813	0.56439
1303.70957	0.56368
1301.78101	0.56277
1299.85244	0.56166
1297.92388	0.56069
1295.99531	0.55982
1294.06675	0.55876
1292.13818	0.55784
1290.20962	0.55727
1288.28105	0.55665
1286.35249	0.55574
1284.42393	0.55471
1282.49536	0.55366
1280.56680	0.55266
1278.63823	0.55180
1276.70967	0.55105
1274.78110	0.55031
1272.85254	0.54962
1270.92397	0.54906
1268.99541	0.54858
1267.06685	0.54812
1265.13828	0.54762
1263.20972	0.54712
1261.28115	0.54663
1259.35259	0.54599
1257.42402	0.54532
1255.49546	0.54493
1253.56689	0.54479
1251.63833	0.54468
1249.70977	0.54453
1247.78120	0.54436
1245.85264	0.54421
1243.92407	0.54393
1241.99551	0.54333
1240.06694	0.54242
1238.13838	0.54126
1236.20981	0.53995
1234.28125	0.53871
1232.35269	0.53747
1230.42412	0.53611
1228.49556	0.53474
1226.56699	0.53348
1224.63843	0.53233
1222.70986	0.53115
1220.78130	0.52997
1218.85273	0.52889
1216.92417	0.52785
1214.99561	0.52685
1213.06704	0.52598
1211.13848	0.52521
1209.20991	0.52459
1207.28135	0.52413
1205.35278	0.52368
1203.42422	0.52307
1201.49565	0.52238
1199.56709	0.52173
1197.63853	0.52110
1195.70996	0.52046
1193.78140	0.51985
1191.85283	0.51928
1189.92427	0.51880
1187.99570	0.51848
1186.06714	0.51835
1184.13857	0.51841
1182.21001	0.51864
1180.28145	0.51904
1178.35288	0.51970
1176.42432	0.52076
1174.49575	0.52202
1172.56719	0.52311
1170.63862	0.52387
1168.71006	0.52441
1166.78149	0.52478
1164.85293	0.52523
1162.92437	0.52582
1160.99580	0.52617
1159.06724	0.52621
1157.13867	0.52605
1155.21011	0.52549
1153.28154	0.52444
1151.35298	0.52296
1149.42441	0.52104
1147.49585	0.51872
1145.56729	0.51604
1143.63872	0.51331
1141.71016	0.51093
1139.78159	0.50898
1137.85303	0.50736
1135.92446	0.50606
1133.99590	0.50503
1132.06733	0.50430
1130.13877	0.50391
1128.21021	0.50364
1126.28164	0.50319
1124.35308	0.50254
1122.42451	0.50208
1120.49595	0.50195
1118.56738	0.50196
1116.63882	0.50204
1114.71025	0.50234
1112.78169	0.50301
1110.85312	0.50401
1108.92456	0.50516
1106.99600	0.50623
1105.06743	0.50709
1103.13887	0.50798
1101.21030	0.50916
1099.28174	0.51060
1097.35317	0.51246
1095.42461	0.51500
1093.49604	0.51857
1091.56748	0.52346
1089.63892	0.52960
1087.71035	0.53687
1085.78179	0.54480
1083.85322	0.55289
1081.92466	0.56068
1079.99609	0.56672
1078.06753	0.56966
1076.13896	0.56944
1074.21040	0.56650
1072.28184	0.56137
1070.35327	0.55481
1068.42471	0.54770
1066.49614	0.54085
1064.56758	0.53470
1062.63901	0.52932
1060.71045	0.52467
1058.78188	0.52061
1056.85332	0.51688
1054.92476	0.51342
1052.99619	0.51047
1051.06763	0.50818
1049.13906	0.50662
1047.21050	0.50570
1045.28193	0.50519
1043.35337	0.50504
1041.42480	0.50518
1039.49624	0.50538
1037.56768	0.50564
1035.63911	0.50570
1033.71055	0.50515
1031.78198	0.50414
1029.85342	0.50299
1027.92485	0.50166
1025.99629	0.50013
1024.06772	0.49874
1022.13916	0.49791
1020.21060	0.49752
1018.28203	0.49733
1016.35347	0.49740
1014.42490	0.49760
1012.49634	0.49778
1010.56777	0.49801
1008.63921	0.49831
1006.71064	0.49887
1004.78208	0.49996
1002.85352	0.50152
1000.92495	0.50366
998.99639	0.50674
997.06782	0.51070
995.13926	0.51507
993.21069	0.51925
991.28213	0.52244
989.35356	0.52418
987.42500	0.52490
985.49644	0.52518
983.56787	0.52514
981.63931	0.52517
979.71074	0.52577
977.78218	0.52717
975.85361	0.52922
973.92505	0.53159
971.99648	0.53424
970.06792	0.53726
968.13936	0.54072
966.21079	0.54469
964.28223	0.54905
962.35366	0.55366
960.42510	0.55857
958.49653	0.56380
956.56797	0.56924
954.63940	0.57488
952.71084	0.58095
950.78228	0.58732
948.85371	0.59373
946.92515	0.60009
944.99658	0.60624
943.06802	0.61229
941.13945	0.61859
939.21089	0.62457
937.28232	0.62962
935.35376	0.63457
933.42520	0.64027
931.49663	0.64612
929.56807	0.65177
927.63950	0.65741
925.71094	0.66295
923.78237	0.66903
921.85381	0.67586
919.92524	0.68232
917.99668	0.68834
916.06812	0.69503
914.13955	0.70282
912.21099	0.71084
910.28242	0.71848
908.35386	0.72638
906.42529	0.73454
904.49673	0.74250
902.56816	0.75098
900.63960	0.76055
898.71104	0.76999
896.78247	0.77893
894.85391	0.78843
892.92534	0.79821
890.99678	0.80768
889.06821	0.81798
887.13965	0.82995
885.21108	0.84204
883.28252	0.85253
881.35396	0.86251
879.42539	0.87340
877.49683	0.88427
875.56826	0.89515
873.63970	0.90707
871.71113	0.91970
869.78257	0.93216
867.85400	0.94391
865.92544	0.95492
863.99687	0.96524
862.06831	0.97537
860.13975	0.98574
858.21118	0.99714
856.28262	1.01035
854.35405	1.02370
852.42549	1.03536
850.49692	1.04586
848.56836	1.05543
846.63979	1.06413
844.71123	1.07497
842.78267	1.08948
840.85410	1.10361
838.92554	1.11393
836.99697	1.12240
835.06841	1.13267
833.13984	1.14575
831.21128	1.15975
829.28271	1.17384
827.35415	1.18882
825.42559	1.20349
823.49702	1.21351
821.56846	1.21493
819.63989	1.21707
817.71133	1.23037
815.78276	1.24829
813.85420	1.26280
811.92563	1.27639
809.99707	1.29388
808.06851	1.31535
806.13994	1.33355
804.21138	1.33858
802.28281	1.33052
800.35425	1.32422
798.42568	1.33607
796.49712	1.35779
794.56855	1.37069
792.63999	1.37793
790.71143	1.39038
788.78286	1.40570
786.85430	1.41561
784.92573	1.41553
782.99717	1.41008
781.06860	1.41701
779.14004	1.39237
777.21147	1.35097
775.28291	1.36907
773.35435	1.41053
771.42578	1.42813
769.49722	1.42575
767.56865	1.41658
765.64009	1.39391
763.71152	1.37668
761.78296	1.40478
759.85439	1.43436
757.92583	1.41248
755.99727	1.41328
754.06870	1.49609
752.14014	1.49747
750.21157	1.36730
748.28301	1.31593
746.35444	1.35364
744.42588	1.30723
742.49731	1.14874
740.56875	1.01715
738.64019	0.91426
736.71162	0.83667
734.78306	0.86826
732.85449	1.07509
730.92593	1.15268
728.99736	0.73032
727.06880	0.43763
725.14023	0.32320
723.21167	0.36234
721.28311	0.51058
719.35454	0.61563
717.42598	0.49810
715.49741	0.44061
713.56885	0.28686
711.64028	0.10001
709.71172	0.05277
707.78315	0.43228
705.85459	4.23513
703.92603	4.22356
701.99746	0.88233
700.06890	0.61515
698.14033	0.60022
696.21177	0.78737
694.28320	0.91267
692.35464	0.57930
690.42607	0.33574
688.49751	0.20747
686.56895	0.18385
684.64038	0.25841
682.71182	0.35784
680.78325	0.26201
678.85469	0.11545
676.92612	0.12916
674.99756	0.30548
673.06899	0.48778
671.14043	0.53145
669.21187	0.59938
667.28330	0.60847
665.35474	0.40146
663.42617	0.20751
661.49761	0.15692
659.56904	0.23053
657.64048	0.47843
655.71191	0.78437
653.78335	0.46429
651.85479	0.25553
649.92622	0.21518
647.99766	0.31087
646.06909	0.43100
644.14053	0.39585
642.21196	0.27068
640.28340	0.23595
638.35483	0.33911
636.42627	0.45671
634.49771	0.45240
632.56914	0.41155
630.64058	0.42488
628.71201	0.50841
626.78345	0.66244
624.85488	0.60024
622.92632	0.31461
620.99775	0.23501
619.06919	0.33802
617.14062	0.45221
615.21206	0.45606
613.28350	0.50101
611.35493	0.56660
609.42637	0.47352
607.49780	0.37992
605.56924	0.38872
603.64067	0.40868
601.71211	0.39812
599.78354	0.36894
597.85498	0.29383
595.92642	0.24687
593.99785	0.30885
592.06929	0.41193
590.14072	0.38751
588.21216	0.35664
586.28359	0.36034
584.35503	0.31286
582.42646	0.24762
580.49790	0.17971
578.56934	0.13315
576.64077	0.14002
574.71221	0.13580
572.78364	0.09899
570.85508	0.09717
568.92651	0.12785
566.99795	0.15539
565.06938	0.25285
563.14082	0.49357
561.21226	0.65486
559.28369	0.44444
557.35513	0.30704
555.42656	0.27031
553.49800	0.29757
551.56943	0.28611
549.64087	0.23168
547.71230	0.23458
545.78374	0.28259
543.85518	0.31160
541.92661	0.31087
539.99805	0.31900
538.06948	0.35792
536.14092	0.39954
534.21235	0.47472
532.28379	0.65836
530.35522	0.54722
528.42666	0.30023
526.49810	0.21783
524.56953	0.27610
522.64097	0.35887
520.71240	0.28502
518.78384	0.21153
516.85527	0.20997
514.92671	0.19229
512.99814	0.13830
511.06958	0.13384
509.14102	0.18402
507.21245	0.22578
505.28389	0.26619
503.35532	0.33052
501.42676	0.35730
499.49819	0.25293
