3997.91411	0.06701
3995.98555	0.06738
3994.05698	0.06757
3992.12842	0.06738
3990.19985	0.06757
3988.27129	0.06821
3986.34272	0.06850
3984.41416	0.06846
3982.48560	0.06878
3980.55703	0.06947
3978.62847	0.06988
3976.69990	0.07005
3974.77134	0.07060
3972.84277	0.07132
3970.91421	0.07149
3968.98564	0.07119
3967.05708	0.07099
3965.12852	0.07115
3963.19995	0.07160
3961.27139	0.07195
3959.34282	0.07176
3957.41426	0.07167
3955.48569	0.07219
3953.55713	0.07267
3951.62856	0.07300
3949.70000	0.07350
3947.77144	0.07358
3945.84287	0.07316
3943.91431	0.07323
3941.98574	0.07374
3940.05718	0.07343
3938.12861	0.07243
3936.20005	0.07187
3934.27148	0.07203
3932.34292	0.07288
3930.41436	0.07403
3928.48579	0.07420
3926.55723	0.07365
3924.62866	0.07364
3922.70010	0.07359
3920.77153	0.07301
3918.84297	0.07295
3916.91440	0.07359
3914.98584	0.07351
3913.05728	0.07229
3911.12871	0.07143
3909.20015	0.07139
3907.27158	0.07207
3905.34302	0.07413
3903.41445	0.07699
3901.48589	0.07816
3899.55732	0.07700
3897.62876	0.07497
3895.70020	0.07328
3893.77163	0.07296
3891.84307	0.07413
3889.91450	0.07479
3887.98594	0.07410
3886.05737	0.07441
3884.12881	0.07586
3882.20024	0.07673
3880.27168	0.07718
3878.34312	0.07651
3876.41455	0.07502
3874.48599	0.07523
3872.55742	0.07737
3870.62886	0.07976
3868.70029	0.08064
3866.77173	0.07945
3864.84316	0.07897
3862.91460	0.07960
3860.98604	0.07900
3859.05747	0.07795
3857.12891	0.07832
3855.20034	0.08077
3853.27178	0.08514
3851.34321	0.08647
3849.41465	0.08305
3847.48608	0.08030
3845.55752	0.07953
3843.62896	0.08067
3841.70039	0.08318
3839.77183	0.08624
3837.84326	0.08895
3835.91470	0.08923
3833.98613	0.08764
3832.05757	0.08674
3830.12900	0.08677
3828.20044	0.08724
3826.27187	0.08835
3824.34331	0.08966
3822.41475	0.09125
3820.48618	0.09391
3818.55762	0.09510
3816.62905	0.09449
3814.70049	0.09410
3812.77192	0.09340
3810.84336	0.09274
3808.91479	0.09318
3806.98623	0.09537
3805.05767	0.09844
3803.12910	0.10099
3801.20054	0.10398
3799.27197	0.10557
3797.34341	0.10483
3795.41484	0.10447
3793.48628	0.10420
3791.55771	0.10378
3789.62915	0.10419
3787.70059	0.10556
3785.77202	0.10781
3783.84346	0.11020
3781.91489	0.11179
3779.98633	0.11348
3778.05776	0.11555
3776.12920	0.11622
3774.20063	0.11638
3772.27207	0.11807
3770.34351	0.12157
3768.41494	0.12509
3766.48638	0.12698
3764.55781	0.12840
3762.62925	0.12982
3760.70068	0.13178
3758.77212	0.13522
3756.84355	0.13872
3754.91499	0.14116
3752.98643	0.14443
3751.05786	0.15025
3749.12930	0.15614
3747.20073	0.15798
3745.27217	0.15912
3743.34360	0.16234
3741.41504	0.16541
3739.48647	0.16765
3737.55791	0.17129
3735.62935	0.17778
3733.70078	0.18528
3731.77222	0.18939
3729.84365	0.19114
3727.91509	0.19386
3725.98652	0.19934
3724.05796	0.20664
3722.12939	0.21392
3720.20083	0.22109
3718.27227	0.22778
3716.34370	0.23431
3714.41514	0.24171
3712.48657	0.25213
3710.55801	0.26736
3708.62944	0.28218
3706.70088	0.29292
3704.77231	0.30332
3702.84375	0.31624
3700.91519	0.33313
3698.98662	0.35177
3697.05806	0.37013
3695.12949	0.38994
3693.20093	0.41110
3691.27236	0.43462
3689.34380	0.46467
3687.41523	0.49949
3685.48667	0.52886
3683.55811	0.55465
3681.62954	0.58322
3679.70098	0.61590
3677.77241	0.65080
3675.84385	0.69253
3673.91528	0.74757
3671.98672	0.79168
3670.05815	0.83107
3668.12959	0.88460
3666.20103	0.93228
3664.27246	0.97243
3662.34390	1.01650
3660.41533	1.06407
3658.48677	1.11078
3656.55820	1.16121
3654.62964	1.21774
3652.70107	1.26455
3650.77251	1.30592
3648.84395	1.36506
3646.91538	1.43543
3644.98682	1.48348
3643.05825	1.52002
3641.12969	1.55928
3639.20112	1.60357
3637.27256	1.64836
3635.34399	1.69206
3633.41543	1.73554
3631.48687	1.77652
3629.55830	1.81868
3627.62974	1.87277
3625.70117	1.92246
3623.77261	1.95610
3621.84404	1.98861
3619.91548	2.02669
3617.98691	2.07271
3616.05835	2.11623
3614.12979	2.15340
3612.20122	2.19321
3610.27266	2.23220
3608.34409	2.27155
3606.41553	2.31480
3604.48696	2.35415
3602.55840	2.38777
3600.62983	2.42448
3598.70127	2.46578
3596.77271	2.50671
3594.84414	2.54801
3592.91558	2.59008
3590.98701	2.62808
3589.05845	2.66128
3587.12988	2.70176
3585.20132	2.75017
3583.27275	2.79273
3581.34419	2.83094
3579.41562	2.87066
3577.48706	2.91221
3575.55850	2.95404
3573.62993	2.99658
3571.70137	3.03789
3569.77280	3.07824
3567.84424	3.12258
3565.91567	3.17765
3563.98711	3.22974
3562.05854	3.26823
3560.12998	3.30512
3558.20142	3.34760
3556.27285	3.39386
3554.34429	3.43980
3552.41572	3.48671
3550.48716	3.53355
3548.55859	3.57811
3546.63003	3.62252
3544.70146	3.67035
3542.77290	3.72117
3540.84434	3.76926
3538.91577	3.81230
3536.98721	3.85575
3535.05864	3.90495
3533.13008	3.95446
3531.20151	4.00242
3529.27295	4.05092
3527.34438	4.09823
3525.41582	4.14373
3523.48726	4.19065
3521.55869	4.23873
3519.63013	4.28613
3517.70156	4.33653
3515.77300	4.38687
3513.84443	4.43278
3511.91587	4.47532
3509.98730	4.51933
3508.05874	4.56989
3506.13018	4.62343
3504.20161	4.67395
3502.27305	4.72268
3500.34448	4.77349
3498.41592	4.81944
3496.48735	4.85701
3494.55879	4.89824
3492.63022	4.94654
3490.70166	4.99280
3488.77310	5.03833
3486.84453	5.08820
3484.91597	5.13640
3482.98740	5.17938
3481.05884	5.22677
3479.13027	5.28365
3477.20171	5.34291
3475.27314	5.39853
3473.34458	5.44813
3471.41602	5.48773
3469.48745	5.52240
3467.55889	5.56308
3465.63032	5.60972
3463.70176	5.66606
3461.77319	5.72866
3459.84463	5.77923
3457.91606	5.81601
3455.98750	5.85762
3454.05894	5.91526
3452.13037	5.98365
3450.20181	6.04769
3448.27324	6.09420
3446.34468	6.13119
3444.41611	6.17440
3442.48755	6.22469
3440.55898	6.26595
3438.63042	6.31006
3436.70186	6.36979
3434.77329	6.41993
3432.84473	6.46384
3430.91616	6.51652
3428.98760	6.57053
3427.05903	6.62355
3425.13047	6.67358
3423.20190	6.71596
3421.27334	6.77125
3419.34478	6.84127
3417.41621	6.89913
3415.48765	6.93537
3413.55908	6.96778
3411.63052	7.02001
3409.70195	7.06920
3407.77339	7.09011
3405.84482	7.09712
3403.91626	7.13526
3401.98770	7.19629
3400.05913	7.24445
3398.13057	7.30425
3396.20200	7.37831
3394.27344	7.44089
3392.34487	7.47829
3390.41631	7.47819
3388.48774	7.46124
3386.55918	7.49491
3384.63062	7.55288
3382.70205	7.59617
3380.77349	7.66171
3378.84492	7.72274
3376.91636	7.73161
3374.98779	7.68341
3373.05923	7.62565
3371.13066	7.62513
3369.20210	7.72327
3367.27354	7.83903
3365.34497	7.89104
3363.41641	7.93618
3361.48784	7.96623
3359.55928	7.93023
3357.63071	7.92483
3355.70215	8.05395
3353.77358	8.16810
3351.84502	8.11051
3349.91646	7.96527
3347.98789	7.87736
3346.05933	7.90995
3344.13076	8.00455
3342.20220	8.08099
3340.27363	8.09954
3338.34507	8.06872
3336.41650	8.01606
3334.48794	8.01854
3332.55937	8.07593
3330.63081	8.11008
3328.70225	8.09294
3326.77368	8.04876
3324.84512	8.05951
3322.91655	8.15020
3320.98799	8.21802
3319.05942	8.14601
3317.13086	8.02431
3315.20229	7.99836
3313.27373	8.09165
3311.34517	8.20498
3309.41660	8.22540
3307.48804	8.15123
3305.55947	8.07537
3303.63091	8.07778
3301.70234	8.09425
3299.77378	8.09633
3297.84521	8.11621
3295.91665	8.13431
3293.98809	8.15929
3292.05952	8.19731
3290.13096	8.20954
3288.20239	8.17953
3286.27383	8.14898
3284.34526	8.16904
3282.41670	8.24437
3280.48813	8.28533
3278.55957	8.23048
3276.63101	8.12644
3274.70244	8.08292
3272.77388	8.14223
3270.84531	8.18612
3268.91675	8.12824
3266.98818	8.08367
3265.05962	8.14937
3263.13105	8.19259
3261.20249	8.14086
3259.27393	8.11602
3257.34536	8.11069
3255.41680	8.08377
3253.48823	8.09088
3251.55967	8.11653
3249.63110	8.14195
3247.70254	8.18649
3245.77397	8.18744
3243.84541	8.15910
3241.91685	8.14099
3239.98828	8.11759
3238.05972	8.11602
3236.13115	8.10577
3234.20259	8.05657
3232.27402	8.04911
3230.34546	8.07231
3228.41689	8.03709
3226.48833	7.98643
3224.55977	7.95190
3222.63120	7.92041
3220.70264	7.93417
3218.77407	8.01377
3216.84551	8.05292
3214.91694	7.97541
3212.98838	7.93258
3211.05981	8.00516
3209.13125	8.07419
3207.20269	8.01329
3205.27412	7.84260
3203.34556	7.71719
3201.41699	7.70408
3199.48843	7.70993
3197.55986	7.69255
3195.63130	7.68087
3193.70273	7.64577
3191.77417	7.59466
3189.84561	7.54067
3187.91704	7.44744
3185.98848	7.34423
3184.05991	7.27089
3182.13135	7.21405
3180.20278	7.17552
3178.27422	7.16703
3176.34565	7.16576
3174.41709	7.11925
3172.48853	7.02495
3170.55996	6.94406
3168.63140	6.90218
3166.70283	6.86053
3164.77427	6.78319
3162.84570	6.69063
3160.91714	6.62772
3158.98857	6.59505
3157.06001	6.54639
3155.13145	6.47032
3153.20288	6.39239
3151.27432	6.31734
3149.34575	6.23937
3147.41719	6.16009
3145.48862	6.08091
3143.56006	6.00598
3141.63149	5.93873
3139.70293	5.87565
3137.77437	5.81363
3135.84580	5.74991
3133.91724	5.68438
3131.98867	5.60777
3130.06011	5.52311
3128.13154	5.45395
3126.20298	5.39363
3124.27441	5.32316
3122.34585	5.24810
3120.41729	5.17618
3118.48872	5.10195
3116.56016	5.02403
3114.63159	4.95040
3112.70303	4.88262
3110.77446	4.81289
3108.84590	4.73978
3106.91733	4.67001
3104.98877	4.60292
3103.06021	4.53424
3101.13164	4.46328
3099.20308	4.39208
3097.27451	4.32442
3095.34595	4.25791
3093.41738	4.18851
3091.48882	4.12059
3089.56025	4.05730
3087.63169	3.99495
3085.70312	3.93086
3083.77456	3.86395
3081.84600	3.79679
3079.91743	3.73392
3077.98887	3.67479
3076.06030	3.61633
3074.13174	3.55796
3072.20317	3.50005
3070.27461	3.44189
3068.34604	3.38386
3066.41748	3.32578
3064.48892	3.26749
3062.56035	3.21122
3060.63179	3.15743
3058.70322	3.10426
3056.77466	3.05058
3054.84609	2.99675
3052.91753	2.94385
3050.98896	2.89214
3049.06040	2.84136
3047.13184	2.79158
3045.20327	2.74246
3043.27471	2.69353
3041.34614	2.64539
3039.41758	2.59869
3037.48901	2.55317
3035.56045	2.50831
3033.63188	2.46366
3031.70332	2.41886
3029.77476	2.37422
3027.84619	2.33085
3025.91763	2.28897
3023.98906	2.24770
3022.06050	2.20728
3020.13193	2.16783
3018.20337	2.12816
3016.27480	2.08842
3014.34624	2.04980
3012.41768	2.01191
3010.48911	1.97410
3008.56055	1.93728
3006.63198	1.90184
3004.70342	1.86682
3002.77485	1.83192
3000.84629	1.79778
2998.91772	1.76442
2996.98916	1.73139
2995.06060	1.69881
2993.13203	1.66706
2991.20347	1.63616
2989.27490	1.60554
2987.34634	1.57479
2985.41777	1.54450
2983.48921	1.51489
2981.56064	1.48522
2979.63208	1.45569
2977.70352	1.42725
2975.77495	1.39989
2973.84639	1.37284
2971.91782	1.34587
2969.98926	1.31923
2968.06069	1.29309
2966.13213	1.26730
2964.20356	1.24157
2962.27500	1.21611
2960.34644	1.19128
2958.41787	1.16752
2956.48931	1.14506
2954.56074	1.12322
2952.63218	1.10132
2950.70361	1.07948
2948.77505	1.05828
2946.84648	1.03777
2944.91792	1.01727
2942.98936	0.99661
2941.06079	0.97637
2939.13223	0.95661
2937.20366	0.93690
2935.27510	0.91725
2933.34653	0.89793
2931.41797	0.87912
2929.48940	0.86075
2927.56084	0.84286
2925.63228	0.82574
2923.70371	0.80945
2921.77515	0.79406
2919.84658	0.77964
2917.91802	0.76602
2915.98945	0.75281
2914.06089	0.73972
2912.13232	0.72663
2910.20376	0.71346
2908.27520	0.70041
2906.34663	0.68770
2904.41807	0.67528
2902.48950	0.66321
2900.56094	0.65160
2898.63237	0.64028
2896.70381	0.62896
2894.77524	0.61755
2892.84668	0.60636
2890.91812	0.59581
2888.98955	0.58581
2887.06099	0.57587
2885.13242	0.56566
2883.20386	0.55517
2881.27529	0.54467
2879.34673	0.53446
2877.41816	0.52461
2875.48960	0.51519
2873.56104	0.50614
2871.63247	0.49686
2869.70391	0.48728
2867.77534	0.47795
2865.84678	0.46885
2863.91821	0.45972
2861.98965	0.45056
2860.06108	0.44164
2858.13252	0.43302
2856.20396	0.42458
2854.27539	0.41661
2852.34683	0.40936
2850.41826	0.40293
2848.48970	0.39707
2846.56113	0.39130
2844.63257	0.38564
2842.70400	0.38032
2840.77544	0.37532
2838.84687	0.37047
2836.91831	0.36556
2834.98975	0.36050
2833.06118	0.35538
2831.13262	0.35036
2829.20405	0.34548
2827.27549	0.34057
2825.34692	0.33559
2823.41836	0.33052
2821.48979	0.32530
2819.56123	0.32011
2817.63267	0.31519
2815.70410	0.31043
2813.77554	0.30559
2811.84697	0.30075
2809.91841	0.29609
2807.98984	0.29149
2806.06128	0.28696
2804.13271	0.28259
2802.20415	0.27837
2800.27559	0.27429
2798.34702	0.27030
2796.41846	0.26642
2794.48989	0.26265
2792.56133	0.25886
2790.63276	0.25512
2788.70420	0.25169
2786.77563	0.24839
2784.84707	0.24493
2782.91851	0.24147
2780.98994	0.23811
2779.06138	0.23463
2777.13281	0.23121
2775.20425	0.22807
2773.27568	0.22499
2771.34712	0.22191
2769.41855	0.21905
2767.48999	0.21635
2765.56143	0.21361
2763.63286	0.21087
2761.70430	0.20822
2759.77573	0.20569
2757.84717	0.20328
2755.91860	0.20087
2753.99004	0.19844
2752.06147	0.19603
2750.13291	0.19356
2748.20435	0.19114
2746.27578	0.18880
2744.34722	0.18652
2742.41865	0.18436
2740.49009	0.18229
2738.56152	0.18025
2736.63296	0.17834
2734.70439	0.17648
2732.77583	0.17457
2730.84727	0.17273
2728.91870	0.17098
2726.99014	0.16927
2725.06157	0.16759
2723.13301	0.16585
2721.20444	0.16411
2719.27588	0.16261
2717.34731	0.16125
2715.41875	0.15980
2713.49019	0.15826
2711.56162	0.15678
2709.63306	0.15541
2707.70449	0.15405
2705.77593	0.15267
2703.84736	0.15138
2701.91880	0.15024
2699.99023	0.14908
2698.06167	0.14784
2696.13311	0.14672
2694.20454	0.14567
2692.27598	0.14461
2690.34741	0.14363
2688.41885	0.14280
2686.49028	0.14204
2684.56172	0.14119
2682.63315	0.14016
2680.70459	0.13908
2678.77603	0.13806
2676.84746	0.13718
2674.91890	0.13644
2672.99033	0.13573
2671.06177	0.13495
2669.13320	0.13415
2667.20464	0.13342
2665.27607	0.13269
2663.34751	0.13203
2661.41895	0.13154
2659.49038	0.13111
2657.56182	0.13068
2655.63325	0.13028
2653.70469	0.12987
2651.77612	0.12943
2649.84756	0.12899
2647.91899	0.12856
2645.99043	0.12814
2644.06187	0.12772
2642.13330	0.12731
2640.20474	0.12708
2638.27617	0.12692
2636.34761	0.12663
2634.41904	0.12634
2632.49048	0.12616
2630.56191	0.12601
2628.63335	0.12586
2626.70479	0.12558
2624.77622	0.12530
2622.84766	0.12526
2620.91909	0.12534
2618.99053	0.12532
2617.06196	0.12521
2615.13340	0.12519
2613.20483	0.12529
2611.27627	0.12539
2609.34771	0.12537
2607.41914	0.12533
2605.49058	0.12544
2603.56201	0.12565
2601.63345	0.12588
2599.70488	0.12612
2597.77632	0.12637
2595.84775	0.12652
2593.91919	0.12660
2591.99062	0.12672
2590.06206	0.12700
2588.13350	0.12737
2586.20493	0.12776
2584.27637	0.12819
2582.34780	0.12863
2580.41924	0.12903
2578.49067	0.12940
2576.56211	0.12975
2574.63354	0.13008
2572.70498	0.13047
2570.77642	0.13102
2568.84785	0.13163
2566.91929	0.13212
2564.99072	0.13253
2563.06216	0.13297
2561.13359	0.13344
2559.20503	0.13398
2557.27646	0.13458
2555.34790	0.13521
2553.41934	0.13587
2551.49077	0.13652
2549.56221	0.13710
2547.63364	0.13760
2545.70508	0.13807
2543.77651	0.13867
2541.84795	0.13946
2539.91938	0.14029
2537.99082	0.14106
2536.06226	0.14179
2534.13369	0.14247
2532.20513	0.14313
2530.27656	0.14377
2528.34800	0.14445
2526.41943	0.14524
2524.49087	0.14607
2522.56230	0.14695
2520.63374	0.14789
2518.70518	0.14877
2516.77661	0.14952
2514.84805	0.15027
2512.91948	0.15106
2510.99092	0.15183
2509.06235	0.15260
2507.13379	0.15350
2505.20522	0.15443
2503.27666	0.15525
2501.34810	0.15597
2499.41953	0.15678
2497.49097	0.15775
2495.56240	0.15875
2493.63384	0.15959
2491.70527	0.16038
2489.77671	0.16131
2487.84814	0.16230
2485.91958	0.16321
2483.99102	0.16406
2482.06245	0.16501
2480.13389	0.16605
2478.20532	0.16702
2476.27676	0.16796
2474.34819	0.16892
2472.41963	0.16988
2470.49106	0.17082
2468.56250	0.17174
2466.63394	0.17277
2464.70537	0.17389
2462.77681	0.17488
2460.84824	0.17572
2458.91968	0.17667
2456.99111	0.17780
2455.06255	0.17894
2453.13398	0.18010
2451.20542	0.18119
2449.27686	0.18208
2447.34829	0.18301
2445.41973	0.18413
2443.49116	0.18529
2441.56260	0.18640
2439.63403	0.18750
2437.70547	0.18853
2435.77690	0.18948
2433.84834	0.19042
2431.91978	0.19146
2429.99121	0.19265
2428.06265	0.19390
2426.13408	0.19505
2424.20552	0.19607
2422.27695	0.19716
2420.34839	0.19839
2418.41982	0.19962
2416.49126	0.20080
2414.56270	0.20198
2412.63413	0.20320
2410.70557	0.20456
2408.77700	0.20602
2406.84844	0.20727
2404.91987	0.20827
2402.99131	0.20924
2401.06274	0.21038
2399.13418	0.21174
2397.20562	0.21319
2395.27705	0.21456
2393.34849	0.21591
2391.41992	0.21730
2389.49136	0.21872
2387.56279	0.22008
2385.63423	0.22142
2383.70566	0.22302
2381.77710	0.22501
2379.84854	0.22726
2377.91997	0.22962
2375.99141	0.23208
2374.06284	0.23489
2372.13428	0.23800
2370.20571	0.24115
2368.27715	0.24427
2366.34858	0.24731
2364.42002	0.25013
2362.49146	0.25309
2360.56289	0.25583
2358.63433	0.25740
2356.70576	0.25816
2354.77720	0.25862
2352.84863	0.25883
2350.92007	0.25837
2348.99150	0.25779
2347.06294	0.25835
2345.13437	0.26086
2343.20581	0.26460
2341.27725	0.26762
2339.34868	0.26953
2337.42012	0.27090
2335.49155	0.27238
2333.56299	0.27384
2331.63442	0.27488
2329.70586	0.27594
2327.77729	0.27738
2325.84873	0.27868
2323.92017	0.27965
2321.99160	0.28045
2320.06304	0.28116
2318.13447	0.28194
2316.20591	0.28295
2314.27734	0.28430
2312.34878	0.28599
2310.42021	0.28765
2308.49165	0.28911
2306.56309	0.29051
2304.63452	0.29185
2302.70596	0.29319
2300.77739	0.29465
2298.84883	0.29619
2296.92026	0.29789
2294.99170	0.29979
2293.06313	0.30175
2291.13457	0.30354
2289.20601	0.30513
2287.27744	0.30675
2285.34888	0.30852
2283.42031	0.31053
2281.49175	0.31270
2279.56318	0.31481
2277.63462	0.31684
2275.70605	0.31895
2273.77749	0.32104
2271.84893	0.32307
2269.92036	0.32520
2267.99180	0.32745
2266.06323	0.32963
2264.13467	0.33164
2262.20610	0.33362
2260.27754	0.33569
2258.34897	0.33774
2256.42041	0.33968
2254.49185	0.34170
2252.56328	0.34388
2250.63472	0.34615
2248.70615	0.34843
2246.77759	0.35067
2244.84902	0.35287
2242.92046	0.35507
2240.99189	0.35724
2239.06333	0.35945
2237.13477	0.36180
2235.20620	0.36415
2233.27764	0.36635
2231.34907	0.36851
2229.42051	0.37065
2227.49194	0.37275
2225.56338	0.37492
2223.63481	0.37716
2221.70625	0.37940
2219.77769	0.38169
2217.84912	0.38401
2215.92056	0.38629
2213.99199	0.38848
2212.06343	0.39064
2210.13486	0.39285
2208.20630	0.39505
2206.27773	0.39717
2204.34917	0.39932
2202.42061	0.40146
2200.49204	0.40347
2198.56348	0.40547
2196.63491	0.40751
2194.70635	0.40950
2192.77778	0.41147
2190.84922	0.41345
2188.92065	0.41538
2186.99209	0.41731
2185.06353	0.41924
2183.13496	0.42107
2181.20640	0.42277
2179.27783	0.42444
2177.34927	0.42613
2175.42070	0.42783
2173.49214	0.42942
2171.56357	0.43079
2169.63501	0.43208
2167.70645	0.43346
2165.77788	0.43487
2163.84932	0.43619
2161.92075	0.43740
2159.99219	0.43857
2158.06362	0.43974
2156.13506	0.44082
2154.20649	0.44177
2152.27793	0.44276
2150.34937	0.44374
2148.42080	0.44441
2146.49224	0.44488
2144.56367	0.44539
2142.63511	0.44592
2140.70654	0.44638
2138.77798	0.44680
2136.84941	0.44715
2134.92085	0.44742
2132.99229	0.44752
2131.06372	0.44745
2129.13516	0.44736
2127.20659	0.44729
2125.27803	0.44718
2123.34946	0.44700
2121.42090	0.44670
2119.49233	0.44628
2117.56377	0.44574
2115.63521	0.44508
2113.70664	0.44441
2111.77808	0.44375
2109.84951	0.44304
2107.92095	0.44219
2105.99238	0.44117
2104.06382	0.44007
2102.13525	0.43896
2100.20669	0.43780
2098.27812	0.43645
2096.34956	0.43495
2094.42100	0.43348
2092.49243	0.43206
2090.56387	0.43062
2088.63530	0.42905
2086.70674	0.42733
2084.77817	0.42559
2082.84961	0.42381
2080.92104	0.42195
2078.99248	0.42015
2077.06392	0.41833
2075.13535	0.41631
2073.20679	0.41409
2071.27822	0.41181
2069.34966	0.40961
2067.42109	0.40746
2065.49253	0.40527
2063.56396	0.40299
2061.63540	0.40072
2059.70684	0.39845
2057.77827	0.39604
2055.84971	0.39362
2053.92114	0.39123
2051.99258	0.38876
2050.06401	0.38622
2048.13545	0.38363
2046.20688	0.38098
2044.27832	0.37843
2042.34976	0.37603
2040.42119	0.37357
2038.49263	0.37090
2036.56406	0.36812
2034.63550	0.36537
2032.70693	0.36267
2030.77837	0.36006
2028.84980	0.35745
2026.92124	0.35482
2024.99268	0.35208
2023.06411	0.34919
2021.13555	0.34631
2019.20698	0.34365
2017.27842	0.34114
2015.34985	0.33846
2013.42129	0.33562
2011.49272	0.33290
2009.56416	0.33039
2007.63560	0.32780
2005.70703	0.32508
2003.77847	0.32237
2001.84990	0.31971
1999.92134	0.31705
1997.99277	0.31444
1996.06421	0.31198
1994.13564	0.30972
1992.20708	0.30745
1990.27852	0.30487
1988.34995	0.30214
1986.42139	0.29947
1984.49282	0.29695
1982.56426	0.29466
1980.63569	0.29240
1978.70713	0.29005
1976.77856	0.28768
1974.85000	0.28543
1972.92144	0.28328
1970.99287	0.28122
1969.06431	0.27935
1967.13574	0.27752
1965.20718	0.27541
1963.27861	0.27318
1961.35005	0.27112
1959.42148	0.26916
1957.49292	0.26733
1955.56436	0.26564
1953.63579	0.26389
1951.70723	0.26203
1949.77866	0.26035
1947.85010	0.25886
1945.92153	0.25742
1943.99297	0.25609
1942.06440	0.25472
1940.13584	0.25300
1938.20728	0.25125
1936.27871	0.24980
1934.35015	0.24850
1932.42158	0.24723
1930.49302	0.24595
1928.56445	0.24476
1926.63589	0.24370
1924.70732	0.24295
1922.77876	0.24228
1920.85020	0.24133
1918.92163	0.24029
1916.99307	0.23922
1915.06450	0.23806
1913.13594	0.23714
1911.20737	0.23662
1909.27881	0.23617
1907.35024	0.23547
1905.42168	0.23459
1903.49312	0.23379
1901.56455	0.23311
1899.63599	0.23246
1897.70742	0.23197
1895.77886	0.23172
1893.85029	0.23145
1891.92173	0.23104
1889.99316	0.23086
1888.06460	0.23061
1886.13604	0.23011
1884.20747	0.22968
1882.27891	0.22938
1880.35034	0.22923
1878.42178	0.22921
1876.49321	0.22922
1874.56465	0.22922
1872.63608	0.22938
1870.70752	0.23000
1868.77896	0.23114
1866.85039	0.23160
1864.92183	0.23097
1862.99326	0.23049
1861.06470	0.23054
1859.13613	0.23084
1857.20757	0.23111
1855.27900	0.23146
1853.35044	0.23191
1851.42187	0.23241
1849.49331	0.23301
1847.56475	0.23398
1845.63618	0.23539
1843.70762	0.23670
1841.77905	0.23699
1839.85049	0.23679
1837.92192	0.23732
1835.99336	0.23828
1834.06479	0.23924
1832.13623	0.24051
1830.20767	0.24252
1828.27910	0.24425
1826.35054	0.24504
1824.42197	0.24596
1822.49341	0.24689
1820.56484	0.24782
1818.63628	0.24910
1816.70771	0.25079
1814.77915	0.25247
1812.85059	0.25431
1810.92202	0.25650
1808.99346	0.25855
1807.06489	0.26034
1805.13633	0.26215
1803.20776	0.26443
1801.27920	0.26729
1799.35063	0.27033
1797.42207	0.27275
1795.49351	0.27515
1793.56494	0.27833
1791.63638	0.28215
1789.70781	0.28509
1787.77925	0.28709
1785.85068	0.29000
1783.92212	0.29377
1781.99355	0.29783
1780.06499	0.30206
1778.13643	0.30628
1776.20786	0.31037
1774.27930	0.31521
1772.35073	0.32178
1770.42217	0.32817
1768.49360	0.33285
1766.56504	0.33735
1764.63647	0.34233
1762.70791	0.34830
1760.77935	0.35588
1758.85078	0.36269
1756.92222	0.36948
1754.99365	0.37705
1753.06509	0.38414
1751.13652	0.39292
1749.20796	0.40387
1747.27939	0.41411
1745.35083	0.42284
1743.42227	0.43218
1741.49370	0.44262
1739.56514	0.45500
1737.63657	0.46753
1735.70801	0.47884
1733.77944	0.49582
1731.85088	0.51526
1729.92231	0.53016
1727.99375	0.54545
1726.06519	0.56216
1724.13662	0.58075
1722.20806	0.60098
1720.27949	0.61978
1718.35093	0.64206
1716.42236	0.67442
1714.49380	0.70409
1712.56523	0.72779
1710.63667	0.75118
1708.70811	0.77668
1706.77954	0.80588
1704.85098	0.84064
1702.92241	0.87144
1700.99385	0.90175
1699.06528	0.94643
1697.13672	0.98655
1695.20815	1.02638
1693.27959	1.06504
1691.35103	1.09674
1689.42246	1.13338
1687.49390	1.17121
1685.56533	1.20686
1683.63677	1.26160
1681.70820	1.31848
1679.77964	1.35506
1677.85107	1.39017
1675.92251	1.43054
1673.99395	1.47996
1672.06538	1.52375
1670.13682	1.56638
1668.20825	1.62072
1666.27969	1.66397
1664.35112	1.69989
1662.42256	1.74400
1660.49399	1.79291
1658.56543	1.83094
1656.63687	1.86231
1654.70830	1.89328
1652.77974	1.94809
1650.85117	2.00226
1648.92261	2.02324
1646.99404	2.05195
1645.06548	2.08778
1643.13691	2.11182
1641.20835	2.12610
1639.27979	2.13863
1637.35122	2.14894
1635.42266	2.15531
1633.49409	2.15350
1631.56553	2.14398
1629.63696	2.13100
1627.70840	2.10846
1625.77983	2.08132
1623.85127	2.04657
1621.92271	2.00385
1619.99414	1.96500
1618.06558	1.92590
1616.13701	1.86916
1614.20845	1.80954
1612.27988	1.76341
1610.35132	1.71579
1608.42275	1.66389
1606.49419	1.61171
1604.56562	1.56286
1602.63706	1.51543
1600.70850	1.46878
1598.77993	1.42523
1596.85137	1.38391
1594.92280	1.34387
1592.99424	1.30524
1591.06567	1.26964
1589.13711	1.23596
1587.20854	1.20415
1585.27998	1.17412
1583.35142	1.14534
1581.42285	1.11856
1579.49429	1.09553
1577.56572	1.07466
1575.63716	1.04818
1573.70859	1.02366
1571.78003	1.00730
1569.85146	0.98962
1567.92290	0.96877
1565.99434	0.95174
1564.06577	0.93707
1562.13721	0.92501
1560.20864	0.91562
1558.28008	0.89824
1556.35151	0.87946
1554.42295	0.86739
1552.49438	0.85599
1550.56582	0.84526
1548.63726	0.83491
1546.70869	0.82609
1544.78013	0.81863
1542.85156	0.81144
1540.92300	0.80325
1538.99443	0.79088
1537.06587	0.78082
1535.13730	0.77457
1533.20874	0.76761
1531.28018	0.75972
1529.35161	0.75373
1527.42305	0.74843
1525.49448	0.74285
1523.56592	0.73783
1521.63735	0.73272
1519.70879	0.72631
1517.78022	0.72050
1515.85166	0.71456
1513.92310	0.70858
1511.99453	0.70418
1510.06597	0.70122
1508.13740	0.69920
1506.20884	0.69455
1504.28027	0.68780
1502.35171	0.68329
1500.42314	0.67998
1498.49458	0.67707
1496.56602	0.67383
1494.63745	0.67009
1492.70889	0.66697
1490.78032	0.66471
1488.85176	0.66211
1486.92319	0.65851
1484.99463	0.65475
1483.06606	0.65149
1481.13750	0.64857
1479.20894	0.64579
1477.28037	0.64348
1475.35181	0.64170
1473.42324	0.63958
1471.49468	0.63553
1469.56611	0.63112
1467.63755	0.62816
1465.70898	0.62606
1463.78042	0.62365
1461.85186	0.62127
1459.92329	0.62011
1457.99473	0.61967
1456.06616	0.61744
1454.13760	0.61388
1452.20903	0.61125
1450.28047	0.60933
1448.35190	0.60788
1446.42334	0.60637
1444.49478	0.60460
1442.56621	0.60292
1440.63765	0.60147
1438.70908	0.60051
1436.78052	0.59997
1434.85195	0.59883
1432.92339	0.59712
1430.99482	0.59576
1429.06626	0.59440
1427.13770	0.59266
1425.20913	0.59104
1423.28057	0.58965
1421.35200	0.58841
1419.42344	0.58742
1417.49487	0.58603
1415.56631	0.58388
1413.63774	0.58190
1411.70918	0.58034
1409.78062	0.57899
1407.85205	0.57774
1405.92349	0.57661
1403.99492	0.57538
1402.06636	0.57408
1400.13779	0.57308
1398.20923	0.57232
1396.28066	0.57148
1394.35210	0.57016
1392.42354	0.56830
1390.49497	0.56667
1388.56641	0.56565
1386.63784	0.56463
1384.70928	0.56318
1382.78071	0.56177
1380.85215	0.56057
1378.92358	0.55958
1376.99502	0.55898
1375.06646	0.55860
1373.13789	0.55767
1371.20933	0.55624
1369.28076	0.55504
1367.35220	0.55411
1365.42363	0.55333
1363.49507	0.55280
1361.56650	0.55207
1359.63794	0.55083
1357.70937	0.54969
1355.78081	0.54884
1353.85225	0.54799
1351.92368	0.54707
1349.99512	0.54624
1348.06655	0.54553
1346.13799	0.54481
1344.20942	0.54401
1342.28086	0.54335
1340.35229	0.54290
1338.42373	0.54216
1336.49517	0.54094
1334.56660	0.53966
1332.63804	0.53854
1330.70947	0.53761
1328.78091	0.53680
1326.85234	0.53606
1324.92378	0.53529
1322.99521	0.53447
1321.06665	0.53369
1319.13809	0.53295
1317.20952	0.53199
1315.28096	0.53088
1313.35239	0.52991
1311.42383	0.52904
1309.49526	0.52819
1307.56670	0.52740
1305.63813	0.52665
1303.70957	0.52589
1301.78101	0.52516
1299.85244	0.52442
1297.92388	0.52359
1295.99531	0.52270
1294.06675	0.52176
1292.13818	0.52083
1290.20962	0.52000
1288.28105	0.51923
1286.35249	0.51847
1284.42393	0.51774
1282.49536	0.51705
1280.56680	0.51647
1278.63823	0.51585
1276.70967	0.51502
1274.78110	0.51416
1272.85254	0.51338
1270.92397	0.51268
1268.99541	0.51198
1267.06685	0.51123
1265.13828	0.51047
1263.20972	0.50976
1261.28115	0.50911
1259.35259	0.50852
1257.42402	0.50793
1255.49546	0.50733
1253.56689	0.50684
1251.63833	0.50646
1249.70977	0.50601
1247.78120	0.50540
1245.85264	0.50473
1243.92407	0.50403
1241.99551	0.50326
1240.06694	0.50247
1238.13838	0.50176
1236.20981	0.50109
1234.28125	0.50038
1232.35269	0.49971
1230.42412	0.49898
1228.49556	0.49807
1226.56699	0.49712
1224.63843	0.49628
1222.70986	0.49543
1220.78130	0.49460
1218.85273	0.49391
1216.92417	0.49316
1214.99561	0.49228
1213.06704	0.49145
1211.13848	0.49064
1209.20991	0.48977
1207.28135	0.48885
1205.35278	0.48784
1203.42422	0.48682
1201.49565	0.48595
1199.56709	0.48513
1197.63853	0.48426
1195.70996	0.48335
1193.78140	0.48241
1191.85283	0.48154
1189.92427	0.48072
1187.99570	0.47982
1186.06714	0.47882
1184.13857	0.47781
1182.21001	0.47688
1180.28145	0.47602
1178.35288	0.47509
1176.42432	0.47421
1174.49575	0.47342
1172.56719	0.47256
1170.63862	0.47160
1168.71006	0.47069
1166.78149	0.46977
1164.85293	0.46882
1162.92437	0.46801
1160.99580	0.46739
1159.06724	0.46670
1157.13867	0.46588
1155.21011	0.46512
1153.28154	0.46438
1151.35298	0.46359
1149.42441	0.46276
1147.49585	0.46192
1145.56729	0.46107
1143.63872	0.46022
1141.71016	0.45945
1139.78159	0.45873
1137.85303	0.45798
1135.92446	0.45727
1133.99590	0.45656
1132.06733	0.45576
1130.13877	0.45500
1128.21021	0.45443
1126.28164	0.45383
1124.35308	0.45313
1122.42451	0.45249
1120.49595	0.45189
1118.56738	0.45128
1116.63882	0.45074
1114.71025	0.45027
1112.78169	0.44975
1110.85312	0.44921
1108.92456	0.44891
1106.99600	0.44873
1105.06743	0.44845
1103.13887	0.44818
1101.21030	0.44790
1099.28174	0.44753
1097.35317	0.44717
1095.42461	0.44678
1093.49604	0.44644
1091.56748	0.44643
1089.63892	0.44638
1087.71035	0.44586
1085.78179	0.44532
1083.85322	0.44516
1081.92466	0.44510
1079.99609	0.44494
1078.06753	0.44488
1076.13896	0.44503
1074.21040	0.44516
1072.28184	0.44512
1070.35327	0.44509
1068.42471	0.44525
1066.49614	0.44551
1064.56758	0.44576
1062.63901	0.44594
1060.71045	0.44593
1058.78188	0.44602
1056.85332	0.44649
1054.92476	0.44698
1052.99619	0.44721
1051.06763	0.44740
1049.13906	0.44774
1047.21050	0.44828
1045.28193	0.44889
1043.35337	0.44931
1041.42480	0.44953
1039.49624	0.44975
1037.56768	0.45006
1035.63911	0.45067
1033.71055	0.45165
1031.78198	0.45269
1029.85342	0.45361
1027.92485	0.45456
1025.99629	0.45570
1024.06772	0.45692
1022.13916	0.45809
1020.21060	0.45935
1018.28203	0.46068
1016.35347	0.46192
1014.42490	0.46311
1012.49634	0.46439
1010.56777	0.46568
1008.63921	0.46699
1006.71064	0.46847
1004.78208	0.47011
1002.85352	0.47196
1000.92495	0.47398
998.99639	0.47592
997.06782	0.47781
995.13926	0.47988
993.21069	0.48208
991.28213	0.48426
989.35356	0.48646
987.42500	0.48869
985.49644	0.49101
983.56787	0.49354
981.63931	0.49634
979.71074	0.49928
977.78218	0.50214
975.85361	0.50504
973.92505	0.50812
971.99648	0.51135
970.06792	0.51481
968.13936	0.51858
966.21079	0.52245
964.28223	0.52616
962.35366	0.52989
960.42510	0.53393
958.49653	0.53824
956.56797	0.54276
954.63940	0.54754
952.71084	0.55231
950.78228	0.55687
948.85371	0.56159
946.92515	0.56677
944.99658	0.57220
943.06802	0.57764
941.13945	0.58321
939.21089	0.58891
937.28232	0.59450
935.35376	0.60023
933.42520	0.60653
931.49663	0.61315
929.56807	0.61958
927.63950	0.62612
925.71094	0.63311
923.78237	0.64029
921.85381	0.64788
919.92524	0.65614
917.99668	0.66437
916.06812	0.67203
914.13955	0.67968
912.21099	0.68811
910.28242	0.69724
908.35386	0.70620
906.42529	0.71469
904.49673	0.72336
902.56816	0.73237
900.63960	0.74159
898.71104	0.75112
896.78247	0.76012
894.85391	0.76825
892.92534	0.77713
890.99678	0.78755
889.06821	0.79892
887.13965	0.81048
885.21108	0.82122
883.28252	0.83158
881.35396	0.84284
879.42539	0.85399
877.49683	0.86309
875.56826	0.87126
873.63970	0.88126
871.71113	0.89400
869.78257	0.90760
867.85400	0.92003
865.92544	0.93180
863.99687	0.94341
862.06831	0.95504
860.13975	0.96628
858.21118	0.97716
856.28262	0.98902
854.35405	1.00106
852.42549	1.01246
850.49692	1.02393
848.56836	1.03516
846.63979	1.04570
844.71123	1.05634
842.78267	1.06848
840.85410	1.08135
838.92554	1.09167
836.99697	1.09968
835.06841	1.10958
833.13984	1.12237
831.21128	1.13597
829.28271	1.14808
827.35415	1.15985
825.42559	1.17418
823.49702	1.18412
821.56846	1.18654
819.63989	1.19373
817.71133	1.20284
815.78276	1.20667
813.85420	1.21847
811.92563	1.24122
809.99707	1.26497
808.06851	1.28098
806.13994	1.27677
804.21138	1.25664
802.28281	1.24183
800.35425	1.25326
798.42568	1.30251
796.49712	1.36125
794.56855	1.37626
792.63999	1.35799
790.71143	1.34628
788.78286	1.34390
786.85430	1.34119
784.92573	1.34961
782.99717	1.36666
781.06860	1.36323
779.14004	1.32285
777.21147	1.27464
775.28291	1.27371
773.35435	1.31231
771.42578	1.32186
769.49722	1.31254
767.56865	1.32997
765.64009	1.33150
763.71152	1.26409
761.78296	1.16577
759.85439	1.12651
757.92583	1.16101
755.99727	1.16679
754.06870	1.12434
752.14014	1.09930
750.21157	1.09225
748.28301	1.12383
746.35444	1.15417
744.42588	1.10310
742.49731	1.07665
740.56875	1.06198
738.64019	0.94424
736.71162	0.82620
734.78306	0.76731
732.85449	0.71573
730.92593	0.58681
728.99736	0.41756
727.06880	0.33927
725.14023	0.32613
723.21167	0.31402
721.28311	0.39781
719.35454	1.20519
717.42598	4.30456
715.49741	0.29260
713.56885	0.17759
711.64028	0.17668
709.71172	0.04520
707.78315	-0.09190
705.85459	-0.09665
703.92603	-0.02747
701.99746	0.01093
700.06890	0.04627
698.14033	0.12325
696.21177	0.24861
694.28320	0.35336
692.35464	0.38155
690.42607	0.35369
688.49751	0.24755
686.56895	0.16881
684.64038	0.16142
682.71182	0.22928
680.78325	0.35010
678.85469	0.31161
676.92612	0.26237
674.99756	0.34671
673.06899	0.41165
671.14043	0.41201
669.21187	0.45926
667.28330	0.38768
665.35474	0.21511
663.42617	0.15985
661.49761	0.19876
659.56904	0.27119
657.64048	0.30706
655.71191	0.19062
653.78335	0.03779
651.85479	-0.00614
649.92622	0.09516
647.99766	0.19570
646.06909	0.22016
644.14053	0.21596
642.21196	0.17854
640.28340	0.16785
638.35483	0.20290
636.42627	0.21437
634.49771	0.16459
632.56914	0.06718
630.64058	0.00582
628.71201	0.01050
626.78345	0.09367
624.85488	0.23691
622.92632	0.30671
620.99775	0.21295
619.06919	0.13022
617.14062	0.14056
615.21206	0.27951
613.28350	0.34632
611.35493	0.29999
609.42637	0.32761
607.49780	0.38631
605.56924	0.38891
603.64067	0.44515
601.71211	0.42223
599.78354	0.29631
597.85498	0.22584
595.92642	0.23244
593.99785	0.26911
592.06929	0.26918
590.14072	0.22320
588.21216	0.19115
586.28359	0.20108
584.35503	0.20083
582.42646	0.17257
580.49790	0.19042
578.56934	0.28588
576.64077	0.35884
574.71221	0.32308
572.78364	0.26578
570.85508	0.22809
568.92651	0.21377
566.99795	0.22661
565.06938	0.24379
563.14082	0.25909
561.21226	0.27879
559.28369	0.27391
557.35513	0.27018
555.42656	0.30180
553.49800	0.32390
551.56943	0.26816
549.64087	0.18794
547.71230	0.16970
545.78374	0.20797
543.85518	0.22608
541.92661	0.19947
539.99805	0.14625
538.06948	0.12334
536.14092	0.16084
534.21235	0.21938
532.28379	0.24949
530.35522	0.24554
528.42666	0.23340
526.49810	0.22923
524.56953	0.25030
522.64097	0.30773
520.71240	0.29667
518.78384	0.21765
516.85527	0.18375
514.92671	0.18020
512.99814	0.17250
511.06958	0.15457
509.14102	0.12601
507.21245	0.13846
505.28389	0.21045
503.35532	0.30710
501.42676	0.40728
499.49819	0.36176
