3997.91411	0.06053
3995.98555	0.06066
3994.05698	0.06072
3992.12842	0.06125
3990.19985	0.06178
3988.27129	0.06185
3986.34272	0.06179
3984.41416	0.06207
3982.48560	0.06238
3980.55703	0.06229
3978.62847	0.06235
3976.69990	0.06315
3974.77134	0.06412
3972.84277	0.06459
3970.91421	0.06465
3968.98564	0.06441
3967.05708	0.06412
3965.12852	0.06407
3963.19995	0.06421
3961.27139	0.06462
3959.34282	0.06504
3957.41426	0.06498
3955.48569	0.06479
3953.55713	0.06500
3951.62856	0.06582
3949.70000	0.06683
3947.77144	0.06711
3945.84287	0.06672
3943.91431	0.06679
3941.98574	0.06726
3940.05718	0.06701
3938.12861	0.06623
3936.20005	0.06554
3934.27148	0.06536
3932.34292	0.06598
3930.41436	0.06658
3928.48579	0.06633
3926.55723	0.06607
3924.62866	0.06669
3922.70010	0.06712
3920.77153	0.06652
3918.84297	0.06610
3916.91440	0.06626
3914.98584	0.06579
3913.05728	0.06477
3911.12871	0.06436
3909.20015	0.06469
3907.27158	0.06549
3905.34302	0.06694
3903.41445	0.06857
3901.48589	0.06934
3899.55732	0.06910
3897.62876	0.06791
3895.70020	0.06651
3893.77163	0.06625
3891.84307	0.06712
3889.91450	0.06748
3887.98594	0.06681
3886.05737	0.06682
3884.12881	0.06793
3882.20024	0.06906
3880.27168	0.06973
3878.34312	0.06884
3876.41455	0.06723
3874.48599	0.06746
3872.55742	0.06936
3870.62886	0.07101
3868.70029	0.07144
3866.77173	0.07099
3864.84316	0.07130
3862.91460	0.07233
3860.98604	0.07219
3859.05747	0.07141
3857.12891	0.07168
3855.20034	0.07332
3853.27178	0.07629
3851.34321	0.07771
3849.41465	0.07570
3847.48608	0.07372
3845.55752	0.07302
3843.62896	0.07379
3841.70039	0.07595
3839.77183	0.07843
3837.84326	0.07998
3835.91470	0.08019
3833.98613	0.07989
3832.05757	0.07959
3830.12900	0.07925
3828.20044	0.07940
3826.27187	0.08046
3824.34331	0.08178
3822.41475	0.08345
3820.48618	0.08616
3818.55762	0.08735
3816.62905	0.08665
3814.70049	0.08632
3812.77192	0.08606
3810.84336	0.08595
3808.91479	0.08680
3806.98623	0.08880
3805.05767	0.09120
3803.12910	0.09328
3801.20054	0.09535
3799.27197	0.09602
3797.34341	0.09559
3795.41484	0.09591
3793.48628	0.09637
3791.55771	0.09698
3789.62915	0.09829
3787.70059	0.09991
3785.77202	0.10169
3783.84346	0.10342
3781.91489	0.10476
3779.98633	0.10635
3778.05776	0.10822
3776.12920	0.10916
3774.20063	0.10989
3772.27207	0.11158
3770.34351	0.11448
3768.41494	0.11772
3766.48638	0.11992
3764.55781	0.12141
3762.62925	0.12270
3760.70068	0.12485
3758.77212	0.12866
3756.84355	0.13220
3754.91499	0.13414
3752.98643	0.13673
3751.05786	0.14189
3749.12930	0.14709
3747.20073	0.14869
3745.27217	0.15013
3743.34360	0.15338
3741.41504	0.15517
3739.48647	0.15576
3737.55791	0.15773
3735.62935	0.16203
3733.70078	0.16725
3731.77222	0.16991
3729.84365	0.17084
3727.91509	0.17310
3725.98652	0.17827
3724.05796	0.18550
3722.12939	0.19332
3720.20083	0.20217
3718.27227	0.21182
3716.34370	0.22149
3714.41514	0.23073
3712.48657	0.24066
3710.55801	0.25295
3708.62944	0.26469
3706.70088	0.27390
3704.77231	0.28390
3702.84375	0.29733
3700.91519	0.31517
3698.98662	0.33413
3697.05806	0.35192
3695.12949	0.37109
3693.20093	0.39196
3691.27236	0.41555
3689.34380	0.44627
3687.41523	0.48198
3685.48667	0.51164
3683.55811	0.53749
3681.62954	0.56644
3679.70098	0.59970
3677.77241	0.63497
3675.84385	0.67650
3673.91528	0.73059
3671.98672	0.77421
3670.05815	0.81271
3668.12959	0.86482
3666.20103	0.91273
3664.27246	0.95343
3662.34390	0.99739
3660.41533	1.04486
3658.48677	1.09157
3656.55820	1.14132
3654.62964	1.19703
3652.70107	1.24457
3650.77251	1.28639
3648.84395	1.34286
3646.91538	1.41035
3644.98682	1.45995
3643.05825	1.49853
3641.12969	1.53797
3639.20112	1.58070
3637.27256	1.62327
3635.34399	1.66496
3633.41543	1.70754
3631.48687	1.74843
3629.55830	1.79026
3627.62974	1.84361
3625.70117	1.89263
3623.77261	1.92661
3621.84404	1.96025
3619.91548	1.99930
3617.98691	2.04636
3616.05835	2.09204
3614.12979	2.13078
3612.20122	2.17054
3610.27266	2.20916
3608.34409	2.24777
3606.41553	2.28891
3604.48696	2.32674
3602.55840	2.36075
3600.62983	2.39775
3598.70127	2.43775
3596.77271	2.47684
3594.84414	2.51718
3592.91558	2.56022
3590.98701	2.60139
3589.05845	2.63983
3587.12988	2.68482
3585.20132	2.73256
3583.27275	2.77232
3581.34419	2.80928
3579.41562	2.84903
3577.48706	2.89118
3575.55850	2.93441
3573.62993	2.97900
3571.70137	3.02179
3569.77280	3.06227
3567.84424	3.10540
3565.91567	3.15744
3563.98711	3.20735
3562.05854	3.24807
3560.12998	3.28846
3558.20142	3.33119
3556.27285	3.37613
3554.34429	3.42184
3552.41572	3.46854
3550.48716	3.51566
3548.55859	3.55991
3546.63003	3.60317
3544.70146	3.65103
3542.77290	3.69982
3540.84434	3.74607
3538.91577	3.79310
3536.98721	3.84062
3535.05864	3.88754
3533.13008	3.93259
3531.20151	3.97845
3529.27295	4.02758
3527.34438	4.07833
3525.41582	4.12696
3523.48726	4.17392
3521.55869	4.22190
3519.63013	4.26876
3517.70156	4.31681
3515.77300	4.36741
3513.84443	4.41635
3511.91587	4.46218
3509.98730	4.50905
3508.05874	4.55669
3506.13018	4.59942
3504.20161	4.64047
3502.27305	4.68895
3500.34448	4.74267
3498.41592	4.79231
3496.48735	4.83785
3494.55879	4.88335
3492.63022	4.93364
3490.70166	4.98982
3488.77310	5.04612
3486.84453	5.09662
3484.91597	5.14084
3482.98740	5.18340
3481.05884	5.22951
3479.13027	5.27747
3477.20171	5.32581
3475.27314	5.37475
3473.34458	5.41698
3471.41602	5.45584
3469.48745	5.50394
3467.55889	5.56131
3465.63032	5.61751
3463.70176	5.67038
3461.77319	5.72522
3459.84463	5.77863
3457.91606	5.82931
3455.98750	5.88341
3454.05894	5.93536
3452.13037	5.98086
3450.20181	6.02941
3448.27324	6.08375
3446.34468	6.13805
3444.41611	6.18803
3442.48755	6.24197
3440.55898	6.30017
3438.63042	6.34703
3436.70186	6.38077
3434.77329	6.41800
3432.84473	6.47297
3430.91616	6.54078
3428.98760	6.59278
3427.05903	6.62103
3425.13047	6.67082
3423.20190	6.74443
3421.27334	6.79039
3419.34478	6.80729
3417.41621	6.84802
3415.48765	6.92036
3413.55908	6.98265
3411.63052	7.01715
3409.70195	7.02840
3407.77339	7.04716
3405.84482	7.10825
3403.91626	7.20186
3401.98770	7.27879
3400.05913	7.32756
3398.13057	7.35760
3396.20200	7.38502
3394.27344	7.43249
3392.34487	7.45885
3390.41631	7.46961
3388.48774	7.50113
3386.55918	7.54635
3384.63062	7.60297
3382.70205	7.66013
3380.77349	7.68014
3378.84492	7.68857
3376.91636	7.73215
3374.98779	7.78070
3373.05923	7.83190
3371.13066	7.87045
3369.20210	7.87821
3367.27354	7.88236
3365.34497	7.89400
3363.41641	7.92417
3361.48784	7.96146
3359.55928	7.96703
3357.63071	7.97170
3355.70215	8.01632
3353.77358	8.03563
3351.84502	8.03916
3349.91646	8.09687
3347.98789	8.17213
3346.05933	8.19084
3344.13076	8.19805
3342.20220	8.23494
3340.27363	8.24740
3338.34507	8.21844
3336.41650	8.17741
3334.48794	8.19790
3332.55937	8.24402
3330.63081	8.24352
3328.70225	8.20921
3326.77368	8.14141
3324.84512	8.08075
3322.91655	8.11671
3320.98799	8.25800
3319.05942	8.34692
3317.13086	8.32163
3315.20229	8.26092
3313.27373	8.20189
3311.34517	8.18082
3309.41660	8.18585
3307.48804	8.15330
3305.55947	8.08470
3303.63091	8.04414
3301.70234	8.06218
3299.77378	8.11929
3297.84521	8.17273
3295.91665	8.21297
3293.98809	8.21221
3292.05952	8.20959
3290.13096	8.28011
3288.20239	8.36599
3286.27383	8.36939
3284.34526	8.28327
3282.41670	8.20978
3280.48813	8.20116
3278.55957	8.20284
3276.63101	8.16289
3274.70244	8.14636
3272.77388	8.20537
3270.84531	8.29152
3268.91675	8.34519
3266.98818	8.31859
3265.05962	8.27334
3263.13105	8.28428
3261.20249	8.31938
3259.27393	8.33329
3257.34536	8.33627
3255.41680	8.31354
3253.48823	8.25657
3251.55967	8.20635
3249.63110	8.17853
3247.70254	8.20097
3245.77397	8.27102
3243.84541	8.33549
3241.91685	8.35603
3239.98828	8.31106
3238.05972	8.21755
3236.13115	8.14213
3234.20259	8.12026
3232.27402	8.15032
3230.34546	8.19374
3228.41689	8.17224
3226.48833	8.13168
3224.55977	8.14359
3222.63120	8.14529
3220.70264	8.11362
3218.77407	8.11246
3216.84551	8.10860
3214.91694	8.03669
3212.98838	7.93972
3211.05981	7.86424
3209.13125	7.81970
3207.20269	7.82068
3205.27412	7.85650
3203.34556	7.88150
3201.41699	7.88844
3199.48843	7.89979
3197.55986	7.89095
3195.63130	7.83948
3193.70273	7.76598
3191.77417	7.67799
3189.84561	7.59730
3187.91704	7.55663
3185.98848	7.52106
3184.05991	7.43262
3182.13135	7.32880
3180.20278	7.28345
3178.27422	7.27577
3176.34565	7.24537
3174.41709	7.19399
3172.48853	7.15157
3170.55996	7.11021
3168.63140	7.03922
3166.70283	6.94743
3164.77427	6.85634
3162.84570	6.77845
3160.91714	6.72498
3158.98857	6.66778
3157.06001	6.58315
3155.13145	6.50255
3153.20288	6.44063
3151.27432	6.37877
3149.34575	6.31447
3147.41719	6.25149
3145.48862	6.18277
3143.56006	6.11156
3141.63149	6.04604
3139.70293	5.98180
3137.77437	5.91479
3135.84580	5.84857
3133.91724	5.78206
3131.98867	5.70502
3130.06011	5.62568
3128.13154	5.55591
3126.20298	5.48713
3124.27441	5.41708
3122.34585	5.34588
3120.41729	5.27033
3118.48872	5.19330
3116.56016	5.11940
3114.63159	5.04659
3112.70303	4.97250
3110.77446	4.90268
3108.84590	4.83560
3106.91733	4.76684
3104.98877	4.69949
3103.06021	4.63267
3101.13164	4.56367
3099.20308	4.49729
3097.27451	4.43232
3095.34595	4.36263
3093.41738	4.29106
3091.48882	4.22208
3089.56025	4.15622
3087.63169	4.09148
3085.70312	4.02790
3083.77456	3.96763
3081.84600	3.90822
3079.91743	3.84699
3077.98887	3.78581
3076.06030	3.72544
3074.13174	3.66419
3072.20317	3.60194
3070.27461	3.54046
3068.34604	3.48160
3066.41748	3.42482
3064.48892	3.36861
3062.56035	3.31344
3060.63179	3.25953
3058.70322	3.20484
3056.77466	3.14922
3054.84609	3.09514
3052.91753	3.04251
3050.98896	2.99034
3049.06040	2.93941
3047.13184	2.88948
3045.20327	2.83948
3043.27471	2.78996
3041.34614	2.74188
3039.41758	2.69433
3037.48901	2.64716
3035.56045	2.60139
3033.63188	2.55640
3031.70332	2.51147
3029.77476	2.46700
3027.84619	2.42352
3025.91763	2.38089
3023.98906	2.33895
3022.06050	2.29799
3020.13193	2.25764
3018.20337	2.21754
3016.27480	2.17778
3014.34624	2.13825
3012.41768	2.09950
3010.48911	2.06205
3008.56055	2.02535
3006.63198	1.98896
3004.70342	1.95327
3002.77485	1.91846
3000.84629	1.88412
2998.91772	1.84985
2996.98916	1.81562
2995.06060	1.78202
2993.13203	1.74940
2991.20347	1.71729
2989.27490	1.68545
2987.34634	1.65436
2985.41777	1.62432
2983.48921	1.59499
2981.56064	1.56610
2979.63208	1.53732
2977.70352	1.50831
2975.77495	1.47988
2973.84639	1.45210
2971.91782	1.42394
2969.98926	1.39583
2968.06069	1.36896
2966.13213	1.34337
2964.20356	1.31848
2962.27500	1.29379
2960.34644	1.26903
2958.41787	1.24488
2956.48931	1.22218
2954.56074	1.20023
2952.63218	1.17786
2950.70361	1.15552
2948.77505	1.13398
2946.84648	1.11272
2944.91792	1.09151
2942.98936	1.07054
2941.06079	1.04964
2939.13223	1.02881
2937.20366	1.00850
2935.27510	0.98949
2933.34653	0.97165
2931.41797	0.95430
2929.48940	0.93714
2927.56084	0.91992
2925.63228	0.90280
2923.70371	0.88628
2921.77515	0.87071
2919.84658	0.85558
2917.91802	0.84000
2915.98945	0.82400
2914.06089	0.80827
2912.13232	0.79335
2910.20376	0.77917
2908.27520	0.76514
2906.34663	0.75113
2904.41807	0.73762
2902.48950	0.72472
2900.56094	0.71200
2898.63237	0.69938
2896.70381	0.68703
2894.77524	0.67498
2892.84668	0.66327
2890.91812	0.65175
2888.98955	0.64031
2887.06099	0.62911
2885.13242	0.61812
2883.20386	0.60718
2881.27529	0.59640
2879.34673	0.58589
2877.41816	0.57556
2875.48960	0.56547
2873.56104	0.55560
2871.63247	0.54584
2869.70391	0.53610
2867.77534	0.52630
2865.84678	0.51664
2863.91821	0.50730
2861.98965	0.49829
2860.06108	0.48981
2858.13252	0.48180
2856.20396	0.47398
2854.27539	0.46647
2852.34683	0.45928
2850.41826	0.45220
2848.48970	0.44490
2846.56113	0.43721
2844.63257	0.42969
2842.70400	0.42283
2840.77544	0.41644
2838.84687	0.41038
2836.91831	0.40457
2834.98975	0.39885
2833.06118	0.39311
2831.13262	0.38736
2829.20405	0.38155
2827.27549	0.37559
2825.34692	0.36978
2823.41836	0.36432
2821.48979	0.35889
2819.56123	0.35338
2817.63267	0.34795
2815.70410	0.34269
2813.77554	0.33753
2811.84697	0.33243
2809.91841	0.32748
2807.98984	0.32266
2806.06128	0.31790
2804.13271	0.31320
2802.20415	0.30849
2800.27559	0.30387
2798.34702	0.29944
2796.41846	0.29517
2794.48989	0.29093
2792.56133	0.28670
2790.63276	0.28263
2788.70420	0.27870
2786.77563	0.27474
2784.84707	0.27081
2782.91851	0.26709
2780.98994	0.26354
2779.06138	0.25984
2777.13281	0.25607
2775.20425	0.25250
2773.27568	0.24922
2771.34712	0.24603
2769.41855	0.24279
2767.48999	0.23962
2765.56143	0.23662
2763.63286	0.23364
2761.70430	0.23057
2759.77573	0.22763
2757.84717	0.22489
2755.91860	0.22213
2753.99004	0.21939
2752.06147	0.21678
2750.13291	0.21426
2748.20435	0.21181
2746.27578	0.20931
2744.34722	0.20677
2742.41865	0.20429
2740.49009	0.20183
2738.56152	0.19938
2736.63296	0.19709
2734.70439	0.19500
2732.77583	0.19299
2730.84727	0.19099
2728.91870	0.18896
2726.99014	0.18691
2725.06157	0.18484
2723.13301	0.18286
2721.20444	0.18103
2719.27588	0.17928
2717.34731	0.17757
2715.41875	0.17598
2713.49019	0.17443
2711.56162	0.17279
2709.63306	0.17111
2707.70449	0.16952
2705.77593	0.16806
2703.84736	0.16668
2701.91880	0.16534
2699.99023	0.16404
2698.06167	0.16277
2696.13311	0.16146
2694.20454	0.15997
2692.27598	0.15847
2690.34741	0.15730
2688.41885	0.15640
2686.49028	0.15540
2684.56172	0.15418
2682.63315	0.15291
2680.70459	0.15173
2678.77603	0.15067
2676.84746	0.14975
2674.91890	0.14892
2672.99033	0.14803
2671.06177	0.14717
2669.13320	0.14639
2667.20464	0.14559
2665.27607	0.14482
2663.34751	0.14415
2661.41895	0.14340
2659.49038	0.14262
2657.56182	0.14202
2655.63325	0.14156
2653.70469	0.14102
2651.77612	0.14037
2649.84756	0.13974
2647.91899	0.13931
2645.99043	0.13906
2644.06187	0.13866
2642.13330	0.13802
2640.20474	0.13746
2638.27617	0.13717
2636.34761	0.13703
2634.41904	0.13677
2632.49048	0.13637
2630.56191	0.13606
2628.63335	0.13578
2626.70479	0.13546
2624.77622	0.13524
2622.84766	0.13513
2620.91909	0.13502
2618.99053	0.13487
2617.06196	0.13471
2615.13340	0.13450
2613.20483	0.13426
2611.27627	0.13420
2609.34771	0.13443
2607.41914	0.13469
2605.49058	0.13472
2603.56201	0.13470
2601.63345	0.13483
2599.70488	0.13502
2597.77632	0.13523
2595.84775	0.13540
2593.91919	0.13552
2591.99062	0.13567
2590.06206	0.13591
2588.13350	0.13624
2586.20493	0.13666
2584.27637	0.13707
2582.34780	0.13739
2580.41924	0.13758
2578.49067	0.13778
2576.56211	0.13814
2574.63354	0.13859
2572.70498	0.13907
2570.77642	0.13951
2568.84785	0.13982
2566.91929	0.14017
2564.99072	0.14063
2563.06216	0.14113
2561.13359	0.14168
2559.20503	0.14227
2557.27646	0.14295
2555.34790	0.14365
2553.41934	0.14414
2551.49077	0.14454
2549.56221	0.14514
2547.63364	0.14597
2545.70508	0.14690
2543.77651	0.14763
2541.84795	0.14822
2539.91938	0.14887
2537.99082	0.14953
2536.06226	0.15021
2534.13369	0.15103
2532.20513	0.15188
2530.27656	0.15263
2528.34800	0.15336
2526.41943	0.15406
2524.49087	0.15480
2522.56230	0.15573
2520.63374	0.15667
2518.70518	0.15746
2516.77661	0.15813
2514.84805	0.15878
2512.91948	0.15960
2510.99092	0.16058
2509.06235	0.16148
2507.13379	0.16231
2505.20522	0.16308
2503.27666	0.16388
2501.34810	0.16479
2499.41953	0.16581
2497.49097	0.16684
2495.56240	0.16775
2493.63384	0.16857
2491.70527	0.16943
2489.77671	0.17032
2487.84814	0.17121
2485.91958	0.17222
2483.99102	0.17334
2482.06245	0.17440
2480.13389	0.17535
2478.20532	0.17624
2476.27676	0.17710
2474.34819	0.17803
2472.41963	0.17902
2470.49106	0.17996
2468.56250	0.18081
2466.63394	0.18164
2464.70537	0.18255
2462.77681	0.18362
2460.84824	0.18472
2458.91968	0.18569
2456.99111	0.18660
2455.06255	0.18768
2453.13398	0.18881
2451.20542	0.18989
2449.27686	0.19098
2447.34829	0.19208
2445.41973	0.19319
2443.49116	0.19429
2441.56260	0.19532
2439.63403	0.19628
2437.70547	0.19727
2435.77690	0.19832
2433.84834	0.19931
2431.91978	0.20027
2429.99121	0.20133
2428.06265	0.20246
2426.13408	0.20374
2424.20552	0.20513
2422.27695	0.20641
2420.34839	0.20742
2418.41982	0.20837
2416.49126	0.20953
2414.56270	0.21083
2412.63413	0.21205
2410.70557	0.21316
2408.77700	0.21432
2406.84844	0.21557
2404.91987	0.21684
2402.99131	0.21803
2401.06274	0.21918
2399.13418	0.22042
2397.20562	0.22174
2395.27705	0.22301
2393.34849	0.22419
2391.41992	0.22526
2389.49136	0.22622
2387.56279	0.22676
2385.63423	0.22627
2383.70566	0.22421
2381.77710	0.22043
2379.84854	0.21522
2377.91997	0.20879
2375.99141	0.20100
2374.06284	0.19186
2372.13428	0.18151
2370.20571	0.16993
2368.27715	0.15749
2366.34858	0.14589
2364.42002	0.13664
2362.49146	0.13021
2360.56289	0.12730
2358.63433	0.12901
2356.70576	0.13686
2354.77720	0.15050
2352.84863	0.16775
2350.92007	0.18512
2348.99150	0.19600
2347.06294	0.19688
2345.13437	0.18911
2343.20581	0.17963
2341.27725	0.17633
2339.34868	0.17857
2337.42012	0.18252
2335.49155	0.18634
2333.56299	0.19005
2331.63442	0.19407
2329.70586	0.19866
2327.77729	0.20373
2325.84873	0.20943
2323.92017	0.21574
2321.99160	0.22248
2320.06304	0.22994
2318.13447	0.23789
2316.20591	0.24501
2314.27734	0.25062
2312.34878	0.25522
2310.42021	0.25988
2308.49165	0.26520
2306.56309	0.27084
2304.63452	0.27596
2302.70596	0.28015
2300.77739	0.28383
2298.84883	0.28746
2296.92026	0.29093
2294.99170	0.29433
2293.06313	0.29788
2291.13457	0.30141
2289.20601	0.30469
2287.27744	0.30795
2285.34888	0.31122
2283.42031	0.31408
2281.49175	0.31632
2279.56318	0.31814
2277.63462	0.31975
2275.70605	0.32134
2273.77749	0.32316
2271.84893	0.32528
2269.92036	0.32747
2267.99180	0.32966
2266.06323	0.33192
2264.13467	0.33420
2262.20610	0.33649
2260.27754	0.33881
2258.34897	0.34119
2256.42041	0.34367
2254.49185	0.34619
2252.56328	0.34861
2250.63472	0.35097
2248.70615	0.35338
2246.77759	0.35584
2244.84902	0.35822
2242.92046	0.36056
2240.99189	0.36295
2239.06333	0.36528
2237.13477	0.36744
2235.20620	0.36963
2233.27764	0.37200
2231.34907	0.37441
2229.42051	0.37666
2227.49194	0.37878
2225.56338	0.38092
2223.63481	0.38312
2221.70625	0.38537
2219.77769	0.38763
2217.84912	0.38987
2215.92056	0.39203
2213.99199	0.39404
2212.06343	0.39605
2210.13486	0.39821
2208.20630	0.40037
2206.27773	0.40241
2204.34917	0.40447
2202.42061	0.40660
2200.49204	0.40878
2198.56348	0.41095
2196.63491	0.41297
2194.70635	0.41491
2192.77778	0.41692
2190.84922	0.41893
2188.92065	0.42074
2186.99209	0.42238
2185.06353	0.42407
2183.13496	0.42585
2181.20640	0.42758
2179.27783	0.42921
2177.34927	0.43085
2175.42070	0.43248
2173.49214	0.43404
2171.56357	0.43555
2169.63501	0.43699
2167.70645	0.43834
2165.77788	0.43958
2163.84932	0.44069
2161.92075	0.44179
2159.99219	0.44303
2158.06362	0.44429
2156.13506	0.44540
2154.20649	0.44628
2152.27793	0.44702
2150.34937	0.44773
2148.42080	0.44845
2146.49224	0.44918
2144.56367	0.44981
2142.63511	0.45027
2140.70654	0.45055
2138.77798	0.45081
2136.84941	0.45107
2134.92085	0.45125
2132.99229	0.45140
2131.06372	0.45150
2129.13516	0.45138
2127.20659	0.45107
2125.27803	0.45080
2123.34946	0.45049
2121.42090	0.44998
2119.49233	0.44940
2117.56377	0.44886
2115.63521	0.44823
2113.70664	0.44754
2111.77808	0.44682
2109.84951	0.44597
2107.92095	0.44494
2105.99238	0.44385
2104.06382	0.44274
2102.13525	0.44150
2100.20669	0.44009
2098.27812	0.43860
2096.34956	0.43713
2094.42100	0.43570
2092.49243	0.43430
2090.56387	0.43284
2088.63530	0.43123
2086.70674	0.42949
2084.77817	0.42766
2082.84961	0.42571
2080.92104	0.42368
2078.99248	0.42161
2077.06392	0.41954
2075.13535	0.41751
2073.20679	0.41547
2071.27822	0.41334
2069.34966	0.41115
2067.42109	0.40899
2065.49253	0.40690
2063.56396	0.40474
2061.63540	0.40240
2059.70684	0.39990
2057.77827	0.39733
2055.84971	0.39479
2053.92114	0.39224
2051.99258	0.38966
2050.06401	0.38705
2048.13545	0.38450
2046.20688	0.38197
2044.27832	0.37938
2042.34976	0.37669
2040.42119	0.37391
2038.49263	0.37114
2036.56406	0.36847
2034.63550	0.36581
2032.70693	0.36311
2030.77837	0.36049
2028.84980	0.35788
2026.92124	0.35518
2024.99268	0.35237
2023.06411	0.34958
2021.13555	0.34685
2019.20698	0.34420
2017.27842	0.34158
2015.34985	0.33882
2013.42129	0.33597
2011.49272	0.33319
2009.56416	0.33045
2007.63560	0.32769
2005.70703	0.32503
2003.77847	0.32246
2001.84990	0.31984
1999.92134	0.31715
1997.99277	0.31447
1996.06421	0.31186
1994.13564	0.30942
1992.20708	0.30714
1990.27852	0.30471
1988.34995	0.30211
1986.42139	0.29943
1984.49282	0.29684
1982.56426	0.29451
1980.63569	0.29237
1978.70713	0.29016
1976.77856	0.28776
1974.85000	0.28540
1972.92144	0.28323
1970.99287	0.28118
1969.06431	0.27926
1967.13574	0.27737
1965.20718	0.27527
1963.27861	0.27312
1961.35005	0.27108
1959.42148	0.26910
1957.49292	0.26722
1955.56436	0.26549
1953.63579	0.26377
1951.70723	0.26200
1949.77866	0.26025
1947.85010	0.25867
1945.92153	0.25731
1943.99297	0.25609
1942.06440	0.25476
1940.13584	0.25307
1938.20728	0.25139
1936.27871	0.24997
1934.35015	0.24868
1932.42158	0.24746
1930.49302	0.24618
1928.56445	0.24485
1926.63589	0.24372
1924.70732	0.24305
1922.77876	0.24245
1920.85020	0.24146
1918.92163	0.24044
1916.99307	0.23951
1915.06450	0.23842
1913.13594	0.23744
1911.20737	0.23681
1909.27881	0.23621
1907.35024	0.23544
1905.42168	0.23467
1903.49312	0.23400
1901.56455	0.23337
1899.63599	0.23281
1897.70742	0.23241
1895.77886	0.23218
1893.85029	0.23196
1891.92173	0.23164
1889.99316	0.23144
1888.06460	0.23107
1886.13604	0.23049
1884.20747	0.23007
1882.27891	0.22987
1880.35034	0.22976
1878.42178	0.22967
1876.49321	0.22970
1874.56465	0.22979
1872.63608	0.23002
1870.70752	0.23062
1868.77896	0.23154
1866.85039	0.23178
1864.92183	0.23127
1862.99326	0.23095
1861.06470	0.23103
1859.13613	0.23133
1857.20757	0.23171
1855.27900	0.23217
1853.35044	0.23258
1851.42187	0.23312
1849.49331	0.23396
1847.56475	0.23494
1845.63618	0.23600
1843.70762	0.23700
1841.77905	0.23745
1839.85049	0.23763
1837.92192	0.23829
1835.99336	0.23918
1834.06479	0.24012
1832.13623	0.24137
1830.20767	0.24320
1828.27910	0.24479
1826.35054	0.24572
1824.42197	0.24684
1822.49341	0.24786
1820.56484	0.24880
1818.63628	0.25005
1816.70771	0.25165
1814.77915	0.25326
1812.85059	0.25506
1810.92202	0.25723
1808.99346	0.25933
1807.06489	0.26119
1805.13633	0.26306
1803.20776	0.26547
1801.27920	0.26833
1799.35063	0.27125
1797.42207	0.27369
1795.49351	0.27610
1793.56494	0.27914
1791.63638	0.28296
1789.70781	0.28617
1787.77925	0.28842
1785.85068	0.29141
1783.92212	0.29519
1781.99355	0.29929
1780.06499	0.30352
1778.13643	0.30780
1776.20786	0.31202
1774.27930	0.31674
1772.35073	0.32286
1770.42217	0.32902
1768.49360	0.33396
1766.56504	0.33875
1764.63647	0.34393
1762.70791	0.35002
1760.77935	0.35761
1758.85078	0.36449
1756.92222	0.37140
1754.99365	0.37899
1753.06509	0.38610
1751.13652	0.39493
1749.20796	0.40607
1747.27939	0.41672
1745.35083	0.42588
1743.42227	0.43555
1741.49370	0.44630
1739.56514	0.45880
1737.63657	0.47113
1735.70801	0.48211
1733.77944	0.49885
1731.85088	0.51869
1729.92231	0.53421
1727.99375	0.54979
1726.06519	0.56664
1724.13662	0.58520
1722.20806	0.60516
1720.27949	0.62375
1718.35093	0.64584
1716.42236	0.67786
1714.49380	0.70774
1712.56523	0.73191
1710.63667	0.75551
1708.70811	0.78103
1706.77954	0.81015
1704.85098	0.84467
1702.92241	0.87537
1700.99385	0.90575
1699.06528	0.95040
1697.13672	0.99078
1695.20815	1.03096
1693.27959	1.06998
1691.35103	1.10176
1689.42246	1.13816
1687.49390	1.17610
1685.56533	1.21278
1683.63677	1.26822
1681.70820	1.32507
1679.77964	1.36189
1677.85107	1.39696
1675.92251	1.43694
1673.99395	1.48558
1672.06538	1.52925
1670.13682	1.57229
1668.20825	1.62644
1666.27969	1.66950
1664.35112	1.70505
1662.42256	1.74827
1660.49399	1.79618
1658.56543	1.83397
1656.63687	1.86599
1654.70830	1.89784
1652.77974	1.95141
1650.85117	2.00411
1648.92261	2.02493
1646.99404	2.05194
1645.06548	2.08547
1643.13691	2.10897
1641.20835	2.12459
1639.27979	2.13901
1637.35122	2.14895
1635.42266	2.15206
1633.49409	2.14772
1631.56553	2.13744
1629.63696	2.12431
1627.70840	2.10191
1625.77983	2.07520
1623.85127	2.04107
1621.92271	1.99827
1619.99414	1.95885
1618.06558	1.91956
1616.13701	1.86374
1614.20845	1.80515
1612.27988	1.75863
1610.35132	1.71019
1608.42275	1.65818
1606.49419	1.60621
1604.56562	1.55761
1602.63706	1.51093
1600.70850	1.46502
1598.77993	1.42224
1596.85137	1.38172
1594.92280	1.34193
1592.99424	1.30326
1591.06567	1.26770
1589.13711	1.23411
1587.20854	1.20230
1585.27998	1.17235
1583.35142	1.14397
1581.42285	1.11763
1579.49429	1.09460
1577.56572	1.07351
1575.63716	1.04746
1573.70859	1.02346
1571.78003	1.00716
1569.85146	0.98971
1567.92290	0.96930
1565.99434	0.95250
1564.06577	0.93802
1562.13721	0.92573
1560.20864	0.91530
1558.28008	0.89732
1556.35151	0.87967
1554.42295	0.86833
1552.49438	0.85722
1550.56582	0.84632
1548.63726	0.83559
1546.70869	0.82665
1544.78013	0.81932
1542.85156	0.81238
1540.92300	0.80406
1538.99443	0.79146
1537.06587	0.78190
1535.13730	0.77617
1533.20874	0.76958
1531.28018	0.76187
1529.35161	0.75569
1527.42305	0.75009
1525.49448	0.74442
1523.56592	0.73930
1521.63735	0.73405
1519.70879	0.72800
1517.78022	0.72262
1515.85166	0.71696
1513.92310	0.71122
1511.99453	0.70682
1510.06597	0.70356
1508.13740	0.70085
1506.20884	0.69571
1504.28027	0.68942
1502.35171	0.68525
1500.42314	0.68209
1498.49458	0.67932
1496.56602	0.67591
1494.63745	0.67179
1492.70889	0.66850
1490.78032	0.66618
1488.85176	0.66358
1486.92319	0.66013
1484.99463	0.65651
1483.06606	0.65334
1481.13750	0.65055
1479.20894	0.64799
1477.28037	0.64580
1475.35181	0.64384
1473.42324	0.64162
1471.49468	0.63802
1469.56611	0.63401
1467.63755	0.63106
1465.70898	0.62888
1463.78042	0.62659
1461.85186	0.62429
1459.92329	0.62285
1457.99473	0.62186
1456.06616	0.61931
1454.13760	0.61581
1452.20903	0.61322
1450.28047	0.61128
1448.35190	0.60964
1446.42334	0.60789
1444.49478	0.60608
1442.56621	0.60432
1440.63765	0.60279
1438.70908	0.60186
1436.78052	0.60117
1434.85195	0.59978
1432.92339	0.59795
1430.99482	0.59637
1429.06626	0.59477
1427.13770	0.59301
1425.20913	0.59152
1423.28057	0.59023
1421.35200	0.58895
1419.42344	0.58784
1417.49487	0.58649
1415.56631	0.58460
1413.63774	0.58279
1411.70918	0.58122
1409.78062	0.57977
1407.85205	0.57857
1405.92349	0.57764
1403.99492	0.57649
1402.06636	0.57503
1400.13779	0.57384
1398.20923	0.57287
1396.28066	0.57178
1394.35210	0.57033
1392.42354	0.56871
1390.49497	0.56741
1388.56641	0.56643
1386.63784	0.56535
1384.70928	0.56399
1382.78071	0.56268
1380.85215	0.56148
1378.92358	0.56038
1376.99502	0.55955
1375.06646	0.55895
1373.13789	0.55806
1371.20933	0.55689
1369.28076	0.55587
1367.35220	0.55479
1365.42363	0.55371
1363.49507	0.55299
1361.56650	0.55224
1359.63794	0.55108
1357.70937	0.54999
1355.78081	0.54915
1353.85225	0.54834
1351.92368	0.54745
1349.99512	0.54667
1348.06655	0.54602
1346.13799	0.54525
1344.20942	0.54440
1342.28086	0.54375
1340.35229	0.54333
1338.42373	0.54264
1336.49517	0.54155
1334.56660	0.54044
1332.63804	0.53939
1330.70947	0.53844
1328.78091	0.53757
1326.85234	0.53676
1324.92378	0.53602
1322.99521	0.53533
1321.06665	0.53469
1319.13809	0.53404
1317.20952	0.53320
1315.28096	0.53227
1313.35239	0.53143
1311.42383	0.53069
1309.49526	0.53003
1307.56670	0.52948
1305.63813	0.52886
1303.70957	0.52797
1301.78101	0.52705
1299.85244	0.52639
1297.92388	0.52589
1295.99531	0.52525
1294.06675	0.52450
1292.13818	0.52380
1290.20962	0.52325
1288.28105	0.52289
1286.35249	0.52258
1284.42393	0.52209
1282.49536	0.52143
1280.56680	0.52077
1278.63823	0.52032
1276.70967	0.52009
1274.78110	0.51982
1272.85254	0.51948
1270.92397	0.51913
1268.99541	0.51859
1267.06685	0.51795
1265.13828	0.51749
1263.20972	0.51725
1261.28115	0.51699
1259.35259	0.51654
1257.42402	0.51614
1255.49546	0.51598
1253.56689	0.51577
1251.63833	0.51544
1249.70977	0.51521
1247.78120	0.51509
1245.85264	0.51494
1243.92407	0.51458
1241.99551	0.51400
1240.06694	0.51336
1238.13838	0.51278
1236.20981	0.51236
1234.28125	0.51208
1232.35269	0.51173
1230.42412	0.51114
1228.49556	0.51048
1226.56699	0.50992
1224.63843	0.50940
1222.70986	0.50876
1220.78130	0.50811
1218.85273	0.50762
1216.92417	0.50714
1214.99561	0.50656
1213.06704	0.50594
1211.13848	0.50534
1209.20991	0.50481
1207.28135	0.50424
1205.35278	0.50353
1203.42422	0.50291
1201.49565	0.50249
1199.56709	0.50207
1197.63853	0.50157
1195.70996	0.50109
1193.78140	0.50057
1191.85283	0.50001
1189.92427	0.49962
1187.99570	0.49941
1186.06714	0.49924
1184.13857	0.49924
1182.21001	0.49942
1180.28145	0.49950
1178.35288	0.49960
1176.42432	0.50000
1174.49575	0.50048
1172.56719	0.50068
1170.63862	0.50080
1168.71006	0.50120
1166.78149	0.50176
1164.85293	0.50211
1162.92437	0.50214
1160.99580	0.50193
1159.06724	0.50152
1157.13867	0.50091
1155.21011	0.50003
1153.28154	0.49882
1151.35298	0.49738
1149.42441	0.49579
1147.49585	0.49403
1145.56729	0.49204
1143.63872	0.48985
1141.71016	0.48768
1139.78159	0.48556
1137.85303	0.48339
1135.92446	0.48119
1133.99590	0.47903
1132.06733	0.47710
1130.13877	0.47556
1128.21021	0.47421
1126.28164	0.47286
1124.35308	0.47163
1122.42451	0.47062
1120.49595	0.46987
1118.56738	0.46943
1116.63882	0.46917
1114.71025	0.46906
1112.78169	0.46920
1110.85312	0.46956
1108.92456	0.47017
1106.99600	0.47118
1105.06743	0.47249
1103.13887	0.47387
1101.21030	0.47554
1099.28174	0.47771
1097.35317	0.48039
1095.42461	0.48357
1093.49604	0.48713
1091.56748	0.49100
1089.63892	0.49544
1087.71035	0.50070
1085.78179	0.50676
1083.85322	0.51346
1081.92466	0.52010
1079.99609	0.52568
1078.06753	0.52940
1076.13896	0.53067
1074.21040	0.52941
1072.28184	0.52583
1070.35327	0.52029
1068.42471	0.51368
1066.49614	0.50699
1064.56758	0.50075
1062.63901	0.49512
1060.71045	0.49012
1058.78188	0.48566
1056.85332	0.48174
1054.92476	0.47853
1052.99619	0.47582
1051.06763	0.47342
1049.13906	0.47142
1047.21050	0.46961
1045.28193	0.46791
1043.35337	0.46657
1041.42480	0.46556
1039.49624	0.46486
1037.56768	0.46454
1035.63911	0.46441
1033.71055	0.46420
1031.78198	0.46407
1029.85342	0.46432
1027.92485	0.46467
1025.99629	0.46510
1024.06772	0.46598
1022.13916	0.46708
1020.21060	0.46797
1018.28203	0.46890
1016.35347	0.47001
1014.42490	0.47094
1012.49634	0.47174
1010.56777	0.47291
1008.63921	0.47454
1006.71064	0.47651
1004.78208	0.47870
1002.85352	0.48095
1000.92495	0.48340
998.99639	0.48644
997.06782	0.49009
995.13926	0.49392
993.21069	0.49762
991.28213	0.50088
989.35356	0.50350
987.42500	0.50542
985.49644	0.50667
983.56787	0.50738
981.63931	0.50807
979.71074	0.50936
977.78218	0.51140
975.85361	0.51391
973.92505	0.51659
971.99648	0.51952
970.06792	0.52312
968.13936	0.52727
966.21079	0.53143
964.28223	0.53567
962.35366	0.54032
960.42510	0.54543
958.49653	0.55102
956.56797	0.55686
954.63940	0.56285
952.71084	0.56905
950.78228	0.57524
948.85371	0.58152
946.92515	0.58824
944.99658	0.59500
943.06802	0.60102
941.13945	0.60646
939.21089	0.61198
937.28232	0.61766
935.35376	0.62291
933.42520	0.62752
931.49663	0.63229
929.56807	0.63776
927.63950	0.64353
925.71094	0.64931
923.78237	0.65564
921.85381	0.66259
919.92524	0.66952
917.99668	0.67644
916.06812	0.68358
914.13955	0.69078
912.21099	0.69794
910.28242	0.70559
908.35386	0.71401
906.42529	0.72299
904.49673	0.73226
902.56816	0.74148
900.63960	0.75068
898.71104	0.75991
896.78247	0.76877
894.85391	0.77743
892.92534	0.78645
890.99678	0.79587
889.06821	0.80610
887.13965	0.81732
885.21108	0.82872
883.28252	0.84011
881.35396	0.85130
879.42539	0.86252
877.49683	0.87478
875.56826	0.88720
873.63970	0.89817
871.71113	0.90866
869.78257	0.91999
867.85400	0.93135
865.92544	0.94199
863.99687	0.95360
862.06831	0.96706
860.13975	0.97983
858.21118	0.99036
856.28262	0.99957
854.35405	1.00888
852.42549	1.01927
850.49692	1.03112
848.56836	1.04392
846.63979	1.05572
844.71123	1.06569
842.78267	1.07474
840.85410	1.08540
838.92554	1.09843
836.99697	1.10914
835.06841	1.11671
833.13984	1.12747
831.21128	1.14363
829.28271	1.15985
827.35415	1.16804
825.42559	1.17054
823.49702	1.18022
821.56846	1.19651
819.63989	1.21088
817.71133	1.22232
815.78276	1.23222
813.85420	1.24273
811.92563	1.25491
809.99707	1.26633
808.06851	1.28039
806.13994	1.30603
804.21138	1.33157
802.28281	1.34162
800.35425	1.33948
798.42568	1.33177
796.49712	1.32905
794.56855	1.34315
792.63999	1.37052
790.71143	1.38708
788.78286	1.39063
786.85430	1.38045
784.92573	1.35637
782.99717	1.35971
781.06860	1.40640
779.14004	1.42038
777.21147	1.35947
775.28291	1.32428
773.35435	1.35742
771.42578	1.43628
769.49722	1.48901
767.56865	1.42362
765.64009	1.31779
763.71152	1.26311
761.78296	1.28597
759.85439	1.32962
757.92583	1.24715
755.99727	1.13992
754.06870	1.12672
752.14014	1.16136
750.21157	1.13244
748.28301	1.04803
746.35444	1.02030
744.42588	1.09803
742.49731	1.16077
740.56875	1.11370
738.64019	1.16848
736.71162	1.16151
734.78306	0.99725
732.85449	0.95645
730.92593	0.83966
728.99736	0.65415
727.06880	0.56276
725.14023	0.47339
723.21167	0.25862
721.28311	0.07787
719.35454	-0.00360
717.42598	0.00156
715.49741	0.12877
713.56885	0.25184
711.64028	0.27960
709.71172	0.41795
707.78315	0.78615
705.85459	1.09924
703.92603	1.04157
701.99746	0.68228
700.06890	0.43935
698.14033	0.34835
696.21177	0.36764
694.28320	0.43326
692.35464	0.44637
690.42607	0.40854
688.49751	0.38072
686.56895	0.39988
684.64038	0.44843
682.71182	0.43357
680.78325	0.39769
678.85469	0.43323
676.92612	0.45403
674.99756	0.34824
673.06899	0.26994
671.14043	0.31705
669.21187	0.38924
667.28330	0.43425
665.35474	0.48395
663.42617	0.50965
661.49761	0.47262
659.56904	0.41523
657.64048	0.38410
655.71191	0.35538
653.78335	0.28720
651.85479	0.26397
649.92622	0.30616
647.99766	0.35942
646.06909	0.39193
644.14053	0.37558
642.21196	0.32868
640.28340	0.31587
638.35483	0.34630
636.42627	0.38630
634.49771	0.42110
632.56914	0.46105
630.64058	0.52623
628.71201	0.52606
626.78345	0.38770
624.85488	0.31343
622.92632	0.31965
620.99775	0.35759
619.06919	0.42041
617.14062	0.51771
615.21206	0.59353
613.28350	0.46635
611.35493	0.29259
609.42637	0.24448
607.49780	0.30287
605.56924	0.31023
603.64067	0.24967
601.71211	0.23648
599.78354	0.27575
597.85498	0.36030
595.92642	0.40062
593.99785	0.33412
592.06929	0.30039
590.14072	0.31876
588.21216	0.31296
586.28359	0.27484
584.35503	0.24602
582.42646	0.26505
580.49790	0.33366
578.56934	0.40587
576.64077	0.44395
574.71221	0.45480
572.78364	0.41385
570.85508	0.33586
568.92651	0.30139
566.99795	0.35912
565.06938	0.43543
563.14082	0.42055
561.21226	0.40446
559.28369	0.39458
557.35513	0.37648
555.42656	0.40072
553.49800	0.42851
551.56943	0.41930
549.64087	0.39929
547.71230	0.32173
545.78374	0.24779
543.85518	0.24034
541.92661	0.28799
539.99805	0.40094
538.06948	0.55341
536.14092	0.57511
534.21235	0.51478
532.28379	0.44335
530.35522	0.38344
528.42666	0.35586
526.49810	0.36696
524.56953	0.38897
522.64097	0.38827
520.71240	0.34712
518.78384	0.27910
516.85527	0.23213
514.92671	0.23227
512.99814	0.28050
511.06958	0.31990
509.14102	0.32391
507.21245	0.31190
505.28389	0.26782
503.35532	0.22338
501.42676	0.24032
499.49819	0.35558
