3997.91411	0.06703
3995.98555	0.06755
3994.05698	0.06823
3992.12842	0.06904
3990.19985	0.06976
3988.27129	0.07013
3986.34272	0.07016
3984.41416	0.07027
3982.48560	0.07047
3980.55703	0.07027
3978.62847	0.07008
3976.69990	0.07054
3974.77134	0.07118
3972.84277	0.07139
3970.91421	0.07141
3968.98564	0.07159
3967.05708	0.07177
3965.12852	0.07188
3963.19995	0.07195
3961.27139	0.07179
3959.34282	0.07151
3957.41426	0.07165
3955.48569	0.07219
3953.55713	0.07256
3951.62856	0.07273
3949.70000	0.07292
3947.77144	0.07287
3945.84287	0.07265
3943.91431	0.07285
3941.98574	0.07313
3940.05718	0.07287
3938.12861	0.07255
3936.20005	0.07257
3934.27148	0.07292
3932.34292	0.07350
3930.41436	0.07362
3928.48579	0.07303
3926.55723	0.07261
3924.62866	0.07266
3922.70010	0.07278
3920.77153	0.07292
3918.84297	0.07314
3916.91440	0.07322
3914.98584	0.07271
3913.05728	0.07184
3911.12871	0.07146
3909.20015	0.07167
3907.27158	0.07218
3905.34302	0.07277
3903.41445	0.07324
3901.48589	0.07324
3899.55732	0.07310
3897.62876	0.07312
3895.70020	0.07284
3893.77163	0.07261
3891.84307	0.07314
3889.91450	0.07371
3887.98594	0.07352
3886.05737	0.07382
3884.12881	0.07449
3882.20024	0.07424
3880.27168	0.07373
3878.34312	0.07343
3876.41455	0.07330
3874.48599	0.07380
3872.55742	0.07481
3870.62886	0.07560
3868.70029	0.07604
3866.77173	0.07605
3864.84316	0.07616
3862.91460	0.07647
3860.98604	0.07619
3859.05747	0.07596
3857.12891	0.07654
3855.20034	0.07787
3853.27178	0.08007
3851.34321	0.08112
3849.41465	0.07964
3847.48608	0.07850
3845.55752	0.07857
3843.62896	0.07954
3841.70039	0.08090
3839.77183	0.08215
3837.84326	0.08336
3835.91470	0.08411
3833.98613	0.08405
3832.05757	0.08386
3830.12900	0.08404
3828.20044	0.08468
3826.27187	0.08572
3824.34331	0.08655
3822.41475	0.08728
3820.48618	0.08905
3818.55762	0.09074
3816.62905	0.09118
3814.70049	0.09127
3812.77192	0.09119
3810.84336	0.09133
3808.91479	0.09204
3806.98623	0.09343
3805.05767	0.09515
3803.12910	0.09671
3801.20054	0.09846
3799.27197	0.09972
3797.34341	0.10024
3795.41484	0.10113
3793.48628	0.10198
3791.55771	0.10277
3789.62915	0.10394
3787.70059	0.10533
3785.77202	0.10715
3783.84346	0.10932
3781.91489	0.11107
3779.98633	0.11265
3778.05776	0.11441
3776.12920	0.11553
3774.20063	0.11641
3772.27207	0.11811
3770.34351	0.12045
3768.41494	0.12263
3766.48638	0.12449
3764.55781	0.12655
3762.62925	0.12835
3760.70068	0.13002
3758.77212	0.13250
3756.84355	0.13544
3754.91499	0.13785
3752.98643	0.14019
3751.05786	0.14359
3749.12930	0.14811
3747.20073	0.15117
3745.27217	0.15337
3743.34360	0.15741
3741.41504	0.16175
3739.48647	0.16497
3737.55791	0.16892
3735.62935	0.17451
3733.70078	0.18080
3731.77222	0.18607
3729.84365	0.19044
3727.91509	0.19477
3725.98652	0.20037
3724.05796	0.20723
3722.12939	0.21426
3720.20083	0.22128
3718.27227	0.22789
3716.34370	0.23419
3714.41514	0.24096
3712.48657	0.25014
3710.55801	0.26409
3708.62944	0.27926
3706.70088	0.29111
3704.77231	0.30208
3702.84375	0.31517
3700.91519	0.33248
3698.98662	0.35173
3697.05806	0.36979
3695.12949	0.38858
3693.20093	0.40874
3691.27236	0.43089
3689.34380	0.45919
3687.41523	0.49383
3685.48667	0.52451
3683.55811	0.55074
3681.62954	0.57880
3679.70098	0.61090
3677.77241	0.64473
3675.84385	0.68394
3673.91528	0.73702
3671.98672	0.78164
3670.05815	0.82122
3668.12959	0.87474
3666.20103	0.92360
3664.27246	0.96453
3662.34390	1.00846
3660.41533	1.05604
3658.48677	1.10326
3656.55820	1.15382
3654.62964	1.21049
3652.70107	1.25823
3650.77251	1.29934
3648.84395	1.35513
3646.91538	1.42350
3644.98682	1.47448
3643.05825	1.51426
3641.12969	1.55509
3639.20112	1.60021
3637.27256	1.64564
3635.34399	1.68962
3633.41543	1.73354
3631.48687	1.77480
3629.55830	1.81632
3627.62974	1.87084
3625.70117	1.92251
3623.77261	1.95637
3621.84404	1.98813
3619.91548	2.02619
3617.98691	2.07320
3616.05835	2.11775
3614.12979	2.15482
3612.20122	2.19401
3610.27266	2.23306
3608.34409	2.27261
3606.41553	2.31596
3604.48696	2.35609
3602.55840	2.39101
3600.62983	2.42841
3598.70127	2.46875
3596.77271	2.50892
3594.84414	2.55139
3592.91558	2.59474
3590.98701	2.63390
3589.05845	2.66945
3587.12988	2.71173
3585.20132	2.75897
3583.27275	2.79970
3581.34419	2.83830
3579.41562	2.88012
3577.48706	2.92351
3575.55850	2.96563
3573.62993	3.00782
3571.70137	3.04941
3569.77280	3.08942
3567.84424	3.13158
3565.91567	3.18283
3563.98711	3.23291
3562.05854	3.27525
3560.12998	3.31825
3558.20142	3.36278
3556.27285	3.40678
3554.34429	3.45049
3552.41572	3.49714
3550.48716	3.54446
3548.55859	3.58924
3546.63003	3.63419
3544.70146	3.68212
3542.77290	3.72997
3540.84434	3.77556
3538.91577	3.82058
3536.98721	3.86462
3535.05864	3.91151
3533.13008	3.96194
3531.20151	4.01101
3529.27295	4.05737
3527.34438	4.10534
3525.41582	4.15380
3523.48726	4.19904
3521.55869	4.24562
3519.63013	4.29440
3517.70156	4.34442
3515.77300	4.39547
3513.84443	4.44565
3511.91587	4.49359
3509.98730	4.54026
3508.05874	4.58713
3506.13018	4.63352
3504.20161	4.67811
3502.27305	4.72241
3500.34448	4.77062
3498.41592	4.81966
3496.48735	4.86665
3494.55879	4.91747
3492.63022	4.97119
3490.70166	5.01908
3488.77310	5.06143
3486.84453	5.10406
3484.91597	5.15019
3482.98740	5.19768
3481.05884	5.24112
3479.13027	5.28195
3477.20171	5.32815
3475.27314	5.38150
3473.34458	5.43723
3471.41602	5.49060
3469.48745	5.53962
3467.55889	5.58386
3465.63032	5.62942
3463.70176	5.68672
3461.77319	5.74611
3459.84463	5.79203
3457.91606	5.83249
3455.98750	5.88491
3454.05894	5.94123
3452.13037	5.98401
3450.20181	6.02083
3448.27324	6.06667
3446.34468	6.12533
3444.41611	6.18406
3442.48755	6.23892
3440.55898	6.28884
3438.63042	6.33387
3436.70186	6.38272
3434.77329	6.43436
3432.84473	6.48227
3430.91616	6.52644
3428.98760	6.57355
3427.05903	6.61476
3425.13047	6.66048
3423.20190	6.71748
3421.27334	6.76786
3419.34478	6.81807
3417.41621	6.87636
3415.48765	6.93054
3413.55908	6.98408
3411.63052	7.03898
3409.70195	7.06089
3407.77339	7.05526
3405.84482	7.07821
3403.91626	7.16764
3401.98770	7.27262
3400.05913	7.31676
3398.13057	7.31095
3396.20200	7.30659
3394.27344	7.32730
3392.34487	7.35501
3390.41631	7.39081
3388.48774	7.41549
3386.55918	7.43016
3384.63062	7.48490
3382.70205	7.58025
3380.77349	7.64994
3378.84492	7.67061
3376.91636	7.67469
3374.98779	7.64500
3373.05923	7.60039
3371.13066	7.61223
3369.20210	7.71978
3367.27354	7.82821
3365.34497	7.83219
3363.41641	7.79130
3361.48784	7.78494
3359.55928	7.82345
3357.63071	7.87610
3355.70215	7.93148
3353.77358	7.94523
3351.84502	7.93825
3349.91646	7.98100
3347.98789	8.03669
3346.05933	8.02215
3344.13076	7.96295
3342.20220	7.93429
3340.27363	7.94311
3338.34507	7.98189
3336.41650	8.01639
3334.48794	8.06196
3332.55937	8.12198
3330.63081	8.15661
3328.70225	8.20127
3326.77368	8.24295
3324.84512	8.17052
3322.91655	8.01186
3320.98799	7.92530
3319.05942	7.92154
3317.13086	7.91851
3315.20229	7.88683
3313.27373	7.85207
3311.34517	7.83820
3309.41660	7.87579
3307.48804	7.92687
3305.55947	7.91975
3303.63091	7.94475
3301.70234	8.04497
3299.77378	8.09918
3297.84521	8.06632
3295.91665	8.08222
3293.98809	8.18110
3292.05952	8.22995
3290.13096	8.18944
3288.20239	8.14845
3286.27383	8.13310
3284.34526	8.14086
3282.41670	8.18208
3280.48813	8.17594
3278.55957	8.08821
3276.63101	8.00497
3274.70244	8.02887
3272.77388	8.15890
3270.84531	8.25047
3268.91675	8.24206
3266.98818	8.19251
3265.05962	8.16751
3263.13105	8.18923
3261.20249	8.19154
3259.27393	8.16896
3257.34536	8.19063
3255.41680	8.20346
3253.48823	8.17187
3251.55967	8.15562
3249.63110	8.16499
3247.70254	8.17946
3245.77397	8.18163
3243.84541	8.17680
3241.91685	8.17638
3239.98828	8.19994
3238.05972	8.21366
3236.13115	8.18521
3234.20259	8.11569
3232.27402	8.03885
3230.34546	8.04965
3228.41689	8.11426
3226.48833	8.15863
3224.55977	8.20835
3222.63120	8.22521
3220.70264	8.15202
3218.77407	8.03860
3216.84551	7.95826
3214.91694	7.92937
3212.98838	7.92431
3211.05981	7.90265
3209.13125	7.85145
3207.20269	7.80384
3205.27412	7.77061
3203.34556	7.71733
3201.41699	7.64146
3199.48843	7.57480
3197.55986	7.54344
3195.63130	7.52362
3193.70273	7.48625
3191.77417	7.46540
3189.84561	7.46111
3187.91704	7.41414
3185.98848	7.32539
3184.05991	7.25045
3182.13135	7.20047
3180.20278	7.16584
3178.27422	7.14387
3176.34565	7.10989
3174.41709	7.04829
3172.48853	6.96816
3170.55996	6.88544
3168.63140	6.83511
3166.70283	6.81121
3164.77427	6.74538
3162.84570	6.63861
3160.91714	6.56409
3158.98857	6.53106
3157.06001	6.49162
3155.13145	6.43067
3153.20288	6.35145
3151.27432	6.26103
3149.34575	6.19157
3147.41719	6.15196
3145.48862	6.10570
3143.56006	6.02710
3141.63149	5.94168
3139.70293	5.87591
3137.77437	5.81108
3135.84580	5.72937
3133.91724	5.64890
3131.98867	5.57795
3130.06011	5.50835
3128.13154	5.44133
3126.20298	5.37611
3124.27441	5.30663
3122.34585	5.23213
3120.41729	5.15716
3118.48872	5.08749
3116.56016	5.02710
3114.63159	4.96773
3112.70303	4.90111
3110.77446	4.83232
3108.84590	4.76176
3106.91733	4.68851
3104.98877	4.61976
3103.06021	4.55507
3101.13164	4.48622
3099.20308	4.41734
3097.27451	4.35546
3095.34595	4.29630
3093.41738	4.23631
3091.48882	4.17404
3089.56025	4.10736
3087.63169	4.04117
3085.70312	3.98193
3083.77456	3.92571
3081.84600	3.86668
3079.91743	3.80627
3077.98887	3.74739
3076.06030	3.69014
3074.13174	3.63375
3072.20317	3.57697
3070.27461	3.51837
3068.34604	3.45961
3066.41748	3.40272
3064.48892	3.34806
3062.56035	3.29596
3060.63179	3.24506
3058.70322	3.19341
3056.77466	3.14154
3054.84609	3.08979
3052.91753	3.03714
3050.98896	2.98545
3049.06040	2.93638
3047.13184	2.88802
3045.20327	2.83971
3043.27471	2.79272
3041.34614	2.74664
3039.41758	2.70043
3037.48901	2.65390
3035.56045	2.60752
3033.63188	2.56279
3031.70332	2.51995
3029.77476	2.47775
3027.84619	2.43561
3025.91763	2.39337
3023.98906	2.35157
3022.06050	2.31075
3020.13193	2.27042
3018.20337	2.23059
3016.27480	2.19181
3014.34624	2.15402
3012.41768	2.11653
3010.48911	2.07910
3008.56055	2.04236
3006.63198	2.00684
3004.70342	1.97231
3002.77485	1.93847
3000.84629	1.90498
2998.91772	1.87181
2996.98916	1.83954
2995.06060	1.80812
2993.13203	1.77707
2991.20347	1.74664
2989.27490	1.71725
2987.34634	1.68867
2985.41777	1.66027
2983.48921	1.63189
2981.56064	1.60399
2979.63208	1.57724
2977.70352	1.55148
2975.77495	1.52605
2973.84639	1.50063
2971.91782	1.47530
2969.98926	1.45062
2968.06069	1.42690
2966.13213	1.40364
2964.20356	1.38049
2962.27500	1.35733
2960.34644	1.33408
2958.41787	1.31075
2956.48931	1.28731
2954.56074	1.26385
2952.63218	1.24077
2950.70361	1.21832
2948.77505	1.19630
2946.84648	1.17492
2944.91792	1.15436
2942.98936	1.13367
2941.06079	1.11292
2939.13223	1.09318
2937.20366	1.07433
2935.27510	1.05548
2933.34653	1.03631
2931.41797	1.01714
2929.48940	0.99839
2927.56084	0.98007
2925.63228	0.96166
2923.70371	0.94334
2921.77515	0.92597
2919.84658	0.90959
2917.91802	0.89355
2915.98945	0.87753
2914.06089	0.86177
2912.13232	0.84624
2910.20376	0.83098
2908.27520	0.81616
2906.34663	0.80166
2904.41807	0.78751
2902.48950	0.77393
2900.56094	0.76079
2898.63237	0.74782
2896.70381	0.73505
2894.77524	0.72276
2892.84668	0.71101
2890.91812	0.69940
2888.98955	0.68767
2887.06099	0.67633
2885.13242	0.66588
2883.20386	0.65589
2881.27529	0.64593
2879.34673	0.63618
2877.41816	0.62678
2875.48960	0.61749
2873.56104	0.60771
2871.63247	0.59717
2869.70391	0.58638
2867.77534	0.57566
2865.84678	0.56477
2863.91821	0.55390
2861.98965	0.54345
2860.06108	0.53336
2858.13252	0.52375
2856.20396	0.51461
2854.27539	0.50570
2852.34683	0.49698
2850.41826	0.48860
2848.48970	0.48071
2846.56113	0.47323
2844.63257	0.46600
2842.70400	0.45907
2840.77544	0.45271
2838.84687	0.44676
2836.91831	0.44080
2834.98975	0.43472
2833.06118	0.42878
2831.13262	0.42306
2829.20405	0.41726
2827.27549	0.41131
2825.34692	0.40543
2823.41836	0.39960
2821.48979	0.39368
2819.56123	0.38781
2817.63267	0.38226
2815.70410	0.37705
2813.77554	0.37192
2811.84697	0.36659
2809.91841	0.36116
2807.98984	0.35593
2806.06128	0.35090
2804.13271	0.34592
2802.20415	0.34103
2800.27559	0.33619
2798.34702	0.33132
2796.41846	0.32663
2794.48989	0.32230
2792.56133	0.31807
2790.63276	0.31371
2788.70420	0.30925
2786.77563	0.30487
2784.84707	0.30065
2782.91851	0.29653
2780.98994	0.29248
2779.06138	0.28860
2777.13281	0.28492
2775.20425	0.28134
2773.27568	0.27767
2771.34712	0.27392
2769.41855	0.27030
2767.48999	0.26695
2765.56143	0.26365
2763.63286	0.26023
2761.70430	0.25686
2759.77573	0.25370
2757.84717	0.25064
2755.91860	0.24746
2753.99004	0.24428
2752.06147	0.24139
2750.13291	0.23871
2748.20435	0.23594
2746.27578	0.23313
2744.34722	0.23045
2742.41865	0.22782
2740.49009	0.22511
2738.56152	0.22240
2736.63296	0.21987
2734.70439	0.21761
2732.77583	0.21547
2730.84727	0.21330
2728.91870	0.21101
2726.99014	0.20879
2725.06157	0.20679
2723.13301	0.20472
2721.20444	0.20251
2719.27588	0.20054
2717.34731	0.19880
2715.41875	0.19691
2713.49019	0.19500
2711.56162	0.19323
2709.63306	0.19150
2707.70449	0.18973
2705.77593	0.18794
2703.84736	0.18632
2701.91880	0.18489
2699.99023	0.18349
2698.06167	0.18213
2696.13311	0.18076
2694.20454	0.17938
2692.27598	0.17810
2690.34741	0.17690
2688.41885	0.17565
2686.49028	0.17432
2684.56172	0.17305
2682.63315	0.17187
2680.70459	0.17064
2678.77603	0.16937
2676.84746	0.16822
2674.91890	0.16730
2672.99033	0.16644
2671.06177	0.16550
2669.13320	0.16443
2667.20464	0.16335
2665.27607	0.16240
2663.34751	0.16160
2661.41895	0.16082
2659.49038	0.15999
2657.56182	0.15922
2655.63325	0.15852
2653.70469	0.15778
2651.77612	0.15707
2649.84756	0.15643
2647.91899	0.15589
2645.99043	0.15533
2644.06187	0.15468
2642.13330	0.15414
2640.20474	0.15380
2638.27617	0.15341
2636.34761	0.15284
2634.41904	0.15228
2632.49048	0.15185
2630.56191	0.15153
2628.63335	0.15122
2626.70479	0.15080
2624.77622	0.15032
2622.84766	0.14986
2620.91909	0.14953
2618.99053	0.14944
2617.06196	0.14943
2615.13340	0.14925
2613.20483	0.14896
2611.27627	0.14875
2609.34771	0.14863
2607.41914	0.14856
2605.49058	0.14850
2603.56201	0.14845
2601.63345	0.14841
2599.70488	0.14830
2597.77632	0.14817
2595.84775	0.14817
2593.91919	0.14835
2591.99062	0.14859
2590.06206	0.14871
2588.13350	0.14875
2586.20493	0.14886
2584.27637	0.14907
2582.34780	0.14934
2580.41924	0.14957
2578.49067	0.14971
2576.56211	0.14996
2574.63354	0.15034
2572.70498	0.15059
2570.77642	0.15072
2568.84785	0.15089
2566.91929	0.15112
2564.99072	0.15152
2563.06216	0.15209
2561.13359	0.15262
2559.20503	0.15303
2557.27646	0.15342
2555.34790	0.15383
2553.41934	0.15432
2551.49077	0.15494
2549.56221	0.15554
2547.63364	0.15603
2545.70508	0.15656
2543.77651	0.15716
2541.84795	0.15768
2539.91938	0.15815
2537.99082	0.15866
2536.06226	0.15915
2534.13369	0.15965
2532.20513	0.16028
2530.27656	0.16103
2528.34800	0.16181
2526.41943	0.16248
2524.49087	0.16308
2522.56230	0.16376
2520.63374	0.16456
2518.70518	0.16536
2516.77661	0.16614
2514.84805	0.16691
2512.91948	0.16770
2510.99092	0.16850
2509.06235	0.16930
2507.13379	0.17009
2505.20522	0.17093
2503.27666	0.17178
2501.34810	0.17247
2499.41953	0.17301
2497.49097	0.17371
2495.56240	0.17466
2493.63384	0.17561
2491.70527	0.17648
2489.77671	0.17732
2487.84814	0.17806
2485.91958	0.17875
2483.99102	0.17953
2482.06245	0.18037
2480.13389	0.18122
2478.20532	0.18210
2476.27676	0.18297
2474.34819	0.18384
2472.41963	0.18474
2470.49106	0.18559
2468.56250	0.18639
2466.63394	0.18716
2464.70537	0.18800
2462.77681	0.18903
2460.84824	0.19014
2458.91968	0.19108
2456.99111	0.19199
2455.06255	0.19297
2453.13398	0.19391
2451.20542	0.19476
2449.27686	0.19562
2447.34829	0.19662
2445.41973	0.19772
2443.49116	0.19878
2441.56260	0.19979
2439.63403	0.20077
2437.70547	0.20171
2435.77690	0.20265
2433.84834	0.20369
2431.91978	0.20473
2429.99121	0.20569
2428.06265	0.20659
2426.13408	0.20757
2424.20552	0.20868
2422.27695	0.20979
2420.34839	0.21082
2418.41982	0.21191
2416.49126	0.21305
2414.56270	0.21416
2412.63413	0.21540
2410.70557	0.21663
2408.77700	0.21766
2406.84844	0.21862
2404.91987	0.21975
2402.99131	0.22107
2401.06274	0.22241
2399.13418	0.22354
2397.20562	0.22457
2395.27705	0.22571
2393.34849	0.22694
2391.41992	0.22824
2389.49136	0.22963
2387.56279	0.23125
2385.63423	0.23333
2383.70566	0.23612
2381.77710	0.23974
2379.84854	0.24403
2377.91997	0.24874
2375.99141	0.25390
2374.06284	0.25986
2372.13428	0.26666
2370.20571	0.27388
2368.27715	0.28109
2366.34858	0.28818
2364.42002	0.29473
2362.49146	0.30007
2360.56289	0.30335
2358.63433	0.30447
2356.70576	0.30422
2354.77720	0.30143
2352.84863	0.29562
2350.92007	0.28942
2348.99150	0.28591
2347.06294	0.28655
2345.13437	0.29156
2343.20581	0.29833
2341.27725	0.30280
2339.34868	0.30483
2337.42012	0.30569
2335.49155	0.30579
2333.56299	0.30559
2331.63442	0.30626
2329.70586	0.30741
2327.77729	0.30765
2325.84873	0.30725
2323.92017	0.30707
2321.99160	0.30701
2320.06304	0.30631
2318.13447	0.30499
2316.20591	0.30395
2314.27734	0.30375
2312.34878	0.30418
2310.42021	0.30467
2308.49165	0.30481
2306.56309	0.30485
2304.63452	0.30514
2302.70596	0.30579
2300.77739	0.30665
2298.84883	0.30755
2296.92026	0.30862
2294.99170	0.30991
2293.06313	0.31112
2291.13457	0.31227
2289.20601	0.31353
2287.27744	0.31481
2285.34888	0.31605
2283.42031	0.31757
2281.49175	0.31947
2279.56318	0.32154
2277.63462	0.32369
2275.70605	0.32589
2273.77749	0.32798
2271.84893	0.32994
2269.92036	0.33184
2267.99180	0.33379
2266.06323	0.33580
2264.13467	0.33780
2262.20610	0.33978
2260.27754	0.34178
2258.34897	0.34379
2256.42041	0.34578
2254.49185	0.34775
2252.56328	0.34974
2250.63472	0.35182
2248.70615	0.35392
2246.77759	0.35596
2244.84902	0.35805
2242.92046	0.36020
2240.99189	0.36232
2239.06333	0.36430
2237.13477	0.36632
2235.20620	0.36850
2233.27764	0.37073
2231.34907	0.37296
2229.42051	0.37519
2227.49194	0.37738
2225.56338	0.37952
2223.63481	0.38163
2221.70625	0.38373
2219.77769	0.38588
2217.84912	0.38810
2215.92056	0.39037
2213.99199	0.39258
2212.06343	0.39459
2210.13486	0.39661
2208.20630	0.39883
2206.27773	0.40106
2204.34917	0.40311
2202.42061	0.40500
2200.49204	0.40691
2198.56348	0.40895
2196.63491	0.41097
2194.70635	0.41291
2192.77778	0.41485
2190.84922	0.41671
2188.92065	0.41854
2186.99209	0.42035
2185.06353	0.42210
2183.13496	0.42384
2181.20640	0.42561
2179.27783	0.42731
2177.34927	0.42886
2175.42070	0.43029
2173.49214	0.43172
2171.56357	0.43315
2169.63501	0.43452
2167.70645	0.43594
2165.77788	0.43731
2163.84932	0.43842
2161.92075	0.43946
2159.99219	0.44063
2158.06362	0.44177
2156.13506	0.44286
2154.20649	0.44391
2152.27793	0.44479
2150.34937	0.44550
2148.42080	0.44619
2146.49224	0.44696
2144.56367	0.44768
2142.63511	0.44811
2140.70654	0.44838
2138.77798	0.44874
2136.84941	0.44901
2134.92085	0.44908
2132.99229	0.44907
2131.06372	0.44910
2129.13516	0.44913
2127.20659	0.44905
2125.27803	0.44893
2123.34946	0.44876
2121.42090	0.44842
2119.49233	0.44792
2117.56377	0.44731
2115.63521	0.44663
2113.70664	0.44594
2111.77808	0.44518
2109.84951	0.44429
2107.92095	0.44336
2105.99238	0.44234
2104.06382	0.44124
2102.13525	0.44015
2100.20669	0.43907
2098.27812	0.43783
2096.34956	0.43642
2094.42100	0.43494
2092.49243	0.43349
2090.56387	0.43204
2088.63530	0.43050
2086.70674	0.42884
2084.77817	0.42705
2082.84961	0.42512
2080.92104	0.42317
2078.99248	0.42134
2077.06392	0.41948
2075.13535	0.41739
2073.20679	0.41521
2071.27822	0.41311
2069.34966	0.41113
2067.42109	0.40908
2065.49253	0.40687
2063.56396	0.40451
2061.63540	0.40209
2059.70684	0.39970
2057.77827	0.39734
2055.84971	0.39495
2053.92114	0.39260
2051.99258	0.39023
2050.06401	0.38764
2048.13545	0.38495
2046.20688	0.38231
2044.27832	0.37974
2042.34976	0.37723
2040.42119	0.37471
2038.49263	0.37213
2036.56406	0.36945
2034.63550	0.36670
2032.70693	0.36396
2030.77837	0.36129
2028.84980	0.35858
2026.92124	0.35580
2024.99268	0.35311
2023.06411	0.35052
2021.13555	0.34787
2019.20698	0.34521
2017.27842	0.34256
2015.34985	0.33975
2013.42129	0.33687
2011.49272	0.33417
2009.56416	0.33165
2007.63560	0.32904
2005.70703	0.32630
2003.77847	0.32359
2001.84990	0.32096
1999.92134	0.31839
1997.99277	0.31588
1996.06421	0.31341
1994.13564	0.31100
1992.20708	0.30870
1990.27852	0.30632
1988.34995	0.30375
1986.42139	0.30110
1984.49282	0.29863
1982.56426	0.29628
1980.63569	0.29390
1978.70713	0.29163
1976.77856	0.28952
1974.85000	0.28742
1972.92144	0.28517
1970.99287	0.28296
1969.06431	0.28102
1967.13574	0.27916
1965.20718	0.27707
1963.27861	0.27494
1961.35005	0.27293
1959.42148	0.27094
1957.49292	0.26906
1955.56436	0.26737
1953.63579	0.26568
1951.70723	0.26394
1949.77866	0.26227
1947.85010	0.26069
1945.92153	0.25928
1943.99297	0.25803
1942.06440	0.25662
1940.13584	0.25490
1938.20728	0.25320
1936.27871	0.25170
1934.35015	0.25039
1932.42158	0.24919
1930.49302	0.24799
1928.56445	0.24684
1926.63589	0.24583
1924.70732	0.24499
1922.77876	0.24418
1920.85020	0.24327
1918.92163	0.24236
1916.99307	0.24132
1915.06450	0.24008
1913.13594	0.23894
1911.20737	0.23817
1909.27881	0.23757
1907.35024	0.23686
1905.42168	0.23613
1903.49312	0.23559
1901.56455	0.23504
1899.63599	0.23440
1897.70742	0.23390
1895.77886	0.23364
1893.85029	0.23336
1891.92173	0.23284
1889.99316	0.23240
1888.06460	0.23216
1886.13604	0.23195
1884.20747	0.23169
1882.27891	0.23145
1880.35034	0.23136
1878.42178	0.23135
1876.49321	0.23133
1874.56465	0.23124
1872.63608	0.23130
1870.70752	0.23162
1868.77896	0.23213
1866.85039	0.23231
1864.92183	0.23205
1862.99326	0.23192
1861.06470	0.23213
1859.13613	0.23258
1857.20757	0.23297
1855.27900	0.23338
1853.35044	0.23379
1851.42187	0.23423
1849.49331	0.23478
1847.56475	0.23552
1845.63618	0.23647
1843.70762	0.23752
1841.77905	0.23821
1839.85049	0.23856
1837.92192	0.23923
1835.99336	0.24013
1834.06479	0.24108
1832.13623	0.24209
1830.20767	0.24350
1828.27910	0.24496
1826.35054	0.24602
1824.42197	0.24726
1822.49341	0.24847
1820.56484	0.24959
1818.63628	0.25087
1816.70771	0.25243
1814.77915	0.25404
1812.85059	0.25584
1810.92202	0.25793
1808.99346	0.25994
1807.06489	0.26176
1805.13633	0.26352
1803.20776	0.26564
1801.27920	0.26814
1799.35063	0.27090
1797.42207	0.27345
1795.49351	0.27592
1793.56494	0.27869
1791.63638	0.28221
1789.70781	0.28559
1787.77925	0.28814
1785.85068	0.29117
1783.92212	0.29478
1781.99355	0.29868
1780.06499	0.30280
1778.13643	0.30706
1776.20786	0.31109
1774.27930	0.31537
1772.35073	0.32109
1770.42217	0.32723
1768.49360	0.33234
1766.56504	0.33733
1764.63647	0.34257
1762.70791	0.34834
1760.77935	0.35568
1758.85078	0.36266
1756.92222	0.36963
1754.99365	0.37713
1753.06509	0.38401
1751.13652	0.39247
1749.20796	0.40312
1747.27939	0.41335
1745.35083	0.42231
1743.42227	0.43183
1741.49370	0.44220
1739.56514	0.45443
1737.63657	0.46679
1735.70801	0.47748
1733.77944	0.49358
1731.85088	0.51314
1729.92231	0.52849
1727.99375	0.54381
1726.06519	0.56028
1724.13662	0.57840
1722.20806	0.59818
1720.27949	0.61650
1718.35093	0.63788
1716.42236	0.66965
1714.49380	0.70008
1712.56523	0.72466
1710.63667	0.74835
1708.70811	0.77371
1706.77954	0.80259
1704.85098	0.83729
1702.92241	0.86844
1700.99385	0.89943
1699.06528	0.94563
1697.13672	0.98833
1695.20815	1.03268
1693.27959	1.07595
1691.35103	1.11076
1689.42246	1.15124
1687.49390	1.19422
1685.56533	1.23548
1683.63677	1.29951
1681.70820	1.36672
1679.77964	1.40943
1677.85107	1.44981
1675.92251	1.49642
1673.99395	1.55460
1672.06538	1.60700
1670.13682	1.65864
1668.20825	1.72584
1666.27969	1.78117
1664.35112	1.82890
1662.42256	1.88933
1660.49399	1.95797
1658.56543	2.01165
1656.63687	2.05491
1654.70830	2.09503
1652.77974	2.15555
1650.85117	2.20912
1648.92261	2.22725
1646.99404	2.25198
1645.06548	2.28004
1643.13691	2.29935
1641.20835	2.31098
1639.27979	2.32070
1637.35122	2.32523
1635.42266	2.32366
1633.49409	2.31546
1631.56553	2.30043
1629.63696	2.28322
1627.70840	2.25635
1625.77983	2.22330
1623.85127	2.17972
1621.92271	2.12737
1619.99414	2.08160
1618.06558	2.03671
1616.13701	1.97207
1614.20845	1.90563
1612.27988	1.85503
1610.35132	1.80235
1608.42275	1.74498
1606.49419	1.68859
1604.56562	1.63711
1602.63706	1.58759
1600.70850	1.53925
1598.77993	1.49466
1596.85137	1.45278
1594.92280	1.41208
1592.99424	1.37255
1591.06567	1.33652
1589.13711	1.30327
1587.20854	1.27253
1585.27998	1.24415
1583.35142	1.21760
1581.42285	1.19330
1579.49429	1.17260
1577.56572	1.15429
1575.63716	1.13267
1573.70859	1.11402
1571.78003	1.10223
1569.85146	1.09033
1567.92290	1.07709
1565.99434	1.06732
1564.06577	1.06034
1562.13721	1.05526
1560.20864	1.05295
1558.28008	1.05333
1556.35151	1.05346
1554.42295	1.05255
1552.49438	1.05185
1550.56582	1.05024
1548.63726	1.04653
1546.70869	1.04067
1544.78013	1.03226
1542.85156	1.02103
1540.92300	1.00481
1538.99443	0.97934
1537.06587	0.95980
1535.13730	0.94622
1533.20874	0.92843
1531.28018	0.90923
1529.35161	0.89511
1527.42305	0.88191
1525.49448	0.86820
1523.56592	0.85634
1521.63735	0.84520
1519.70879	0.83433
1517.78022	0.82514
1515.85166	0.81446
1513.92310	0.80320
1511.99453	0.79328
1510.06597	0.78432
1508.13740	0.77577
1506.20884	0.76236
1504.28027	0.75032
1502.35171	0.74350
1500.42314	0.73763
1498.49458	0.73148
1496.56602	0.72428
1494.63745	0.71702
1492.70889	0.71150
1490.78032	0.70677
1488.85176	0.70117
1486.92319	0.69579
1484.99463	0.69167
1483.06606	0.68846
1481.13750	0.68578
1479.20894	0.68371
1477.28037	0.68256
1475.35181	0.68221
1473.42324	0.68218
1471.49468	0.68117
1469.56611	0.67902
1467.63755	0.67672
1465.70898	0.67476
1463.78042	0.67338
1461.85186	0.67246
1459.92329	0.67195
1457.99473	0.67203
1456.06616	0.67157
1454.13760	0.66925
1452.20903	0.66656
1450.28047	0.66390
1448.35190	0.66122
1446.42334	0.65848
1444.49478	0.65598
1442.56621	0.65362
1440.63765	0.65117
1438.70908	0.64870
1436.78052	0.64548
1434.85195	0.64162
1432.92339	0.63878
1430.99482	0.63708
1429.06626	0.63612
1427.13770	0.63567
1425.20913	0.63562
1423.28057	0.63587
1421.35200	0.63608
1419.42344	0.63618
1417.49487	0.63586
1415.56631	0.63482
1413.63774	0.63395
1411.70918	0.63390
1409.78062	0.63459
1407.85205	0.63560
1405.92349	0.63671
1403.99492	0.63764
1402.06636	0.63794
1400.13779	0.63756
1398.20923	0.63629
1396.28066	0.63395
1394.35210	0.63059
1392.42354	0.62673
1390.49497	0.62319
1388.56641	0.61971
1386.63784	0.61559
1384.70928	0.61105
1382.78071	0.60667
1380.85215	0.60255
1378.92358	0.59891
1376.99502	0.59614
1375.06646	0.59440
1373.13789	0.59325
1371.20933	0.59225
1369.28076	0.59126
1367.35220	0.59005
1365.42363	0.58868
1363.49507	0.58733
1361.56650	0.58600
1359.63794	0.58472
1357.70937	0.58355
1355.78081	0.58247
1353.85225	0.58149
1351.92368	0.58064
1349.99512	0.57995
1348.06655	0.57926
1346.13799	0.57843
1344.20942	0.57759
1342.28086	0.57693
1340.35229	0.57647
1338.42373	0.57586
1336.49517	0.57506
1334.56660	0.57450
1332.63804	0.57437
1330.70947	0.57454
1328.78091	0.57475
1326.85234	0.57487
1324.92378	0.57514
1322.99521	0.57572
1321.06665	0.57642
1319.13809	0.57700
1317.20952	0.57721
1315.28096	0.57708
1313.35239	0.57672
1311.42383	0.57613
1309.49526	0.57549
1307.56670	0.57503
1305.63813	0.57468
1303.70957	0.57418
1301.78101	0.57346
1299.85244	0.57263
1297.92388	0.57173
1295.99531	0.57071
1294.06675	0.56967
1292.13818	0.56859
1290.20962	0.56742
1288.28105	0.56622
1286.35249	0.56506
1284.42393	0.56397
1282.49536	0.56291
1280.56680	0.56176
1278.63823	0.56053
1276.70967	0.55945
1274.78110	0.55861
1272.85254	0.55801
1270.92397	0.55754
1268.99541	0.55692
1267.06685	0.55610
1265.13828	0.55527
1263.20972	0.55452
1261.28115	0.55384
1259.35259	0.55324
1257.42402	0.55272
1255.49546	0.55233
1253.56689	0.55209
1251.63833	0.55207
1249.70977	0.55228
1247.78120	0.55239
1245.85264	0.55223
1243.92407	0.55177
1241.99551	0.55092
1240.06694	0.54979
1238.13838	0.54840
1236.20981	0.54666
1234.28125	0.54464
1232.35269	0.54261
1230.42412	0.54079
1228.49556	0.53913
1226.56699	0.53744
1224.63843	0.53575
1222.70986	0.53434
1220.78130	0.53319
1218.85273	0.53209
1216.92417	0.53091
1214.99561	0.52964
1213.06704	0.52848
1211.13848	0.52767
1209.20991	0.52710
1207.28135	0.52652
1205.35278	0.52583
1203.42422	0.52508
1201.49565	0.52439
1199.56709	0.52376
1197.63853	0.52301
1195.70996	0.52222
1193.78140	0.52161
1191.85283	0.52124
1189.92427	0.52105
1187.99570	0.52083
1186.06714	0.52064
1184.13857	0.52071
1182.21001	0.52115
1180.28145	0.52201
1178.35288	0.52311
1176.42432	0.52420
1174.49575	0.52525
1172.56719	0.52611
1170.63862	0.52653
1168.71006	0.52656
1166.78149	0.52639
1164.85293	0.52613
1162.92437	0.52591
1160.99580	0.52567
1159.06724	0.52518
1157.13867	0.52441
1155.21011	0.52340
1153.28154	0.52213
1151.35298	0.52054
1149.42441	0.51850
1147.49585	0.51622
1145.56729	0.51393
1143.63872	0.51155
1141.71016	0.50918
1139.78159	0.50703
1137.85303	0.50528
1135.92446	0.50408
1133.99590	0.50327
1132.06733	0.50259
1130.13877	0.50189
1128.21021	0.50106
1126.28164	0.50018
1124.35308	0.49944
1122.42451	0.49883
1120.49595	0.49833
1118.56738	0.49811
1116.63882	0.49814
1114.71025	0.49819
1112.78169	0.49821
1110.85312	0.49853
1108.92456	0.49926
1106.99600	0.50024
1105.06743	0.50146
1103.13887	0.50284
1101.21030	0.50435
1099.28174	0.50619
1097.35317	0.50848
1095.42461	0.51118
1093.49604	0.51452
1091.56748	0.51875
1089.63892	0.52383
1087.71035	0.52983
1085.78179	0.53664
1083.85322	0.54362
1081.92466	0.54997
1079.99609	0.55519
1078.06753	0.55861
1076.13896	0.55928
1074.21040	0.55680
1072.28184	0.55187
1070.35327	0.54561
1068.42471	0.53890
1066.49614	0.53206
1064.56758	0.52556
1062.63901	0.51990
1060.71045	0.51491
1058.78188	0.51037
1056.85332	0.50635
1054.92476	0.50278
1052.99619	0.49968
1051.06763	0.49721
1049.13906	0.49528
1047.21050	0.49370
1045.28193	0.49228
1043.35337	0.49092
1041.42480	0.48979
1039.49624	0.48900
1037.56768	0.48848
1035.63911	0.48818
1033.71055	0.48797
1031.78198	0.48757
1029.85342	0.48697
1027.92485	0.48629
1025.99629	0.48573
1024.06772	0.48558
1022.13916	0.48591
1020.21060	0.48635
1018.28203	0.48672
1016.35347	0.48714
1014.42490	0.48773
1012.49634	0.48845
1010.56777	0.48922
1008.63921	0.49014
1006.71064	0.49139
1004.78208	0.49303
1002.85352	0.49498
1000.92495	0.49738
998.99639	0.50054
997.06782	0.50437
995.13926	0.50849
993.21069	0.51262
991.28213	0.51620
989.35356	0.51865
987.42500	0.51999
985.49644	0.52067
983.56787	0.52098
981.63931	0.52124
979.71074	0.52204
977.78218	0.52369
975.85361	0.52600
973.92505	0.52860
971.99648	0.53126
970.06792	0.53423
968.13936	0.53786
966.21079	0.54202
964.28223	0.54640
962.35366	0.55108
960.42510	0.55607
958.49653	0.56109
956.56797	0.56621
954.63940	0.57191
952.71084	0.57813
950.78228	0.58455
948.85371	0.59105
946.92515	0.59743
944.99658	0.60352
943.06802	0.60958
941.13945	0.61589
939.21089	0.62217
937.28232	0.62796
935.35376	0.63319
933.42520	0.63820
931.49663	0.64345
929.56807	0.64881
927.63950	0.65406
925.71094	0.65979
923.78237	0.66633
921.85381	0.67278
919.92524	0.67874
917.99668	0.68496
916.06812	0.69198
914.13955	0.69959
912.21099	0.70734
910.28242	0.71542
908.35386	0.72412
906.42529	0.73284
904.49673	0.74113
902.56816	0.74934
900.63960	0.75761
898.71104	0.76605
896.78247	0.77549
894.85391	0.78588
892.92534	0.79607
890.99678	0.80566
889.06821	0.81550
887.13965	0.82579
885.21108	0.83595
883.28252	0.84655
881.35396	0.85756
879.42539	0.86784
877.49683	0.87860
875.56826	0.89107
873.63970	0.90341
871.71113	0.91435
869.78257	0.92472
867.85400	0.93611
865.92544	0.94896
863.99687	0.96112
862.06831	0.97197
860.13975	0.98339
858.21118	0.99606
856.28262	1.00896
854.35405	1.02011
852.42549	1.02919
850.49692	1.03943
848.56836	1.05180
846.63979	1.06403
844.71123	1.07515
842.78267	1.08449
840.85410	1.09288
838.92554	1.10202
836.99697	1.11249
835.06841	1.12471
833.13984	1.13730
831.21128	1.14646
829.28271	1.15206
827.35415	1.16269
825.42559	1.18307
823.49702	1.20425
821.56846	1.21899
819.63989	1.23335
817.71133	1.24870
815.78276	1.25890
813.85420	1.26424
811.92563	1.26499
809.99707	1.26286
808.06851	1.26476
806.13994	1.27762
804.21138	1.30264
802.28281	1.32727
800.35425	1.34031
798.42568	1.35439
796.49712	1.37535
794.56855	1.38792
792.63999	1.38365
790.71143	1.38493
788.78286	1.42939
786.85430	1.48653
784.92573	1.48844
782.99717	1.49531
781.06860	1.54517
779.14004	1.52799
777.21147	1.46953
775.28291	1.48610
773.35435	1.52204
771.42578	1.50040
769.49722	1.46620
767.56865	1.46947
765.64009	1.48613
763.71152	1.42119
761.78296	1.31694
759.85439	1.30097
757.92583	1.37979
755.99727	1.38513
754.06870	1.27705
752.14014	1.23093
750.21157	1.26314
748.28301	1.37603
746.35444	1.79564
744.42588	1.64437
742.49731	1.16740
740.56875	1.04324
738.64019	1.05910
736.71162	0.99989
734.78306	0.86331
732.85449	0.76289
730.92593	0.71699
728.99736	0.67079
727.06880	0.46429
725.14023	0.24446
723.21167	0.13725
721.28311	0.12672
719.35454	0.13930
717.42598	0.06935
715.49741	0.01942
713.56885	0.04462
711.64028	0.06190
709.71172	0.04188
707.78315	0.13190
705.85459	0.27271
703.92603	0.42556
701.99746	0.49407
700.06890	0.40503
698.14033	0.27586
696.21177	0.20113
694.28320	0.17762
692.35464	0.22730
690.42607	0.31607
688.49751	0.32166
686.56895	0.26206
684.64038	0.28664
682.71182	0.39562
680.78325	0.43409
678.85469	0.44819
676.92612	0.39068
674.99756	0.20073
673.06899	0.13775
671.14043	0.19749
669.21187	0.25139
667.28330	0.30199
665.35474	0.37220
663.42617	0.38449
661.49761	0.35042
659.56904	0.37780
657.64048	0.49861
655.71191	0.71481
653.78335	0.91044
651.85479	0.79109
649.92622	0.53836
647.99766	0.38189
646.06909	0.33224
644.14053	0.34810
642.21196	0.32899
640.28340	0.28233
638.35483	0.26283
636.42627	0.25106
634.49771	0.21195
632.56914	0.18313
630.64058	0.23492
628.71201	0.32515
626.78345	0.33610
624.85488	0.21997
622.92632	0.09476
620.99775	0.06511
619.06919	0.11467
617.14062	0.18152
615.21206	0.24628
613.28350	0.34889
611.35493	0.49077
609.42637	0.48964
607.49780	0.39042
605.56924	0.31283
603.64067	0.27118
601.71211	0.25268
599.78354	0.21403
597.85498	0.21296
595.92642	0.33698
593.99785	0.59333
592.06929	0.69306
590.14072	0.50820
588.21216	0.41863
586.28359	0.45790
584.35503	0.44626
582.42646	0.30791
580.49790	0.29375
578.56934	0.41544
576.64077	0.48360
574.71221	0.46111
572.78364	0.43864
570.85508	0.37722
568.92651	0.33589
566.99795	0.33117
565.06938	0.29670
563.14082	0.23814
561.21226	0.22803
559.28369	0.29216
557.35513	0.33019
555.42656	0.24828
553.49800	0.19412
551.56943	0.23308
549.64087	0.31629
547.71230	0.31060
545.78374	0.29535
543.85518	0.34357
541.92661	0.33129
539.99805	0.25091
538.06948	0.22277
536.14092	0.25646
534.21235	0.30393
532.28379	0.33253
530.35522	0.29490
528.42666	0.23602
526.49810	0.25040
524.56953	0.33453
522.64097	0.38090
520.71240	0.38236
518.78384	0.40789
516.85527	0.37354
514.92671	0.31184
512.99814	0.26761
511.06958	0.17666
509.14102	0.14081
507.21245	0.21934
505.28389	0.32852
503.35532	0.33219
501.42676	0.28363
499.49819	0.25159
