3997.91411	0.06738
3995.98555	0.06742
3994.05698	0.06766
3992.12842	0.06790
3990.19985	0.06833
3988.27129	0.06884
3986.34272	0.06908
3984.41416	0.06924
3982.48560	0.06948
3980.55703	0.06968
3978.62847	0.06980
3976.69990	0.06989
3974.77134	0.07004
3972.84277	0.07044
3970.91421	0.07086
3968.98564	0.07100
3967.05708	0.07102
3965.12852	0.07109
3963.19995	0.07120
3961.27139	0.07133
3959.34282	0.07147
3957.41426	0.07158
3955.48569	0.07170
3953.55713	0.07180
3951.62856	0.07180
3949.70000	0.07180
3947.77144	0.07173
3945.84287	0.07154
3943.91431	0.07146
3941.98574	0.07172
3940.05718	0.07199
3938.12861	0.07190
3936.20005	0.07175
3934.27148	0.07195
3932.34292	0.07250
3930.41436	0.07287
3928.48579	0.07280
3926.55723	0.07256
3924.62866	0.07252
3922.70010	0.07256
3920.77153	0.07253
3918.84297	0.07264
3916.91440	0.07269
3914.98584	0.07206
3913.05728	0.07107
3911.12871	0.07054
3909.20015	0.07054
3907.27158	0.07093
3905.34302	0.07177
3903.41445	0.07284
3901.48589	0.07337
3899.55732	0.07307
3897.62876	0.07244
3895.70020	0.07193
3893.77163	0.07194
3891.84307	0.07269
3889.91450	0.07344
3887.98594	0.07329
3886.05737	0.07310
3884.12881	0.07340
3882.20024	0.07361
3880.27168	0.07380
3878.34312	0.07375
3876.41455	0.07339
3874.48599	0.07362
3872.55742	0.07433
3870.62886	0.07482
3868.70029	0.07523
3866.77173	0.07562
3864.84316	0.07627
3862.91460	0.07679
3860.98604	0.07628
3859.05747	0.07550
3857.12891	0.07534
3855.20034	0.07613
3853.27178	0.07850
3851.34321	0.08041
3849.41465	0.07934
3847.48608	0.07820
3845.55752	0.07808
3843.62896	0.07883
3841.70039	0.08029
3839.77183	0.08204
3837.84326	0.08354
3835.91470	0.08407
3833.98613	0.08399
3832.05757	0.08412
3830.12900	0.08435
3828.20044	0.08457
3826.27187	0.08520
3824.34331	0.08625
3822.41475	0.08746
3820.48618	0.08921
3818.55762	0.09030
3816.62905	0.09041
3814.70049	0.09089
3812.77192	0.09126
3810.84336	0.09155
3808.91479	0.09254
3806.98623	0.09420
3805.05767	0.09578
3803.12910	0.09707
3801.20054	0.09902
3799.27197	0.10096
3797.34341	0.10155
3795.41484	0.10181
3793.48628	0.10200
3791.55771	0.10234
3789.62915	0.10337
3787.70059	0.10479
3785.77202	0.10623
3783.84346	0.10782
3781.91489	0.10944
3779.98633	0.11119
3778.05776	0.11326
3776.12920	0.11482
3774.20063	0.11589
3772.27207	0.11749
3770.34351	0.12001
3768.41494	0.12265
3766.48638	0.12448
3764.55781	0.12633
3762.62925	0.12825
3760.70068	0.13003
3758.77212	0.13253
3756.84355	0.13555
3754.91499	0.13812
3752.98643	0.14096
3751.05786	0.14541
3749.12930	0.14996
3747.20073	0.15159
3745.27217	0.15291
3743.34360	0.15671
3741.41504	0.16106
3739.48647	0.16427
3737.55791	0.16794
3735.62935	0.17349
3733.70078	0.18036
3731.77222	0.18540
3729.84365	0.18861
3727.91509	0.19191
3725.98652	0.19684
3724.05796	0.20351
3722.12939	0.21060
3720.20083	0.21768
3718.27227	0.22472
3716.34370	0.23175
3714.41514	0.23905
3712.48657	0.24843
3710.55801	0.26244
3708.62944	0.27774
3706.70088	0.28984
3704.77231	0.30090
3702.84375	0.31385
3700.91519	0.33074
3698.98662	0.34923
3697.05806	0.36692
3695.12949	0.38580
3693.20093	0.40590
3691.27236	0.42785
3689.34380	0.45603
3687.41523	0.49039
3685.48667	0.52080
3683.55811	0.54712
3681.62954	0.57523
3679.70098	0.60709
3677.77241	0.64089
3675.84385	0.68064
3673.91528	0.73408
3671.98672	0.77788
3670.05815	0.81666
3668.12959	0.87087
3666.20103	0.92057
3664.27246	0.96146
3662.34390	1.00542
3660.41533	1.05312
3658.48677	1.09994
3656.55820	1.14982
3654.62964	1.20595
3652.70107	1.25280
3650.77251	1.29255
3648.84395	1.34873
3646.91538	1.42032
3644.98682	1.47202
3643.05825	1.51037
3641.12969	1.55003
3639.20112	1.59473
3637.27256	1.64038
3635.34399	1.68501
3633.41543	1.72909
3631.48687	1.76963
3629.55830	1.81068
3627.62974	1.86557
3625.70117	1.91690
3623.77261	1.95051
3621.84404	1.98278
3619.91548	2.02062
3617.98691	2.06616
3616.05835	2.10974
3614.12979	2.14715
3612.20122	2.18758
3610.27266	2.22751
3608.34409	2.26649
3606.41553	2.30921
3604.48696	2.35017
3602.55840	2.38609
3600.62983	2.42354
3598.70127	2.46308
3596.77271	2.50146
3594.84414	2.54205
3592.91558	2.58496
3590.98701	2.62479
3589.05845	2.66073
3587.12988	2.70266
3585.20132	2.75088
3583.27275	2.79368
3581.34419	2.83263
3579.41562	2.87376
3577.48706	2.91658
3575.55850	2.95822
3573.62993	2.99988
3571.70137	3.04048
3569.77280	3.08042
3567.84424	3.12452
3565.91567	3.17761
3563.98711	3.22715
3562.05854	3.26763
3560.12998	3.30948
3558.20142	3.35537
3556.27285	3.40249
3554.34429	3.44792
3552.41572	3.49371
3550.48716	3.53997
3548.55859	3.58454
3546.63003	3.62819
3544.70146	3.67399
3542.77290	3.72085
3540.84434	3.76736
3538.91577	3.81455
3536.98721	3.86174
3535.05864	3.91102
3533.13008	3.95959
3531.20151	4.00459
3529.27295	4.04864
3527.34438	4.09632
3525.41582	4.14642
3523.48726	4.19551
3521.55869	4.24524
3519.63013	4.29321
3517.70156	4.33849
3515.77300	4.38171
3513.84443	4.42575
3511.91587	4.47469
3509.98730	4.52880
3508.05874	4.58309
3506.13018	4.62987
3504.20161	4.67229
3502.27305	4.72081
3500.34448	4.77475
3498.41592	4.82327
3496.48735	4.86508
3494.55879	4.90913
3492.63022	4.96051
3490.70166	5.01109
3488.77310	5.05615
3486.84453	5.10228
3484.91597	5.14927
3482.98740	5.19458
3481.05884	5.24319
3479.13027	5.29415
3477.20171	5.34224
3475.27314	5.38921
3473.34458	5.43889
3471.41602	5.48861
3469.48745	5.53668
3467.55889	5.58595
3465.63032	5.63786
3463.70176	5.69511
3461.77319	5.74676
3459.84463	5.78683
3457.91606	5.83010
3455.98750	5.88187
3454.05894	5.93951
3452.13037	6.00442
3450.20181	6.06944
3448.27324	6.12272
3446.34468	6.15969
3444.41611	6.18671
3442.48755	6.22827
3440.55898	6.28499
3438.63042	6.33586
3436.70186	6.37153
3434.77329	6.40887
3432.84473	6.46641
3430.91616	6.52591
3428.98760	6.57254
3427.05903	6.61169
3425.13047	6.65918
3423.20190	6.71313
3421.27334	6.76458
3419.34478	6.82106
3417.41621	6.88954
3415.48765	6.94332
3413.55908	6.95741
3411.63052	6.98967
3409.70195	7.07319
3407.77339	7.15491
3405.84482	7.16847
3403.91626	7.13779
3401.98770	7.13765
3400.05913	7.19389
3398.13057	7.29005
3396.20200	7.37392
3394.27344	7.41055
3392.34487	7.42155
3390.41631	7.44047
3388.48774	7.48860
3386.55918	7.57382
3384.63062	7.63454
3382.70205	7.64856
3380.77349	7.67443
3378.84492	7.71168
3376.91636	7.71741
3374.98779	7.70034
3373.05923	7.71159
3371.13066	7.72686
3369.20210	7.74210
3367.27354	7.76537
3365.34497	7.77560
3363.41641	7.78563
3361.48784	7.83092
3359.55928	7.90069
3357.63071	7.92066
3355.70215	7.91733
3353.77358	7.94825
3351.84502	8.01024
3349.91646	8.03420
3347.98789	7.97840
3346.05933	7.90789
3344.13076	7.88960
3342.20220	7.92375
3340.27363	8.00362
3338.34507	8.14013
3336.41650	8.19722
3334.48794	8.14391
3332.55937	8.12284
3330.63081	8.10288
3328.70225	8.04335
3326.77368	8.05259
3324.84512	8.11784
3322.91655	8.10921
3320.98799	8.05763
3319.05942	8.08233
3317.13086	8.23146
3315.20229	8.34805
3313.27373	8.29574
3311.34517	8.18213
3309.41660	8.10921
3307.48804	8.07918
3305.55947	8.04731
3303.63091	8.00809
3301.70234	7.99070
3299.77378	8.00830
3297.84521	7.99333
3295.91665	7.99787
3293.98809	8.10487
3292.05952	8.19219
3290.13096	8.18403
3288.20239	8.14826
3286.27383	8.09413
3284.34526	8.00727
3282.41670	7.94129
3280.48813	7.97238
3278.55957	8.09577
3276.63101	8.16190
3274.70244	8.13579
3272.77388	8.14877
3270.84531	8.22151
3268.91675	8.27658
3266.98818	8.22838
3265.05962	8.12738
3263.13105	8.13385
3261.20249	8.23870
3259.27393	8.25832
3257.34536	8.25525
3255.41680	8.32719
3253.48823	8.36511
3251.55967	8.34554
3249.63110	8.30759
3247.70254	8.26160
3245.77397	8.23297
3243.84541	8.22740
3241.91685	8.13690
3239.98828	7.98992
3238.05972	7.94450
3236.13115	7.97495
3234.20259	8.00517
3232.27402	8.05097
3230.34546	8.09869
3228.41689	8.10923
3226.48833	8.08468
3224.55977	8.05613
3222.63120	8.07679
3220.70264	8.14611
3218.77407	8.15427
3216.84551	8.01473
3214.91694	7.88133
3212.98838	7.87016
3211.05981	7.87893
3209.13125	7.86396
3207.20269	7.84913
3205.27412	7.80091
3203.34556	7.74215
3201.41699	7.67313
3199.48843	7.58939
3197.55986	7.56350
3195.63130	7.59587
3193.70273	7.63832
3191.77417	7.64798
3189.84561	7.55984
3187.91704	7.45812
3185.98848	7.43726
3184.05991	7.41756
3182.13135	7.34101
3180.20278	7.26519
3178.27422	7.21705
3176.34565	7.17175
3174.41709	7.11743
3172.48853	7.05241
3170.55996	6.94793
3168.63140	6.83466
3166.70283	6.77783
3164.77427	6.75650
3162.84570	6.72078
3160.91714	6.66951
3158.98857	6.62143
3157.06001	6.56080
3155.13145	6.47086
3153.20288	6.38185
3151.27432	6.30809
3149.34575	6.22714
3147.41719	6.14262
3145.48862	6.08591
3143.56006	6.05255
3141.63149	6.00183
3139.70293	5.91936
3137.77437	5.83164
3135.84580	5.75722
3133.91724	5.69252
3131.98867	5.62807
3130.06011	5.55564
3128.13154	5.47603
3126.20298	5.39593
3124.27441	5.32195
3122.34585	5.25489
3120.41729	5.19324
3118.48872	5.13504
3116.56016	5.07110
3114.63159	4.99605
3112.70303	4.91858
3110.77446	4.84822
3108.84590	4.78412
3106.91733	4.71968
3104.98877	4.65067
3103.06021	4.57740
3101.13164	4.50503
3099.20308	4.43949
3097.27451	4.37593
3095.34595	4.30868
3093.41738	4.24207
3091.48882	4.17781
3089.56025	4.11515
3087.63169	4.05506
3085.70312	3.99535
3083.77456	3.93469
3081.84600	3.87353
3079.91743	3.81016
3077.98887	3.74738
3076.06030	3.68974
3074.13174	3.63445
3072.20317	3.57850
3070.27461	3.52187
3068.34604	3.46373
3066.41748	3.40635
3064.48892	3.35241
3062.56035	3.29926
3060.63179	3.24505
3058.70322	3.19197
3056.77466	3.14037
3054.84609	3.08842
3052.91753	3.03642
3050.98896	2.98479
3049.06040	2.93362
3047.13184	2.88426
3045.20327	2.83614
3043.27471	2.78796
3041.34614	2.74014
3039.41758	2.69375
3037.48901	2.64867
3035.56045	2.60394
3033.63188	2.55948
3031.70332	2.51536
3029.77476	2.47184
3027.84619	2.42933
3025.91763	2.38716
3023.98906	2.34479
3022.06050	2.30292
3020.13193	2.26245
3018.20337	2.22310
3016.27480	2.18427
3014.34624	2.14610
3012.41768	2.10853
3010.48911	2.07146
3008.56055	2.03474
3006.63198	1.99829
3004.70342	1.96300
3002.77485	1.92912
3000.84629	1.89566
2998.91772	1.86251
2996.98916	1.83005
2995.06060	1.79788
2993.13203	1.76599
2991.20347	1.73496
2989.27490	1.70474
2987.34634	1.67522
2985.41777	1.64656
2983.48921	1.61859
2981.56064	1.59066
2979.63208	1.56275
2977.70352	1.53565
2975.77495	1.50944
2973.84639	1.48361
2971.91782	1.45808
2969.98926	1.43272
2968.06069	1.40754
2966.13213	1.38270
2964.20356	1.35834
2962.27500	1.33486
2960.34644	1.31193
2958.41787	1.28888
2956.48931	1.26571
2954.56074	1.24289
2952.63218	1.22074
2950.70361	1.19886
2948.77505	1.17671
2946.84648	1.15494
2944.91792	1.13454
2942.98936	1.11494
2941.06079	1.09504
2939.13223	1.07527
2937.20366	1.05607
2935.27510	1.03660
2933.34653	1.01694
2931.41797	0.99806
2929.48940	0.98012
2927.56084	0.96281
2925.63228	0.94571
2923.70371	0.92839
2921.77515	0.91118
2919.84658	0.89459
2917.91802	0.87868
2915.98945	0.86317
2914.06089	0.84751
2912.13232	0.83194
2910.20376	0.81703
2908.27520	0.80263
2906.34663	0.78870
2904.41807	0.77534
2902.48950	0.76249
2900.56094	0.74984
2898.63237	0.73713
2896.70381	0.72454
2894.77524	0.71214
2892.84668	0.69990
2890.91812	0.68807
2888.98955	0.67675
2887.06099	0.66588
2885.13242	0.65534
2883.20386	0.64497
2881.27529	0.63491
2879.34673	0.62511
2877.41816	0.61530
2875.48960	0.60548
2873.56104	0.59557
2871.63247	0.58546
2869.70391	0.57540
2867.77534	0.56538
2865.84678	0.55514
2863.91821	0.54478
2861.98965	0.53448
2860.06108	0.52459
2858.13252	0.51536
2856.20396	0.50650
2854.27539	0.49769
2852.34683	0.48911
2850.41826	0.48096
2848.48970	0.47309
2846.56113	0.46532
2844.63257	0.45775
2842.70400	0.45069
2840.77544	0.44434
2838.84687	0.43842
2836.91831	0.43254
2834.98975	0.42662
2833.06118	0.42066
2831.13262	0.41473
2829.20405	0.40901
2827.27549	0.40342
2825.34692	0.39769
2823.41836	0.39171
2821.48979	0.38573
2819.56123	0.38007
2817.63267	0.37456
2815.70410	0.36894
2813.77554	0.36341
2811.84697	0.35812
2809.91841	0.35294
2807.98984	0.34777
2806.06128	0.34272
2804.13271	0.33794
2802.20415	0.33338
2800.27559	0.32869
2798.34702	0.32381
2796.41846	0.31904
2794.48989	0.31432
2792.56133	0.30964
2790.63276	0.30540
2788.70420	0.30145
2786.77563	0.29741
2784.84707	0.29347
2782.91851	0.28968
2780.98994	0.28577
2779.06138	0.28178
2777.13281	0.27794
2775.20425	0.27423
2773.27568	0.27056
2771.34712	0.26699
2769.41855	0.26367
2767.48999	0.26051
2765.56143	0.25720
2763.63286	0.25380
2761.70430	0.25067
2759.77573	0.24768
2757.84717	0.24453
2755.91860	0.24138
2753.99004	0.23840
2752.06147	0.23557
2750.13291	0.23285
2748.20435	0.23017
2746.27578	0.22756
2744.34722	0.22510
2742.41865	0.22262
2740.49009	0.21997
2738.56152	0.21731
2736.63296	0.21476
2734.70439	0.21235
2732.77583	0.21007
2730.84727	0.20783
2728.91870	0.20559
2726.99014	0.20346
2725.06157	0.20148
2723.13301	0.19950
2721.20444	0.19748
2719.27588	0.19557
2717.34731	0.19380
2715.41875	0.19210
2713.49019	0.19039
2711.56162	0.18865
2709.63306	0.18694
2707.70449	0.18527
2705.77593	0.18358
2703.84736	0.18202
2701.91880	0.18057
2699.99023	0.17906
2698.06167	0.17761
2696.13311	0.17633
2694.20454	0.17513
2692.27598	0.17379
2690.34741	0.17229
2688.41885	0.17080
2686.49028	0.16953
2684.56172	0.16842
2682.63315	0.16733
2680.70459	0.16621
2678.77603	0.16515
2676.84746	0.16413
2674.91890	0.16297
2672.99033	0.16179
2671.06177	0.16078
2669.13320	0.15990
2667.20464	0.15902
2665.27607	0.15808
2663.34751	0.15717
2661.41895	0.15635
2659.49038	0.15552
2657.56182	0.15475
2655.63325	0.15405
2653.70469	0.15338
2651.77612	0.15281
2649.84756	0.15229
2647.91899	0.15168
2645.99043	0.15096
2644.06187	0.15026
2642.13330	0.14970
2640.20474	0.14923
2638.27617	0.14874
2636.34761	0.14825
2634.41904	0.14784
2632.49048	0.14743
2630.56191	0.14700
2628.63335	0.14669
2626.70479	0.14646
2624.77622	0.14624
2622.84766	0.14598
2620.91909	0.14561
2618.99053	0.14528
2617.06196	0.14506
2615.13340	0.14486
2613.20483	0.14464
2611.27627	0.14445
2609.34771	0.14426
2607.41914	0.14412
2605.49058	0.14407
2603.56201	0.14403
2601.63345	0.14413
2599.70488	0.14431
2597.77632	0.14436
2595.84775	0.14433
2593.91919	0.14444
2591.99062	0.14467
2590.06206	0.14485
2588.13350	0.14499
2586.20493	0.14518
2584.27637	0.14539
2582.34780	0.14564
2580.41924	0.14590
2578.49067	0.14613
2576.56211	0.14645
2574.63354	0.14680
2572.70498	0.14710
2570.77642	0.14740
2568.84785	0.14775
2566.91929	0.14815
2564.99072	0.14853
2563.06216	0.14889
2561.13359	0.14928
2559.20503	0.14974
2557.27646	0.15023
2555.34790	0.15065
2553.41934	0.15100
2551.49077	0.15141
2549.56221	0.15201
2547.63364	0.15275
2545.70508	0.15347
2543.77651	0.15407
2541.84795	0.15449
2539.91938	0.15494
2537.99082	0.15559
2536.06226	0.15632
2534.13369	0.15701
2532.20513	0.15772
2530.27656	0.15847
2528.34800	0.15916
2526.41943	0.15981
2524.49087	0.16052
2522.56230	0.16127
2520.63374	0.16205
2518.70518	0.16284
2516.77661	0.16355
2514.84805	0.16432
2512.91948	0.16517
2510.99092	0.16586
2509.06235	0.16648
2507.13379	0.16726
2505.20522	0.16813
2503.27666	0.16896
2501.34810	0.16970
2499.41953	0.17049
2497.49097	0.17139
2495.56240	0.17236
2493.63384	0.17320
2491.70527	0.17391
2489.77671	0.17467
2487.84814	0.17550
2485.91958	0.17634
2483.99102	0.17720
2482.06245	0.17807
2480.13389	0.17893
2478.20532	0.17984
2476.27676	0.18075
2474.34819	0.18165
2472.41963	0.18260
2470.49106	0.18352
2468.56250	0.18433
2466.63394	0.18505
2464.70537	0.18587
2462.77681	0.18694
2460.84824	0.18810
2458.91968	0.18916
2456.99111	0.19007
2455.06255	0.19091
2453.13398	0.19179
2451.20542	0.19282
2449.27686	0.19391
2447.34829	0.19491
2445.41973	0.19578
2443.49116	0.19662
2441.56260	0.19761
2439.63403	0.19873
2437.70547	0.19975
2435.77690	0.20065
2433.84834	0.20161
2431.91978	0.20253
2429.99121	0.20336
2428.06265	0.20432
2426.13408	0.20543
2424.20552	0.20661
2422.27695	0.20785
2420.34839	0.20901
2418.41982	0.21007
2416.49126	0.21115
2414.56270	0.21229
2412.63413	0.21339
2410.70557	0.21446
2408.77700	0.21568
2406.84844	0.21697
2404.91987	0.21816
2402.99131	0.21932
2401.06274	0.22052
2399.13418	0.22168
2397.20562	0.22282
2395.27705	0.22411
2393.34849	0.22545
2391.41992	0.22664
2389.49136	0.22783
2387.56279	0.22933
2385.63423	0.23118
2383.70566	0.23338
2381.77710	0.23618
2379.84854	0.23967
2377.91997	0.24360
2375.99141	0.24785
2374.06284	0.25261
2372.13428	0.25803
2370.20571	0.26401
2368.27715	0.27005
2366.34858	0.27579
2364.42002	0.28109
2362.49146	0.28548
2360.56289	0.28824
2358.63433	0.28893
2356.70576	0.28755
2354.77720	0.28511
2352.84863	0.28225
2350.92007	0.27889
2348.99150	0.27681
2347.06294	0.27758
2345.13437	0.28167
2343.20581	0.28749
2341.27725	0.29143
2339.34868	0.29297
2337.42012	0.29382
2335.49155	0.29489
2333.56299	0.29587
2331.63442	0.29679
2329.70586	0.29782
2327.77729	0.29846
2325.84873	0.29846
2323.92017	0.29826
2321.99160	0.29803
2320.06304	0.29758
2318.13447	0.29714
2316.20591	0.29718
2314.27734	0.29768
2312.34878	0.29848
2310.42021	0.29952
2308.49165	0.30040
2306.56309	0.30092
2304.63452	0.30143
2302.70596	0.30226
2300.77739	0.30343
2298.84883	0.30476
2296.92026	0.30617
2294.99170	0.30767
2293.06313	0.30914
2291.13457	0.31051
2289.20601	0.31186
2287.27744	0.31327
2285.34888	0.31467
2283.42031	0.31615
2281.49175	0.31801
2279.56318	0.32019
2277.63462	0.32236
2275.70605	0.32446
2273.77749	0.32655
2271.84893	0.32862
2269.92036	0.33065
2267.99180	0.33265
2266.06323	0.33470
2264.13467	0.33672
2262.20610	0.33871
2260.27754	0.34080
2258.34897	0.34296
2256.42041	0.34502
2254.49185	0.34698
2252.56328	0.34893
2250.63472	0.35093
2248.70615	0.35296
2246.77759	0.35507
2244.84902	0.35736
2242.92046	0.35969
2240.99189	0.36185
2239.06333	0.36393
2237.13477	0.36602
2235.20620	0.36814
2233.27764	0.37033
2231.34907	0.37268
2229.42051	0.37508
2227.49194	0.37735
2225.56338	0.37943
2223.63481	0.38146
2221.70625	0.38351
2219.77769	0.38559
2217.84912	0.38770
2215.92056	0.38987
2213.99199	0.39208
2212.06343	0.39432
2210.13486	0.39650
2208.20630	0.39856
2206.27773	0.40057
2204.34917	0.40263
2202.42061	0.40471
2200.49204	0.40679
2198.56348	0.40884
2196.63491	0.41079
2194.70635	0.41270
2192.77778	0.41457
2190.84922	0.41645
2188.92065	0.41834
2186.99209	0.42017
2185.06353	0.42194
2183.13496	0.42372
2181.20640	0.42546
2179.27783	0.42717
2177.34927	0.42887
2175.42070	0.43045
2173.49214	0.43187
2171.56357	0.43323
2169.63501	0.43455
2167.70645	0.43589
2165.77788	0.43722
2163.84932	0.43847
2161.92075	0.43964
2159.99219	0.44083
2158.06362	0.44200
2156.13506	0.44299
2154.20649	0.44384
2152.27793	0.44474
2150.34937	0.44560
2148.42080	0.44633
2146.49224	0.44703
2144.56367	0.44768
2142.63511	0.44820
2140.70654	0.44858
2138.77798	0.44878
2136.84941	0.44891
2134.92085	0.44907
2132.99229	0.44917
2131.06372	0.44922
2129.13516	0.44922
2127.20659	0.44915
2125.27803	0.44894
2123.34946	0.44849
2121.42090	0.44799
2119.49233	0.44757
2117.56377	0.44706
2115.63521	0.44639
2113.70664	0.44577
2111.77808	0.44512
2109.84951	0.44422
2107.92095	0.44317
2105.99238	0.44210
2104.06382	0.44102
2102.13525	0.43995
2100.20669	0.43885
2098.27812	0.43765
2096.34956	0.43630
2094.42100	0.43482
2092.49243	0.43335
2090.56387	0.43190
2088.63530	0.43024
2086.70674	0.42841
2084.77817	0.42662
2082.84961	0.42489
2080.92104	0.42304
2078.99248	0.42107
2077.06392	0.41908
2075.13535	0.41712
2073.20679	0.41510
2071.27822	0.41299
2069.34966	0.41092
2067.42109	0.40886
2065.49253	0.40663
2063.56396	0.40418
2061.63540	0.40172
2059.70684	0.39941
2057.77827	0.39719
2055.84971	0.39496
2053.92114	0.39250
2051.99258	0.38982
2050.06401	0.38718
2048.13545	0.38468
2046.20688	0.38218
2044.27832	0.37962
2042.34976	0.37704
2040.42119	0.37445
2038.49263	0.37183
2036.56406	0.36911
2034.63550	0.36630
2032.70693	0.36353
2030.77837	0.36091
2028.84980	0.35823
2026.92124	0.35546
2024.99268	0.35281
2023.06411	0.35028
2021.13555	0.34762
2019.20698	0.34486
2017.27842	0.34213
2015.34985	0.33937
2013.42129	0.33657
2011.49272	0.33381
2009.56416	0.33112
2007.63560	0.32845
2005.70703	0.32585
2003.77847	0.32330
2001.84990	0.32075
1999.92134	0.31820
1997.99277	0.31565
1996.06421	0.31308
1994.13564	0.31062
1992.20708	0.30829
1990.27852	0.30587
1988.34995	0.30332
1986.42139	0.30075
1984.49282	0.29825
1982.56426	0.29583
1980.63569	0.29342
1978.70713	0.29110
1976.77856	0.28888
1974.85000	0.28671
1972.92144	0.28457
1970.99287	0.28253
1969.06431	0.28060
1967.13574	0.27866
1965.20718	0.27656
1963.27861	0.27445
1961.35005	0.27244
1959.42148	0.27049
1957.49292	0.26872
1955.56436	0.26710
1953.63579	0.26536
1951.70723	0.26351
1949.77866	0.26185
1947.85010	0.26027
1945.92153	0.25867
1943.99297	0.25719
1942.06440	0.25577
1940.13584	0.25424
1938.20728	0.25274
1936.27871	0.25135
1934.35015	0.24997
1932.42158	0.24862
1930.49302	0.24733
1928.56445	0.24617
1926.63589	0.24511
1924.70732	0.24418
1922.77876	0.24336
1920.85020	0.24244
1918.92163	0.24152
1916.99307	0.24062
1915.06450	0.23965
1913.13594	0.23866
1911.20737	0.23784
1909.27881	0.23715
1907.35024	0.23643
1905.42168	0.23567
1903.49312	0.23504
1901.56455	0.23452
1899.63599	0.23394
1897.70742	0.23344
1895.77886	0.23306
1893.85029	0.23270
1891.92173	0.23232
1889.99316	0.23212
1888.06460	0.23196
1886.13604	0.23167
1884.20747	0.23130
1882.27891	0.23095
1880.35034	0.23078
1878.42178	0.23071
1876.49321	0.23070
1874.56465	0.23070
1872.63608	0.23078
1870.70752	0.23108
1868.77896	0.23174
1866.85039	0.23210
1864.92183	0.23190
1862.99326	0.23179
1861.06470	0.23190
1859.13613	0.23216
1857.20757	0.23251
1855.27900	0.23295
1853.35044	0.23343
1851.42187	0.23399
1849.49331	0.23456
1847.56475	0.23516
1845.63618	0.23599
1843.70762	0.23707
1841.77905	0.23788
1839.85049	0.23834
1837.92192	0.23908
1835.99336	0.23997
1834.06479	0.24081
1832.13623	0.24172
1830.20767	0.24315
1828.27910	0.24465
1826.35054	0.24562
1824.42197	0.24675
1822.49341	0.24795
1820.56484	0.24914
1818.63628	0.25052
1816.70771	0.25220
1814.77915	0.25390
1812.85059	0.25563
1810.92202	0.25753
1808.99346	0.25948
1807.06489	0.26144
1805.13633	0.26342
1803.20776	0.26562
1801.27920	0.26813
1799.35063	0.27097
1797.42207	0.27351
1795.49351	0.27586
1793.56494	0.27861
1791.63638	0.28217
1789.70781	0.28555
1787.77925	0.28813
1785.85068	0.29116
1783.92212	0.29477
1781.99355	0.29869
1780.06499	0.30282
1778.13643	0.30701
1776.20786	0.31094
1774.27930	0.31520
1772.35073	0.32100
1770.42217	0.32725
1768.49360	0.33244
1766.56504	0.33750
1764.63647	0.34276
1762.70791	0.34866
1760.77935	0.35617
1758.85078	0.36316
1756.92222	0.37013
1754.99365	0.37779
1753.06509	0.38469
1751.13652	0.39287
1749.20796	0.40333
1747.27939	0.41375
1745.35083	0.42289
1743.42227	0.43253
1741.49370	0.44316
1739.56514	0.45562
1737.63657	0.46802
1735.70801	0.47874
1733.77944	0.49480
1731.85088	0.51425
1729.92231	0.52973
1727.99375	0.54541
1726.06519	0.56212
1724.13662	0.58016
1722.20806	0.59968
1720.27949	0.61777
1718.35093	0.63896
1716.42236	0.67062
1714.49380	0.70098
1712.56523	0.72561
1710.63667	0.74953
1708.70811	0.77510
1706.77954	0.80391
1704.85098	0.83842
1702.92241	0.86943
1700.99385	0.90012
1699.06528	0.94588
1697.13672	0.98812
1695.20815	1.03146
1693.27959	1.07336
1691.35103	1.10692
1689.42246	1.14587
1687.49390	1.18711
1685.56533	1.22638
1683.63677	1.28729
1681.70820	1.35165
1679.77964	1.39270
1677.85107	1.43146
1675.92251	1.47600
1673.99395	1.53142
1672.06538	1.58131
1670.13682	1.62998
1668.20825	1.69243
1666.27969	1.74291
1664.35112	1.78576
1662.42256	1.83993
1660.49399	1.90134
1658.56543	1.94922
1656.63687	1.98796
1654.70830	2.02460
1652.77974	2.08394
1650.85117	2.13773
1648.92261	2.15548
1646.99404	2.18185
1645.06548	2.21480
1643.13691	2.23573
1641.20835	2.24711
1639.27979	2.25799
1637.35122	2.26572
1635.42266	2.26703
1633.49409	2.26121
1631.56553	2.24976
1629.63696	2.23524
1627.70840	2.20967
1625.77983	2.17890
1623.85127	2.13893
1621.92271	2.08861
1619.99414	2.04403
1618.06558	2.00073
1616.13701	1.93814
1614.20845	1.87422
1612.27988	1.82618
1610.35132	1.77678
1608.42275	1.72312
1606.49419	1.66908
1604.56562	1.61864
1602.63706	1.56988
1600.70850	1.52224
1598.77993	1.47858
1596.85137	1.43762
1594.92280	1.39750
1592.99424	1.35849
1591.06567	1.32264
1589.13711	1.28894
1587.20854	1.25745
1585.27998	1.22792
1583.35142	1.19990
1581.42285	1.17422
1579.49429	1.15229
1577.56572	1.13246
1575.63716	1.10799
1573.70859	1.08640
1571.78003	1.07258
1569.85146	1.05812
1567.92290	1.04143
1565.99434	1.02835
1564.06577	1.01797
1562.13721	1.00980
1560.20864	1.00390
1558.28008	0.99547
1556.35151	0.98709
1554.42295	0.98142
1552.49438	0.97618
1550.56582	0.97057
1548.63726	0.96363
1546.70869	0.95614
1544.78013	0.94772
1542.85156	0.93755
1540.92300	0.92389
1538.99443	0.90323
1537.06587	0.88782
1535.13730	0.87732
1533.20874	0.86369
1531.28018	0.84902
1529.35161	0.83815
1527.42305	0.82783
1525.49448	0.81728
1523.56592	0.80836
1521.63735	0.79977
1519.70879	0.79098
1517.78022	0.78334
1515.85166	0.77450
1513.92310	0.76548
1511.99453	0.75796
1510.06597	0.75126
1508.13740	0.74494
1506.20884	0.73510
1504.28027	0.72588
1502.35171	0.72052
1500.42314	0.71598
1498.49458	0.71128
1496.56602	0.70588
1494.63745	0.70042
1492.70889	0.69611
1490.78032	0.69247
1488.85176	0.68843
1486.92319	0.68454
1484.99463	0.68135
1483.06606	0.67869
1481.13750	0.67640
1479.20894	0.67465
1477.28037	0.67357
1475.35181	0.67293
1473.42324	0.67234
1471.49468	0.67086
1469.56611	0.66861
1467.63755	0.66649
1465.70898	0.66469
1463.78042	0.66296
1461.85186	0.66137
1459.92329	0.66034
1457.99473	0.65986
1456.06616	0.65857
1454.13760	0.65584
1452.20903	0.65305
1450.28047	0.65037
1448.35190	0.64790
1446.42334	0.64543
1444.49478	0.64288
1442.56621	0.64054
1440.63765	0.63835
1438.70908	0.63630
1436.78052	0.63383
1434.85195	0.63092
1432.92339	0.62862
1430.99482	0.62692
1429.06626	0.62554
1427.13770	0.62463
1425.20913	0.62417
1423.28057	0.62384
1421.35200	0.62334
1419.42344	0.62284
1417.49487	0.62210
1415.56631	0.62077
1413.63774	0.61955
1411.70918	0.61877
1409.78062	0.61831
1407.85205	0.61802
1405.92349	0.61795
1403.99492	0.61783
1402.06636	0.61724
1400.13779	0.61631
1398.20923	0.61496
1396.28066	0.61306
1394.35210	0.61057
1392.42354	0.60767
1390.49497	0.60485
1388.56641	0.60214
1386.63784	0.59931
1384.70928	0.59648
1382.78071	0.59377
1380.85215	0.59118
1378.92358	0.58886
1376.99502	0.58694
1375.06646	0.58566
1373.13789	0.58489
1371.20933	0.58418
1369.28076	0.58341
1367.35220	0.58252
1365.42363	0.58140
1363.49507	0.58017
1361.56650	0.57900
1359.63794	0.57779
1357.70937	0.57648
1355.78081	0.57522
1353.85225	0.57423
1351.92368	0.57350
1349.99512	0.57268
1348.06655	0.57164
1346.13799	0.57062
1344.20942	0.56973
1342.28086	0.56881
1340.35229	0.56793
1338.42373	0.56715
1336.49517	0.56637
1334.56660	0.56566
1332.63804	0.56514
1330.70947	0.56474
1328.78091	0.56445
1326.85234	0.56433
1324.92378	0.56443
1322.99521	0.56460
1321.06665	0.56460
1319.13809	0.56441
1317.20952	0.56408
1315.28096	0.56372
1313.35239	0.56326
1311.42383	0.56261
1309.49526	0.56185
1307.56670	0.56111
1305.63813	0.56042
1303.70957	0.55965
1301.78101	0.55864
1299.85244	0.55748
1297.92388	0.55640
1295.99531	0.55550
1294.06675	0.55470
1292.13818	0.55384
1290.20962	0.55292
1288.28105	0.55204
1286.35249	0.55123
1284.42393	0.55048
1282.49536	0.54966
1280.56680	0.54882
1278.63823	0.54802
1276.70967	0.54722
1274.78110	0.54639
1272.85254	0.54559
1270.92397	0.54494
1268.99541	0.54449
1267.06685	0.54404
1265.13828	0.54343
1263.20972	0.54282
1261.28115	0.54230
1259.35259	0.54180
1257.42402	0.54121
1255.49546	0.54076
1253.56689	0.54065
1251.63833	0.54068
1249.70977	0.54060
1247.78120	0.54030
1245.85264	0.53985
1243.92407	0.53937
1241.99551	0.53879
1240.06694	0.53803
1238.13838	0.53711
1236.20981	0.53597
1234.28125	0.53467
1232.35269	0.53332
1230.42412	0.53195
1228.49556	0.53061
1226.56699	0.52931
1224.63843	0.52810
1222.70986	0.52693
1220.78130	0.52571
1218.85273	0.52457
1216.92417	0.52360
1214.99561	0.52265
1213.06704	0.52176
1211.13848	0.52106
1209.20991	0.52049
1207.28135	0.51998
1205.35278	0.51953
1203.42422	0.51891
1201.49565	0.51809
1199.56709	0.51726
1197.63853	0.51645
1195.70996	0.51571
1193.78140	0.51517
1191.85283	0.51477
1189.92427	0.51428
1187.99570	0.51389
1186.06714	0.51382
1184.13857	0.51391
1182.21001	0.51416
1180.28145	0.51469
1178.35288	0.51542
1176.42432	0.51633
1174.49575	0.51726
1172.56719	0.51809
1170.63862	0.51883
1168.71006	0.51949
1166.78149	0.52009
1164.85293	0.52055
1162.92437	0.52074
1160.99580	0.52088
1159.06724	0.52113
1157.13867	0.52114
1155.21011	0.52054
1153.28154	0.51929
1151.35298	0.51756
1149.42441	0.51553
1147.49585	0.51324
1145.56729	0.51064
1143.63872	0.50794
1141.71016	0.50550
1139.78159	0.50334
1137.85303	0.50157
1135.92446	0.50034
1133.99590	0.49946
1132.06733	0.49869
1130.13877	0.49802
1128.21021	0.49742
1126.28164	0.49681
1124.35308	0.49609
1122.42451	0.49539
1120.49595	0.49508
1118.56738	0.49526
1116.63882	0.49569
1114.71025	0.49625
1112.78169	0.49692
1110.85312	0.49756
1108.92456	0.49811
1106.99600	0.49881
1105.06743	0.49997
1103.13887	0.50143
1101.21030	0.50274
1099.28174	0.50393
1097.35317	0.50560
1095.42461	0.50819
1093.49604	0.51178
1091.56748	0.51641
1089.63892	0.52211
1087.71035	0.52894
1085.78179	0.53694
1083.85322	0.54539
1081.92466	0.55303
1079.99609	0.55883
1078.06753	0.56202
1076.13896	0.56211
1074.21040	0.55911
1072.28184	0.55363
1070.35327	0.54665
1068.42471	0.53943
1066.49614	0.53284
1064.56758	0.52681
1062.63901	0.52125
1060.71045	0.51656
1058.78188	0.51282
1056.85332	0.50945
1054.92476	0.50612
1052.99619	0.50319
1051.06763	0.50099
1049.13906	0.49950
1047.21050	0.49870
1045.28193	0.49833
1043.35337	0.49820
1041.42480	0.49835
1039.49624	0.49855
1037.56768	0.49858
1035.63911	0.49849
1033.71055	0.49814
1031.78198	0.49731
1029.85342	0.49605
1027.92485	0.49467
1025.99629	0.49344
1024.06772	0.49252
1022.13916	0.49192
1020.21060	0.49166
1018.28203	0.49172
1016.35347	0.49191
1014.42490	0.49207
1012.49634	0.49213
1010.56777	0.49204
1008.63921	0.49201
1006.71064	0.49244
1004.78208	0.49352
1002.85352	0.49527
1000.92495	0.49768
998.99639	0.50071
997.06782	0.50445
995.13926	0.50884
993.21069	0.51320
991.28213	0.51662
989.35356	0.51875
987.42500	0.51973
985.49644	0.51979
983.56787	0.51941
981.63931	0.51924
979.71074	0.52005
977.78218	0.52194
975.85361	0.52432
973.92505	0.52683
971.99648	0.52959
970.06792	0.53272
968.13936	0.53611
966.21079	0.53994
964.28223	0.54426
962.35366	0.54882
960.42510	0.55372
958.49653	0.55909
956.56797	0.56469
954.63940	0.57043
952.71084	0.57642
950.78228	0.58272
948.85371	0.58933
946.92515	0.59602
944.99658	0.60260
943.06802	0.60909
941.13945	0.61515
939.21089	0.62047
937.28232	0.62536
935.35376	0.63032
933.42520	0.63557
931.49663	0.64095
929.56807	0.64639
927.63950	0.65212
925.71094	0.65785
923.78237	0.66328
921.85381	0.66908
919.92524	0.67591
917.99668	0.68324
916.06812	0.69044
914.13955	0.69788
912.21099	0.70568
910.28242	0.71330
908.35386	0.72122
906.42529	0.72995
904.49673	0.73903
902.56816	0.74811
900.63960	0.75709
898.71104	0.76612
896.78247	0.77544
894.85391	0.78473
892.92534	0.79414
890.99678	0.80442
889.06821	0.81526
887.13965	0.82538
885.21108	0.83441
883.28252	0.84423
881.35396	0.85599
879.42539	0.86806
877.49683	0.87933
875.56826	0.89059
873.63970	0.90282
871.71113	0.91567
869.78257	0.92775
867.85400	0.93887
865.92544	0.94997
863.99687	0.96056
862.06831	0.96980
860.13975	0.97948
858.21118	0.99181
856.28262	1.00583
854.35405	1.01992
852.42549	1.03317
850.49692	1.04398
848.56836	1.05365
846.63979	1.06450
844.71123	1.07555
842.78267	1.08681
840.85410	1.09922
838.92554	1.11045
836.99697	1.11989
835.06841	1.12945
833.13984	1.14013
831.21128	1.15263
829.28271	1.16444
827.35415	1.17482
825.42559	1.18676
823.49702	1.19944
821.56846	1.21323
819.63989	1.22489
817.71133	1.22992
815.78276	1.24074
813.85420	1.25732
811.92563	1.25953
809.99707	1.25130
808.06851	1.25226
806.13994	1.26987
804.21138	1.30269
802.28281	1.33412
800.35425	1.33332
798.42568	1.32474
796.49712	1.34032
794.56855	1.33999
792.63999	1.32641
790.71143	1.35740
788.78286	1.41098
786.85430	1.42028
784.92573	1.43993
782.99717	1.50375
781.06860	1.53129
779.14004	1.55551
777.21147	1.61773
775.28291	1.60098
773.35435	1.52037
771.42578	1.48403
769.49722	1.47247
767.56865	1.41930
765.64009	1.35343
763.71152	1.32758
761.78296	1.36968
759.85439	1.45461
757.92583	1.45240
755.99727	1.41708
754.06870	1.48095
752.14014	1.39366
750.21157	1.23576
748.28301	1.23566
746.35444	1.26732
744.42588	1.16119
742.49731	1.03686
740.56875	0.94144
738.64019	0.85179
736.71162	0.75786
734.78306	0.64886
732.85449	0.56654
730.92593	0.51475
728.99736	0.45763
727.06880	0.45277
725.14023	0.51258
723.21167	0.49054
721.28311	0.35948
719.35454	0.21961
717.42598	0.10180
715.49741	0.04097
713.56885	0.11514
711.64028	0.27883
709.71172	0.40738
707.78315	0.37845
705.85459	0.21691
703.92603	0.16214
701.99746	0.17555
700.06890	0.18753
698.14033	0.25014
696.21177	0.27448
694.28320	0.20088
692.35464	0.17673
690.42607	0.19303
688.49751	0.16314
686.56895	0.14560
684.64038	0.19645
682.71182	0.22062
680.78325	0.13015
678.85469	0.02312
676.92612	0.02298
674.99756	0.09109
673.06899	0.20564
671.14043	0.34289
669.21187	0.34607
667.28330	0.37358
665.35474	0.48011
663.42617	0.38008
661.49761	0.26645
659.56904	0.28803
657.64048	0.33258
655.71191	0.27211
653.78335	0.17588
651.85479	0.15390
649.92622	0.21887
647.99766	0.27153
646.06909	0.21465
644.14053	0.12692
642.21196	0.12866
640.28340	0.18815
638.35483	0.20263
636.42627	0.21271
634.49771	0.23497
632.56914	0.20890
630.64058	0.20051
628.71201	0.28669
626.78345	0.43236
624.85488	0.53886
622.92632	0.51282
620.99775	0.43560
619.06919	0.31245
617.14062	0.23068
615.21206	0.25759
613.28350	0.34307
611.35493	0.34694
609.42637	0.30473
607.49780	0.32112
605.56924	0.30821
603.64067	0.24031
601.71211	0.24219
599.78354	0.29903
597.85498	0.30971
595.92642	0.33679
593.99785	0.45057
592.06929	0.50073
590.14072	0.42196
588.21216	0.34523
586.28359	0.27716
584.35503	0.24917
582.42646	0.28766
580.49790	0.32125
578.56934	0.28431
576.64077	0.27692
574.71221	0.26496
572.78364	0.18857
570.85508	0.13990
568.92651	0.17590
566.99795	0.26156
565.06938	0.35210
563.14082	0.36504
561.21226	0.34946
559.28369	0.42693
557.35513	0.50887
555.42656	0.33035
553.49800	0.23033
551.56943	0.31099
549.64087	0.48730
547.71230	0.65955
545.78374	0.49961
543.85518	0.31804
541.92661	0.33315
539.99805	0.41329
538.06948	0.38485
536.14092	0.26060
534.21235	0.17641
532.28379	0.13881
530.35522	0.12475
528.42666	0.15147
526.49810	0.19795
524.56953	0.22389
522.64097	0.22380
520.71240	0.18484
518.78384	0.14987
516.85527	0.15417
514.92671	0.16449
512.99814	0.17275
511.06958	0.16412
509.14102	0.13840
507.21245	0.15250
505.28389	0.21019
503.35532	0.24904
501.42676	0.29099
499.49819	0.35171
