3997.91411	0.06755
3995.98555	0.06783
3994.05698	0.06825
3992.12842	0.06881
3990.19985	0.06920
3988.27129	0.06933
3986.34272	0.06961
3984.41416	0.07009
3982.48560	0.07028
3980.55703	0.07021
3978.62847	0.07034
3976.69990	0.07100
3974.77134	0.07183
3972.84277	0.07202
3970.91421	0.07182
3968.98564	0.07215
3967.05708	0.07261
3965.12852	0.07254
3963.19995	0.07255
3961.27139	0.07303
3959.34282	0.07337
3957.41426	0.07331
3955.48569	0.07314
3953.55713	0.07316
3951.62856	0.07365
3949.70000	0.07460
3947.77144	0.07531
3945.84287	0.07517
3943.91431	0.07501
3941.98574	0.07514
3940.05718	0.07440
3938.12861	0.07319
3936.20005	0.07289
3934.27148	0.07375
3932.34292	0.07524
3930.41436	0.07600
3928.48579	0.07533
3926.55723	0.07477
3924.62866	0.07539
3922.70010	0.07586
3920.77153	0.07529
3918.84297	0.07514
3916.91440	0.07558
3914.98584	0.07466
3913.05728	0.07266
3911.12871	0.07162
3909.20015	0.07178
3907.27158	0.07284
3905.34302	0.07569
3903.41445	0.07997
3901.48589	0.08225
3899.55732	0.08130
3897.62876	0.07868
3895.70020	0.07606
3893.77163	0.07548
3891.84307	0.07693
3889.91450	0.07731
3887.98594	0.07580
3886.05737	0.07578
3884.12881	0.07742
3882.20024	0.07842
3880.27168	0.07877
3878.34312	0.07769
3876.41455	0.07610
3874.48599	0.07711
3872.55742	0.08026
3870.62886	0.08305
3868.70029	0.08405
3866.77173	0.08296
3864.84316	0.08244
3862.91460	0.08301
3860.98604	0.08206
3859.05747	0.08021
3857.12891	0.08017
3855.20034	0.08298
3853.27178	0.08798
3851.34321	0.08933
3849.41465	0.08513
3847.48608	0.08160
3845.55752	0.08066
3843.62896	0.08234
3841.70039	0.08569
3839.77183	0.08954
3837.84326	0.09268
3835.91470	0.09283
3833.98613	0.09101
3832.05757	0.08962
3830.12900	0.08879
3828.20044	0.08875
3826.27187	0.08992
3824.34331	0.09145
3822.41475	0.09374
3820.48618	0.09773
3818.55762	0.09941
3816.62905	0.09846
3814.70049	0.09725
3812.77192	0.09482
3810.84336	0.09320
3808.91479	0.09447
3806.98623	0.09810
3805.05767	0.10129
3803.12910	0.10355
3801.20054	0.10681
3799.27197	0.10826
3797.34341	0.10709
3795.41484	0.10578
3793.48628	0.10427
3791.55771	0.10379
3789.62915	0.10492
3787.70059	0.10671
3785.77202	0.10898
3783.84346	0.11134
3781.91489	0.11305
3779.98633	0.11496
3778.05776	0.11684
3776.12920	0.11708
3774.20063	0.11721
3772.27207	0.11915
3770.34351	0.12297
3768.41494	0.12665
3766.48638	0.12839
3764.55781	0.12944
3762.62925	0.13060
3760.70068	0.13303
3758.77212	0.13737
3756.84355	0.14101
3754.91499	0.14299
3752.98643	0.14649
3751.05786	0.15351
3749.12930	0.16053
3747.20073	0.16278
3745.27217	0.16417
3743.34360	0.16657
3741.41504	0.16785
3739.48647	0.16951
3737.55791	0.17389
3735.62935	0.18151
3733.70078	0.18904
3731.77222	0.19177
3729.84365	0.19220
3727.91509	0.19422
3725.98652	0.19954
3724.05796	0.20702
3722.12939	0.21402
3720.20083	0.22033
3718.27227	0.22663
3716.34370	0.23357
3714.41514	0.24163
3712.48657	0.25274
3710.55801	0.26831
3708.62944	0.28227
3706.70088	0.29171
3704.77231	0.30150
3702.84375	0.31456
3700.91519	0.33194
3698.98662	0.35013
3697.05806	0.36701
3695.12949	0.38589
3693.20093	0.40708
3691.27236	0.43096
3689.34380	0.46191
3687.41523	0.49751
3685.48667	0.52582
3683.55811	0.54975
3681.62954	0.57712
3679.70098	0.60998
3677.77241	0.64622
3675.84385	0.68941
3673.91528	0.74431
3671.98672	0.78739
3670.05815	0.82672
3668.12959	0.87977
3666.20103	0.92550
3664.27246	0.96367
3662.34390	1.00672
3660.41533	1.05466
3658.48677	1.10248
3656.55820	1.15344
3654.62964	1.20975
3652.70107	1.25735
3650.77251	1.30084
3648.84395	1.36175
3646.91538	1.43234
3644.98682	1.48002
3643.05825	1.51631
3641.12969	1.55521
3639.20112	1.59915
3637.27256	1.64398
3635.34399	1.68834
3633.41543	1.73306
3631.48687	1.77562
3629.55830	1.82011
3627.62974	1.87622
3625.70117	1.92475
3623.77261	1.95706
3621.84404	1.99028
3619.91548	2.03019
3617.98691	2.07730
3616.05835	2.11989
3614.12979	2.15553
3612.20122	2.19516
3610.27266	2.23546
3608.34409	2.27589
3606.41553	2.31794
3604.48696	2.35570
3602.55840	2.39036
3600.62983	2.42967
3598.70127	2.47243
3596.77271	2.51329
3594.84414	2.55426
3592.91558	2.59558
3590.98701	2.63388
3589.05845	2.67130
3587.12988	2.71792
3585.20132	2.76699
3583.27275	2.80530
3581.34419	2.84116
3579.41562	2.88140
3577.48706	2.92436
3575.55850	2.96754
3573.62993	3.01151
3571.70137	3.05383
3569.77280	3.09390
3567.84424	3.13781
3565.91567	3.19345
3563.98711	3.24547
3562.05854	3.28473
3560.12998	3.32464
3558.20142	3.36903
3556.27285	3.41417
3554.34429	3.45765
3552.41572	3.50191
3550.48716	3.54787
3548.55859	3.59492
3546.63003	3.64371
3544.70146	3.69395
3542.77290	3.74014
3540.84434	3.78154
3538.91577	3.82392
3536.98721	3.86749
3535.05864	3.91371
3533.13008	3.96364
3531.20151	4.01470
3529.27295	4.06563
3527.34438	4.11639
3525.41582	4.16537
3523.48726	4.21523
3521.55869	4.26509
3519.63013	4.30859
3517.70156	4.35271
3515.77300	4.40218
3513.84443	4.45112
3511.91587	4.49816
3509.98730	4.54817
3508.05874	4.59960
3506.13018	4.64462
3504.20161	4.68368
3502.27305	4.72379
3500.34448	4.76812
3498.41592	4.81405
3496.48735	4.86289
3494.55879	4.91551
3492.63022	4.96470
3490.70166	5.00920
3488.77310	5.05658
3486.84453	5.10868
3484.91597	5.16165
3482.98740	5.20939
3481.05884	5.25314
3479.13027	5.30081
3477.20171	5.35025
3475.27314	5.39547
3473.34458	5.44338
3471.41602	5.50207
3469.48745	5.55560
3467.55889	5.59206
3465.63032	5.62962
3463.70176	5.68204
3461.77319	5.73762
3459.84463	5.78711
3457.91606	5.83805
3455.98750	5.89168
3454.05894	5.94460
3452.13037	6.00656
3450.20181	6.07055
3448.27324	6.11425
3446.34468	6.14746
3444.41611	6.18303
3442.48755	6.21587
3440.55898	6.25498
3438.63042	6.31138
3436.70186	6.37097
3434.77329	6.42447
3432.84473	6.46951
3430.91616	6.50916
3428.98760	6.57018
3427.05903	6.64126
3425.13047	6.68393
3423.20190	6.70986
3421.27334	6.75920
3419.34478	6.81405
3417.41621	6.84437
3415.48765	6.87799
3413.55908	6.93182
3411.63052	6.98704
3409.70195	7.02885
3407.77339	7.06786
3405.84482	7.10252
3403.91626	7.12954
3401.98770	7.14512
3400.05913	7.17816
3398.13057	7.24081
3396.20200	7.29471
3394.27344	7.36061
3392.34487	7.44760
3390.41631	7.51438
3388.48774	7.54323
3386.55918	7.55051
3384.63062	7.53313
3382.70205	7.51598
3380.77349	7.52604
3378.84492	7.54751
3376.91636	7.59406
3374.98779	7.66976
3373.05923	7.73080
3371.13066	7.73956
3369.20210	7.76349
3367.27354	7.80563
3365.34497	7.80049
3363.41641	7.79564
3361.48784	7.82941
3359.55928	7.86128
3357.63071	7.86668
3355.70215	7.88087
3353.77358	7.90942
3351.84502	7.93752
3349.91646	7.94798
3347.98789	7.96609
3346.05933	8.01611
3344.13076	8.07305
3342.20220	8.09543
3340.27363	8.04808
3338.34507	8.01532
3336.41650	8.03951
3334.48794	8.04214
3332.55937	8.03022
3330.63081	8.07574
3328.70225	8.10515
3326.77368	8.07882
3324.84512	8.05382
3322.91655	8.03388
3320.98799	8.04993
3319.05942	8.12642
3317.13086	8.28010
3315.20229	8.42653
3313.27373	8.43133
3311.34517	8.33504
3309.41660	8.24300
3307.48804	8.18210
3305.55947	8.16264
3303.63091	8.20883
3301.70234	8.25398
3299.77378	8.21800
3297.84521	8.15139
3295.91665	8.16733
3293.98809	8.16771
3292.05952	8.05309
3290.13096	8.01388
3288.20239	8.13609
3286.27383	8.25586
3284.34526	8.27899
3282.41670	8.28587
3280.48813	8.21876
3278.55957	8.08063
3276.63101	7.99185
3274.70244	8.00617
3272.77388	8.09512
3270.84531	8.16144
3268.91675	8.19229
3266.98818	8.26090
3265.05962	8.39699
3263.13105	8.47312
3261.20249	8.35356
3259.27393	8.14934
3257.34536	8.03886
3255.41680	8.06737
3253.48823	8.14692
3251.55967	8.19374
3249.63110	8.25249
3247.70254	8.37236
3245.77397	8.44153
3243.84541	8.35120
3241.91685	8.23699
3239.98828	8.22820
3238.05972	8.22138
3236.13115	8.15237
3234.20259	8.09510
3232.27402	8.04731
3230.34546	8.00276
3228.41689	7.96085
3226.48833	7.95009
3224.55977	7.98568
3222.63120	8.00069
3220.70264	8.03014
3218.77407	8.08068
3216.84551	8.03524
3214.91694	7.95838
3212.98838	7.93333
3211.05981	7.89230
3209.13125	7.79231
3207.20269	7.72130
3205.27412	7.72985
3203.34556	7.71907
3201.41699	7.64044
3199.48843	7.55863
3197.55986	7.55047
3195.63130	7.61278
3193.70273	7.62257
3191.77417	7.53943
3189.84561	7.44491
3187.91704	7.36027
3185.98848	7.28052
3184.05991	7.23906
3182.13135	7.22476
3180.20278	7.17191
3178.27422	7.08054
3176.34565	7.01944
3174.41709	6.99823
3172.48853	6.97420
3170.55996	6.91024
3168.63140	6.82531
3166.70283	6.78010
3164.77427	6.75719
3162.84570	6.70080
3160.91714	6.60746
3158.98857	6.51584
3157.06001	6.44980
3155.13145	6.39426
3153.20288	6.34091
3151.27432	6.28581
3149.34575	6.21234
3147.41719	6.12040
3145.48862	6.03453
3143.56006	5.97041
3141.63149	5.92093
3139.70293	5.86615
3137.77437	5.79645
3135.84580	5.72218
3133.91724	5.64706
3131.98867	5.56985
3130.06011	5.49967
3128.13154	5.43939
3126.20298	5.37749
3124.27441	5.30586
3122.34585	5.22954
3120.41729	5.15742
3118.48872	5.09113
3116.56016	5.02495
3114.63159	4.95388
3112.70303	4.88041
3110.77446	4.81194
3108.84590	4.75130
3106.91733	4.69246
3104.98877	4.62785
3103.06021	4.56069
3101.13164	4.49755
3099.20308	4.43718
3097.27451	4.37499
3095.34595	4.30789
3093.41738	4.23819
3091.48882	4.17258
3089.56025	4.11386
3087.63169	4.05810
3085.70312	4.00016
3083.77456	3.93951
3081.84600	3.87847
3079.91743	3.81736
3077.98887	3.75644
3076.06030	3.69666
3074.13174	3.63834
3072.20317	3.58300
3070.27461	3.53003
3068.34604	3.47530
3066.41748	3.41839
3064.48892	3.36351
3062.56035	3.31192
3060.63179	3.26023
3058.70322	3.20598
3056.77466	3.15208
3054.84609	3.10165
3052.91753	3.05265
3050.98896	3.00266
3049.06040	2.95185
3047.13184	2.90190
3045.20327	2.85394
3043.27471	2.80719
3041.34614	2.76055
3039.41758	2.71403
3037.48901	2.66838
3035.56045	2.62359
3033.63188	2.57954
3031.70332	2.53642
3029.77476	2.49355
3027.84619	2.45068
3025.91763	2.40834
3023.98906	2.36677
3022.06050	2.32555
3020.13193	2.28465
3018.20337	2.24457
3016.27480	2.20514
3014.34624	2.16657
3012.41768	2.12900
3010.48911	2.09160
3008.56055	2.05453
3006.63198	2.01880
3004.70342	1.98468
3002.77485	1.95146
3000.84629	1.91807
2998.91772	1.88481
2996.98916	1.85280
2995.06060	1.82173
2993.13203	1.79099
2991.20347	1.76105
2989.27490	1.73177
2987.34634	1.70289
2985.41777	1.67497
2983.48921	1.64800
2981.56064	1.62134
2979.63208	1.59474
2977.70352	1.56842
2975.77495	1.54269
2973.84639	1.51782
2971.91782	1.49347
2969.98926	1.46897
2968.06069	1.44471
2966.13213	1.42131
2964.20356	1.39786
2962.27500	1.37385
2960.34644	1.35008
2958.41787	1.32674
2956.48931	1.30333
2954.56074	1.27986
2952.63218	1.25661
2950.70361	1.23370
2948.77505	1.21107
2946.84648	1.18878
2944.91792	1.16718
2942.98936	1.14662
2941.06079	1.12681
2939.13223	1.10667
2937.20366	1.08580
2935.27510	1.06511
2933.34653	1.04518
2931.41797	1.02543
2929.48940	1.00531
2927.56084	0.98530
2925.63228	0.96594
2923.70371	0.94736
2921.77515	0.92977
2919.84658	0.91348
2917.91802	0.89832
2915.98945	0.88367
2914.06089	0.86895
2912.13232	0.85400
2910.20376	0.83917
2908.27520	0.82460
2906.34663	0.81045
2904.41807	0.79680
2902.48950	0.78362
2900.56094	0.77077
2898.63237	0.75786
2896.70381	0.74494
2894.77524	0.73252
2892.84668	0.72067
2890.91812	0.70917
2888.98955	0.69803
2887.06099	0.68736
2885.13242	0.67731
2883.20386	0.66771
2881.27529	0.65818
2879.34673	0.64869
2877.41816	0.63933
2875.48960	0.62986
2873.56104	0.61974
2871.63247	0.60894
2869.70391	0.59796
2867.77534	0.58673
2865.84678	0.57507
2863.91821	0.56326
2861.98965	0.55148
2860.06108	0.54006
2858.13252	0.52931
2856.20396	0.51904
2854.27539	0.50919
2852.34683	0.50038
2850.41826	0.49280
2848.48970	0.48573
2846.56113	0.47873
2844.63257	0.47212
2842.70400	0.46602
2840.77544	0.46033
2838.84687	0.45479
2836.91831	0.44927
2834.98975	0.44371
2833.06118	0.43809
2831.13262	0.43237
2829.20405	0.42668
2827.27549	0.42109
2825.34692	0.41544
2823.41836	0.40966
2821.48979	0.40407
2819.56123	0.39852
2817.63267	0.39269
2815.70410	0.38703
2813.77554	0.38189
2811.84697	0.37677
2809.91841	0.37132
2807.98984	0.36585
2806.06128	0.36057
2804.13271	0.35540
2802.20415	0.35046
2800.27559	0.34572
2798.34702	0.34094
2796.41846	0.33602
2794.48989	0.33118
2792.56133	0.32668
2790.63276	0.32241
2788.70420	0.31803
2786.77563	0.31353
2784.84707	0.30907
2782.91851	0.30475
2780.98994	0.30062
2779.06138	0.29676
2777.13281	0.29306
2775.20425	0.28938
2773.27568	0.28574
2771.34712	0.28214
2769.41855	0.27853
2767.48999	0.27491
2765.56143	0.27137
2763.63286	0.26787
2761.70430	0.26448
2759.77573	0.26122
2757.84717	0.25801
2755.91860	0.25484
2753.99004	0.25174
2752.06147	0.24879
2750.13291	0.24595
2748.20435	0.24317
2746.27578	0.24044
2744.34722	0.23767
2742.41865	0.23484
2740.49009	0.23207
2738.56152	0.22947
2736.63296	0.22698
2734.70439	0.22455
2732.77583	0.22215
2730.84727	0.21972
2728.91870	0.21741
2726.99014	0.21530
2725.06157	0.21312
2723.13301	0.21081
2721.20444	0.20863
2719.27588	0.20663
2717.34731	0.20470
2715.41875	0.20284
2713.49019	0.20099
2711.56162	0.19916
2709.63306	0.19738
2707.70449	0.19563
2705.77593	0.19402
2703.84736	0.19254
2701.91880	0.19101
2699.99023	0.18943
2698.06167	0.18789
2696.13311	0.18644
2694.20454	0.18503
2692.27598	0.18356
2690.34741	0.18209
2688.41885	0.18082
2686.49028	0.17980
2684.56172	0.17882
2682.63315	0.17757
2680.70459	0.17613
2678.77603	0.17480
2676.84746	0.17363
2674.91890	0.17256
2672.99033	0.17145
2671.06177	0.17038
2669.13320	0.16959
2667.20464	0.16888
2665.27607	0.16797
2663.34751	0.16699
2661.41895	0.16612
2659.49038	0.16520
2657.56182	0.16427
2655.63325	0.16348
2653.70469	0.16281
2651.77612	0.16211
2649.84756	0.16139
2647.91899	0.16071
2645.99043	0.16011
2644.06187	0.15965
2642.13330	0.15930
2640.20474	0.15886
2638.27617	0.15816
2636.34761	0.15730
2634.41904	0.15666
2632.49048	0.15638
2630.56191	0.15617
2628.63335	0.15582
2626.70479	0.15546
2624.77622	0.15511
2622.84766	0.15473
2620.91909	0.15439
2618.99053	0.15411
2617.06196	0.15391
2615.13340	0.15375
2613.20483	0.15353
2611.27627	0.15320
2609.34771	0.15293
2607.41914	0.15275
2605.49058	0.15257
2603.56201	0.15242
2601.63345	0.15239
2599.70488	0.15242
2597.77632	0.15243
2595.84775	0.15245
2593.91919	0.15248
2591.99062	0.15252
2590.06206	0.15261
2588.13350	0.15279
2586.20493	0.15300
2584.27637	0.15317
2582.34780	0.15328
2580.41924	0.15336
2578.49067	0.15351
2576.56211	0.15372
2574.63354	0.15388
2572.70498	0.15405
2570.77642	0.15435
2568.84785	0.15479
2566.91929	0.15527
2564.99072	0.15573
2563.06216	0.15609
2561.13359	0.15633
2559.20503	0.15660
2557.27646	0.15691
2555.34790	0.15724
2553.41934	0.15776
2551.49077	0.15842
2549.56221	0.15886
2547.63364	0.15918
2545.70508	0.15980
2543.77651	0.16063
2541.84795	0.16123
2539.91938	0.16161
2537.99082	0.16203
2536.06226	0.16256
2534.13369	0.16319
2532.20513	0.16387
2530.27656	0.16448
2528.34800	0.16501
2526.41943	0.16568
2524.49087	0.16650
2522.56230	0.16717
2520.63374	0.16763
2518.70518	0.16822
2516.77661	0.16906
2514.84805	0.16992
2512.91948	0.17070
2510.99092	0.17147
2509.06235	0.17222
2507.13379	0.17298
2505.20522	0.17373
2503.27666	0.17440
2501.34810	0.17509
2499.41953	0.17581
2497.49097	0.17648
2495.56240	0.17725
2493.63384	0.17812
2491.70527	0.17899
2489.77671	0.17995
2487.84814	0.18091
2485.91958	0.18164
2483.99102	0.18227
2482.06245	0.18301
2480.13389	0.18387
2478.20532	0.18480
2476.27676	0.18562
2474.34819	0.18633
2472.41963	0.18715
2470.49106	0.18807
2468.56250	0.18894
2466.63394	0.18977
2464.70537	0.19060
2462.77681	0.19147
2460.84824	0.19248
2458.91968	0.19357
2456.99111	0.19457
2455.06255	0.19547
2453.13398	0.19636
2451.20542	0.19732
2449.27686	0.19829
2447.34829	0.19923
2445.41973	0.20016
2443.49116	0.20101
2441.56260	0.20185
2439.63403	0.20284
2437.70547	0.20385
2435.77690	0.20480
2433.84834	0.20583
2431.91978	0.20691
2429.99121	0.20787
2428.06265	0.20879
2426.13408	0.20980
2424.20552	0.21077
2422.27695	0.21168
2420.34839	0.21269
2418.41982	0.21385
2416.49126	0.21512
2414.56270	0.21634
2412.63413	0.21740
2410.70557	0.21847
2408.77700	0.21967
2406.84844	0.22087
2404.91987	0.22206
2402.99131	0.22327
2401.06274	0.22435
2399.13418	0.22530
2397.20562	0.22636
2395.27705	0.22754
2393.34849	0.22868
2391.41992	0.22997
2389.49136	0.23142
2387.56279	0.23282
2385.63423	0.23426
2383.70566	0.23605
2381.77710	0.23813
2379.84854	0.24023
2377.91997	0.24241
2375.99141	0.24476
2374.06284	0.24717
2372.13428	0.24951
2370.20571	0.25198
2368.27715	0.25498
2366.34858	0.25853
2364.42002	0.26197
2362.49146	0.26508
2360.56289	0.26751
2358.63433	0.26898
2356.70576	0.27008
2354.77720	0.27033
2352.84863	0.26980
2350.92007	0.26908
2348.99150	0.26853
2347.06294	0.26908
2345.13437	0.27148
2343.20581	0.27470
2341.27725	0.27680
2339.34868	0.27809
2337.42012	0.27964
2335.49155	0.28157
2333.56299	0.28325
2331.63442	0.28464
2329.70586	0.28573
2327.77729	0.28653
2325.84873	0.28766
2323.92017	0.28912
2321.99160	0.29048
2320.06304	0.29170
2318.13447	0.29285
2316.20591	0.29379
2314.27734	0.29463
2312.34878	0.29569
2310.42021	0.29701
2308.49165	0.29827
2306.56309	0.29943
2304.63452	0.30070
2302.70596	0.30207
2300.77739	0.30345
2298.84883	0.30487
2296.92026	0.30644
2294.99170	0.30817
2293.06313	0.30995
2291.13457	0.31159
2289.20601	0.31317
2287.27744	0.31482
2285.34888	0.31649
2283.42031	0.31823
2281.49175	0.32016
2279.56318	0.32226
2277.63462	0.32441
2275.70605	0.32656
2273.77749	0.32863
2271.84893	0.33058
2269.92036	0.33252
2267.99180	0.33452
2266.06323	0.33655
2264.13467	0.33858
2262.20610	0.34066
2260.27754	0.34275
2258.34897	0.34488
2256.42041	0.34700
2254.49185	0.34901
2252.56328	0.35092
2250.63472	0.35293
2248.70615	0.35513
2246.77759	0.35733
2244.84902	0.35940
2242.92046	0.36148
2240.99189	0.36370
2239.06333	0.36597
2237.13477	0.36819
2235.20620	0.37032
2233.27764	0.37248
2231.34907	0.37467
2229.42051	0.37680
2227.49194	0.37894
2225.56338	0.38120
2223.63481	0.38346
2221.70625	0.38558
2219.77769	0.38767
2217.84912	0.38983
2215.92056	0.39204
2213.99199	0.39419
2212.06343	0.39624
2210.13486	0.39824
2208.20630	0.40026
2206.27773	0.40230
2204.34917	0.40430
2202.42061	0.40637
2200.49204	0.40857
2198.56348	0.41070
2196.63491	0.41264
2194.70635	0.41457
2192.77778	0.41651
2190.84922	0.41839
2188.92065	0.42020
2186.99209	0.42189
2185.06353	0.42359
2183.13496	0.42534
2181.20640	0.42700
2179.27783	0.42852
2177.34927	0.43001
2175.42070	0.43156
2173.49214	0.43314
2171.56357	0.43457
2169.63501	0.43587
2167.70645	0.43715
2165.77788	0.43849
2163.84932	0.43982
2161.92075	0.44108
2159.99219	0.44225
2158.06362	0.44328
2156.13506	0.44419
2154.20649	0.44505
2152.27793	0.44590
2150.34937	0.44669
2148.42080	0.44734
2146.49224	0.44795
2144.56367	0.44852
2142.63511	0.44899
2140.70654	0.44940
2138.77798	0.44988
2136.84941	0.45027
2134.92085	0.45042
2132.99229	0.45051
2131.06372	0.45065
2129.13516	0.45061
2127.20659	0.45034
2125.27803	0.45002
2123.34946	0.44976
2121.42090	0.44944
2119.49233	0.44892
2117.56377	0.44830
2115.63521	0.44765
2113.70664	0.44700
2111.77808	0.44626
2109.84951	0.44543
2107.92095	0.44458
2105.99238	0.44361
2104.06382	0.44241
2102.13525	0.44110
2100.20669	0.43992
2098.27812	0.43877
2096.34956	0.43744
2094.42100	0.43590
2092.49243	0.43433
2090.56387	0.43291
2088.63530	0.43147
2086.70674	0.42981
2084.77817	0.42792
2082.84961	0.42600
2080.92104	0.42414
2078.99248	0.42229
2077.06392	0.42039
2075.13535	0.41840
2073.20679	0.41637
2071.27822	0.41431
2069.34966	0.41220
2067.42109	0.41008
2065.49253	0.40799
2063.56396	0.40568
2061.63540	0.40318
2059.70684	0.40077
2057.77827	0.39840
2055.84971	0.39593
2053.92114	0.39343
2051.99258	0.39099
2050.06401	0.38860
2048.13545	0.38610
2046.20688	0.38336
2044.27832	0.38065
2042.34976	0.37817
2040.42119	0.37569
2038.49263	0.37298
2036.56406	0.37018
2034.63550	0.36749
2032.70693	0.36484
2030.77837	0.36211
2028.84980	0.35940
2026.92124	0.35674
2024.99268	0.35405
2023.06411	0.35137
2021.13555	0.34882
2019.20698	0.34636
2017.27842	0.34377
2015.34985	0.34090
2013.42129	0.33800
2011.49272	0.33530
2009.56416	0.33265
2007.63560	0.32986
2005.70703	0.32709
2003.77847	0.32454
2001.84990	0.32206
1999.92134	0.31953
1997.99277	0.31698
1996.06421	0.31445
1994.13564	0.31218
1992.20708	0.31008
1990.27852	0.30758
1988.34995	0.30484
1986.42139	0.30224
1984.49282	0.29972
1982.56426	0.29731
1980.63569	0.29493
1978.70713	0.29263
1976.77856	0.29051
1974.85000	0.28843
1972.92144	0.28625
1970.99287	0.28411
1969.06431	0.28225
1967.13574	0.28059
1965.20718	0.27863
1963.27861	0.27637
1961.35005	0.27416
1959.42148	0.27204
1957.49292	0.27010
1955.56436	0.26834
1953.63579	0.26663
1951.70723	0.26492
1949.77866	0.26330
1947.85010	0.26184
1945.92153	0.26062
1943.99297	0.25959
1942.06440	0.25822
1940.13584	0.25622
1938.20728	0.25425
1936.27871	0.25273
1934.35015	0.25152
1932.42158	0.25036
1930.49302	0.24908
1928.56445	0.24785
1926.63589	0.24685
1924.70732	0.24616
1922.77876	0.24556
1920.85020	0.24465
1918.92163	0.24370
1916.99307	0.24273
1915.06450	0.24148
1913.13594	0.24041
1911.20737	0.23991
1909.27881	0.23947
1907.35024	0.23861
1905.42168	0.23759
1903.49312	0.23677
1901.56455	0.23609
1899.63599	0.23552
1897.70742	0.23525
1895.77886	0.23518
1893.85029	0.23489
1891.92173	0.23447
1889.99316	0.23438
1888.06460	0.23406
1886.13604	0.23341
1884.20747	0.23298
1882.27891	0.23273
1880.35034	0.23256
1878.42178	0.23246
1876.49321	0.23241
1874.56465	0.23237
1872.63608	0.23266
1870.70752	0.23367
1868.77896	0.23516
1866.85039	0.23538
1864.92183	0.23428
1862.99326	0.23358
1861.06470	0.23357
1859.13613	0.23381
1857.20757	0.23408
1855.27900	0.23449
1853.35044	0.23495
1851.42187	0.23550
1849.49331	0.23633
1847.56475	0.23754
1845.63618	0.23910
1843.70762	0.24042
1841.77905	0.24054
1839.85049	0.24024
1837.92192	0.24077
1835.99336	0.24172
1834.06479	0.24267
1832.13623	0.24409
1830.20767	0.24633
1828.27910	0.24799
1826.35054	0.24862
1824.42197	0.24954
1822.49341	0.25034
1820.56484	0.25109
1818.63628	0.25234
1816.70771	0.25399
1814.77915	0.25559
1812.85059	0.25745
1810.92202	0.25978
1808.99346	0.26187
1807.06489	0.26348
1805.13633	0.26513
1803.20776	0.26754
1801.27920	0.27063
1799.35063	0.27364
1797.42207	0.27591
1795.49351	0.27831
1793.56494	0.28166
1791.63638	0.28564
1789.70781	0.28833
1787.77925	0.28994
1785.85068	0.29265
1783.92212	0.29640
1781.99355	0.30057
1780.06499	0.30483
1778.13643	0.30891
1776.20786	0.31296
1774.27930	0.31801
1772.35073	0.32486
1770.42217	0.33110
1768.49360	0.33531
1766.56504	0.33934
1764.63647	0.34410
1762.70791	0.35011
1760.77935	0.35770
1758.85078	0.36438
1756.92222	0.37103
1754.99365	0.37840
1753.06509	0.38557
1751.13652	0.39472
1749.20796	0.40587
1747.27939	0.41590
1745.35083	0.42434
1743.42227	0.43347
1741.49370	0.44370
1739.56514	0.45587
1737.63657	0.46816
1735.70801	0.47945
1733.77944	0.49664
1731.85088	0.51579
1729.92231	0.52990
1727.99375	0.54433
1726.06519	0.56034
1724.13662	0.57846
1722.20806	0.59845
1720.27949	0.61750
1718.35093	0.64054
1716.42236	0.67335
1714.49380	0.70247
1712.56523	0.72563
1710.63667	0.74892
1708.70811	0.77481
1706.77954	0.80473
1704.85098	0.84037
1702.92241	0.87201
1700.99385	0.90394
1699.06528	0.95212
1697.13672	0.99612
1695.20815	1.04030
1693.27959	1.08310
1691.35103	1.11843
1689.42246	1.16017
1687.49390	1.20474
1685.56533	1.24861
1683.63677	1.31686
1681.70820	1.38642
1679.77964	1.42958
1677.85107	1.47106
1675.92251	1.52004
1673.99395	1.58152
1672.06538	1.63685
1670.13682	1.69126
1668.20825	1.76083
1666.27969	1.81740
1664.35112	1.86746
1662.42256	1.93259
1660.49399	2.00603
1658.56543	2.06247
1656.63687	2.10793
1654.70830	2.15030
1652.77974	2.21573
1650.85117	2.27507
1648.92261	2.29559
1646.99404	2.32144
1645.06548	2.34607
1643.13691	2.36147
1641.20835	2.37074
1639.27979	2.37940
1637.35122	2.38569
1635.42266	2.38694
1633.49409	2.37652
1631.56553	2.35832
1629.63696	2.33905
1627.70840	2.31012
1625.77983	2.27534
1623.85127	2.22838
1621.92271	2.17146
1619.99414	2.12320
1618.06558	2.07767
1616.13701	2.01119
1614.20845	1.94050
1612.27988	1.88683
1610.35132	1.83356
1608.42275	1.77636
1606.49419	1.71912
1604.56562	1.66676
1602.63706	1.61674
1600.70850	1.56777
1598.77993	1.52265
1596.85137	1.48025
1594.92280	1.43898
1592.99424	1.39912
1591.06567	1.36252
1589.13711	1.32844
1587.20854	1.29736
1585.27998	1.26913
1583.35142	1.24301
1581.42285	1.21954
1579.49429	1.20009
1577.56572	1.18350
1575.63716	1.16328
1573.70859	1.14462
1571.78003	1.13312
1569.85146	1.12316
1567.92290	1.11239
1565.99434	1.10434
1564.06577	1.09933
1562.13721	1.09653
1560.20864	1.09728
1558.28008	1.10369
1556.35151	1.10861
1554.42295	1.11073
1552.49438	1.11305
1550.56582	1.11372
1548.63726	1.11201
1546.70869	1.10804
1544.78013	1.10110
1542.85156	1.09059
1540.92300	1.07344
1538.99443	1.04302
1537.06587	1.01852
1535.13730	1.00229
1533.20874	0.98158
1531.28018	0.95869
1529.35161	0.94195
1527.42305	0.92710
1525.49448	0.91192
1523.56592	0.89915
1521.63735	0.88748
1519.70879	0.87503
1517.78022	0.86403
1515.85166	0.85113
1513.92310	0.83717
1511.99453	0.82539
1510.06597	0.81585
1508.13740	0.80768
1506.20884	0.79225
1504.28027	0.77555
1502.35171	0.76630
1500.42314	0.75971
1498.49458	0.75339
1496.56602	0.74528
1494.63745	0.73630
1492.70889	0.72977
1490.78032	0.72527
1488.85176	0.71987
1486.92319	0.71315
1484.99463	0.70765
1483.06606	0.70409
1481.13750	0.70172
1479.20894	0.70011
1477.28037	0.69970
1475.35181	0.70070
1473.42324	0.70226
1471.49468	0.70159
1469.56611	0.69838
1467.63755	0.69544
1465.70898	0.69361
1463.78042	0.69213
1461.85186	0.69107
1459.92329	0.69173
1457.99473	0.69418
1456.06616	0.69446
1454.13760	0.69035
1452.20903	0.68620
1450.28047	0.68293
1448.35190	0.68025
1446.42334	0.67732
1444.49478	0.67413
1442.56621	0.67108
1440.63765	0.66817
1438.70908	0.66551
1436.78052	0.66229
1434.85195	0.65814
1432.92339	0.65461
1430.99482	0.65229
1429.06626	0.65098
1427.13770	0.65055
1425.20913	0.65105
1423.28057	0.65215
1421.35200	0.65313
1419.42344	0.65407
1417.49487	0.65412
1415.56631	0.65263
1413.63774	0.65145
1411.70918	0.65147
1409.78062	0.65253
1407.85205	0.65428
1405.92349	0.65655
1403.99492	0.65841
1402.06636	0.65904
1400.13779	0.65915
1398.20923	0.65863
1396.28066	0.65653
1394.35210	0.65250
1392.42354	0.64728
1390.49497	0.64250
1388.56641	0.63829
1386.63784	0.63326
1384.70928	0.62713
1382.78071	0.62115
1380.85215	0.61591
1378.92358	0.61177
1376.99502	0.60895
1375.06646	0.60714
1373.13789	0.60551
1371.20933	0.60395
1369.28076	0.60289
1367.35220	0.60176
1365.42363	0.60040
1363.49507	0.59939
1361.56650	0.59820
1359.63794	0.59632
1357.70937	0.59461
1355.78081	0.59334
1353.85225	0.59225
1351.92368	0.59133
1349.99512	0.59072
1348.06655	0.59015
1346.13799	0.58941
1344.20942	0.58865
1342.28086	0.58818
1340.35229	0.58812
1338.42373	0.58798
1336.49517	0.58724
1334.56660	0.58650
1332.63804	0.58629
1330.70947	0.58649
1328.78091	0.58694
1326.85234	0.58756
1324.92378	0.58829
1322.99521	0.58910
1321.06665	0.58999
1319.13809	0.59080
1317.20952	0.59133
1315.28096	0.59159
1313.35239	0.59157
1311.42383	0.59124
1309.49526	0.59082
1307.56670	0.59037
1305.63813	0.58983
1303.70957	0.58929
1301.78101	0.58879
1299.85244	0.58812
1297.92388	0.58721
1295.99531	0.58605
1294.06675	0.58474
1292.13818	0.58347
1290.20962	0.58229
1288.28105	0.58112
1286.35249	0.57979
1284.42393	0.57832
1282.49536	0.57688
1280.56680	0.57558
1278.63823	0.57432
1276.70967	0.57302
1274.78110	0.57182
1272.85254	0.57082
1270.92397	0.57001
1268.99541	0.56928
1267.06685	0.56847
1265.13828	0.56762
1263.20972	0.56677
1261.28115	0.56589
1259.35259	0.56504
1257.42402	0.56444
1255.49546	0.56420
1253.56689	0.56422
1251.63833	0.56442
1249.70977	0.56470
1247.78120	0.56476
1245.85264	0.56452
1243.92407	0.56403
1241.99551	0.56326
1240.06694	0.56203
1238.13838	0.56023
1236.20981	0.55806
1234.28125	0.55584
1232.35269	0.55363
1230.42412	0.55133
1228.49556	0.54915
1226.56699	0.54723
1224.63843	0.54537
1222.70986	0.54344
1220.78130	0.54169
1218.85273	0.54035
1216.92417	0.53924
1214.99561	0.53808
1213.06704	0.53700
1211.13848	0.53622
1209.20991	0.53562
1207.28135	0.53498
1205.35278	0.53410
1203.42422	0.53304
1201.49565	0.53200
1199.56709	0.53114
1197.63853	0.53055
1195.70996	0.53012
1193.78140	0.52968
1191.85283	0.52919
1189.92427	0.52884
1187.99570	0.52864
1186.06714	0.52854
1184.13857	0.52867
1182.21001	0.52909
1180.28145	0.52990
1178.35288	0.53117
1176.42432	0.53268
1174.49575	0.53408
1172.56719	0.53512
1170.63862	0.53568
1168.71006	0.53583
1166.78149	0.53565
1164.85293	0.53532
1162.92437	0.53502
1160.99580	0.53464
1159.06724	0.53403
1157.13867	0.53323
1155.21011	0.53232
1153.28154	0.53111
1151.35298	0.52940
1149.42441	0.52726
1147.49585	0.52476
1145.56729	0.52204
1143.63872	0.51937
1141.71016	0.51686
1139.78159	0.51468
1137.85303	0.51314
1135.92446	0.51210
1133.99590	0.51116
1132.06733	0.51046
1130.13877	0.51015
1128.21021	0.50983
1126.28164	0.50909
1124.35308	0.50810
1122.42451	0.50728
1120.49595	0.50688
1118.56738	0.50690
1116.63882	0.50712
1114.71025	0.50724
1112.78169	0.50725
1110.85312	0.50754
1108.92456	0.50823
1106.99600	0.50914
1105.06743	0.51029
1103.13887	0.51173
1101.21030	0.51339
1099.28174	0.51531
1097.35317	0.51772
1095.42461	0.52056
1093.49604	0.52396
1091.56748	0.52839
1089.63892	0.53378
1087.71035	0.53973
1085.78179	0.54621
1083.85322	0.55303
1081.92466	0.55958
1079.99609	0.56482
1078.06753	0.56767
1076.13896	0.56781
1074.21040	0.56558
1072.28184	0.56116
1070.35327	0.55497
1068.42471	0.54805
1066.49614	0.54133
1064.56758	0.53512
1062.63901	0.52928
1060.71045	0.52398
1058.78188	0.51951
1056.85332	0.51554
1054.92476	0.51168
1052.99619	0.50812
1051.06763	0.50521
1049.13906	0.50291
1047.21050	0.50097
1045.28193	0.49930
1043.35337	0.49788
1041.42480	0.49672
1039.49624	0.49582
1037.56768	0.49514
1035.63911	0.49470
1033.71055	0.49429
1031.78198	0.49370
1029.85342	0.49295
1027.92485	0.49217
1025.99629	0.49151
1024.06772	0.49107
1022.13916	0.49094
1020.21060	0.49115
1018.28203	0.49156
1016.35347	0.49200
1014.42490	0.49246
1012.49634	0.49306
1010.56777	0.49392
1008.63921	0.49504
1006.71064	0.49641
1004.78208	0.49803
1002.85352	0.49993
1000.92495	0.50237
998.99639	0.50564
997.06782	0.50958
995.13926	0.51365
993.21069	0.51761
991.28213	0.52115
989.35356	0.52368
987.42500	0.52505
985.49644	0.52566
983.56787	0.52597
981.63931	0.52647
979.71074	0.52738
977.78218	0.52880
975.85361	0.53069
973.92505	0.53299
971.99648	0.53571
970.06792	0.53893
968.13936	0.54251
966.21079	0.54632
964.28223	0.55063
962.35366	0.55533
960.42510	0.56020
958.49653	0.56559
956.56797	0.57150
954.63940	0.57738
952.71084	0.58308
950.78228	0.58914
948.85371	0.59555
946.92515	0.60188
944.99658	0.60798
943.06802	0.61388
941.13945	0.61959
939.21089	0.62537
937.28232	0.63154
935.35376	0.63785
933.42520	0.64372
931.49663	0.64870
929.56807	0.65321
927.63950	0.65834
925.71094	0.66429
923.78237	0.67038
921.85381	0.67656
919.92524	0.68301
917.99668	0.68952
916.06812	0.69609
914.13955	0.70293
912.21099	0.71024
910.28242	0.71820
908.35386	0.72683
906.42529	0.73604
904.49673	0.74513
902.56816	0.75357
900.63960	0.76217
898.71104	0.77136
896.78247	0.78087
894.85391	0.79090
892.92534	0.80080
890.99678	0.80988
889.06821	0.81913
887.13965	0.82952
885.21108	0.84116
883.28252	0.85306
881.35396	0.86447
879.42539	0.87660
877.49683	0.88957
875.56826	0.90181
873.63970	0.91310
871.71113	0.92426
869.78257	0.93508
867.85400	0.94516
865.92544	0.95544
863.99687	0.96642
862.06831	0.97805
860.13975	0.99021
858.21118	1.00136
856.28262	1.01162
854.35405	1.02241
852.42549	1.03333
850.49692	1.04444
848.56836	1.05653
846.63979	1.07005
844.71123	1.08416
842.78267	1.09644
840.85410	1.10683
838.92554	1.11761
836.99697	1.12865
835.06841	1.13884
833.13984	1.15038
831.21128	1.16396
829.28271	1.17770
827.35415	1.18823
825.42559	1.19707
823.49702	1.21280
821.56846	1.23008
819.63989	1.24054
817.71133	1.24668
815.78276	1.25087
813.85420	1.25914
811.92563	1.27368
809.99707	1.28483
808.06851	1.28370
806.13994	1.27881
804.21138	1.28676
802.28281	1.31154
800.35425	1.34089
798.42568	1.36473
796.49712	1.36689
794.56855	1.35748
792.63999	1.38878
790.71143	1.45304
788.78286	1.48143
786.85430	1.45246
784.92573	1.40429
782.99717	1.37717
781.06860	1.38601
779.14004	1.40361
777.21147	1.42340
775.28291	1.48800
773.35435	1.52916
771.42578	1.50094
769.49722	1.54429
767.56865	1.63967
765.64009	1.57213
763.71152	1.43705
761.78296	1.34441
759.85439	1.30295
757.92583	1.28984
755.99727	1.25503
754.06870	1.20881
752.14014	1.16090
750.21157	1.09952
748.28301	1.01666
746.35444	0.98138
744.42588	1.05761
742.49731	1.24575
740.56875	1.57487
738.64019	4.43184
736.71162	4.42027
734.78306	1.13851
732.85449	0.87750
730.92593	0.80003
728.99736	0.77335
727.06880	0.81396
725.14023	0.65631
723.21167	0.42986
721.28311	0.33324
719.35454	0.27674
717.42598	0.24364
715.49741	0.27844
713.56885	0.17770
711.64028	-0.05381
709.71172	-0.20602
707.78315	-0.04471
705.85459	0.48331
703.92603	0.86617
701.99746	0.80956
700.06890	0.59878
698.14033	0.57206
696.21177	0.63569
694.28320	0.57013
692.35464	0.56041
690.42607	0.59758
688.49751	0.46488
686.56895	0.34989
684.64038	0.36557
682.71182	0.37970
680.78325	0.28811
678.85469	0.25841
676.92612	0.43578
674.99756	1.46367
673.06899	4.03841
671.14043	0.73963
669.21187	0.63569
667.28330	0.80587
665.35474	1.19572
663.42617	3.98056
661.49761	0.65776
659.56904	0.34165
657.64048	0.31824
655.71191	0.58515
653.78335	0.82400
651.85479	0.66420
649.92622	0.52358
647.99766	0.48889
646.06909	0.51003
644.14053	0.45583
642.21196	0.31598
640.28340	0.27267
638.35483	0.39905
636.42627	0.49758
634.49771	0.38518
632.56914	0.32398
630.64058	0.44542
628.71201	0.48505
626.78345	0.36641
624.85488	0.37685
622.92632	0.54821
620.99775	0.50829
619.06919	0.36310
617.14062	0.32801
615.21206	0.35184
613.28350	0.36225
611.35493	0.28509
609.42637	0.19562
607.49780	0.17518
605.56924	0.21898
603.64067	0.26806
601.71211	0.30027
599.78354	0.27789
597.85498	0.21076
595.92642	0.21115
593.99785	0.29157
592.06929	0.38986
590.14072	0.40908
588.21216	0.34878
586.28359	0.29348
584.35503	0.29025
582.42646	0.33885
580.49790	0.42247
578.56934	0.52316
576.64077	0.51315
574.71221	0.39629
572.78364	0.27820
570.85508	0.15596
568.92651	0.06750
566.99795	0.06800
565.06938	0.13423
563.14082	0.21195
561.21226	0.27632
559.28369	0.26887
557.35513	0.21142
555.42656	0.20158
553.49800	0.27282
551.56943	0.35672
549.64087	0.30052
547.71230	0.19267
545.78374	0.16826
543.85518	0.23542
541.92661	0.30825
539.99805	0.27343
538.06948	0.23980
536.14092	0.22739
534.21235	0.18514
532.28379	0.14760
530.35522	0.13953
528.42666	0.15799
526.49810	0.21770
524.56953	0.27307
522.64097	0.24794
520.71240	0.19887
518.78384	0.24478
516.85527	0.32719
514.92671	0.26735
512.99814	0.16984
511.06958	0.15877
509.14102	0.24550
507.21245	0.39117
505.28389	0.61638
503.35532	1.43107
501.42676	0.80870
499.49819	0.46322
