3997.91411	0.07237
3995.98555	0.07290
3994.05698	0.07362
3992.12842	0.07428
3990.19985	0.07439
3988.27129	0.07418
3986.34272	0.07445
3984.41416	0.07512
3982.48560	0.07564
3980.55703	0.07568
3978.62847	0.07515
3976.69990	0.07476
3974.77134	0.07516
3972.84277	0.07598
3970.91421	0.07640
3968.98564	0.07636
3967.05708	0.07640
3965.12852	0.07651
3963.19995	0.07651
3961.27139	0.07677
3959.34282	0.07709
3957.41426	0.07696
3955.48569	0.07678
3953.55713	0.07697
3951.62856	0.07730
3949.70000	0.07756
3947.77144	0.07762
3945.84287	0.07746
3943.91431	0.07729
3941.98574	0.07717
3940.05718	0.07687
3938.12861	0.07665
3936.20005	0.07695
3934.27148	0.07772
3932.34292	0.07839
3930.41436	0.07847
3928.48579	0.07828
3926.55723	0.07833
3924.62866	0.07851
3922.70010	0.07832
3920.77153	0.07782
3918.84297	0.07760
3916.91440	0.07770
3914.98584	0.07763
3913.05728	0.07710
3911.12871	0.07659
3909.20015	0.07651
3907.27158	0.07677
3905.34302	0.07755
3903.41445	0.07875
3901.48589	0.07929
3899.55732	0.07873
3897.62876	0.07763
3895.70020	0.07659
3893.77163	0.07638
3891.84307	0.07730
3889.91450	0.07807
3887.98594	0.07757
3886.05737	0.07746
3884.12881	0.07848
3882.20024	0.07918
3880.27168	0.07928
3878.34312	0.07878
3876.41455	0.07813
3874.48599	0.07848
3872.55742	0.07934
3870.62886	0.08006
3868.70029	0.08089
3866.77173	0.08101
3864.84316	0.08101
3862.91460	0.08160
3860.98604	0.08150
3859.05747	0.08075
3857.12891	0.08077
3855.20034	0.08209
3853.27178	0.08478
3851.34321	0.08659
3849.41465	0.08535
3847.48608	0.08394
3845.55752	0.08372
3843.62896	0.08458
3841.70039	0.08603
3839.77183	0.08780
3837.84326	0.08956
3835.91470	0.09007
3833.98613	0.08954
3832.05757	0.08919
3830.12900	0.08940
3828.20044	0.08999
3826.27187	0.09080
3824.34331	0.09166
3822.41475	0.09317
3820.48618	0.09587
3818.55762	0.09714
3816.62905	0.09666
3814.70049	0.09667
3812.77192	0.09684
3810.84336	0.09688
3808.91479	0.09728
3806.98623	0.09840
3805.05767	0.10005
3803.12910	0.10183
3801.20054	0.10409
3799.27197	0.10556
3797.34341	0.10561
3795.41484	0.10603
3793.48628	0.10664
3791.55771	0.10720
3789.62915	0.10828
3787.70059	0.10987
3785.77202	0.11172
3783.84346	0.11336
3781.91489	0.11474
3779.98633	0.11685
3778.05776	0.11924
3776.12920	0.12022
3774.20063	0.12077
3772.27207	0.12198
3770.34351	0.12409
3768.41494	0.12706
3766.48638	0.12961
3764.55781	0.13134
3762.62925	0.13291
3760.70068	0.13509
3758.77212	0.13808
3756.84355	0.14081
3754.91499	0.14271
3752.98643	0.14510
3751.05786	0.14980
3749.12930	0.15547
3747.20073	0.15828
3745.27217	0.16069
3743.34360	0.16472
3741.41504	0.16825
3739.48647	0.17130
3737.55791	0.17548
3735.62935	0.18151
3733.70078	0.18878
3731.77222	0.19474
3729.84365	0.19934
3727.91509	0.20397
3725.98652	0.20977
3724.05796	0.21646
3722.12939	0.22282
3720.20083	0.22856
3718.27227	0.23391
3716.34370	0.23953
3714.41514	0.24611
3712.48657	0.25590
3710.55801	0.27126
3708.62944	0.28744
3706.70088	0.29983
3704.77231	0.31115
3702.84375	0.32410
3700.91519	0.34077
3698.98662	0.35905
3697.05806	0.37614
3695.12949	0.39428
3693.20093	0.41408
3691.27236	0.43569
3689.34380	0.46335
3687.41523	0.49789
3685.48667	0.52854
3683.55811	0.55439
3681.62954	0.58205
3679.70098	0.61384
3677.77241	0.64774
3675.84385	0.68793
3673.91528	0.74174
3671.98672	0.78574
3670.05815	0.82461
3668.12959	0.87778
3666.20103	0.92626
3664.27246	0.96692
3662.34390	1.01120
3660.41533	1.05962
3658.48677	1.10733
3656.55820	1.15729
3654.62964	1.21256
3652.70107	1.25955
3650.77251	1.30075
3648.84395	1.35751
3646.91538	1.42721
3644.98682	1.47793
3643.05825	1.51682
3641.12969	1.55765
3639.20112	1.60331
3637.27256	1.64912
3635.34399	1.69353
3633.41543	1.73827
3631.48687	1.78030
3629.55830	1.82201
3627.62974	1.87605
3625.70117	1.92721
3623.77261	1.96170
3621.84404	1.99446
3619.91548	2.03209
3617.98691	2.07780
3616.05835	2.12239
3614.12979	2.15902
3612.20122	2.19679
3610.27266	2.23605
3608.34409	2.27670
3606.41553	2.31972
3604.48696	2.35936
3602.55840	2.39485
3600.62983	2.43330
3598.70127	2.47505
3596.77271	2.51606
3594.84414	2.55760
3592.91558	2.59879
3590.98701	2.63631
3589.05845	2.67207
3587.12988	2.71512
3585.20132	2.76207
3583.27275	2.80342
3581.34419	2.84308
3579.41562	2.88416
3577.48706	2.92613
3575.55850	2.96849
3573.62993	3.01148
3571.70137	3.05232
3569.77280	3.09140
3567.84424	3.13535
3565.91567	3.18903
3563.98711	3.23695
3562.05854	3.27509
3560.12998	3.31641
3558.20142	3.36263
3556.27285	3.40908
3554.34429	3.45299
3552.41572	3.49776
3550.48716	3.54360
3548.55859	3.58651
3546.63003	3.62770
3544.70146	3.67406
3542.77290	3.72518
3540.84434	3.77375
3538.91577	3.82032
3536.98721	3.86895
3535.05864	3.91974
3533.13008	3.96742
3531.20151	4.01203
3529.27295	4.05758
3527.34438	4.10631
3525.41582	4.15554
3523.48726	4.20458
3521.55869	4.25660
3519.63013	4.30690
3517.70156	4.35139
3515.77300	4.39267
3513.84443	4.43568
3511.91587	4.48214
3509.98730	4.53246
3508.05874	4.58516
3506.13018	4.63612
3504.20161	4.68236
3502.27305	4.72530
3500.34448	4.77128
3498.41592	4.81912
3496.48735	4.86419
3494.55879	4.91007
3492.63022	4.96012
3490.70166	5.01165
3488.77310	5.06449
3486.84453	5.11766
3484.91597	5.16754
3482.98740	5.21311
3481.05884	5.25693
3479.13027	5.30008
3477.20171	5.34334
3475.27314	5.39755
3473.34458	5.46541
3471.41602	5.52543
3469.48745	5.56695
3467.55889	5.60756
3465.63032	5.65888
3463.70176	5.71687
3461.77319	5.77324
3459.84463	5.82177
3457.91606	5.86681
3455.98750	5.91601
3454.05894	5.96233
3452.13037	6.00046
3450.20181	6.03671
3448.27324	6.07548
3446.34468	6.12440
3444.41611	6.17663
3442.48755	6.21923
3440.55898	6.25920
3438.63042	6.30971
3436.70186	6.37213
3434.77329	6.44169
3432.84473	6.50619
3430.91616	6.55811
3428.98760	6.60531
3427.05903	6.65060
3425.13047	6.70964
3423.20190	6.77946
3421.27334	6.83924
3419.34478	6.88581
3417.41621	6.92497
3415.48765	6.95799
3413.55908	6.98756
3411.63052	7.02012
3409.70195	7.05005
3407.77339	7.08562
3405.84482	7.12127
3403.91626	7.15110
3401.98770	7.17987
3400.05913	7.23323
3398.13057	7.31913
3396.20200	7.37773
3394.27344	7.40463
3392.34487	7.44644
3390.41631	7.49741
3388.48774	7.52046
3386.55918	7.54613
3384.63062	7.58365
3382.70205	7.60109
3380.77349	7.61997
3378.84492	7.66490
3376.91636	7.72611
3374.98779	7.75935
3373.05923	7.75872
3371.13066	7.76795
3369.20210	7.82684
3367.27354	7.87209
3365.34497	7.86053
3363.41641	7.85416
3361.48784	7.87163
3359.55928	7.89784
3357.63071	7.89206
3355.70215	7.88862
3353.77358	7.93630
3351.84502	7.98194
3349.91646	7.99738
3347.98789	8.02418
3346.05933	8.04427
3344.13076	8.04493
3342.20220	8.05725
3340.27363	8.07874
3338.34507	8.10421
3336.41650	8.11212
3334.48794	8.11222
3332.55937	8.10804
3330.63081	8.10381
3328.70225	8.12312
3326.77368	8.16800
3324.84512	8.19385
3322.91655	8.18094
3320.98799	8.18092
3319.05942	8.17948
3317.13086	8.17675
3315.20229	8.19132
3313.27373	8.23034
3311.34517	8.22452
3309.41660	8.11996
3307.48804	8.06953
3305.55947	8.14909
3303.63091	8.21729
3301.70234	8.18898
3299.77378	8.18592
3297.84521	8.22175
3295.91665	8.25816
3293.98809	8.30834
3292.05952	8.29915
3290.13096	8.21172
3288.20239	8.16382
3286.27383	8.18080
3284.34526	8.18760
3282.41670	8.23559
3280.48813	8.35651
3278.55957	8.40049
3276.63101	8.27057
3274.70244	8.15074
3272.77388	8.14077
3270.84531	8.18918
3268.91675	8.33499
3266.98818	8.46620
3265.05962	8.40081
3263.13105	8.27536
3261.20249	8.24733
3259.27393	8.31388
3257.34536	8.38458
3255.41680	8.37353
3253.48823	8.32519
3251.55967	8.33561
3249.63110	8.35544
3247.70254	8.31970
3245.77397	8.26763
3243.84541	8.23052
3241.91685	8.19372
3239.98828	8.14211
3238.05972	8.11496
3236.13115	8.14518
3234.20259	8.20805
3232.27402	8.29129
3230.34546	8.36940
3228.41689	8.33144
3226.48833	8.15250
3224.55977	7.95166
3222.63120	7.82976
3220.70264	7.83743
3218.77407	7.92752
3216.84551	7.98002
3214.91694	8.00166
3212.98838	8.01451
3211.05981	7.94730
3209.13125	7.87105
3207.20269	7.88430
3205.27412	7.90308
3203.34556	7.83159
3201.41699	7.73365
3199.48843	7.69791
3197.55986	7.71149
3195.63130	7.69804
3193.70273	7.65186
3191.77417	7.61224
3189.84561	7.57400
3187.91704	7.50599
3185.98848	7.41564
3184.05991	7.34882
3182.13135	7.30739
3180.20278	7.26836
3178.27422	7.22367
3176.34565	7.17097
3174.41709	7.12072
3172.48853	7.06147
3170.55996	6.96992
3168.63140	6.87767
3166.70283	6.81263
3164.77427	6.77198
3162.84570	6.74166
3160.91714	6.68292
3158.98857	6.59887
3157.06001	6.51362
3155.13145	6.43158
3153.20288	6.36857
3151.27432	6.31730
3149.34575	6.25487
3147.41719	6.18904
3145.48862	6.12316
3143.56006	6.04982
3141.63149	5.97898
3139.70293	5.91320
3137.77437	5.85170
3135.84580	5.79137
3133.91724	5.71628
3131.98867	5.62014
3130.06011	5.52412
3128.13154	5.45077
3126.20298	5.38813
3124.27441	5.32175
3122.34585	5.25820
3120.41729	5.19733
3118.48872	5.13059
3116.56016	5.05989
3114.63159	4.98969
3112.70303	4.91762
3110.77446	4.84645
3108.84590	4.77828
3106.91733	4.71027
3104.98877	4.64518
3103.06021	4.58311
3101.13164	4.51737
3099.20308	4.44864
3097.27451	4.38287
3095.34595	4.31950
3093.41738	4.25528
3091.48882	4.19222
3089.56025	4.13099
3087.63169	4.06873
3085.70312	4.00653
3083.77456	3.94583
3081.84600	3.88591
3079.91743	3.82424
3077.98887	3.76084
3076.06030	3.70064
3074.13174	3.64332
3072.20317	3.58493
3070.27461	3.52573
3068.34604	3.46796
3066.41748	3.41253
3064.48892	3.35821
3062.56035	3.30349
3060.63179	3.24978
3058.70322	3.19759
3056.77466	3.14485
3054.84609	3.09196
3052.91753	3.04071
3050.98896	2.99068
3049.06040	2.94106
3047.13184	2.89204
3045.20327	2.84321
3043.27471	2.79377
3041.34614	2.74456
3039.41758	2.69775
3037.48901	2.65367
3035.56045	2.60982
3033.63188	2.56501
3031.70332	2.52001
3029.77476	2.47587
3027.84619	2.43339
3025.91763	2.39180
3023.98906	2.35052
3022.06050	2.30997
3020.13193	2.26968
3018.20337	2.22977
3016.27480	2.19082
3014.34624	2.15232
3012.41768	2.11420
3010.48911	2.07702
3008.56055	2.04078
3006.63198	2.00509
3004.70342	1.96964
3002.77485	1.93495
3000.84629	1.90142
2998.91772	1.86830
2996.98916	1.83536
2995.06060	1.80314
2993.13203	1.77170
2991.20347	1.74083
2989.27490	1.71082
2987.34634	1.68190
2985.41777	1.65315
2983.48921	1.62391
2981.56064	1.59518
2979.63208	1.56757
2977.70352	1.54083
2975.77495	1.51485
2973.84639	1.48922
2971.91782	1.46369
2969.98926	1.43823
2968.06069	1.41270
2966.13213	1.38774
2964.20356	1.36376
2962.27500	1.34019
2960.34644	1.31686
2958.41787	1.29379
2956.48931	1.27070
2954.56074	1.24797
2952.63218	1.22592
2950.70361	1.20400
2948.77505	1.18217
2946.84648	1.16113
2944.91792	1.14047
2942.98936	1.11964
2941.06079	1.09941
2939.13223	1.08020
2937.20366	1.06126
2935.27510	1.04203
2933.34653	1.02298
2931.41797	1.00468
2929.48940	0.98680
2927.56084	0.96884
2925.63228	0.95090
2923.70371	0.93377
2921.77515	0.91758
2919.84658	0.90161
2917.91802	0.88564
2915.98945	0.87011
2914.06089	0.85492
2912.13232	0.83964
2910.20376	0.82442
2908.27520	0.80936
2906.34663	0.79462
2904.41807	0.78086
2902.48950	0.76798
2900.56094	0.75522
2898.63237	0.74261
2896.70381	0.73036
2894.77524	0.71804
2892.84668	0.70578
2890.91812	0.69404
2888.98955	0.68275
2887.06099	0.67186
2885.13242	0.66126
2883.20386	0.65068
2881.27529	0.64021
2879.34673	0.63005
2877.41816	0.62025
2875.48960	0.61061
2873.56104	0.60086
2871.63247	0.59100
2869.70391	0.58091
2867.77534	0.57050
2865.84678	0.56001
2863.91821	0.54971
2861.98965	0.53980
2860.06108	0.53016
2858.13252	0.52062
2856.20396	0.51136
2854.27539	0.50270
2852.34683	0.49456
2850.41826	0.48663
2848.48970	0.47882
2846.56113	0.47110
2844.63257	0.46358
2842.70400	0.45668
2840.77544	0.45039
2838.84687	0.44415
2836.91831	0.43787
2834.98975	0.43191
2833.06118	0.42627
2831.13262	0.42069
2829.20405	0.41491
2827.27549	0.40896
2825.34692	0.40308
2823.41836	0.39723
2821.48979	0.39131
2819.56123	0.38549
2817.63267	0.37981
2815.70410	0.37405
2813.77554	0.36843
2811.84697	0.36325
2809.91841	0.35816
2807.98984	0.35303
2806.06128	0.34812
2804.13271	0.34330
2802.20415	0.33844
2800.27559	0.33373
2798.34702	0.32910
2796.41846	0.32434
2794.48989	0.31958
2792.56133	0.31514
2790.63276	0.31097
2788.70420	0.30691
2786.77563	0.30283
2784.84707	0.29874
2782.91851	0.29478
2780.98994	0.29088
2779.06138	0.28693
2777.13281	0.28305
2775.20425	0.27934
2773.27568	0.27573
2771.34712	0.27217
2769.41855	0.26880
2767.48999	0.26550
2765.56143	0.26210
2763.63286	0.25881
2761.70430	0.25571
2759.77573	0.25257
2757.84717	0.24941
2755.91860	0.24643
2753.99004	0.24360
2752.06147	0.24074
2750.13291	0.23794
2748.20435	0.23535
2746.27578	0.23286
2744.34722	0.23029
2742.41865	0.22762
2740.49009	0.22493
2738.56152	0.22244
2736.63296	0.22008
2734.70439	0.21782
2732.77583	0.21567
2730.84727	0.21353
2728.91870	0.21136
2726.99014	0.20911
2725.06157	0.20684
2723.13301	0.20467
2721.20444	0.20272
2719.27588	0.20088
2717.34731	0.19895
2715.41875	0.19695
2713.49019	0.19499
2711.56162	0.19321
2709.63306	0.19169
2707.70449	0.19016
2705.77593	0.18849
2703.84736	0.18691
2701.91880	0.18547
2699.99023	0.18395
2698.06167	0.18242
2696.13311	0.18101
2694.20454	0.17974
2692.27598	0.17852
2690.34741	0.17730
2688.41885	0.17604
2686.49028	0.17476
2684.56172	0.17350
2682.63315	0.17232
2680.70459	0.17119
2678.77603	0.16999
2676.84746	0.16880
2674.91890	0.16777
2672.99033	0.16684
2671.06177	0.16584
2669.13320	0.16471
2667.20464	0.16356
2665.27607	0.16255
2663.34751	0.16170
2661.41895	0.16095
2659.49038	0.16025
2657.56182	0.15951
2655.63325	0.15871
2653.70469	0.15783
2651.77612	0.15704
2649.84756	0.15646
2647.91899	0.15595
2645.99043	0.15544
2644.06187	0.15498
2642.13330	0.15452
2640.20474	0.15402
2638.27617	0.15346
2636.34761	0.15292
2634.41904	0.15245
2632.49048	0.15201
2630.56191	0.15156
2628.63335	0.15117
2626.70479	0.15091
2624.77622	0.15070
2622.84766	0.15040
2620.91909	0.15006
2618.99053	0.14975
2617.06196	0.14944
2615.13340	0.14917
2613.20483	0.14899
2611.27627	0.14884
2609.34771	0.14874
2607.41914	0.14871
2605.49058	0.14877
2603.56201	0.14883
2601.63345	0.14880
2599.70488	0.14867
2597.77632	0.14858
2595.84775	0.14865
2593.91919	0.14891
2591.99062	0.14919
2590.06206	0.14932
2588.13350	0.14937
2586.20493	0.14948
2584.27637	0.14964
2582.34780	0.14982
2580.41924	0.15005
2578.49067	0.15036
2576.56211	0.15067
2574.63354	0.15092
2572.70498	0.15117
2570.77642	0.15156
2568.84785	0.15202
2566.91929	0.15234
2564.99072	0.15258
2563.06216	0.15295
2561.13359	0.15340
2559.20503	0.15389
2557.27646	0.15449
2555.34790	0.15515
2553.41934	0.15568
2551.49077	0.15616
2549.56221	0.15670
2547.63364	0.15721
2545.70508	0.15764
2543.77651	0.15804
2541.84795	0.15852
2539.91938	0.15916
2537.99082	0.15989
2536.06226	0.16060
2534.13369	0.16126
2532.20513	0.16187
2530.27656	0.16248
2528.34800	0.16317
2526.41943	0.16393
2524.49087	0.16468
2522.56230	0.16539
2520.63374	0.16602
2518.70518	0.16657
2516.77661	0.16727
2514.84805	0.16818
2512.91948	0.16916
2510.99092	0.17008
2509.06235	0.17084
2507.13379	0.17152
2505.20522	0.17233
2503.27666	0.17323
2501.34810	0.17397
2499.41953	0.17457
2497.49097	0.17530
2495.56240	0.17620
2493.63384	0.17711
2491.70527	0.17800
2489.77671	0.17886
2487.84814	0.17965
2485.91958	0.18045
2483.99102	0.18127
2482.06245	0.18210
2480.13389	0.18308
2478.20532	0.18416
2476.27676	0.18514
2474.34819	0.18601
2472.41963	0.18682
2470.49106	0.18761
2468.56250	0.18843
2466.63394	0.18929
2464.70537	0.19017
2462.77681	0.19109
2460.84824	0.19209
2458.91968	0.19301
2456.99111	0.19379
2455.06255	0.19461
2453.13398	0.19558
2451.20542	0.19675
2449.27686	0.19798
2447.34829	0.19900
2445.41973	0.19975
2443.49116	0.20055
2441.56260	0.20157
2439.63403	0.20267
2437.70547	0.20382
2435.77690	0.20495
2433.84834	0.20591
2431.91978	0.20681
2429.99121	0.20780
2428.06265	0.20882
2426.13408	0.20990
2424.20552	0.21093
2422.27695	0.21190
2420.34839	0.21302
2418.41982	0.21423
2416.49126	0.21536
2414.56270	0.21645
2412.63413	0.21756
2410.70557	0.21860
2408.77700	0.21968
2406.84844	0.22080
2404.91987	0.22197
2402.99131	0.22327
2401.06274	0.22455
2399.13418	0.22561
2397.20562	0.22672
2395.27705	0.22805
2393.34849	0.22932
2391.41992	0.23048
2389.49136	0.23183
2387.56279	0.23372
2385.63423	0.23652
2383.70566	0.24071
2381.77710	0.24650
2379.84854	0.25365
2377.91997	0.26195
2375.99141	0.27129
2374.06284	0.28176
2372.13428	0.29352
2370.20571	0.30650
2368.27715	0.31998
2366.34858	0.33302
2364.42002	0.34436
2362.49146	0.35266
2360.56289	0.35806
2358.63433	0.35975
2356.70576	0.35536
2354.77720	0.34590
2352.84863	0.33425
2350.92007	0.32240
2348.99150	0.31516
2347.06294	0.31624
2345.13437	0.32568
2343.20581	0.33763
2341.27725	0.34386
2339.34868	0.34479
2337.42012	0.34448
2335.49155	0.34417
2333.56299	0.34359
2331.63442	0.34326
2329.70586	0.34263
2327.77729	0.34111
2325.84873	0.33895
2323.92017	0.33650
2321.99160	0.33377
2320.06304	0.33030
2318.13447	0.32647
2316.20591	0.32346
2314.27734	0.32175
2312.34878	0.32091
2310.42021	0.32027
2308.49165	0.31921
2306.56309	0.31760
2304.63452	0.31612
2302.70596	0.31563
2300.77739	0.31586
2298.84883	0.31613
2296.92026	0.31650
2294.99170	0.31704
2293.06313	0.31755
2291.13457	0.31802
2289.20601	0.31862
2287.27744	0.31925
2285.34888	0.31994
2283.42031	0.32106
2281.49175	0.32276
2279.56318	0.32484
2277.63462	0.32711
2275.70605	0.32948
2273.77749	0.33184
2271.84893	0.33407
2269.92036	0.33617
2267.99180	0.33815
2266.06323	0.34001
2264.13467	0.34182
2262.20610	0.34372
2260.27754	0.34566
2258.34897	0.34750
2256.42041	0.34931
2254.49185	0.35126
2252.56328	0.35331
2250.63472	0.35533
2248.70615	0.35728
2246.77759	0.35922
2244.84902	0.36126
2242.92046	0.36343
2240.99189	0.36560
2239.06333	0.36764
2237.13477	0.36972
2235.20620	0.37184
2233.27764	0.37387
2231.34907	0.37589
2229.42051	0.37805
2227.49194	0.38036
2225.56338	0.38269
2223.63481	0.38489
2221.70625	0.38692
2219.77769	0.38888
2217.84912	0.39099
2215.92056	0.39331
2213.99199	0.39563
2212.06343	0.39778
2210.13486	0.39983
2208.20630	0.40191
2206.27773	0.40395
2204.34917	0.40595
2202.42061	0.40801
2200.49204	0.41008
2198.56348	0.41210
2196.63491	0.41408
2194.70635	0.41600
2192.77778	0.41778
2190.84922	0.41957
2188.92065	0.42142
2186.99209	0.42330
2185.06353	0.42518
2183.13496	0.42696
2181.20640	0.42861
2179.27783	0.43015
2177.34927	0.43168
2175.42070	0.43325
2173.49214	0.43480
2171.56357	0.43634
2169.63501	0.43780
2167.70645	0.43910
2165.77788	0.44040
2163.84932	0.44169
2161.92075	0.44285
2159.99219	0.44401
2158.06362	0.44514
2156.13506	0.44620
2154.20649	0.44720
2152.27793	0.44805
2150.34937	0.44875
2148.42080	0.44947
2146.49224	0.45018
2144.56367	0.45077
2142.63511	0.45122
2140.70654	0.45153
2138.77798	0.45177
2136.84941	0.45200
2134.92085	0.45223
2132.99229	0.45235
2131.06372	0.45232
2129.13516	0.45222
2127.20659	0.45207
2125.27803	0.45184
2123.34946	0.45157
2121.42090	0.45131
2119.49233	0.45089
2117.56377	0.45026
2115.63521	0.44957
2113.70664	0.44892
2111.77808	0.44824
2109.84951	0.44751
2107.92095	0.44671
2105.99238	0.44575
2104.06382	0.44462
2102.13525	0.44339
2100.20669	0.44218
2098.27812	0.44094
2096.34956	0.43957
2094.42100	0.43804
2092.49243	0.43644
2090.56387	0.43487
2088.63530	0.43327
2086.70674	0.43157
2084.77817	0.42982
2082.84961	0.42802
2080.92104	0.42621
2078.99248	0.42444
2077.06392	0.42259
2075.13535	0.42061
2073.20679	0.41855
2071.27822	0.41640
2069.34966	0.41414
2067.42109	0.41186
2065.49253	0.40955
2063.56396	0.40720
2061.63540	0.40490
2059.70684	0.40261
2057.77827	0.40023
2055.84971	0.39781
2053.92114	0.39538
2051.99258	0.39294
2050.06401	0.39038
2048.13545	0.38780
2046.20688	0.38531
2044.27832	0.38280
2042.34976	0.38016
2040.42119	0.37747
2038.49263	0.37487
2036.56406	0.37227
2034.63550	0.36954
2032.70693	0.36678
2030.77837	0.36413
2028.84980	0.36149
2026.92124	0.35882
2024.99268	0.35610
2023.06411	0.35328
2021.13555	0.35039
2019.20698	0.34758
2017.27842	0.34495
2015.34985	0.34234
2013.42129	0.33967
2011.49272	0.33696
2009.56416	0.33428
2007.63560	0.33165
2005.70703	0.32901
2003.77847	0.32637
2001.84990	0.32372
1999.92134	0.32112
1997.99277	0.31857
1996.06421	0.31607
1994.13564	0.31363
1992.20708	0.31120
1990.27852	0.30865
1988.34995	0.30612
1986.42139	0.30372
1984.49282	0.30131
1982.56426	0.29888
1980.63569	0.29658
1978.70713	0.29435
1976.77856	0.29210
1974.85000	0.28987
1972.92144	0.28761
1970.99287	0.28541
1969.06431	0.28335
1967.13574	0.28134
1965.20718	0.27928
1963.27861	0.27725
1961.35005	0.27529
1959.42148	0.27335
1957.49292	0.27150
1955.56436	0.26973
1953.63579	0.26796
1951.70723	0.26622
1949.77866	0.26457
1947.85010	0.26300
1945.92153	0.26152
1943.99297	0.26015
1942.06440	0.25869
1940.13584	0.25703
1938.20728	0.25546
1936.27871	0.25408
1934.35015	0.25277
1932.42158	0.25153
1930.49302	0.25038
1928.56445	0.24926
1926.63589	0.24811
1924.70732	0.24707
1922.77876	0.24614
1920.85020	0.24524
1918.92163	0.24433
1916.99307	0.24330
1915.06450	0.24220
1913.13594	0.24128
1911.20737	0.24061
1909.27881	0.24000
1907.35024	0.23937
1905.42168	0.23864
1903.49312	0.23780
1901.56455	0.23702
1899.63599	0.23645
1897.70742	0.23612
1895.77886	0.23589
1893.85029	0.23556
1891.92173	0.23515
1889.99316	0.23488
1888.06460	0.23456
1886.13604	0.23422
1884.20747	0.23400
1882.27891	0.23378
1880.35034	0.23356
1878.42178	0.23342
1876.49321	0.23345
1874.56465	0.23350
1872.63608	0.23358
1870.70752	0.23389
1868.77896	0.23450
1866.85039	0.23478
1864.92183	0.23457
1862.99326	0.23444
1861.06470	0.23457
1859.13613	0.23489
1857.20757	0.23527
1855.27900	0.23576
1853.35044	0.23623
1851.42187	0.23667
1849.49331	0.23718
1847.56475	0.23790
1845.63618	0.23887
1843.70762	0.23989
1841.77905	0.24046
1839.85049	0.24072
1837.92192	0.24137
1835.99336	0.24230
1834.06479	0.24325
1832.13623	0.24428
1830.20767	0.24579
1828.27910	0.24738
1826.35054	0.24841
1824.42197	0.24951
1822.49341	0.25067
1820.56484	0.25182
1818.63628	0.25310
1816.70771	0.25466
1814.77915	0.25627
1812.85059	0.25801
1810.92202	0.26008
1808.99346	0.26220
1807.06489	0.26413
1805.13633	0.26594
1803.20776	0.26796
1801.27920	0.27038
1799.35063	0.27323
1797.42207	0.27582
1795.49351	0.27824
1793.56494	0.28107
1791.63638	0.28468
1789.70781	0.28800
1787.77925	0.29045
1785.85068	0.29342
1783.92212	0.29696
1781.99355	0.30086
1780.06499	0.30510
1778.13643	0.30941
1776.20786	0.31343
1774.27930	0.31779
1772.35073	0.32364
1770.42217	0.32992
1768.49360	0.33518
1766.56504	0.34022
1764.63647	0.34531
1762.70791	0.35091
1760.77935	0.35824
1758.85078	0.36538
1756.92222	0.37249
1754.99365	0.38008
1753.06509	0.38701
1751.13652	0.39533
1749.20796	0.40585
1747.27939	0.41628
1745.35083	0.42552
1743.42227	0.43518
1741.49370	0.44564
1739.56514	0.45782
1737.63657	0.47002
1735.70801	0.48085
1733.77944	0.49720
1731.85088	0.51668
1729.92231	0.53208
1727.99375	0.54761
1726.06519	0.56412
1724.13662	0.58218
1722.20806	0.60197
1720.27949	0.62046
1718.35093	0.64206
1716.42236	0.67373
1714.49380	0.70385
1712.56523	0.72827
1710.63667	0.75192
1708.70811	0.77737
1706.77954	0.80632
1704.85098	0.84094
1702.92241	0.87201
1700.99385	0.90306
1699.06528	0.94918
1697.13672	0.99122
1695.20815	1.03380
1693.27959	1.07552
1691.35103	1.10960
1689.42246	1.14904
1687.49390	1.19057
1685.56533	1.23033
1683.63677	1.29114
1681.70820	1.35442
1679.77964	1.39522
1677.85107	1.43424
1675.92251	1.47914
1673.99395	1.53460
1672.06538	1.58407
1670.13682	1.63250
1668.20825	1.69531
1666.27969	1.74650
1664.35112	1.78944
1662.42256	1.84267
1660.49399	1.90299
1658.56543	1.95069
1656.63687	1.98969
1654.70830	2.02662
1652.77974	2.08516
1650.85117	2.13865
1648.92261	2.15770
1646.99404	2.18506
1645.06548	2.21801
1643.13691	2.23936
1641.20835	2.25115
1639.27979	2.26120
1637.35122	2.26816
1635.42266	2.27035
1633.49409	2.26522
1631.56553	2.25366
1629.63696	2.23866
1627.70840	2.21155
1625.77983	2.17897
1623.85127	2.13950
1621.92271	2.09164
1619.99414	2.04791
1618.06558	2.00419
1616.13701	1.94197
1614.20845	1.87847
1612.27988	1.82953
1610.35132	1.77848
1608.42275	1.72337
1606.49419	1.66903
1604.56562	1.61934
1602.63706	1.57173
1600.70850	1.52475
1598.77993	1.48076
1596.85137	1.43912
1594.92280	1.39882
1592.99424	1.36000
1591.06567	1.32417
1589.13711	1.29014
1587.20854	1.25815
1585.27998	1.22835
1583.35142	1.20046
1581.42285	1.17520
1579.49429	1.15353
1577.56572	1.13369
1575.63716	1.10944
1573.70859	1.08796
1571.78003	1.07385
1569.85146	1.05918
1567.92290	1.04256
1565.99434	1.02945
1564.06577	1.01892
1562.13721	1.01066
1560.20864	1.00499
1558.28008	0.99746
1556.35151	0.98964
1554.42295	0.98402
1552.49438	0.97848
1550.56582	0.97235
1548.63726	0.96532
1546.70869	0.95807
1544.78013	0.94979
1542.85156	0.93973
1540.92300	0.92619
1538.99443	0.90527
1537.06587	0.88942
1535.13730	0.87885
1533.20874	0.86548
1531.28018	0.85104
1529.35161	0.84030
1527.42305	0.83034
1525.49448	0.82025
1523.56592	0.81150
1521.63735	0.80248
1519.70879	0.79288
1517.78022	0.78502
1515.85166	0.77638
1513.92310	0.76734
1511.99453	0.75967
1510.06597	0.75314
1508.13740	0.74724
1506.20884	0.73737
1504.28027	0.72787
1502.35171	0.72251
1500.42314	0.71809
1498.49458	0.71348
1496.56602	0.70802
1494.63745	0.70240
1492.70889	0.69807
1490.78032	0.69466
1488.85176	0.69087
1486.92319	0.68682
1484.99463	0.68335
1483.06606	0.68049
1481.13750	0.67802
1479.20894	0.67616
1477.28037	0.67509
1475.35181	0.67448
1473.42324	0.67395
1471.49468	0.67245
1469.56611	0.67007
1467.63755	0.66777
1465.70898	0.66576
1463.78042	0.66405
1461.85186	0.66273
1459.92329	0.66203
1457.99473	0.66176
1456.06616	0.66021
1454.13760	0.65706
1452.20903	0.65418
1450.28047	0.65168
1448.35190	0.64942
1446.42334	0.64702
1444.49478	0.64457
1442.56621	0.64221
1440.63765	0.63984
1438.70908	0.63775
1436.78052	0.63567
1434.85195	0.63312
1432.92339	0.63074
1430.99482	0.62884
1429.06626	0.62725
1427.13770	0.62611
1425.20913	0.62558
1423.28057	0.62550
1421.35200	0.62535
1419.42344	0.62500
1417.49487	0.62408
1415.56631	0.62246
1413.63774	0.62092
1411.70918	0.61981
1409.78062	0.61924
1407.85205	0.61908
1405.92349	0.61906
1403.99492	0.61883
1402.06636	0.61825
1400.13779	0.61742
1398.20923	0.61614
1396.28066	0.61430
1394.35210	0.61187
1392.42354	0.60908
1390.49497	0.60646
1388.56641	0.60405
1386.63784	0.60142
1384.70928	0.59837
1382.78071	0.59527
1380.85215	0.59253
1378.92358	0.59036
1376.99502	0.58878
1375.06646	0.58766
1373.13789	0.58665
1371.20933	0.58565
1369.28076	0.58493
1367.35220	0.58425
1365.42363	0.58325
1363.49507	0.58198
1361.56650	0.58069
1359.63794	0.57948
1357.70937	0.57829
1355.78081	0.57716
1353.85225	0.57609
1351.92368	0.57499
1349.99512	0.57395
1348.06655	0.57307
1346.13799	0.57225
1344.20942	0.57139
1342.28086	0.57050
1340.35229	0.56978
1338.42373	0.56918
1336.49517	0.56841
1334.56660	0.56757
1332.63804	0.56693
1330.70947	0.56652
1328.78091	0.56625
1326.85234	0.56612
1324.92378	0.56606
1322.99521	0.56606
1321.06665	0.56617
1319.13809	0.56624
1317.20952	0.56605
1315.28096	0.56566
1313.35239	0.56514
1311.42383	0.56447
1309.49526	0.56374
1307.56670	0.56292
1305.63813	0.56200
1303.70957	0.56106
1301.78101	0.56020
1299.85244	0.55945
1297.92388	0.55872
1295.99531	0.55780
1294.06675	0.55677
1292.13818	0.55585
1290.20962	0.55493
1288.28105	0.55398
1286.35249	0.55310
1284.42393	0.55228
1282.49536	0.55139
1280.56680	0.55043
1278.63823	0.54954
1276.70967	0.54873
1274.78110	0.54794
1272.85254	0.54730
1270.92397	0.54684
1268.99541	0.54632
1267.06685	0.54560
1265.13828	0.54487
1263.20972	0.54436
1261.28115	0.54396
1259.35259	0.54347
1257.42402	0.54295
1255.49546	0.54250
1253.56689	0.54222
1251.63833	0.54217
1249.70977	0.54217
1247.78120	0.54202
1245.85264	0.54169
1243.92407	0.54122
1241.99551	0.54051
1240.06694	0.53953
1238.13838	0.53844
1236.20981	0.53725
1234.28125	0.53594
1232.35269	0.53459
1230.42412	0.53325
1228.49556	0.53190
1226.56699	0.53052
1224.63843	0.52925
1222.70986	0.52811
1220.78130	0.52694
1218.85273	0.52578
1216.92417	0.52481
1214.99561	0.52405
1213.06704	0.52345
1211.13848	0.52292
1209.20991	0.52234
1207.28135	0.52169
1205.35278	0.52101
1203.42422	0.52044
1201.49565	0.51985
1199.56709	0.51912
1197.63853	0.51845
1195.70996	0.51788
1193.78140	0.51722
1191.85283	0.51660
1189.92427	0.51627
1187.99570	0.51608
1186.06714	0.51580
1184.13857	0.51556
1182.21001	0.51567
1180.28145	0.51631
1178.35288	0.51737
1176.42432	0.51861
1174.49575	0.51976
1172.56719	0.52069
1170.63862	0.52143
1168.71006	0.52203
1166.78149	0.52250
1164.85293	0.52292
1162.92437	0.52339
1160.99580	0.52389
1159.06724	0.52414
1157.13867	0.52389
1155.21011	0.52311
1153.28154	0.52184
1151.35298	0.52005
1149.42441	0.51790
1147.49585	0.51555
1145.56729	0.51300
1143.63872	0.51050
1141.71016	0.50815
1139.78159	0.50600
1137.85303	0.50425
1135.92446	0.50292
1133.99590	0.50203
1132.06733	0.50151
1130.13877	0.50099
1128.21021	0.50042
1126.28164	0.49984
1124.35308	0.49927
1122.42451	0.49890
1120.49595	0.49885
1118.56738	0.49892
1116.63882	0.49902
1114.71025	0.49927
1112.78169	0.49989
1110.85312	0.50086
1108.92456	0.50184
1106.99600	0.50267
1105.06743	0.50365
1103.13887	0.50482
1101.21030	0.50598
1099.28174	0.50739
1097.35317	0.50932
1095.42461	0.51195
1093.49604	0.51542
1091.56748	0.51986
1089.63892	0.52559
1087.71035	0.53275
1085.78179	0.54089
1083.85322	0.54934
1081.92466	0.55721
1079.99609	0.56322
1078.06753	0.56619
1076.13896	0.56580
1074.21040	0.56265
1072.28184	0.55768
1070.35327	0.55146
1068.42471	0.54449
1066.49614	0.53755
1064.56758	0.53112
1062.63901	0.52545
1060.71045	0.52070
1058.78188	0.51657
1056.85332	0.51288
1054.92476	0.50972
1052.99619	0.50700
1051.06763	0.50466
1049.13906	0.50298
1047.21050	0.50215
1045.28193	0.50181
1043.35337	0.50164
1041.42480	0.50187
1039.49624	0.50240
1037.56768	0.50253
1035.63911	0.50209
1033.71055	0.50148
1031.78198	0.50076
1029.85342	0.49970
1027.92485	0.49853
1025.99629	0.49741
1024.06772	0.49625
1022.13916	0.49527
1020.21060	0.49492
1018.28203	0.49511
1016.35347	0.49537
1014.42490	0.49539
1012.49634	0.49516
1010.56777	0.49504
1008.63921	0.49526
1006.71064	0.49575
1004.78208	0.49662
1002.85352	0.49813
1000.92495	0.50035
998.99639	0.50330
997.06782	0.50713
995.13926	0.51151
993.21069	0.51570
991.28213	0.51904
989.35356	0.52115
987.42500	0.52201
985.49644	0.52202
983.56787	0.52187
981.63931	0.52218
979.71074	0.52314
977.78218	0.52454
975.85361	0.52625
973.92505	0.52857
971.99648	0.53162
970.06792	0.53503
968.13936	0.53854
966.21079	0.54229
964.28223	0.54627
962.35366	0.55049
960.42510	0.55516
958.49653	0.56043
956.56797	0.56616
954.63940	0.57209
952.71084	0.57824
950.78228	0.58456
948.85371	0.59097
946.92515	0.59747
944.99658	0.60378
943.06802	0.60981
941.13945	0.61595
939.21089	0.62204
937.28232	0.62749
935.35376	0.63264
933.42520	0.63805
931.49663	0.64364
929.56807	0.64942
927.63950	0.65548
925.71094	0.66160
923.78237	0.66755
921.85381	0.67331
919.92524	0.67917
917.99668	0.68558
916.06812	0.69266
914.13955	0.70050
912.21099	0.70874
910.28242	0.71643
908.35386	0.72382
906.42529	0.73230
904.49673	0.74159
902.56816	0.74985
900.63960	0.75761
898.71104	0.76703
896.78247	0.77758
894.85391	0.78813
892.92534	0.79960
890.99678	0.81111
889.06821	0.82003
887.13965	0.82733
885.21108	0.83621
883.28252	0.84695
881.35396	0.85845
879.42539	0.87115
877.49683	0.88424
875.56826	0.89593
873.63970	0.90612
871.71113	0.91561
869.78257	0.92619
867.85400	0.93878
865.92544	0.95156
863.99687	0.96314
862.06831	0.97386
860.13975	0.98377
858.21118	0.99369
856.28262	1.00511
854.35405	1.01711
852.42549	1.02833
850.49692	1.03961
848.56836	1.05202
846.63979	1.06487
844.71123	1.07791
842.78267	1.09217
840.85410	1.10607
838.92554	1.11730
836.99697	1.12769
835.06841	1.13830
833.13984	1.14634
831.21128	1.15234
829.28271	1.16288
827.35415	1.18191
825.42559	1.20445
823.49702	1.21953
821.56846	1.22421
819.63989	1.22808
817.71133	1.23486
815.78276	1.24185
813.85420	1.25173
811.92563	1.26794
809.99707	1.28835
808.06851	1.31058
806.13994	1.32654
804.21138	1.32616
802.28281	1.32198
800.35425	1.32933
798.42568	1.34206
796.49712	1.34068
794.56855	1.34242
792.63999	1.38144
790.71143	1.42803
788.78286	1.43726
786.85430	1.41301
784.92573	1.37273
782.99717	1.35460
781.06860	1.39076
779.14004	1.47753
777.21147	1.62009
775.28291	1.76576
773.35435	1.66848
771.42578	1.50819
769.49722	1.47490
767.56865	1.60287
765.64009	1.77030
763.71152	1.66845
761.78296	1.42119
759.85439	1.32102
757.92583	1.36309
755.99727	1.30638
754.06870	1.25741
752.14014	1.35113
750.21157	1.45678
748.28301	1.34974
746.35444	1.25665
744.42588	1.25407
742.49731	1.29069
740.56875	1.24409
738.64019	1.06309
736.71162	0.93759
734.78306	0.93207
732.85449	0.98186
730.92593	0.98406
728.99736	0.89567
727.06880	0.70095
725.14023	0.50080
723.21167	0.35938
721.28311	0.28393
719.35454	0.28714
717.42598	0.34339
715.49741	0.32812
713.56885	0.24761
711.64028	0.18072
709.71172	0.16879
707.78315	0.21352
705.85459	0.21757
703.92603	0.13606
701.99746	0.05667
700.06890	0.07175
698.14033	0.10820
696.21177	0.11960
694.28320	0.16974
692.35464	0.29002
690.42607	0.51085
688.49751	0.66372
686.56895	0.49840
684.64038	0.34645
682.71182	0.25151
680.78325	0.13608
678.85469	0.09489
676.92612	0.13508
674.99756	0.08127
673.06899	-0.03235
671.14043	0.00246
669.21187	0.13922
667.28330	0.25826
665.35474	0.35180
663.42617	0.40784
661.49761	0.49684
659.56904	0.58770
657.64048	0.34137
655.71191	0.12001
653.78335	0.06868
651.85479	0.10540
649.92622	0.16045
647.99766	0.21619
646.06909	0.20696
644.14053	0.17388
642.21196	0.23319
640.28340	0.30686
638.35483	0.28712
636.42627	0.25749
634.49771	0.23182
632.56914	0.17760
630.64058	0.15108
628.71201	0.10560
626.78345	0.03943
624.85488	0.07894
622.92632	0.18065
620.99775	0.24003
619.06919	0.22324
617.14062	0.15033
615.21206	0.10476
613.28350	0.13983
611.35493	0.25690
609.42637	0.31460
607.49780	0.17966
605.56924	0.08522
603.64067	0.07063
601.71211	0.08432
599.78354	0.12382
597.85498	0.16022
595.92642	0.19025
593.99785	0.26024
592.06929	0.33479
590.14072	0.28880
588.21216	0.20402
586.28359	0.18822
584.35503	0.19287
582.42646	0.16870
580.49790	0.11922
578.56934	0.09884
576.64077	0.12574
574.71221	0.15057
572.78364	0.19233
570.85508	0.34413
568.92651	0.57283
566.99795	0.43986
565.06938	0.26935
563.14082	0.11949
561.21226	0.05035
559.28369	0.07182
557.35513	0.12402
555.42656	0.14508
553.49800	0.18523
551.56943	0.22069
549.64087	0.20231
547.71230	0.19691
545.78374	0.19828
543.85518	0.20273
541.92661	0.24133
539.99805	0.26829
538.06948	0.22613
536.14092	0.15881
534.21235	0.16340
532.28379	0.24654
530.35522	0.28478
528.42666	0.25006
526.49810	0.21838
524.56953	0.17645
522.64097	0.17240
520.71240	0.25744
518.78384	0.28155
516.85527	0.19650
514.92671	0.20154
512.99814	0.33701
511.06958	0.31089
509.14102	0.18951
507.21245	0.19403
505.28389	0.21995
503.35532	0.18464
501.42676	0.16535
499.49819	0.17905
