3997.91411	0.07062
3995.98555	0.07124
3994.05698	0.07171
3992.12842	0.07199
3990.19985	0.07229
3988.27129	0.07260
3986.34272	0.07308
3984.41416	0.07377
3982.48560	0.07415
3980.55703	0.07416
3978.62847	0.07437
3976.69990	0.07498
3974.77134	0.07539
3972.84277	0.07513
3970.91421	0.07484
3968.98564	0.07493
3967.05708	0.07506
3965.12852	0.07546
3963.19995	0.07617
3961.27139	0.07641
3959.34282	0.07622
3957.41426	0.07632
3955.48569	0.07655
3953.55713	0.07656
3951.62856	0.07683
3949.70000	0.07778
3947.77144	0.07858
3945.84287	0.07844
3943.91431	0.07826
3941.98574	0.07831
3940.05718	0.07741
3938.12861	0.07606
3936.20005	0.07553
3934.27148	0.07628
3932.34292	0.07800
3930.41436	0.07902
3928.48579	0.07842
3926.55723	0.07779
3924.62866	0.07850
3922.70010	0.07928
3920.77153	0.07880
3918.84297	0.07834
3916.91440	0.07870
3914.98584	0.07844
3913.05728	0.07677
3911.12871	0.07512
3909.20015	0.07464
3907.27158	0.07573
3905.34302	0.07885
3903.41445	0.08299
3901.48589	0.08450
3899.55732	0.08285
3897.62876	0.08054
3895.70020	0.07870
3893.77163	0.07853
3891.84307	0.08023
3889.91450	0.08105
3887.98594	0.07989
3886.05737	0.07987
3884.12881	0.08134
3882.20024	0.08224
3880.27168	0.08267
3878.34312	0.08168
3876.41455	0.07957
3874.48599	0.07952
3872.55742	0.08205
3870.62886	0.08494
3868.70029	0.08581
3866.77173	0.08467
3864.84316	0.08496
3862.91460	0.08630
3860.98604	0.08517
3859.05747	0.08308
3857.12891	0.08313
3855.20034	0.08618
3853.27178	0.09168
3851.34321	0.09334
3849.41465	0.08904
3847.48608	0.08556
3845.55752	0.08462
3843.62896	0.08617
3841.70039	0.08952
3839.77183	0.09320
3837.84326	0.09575
3835.91470	0.09564
3833.98613	0.09396
3832.05757	0.09256
3830.12900	0.09178
3828.20044	0.09181
3826.27187	0.09271
3824.34331	0.09392
3822.41475	0.09610
3820.48618	0.10018
3818.55762	0.10230
3816.62905	0.10158
3814.70049	0.10031
3812.77192	0.09811
3810.84336	0.09664
3808.91479	0.09769
3806.98623	0.10114
3805.05767	0.10426
3803.12910	0.10635
3801.20054	0.10964
3799.27197	0.11121
3797.34341	0.10978
3795.41484	0.10873
3793.48628	0.10791
3791.55771	0.10725
3789.62915	0.10753
3787.70059	0.10874
3785.77202	0.11087
3783.84346	0.11335
3781.91489	0.11541
3779.98633	0.11790
3778.05776	0.12039
3776.12920	0.12073
3774.20063	0.12061
3772.27207	0.12241
3770.34351	0.12627
3768.41494	0.13025
3766.48638	0.13239
3764.55781	0.13358
3762.62925	0.13462
3760.70068	0.13656
3758.77212	0.14011
3756.84355	0.14367
3754.91499	0.14651
3752.98643	0.15087
3751.05786	0.15823
3749.12930	0.16453
3747.20073	0.16544
3745.27217	0.16622
3743.34360	0.17021
3741.41504	0.17425
3739.48647	0.17749
3737.55791	0.18314
3735.62935	0.19273
3733.70078	0.20222
3731.77222	0.20597
3729.84365	0.20769
3727.91509	0.21134
3725.98652	0.21763
3724.05796	0.22456
3722.12939	0.22996
3720.20083	0.23431
3718.27227	0.23812
3716.34370	0.24245
3714.41514	0.24892
3712.48657	0.26020
3710.55801	0.27788
3708.62944	0.29411
3706.70088	0.30427
3704.77231	0.31429
3702.84375	0.32778
3700.91519	0.34523
3698.98662	0.36320
3697.05806	0.38015
3695.12949	0.39884
3693.20093	0.41936
3691.27236	0.44225
3689.34380	0.47138
3687.41523	0.50471
3685.48667	0.53216
3683.55811	0.55625
3681.62954	0.58383
3679.70098	0.61664
3677.77241	0.65265
3675.84385	0.69519
3673.91528	0.74903
3671.98672	0.79149
3670.05815	0.83028
3668.12959	0.88288
3666.20103	0.92916
3664.27246	0.96804
3662.34390	1.01120
3660.41533	1.05921
3658.48677	1.10756
3656.55820	1.15906
3654.62964	1.21563
3652.70107	1.26309
3650.77251	1.30604
3648.84395	1.36654
3646.91538	1.43751
3644.98682	1.48578
3643.05825	1.52229
3641.12969	1.56148
3639.20112	1.60606
3637.27256	1.65127
3635.34399	1.69579
3633.41543	1.74159
3631.48687	1.78549
3629.55830	1.83029
3627.62974	1.88700
3625.70117	1.93589
3623.77261	1.96681
3621.84404	1.99813
3619.91548	2.03598
3617.98691	2.08196
3616.05835	2.12598
3614.12979	2.16229
3612.20122	2.19988
3610.27266	2.23802
3608.34409	2.27779
3606.41553	2.32153
3604.48696	2.36237
3602.55840	2.39802
3600.62983	2.43584
3598.70127	2.47751
3596.77271	2.51855
3594.84414	2.55931
3592.91558	2.60048
3590.98701	2.63851
3589.05845	2.67431
3587.12988	2.71854
3585.20132	2.76581
3583.27275	2.80295
3581.34419	2.83803
3579.41562	2.87867
3577.48706	2.92327
3575.55850	2.96731
3573.62993	3.00993
3571.70137	3.05046
3569.77280	3.09021
3567.84424	3.13465
3565.91567	3.18987
3563.98711	3.23968
3562.05854	3.27696
3560.12998	3.31639
3558.20142	3.36147
3556.27285	3.40714
3554.34429	3.45022
3552.41572	3.49401
3550.48716	3.53878
3548.55859	3.58266
3546.63003	3.62886
3544.70146	3.68005
3542.77290	3.72934
3540.84434	3.77253
3538.91577	3.81494
3536.98721	3.86120
3535.05864	3.91299
3533.13008	3.96286
3531.20151	4.00732
3529.27295	4.05186
3527.34438	4.10128
3525.41582	4.15360
3523.48726	4.20269
3521.55869	4.24721
3519.63013	4.28987
3517.70156	4.33406
3515.77300	4.37927
3513.84443	4.42527
3511.91587	4.47361
3509.98730	4.52363
3508.05874	4.57102
3506.13018	4.61786
3504.20161	4.66873
3502.27305	4.72001
3500.34448	4.76801
3498.41592	4.80904
3496.48735	4.84725
3494.55879	4.89727
3492.63022	4.95479
3490.70166	5.00435
3488.77310	5.05277
3486.84453	5.10597
3484.91597	5.15606
3482.98740	5.20474
3481.05884	5.25471
3479.13027	5.29447
3477.20171	5.32701
3475.27314	5.37376
3473.34458	5.43752
3471.41602	5.50214
3469.48745	5.55705
3467.55889	5.60222
3465.63032	5.64225
3463.70176	5.68517
3461.77319	5.73276
3459.84463	5.77924
3457.91606	5.82558
3455.98750	5.87990
3454.05894	5.93945
3452.13037	5.99684
3450.20181	6.04666
3448.27324	6.08810
3446.34468	6.13606
3444.41611	6.18951
3442.48755	6.22960
3440.55898	6.25162
3438.63042	6.28252
3436.70186	6.33367
3434.77329	6.38685
3432.84473	6.44293
3430.91616	6.49620
3428.98760	6.54052
3427.05903	6.58880
3425.13047	6.64671
3423.20190	6.70062
3421.27334	6.75182
3419.34478	6.80653
3417.41621	6.85547
3415.48765	6.90868
3413.55908	6.98537
3411.63052	7.06481
3409.70195	7.10285
3407.77339	7.12823
3405.84482	7.16498
3403.91626	7.18824
3401.98770	7.19779
3400.05913	7.21985
3398.13057	7.24073
3396.20200	7.25180
3394.27344	7.30462
3392.34487	7.36840
3390.41631	7.39852
3388.48774	7.42037
3386.55918	7.45135
3384.63062	7.50628
3382.70205	7.60027
3380.77349	7.69058
3378.84492	7.71810
3376.91636	7.70952
3374.98779	7.71034
3373.05923	7.73188
3371.13066	7.73933
3369.20210	7.75059
3367.27354	7.79842
3365.34497	7.82995
3363.41641	7.82290
3361.48784	7.85168
3359.55928	7.92697
3357.63071	7.94545
3355.70215	7.90942
3353.77358	7.87461
3351.84502	7.86223
3349.91646	7.90724
3347.98789	7.97677
3346.05933	7.95345
3344.13076	7.87440
3342.20220	7.88447
3340.27363	7.99299
3338.34507	8.08537
3336.41650	8.09750
3334.48794	8.12035
3332.55937	8.11110
3330.63081	8.02559
3328.70225	7.97198
3326.77368	7.95793
3324.84512	7.94916
3322.91655	7.98029
3320.98799	8.06770
3319.05942	8.13146
3317.13086	8.15749
3315.20229	8.16134
3313.27373	8.08809
3311.34517	7.99910
3309.41660	8.02851
3307.48804	8.11831
3305.55947	8.09992
3303.63091	8.06348
3301.70234	8.14694
3299.77378	8.26991
3297.84521	8.29668
3295.91665	8.28346
3293.98809	8.30470
3292.05952	8.30584
3290.13096	8.27084
3288.20239	8.29023
3286.27383	8.34643
3284.34526	8.35007
3282.41670	8.36585
3280.48813	8.35750
3278.55957	8.22620
3276.63101	8.10919
3274.70244	8.14785
3272.77388	8.22839
3270.84531	8.21444
3268.91675	8.24286
3266.98818	8.34937
3265.05962	8.30442
3263.13105	8.12266
3261.20249	8.08596
3259.27393	8.17400
3257.34536	8.18114
3255.41680	8.10468
3253.48823	8.06532
3251.55967	8.09539
3249.63110	8.12208
3247.70254	8.11977
3245.77397	8.11670
3243.84541	8.08331
3241.91685	8.03281
3239.98828	8.03395
3238.05972	8.03561
3236.13115	7.99954
3234.20259	7.98828
3232.27402	7.99730
3230.34546	7.98650
3228.41689	7.96622
3226.48833	7.99016
3224.55977	8.02219
3222.63120	7.98720
3220.70264	7.95852
3218.77407	7.99102
3216.84551	8.03250
3214.91694	8.06860
3212.98838	8.06094
3211.05981	7.96434
3209.13125	7.88476
3207.20269	7.89159
3205.27412	7.88183
3203.34556	7.76671
3201.41699	7.63987
3199.48843	7.59289
3197.55986	7.61677
3195.63130	7.63345
3193.70273	7.57090
3191.77417	7.48503
3189.84561	7.43197
3187.91704	7.39147
3185.98848	7.33777
3184.05991	7.27113
3182.13135	7.22993
3180.20278	7.19919
3178.27422	7.12442
3176.34565	7.04385
3174.41709	7.00867
3172.48853	6.99041
3170.55996	6.93685
3168.63140	6.85613
3166.70283	6.77859
3164.77427	6.70079
3162.84570	6.63496
3160.91714	6.59657
3158.98857	6.57117
3157.06001	6.51584
3155.13145	6.40193
3153.20288	6.27745
3151.27432	6.20100
3149.34575	6.16810
3147.41719	6.13324
3145.48862	6.06457
3143.56006	5.97396
3141.63149	5.88860
3139.70293	5.82330
3137.77437	5.77532
3135.84580	5.72190
3133.91724	5.65341
3131.98867	5.58238
3130.06011	5.50657
3128.13154	5.42466
3126.20298	5.35533
3124.27441	5.29567
3122.34585	5.22903
3120.41729	5.15702
3118.48872	5.07994
3116.56016	5.00117
3114.63159	4.92744
3112.70303	4.85870
3110.77446	4.79622
3108.84590	4.73573
3106.91733	4.66884
3104.98877	4.59751
3103.06021	4.53159
3101.13164	4.47168
3099.20308	4.40931
3097.27451	4.34278
3095.34595	4.27790
3093.41738	4.21536
3091.48882	4.15197
3089.56025	4.08841
3087.63169	4.02615
3085.70312	3.96517
3083.77456	3.90400
3081.84600	3.84307
3079.91743	3.78506
3077.98887	3.72836
3076.06030	3.66876
3074.13174	3.60802
3072.20317	3.55134
3070.27461	3.49872
3068.34604	3.44751
3066.41748	3.39613
3064.48892	3.34280
3062.56035	3.28736
3060.63179	3.23216
3058.70322	3.17876
3056.77466	3.12684
3054.84609	3.07553
3052.91753	3.02433
3050.98896	2.97367
3049.06040	2.92395
3047.13184	2.87504
3045.20327	2.82639
3043.27471	2.77803
3041.34614	2.73069
3039.41758	2.68485
3037.48901	2.64080
3035.56045	2.59799
3033.63188	2.55466
3031.70332	2.51039
3029.77476	2.46652
3027.84619	2.42346
3025.91763	2.38153
3023.98906	2.34113
3022.06050	2.30114
3020.13193	2.26088
3018.20337	2.22134
3016.27480	2.18312
3014.34624	2.14502
3012.41768	2.10674
3010.48911	2.06980
3008.56055	2.03419
3006.63198	1.99904
3004.70342	1.96443
3002.77485	1.93014
3000.84629	1.89641
2998.91772	1.86412
2996.98916	1.83297
2995.06060	1.80198
2993.13203	1.77111
2991.20347	1.74092
2989.27490	1.71158
2987.34634	1.68294
2985.41777	1.65468
2983.48921	1.62664
2981.56064	1.59924
2979.63208	1.57259
2977.70352	1.54656
2975.77495	1.52148
2973.84639	1.49738
2971.91782	1.47382
2969.98926	1.45067
2968.06069	1.42780
2966.13213	1.40525
2964.20356	1.38305
2962.27500	1.36076
2960.34644	1.33829
2958.41787	1.31566
2956.48931	1.29256
2954.56074	1.26940
2952.63218	1.24670
2950.70361	1.22411
2948.77505	1.20152
2946.84648	1.17961
2944.91792	1.15884
2942.98936	1.13914
2941.06079	1.12024
2939.13223	1.10177
2937.20366	1.08372
2935.27510	1.06653
2933.34653	1.04997
2931.41797	1.03333
2929.48940	1.01651
2927.56084	0.99984
2925.63228	0.98303
2923.70371	0.96527
2921.77515	0.94711
2919.84658	0.92959
2917.91802	0.91226
2915.98945	0.89428
2914.06089	0.87630
2912.13232	0.85931
2910.20376	0.84287
2908.27520	0.82649
2906.34663	0.81065
2904.41807	0.79575
2902.48950	0.78133
2900.56094	0.76706
2898.63237	0.75334
2896.70381	0.74024
2894.77524	0.72730
2892.84668	0.71436
2890.91812	0.70191
2888.98955	0.69024
2887.06099	0.67902
2885.13242	0.66825
2883.20386	0.65795
2881.27529	0.64794
2879.34673	0.63836
2877.41816	0.62918
2875.48960	0.62021
2873.56104	0.61117
2871.63247	0.60166
2869.70391	0.59144
2867.77534	0.58080
2865.84678	0.57021
2863.91821	0.55982
2861.98965	0.54961
2860.06108	0.54018
2858.13252	0.53196
2856.20396	0.52438
2854.27539	0.51654
2852.34683	0.50804
2850.41826	0.49895
2848.48970	0.48944
2846.56113	0.48001
2844.63257	0.47127
2842.70400	0.46322
2840.77544	0.45561
2838.84687	0.44847
2836.91831	0.44176
2834.98975	0.43529
2833.06118	0.42895
2831.13262	0.42286
2829.20405	0.41705
2827.27549	0.41134
2825.34692	0.40544
2823.41836	0.39933
2821.48979	0.39339
2819.56123	0.38774
2817.63267	0.38212
2815.70410	0.37642
2813.77554	0.37086
2811.84697	0.36565
2809.91841	0.36056
2807.98984	0.35530
2806.06128	0.35004
2804.13271	0.34506
2802.20415	0.34035
2800.27559	0.33575
2798.34702	0.33099
2796.41846	0.32608
2794.48989	0.32139
2792.56133	0.31701
2790.63276	0.31282
2788.70420	0.30867
2786.77563	0.30440
2784.84707	0.30018
2782.91851	0.29622
2780.98994	0.29238
2779.06138	0.28854
2777.13281	0.28474
2775.20425	0.28096
2773.27568	0.27736
2771.34712	0.27389
2769.41855	0.27039
2767.48999	0.26691
2765.56143	0.26343
2763.63286	0.25998
2761.70430	0.25665
2759.77573	0.25352
2757.84717	0.25068
2755.91860	0.24785
2753.99004	0.24470
2752.06147	0.24154
2750.13291	0.23878
2748.20435	0.23623
2746.27578	0.23358
2744.34722	0.23093
2742.41865	0.22836
2740.49009	0.22577
2738.56152	0.22314
2736.63296	0.22063
2734.70439	0.21832
2732.77583	0.21599
2730.84727	0.21352
2728.91870	0.21106
2726.99014	0.20881
2725.06157	0.20681
2723.13301	0.20488
2721.20444	0.20285
2719.27588	0.20082
2717.34731	0.19890
2715.41875	0.19698
2713.49019	0.19512
2711.56162	0.19345
2709.63306	0.19193
2707.70449	0.19038
2705.77593	0.18869
2703.84736	0.18689
2701.91880	0.18518
2699.99023	0.18374
2698.06167	0.18253
2696.13311	0.18126
2694.20454	0.17978
2692.27598	0.17830
2690.34741	0.17704
2688.41885	0.17599
2686.49028	0.17496
2684.56172	0.17377
2682.63315	0.17247
2680.70459	0.17124
2678.77603	0.17026
2676.84746	0.16944
2674.91890	0.16850
2672.99033	0.16745
2671.06177	0.16647
2669.13320	0.16549
2667.20464	0.16444
2665.27607	0.16345
2663.34751	0.16252
2661.41895	0.16163
2659.49038	0.16090
2657.56182	0.16030
2655.63325	0.15967
2653.70469	0.15900
2651.77612	0.15824
2649.84756	0.15740
2647.91899	0.15668
2645.99043	0.15620
2644.06187	0.15586
2642.13330	0.15542
2640.20474	0.15479
2638.27617	0.15419
2636.34761	0.15373
2634.41904	0.15332
2632.49048	0.15289
2630.56191	0.15241
2628.63335	0.15192
2626.70479	0.15151
2624.77622	0.15113
2622.84766	0.15075
2620.91909	0.15040
2618.99053	0.15022
2617.06196	0.15028
2615.13340	0.15031
2613.20483	0.15007
2611.27627	0.14984
2609.34771	0.14978
2607.41914	0.14971
2605.49058	0.14962
2603.56201	0.14955
2601.63345	0.14950
2599.70488	0.14956
2597.77632	0.14959
2595.84775	0.14942
2593.91919	0.14931
2591.99062	0.14955
2590.06206	0.14988
2588.13350	0.15004
2586.20493	0.15012
2584.27637	0.15027
2582.34780	0.15044
2580.41924	0.15063
2578.49067	0.15093
2576.56211	0.15130
2574.63354	0.15155
2572.70498	0.15166
2570.77642	0.15188
2568.84785	0.15225
2566.91929	0.15261
2564.99072	0.15298
2563.06216	0.15340
2561.13359	0.15388
2559.20503	0.15438
2557.27646	0.15485
2555.34790	0.15527
2553.41934	0.15564
2551.49077	0.15606
2549.56221	0.15661
2547.63364	0.15720
2545.70508	0.15774
2543.77651	0.15831
2541.84795	0.15898
2539.91938	0.15966
2537.99082	0.16025
2536.06226	0.16083
2534.13369	0.16144
2532.20513	0.16203
2530.27656	0.16264
2528.34800	0.16340
2526.41943	0.16406
2524.49087	0.16458
2522.56230	0.16524
2520.63374	0.16597
2518.70518	0.16664
2516.77661	0.16734
2514.84805	0.16821
2512.91948	0.16923
2510.99092	0.17011
2509.06235	0.17071
2507.13379	0.17131
2505.20522	0.17202
2503.27666	0.17278
2501.34810	0.17361
2499.41953	0.17450
2497.49097	0.17541
2495.56240	0.17634
2493.63384	0.17717
2491.70527	0.17777
2489.77671	0.17839
2487.84814	0.17931
2485.91958	0.18033
2483.99102	0.18124
2482.06245	0.18206
2480.13389	0.18287
2478.20532	0.18372
2476.27676	0.18464
2474.34819	0.18562
2472.41963	0.18650
2470.49106	0.18725
2468.56250	0.18800
2466.63394	0.18886
2464.70537	0.18987
2462.77681	0.19092
2460.84824	0.19188
2458.91968	0.19273
2456.99111	0.19363
2455.06255	0.19461
2453.13398	0.19552
2451.20542	0.19630
2449.27686	0.19707
2447.34829	0.19789
2445.41973	0.19882
2443.49116	0.19986
2441.56260	0.20096
2439.63403	0.20192
2437.70547	0.20285
2435.77690	0.20402
2433.84834	0.20529
2431.91978	0.20633
2429.99121	0.20724
2428.06265	0.20827
2426.13408	0.20939
2424.20552	0.21040
2422.27695	0.21134
2420.34839	0.21243
2418.41982	0.21364
2416.49126	0.21479
2414.56270	0.21590
2412.63413	0.21708
2410.70557	0.21823
2408.77700	0.21922
2406.84844	0.22023
2404.91987	0.22143
2402.99131	0.22266
2401.06274	0.22385
2399.13418	0.22504
2397.20562	0.22621
2395.27705	0.22733
2393.34849	0.22855
2391.41992	0.22995
2389.49136	0.23165
2387.56279	0.23403
2385.63423	0.23769
2383.70566	0.24329
2381.77710	0.25126
2379.84854	0.26130
2377.91997	0.27275
2375.99141	0.28565
2374.06284	0.30052
2372.13428	0.31741
2370.20571	0.33604
2368.27715	0.35567
2366.34858	0.37452
2364.42002	0.39024
2362.49146	0.40138
2360.56289	0.40731
2358.63433	0.40808
2356.70576	0.40248
2354.77720	0.38910
2352.84863	0.37066
2350.92007	0.35209
2348.99150	0.34082
2347.06294	0.34172
2345.13437	0.35505
2343.20581	0.37247
2341.27725	0.38104
2339.34868	0.38101
2337.42012	0.37889
2335.49155	0.37700
2333.56299	0.37533
2331.63442	0.37461
2329.70586	0.37373
2327.77729	0.37092
2325.84873	0.36661
2323.92017	0.36215
2321.99160	0.35761
2320.06304	0.35202
2318.13447	0.34571
2316.20591	0.34022
2314.27734	0.33657
2312.34878	0.33444
2310.42021	0.33268
2308.49165	0.33028
2306.56309	0.32713
2304.63452	0.32410
2302.70596	0.32230
2300.77739	0.32164
2298.84883	0.32119
2296.92026	0.32080
2294.99170	0.32066
2293.06313	0.32051
2291.13457	0.32024
2289.20601	0.32011
2287.27744	0.32017
2285.34888	0.32038
2283.42031	0.32102
2281.49175	0.32251
2279.56318	0.32477
2277.63462	0.32723
2275.70605	0.32957
2273.77749	0.33176
2271.84893	0.33384
2269.92036	0.33590
2267.99180	0.33787
2266.06323	0.33981
2264.13467	0.34185
2262.20610	0.34380
2260.27754	0.34549
2258.34897	0.34706
2256.42041	0.34866
2254.49185	0.35035
2252.56328	0.35215
2250.63472	0.35392
2248.70615	0.35574
2246.77759	0.35768
2244.84902	0.35961
2242.92046	0.36155
2240.99189	0.36366
2239.06333	0.36586
2237.13477	0.36800
2235.20620	0.37004
2233.27764	0.37204
2231.34907	0.37410
2229.42051	0.37628
2227.49194	0.37846
2225.56338	0.38059
2223.63481	0.38267
2221.70625	0.38473
2219.77769	0.38689
2217.84912	0.38914
2215.92056	0.39136
2213.99199	0.39351
2212.06343	0.39563
2210.13486	0.39766
2208.20630	0.39969
2206.27773	0.40188
2204.34917	0.40404
2202.42061	0.40603
2200.49204	0.40803
2198.56348	0.41002
2196.63491	0.41184
2194.70635	0.41365
2192.77778	0.41555
2190.84922	0.41745
2188.92065	0.41931
2186.99209	0.42113
2185.06353	0.42294
2183.13496	0.42463
2181.20640	0.42618
2179.27783	0.42778
2177.34927	0.42939
2175.42070	0.43092
2173.49214	0.43253
2171.56357	0.43419
2169.63501	0.43566
2167.70645	0.43693
2165.77788	0.43820
2163.84932	0.43941
2161.92075	0.44057
2159.99219	0.44172
2158.06362	0.44284
2156.13506	0.44378
2154.20649	0.44455
2152.27793	0.44530
2150.34937	0.44611
2148.42080	0.44690
2146.49224	0.44765
2144.56367	0.44830
2142.63511	0.44876
2140.70654	0.44910
2138.77798	0.44951
2136.84941	0.44991
2134.92085	0.45011
2132.99229	0.45010
2131.06372	0.45003
2129.13516	0.44995
2127.20659	0.44980
2125.27803	0.44958
2123.34946	0.44925
2121.42090	0.44885
2119.49233	0.44843
2117.56377	0.44793
2115.63521	0.44728
2113.70664	0.44651
2111.77808	0.44584
2109.84951	0.44525
2107.92095	0.44449
2105.99238	0.44344
2104.06382	0.44227
2102.13525	0.44103
2100.20669	0.43983
2098.27812	0.43873
2096.34956	0.43754
2094.42100	0.43613
2092.49243	0.43460
2090.56387	0.43308
2088.63530	0.43155
2086.70674	0.42989
2084.77817	0.42801
2082.84961	0.42605
2080.92104	0.42422
2078.99248	0.42248
2077.06392	0.42066
2075.13535	0.41874
2073.20679	0.41671
2071.27822	0.41447
2069.34966	0.41217
2067.42109	0.41000
2065.49253	0.40798
2063.56396	0.40582
2061.63540	0.40344
2059.70684	0.40094
2057.77827	0.39840
2055.84971	0.39597
2053.92114	0.39364
2051.99258	0.39127
2050.06401	0.38880
2048.13545	0.38630
2046.20688	0.38376
2044.27832	0.38122
2042.34976	0.37862
2040.42119	0.37592
2038.49263	0.37325
2036.56406	0.37064
2034.63550	0.36803
2032.70693	0.36538
2030.77837	0.36270
2028.84980	0.35999
2026.92124	0.35731
2024.99268	0.35463
2023.06411	0.35200
2021.13555	0.34945
2019.20698	0.34697
2017.27842	0.34442
2015.34985	0.34156
2013.42129	0.33856
2011.49272	0.33575
2009.56416	0.33314
2007.63560	0.33058
2005.70703	0.32798
2003.77847	0.32534
2001.84990	0.32272
1999.92134	0.32013
1997.99277	0.31757
1996.06421	0.31507
1994.13564	0.31283
1992.20708	0.31069
1990.27852	0.30815
1988.34995	0.30535
1986.42139	0.30270
1984.49282	0.30020
1982.56426	0.29776
1980.63569	0.29543
1978.70713	0.29331
1976.77856	0.29124
1974.85000	0.28905
1972.92144	0.28680
1970.99287	0.28465
1969.06431	0.28277
1967.13574	0.28106
1965.20718	0.27905
1963.27861	0.27678
1961.35005	0.27468
1959.42148	0.27275
1957.49292	0.27092
1955.56436	0.26916
1953.63579	0.26737
1951.70723	0.26555
1949.77866	0.26389
1947.85010	0.26245
1945.92153	0.26121
1943.99297	0.26013
1942.06440	0.25884
1940.13584	0.25699
1938.20728	0.25509
1936.27871	0.25354
1934.35015	0.25222
1932.42158	0.25102
1930.49302	0.24989
1928.56445	0.24880
1926.63589	0.24773
1924.70732	0.24692
1922.77876	0.24621
1920.85020	0.24518
1918.92163	0.24413
1916.99307	0.24312
1915.06450	0.24188
1913.13594	0.24084
1911.20737	0.24032
1909.27881	0.23985
1907.35024	0.23910
1905.42168	0.23827
1903.49312	0.23756
1901.56455	0.23688
1899.63599	0.23621
1897.70742	0.23578
1895.77886	0.23557
1893.85029	0.23527
1891.92173	0.23489
1889.99316	0.23481
1888.06460	0.23462
1886.13604	0.23414
1884.20747	0.23376
1882.27891	0.23345
1880.35034	0.23314
1878.42178	0.23298
1876.49321	0.23295
1874.56465	0.23293
1872.63608	0.23314
1870.70752	0.23397
1868.77896	0.23533
1866.85039	0.23567
1864.92183	0.23478
1862.99326	0.23412
1861.06470	0.23413
1859.13613	0.23450
1857.20757	0.23475
1855.27900	0.23500
1853.35044	0.23540
1851.42187	0.23602
1849.49331	0.23686
1847.56475	0.23803
1845.63618	0.23949
1843.70762	0.24073
1841.77905	0.24087
1839.85049	0.24062
1837.92192	0.24115
1835.99336	0.24210
1834.06479	0.24307
1832.13623	0.24438
1830.20767	0.24647
1828.27910	0.24826
1826.35054	0.24913
1824.42197	0.25011
1822.49341	0.25088
1820.56484	0.25157
1818.63628	0.25269
1816.70771	0.25420
1814.77915	0.25581
1812.85059	0.25788
1810.92202	0.26039
1808.99346	0.26253
1807.06489	0.26411
1805.13633	0.26572
1803.20776	0.26797
1801.27920	0.27089
1799.35063	0.27396
1797.42207	0.27639
1795.49351	0.27870
1793.56494	0.28176
1791.63638	0.28562
1789.70781	0.28862
1787.77925	0.29056
1785.85068	0.29336
1783.92212	0.29711
1781.99355	0.30125
1780.06499	0.30551
1778.13643	0.30963
1776.20786	0.31371
1774.27930	0.31868
1772.35073	0.32535
1770.42217	0.33154
1768.49360	0.33587
1766.56504	0.34012
1764.63647	0.34496
1762.70791	0.35090
1760.77935	0.35852
1758.85078	0.36549
1756.92222	0.37253
1754.99365	0.38018
1753.06509	0.38736
1751.13652	0.39662
1749.20796	0.40826
1747.27939	0.41876
1745.35083	0.42736
1743.42227	0.43655
1741.49370	0.44689
1739.56514	0.45908
1737.63657	0.47128
1735.70801	0.48249
1733.77944	0.49959
1731.85088	0.51869
1729.92231	0.53282
1727.99375	0.54732
1726.06519	0.56334
1724.13662	0.58142
1722.20806	0.60133
1720.27949	0.62009
1718.35093	0.64264
1716.42236	0.67530
1714.49380	0.70467
1712.56523	0.72763
1710.63667	0.75039
1708.70811	0.77579
1706.77954	0.80537
1704.85098	0.84072
1702.92241	0.87198
1700.99385	0.90320
1699.06528	0.95012
1697.13672	0.99281
1695.20815	1.03560
1693.27959	1.07686
1691.35103	1.11086
1689.42246	1.15137
1687.49390	1.19439
1685.56533	1.23580
1683.63677	1.29990
1681.70820	1.36586
1679.77964	1.40729
1677.85107	1.44710
1675.92251	1.49374
1673.99395	1.55157
1672.06538	1.60322
1670.13682	1.65501
1668.20825	1.72196
1666.27969	1.77508
1664.35112	1.82024
1662.42256	1.87896
1660.49399	1.94672
1658.56543	2.00006
1656.63687	2.04349
1654.70830	2.08338
1652.77974	2.14335
1650.85117	2.19833
1648.92261	2.21902
1646.99404	2.24721
1645.06548	2.27575
1643.13691	2.29174
1641.20835	2.30008
1639.27979	2.30847
1637.35122	2.31537
1635.42266	2.31679
1633.49409	2.30780
1631.56553	2.29279
1629.63696	2.27595
1627.70840	2.24720
1625.77983	2.21250
1623.85127	2.17062
1621.92271	2.12015
1619.99414	2.07445
1618.06558	2.03008
1616.13701	1.96637
1614.20845	1.89949
1612.27988	1.84782
1610.35132	1.79485
1608.42275	1.73832
1606.49419	1.68253
1604.56562	1.63114
1602.63706	1.58178
1600.70850	1.53338
1598.77993	1.48889
1596.85137	1.44758
1594.92280	1.40741
1592.99424	1.36830
1591.06567	1.33266
1589.13711	1.29972
1587.20854	1.26929
1585.27998	1.24131
1583.35142	1.21531
1581.42285	1.19174
1579.49429	1.17214
1577.56572	1.15541
1575.63716	1.13464
1573.70859	1.11506
1571.78003	1.10257
1569.85146	1.09083
1567.92290	1.07758
1565.99434	1.06736
1564.06577	1.06009
1562.13721	1.05502
1560.20864	1.05336
1558.28008	1.05383
1556.35151	1.05174
1554.42295	1.04938
1552.49438	1.04784
1550.56582	1.04559
1548.63726	1.04138
1546.70869	1.03552
1544.78013	1.02787
1542.85156	1.01798
1540.92300	1.00339
1538.99443	0.97725
1537.06587	0.95571
1535.13730	0.94181
1533.20874	0.92462
1531.28018	0.90558
1529.35161	0.89159
1527.42305	0.87890
1525.49448	0.86581
1523.56592	0.85508
1521.63735	0.84528
1519.70879	0.83425
1517.78022	0.82417
1515.85166	0.81276
1513.92310	0.80105
1511.99453	0.79158
1510.06597	0.78394
1508.13740	0.77718
1506.20884	0.76436
1504.28027	0.75047
1502.35171	0.74251
1500.42314	0.73656
1498.49458	0.73085
1496.56602	0.72391
1494.63745	0.71652
1492.70889	0.71116
1490.78032	0.70721
1488.85176	0.70227
1486.92319	0.69615
1484.99463	0.69065
1483.06606	0.68664
1481.13750	0.68382
1479.20894	0.68175
1477.28037	0.68077
1475.35181	0.68102
1473.42324	0.68174
1471.49468	0.68056
1469.56611	0.67760
1467.63755	0.67525
1465.70898	0.67383
1463.78042	0.67231
1461.85186	0.67092
1459.92329	0.67101
1457.99473	0.67257
1456.06616	0.67226
1454.13760	0.66870
1452.20903	0.66529
1450.28047	0.66236
1448.35190	0.65969
1446.42334	0.65693
1444.49478	0.65413
1442.56621	0.65148
1440.63765	0.64890
1438.70908	0.64660
1436.78052	0.64422
1434.85195	0.64104
1432.92339	0.63804
1430.99482	0.63613
1429.06626	0.63496
1427.13770	0.63422
1425.20913	0.63436
1423.28057	0.63514
1421.35200	0.63583
1419.42344	0.63670
1417.49487	0.63681
1415.56631	0.63507
1413.63774	0.63343
1411.70918	0.63288
1409.78062	0.63323
1407.85205	0.63408
1405.92349	0.63533
1403.99492	0.63638
1402.06636	0.63650
1400.13779	0.63630
1398.20923	0.63576
1396.28066	0.63396
1394.35210	0.63049
1392.42354	0.62611
1390.49497	0.62223
1388.56641	0.61886
1386.63784	0.61498
1384.70928	0.61037
1382.78071	0.60588
1380.85215	0.60188
1378.92358	0.59860
1376.99502	0.59615
1375.06646	0.59444
1373.13789	0.59289
1371.20933	0.59148
1369.28076	0.59046
1367.35220	0.58935
1365.42363	0.58813
1363.49507	0.58720
1361.56650	0.58597
1359.63794	0.58408
1357.70937	0.58245
1355.78081	0.58127
1353.85225	0.58026
1351.92368	0.57948
1349.99512	0.57888
1348.06655	0.57822
1346.13799	0.57747
1344.20942	0.57674
1342.28086	0.57628
1340.35229	0.57628
1338.42373	0.57596
1336.49517	0.57484
1334.56660	0.57376
1332.63804	0.57333
1330.70947	0.57338
1328.78091	0.57362
1326.85234	0.57396
1324.92378	0.57444
1322.99521	0.57505
1321.06665	0.57571
1319.13809	0.57638
1317.20952	0.57675
1315.28096	0.57668
1313.35239	0.57634
1311.42383	0.57573
1309.49526	0.57505
1307.56670	0.57452
1305.63813	0.57406
1303.70957	0.57347
1301.78101	0.57269
1299.85244	0.57175
1297.92388	0.57078
1295.99531	0.56981
1294.06675	0.56877
1292.13818	0.56778
1290.20962	0.56690
1288.28105	0.56592
1286.35249	0.56468
1284.42393	0.56348
1282.49536	0.56246
1280.56680	0.56148
1278.63823	0.56042
1276.70967	0.55920
1274.78110	0.55806
1272.85254	0.55745
1270.92397	0.55705
1268.99541	0.55630
1267.06685	0.55537
1265.13828	0.55450
1263.20972	0.55370
1261.28115	0.55308
1259.35259	0.55256
1257.42402	0.55203
1255.49546	0.55158
1253.56689	0.55140
1251.63833	0.55153
1249.70977	0.55178
1247.78120	0.55187
1245.85264	0.55166
1243.92407	0.55108
1241.99551	0.55021
1240.06694	0.54919
1238.13838	0.54798
1236.20981	0.54633
1234.28125	0.54437
1232.35269	0.54248
1230.42412	0.54076
1228.49556	0.53917
1226.56699	0.53757
1224.63843	0.53596
1222.70986	0.53451
1220.78130	0.53328
1218.85273	0.53216
1216.92417	0.53112
1214.99561	0.53019
1213.06704	0.52928
1211.13848	0.52849
1209.20991	0.52794
1207.28135	0.52737
1205.35278	0.52654
1203.42422	0.52564
1201.49565	0.52484
1199.56709	0.52420
1197.63853	0.52373
1195.70996	0.52329
1193.78140	0.52283
1191.85283	0.52245
1189.92427	0.52214
1187.99570	0.52174
1186.06714	0.52135
1184.13857	0.52134
1182.21001	0.52179
1180.28145	0.52255
1178.35288	0.52345
1176.42432	0.52444
1174.49575	0.52543
1172.56719	0.52612
1170.63862	0.52626
1168.71006	0.52608
1166.78149	0.52584
1164.85293	0.52551
1162.92437	0.52494
1160.99580	0.52420
1159.06724	0.52355
1157.13867	0.52294
1155.21011	0.52201
1153.28154	0.52072
1151.35298	0.51920
1149.42441	0.51737
1147.49585	0.51523
1145.56729	0.51291
1143.63872	0.51050
1141.71016	0.50827
1139.78159	0.50645
1137.85303	0.50497
1135.92446	0.50360
1133.99590	0.50253
1132.06733	0.50196
1130.13877	0.50148
1128.21021	0.50067
1126.28164	0.49972
1124.35308	0.49889
1122.42451	0.49801
1120.49595	0.49707
1118.56738	0.49648
1116.63882	0.49632
1114.71025	0.49621
1112.78169	0.49607
1110.85312	0.49624
1108.92456	0.49684
1106.99600	0.49763
1105.06743	0.49866
1103.13887	0.50014
1101.21030	0.50202
1099.28174	0.50415
1097.35317	0.50646
1095.42461	0.50906
1093.49604	0.51237
1091.56748	0.51681
1089.63892	0.52216
1087.71035	0.52791
1085.78179	0.53405
1083.85322	0.54055
1081.92466	0.54663
1079.99609	0.55161
1078.06753	0.55495
1076.13896	0.55584
1074.21040	0.55377
1072.28184	0.54932
1070.35327	0.54341
1068.42471	0.53670
1066.49614	0.52966
1064.56758	0.52286
1062.63901	0.51681
1060.71045	0.51151
1058.78188	0.50685
1056.85332	0.50274
1054.92476	0.49921
1052.99619	0.49643
1051.06763	0.49416
1049.13906	0.49199
1047.21050	0.48974
1045.28193	0.48764
1043.35337	0.48604
1041.42480	0.48497
1039.49624	0.48407
1037.56768	0.48320
1035.63911	0.48264
1033.71055	0.48238
1031.78198	0.48202
1029.85342	0.48144
1027.92485	0.48110
1025.99629	0.48124
1024.06772	0.48164
1022.13916	0.48222
1020.21060	0.48292
1018.28203	0.48369
1016.35347	0.48451
1014.42490	0.48536
1012.49634	0.48617
1010.56777	0.48705
1008.63921	0.48814
1006.71064	0.48958
1004.78208	0.49139
1002.85352	0.49366
1000.92495	0.49634
998.99639	0.49935
997.06782	0.50286
995.13926	0.50690
993.21069	0.51103
991.28213	0.51465
989.35356	0.51741
987.42500	0.51916
985.49644	0.51998
983.56787	0.52038
981.63931	0.52103
979.71074	0.52220
977.78218	0.52400
975.85361	0.52621
973.92505	0.52867
971.99648	0.53165
970.06792	0.53524
968.13936	0.53912
966.21079	0.54312
964.28223	0.54740
962.35366	0.55211
960.42510	0.55715
958.49653	0.56238
956.56797	0.56769
954.63940	0.57325
952.71084	0.57946
950.78228	0.58616
948.85371	0.59286
946.92515	0.59944
944.99658	0.60581
943.06802	0.61191
941.13945	0.61800
939.21089	0.62409
937.28232	0.62955
935.35376	0.63432
933.42520	0.63930
931.49663	0.64482
929.56807	0.65082
927.63950	0.65715
925.71094	0.66314
923.78237	0.66893
921.85381	0.67483
919.92524	0.68088
917.99668	0.68729
916.06812	0.69387
914.13955	0.70102
912.21099	0.70902
910.28242	0.71687
908.35386	0.72454
906.42529	0.73299
904.49673	0.74186
902.56816	0.75053
900.63960	0.75944
898.71104	0.76893
896.78247	0.77814
894.85391	0.78674
892.92534	0.79602
890.99678	0.80640
889.06821	0.81758
887.13965	0.82914
885.21108	0.84019
883.28252	0.85201
881.35396	0.86470
879.42539	0.87581
877.49683	0.88619
875.56826	0.89699
873.63970	0.90672
871.71113	0.91651
869.78257	0.92802
867.85400	0.94010
865.92544	0.95218
863.99687	0.96413
862.06831	0.97575
860.13975	0.98785
858.21118	1.00002
856.28262	1.01075
854.35405	1.01993
852.42549	1.02979
850.49692	1.04248
848.56836	1.05686
846.63979	1.07077
844.71123	1.08382
842.78267	1.09599
840.85410	1.10605
838.92554	1.11322
836.99697	1.12088
835.06841	1.13213
833.13984	1.14505
831.21128	1.15773
829.28271	1.17024
827.35415	1.18067
825.42559	1.18689
823.49702	1.19478
821.56846	1.21087
819.63989	1.22863
817.71133	1.24014
815.78276	1.25268
813.85420	1.27268
811.92563	1.28922
809.99707	1.29413
808.06851	1.30344
806.13994	1.32160
804.21138	1.32703
802.28281	1.31831
800.35425	1.31345
798.42568	1.32427
796.49712	1.33493
794.56855	1.33572
792.63999	1.35547
790.71143	1.38334
788.78286	1.39077
786.85430	1.39274
784.92573	1.40231
782.99717	1.41916
781.06860	1.45214
779.14004	1.50037
777.21147	1.55160
775.28291	1.60007
773.35435	1.64336
771.42578	1.72368
769.49722	1.75810
767.56865	1.67073
765.64009	1.65241
763.71152	1.71014
761.78296	1.65754
759.85439	1.60065
757.92583	1.68917
755.99727	1.72612
754.06870	1.57835
752.14014	1.54793
750.21157	1.74553
748.28301	1.87824
746.35444	1.67305
744.42588	1.55192
742.49731	1.29551
740.56875	1.00841
738.64019	0.86453
736.71162	0.85662
734.78306	0.92185
732.85449	0.99241
730.92593	1.01783
728.99736	0.90735
727.06880	0.77220
725.14023	0.71809
723.21167	0.69607
721.28311	0.68582
719.35454	0.73717
717.42598	0.63668
715.49741	0.43114
713.56885	0.27949
711.64028	0.01047
709.71172	-0.28810
707.78315	-0.34559
705.85459	-0.06000
703.92603	0.34877
701.99746	0.52340
700.06890	0.48947
698.14033	0.56383
696.21177	0.87992
694.28320	1.20604
692.35464	0.77372
690.42607	0.47925
688.49751	0.33600
686.56895	0.31227
684.64038	0.38941
682.71182	0.69252
680.78325	4.08470
678.85469	4.07313
676.92612	0.75034
674.99756	0.43403
673.06899	0.32855
671.14043	0.38588
669.21187	0.44460
667.28330	0.38455
665.35474	0.35641
663.42617	0.48309
661.49761	0.70822
659.56904	0.58952
657.64048	0.44415
655.71191	0.55571
653.78335	0.86569
651.85479	0.73576
649.92622	0.45246
647.99766	0.29284
646.06909	0.22674
644.14053	0.22916
642.21196	0.24059
640.28340	0.27947
638.35483	0.38021
636.42627	0.38100
634.49771	0.23625
632.56914	0.15668
630.64058	0.16419
628.71201	0.25417
626.78345	0.43463
624.85488	0.64240
622.92632	3.73756
620.99775	3.72599
619.06919	3.71442
617.14062	3.70284
615.21206	0.42069
613.28350	0.27047
611.35493	0.25479
609.42637	0.30483
607.49780	0.33497
605.56924	0.29828
603.64067	0.27186
601.71211	0.32464
599.78354	0.40047
597.85498	0.38412
595.92642	0.36905
593.99785	0.41154
592.06929	0.44945
590.14072	0.45108
588.21216	0.48844
586.28359	0.83224
584.35503	3.50613
582.42646	0.91942
580.49790	0.45332
578.56934	0.32753
576.64077	0.31389
574.71221	0.42074
572.78364	0.45729
570.85508	0.34403
568.92651	0.33256
566.99795	0.30969
565.06938	0.19223
563.14082	0.11342
561.21226	0.13120
559.28369	0.25701
557.35513	0.40541
555.42656	0.41012
553.49800	0.33521
551.56943	0.23735
549.64087	0.17354
547.71230	0.17823
545.78374	0.23602
543.85518	0.27015
541.92661	0.28054
539.99805	0.35700
538.06948	0.47420
536.14092	0.51490
534.21235	0.43420
532.28379	0.33404
530.35522	0.29043
528.42666	0.27913
526.49810	0.26157
524.56953	0.22458
522.64097	0.17084
520.71240	0.13833
518.78384	0.15875
516.85527	0.22601
514.92671	0.29775
512.99814	0.29678
511.06958	0.25465
509.14102	0.22115
507.21245	0.22053
505.28389	0.24352
503.35532	0.33057
501.42676	0.55906
499.49819	0.52621
