3997.91411	0.06788
3995.98555	0.06793
3994.05698	0.06791
3992.12842	0.06820
3990.19985	0.06858
3988.27129	0.06865
3986.34272	0.06851
3984.41416	0.06860
3982.48560	0.06907
3980.55703	0.06953
3978.62847	0.06967
3976.69990	0.06989
3974.77134	0.07058
3972.84277	0.07135
3970.91421	0.07161
3968.98564	0.07143
3967.05708	0.07097
3965.12852	0.07059
3963.19995	0.07082
3961.27139	0.07141
3959.34282	0.07189
3957.41426	0.07237
3955.48569	0.07256
3953.55713	0.07228
3951.62856	0.07219
3949.70000	0.07249
3947.77144	0.07269
3945.84287	0.07255
3943.91431	0.07253
3941.98574	0.07297
3940.05718	0.07319
3938.12861	0.07283
3936.20005	0.07238
3934.27148	0.07232
3932.34292	0.07286
3930.41436	0.07334
3928.48579	0.07307
3926.55723	0.07270
3924.62866	0.07300
3922.70010	0.07318
3920.77153	0.07257
3918.84297	0.07222
3916.91440	0.07264
3914.98584	0.07293
3913.05728	0.07265
3911.12871	0.07236
3909.20015	0.07199
3907.27158	0.07159
3905.34302	0.07193
3903.41445	0.07314
3901.48589	0.07419
3899.55732	0.07473
3897.62876	0.07459
3895.70020	0.07369
3893.77163	0.07306
3891.84307	0.07331
3889.91450	0.07381
3887.98594	0.07374
3886.05737	0.07387
3884.12881	0.07439
3882.20024	0.07411
3880.27168	0.07370
3878.34312	0.07368
3876.41455	0.07333
3874.48599	0.07345
3872.55742	0.07457
3870.62886	0.07579
3868.70029	0.07652
3866.77173	0.07654
3864.84316	0.07640
3862.91460	0.07640
3860.98604	0.07630
3859.05747	0.07645
3857.12891	0.07700
3855.20034	0.07783
3853.27178	0.07940
3851.34321	0.08078
3849.41465	0.08005
3847.48608	0.07889
3845.55752	0.07860
3843.62896	0.07957
3841.70039	0.08116
3839.77183	0.08245
3837.84326	0.08351
3835.91470	0.08413
3833.98613	0.08432
3832.05757	0.08457
3830.12900	0.08476
3828.20044	0.08507
3826.27187	0.08616
3824.34331	0.08747
3822.41475	0.08848
3820.48618	0.09009
3818.55762	0.09125
3816.62905	0.09145
3814.70049	0.09187
3812.77192	0.09205
3810.84336	0.09208
3808.91479	0.09276
3806.98623	0.09467
3805.05767	0.09686
3803.12910	0.09794
3801.20054	0.09941
3799.27197	0.10116
3797.34341	0.10176
3795.41484	0.10239
3793.48628	0.10286
3791.55771	0.10308
3789.62915	0.10393
3787.70059	0.10528
3785.77202	0.10682
3783.84346	0.10854
3781.91489	0.11020
3779.98633	0.11185
3778.05776	0.11347
3776.12920	0.11460
3774.20063	0.11573
3772.27207	0.11746
3770.34351	0.11991
3768.41494	0.12277
3766.48638	0.12517
3764.55781	0.12706
3762.62925	0.12837
3760.70068	0.12986
3758.77212	0.13293
3756.84355	0.13651
3754.91499	0.13867
3752.98643	0.14067
3751.05786	0.14462
3749.12930	0.14998
3747.20073	0.15296
3745.27217	0.15474
3743.34360	0.15817
3741.41504	0.16155
3739.48647	0.16375
3737.55791	0.16670
3735.62935	0.17195
3733.70078	0.17903
3731.77222	0.18448
3729.84365	0.18789
3727.91509	0.19139
3725.98652	0.19686
3724.05796	0.20395
3722.12939	0.21079
3720.20083	0.21721
3718.27227	0.22390
3716.34370	0.23114
3714.41514	0.23891
3712.48657	0.24872
3710.55801	0.26234
3708.62944	0.27643
3706.70088	0.28808
3704.77231	0.29945
3702.84375	0.31282
3700.91519	0.33014
3698.98662	0.34905
3697.05806	0.36679
3695.12949	0.38534
3693.20093	0.40492
3691.27236	0.42644
3689.34380	0.45481
3687.41523	0.49004
3685.48667	0.52094
3683.55811	0.54715
3681.62954	0.57510
3679.70098	0.60678
3677.77241	0.64031
3675.84385	0.68066
3673.91528	0.73554
3671.98672	0.77966
3670.05815	0.81772
3668.12959	0.87073
3666.20103	0.91994
3664.27246	0.96086
3662.34390	1.00433
3660.41533	1.05152
3658.48677	1.09868
3656.55820	1.14930
3654.62964	1.20579
3652.70107	1.25316
3650.77251	1.29409
3648.84395	1.35071
3646.91538	1.42031
3644.98682	1.47098
3643.05825	1.51010
3641.12969	1.55068
3639.20112	1.59550
3637.27256	1.64063
3635.34399	1.68424
3633.41543	1.72772
3631.48687	1.76890
3629.55830	1.81063
3627.62974	1.86442
3625.70117	1.91474
3623.77261	1.94916
3621.84404	1.98227
3619.91548	2.02038
3617.98691	2.06610
3616.05835	2.10969
3614.12979	2.14664
3612.20122	2.18612
3610.27266	2.22581
3608.34409	2.26626
3606.41553	2.31062
3604.48696	2.35172
3602.55840	2.38670
3600.62983	2.42407
3598.70127	2.46568
3596.77271	2.50571
3594.84414	2.54498
3592.91558	2.58499
3590.98701	2.62269
3589.05845	2.65901
3587.12988	2.70355
3585.20132	2.75222
3583.27275	2.79352
3581.34419	2.83218
3579.41562	2.87306
3577.48706	2.91517
3575.55850	2.95678
3573.62993	2.99954
3571.70137	3.04159
3569.77280	3.08122
3567.84424	3.12344
3565.91567	3.17731
3563.98711	3.23102
3562.05854	3.27339
3560.12998	3.31377
3558.20142	3.35663
3556.27285	3.40013
3554.34429	3.44335
3552.41572	3.49033
3550.48716	3.53938
3548.55859	3.58637
3546.63003	3.63383
3544.70146	3.68236
3542.77290	3.72607
3540.84434	3.76815
3538.91577	3.81543
3536.98721	3.86437
3535.05864	3.91215
3533.13008	3.95809
3531.20151	4.00369
3529.27295	4.05064
3527.34438	4.09839
3525.41582	4.14708
3523.48726	4.19740
3521.55869	4.24599
3519.63013	4.29077
3517.70156	4.33697
3515.77300	4.38655
3513.84443	4.43673
3511.91587	4.48201
3509.98730	4.52368
3508.05874	4.56948
3506.13018	4.61790
3504.20161	4.66364
3502.27305	4.71091
3500.34448	4.76220
3498.41592	4.81229
3496.48735	4.86188
3494.55879	4.91363
3492.63022	4.96577
3490.70166	5.01284
3488.77310	5.05415
3486.84453	5.09589
3484.91597	5.14306
3482.98740	5.19412
3481.05884	5.24456
3479.13027	5.29719
3477.20171	5.35579
3475.27314	5.41435
3473.34458	5.46484
3471.41602	5.50573
3469.48745	5.54134
3467.55889	5.58053
3465.63032	5.63055
3463.70176	5.68507
3461.77319	5.73154
3459.84463	5.77483
3457.91606	5.82050
3455.98750	5.87196
3454.05894	5.93535
3452.13037	5.99402
3450.20181	6.03646
3448.27324	6.07686
3446.34468	6.12516
3444.41611	6.17494
3442.48755	6.22004
3440.55898	6.26062
3438.63042	6.30660
3436.70186	6.36401
3434.77329	6.41556
3432.84473	6.45289
3430.91616	6.50594
3428.98760	6.57349
3427.05903	6.60805
3425.13047	6.63195
3423.20190	6.68921
3421.27334	6.77128
3419.34478	6.84078
3417.41621	6.88125
3415.48765	6.92438
3413.55908	6.97166
3411.63052	6.99876
3409.70195	7.01876
3407.77339	7.05377
3405.84482	7.08453
3403.91626	7.12415
3401.98770	7.19748
3400.05913	7.27175
3398.13057	7.31281
3396.20200	7.32033
3394.27344	7.32396
3392.34487	7.34022
3390.41631	7.37869
3388.48774	7.46263
3386.55918	7.59842
3384.63062	7.69312
3382.70205	7.67399
3380.77349	7.64684
3378.84492	7.67583
3376.91636	7.69007
3374.98779	7.66719
3373.05923	7.65812
3371.13066	7.64578
3369.20210	7.64871
3367.27354	7.71807
3365.34497	7.82738
3363.41641	7.88144
3361.48784	7.85827
3359.55928	7.82819
3357.63071	7.79944
3355.70215	7.77037
3353.77358	7.75490
3351.84502	7.76270
3349.91646	7.80016
3347.98789	7.87883
3346.05933	7.95734
3344.13076	7.98307
3342.20220	7.95888
3340.27363	7.90140
3338.34507	7.87002
3336.41650	7.88361
3334.48794	7.92235
3332.55937	7.97028
3330.63081	8.01154
3328.70225	7.99800
3326.77368	7.95831
3324.84512	7.95769
3322.91655	7.95332
3320.98799	7.93980
3319.05942	7.93731
3317.13086	7.95117
3315.20229	8.01251
3313.27373	8.10460
3311.34517	8.09336
3309.41660	8.00109
3307.48804	7.98746
3305.55947	8.04182
3303.63091	8.07534
3301.70234	8.03238
3299.77378	7.96609
3297.84521	7.92916
3295.91665	7.92480
3293.98809	7.96456
3292.05952	8.02480
3290.13096	8.09256
3288.20239	8.15739
3286.27383	8.16214
3284.34526	8.13050
3282.41670	8.14687
3280.48813	8.17716
3278.55957	8.16317
3276.63101	8.10885
3274.70244	8.06242
3272.77388	8.08648
3270.84531	8.18497
3268.91675	8.27205
3266.98818	8.25379
3265.05962	8.19893
3263.13105	8.22059
3261.20249	8.30912
3259.27393	8.37049
3257.34536	8.36235
3255.41680	8.27998
3253.48823	8.17710
3251.55967	8.12803
3249.63110	8.08681
3247.70254	8.03646
3245.77397	8.02588
3243.84541	8.04444
3241.91685	8.06460
3239.98828	8.08211
3238.05972	8.08957
3236.13115	8.10264
3234.20259	8.11955
3232.27402	8.13114
3230.34546	8.13369
3228.41689	8.08282
3226.48833	8.00384
3224.55977	7.96210
3222.63120	7.95424
3220.70264	7.92907
3218.77407	7.89271
3216.84551	7.90698
3214.91694	7.94080
3212.98838	7.90886
3211.05981	7.83655
3209.13125	7.77096
3207.20269	7.72637
3205.27412	7.74417
3203.34556	7.78040
3201.41699	7.74803
3199.48843	7.67153
3197.55986	7.59380
3195.63130	7.53682
3193.70273	7.51725
3191.77417	7.50463
3189.84561	7.47544
3187.91704	7.43095
3185.98848	7.36723
3184.05991	7.29766
3182.13135	7.23574
3180.20278	7.19612
3178.27422	7.16590
3176.34565	7.09466
3174.41709	7.00212
3172.48853	6.93168
3170.55996	6.85863
3168.63140	6.78800
3166.70283	6.74837
3164.77427	6.71016
3162.84570	6.65891
3160.91714	6.60835
3158.98857	6.55218
3157.06001	6.49321
3155.13145	6.42846
3153.20288	6.34408
3151.27432	6.26356
3149.34575	6.20869
3147.41719	6.15653
3145.48862	6.08572
3143.56006	6.01195
3141.63149	5.94174
3139.70293	5.86127
3137.77437	5.78444
3135.84580	5.72481
3133.91724	5.66898
3131.98867	5.60341
3130.06011	5.53010
3128.13154	5.45480
3126.20298	5.37938
3124.27441	5.31559
3122.34585	5.26319
3120.41729	5.20468
3118.48872	5.13586
3116.56016	5.06176
3114.63159	4.98305
3112.70303	4.90295
3110.77446	4.82945
3108.84590	4.76429
3106.91733	4.69937
3104.98877	4.63153
3103.06021	4.56505
3101.13164	4.49980
3099.20308	4.43538
3097.27451	4.37070
3095.34595	4.30576
3093.41738	4.24304
3091.48882	4.17848
3089.56025	4.11339
3087.63169	4.05463
3085.70312	3.99758
3083.77456	3.93629
3081.84600	3.87502
3079.91743	3.81592
3077.98887	3.75644
3076.06030	3.69783
3074.13174	3.64281
3072.20317	3.58945
3070.27461	3.53487
3068.34604	3.47984
3066.41748	3.42449
3064.48892	3.36908
3062.56035	3.31559
3060.63179	3.26354
3058.70322	3.21103
3056.77466	3.15739
3054.84609	3.10324
3052.91753	3.05074
3050.98896	3.00053
3049.06040	2.95123
3047.13184	2.90280
3045.20327	2.85462
3043.27471	2.80650
3041.34614	2.75988
3039.41758	2.71408
3037.48901	2.66840
3035.56045	2.62390
3033.63188	2.57991
3031.70332	2.53507
3029.77476	2.49116
3027.84619	2.44976
3025.91763	2.40872
3023.98906	2.36637
3022.06050	2.32438
3020.13193	2.28422
3018.20337	2.24497
3016.27480	2.20593
3014.34624	2.16736
3012.41768	2.12943
3010.48911	2.09249
3008.56055	2.05662
3006.63198	2.02140
3004.70342	1.98647
3002.77485	1.95167
3000.84629	1.91735
2998.91772	1.88434
2996.98916	1.85247
2995.06060	1.82121
2993.13203	1.79065
2991.20347	1.76075
2989.27490	1.73125
2987.34634	1.70194
2985.41777	1.67329
2983.48921	1.64590
2981.56064	1.61963
2979.63208	1.59390
2977.70352	1.56833
2975.77495	1.54300
2973.84639	1.51812
2971.91782	1.49387
2969.98926	1.47040
2968.06069	1.44740
2966.13213	1.42440
2964.20356	1.40114
2962.27500	1.37758
2960.34644	1.35400
2958.41787	1.33081
2956.48931	1.30772
2954.56074	1.28450
2952.63218	1.26122
2950.70361	1.23797
2948.77505	1.21533
2946.84648	1.19354
2944.91792	1.17237
2942.98936	1.15177
2941.06079	1.13167
2939.13223	1.11201
2937.20366	1.09299
2935.27510	1.07421
2933.34653	1.05512
2931.41797	1.03610
2929.48940	1.01726
2927.56084	0.99825
2925.63228	0.97971
2923.70371	0.96207
2921.77515	0.94452
2919.84658	0.92729
2917.91802	0.91088
2915.98945	0.89455
2914.06089	0.87794
2912.13232	0.86139
2910.20376	0.84532
2908.27520	0.82989
2906.34663	0.81494
2904.41807	0.80048
2902.48950	0.78651
2900.56094	0.77254
2898.63237	0.75865
2896.70381	0.74538
2894.77524	0.73260
2892.84668	0.72018
2890.91812	0.70840
2888.98955	0.69728
2887.06099	0.68642
2885.13242	0.67570
2883.20386	0.66552
2881.27529	0.65607
2879.34673	0.64695
2877.41816	0.63769
2875.48960	0.62828
2873.56104	0.61875
2871.63247	0.60874
2869.70391	0.59796
2867.77534	0.58666
2865.84678	0.57503
2863.91821	0.56338
2861.98965	0.55237
2860.06108	0.54221
2858.13252	0.53285
2856.20396	0.52416
2854.27539	0.51555
2852.34683	0.50660
2850.41826	0.49767
2848.48970	0.48933
2846.56113	0.48145
2844.63257	0.47356
2842.70400	0.46599
2840.77544	0.45922
2838.84687	0.45309
2836.91831	0.44707
2834.98975	0.44100
2833.06118	0.43509
2831.13262	0.42935
2829.20405	0.42374
2827.27549	0.41799
2825.34692	0.41192
2823.41836	0.40590
2821.48979	0.40020
2819.56123	0.39461
2817.63267	0.38898
2815.70410	0.38339
2813.77554	0.37791
2811.84697	0.37252
2809.91841	0.36715
2807.98984	0.36176
2806.06128	0.35648
2804.13271	0.35148
2802.20415	0.34665
2800.27559	0.34185
2798.34702	0.33705
2796.41846	0.33227
2794.48989	0.32758
2792.56133	0.32306
2790.63276	0.31875
2788.70420	0.31443
2786.77563	0.31002
2784.84707	0.30567
2782.91851	0.30146
2780.98994	0.29733
2779.06138	0.29334
2777.13281	0.28946
2775.20425	0.28560
2773.27568	0.28190
2771.34712	0.27842
2769.41855	0.27498
2767.48999	0.27137
2765.56143	0.26772
2763.63286	0.26421
2761.70430	0.26076
2759.77573	0.25740
2757.84717	0.25426
2755.91860	0.25133
2753.99004	0.24848
2752.06147	0.24562
2750.13291	0.24262
2748.20435	0.23959
2746.27578	0.23682
2744.34722	0.23425
2742.41865	0.23171
2740.49009	0.22914
2738.56152	0.22658
2736.63296	0.22402
2734.70439	0.22143
2732.77583	0.21883
2730.84727	0.21634
2728.91870	0.21410
2726.99014	0.21202
2725.06157	0.20987
2723.13301	0.20761
2721.20444	0.20534
2719.27588	0.20328
2717.34731	0.20141
2715.41875	0.19955
2713.49019	0.19772
2711.56162	0.19599
2709.63306	0.19434
2707.70449	0.19271
2705.77593	0.19102
2703.84736	0.18923
2701.91880	0.18761
2699.99023	0.18618
2698.06167	0.18472
2696.13311	0.18330
2694.20454	0.18208
2692.27598	0.18085
2690.34741	0.17947
2688.41885	0.17812
2686.49028	0.17688
2684.56172	0.17572
2682.63315	0.17470
2680.70459	0.17372
2678.77603	0.17266
2676.84746	0.17149
2674.91890	0.17029
2672.99033	0.16913
2671.06177	0.16806
2669.13320	0.16708
2667.20464	0.16616
2665.27607	0.16532
2663.34751	0.16449
2661.41895	0.16349
2659.49038	0.16251
2657.56182	0.16182
2655.63325	0.16126
2653.70469	0.16060
2651.77612	0.15987
2649.84756	0.15911
2647.91899	0.15834
2645.99043	0.15773
2644.06187	0.15729
2642.13330	0.15684
2640.20474	0.15631
2638.27617	0.15582
2636.34761	0.15538
2634.41904	0.15487
2632.49048	0.15433
2630.56191	0.15389
2628.63335	0.15359
2626.70479	0.15326
2624.77622	0.15281
2622.84766	0.15242
2620.91909	0.15222
2618.99053	0.15206
2617.06196	0.15175
2615.13340	0.15133
2613.20483	0.15101
2611.27627	0.15098
2609.34771	0.15109
2607.41914	0.15108
2605.49058	0.15088
2603.56201	0.15068
2601.63345	0.15061
2599.70488	0.15061
2597.77632	0.15059
2595.84775	0.15049
2593.91919	0.15047
2591.99062	0.15061
2590.06206	0.15071
2588.13350	0.15083
2586.20493	0.15111
2584.27637	0.15136
2582.34780	0.15147
2580.41924	0.15160
2578.49067	0.15178
2576.56211	0.15199
2574.63354	0.15225
2572.70498	0.15263
2570.77642	0.15310
2568.84785	0.15345
2566.91929	0.15368
2564.99072	0.15391
2563.06216	0.15419
2561.13359	0.15455
2559.20503	0.15493
2557.27646	0.15526
2555.34790	0.15566
2553.41934	0.15617
2551.49077	0.15659
2549.56221	0.15692
2547.63364	0.15735
2545.70508	0.15797
2543.77651	0.15873
2541.84795	0.15946
2539.91938	0.16004
2537.99082	0.16061
2536.06226	0.16121
2534.13369	0.16175
2532.20513	0.16233
2530.27656	0.16304
2528.34800	0.16373
2526.41943	0.16437
2524.49087	0.16499
2522.56230	0.16563
2520.63374	0.16628
2518.70518	0.16696
2516.77661	0.16771
2514.84805	0.16852
2512.91948	0.16935
2510.99092	0.17018
2509.06235	0.17087
2507.13379	0.17149
2505.20522	0.17231
2503.27666	0.17322
2501.34810	0.17407
2499.41953	0.17489
2497.49097	0.17565
2495.56240	0.17643
2493.63384	0.17727
2491.70527	0.17795
2489.77671	0.17851
2487.84814	0.17925
2485.91958	0.18030
2483.99102	0.18140
2482.06245	0.18221
2480.13389	0.18288
2478.20532	0.18373
2476.27676	0.18469
2474.34819	0.18559
2472.41963	0.18637
2470.49106	0.18712
2468.56250	0.18789
2466.63394	0.18870
2464.70537	0.18963
2462.77681	0.19055
2460.84824	0.19137
2458.91968	0.19222
2456.99111	0.19316
2455.06255	0.19412
2453.13398	0.19506
2451.20542	0.19595
2449.27686	0.19677
2447.34829	0.19764
2445.41973	0.19862
2443.49116	0.19967
2441.56260	0.20077
2439.63403	0.20191
2437.70547	0.20297
2435.77690	0.20391
2433.84834	0.20480
2431.91978	0.20575
2429.99121	0.20678
2428.06265	0.20786
2426.13408	0.20896
2424.20552	0.21014
2422.27695	0.21135
2420.34839	0.21249
2418.41982	0.21352
2416.49126	0.21448
2414.56270	0.21542
2412.63413	0.21640
2410.70557	0.21751
2408.77700	0.21874
2406.84844	0.21990
2404.91987	0.22100
2402.99131	0.22219
2401.06274	0.22341
2399.13418	0.22458
2397.20562	0.22573
2395.27705	0.22691
2393.34849	0.22813
2391.41992	0.22935
2389.49136	0.23058
2387.56279	0.23207
2385.63423	0.23399
2383.70566	0.23633
2381.77710	0.23881
2379.84854	0.24135
2377.91997	0.24418
2375.99141	0.24741
2374.06284	0.25088
2372.13428	0.25443
2370.20571	0.25796
2368.27715	0.26145
2366.34858	0.26529
2364.42002	0.26930
2362.49146	0.27259
2360.56289	0.27527
2358.63433	0.27739
2356.70576	0.27817
2354.77720	0.27740
2352.84863	0.27606
2350.92007	0.27459
2348.99150	0.27352
2347.06294	0.27399
2345.13437	0.27667
2343.20581	0.28065
2341.27725	0.28375
2339.34868	0.28513
2337.42012	0.28576
2335.49155	0.28685
2333.56299	0.28822
2331.63442	0.28951
2329.70586	0.29068
2327.77729	0.29181
2325.84873	0.29281
2323.92017	0.29377
2321.99160	0.29472
2320.06304	0.29540
2318.13447	0.29583
2316.20591	0.29637
2314.27734	0.29745
2312.34878	0.29889
2310.42021	0.30013
2308.49165	0.30099
2306.56309	0.30177
2304.63452	0.30269
2302.70596	0.30382
2300.77739	0.30504
2298.84883	0.30629
2296.92026	0.30761
2294.99170	0.30905
2293.06313	0.31057
2291.13457	0.31207
2289.20601	0.31365
2287.27744	0.31529
2285.34888	0.31688
2283.42031	0.31850
2281.49175	0.32035
2279.56318	0.32238
2277.63462	0.32434
2275.70605	0.32626
2273.77749	0.32832
2271.84893	0.33043
2269.92036	0.33241
2267.99180	0.33433
2266.06323	0.33636
2264.13467	0.33853
2262.20610	0.34072
2260.27754	0.34283
2258.34897	0.34487
2256.42041	0.34689
2254.49185	0.34896
2252.56328	0.35107
2250.63472	0.35306
2248.70615	0.35496
2246.77759	0.35694
2244.84902	0.35901
2242.92046	0.36122
2240.99189	0.36357
2239.06333	0.36587
2237.13477	0.36810
2235.20620	0.37035
2233.27764	0.37259
2231.34907	0.37468
2229.42051	0.37669
2227.49194	0.37883
2225.56338	0.38108
2223.63481	0.38330
2221.70625	0.38547
2219.77769	0.38752
2217.84912	0.38948
2215.92056	0.39154
2213.99199	0.39372
2212.06343	0.39596
2210.13486	0.39823
2208.20630	0.40037
2206.27773	0.40230
2204.34917	0.40417
2202.42061	0.40611
2200.49204	0.40812
2198.56348	0.41023
2196.63491	0.41241
2194.70635	0.41445
2192.77778	0.41631
2190.84922	0.41814
2188.92065	0.42000
2186.99209	0.42186
2185.06353	0.42362
2183.13496	0.42521
2181.20640	0.42678
2179.27783	0.42844
2177.34927	0.43014
2175.42070	0.43172
2173.49214	0.43315
2171.56357	0.43453
2169.63501	0.43595
2167.70645	0.43742
2165.77788	0.43881
2163.84932	0.44000
2161.92075	0.44108
2159.99219	0.44212
2158.06362	0.44317
2156.13506	0.44429
2154.20649	0.44526
2152.27793	0.44606
2150.34937	0.44683
2148.42080	0.44755
2146.49224	0.44827
2144.56367	0.44892
2142.63511	0.44940
2140.70654	0.44976
2138.77798	0.45004
2136.84941	0.45020
2134.92085	0.45029
2132.99229	0.45039
2131.06372	0.45041
2129.13516	0.45032
2127.20659	0.45023
2125.27803	0.45008
2123.34946	0.44974
2121.42090	0.44924
2119.49233	0.44860
2117.56377	0.44797
2115.63521	0.44744
2113.70664	0.44693
2111.77808	0.44630
2109.84951	0.44550
2107.92095	0.44454
2105.99238	0.44344
2104.06382	0.44228
2102.13525	0.44109
2100.20669	0.43990
2098.27812	0.43865
2096.34956	0.43738
2094.42100	0.43603
2092.49243	0.43454
2090.56387	0.43295
2088.63530	0.43132
2086.70674	0.42960
2084.77817	0.42777
2082.84961	0.42597
2080.92104	0.42413
2078.99248	0.42220
2077.06392	0.42023
2075.13535	0.41821
2073.20679	0.41613
2071.27822	0.41398
2069.34966	0.41177
2067.42109	0.40956
2065.49253	0.40743
2063.56396	0.40520
2061.63540	0.40286
2059.70684	0.40049
2057.77827	0.39812
2055.84971	0.39576
2053.92114	0.39335
2051.99258	0.39085
2050.06401	0.38833
2048.13545	0.38580
2046.20688	0.38318
2044.27832	0.38059
2042.34976	0.37807
2040.42119	0.37543
2038.49263	0.37273
2036.56406	0.37005
2034.63550	0.36725
2032.70693	0.36440
2030.77837	0.36168
2028.84980	0.35902
2026.92124	0.35630
2024.99268	0.35358
2023.06411	0.35094
2021.13555	0.34828
2019.20698	0.34562
2017.27842	0.34299
2015.34985	0.34028
2013.42129	0.33752
2011.49272	0.33481
2009.56416	0.33212
2007.63560	0.32939
2005.70703	0.32667
2003.77847	0.32404
2001.84990	0.32149
1999.92134	0.31889
1997.99277	0.31627
1996.06421	0.31371
1994.13564	0.31130
1992.20708	0.30903
1990.27852	0.30667
1988.34995	0.30421
1986.42139	0.30167
1984.49282	0.29914
1982.56426	0.29675
1980.63569	0.29446
1978.70713	0.29220
1976.77856	0.29001
1974.85000	0.28786
1972.92144	0.28566
1970.99287	0.28343
1969.06431	0.28135
1967.13574	0.27946
1965.20718	0.27748
1963.27861	0.27538
1961.35005	0.27336
1959.42148	0.27147
1957.49292	0.26966
1955.56436	0.26788
1953.63579	0.26608
1951.70723	0.26429
1949.77866	0.26258
1947.85010	0.26096
1945.92153	0.25946
1943.99297	0.25810
1942.06440	0.25670
1940.13584	0.25510
1938.20728	0.25357
1936.27871	0.25227
1934.35015	0.25102
1932.42158	0.24977
1930.49302	0.24854
1928.56445	0.24732
1926.63589	0.24615
1924.70732	0.24518
1922.77876	0.24442
1920.85020	0.24361
1918.92163	0.24264
1916.99307	0.24148
1915.06450	0.24022
1913.13594	0.23921
1911.20737	0.23865
1909.27881	0.23822
1907.35024	0.23757
1905.42168	0.23679
1903.49312	0.23616
1901.56455	0.23561
1899.63599	0.23503
1897.70742	0.23454
1895.77886	0.23415
1893.85029	0.23381
1891.92173	0.23341
1889.99316	0.23313
1888.06460	0.23286
1886.13604	0.23253
1884.20747	0.23219
1882.27891	0.23186
1880.35034	0.23168
1878.42178	0.23158
1876.49321	0.23149
1874.56465	0.23141
1872.63608	0.23161
1870.70752	0.23214
1868.77896	0.23289
1866.85039	0.23319
1864.92183	0.23293
1862.99326	0.23280
1861.06470	0.23292
1859.13613	0.23317
1857.20757	0.23342
1855.27900	0.23377
1853.35044	0.23417
1851.42187	0.23466
1849.49331	0.23528
1847.56475	0.23607
1845.63618	0.23703
1843.70762	0.23814
1841.77905	0.23893
1839.85049	0.23933
1837.92192	0.23993
1835.99336	0.24069
1834.06479	0.24153
1832.13623	0.24258
1830.20767	0.24415
1828.27910	0.24569
1826.35054	0.24662
1824.42197	0.24773
1822.49341	0.24894
1820.56484	0.25009
1818.63628	0.25142
1816.70771	0.25304
1814.77915	0.25466
1812.85059	0.25644
1810.92202	0.25850
1808.99346	0.26048
1807.06489	0.26227
1805.13633	0.26408
1803.20776	0.26629
1801.27920	0.26890
1799.35063	0.27170
1797.42207	0.27414
1795.49351	0.27647
1793.56494	0.27923
1791.63638	0.28281
1789.70781	0.28615
1787.77925	0.28864
1785.85068	0.29173
1783.92212	0.29551
1781.99355	0.29948
1780.06499	0.30355
1778.13643	0.30768
1776.20786	0.31160
1774.27930	0.31592
1772.35073	0.32180
1770.42217	0.32812
1768.49360	0.33332
1766.56504	0.33822
1764.63647	0.34328
1762.70791	0.34900
1760.77935	0.35643
1758.85078	0.36350
1756.92222	0.37055
1754.99365	0.37816
1753.06509	0.38506
1751.13652	0.39335
1749.20796	0.40388
1747.27939	0.41429
1745.35083	0.42341
1743.42227	0.43293
1741.49370	0.44325
1739.56514	0.45540
1737.63657	0.46766
1735.70801	0.47850
1733.77944	0.49486
1731.85088	0.51419
1729.92231	0.52933
1727.99375	0.54481
1726.06519	0.56148
1724.13662	0.57960
1722.20806	0.59921
1720.27949	0.61735
1718.35093	0.63870
1716.42236	0.67049
1714.49380	0.70086
1712.56523	0.72525
1710.63667	0.74885
1708.70811	0.77447
1706.77954	0.80367
1704.85098	0.83841
1702.92241	0.86955
1700.99385	0.90083
1699.06528	0.94791
1697.13672	0.99159
1695.20815	1.03618
1693.27959	1.07956
1691.35103	1.11498
1689.42246	1.15648
1687.49390	1.20058
1685.56533	1.24292
1683.63677	1.30836
1681.70820	1.37775
1679.77964	1.42271
1677.85107	1.46496
1675.92251	1.51350
1673.99395	1.57410
1672.06538	1.62834
1670.13682	1.68131
1668.20825	1.75091
1666.27969	1.80887
1664.35112	1.85847
1662.42256	1.92149
1660.49399	1.99454
1658.56543	2.05214
1656.63687	2.09699
1654.70830	2.13542
1652.77974	2.19410
1650.85117	2.25433
1648.92261	2.27791
1646.99404	2.30220
1645.06548	2.32553
1643.13691	2.34328
1641.20835	2.35490
1639.27979	2.36359
1637.35122	2.36583
1635.42266	2.36219
1633.49409	2.35516
1631.56553	2.34122
1629.63696	2.32173
1627.70840	2.29070
1625.77983	2.25620
1623.85127	2.21211
1621.92271	2.15586
1619.99414	2.10569
1618.06558	2.05862
1616.13701	1.99292
1614.20845	1.92505
1612.27988	1.87274
1610.35132	1.81924
1608.42275	1.76174
1606.49419	1.70437
1604.56562	1.65140
1602.63706	1.60105
1600.70850	1.55244
1598.77993	1.50732
1596.85137	1.46446
1594.92280	1.42328
1592.99424	1.38428
1591.06567	1.34854
1589.13711	1.31492
1587.20854	1.28414
1585.27998	1.25631
1583.35142	1.23051
1581.42285	1.20714
1579.49429	1.18760
1577.56572	1.17079
1575.63716	1.15126
1573.70859	1.13432
1571.78003	1.12370
1569.85146	1.11388
1567.92290	1.10350
1565.99434	1.09598
1564.06577	1.09139
1562.13721	1.08875
1560.20864	1.08868
1558.28008	1.09411
1556.35151	1.09987
1554.42295	1.10254
1552.49438	1.10519
1550.56582	1.10609
1548.63726	1.10426
1546.70869	1.09980
1544.78013	1.09190
1542.85156	1.08023
1540.92300	1.06251
1538.99443	1.03386
1537.06587	1.01142
1535.13730	0.99543
1533.20874	0.97449
1531.28018	0.95212
1529.35161	0.93552
1527.42305	0.92007
1525.49448	0.90453
1523.56592	0.89154
1521.63735	0.87936
1519.70879	0.86700
1517.78022	0.85627
1515.85166	0.84389
1513.92310	0.83081
1511.99453	0.81920
1510.06597	0.80867
1508.13740	0.79833
1506.20884	0.78231
1504.28027	0.76848
1502.35171	0.76077
1500.42314	0.75410
1498.49458	0.74715
1496.56602	0.73901
1494.63745	0.73060
1492.70889	0.72399
1490.78032	0.71838
1488.85176	0.71210
1486.92319	0.70614
1484.99463	0.70148
1483.06606	0.69787
1481.13750	0.69488
1479.20894	0.69267
1477.28037	0.69166
1475.35181	0.69162
1473.42324	0.69201
1471.49468	0.69159
1469.56611	0.68983
1467.63755	0.68755
1465.70898	0.68549
1463.78042	0.68399
1461.85186	0.68312
1459.92329	0.68304
1457.99473	0.68387
1456.06616	0.68377
1454.13760	0.68142
1452.20903	0.67894
1450.28047	0.67647
1448.35190	0.67380
1446.42334	0.67104
1444.49478	0.66854
1442.56621	0.66615
1440.63765	0.66348
1438.70908	0.66059
1436.78052	0.65706
1434.85195	0.65302
1432.92339	0.64981
1430.99482	0.64771
1429.06626	0.64653
1427.13770	0.64609
1425.20913	0.64634
1423.28057	0.64709
1421.35200	0.64779
1419.42344	0.64850
1417.49487	0.64875
1415.56631	0.64773
1413.63774	0.64675
1411.70918	0.64680
1409.78062	0.64803
1407.85205	0.65006
1405.92349	0.65249
1403.99492	0.65444
1402.06636	0.65501
1400.13779	0.65465
1398.20923	0.65355
1396.28066	0.65128
1394.35210	0.64755
1392.42354	0.64292
1390.49497	0.63855
1388.56641	0.63421
1386.63784	0.62897
1384.70928	0.62325
1382.78071	0.61790
1380.85215	0.61295
1378.92358	0.60876
1376.99502	0.60568
1375.06646	0.60350
1373.13789	0.60175
1371.20933	0.60044
1369.28076	0.59950
1367.35220	0.59835
1365.42363	0.59693
1363.49507	0.59558
1361.56650	0.59412
1359.63794	0.59236
1357.70937	0.59079
1355.78081	0.58952
1353.85225	0.58846
1351.92368	0.58767
1349.99512	0.58703
1348.06655	0.58639
1346.13799	0.58576
1344.20942	0.58522
1342.28086	0.58486
1340.35229	0.58470
1338.42373	0.58431
1336.49517	0.58346
1334.56660	0.58274
1332.63804	0.58265
1330.70947	0.58308
1328.78091	0.58367
1326.85234	0.58433
1324.92378	0.58514
1322.99521	0.58606
1321.06665	0.58692
1319.13809	0.58764
1317.20952	0.58810
1315.28096	0.58820
1313.35239	0.58796
1311.42383	0.58751
1309.49526	0.58709
1307.56670	0.58677
1305.63813	0.58650
1303.70957	0.58619
1301.78101	0.58577
1299.85244	0.58512
1297.92388	0.58419
1295.99531	0.58297
1294.06675	0.58170
1292.13818	0.58056
1290.20962	0.57940
1288.28105	0.57814
1286.35249	0.57686
1284.42393	0.57557
1282.49536	0.57423
1280.56680	0.57292
1278.63823	0.57159
1276.70967	0.57025
1274.78110	0.56911
1272.85254	0.56821
1270.92397	0.56735
1268.99541	0.56657
1267.06685	0.56605
1265.13828	0.56556
1263.20972	0.56477
1261.28115	0.56380
1259.35259	0.56292
1257.42402	0.56221
1255.49546	0.56169
1253.56689	0.56148
1251.63833	0.56159
1249.70977	0.56182
1247.78120	0.56202
1245.85264	0.56195
1243.92407	0.56147
1241.99551	0.56069
1240.06694	0.55949
1238.13838	0.55767
1236.20981	0.55544
1234.28125	0.55316
1232.35269	0.55089
1230.42412	0.54860
1228.49556	0.54635
1226.56699	0.54423
1224.63843	0.54231
1222.70986	0.54057
1220.78130	0.53898
1218.85273	0.53759
1216.92417	0.53641
1214.99561	0.53531
1213.06704	0.53425
1211.13848	0.53347
1209.20991	0.53299
1207.28135	0.53250
1205.35278	0.53168
1203.42422	0.53063
1201.49565	0.52959
1199.56709	0.52864
1197.63853	0.52785
1195.70996	0.52735
1193.78140	0.52706
1191.85283	0.52673
1189.92427	0.52638
1187.99570	0.52611
1186.06714	0.52586
1184.13857	0.52576
1182.21001	0.52615
1180.28145	0.52706
1178.35288	0.52832
1176.42432	0.52978
1174.49575	0.53114
1172.56719	0.53194
1170.63862	0.53193
1168.71006	0.53140
1166.78149	0.53080
1164.85293	0.53020
1162.92437	0.52951
1160.99580	0.52888
1159.06724	0.52825
1157.13867	0.52736
1155.21011	0.52627
1153.28154	0.52495
1151.35298	0.52321
1149.42441	0.52112
1147.49585	0.51881
1145.56729	0.51629
1143.63872	0.51378
1141.71016	0.51154
1139.78159	0.50974
1137.85303	0.50826
1135.92446	0.50677
1133.99590	0.50552
1132.06733	0.50482
1130.13877	0.50430
1128.21021	0.50356
1126.28164	0.50263
1124.35308	0.50169
1122.42451	0.50085
1120.49595	0.50024
1118.56738	0.49980
1116.63882	0.49949
1114.71025	0.49956
1112.78169	0.49991
1110.85312	0.50043
1108.92456	0.50121
1106.99600	0.50212
1105.06743	0.50305
1103.13887	0.50435
1101.21030	0.50604
1099.28174	0.50791
1097.35317	0.51004
1095.42461	0.51268
1093.49604	0.51604
1091.56748	0.52013
1089.63892	0.52476
1087.71035	0.53001
1085.78179	0.53594
1083.85322	0.54227
1081.92466	0.54851
1079.99609	0.55372
1078.06753	0.55682
1076.13896	0.55737
1074.21040	0.55523
1072.28184	0.55041
1070.35327	0.54391
1068.42471	0.53718
1066.49614	0.53078
1064.56758	0.52470
1062.63901	0.51902
1060.71045	0.51390
1058.78188	0.50939
1056.85332	0.50535
1054.92476	0.50175
1052.99619	0.49882
1051.06763	0.49639
1049.13906	0.49410
1047.21050	0.49181
1045.28193	0.48976
1043.35337	0.48828
1041.42480	0.48717
1039.49624	0.48616
1037.56768	0.48541
1035.63911	0.48500
1033.71055	0.48464
1031.78198	0.48421
1029.85342	0.48383
1027.92485	0.48354
1025.99629	0.48328
1024.06772	0.48314
1022.13916	0.48332
1020.21060	0.48382
1018.28203	0.48452
1016.35347	0.48541
1014.42490	0.48640
1012.49634	0.48730
1010.56777	0.48826
1008.63921	0.48947
1006.71064	0.49084
1004.78208	0.49242
1002.85352	0.49445
1000.92495	0.49708
998.99639	0.50037
997.06782	0.50426
995.13926	0.50848
993.21069	0.51265
991.28213	0.51625
989.35356	0.51884
987.42500	0.52053
985.49644	0.52172
983.56787	0.52253
981.63931	0.52323
979.71074	0.52438
977.78218	0.52602
975.85361	0.52796
973.92505	0.53030
971.99648	0.53312
970.06792	0.53635
968.13936	0.53988
966.21079	0.54369
964.28223	0.54794
962.35366	0.55289
960.42510	0.55824
958.49653	0.56354
956.56797	0.56896
954.63940	0.57483
952.71084	0.58096
950.78228	0.58712
948.85371	0.59344
946.92515	0.59981
944.99658	0.60600
943.06802	0.61227
941.13945	0.61851
939.21089	0.62401
937.28232	0.62896
935.35376	0.63435
933.42520	0.64018
931.49663	0.64578
929.56807	0.65130
927.63950	0.65705
925.71094	0.66293
923.78237	0.66889
921.85381	0.67488
919.92524	0.68117
917.99668	0.68814
916.06812	0.69533
914.13955	0.70213
912.21099	0.70914
910.28242	0.71706
908.35386	0.72513
906.42529	0.73301
904.49673	0.74158
902.56816	0.75088
900.63960	0.76008
898.71104	0.76919
896.78247	0.77893
894.85391	0.78919
892.92534	0.79957
890.99678	0.80983
889.06821	0.81995
887.13965	0.83040
885.21108	0.84128
883.28252	0.85223
881.35396	0.86345
879.42539	0.87570
877.49683	0.88844
875.56826	0.89973
873.63970	0.90946
871.71113	0.91989
869.78257	0.93137
867.85400	0.94238
865.92544	0.95345
863.99687	0.96546
862.06831	0.97778
860.13975	0.98979
858.21118	1.00095
856.28262	1.01082
854.35405	1.02056
852.42549	1.03071
850.49692	1.04108
848.56836	1.05301
846.63979	1.06593
844.71123	1.07754
842.78267	1.08723
840.85410	1.09597
838.92554	1.10573
836.99697	1.11806
835.06841	1.13143
833.13984	1.14336
831.21128	1.15440
829.28271	1.16620
827.35415	1.17996
825.42559	1.19554
823.49702	1.20907
821.56846	1.21553
819.63989	1.21675
817.71133	1.21638
815.78276	1.21676
813.85420	1.22622
811.92563	1.24902
809.99707	1.27616
808.06851	1.29990
806.13994	1.31544
804.21138	1.31370
802.28281	1.30800
800.35425	1.32186
798.42568	1.34711
796.49712	1.34291
794.56855	1.30530
792.63999	1.27459
790.71143	1.27386
788.78286	1.31976
786.85430	1.41155
784.92573	1.50937
782.99717	1.53899
781.06860	1.51847
779.14004	1.49591
777.21147	1.43383
775.28291	1.40349
773.35435	1.48591
771.42578	1.57993
769.49722	1.51548
767.56865	1.46900
765.64009	1.45524
763.71152	1.35781
761.78296	1.26044
759.85439	1.24321
757.92583	1.31937
755.99727	1.42295
754.06870	1.41177
752.14014	1.27322
750.21157	1.15581
748.28301	1.08389
746.35444	1.03327
744.42588	1.07189
742.49731	1.27264
740.56875	1.53409
738.64019	1.31127
736.71162	1.04045
734.78306	0.90913
732.85449	0.84345
730.92593	0.73876
728.99736	0.61335
727.06880	0.52690
725.14023	0.44503
723.21167	0.34840
721.28311	0.28013
719.35454	0.30873
717.42598	0.26570
715.49741	0.06956
713.56885	-0.04899
711.64028	-0.07508
709.71172	-0.07554
707.78315	0.04204
705.85459	0.15906
703.92603	0.14106
701.99746	0.14364
700.06890	0.24706
698.14033	0.36702
696.21177	0.36531
694.28320	0.36970
692.35464	0.40918
690.42607	0.34155
688.49751	0.26204
686.56895	0.26857
684.64038	0.28762
682.71182	0.20303
680.78325	0.08135
678.85469	0.09442
676.92612	0.28023
674.99756	0.45716
673.06899	0.44570
671.14043	0.42039
669.21187	0.48180
667.28330	0.66560
665.35474	1.06353
663.42617	3.98056
661.49761	0.81475
659.56904	0.44598
657.64048	0.35875
655.71191	0.42006
653.78335	0.58689
651.85479	0.61423
649.92622	0.38032
647.99766	0.24682
646.06909	0.21793
644.14053	0.28847
642.21196	0.45360
640.28340	0.57145
638.35483	0.51151
636.42627	0.45756
634.49771	0.48692
632.56914	0.44101
630.64058	0.30139
628.71201	0.27072
626.78345	0.50899
624.85488	0.88268
622.92632	0.44783
620.99775	0.26797
619.06919	0.24221
617.14062	0.26346
615.21206	0.19099
613.28350	0.13605
611.35493	0.16536
609.42637	0.20762
607.49780	0.23261
605.56924	0.26516
603.64067	0.30996
601.71211	0.36358
599.78354	0.37835
597.85498	0.33017
595.92642	0.22048
593.99785	0.18571
592.06929	0.26268
590.14072	0.32137
588.21216	0.36557
586.28359	0.42048
584.35503	0.42272
582.42646	0.41360
580.49790	0.40018
578.56934	0.33667
576.64077	0.26895
574.71221	0.25171
572.78364	0.29849
570.85508	0.28869
568.92651	0.20108
566.99795	0.20218
565.06938	0.32477
563.14082	0.29011
561.21226	0.20198
559.28369	0.23048
557.35513	0.30600
555.42656	0.28678
553.49800	0.17582
551.56943	0.11023
549.64087	0.10948
547.71230	0.16869
545.78374	0.23506
543.85518	0.29568
541.92661	0.34787
539.99805	0.33079
538.06948	0.27485
536.14092	0.27320
534.21235	0.30024
532.28379	0.30904
530.35522	0.28567
528.42666	0.25096
526.49810	0.22876
524.56953	0.20213
522.64097	0.20339
520.71240	0.25999
518.78384	0.31427
516.85527	0.28655
514.92671	0.23087
512.99814	0.23344
511.06958	0.25680
509.14102	0.27512
507.21245	0.34101
505.28389	0.47534
503.35532	0.55391
501.42676	0.46716
499.49819	0.41159
