3997.91411	0.06930
3995.98555	0.06984
3994.05698	0.07013
3992.12842	0.07043
3990.19985	0.07085
3988.27129	0.07123
3986.34272	0.07143
3984.41416	0.07152
3982.48560	0.07188
3980.55703	0.07259
3978.62847	0.07285
3976.69990	0.07253
3974.77134	0.07260
3972.84277	0.07330
3970.91421	0.07375
3968.98564	0.07351
3967.05708	0.07313
3965.12852	0.07313
3963.19995	0.07344
3961.27139	0.07376
3959.34282	0.07404
3957.41426	0.07435
3955.48569	0.07465
3953.55713	0.07475
3951.62856	0.07483
3949.70000	0.07520
3947.77144	0.07556
3945.84287	0.07563
3943.91431	0.07567
3941.98574	0.07564
3940.05718	0.07530
3938.12861	0.07470
3936.20005	0.07403
3934.27148	0.07399
3932.34292	0.07481
3930.41436	0.07557
3928.48579	0.07569
3926.55723	0.07553
3924.62866	0.07573
3922.70010	0.07607
3920.77153	0.07594
3918.84297	0.07552
3916.91440	0.07510
3914.98584	0.07455
3913.05728	0.07388
3911.12871	0.07353
3909.20015	0.07355
3907.27158	0.07373
3905.34302	0.07438
3903.41445	0.07566
3901.48589	0.07664
3899.55732	0.07684
3897.62876	0.07614
3895.70020	0.07497
3893.77163	0.07436
3891.84307	0.07459
3889.91450	0.07502
3887.98594	0.07501
3886.05737	0.07563
3884.12881	0.07712
3882.20024	0.07780
3880.27168	0.07780
3878.34312	0.07724
3876.41455	0.07603
3874.48599	0.07577
3872.55742	0.07693
3870.62886	0.07815
3868.70029	0.07879
3866.77173	0.07887
3864.84316	0.07885
3862.91460	0.07879
3860.98604	0.07824
3859.05747	0.07809
3857.12891	0.07892
3855.20034	0.08063
3853.27178	0.08307
3851.34321	0.08394
3849.41465	0.08235
3847.48608	0.08104
3845.55752	0.08079
3843.62896	0.08159
3841.70039	0.08329
3839.77183	0.08544
3837.84326	0.08735
3835.91470	0.08787
3833.98613	0.08740
3832.05757	0.08716
3830.12900	0.08719
3828.20044	0.08748
3826.27187	0.08830
3824.34331	0.08938
3822.41475	0.09063
3820.48618	0.09251
3818.55762	0.09359
3816.62905	0.09368
3814.70049	0.09403
3812.77192	0.09414
3810.84336	0.09423
3808.91479	0.09519
3806.98623	0.09715
3805.05767	0.09875
3803.12910	0.09967
3801.20054	0.10157
3799.27197	0.10326
3797.34341	0.10335
3795.41484	0.10378
3793.48628	0.10451
3791.55771	0.10500
3789.62915	0.10600
3787.70059	0.10764
3785.77202	0.10945
3783.84346	0.11106
3781.91489	0.11224
3779.98633	0.11368
3778.05776	0.11573
3776.12920	0.11730
3774.20063	0.11860
3772.27207	0.12045
3770.34351	0.12270
3768.41494	0.12477
3766.48638	0.12630
3764.55781	0.12787
3762.62925	0.12971
3760.70068	0.13202
3758.77212	0.13552
3756.84355	0.13905
3754.91499	0.14108
3752.98643	0.14305
3751.05786	0.14686
3749.12930	0.15172
3747.20073	0.15464
3745.27217	0.15702
3743.34360	0.16045
3741.41504	0.16289
3739.48647	0.16446
3737.55791	0.16719
3735.62935	0.17190
3733.70078	0.17761
3731.77222	0.18143
3729.84365	0.18370
3727.91509	0.18671
3725.98652	0.19218
3724.05796	0.19985
3722.12939	0.20772
3720.20083	0.21508
3718.27227	0.22232
3716.34370	0.23022
3714.41514	0.23881
3712.48657	0.24893
3710.55801	0.26246
3708.62944	0.27596
3706.70088	0.28641
3704.77231	0.29708
3702.84375	0.31035
3700.91519	0.32767
3698.98662	0.34665
3697.05806	0.36463
3695.12949	0.38364
3693.20093	0.40397
3691.27236	0.42625
3689.34380	0.45517
3687.41523	0.49054
3685.48667	0.52126
3683.55811	0.54747
3681.62954	0.57572
3679.70098	0.60810
3677.77241	0.64260
3675.84385	0.68337
3673.91528	0.73776
3671.98672	0.78164
3670.05815	0.82019
3668.12959	0.87361
3666.20103	0.92290
3664.27246	0.96407
3662.34390	1.00798
3660.41533	1.05569
3658.48677	1.10293
3656.55820	1.15280
3654.62964	1.20846
3652.70107	1.25561
3650.77251	1.29665
3648.84395	1.35308
3646.91538	1.42259
3644.98682	1.47400
3643.05825	1.51379
3641.12969	1.55417
3639.20112	1.59809
3637.27256	1.64229
3635.34399	1.68568
3633.41543	1.72910
3631.48687	1.76996
3629.55830	1.81215
3627.62974	1.86721
3625.70117	1.91786
3623.77261	1.95236
3621.84404	1.98597
3619.91548	2.02443
3617.98691	2.07075
3616.05835	2.11510
3614.12979	2.15222
3612.20122	2.19196
3610.27266	2.23179
3608.34409	2.27173
3606.41553	2.31502
3604.48696	2.35434
3602.55840	2.38823
3600.62983	2.42597
3598.70127	2.46825
3596.77271	2.50899
3594.84414	2.54947
3592.91558	2.59110
3590.98701	2.62954
3589.05845	2.66442
3587.12988	2.70833
3585.20132	2.76014
3583.27275	2.80353
3581.34419	2.84130
3579.41562	2.88105
3577.48706	2.92421
3575.55850	2.96765
3573.62993	3.00975
3571.70137	3.04975
3569.77280	3.08949
3567.84424	3.13432
3565.91567	3.18908
3563.98711	3.23838
3562.05854	3.27704
3560.12998	3.31893
3558.20142	3.36658
3556.27285	3.41409
3554.34429	3.45682
3552.41572	3.49971
3550.48716	3.54601
3548.55859	3.59233
3546.63003	3.63923
3544.70146	3.68901
3542.77290	3.73723
3540.84434	3.78243
3538.91577	3.82849
3536.98721	3.87599
3535.05864	3.92568
3533.13008	3.97442
3531.20151	4.02052
3529.27295	4.06632
3527.34438	4.11362
3525.41582	4.16142
3523.48726	4.20825
3521.55869	4.25466
3519.63013	4.30075
3517.70156	4.35009
3515.77300	4.40205
3513.84443	4.45071
3511.91587	4.49645
3509.98730	4.54474
3508.05874	4.59375
3506.13018	4.63678
3504.20161	4.67654
3502.27305	4.72203
3500.34448	4.77318
3498.41592	4.82523
3496.48735	4.88017
3494.55879	4.93358
3492.63022	4.97585
3490.70166	5.01046
3488.77310	5.05140
3486.84453	5.10425
3484.91597	5.16285
3482.98740	5.21978
3481.05884	5.27307
3479.13027	5.32500
3477.20171	5.37641
3475.27314	5.42421
3473.34458	5.46558
3471.41602	5.50221
3469.48745	5.54250
3467.55889	5.59703
3465.63032	5.66300
3463.70176	5.72236
3461.77319	5.76497
3459.84463	5.80675
3457.91606	5.85594
3455.98750	5.89908
3454.05894	5.93664
3452.13037	5.99078
3450.20181	6.06366
3448.27324	6.12240
3446.34468	6.15349
3444.41611	6.18319
3442.48755	6.24601
3440.55898	6.33620
3438.63042	6.40881
3436.70186	6.44138
3434.77329	6.46315
3432.84473	6.49760
3430.91616	6.54036
3428.98760	6.59586
3427.05903	6.65587
3425.13047	6.70463
3423.20190	6.73303
3421.27334	6.76249
3419.34478	6.81655
3417.41621	6.88307
3415.48765	6.93669
3413.55908	6.96615
3411.63052	6.99125
3409.70195	7.00953
3407.77339	7.04662
3405.84482	7.13032
3403.91626	7.20364
3401.98770	7.22277
3400.05913	7.24556
3398.13057	7.29481
3396.20200	7.33171
3394.27344	7.37585
3392.34487	7.45015
3390.41631	7.54483
3388.48774	7.60390
3386.55918	7.60738
3384.63062	7.58738
3382.70205	7.57209
3380.77349	7.59473
3378.84492	7.65294
3376.91636	7.71059
3374.98779	7.71865
3373.05923	7.72951
3371.13066	7.78843
3369.20210	7.81536
3367.27354	7.78885
3365.34497	7.79472
3363.41641	7.82655
3361.48784	7.84855
3359.55928	7.89710
3357.63071	7.94984
3355.70215	7.95366
3353.77358	7.91859
3351.84502	7.92006
3349.91646	7.95181
3347.98789	7.98885
3346.05933	8.03093
3344.13076	8.01732
3342.20220	7.93793
3340.27363	7.86075
3338.34507	7.90487
3336.41650	8.08053
3334.48794	8.23205
3332.55937	8.27383
3330.63081	8.27466
3328.70225	8.23617
3326.77368	8.14467
3324.84512	8.05565
3322.91655	8.01871
3320.98799	8.01786
3319.05942	7.99466
3317.13086	8.00357
3315.20229	8.07946
3313.27373	8.16097
3311.34517	8.16820
3309.41660	8.13942
3307.48804	8.19427
3305.55947	8.23405
3303.63091	8.15373
3301.70234	8.09884
3299.77378	8.12160
3297.84521	8.12971
3295.91665	8.17842
3293.98809	8.27755
3292.05952	8.23581
3290.13096	8.08492
3288.20239	8.06283
3286.27383	8.13543
3284.34526	8.10502
3282.41670	8.06965
3280.48813	8.14077
3278.55957	8.21678
3276.63101	8.19496
3274.70244	8.15349
3272.77388	8.16545
3270.84531	8.14970
3268.91675	8.07422
3266.98818	8.01716
3265.05962	8.05896
3263.13105	8.15421
3261.20249	8.18574
3259.27393	8.13913
3257.34536	8.11558
3255.41680	8.19640
3253.48823	8.31043
3251.55967	8.27548
3249.63110	8.12338
3247.70254	8.06496
3245.77397	8.08471
3243.84541	8.08121
3241.91685	8.11437
3239.98828	8.18423
3238.05972	8.21063
3236.13115	8.21818
3234.20259	8.19627
3232.27402	8.10867
3230.34546	8.01021
3228.41689	7.93749
3226.48833	7.90543
3224.55977	7.93132
3222.63120	8.00167
3220.70264	8.02742
3218.77407	7.96548
3216.84551	7.89751
3214.91694	7.85583
3212.98838	7.82648
3211.05981	7.81937
3209.13125	7.84682
3207.20269	7.86983
3205.27412	7.81905
3203.34556	7.73945
3201.41699	7.70420
3199.48843	7.69913
3197.55986	7.68497
3195.63130	7.62679
3193.70273	7.55729
3191.77417	7.51937
3189.84561	7.46183
3187.91704	7.35741
3185.98848	7.25724
3184.05991	7.20505
3182.13135	7.20433
3180.20278	7.21905
3178.27422	7.21744
3176.34565	7.18686
3174.41709	7.10386
3172.48853	6.99878
3170.55996	6.92944
3168.63140	6.88012
3166.70283	6.80834
3164.77427	6.72836
3162.84570	6.67302
3160.91714	6.63316
3158.98857	6.57849
3157.06001	6.50729
3155.13145	6.43232
3153.20288	6.35146
3151.27432	6.28380
3149.34575	6.24344
3147.41719	6.19762
3145.48862	6.11940
3143.56006	6.02385
3141.63149	5.94115
3139.70293	5.87308
3137.77437	5.80049
3135.84580	5.72690
3133.91724	5.66629
3131.98867	5.60674
3130.06011	5.53100
3128.13154	5.44757
3126.20298	5.37259
3124.27441	5.30401
3122.34585	5.23110
3120.41729	5.15589
3118.48872	5.08652
3116.56016	5.02614
3114.63159	4.96544
3112.70303	4.89886
3110.77446	4.83510
3108.84590	4.77381
3106.91733	4.71038
3104.98877	4.64645
3103.06021	4.57965
3101.13164	4.50718
3099.20308	4.43443
3097.27451	4.36512
3095.34595	4.29878
3093.41738	4.23513
3091.48882	4.17337
3089.56025	4.11475
3087.63169	4.05685
3085.70312	3.99538
3083.77456	3.93351
3081.84600	3.87499
3079.91743	3.81613
3077.98887	3.75563
3076.06030	3.69775
3074.13174	3.64282
3072.20317	3.58831
3070.27461	3.53302
3068.34604	3.47759
3066.41748	3.42221
3064.48892	3.36604
3062.56035	3.31111
3060.63179	3.25878
3058.70322	3.20659
3056.77466	3.15407
3054.84609	3.10298
3052.91753	3.05283
3050.98896	3.00249
3049.06040	2.95272
3047.13184	2.90449
3045.20327	2.85692
3043.27471	2.80965
3041.34614	2.76367
3039.41758	2.71850
3037.48901	2.67286
3035.56045	2.62674
3033.63188	2.58155
3031.70332	2.53773
3029.77476	2.49428
3027.84619	2.45138
3025.91763	2.40979
3023.98906	2.36876
3022.06050	2.32701
3020.13193	2.28512
3018.20337	2.24482
3016.27480	2.20644
3014.34624	2.16927
3012.41768	2.13211
3010.48911	2.09427
3008.56055	2.05690
3006.63198	2.02120
3004.70342	1.98688
3002.77485	1.95256
3000.84629	1.91818
2998.91772	1.88520
2996.98916	1.85404
2995.06060	1.82369
2993.13203	1.79338
2991.20347	1.76310
2989.27490	1.73330
2987.34634	1.70424
2985.41777	1.67586
2983.48921	1.64829
2981.56064	1.62177
2979.63208	1.59597
2977.70352	1.57036
2975.77495	1.54483
2973.84639	1.51973
2971.91782	1.49531
2969.98926	1.47125
2968.06069	1.44701
2966.13213	1.42278
2964.20356	1.39914
2962.27500	1.37581
2960.34644	1.35221
2958.41787	1.32860
2956.48931	1.30527
2954.56074	1.28219
2952.63218	1.25924
2950.70361	1.23642
2948.77505	1.21419
2946.84648	1.19246
2944.91792	1.17072
2942.98936	1.14946
2941.06079	1.12914
2939.13223	1.10897
2937.20366	1.08846
2935.27510	1.06800
2933.34653	1.04785
2931.41797	1.02809
2929.48940	1.00875
2927.56084	0.98985
2925.63228	0.97146
2923.70371	0.95363
2921.77515	0.93630
2919.84658	0.91937
2917.91802	0.90300
2915.98945	0.88743
2914.06089	0.87239
2912.13232	0.85750
2910.20376	0.84255
2908.27520	0.82752
2906.34663	0.81290
2904.41807	0.79890
2902.48950	0.78526
2900.56094	0.77213
2898.63237	0.75956
2896.70381	0.74718
2894.77524	0.73468
2892.84668	0.72227
2890.91812	0.71050
2888.98955	0.69947
2887.06099	0.68897
2885.13242	0.67885
2883.20386	0.66895
2881.27529	0.65930
2879.34673	0.64990
2877.41816	0.64040
2875.48960	0.63070
2873.56104	0.62085
2871.63247	0.61059
2869.70391	0.59962
2867.77534	0.58808
2865.84678	0.57636
2863.91821	0.56473
2861.98965	0.55335
2860.06108	0.54246
2858.13252	0.53190
2856.20396	0.52148
2854.27539	0.51166
2852.34683	0.50286
2850.41826	0.49511
2848.48970	0.48789
2846.56113	0.48072
2844.63257	0.47384
2842.70400	0.46746
2840.77544	0.46143
2838.84687	0.45568
2836.91831	0.45014
2834.98975	0.44453
2833.06118	0.43867
2831.13262	0.43281
2829.20405	0.42717
2827.27549	0.42154
2825.34692	0.41567
2823.41836	0.40978
2821.48979	0.40418
2819.56123	0.39871
2817.63267	0.39308
2815.70410	0.38736
2813.77554	0.38184
2811.84697	0.37652
2809.91841	0.37118
2807.98984	0.36578
2806.06128	0.36054
2804.13271	0.35555
2802.20415	0.35065
2800.27559	0.34566
2798.34702	0.34064
2796.41846	0.33577
2794.48989	0.33115
2792.56133	0.32675
2790.63276	0.32239
2788.70420	0.31801
2786.77563	0.31371
2784.84707	0.30955
2782.91851	0.30553
2780.98994	0.30155
2779.06138	0.29745
2777.13281	0.29333
2775.20425	0.28935
2773.27568	0.28559
2771.34712	0.28201
2769.41855	0.27849
2767.48999	0.27497
2765.56143	0.27140
2763.63286	0.26779
2761.70430	0.26433
2759.77573	0.26120
2757.84717	0.25817
2755.91860	0.25493
2753.99004	0.25171
2752.06147	0.24877
2750.13291	0.24603
2748.20435	0.24333
2746.27578	0.24058
2744.34722	0.23775
2742.41865	0.23497
2740.49009	0.23223
2738.56152	0.22948
2736.63296	0.22694
2734.70439	0.22461
2732.77583	0.22222
2730.84727	0.21985
2728.91870	0.21755
2726.99014	0.21521
2725.06157	0.21294
2723.13301	0.21090
2721.20444	0.20895
2719.27588	0.20689
2717.34731	0.20470
2715.41875	0.20265
2713.49019	0.20082
2711.56162	0.19909
2709.63306	0.19742
2707.70449	0.19573
2705.77593	0.19403
2703.84736	0.19240
2701.91880	0.19085
2699.99023	0.18943
2698.06167	0.18802
2696.13311	0.18649
2694.20454	0.18499
2692.27598	0.18363
2690.34741	0.18231
2688.41885	0.18104
2686.49028	0.17991
2684.56172	0.17882
2682.63315	0.17765
2680.70459	0.17637
2678.77603	0.17505
2676.84746	0.17385
2674.91890	0.17281
2672.99033	0.17187
2671.06177	0.17107
2669.13320	0.17019
2667.20464	0.16903
2665.27607	0.16787
2663.34751	0.16689
2661.41895	0.16597
2659.49038	0.16508
2657.56182	0.16421
2655.63325	0.16340
2653.70469	0.16274
2651.77612	0.16203
2649.84756	0.16120
2647.91899	0.16052
2645.99043	0.15998
2644.06187	0.15946
2642.13330	0.15909
2640.20474	0.15884
2638.27617	0.15850
2636.34761	0.15792
2634.41904	0.15716
2632.49048	0.15651
2630.56191	0.15616
2628.63335	0.15588
2626.70479	0.15547
2624.77622	0.15505
2622.84766	0.15467
2620.91909	0.15437
2618.99053	0.15416
2617.06196	0.15388
2615.13340	0.15348
2613.20483	0.15319
2611.27627	0.15306
2609.34771	0.15304
2607.41914	0.15297
2605.49058	0.15272
2603.56201	0.15245
2601.63345	0.15224
2599.70488	0.15211
2597.77632	0.15228
2595.84775	0.15262
2593.91919	0.15276
2591.99062	0.15273
2590.06206	0.15275
2588.13350	0.15289
2586.20493	0.15303
2584.27637	0.15316
2582.34780	0.15325
2580.41924	0.15333
2578.49067	0.15350
2576.56211	0.15379
2574.63354	0.15408
2572.70498	0.15431
2570.77642	0.15452
2568.84785	0.15481
2566.91929	0.15524
2564.99072	0.15569
2563.06216	0.15601
2561.13359	0.15625
2559.20503	0.15654
2557.27646	0.15694
2555.34790	0.15738
2553.41934	0.15788
2551.49077	0.15840
2549.56221	0.15880
2547.63364	0.15915
2545.70508	0.15956
2543.77651	0.16007
2541.84795	0.16072
2539.91938	0.16143
2537.99082	0.16219
2536.06226	0.16298
2534.13369	0.16370
2532.20513	0.16432
2530.27656	0.16495
2528.34800	0.16572
2526.41943	0.16642
2524.49087	0.16683
2522.56230	0.16721
2520.63374	0.16788
2518.70518	0.16864
2516.77661	0.16930
2514.84805	0.16998
2512.91948	0.17069
2510.99092	0.17130
2509.06235	0.17194
2507.13379	0.17275
2505.20522	0.17372
2503.27666	0.17462
2501.34810	0.17535
2499.41953	0.17608
2497.49097	0.17685
2495.56240	0.17762
2493.63384	0.17841
2491.70527	0.17921
2489.77671	0.18004
2487.84814	0.18088
2485.91958	0.18167
2483.99102	0.18252
2482.06245	0.18343
2480.13389	0.18424
2478.20532	0.18491
2476.27676	0.18558
2474.34819	0.18641
2472.41963	0.18741
2470.49106	0.18840
2468.56250	0.18918
2466.63394	0.18992
2464.70537	0.19084
2462.77681	0.19192
2460.84824	0.19294
2458.91968	0.19376
2456.99111	0.19448
2455.06255	0.19533
2453.13398	0.19630
2451.20542	0.19726
2449.27686	0.19817
2447.34829	0.19908
2445.41973	0.20002
2443.49116	0.20097
2441.56260	0.20192
2439.63403	0.20297
2437.70547	0.20404
2435.77690	0.20501
2433.84834	0.20597
2431.91978	0.20708
2429.99121	0.20821
2428.06265	0.20920
2426.13408	0.21015
2424.20552	0.21116
2422.27695	0.21224
2420.34839	0.21332
2418.41982	0.21441
2416.49126	0.21557
2414.56270	0.21679
2412.63413	0.21794
2410.70557	0.21893
2408.77700	0.21989
2406.84844	0.22091
2404.91987	0.22205
2402.99131	0.22330
2401.06274	0.22455
2399.13418	0.22570
2397.20562	0.22682
2395.27705	0.22798
2393.34849	0.22910
2391.41992	0.23016
2389.49136	0.23129
2387.56279	0.23234
2385.63423	0.23290
2383.70566	0.23270
2381.77710	0.23182
2379.84854	0.23049
2377.91997	0.22886
2375.99141	0.22682
2374.06284	0.22426
2372.13428	0.22075
2370.20571	0.21615
2368.27715	0.21170
2366.34858	0.20833
2364.42002	0.20544
2362.49146	0.20342
2360.56289	0.20297
2358.63433	0.20408
2356.70576	0.20842
2354.77720	0.21620
2352.84863	0.22497
2350.92007	0.23259
2348.99150	0.23702
2347.06294	0.23753
2345.13437	0.23500
2343.20581	0.23222
2341.27725	0.23190
2339.34868	0.23338
2337.42012	0.23553
2335.49155	0.23825
2333.56299	0.24113
2331.63442	0.24393
2329.70586	0.24701
2327.77729	0.25019
2325.84873	0.25301
2323.92017	0.25596
2321.99160	0.25955
2320.06304	0.26362
2318.13447	0.26806
2316.20591	0.27220
2314.27734	0.27549
2312.34878	0.27820
2310.42021	0.28091
2308.49165	0.28379
2306.56309	0.28674
2304.63452	0.28979
2302.70596	0.29284
2300.77739	0.29564
2298.84883	0.29815
2296.92026	0.30054
2294.99170	0.30292
2293.06313	0.30534
2291.13457	0.30783
2289.20601	0.31035
2287.27744	0.31279
2285.34888	0.31513
2283.42031	0.31740
2281.49175	0.31945
2279.56318	0.32122
2277.63462	0.32301
2275.70605	0.32496
2273.77749	0.32691
2271.84893	0.32880
2269.92036	0.33076
2267.99180	0.33281
2266.06323	0.33500
2264.13467	0.33740
2262.20610	0.33980
2260.27754	0.34199
2258.34897	0.34408
2256.42041	0.34615
2254.49185	0.34823
2252.56328	0.35035
2250.63472	0.35257
2248.70615	0.35489
2246.77759	0.35720
2244.84902	0.35942
2242.92046	0.36167
2240.99189	0.36399
2239.06333	0.36615
2237.13477	0.36823
2235.20620	0.37047
2233.27764	0.37275
2231.34907	0.37492
2229.42051	0.37707
2227.49194	0.37918
2225.56338	0.38129
2223.63481	0.38354
2221.70625	0.38587
2219.77769	0.38814
2217.84912	0.39028
2215.92056	0.39232
2213.99199	0.39431
2212.06343	0.39640
2210.13486	0.39861
2208.20630	0.40079
2206.27773	0.40288
2204.34917	0.40483
2202.42061	0.40675
2200.49204	0.40885
2198.56348	0.41100
2196.63491	0.41290
2194.70635	0.41468
2192.77778	0.41648
2190.84922	0.41829
2188.92065	0.42012
2186.99209	0.42191
2185.06353	0.42375
2183.13496	0.42563
2181.20640	0.42744
2179.27783	0.42912
2177.34927	0.43070
2175.42070	0.43220
2173.49214	0.43361
2171.56357	0.43500
2169.63501	0.43641
2167.70645	0.43782
2165.77788	0.43915
2163.84932	0.44039
2161.92075	0.44162
2159.99219	0.44278
2158.06362	0.44378
2156.13506	0.44468
2154.20649	0.44552
2152.27793	0.44625
2150.34937	0.44698
2148.42080	0.44778
2146.49224	0.44845
2144.56367	0.44892
2142.63511	0.44940
2140.70654	0.44987
2138.77798	0.45023
2136.84941	0.45047
2134.92085	0.45067
2132.99229	0.45087
2131.06372	0.45092
2129.13516	0.45073
2127.20659	0.45037
2125.27803	0.45002
2123.34946	0.44975
2121.42090	0.44948
2119.49233	0.44910
2117.56377	0.44858
2115.63521	0.44795
2113.70664	0.44723
2111.77808	0.44639
2109.84951	0.44549
2107.92095	0.44461
2105.99238	0.44366
2104.06382	0.44262
2102.13525	0.44144
2100.20669	0.44015
2098.27812	0.43887
2096.34956	0.43759
2094.42100	0.43623
2092.49243	0.43474
2090.56387	0.43324
2088.63530	0.43172
2086.70674	0.43012
2084.77817	0.42834
2082.84961	0.42648
2080.92104	0.42454
2078.99248	0.42252
2077.06392	0.42053
2075.13535	0.41851
2073.20679	0.41632
2071.27822	0.41412
2069.34966	0.41205
2067.42109	0.41006
2065.49253	0.40795
2063.56396	0.40563
2061.63540	0.40324
2059.70684	0.40090
2057.77827	0.39853
2055.84971	0.39609
2053.92114	0.39358
2051.99258	0.39104
2050.06401	0.38849
2048.13545	0.38591
2046.20688	0.38338
2044.27832	0.38086
2042.34976	0.37828
2040.42119	0.37563
2038.49263	0.37291
2036.56406	0.37019
2034.63550	0.36750
2032.70693	0.36477
2030.77837	0.36207
2028.84980	0.35940
2026.92124	0.35675
2024.99268	0.35414
2023.06411	0.35153
2021.13555	0.34881
2019.20698	0.34608
2017.27842	0.34339
2015.34985	0.34062
2013.42129	0.33786
2011.49272	0.33518
2009.56416	0.33253
2007.63560	0.32983
2005.70703	0.32713
2003.77847	0.32446
2001.84990	0.32180
1999.92134	0.31925
1997.99277	0.31674
1996.06421	0.31417
1994.13564	0.31173
1992.20708	0.30947
1990.27852	0.30710
1988.34995	0.30458
1986.42139	0.30196
1984.49282	0.29945
1982.56426	0.29712
1980.63569	0.29485
1978.70713	0.29261
1976.77856	0.29036
1974.85000	0.28808
1972.92144	0.28583
1970.99287	0.28368
1969.06431	0.28175
1967.13574	0.27989
1965.20718	0.27785
1963.27861	0.27571
1961.35005	0.27374
1959.42148	0.27197
1957.49292	0.27026
1955.56436	0.26853
1953.63579	0.26675
1951.70723	0.26493
1949.77866	0.26322
1947.85010	0.26160
1945.92153	0.26000
1943.99297	0.25858
1942.06440	0.25731
1940.13584	0.25583
1938.20728	0.25422
1936.27871	0.25267
1934.35015	0.25121
1932.42158	0.24987
1930.49302	0.24860
1928.56445	0.24743
1926.63589	0.24643
1924.70732	0.24566
1922.77876	0.24492
1920.85020	0.24391
1918.92163	0.24289
1916.99307	0.24195
1915.06450	0.24087
1913.13594	0.23978
1911.20737	0.23901
1909.27881	0.23846
1907.35024	0.23787
1905.42168	0.23712
1903.49312	0.23642
1901.56455	0.23582
1899.63599	0.23527
1897.70742	0.23485
1895.77886	0.23455
1893.85029	0.23420
1891.92173	0.23378
1889.99316	0.23356
1888.06460	0.23327
1886.13604	0.23274
1884.20747	0.23232
1882.27891	0.23215
1880.35034	0.23213
1878.42178	0.23214
1876.49321	0.23215
1874.56465	0.23215
1872.63608	0.23228
1870.70752	0.23265
1868.77896	0.23337
1866.85039	0.23369
1864.92183	0.23335
1862.99326	0.23314
1861.06470	0.23325
1859.13613	0.23351
1857.20757	0.23373
1855.27900	0.23407
1853.35044	0.23456
1851.42187	0.23515
1849.49331	0.23577
1847.56475	0.23652
1845.63618	0.23752
1843.70762	0.23859
1841.77905	0.23918
1839.85049	0.23947
1837.92192	0.24017
1835.99336	0.24106
1834.06479	0.24197
1832.13623	0.24303
1830.20767	0.24459
1828.27910	0.24612
1826.35054	0.24705
1824.42197	0.24810
1822.49341	0.24932
1820.56484	0.25059
1818.63628	0.25186
1816.70771	0.25328
1814.77915	0.25485
1812.85059	0.25673
1810.92202	0.25893
1808.99346	0.26106
1807.06489	0.26292
1805.13633	0.26465
1803.20776	0.26674
1801.27920	0.26928
1799.35063	0.27210
1797.42207	0.27457
1795.49351	0.27695
1793.56494	0.27978
1791.63638	0.28339
1789.70781	0.28667
1787.77925	0.28906
1785.85068	0.29204
1783.92212	0.29563
1781.99355	0.29945
1780.06499	0.30355
1778.13643	0.30782
1776.20786	0.31183
1774.27930	0.31617
1772.35073	0.32206
1770.42217	0.32823
1768.49360	0.33319
1766.56504	0.33805
1764.63647	0.34320
1762.70791	0.34899
1760.77935	0.35638
1758.85078	0.36328
1756.92222	0.37017
1754.99365	0.37768
1753.06509	0.38449
1751.13652	0.39260
1749.20796	0.40298
1747.27939	0.41327
1745.35083	0.42217
1743.42227	0.43157
1741.49370	0.44201
1739.56514	0.45424
1737.63657	0.46643
1735.70801	0.47714
1733.77944	0.49343
1731.85088	0.51321
1729.92231	0.52885
1727.99375	0.54438
1726.06519	0.56078
1724.13662	0.57865
1722.20806	0.59807
1720.27949	0.61611
1718.35093	0.63753
1716.42236	0.66970
1714.49380	0.70032
1712.56523	0.72472
1710.63667	0.74833
1708.70811	0.77393
1706.77954	0.80313
1704.85098	0.83822
1702.92241	0.86973
1700.99385	0.90093
1699.06528	0.94777
1697.13672	0.99156
1695.20815	1.03718
1693.27959	1.08164
1691.35103	1.11749
1689.42246	1.15918
1687.49390	1.20375
1685.56533	1.24722
1683.63677	1.31433
1681.70820	1.38355
1679.77964	1.42747
1677.85107	1.46971
1675.92251	1.51867
1673.99395	1.57958
1672.06538	1.63432
1670.13682	1.68878
1668.20825	1.76002
1666.27969	1.81767
1664.35112	1.86727
1662.42256	1.93197
1660.49399	2.00606
1658.56543	2.06351
1656.63687	2.10986
1654.70830	2.15158
1652.77974	2.21378
1650.85117	2.27143
1648.92261	2.29148
1646.99404	2.31801
1645.06548	2.34529
1643.13691	2.36045
1641.20835	2.36766
1639.27979	2.37554
1637.35122	2.38052
1635.42266	2.37880
1633.49409	2.37083
1631.56553	2.35625
1629.63696	2.33706
1627.70840	2.30650
1625.77983	2.27199
1623.85127	2.22747
1621.92271	2.17200
1619.99414	2.12331
1618.06558	2.07627
1616.13701	2.00853
1614.20845	1.93893
1612.27988	1.88609
1610.35132	1.83251
1608.42275	1.77579
1606.49419	1.71950
1604.56562	1.66701
1602.63706	1.61667
1600.70850	1.56804
1598.77993	1.52305
1596.85137	1.48029
1594.92280	1.43883
1592.99424	1.39924
1591.06567	1.36305
1589.13711	1.32904
1587.20854	1.29783
1585.27998	1.26948
1583.35142	1.24298
1581.42285	1.21896
1579.49429	1.19916
1577.56572	1.18208
1575.63716	1.16149
1573.70859	1.14356
1571.78003	1.13254
1569.85146	1.12202
1567.92290	1.11101
1565.99434	1.10354
1564.06577	1.09872
1562.13721	1.09568
1560.20864	1.09606
1558.28008	1.10205
1556.35151	1.10643
1554.42295	1.10826
1552.49438	1.11112
1550.56582	1.11269
1548.63726	1.11131
1546.70869	1.10677
1544.78013	1.09865
1542.85156	1.08701
1540.92300	1.06900
1538.99443	1.03903
1537.06587	1.01631
1535.13730	1.00066
1533.20874	0.97956
1531.28018	0.95691
1529.35161	0.94055
1527.42305	0.92513
1525.49448	0.90929
1523.56592	0.89603
1521.63735	0.88333
1519.70879	0.87059
1517.78022	0.86020
1515.85166	0.84809
1513.92310	0.83501
1511.99453	0.82336
1510.06597	0.81285
1508.13740	0.80297
1506.20884	0.78723
1504.28027	0.77277
1502.35171	0.76478
1500.42314	0.75811
1498.49458	0.75102
1496.56602	0.74275
1494.63745	0.73459
1492.70889	0.72845
1490.78032	0.72333
1488.85176	0.71729
1486.92319	0.71127
1484.99463	0.70669
1483.06606	0.70338
1481.13750	0.70089
1479.20894	0.69916
1477.28037	0.69849
1475.35181	0.69886
1473.42324	0.69957
1471.49468	0.69888
1469.56611	0.69673
1467.63755	0.69452
1465.70898	0.69283
1463.78042	0.69171
1461.85186	0.69106
1459.92329	0.69103
1457.99473	0.69159
1456.06616	0.69104
1454.13760	0.68835
1452.20903	0.68539
1450.28047	0.68255
1448.35190	0.67980
1446.42334	0.67674
1444.49478	0.67362
1442.56621	0.67079
1440.63765	0.66803
1438.70908	0.66516
1436.78052	0.66136
1434.85195	0.65683
1432.92339	0.65341
1430.99482	0.65132
1429.06626	0.65024
1427.13770	0.64981
1425.20913	0.64995
1423.28057	0.65079
1421.35200	0.65176
1419.42344	0.65258
1417.49487	0.65275
1415.56631	0.65168
1413.63774	0.65071
1411.70918	0.65075
1409.78062	0.65186
1407.85205	0.65360
1405.92349	0.65576
1403.99492	0.65788
1402.06636	0.65880
1400.13779	0.65849
1398.20923	0.65735
1396.28066	0.65530
1394.35210	0.65161
1392.42354	0.64673
1390.49497	0.64211
1388.56641	0.63761
1386.63784	0.63220
1384.70928	0.62633
1382.78071	0.62105
1380.85215	0.61621
1378.92358	0.61186
1376.99502	0.60851
1375.06646	0.60644
1373.13789	0.60511
1371.20933	0.60399
1369.28076	0.60305
1367.35220	0.60186
1365.42363	0.60027
1363.49507	0.59867
1361.56650	0.59708
1359.63794	0.59537
1357.70937	0.59389
1355.78081	0.59278
1353.85225	0.59187
1351.92368	0.59100
1349.99512	0.59028
1348.06655	0.58970
1346.13799	0.58906
1344.20942	0.58830
1342.28086	0.58756
1340.35229	0.58708
1338.42373	0.58676
1336.49517	0.58621
1334.56660	0.58564
1332.63804	0.58557
1330.70947	0.58596
1328.78091	0.58651
1326.85234	0.58713
1324.92378	0.58789
1322.99521	0.58873
1321.06665	0.58954
1319.13809	0.59034
1317.20952	0.59100
1315.28096	0.59129
1313.35239	0.59124
1311.42383	0.59083
1309.49526	0.59019
1307.56670	0.58962
1305.63813	0.58919
1303.70957	0.58890
1301.78101	0.58857
1299.85244	0.58782
1297.92388	0.58669
1295.99531	0.58545
1294.06675	0.58420
1292.13818	0.58296
1290.20962	0.58173
1288.28105	0.58039
1286.35249	0.57898
1284.42393	0.57773
1282.49536	0.57649
1280.56680	0.57513
1278.63823	0.57378
1276.70967	0.57250
1274.78110	0.57142
1272.85254	0.57062
1270.92397	0.56982
1268.99541	0.56889
1267.06685	0.56810
1265.13828	0.56742
1263.20972	0.56658
1261.28115	0.56557
1259.35259	0.56459
1257.42402	0.56390
1255.49546	0.56360
1253.56689	0.56364
1251.63833	0.56388
1249.70977	0.56415
1247.78120	0.56421
1245.85264	0.56397
1243.92407	0.56353
1241.99551	0.56289
1240.06694	0.56168
1238.13838	0.55980
1236.20981	0.55757
1234.28125	0.55532
1232.35269	0.55309
1230.42412	0.55091
1228.49556	0.54880
1226.56699	0.54669
1224.63843	0.54472
1222.70986	0.54295
1220.78130	0.54132
1218.85273	0.53984
1216.92417	0.53860
1214.99561	0.53761
1213.06704	0.53678
1211.13848	0.53600
1209.20991	0.53523
1207.28135	0.53447
1205.35278	0.53364
1203.42422	0.53276
1201.49565	0.53192
1199.56709	0.53112
1197.63853	0.53040
1195.70996	0.52987
1193.78140	0.52944
1191.85283	0.52895
1189.92427	0.52853
1187.99570	0.52831
1186.06714	0.52829
1184.13857	0.52849
1182.21001	0.52907
1180.28145	0.53002
1178.35288	0.53113
1176.42432	0.53247
1174.49575	0.53392
1172.56719	0.53505
1170.63862	0.53551
1168.71006	0.53534
1166.78149	0.53498
1164.85293	0.53480
1162.92437	0.53479
1160.99580	0.53455
1159.06724	0.53385
1157.13867	0.53289
1155.21011	0.53187
1153.28154	0.53060
1151.35298	0.52896
1149.42441	0.52690
1147.49585	0.52433
1145.56729	0.52137
1143.63872	0.51844
1141.71016	0.51599
1139.78159	0.51410
1137.85303	0.51257
1135.92446	0.51130
1133.99590	0.51046
1132.06733	0.50993
1130.13877	0.50942
1128.21021	0.50895
1126.28164	0.50836
1124.35308	0.50755
1122.42451	0.50689
1120.49595	0.50656
1118.56738	0.50635
1116.63882	0.50631
1114.71025	0.50656
1112.78169	0.50703
1110.85312	0.50758
1108.92456	0.50818
1106.99600	0.50906
1105.06743	0.51037
1103.13887	0.51190
1101.21030	0.51348
1099.28174	0.51517
1097.35317	0.51720
1095.42461	0.51987
1093.49604	0.52327
1091.56748	0.52745
1089.63892	0.53254
1087.71035	0.53857
1085.78179	0.54519
1083.85322	0.55197
1081.92466	0.55851
1079.99609	0.56397
1078.06753	0.56704
1076.13896	0.56703
1074.21040	0.56426
1072.28184	0.55951
1070.35327	0.55365
1068.42471	0.54729
1066.49614	0.54073
1064.56758	0.53426
1062.63901	0.52838
1060.71045	0.52329
1058.78188	0.51872
1056.85332	0.51444
1054.92476	0.51062
1052.99619	0.50746
1051.06763	0.50477
1049.13906	0.50240
1047.21050	0.50045
1045.28193	0.49889
1043.35337	0.49757
1041.42480	0.49639
1039.49624	0.49532
1037.56768	0.49457
1035.63911	0.49416
1033.71055	0.49376
1031.78198	0.49312
1029.85342	0.49231
1027.92485	0.49143
1025.99629	0.49066
1024.06772	0.49031
1022.13916	0.49041
1020.21060	0.49079
1018.28203	0.49134
1016.35347	0.49184
1014.42490	0.49223
1012.49634	0.49271
1010.56777	0.49343
1008.63921	0.49445
1006.71064	0.49581
1004.78208	0.49740
1002.85352	0.49933
1000.92495	0.50188
998.99639	0.50505
997.06782	0.50875
995.13926	0.51286
993.21069	0.51695
991.28213	0.52053
989.35356	0.52313
987.42500	0.52449
985.49644	0.52502
983.56787	0.52546
981.63931	0.52617
979.71074	0.52707
977.78218	0.52819
975.85361	0.52996
973.92505	0.53250
971.99648	0.53544
970.06792	0.53867
968.13936	0.54223
966.21079	0.54605
964.28223	0.55011
962.35366	0.55463
960.42510	0.55969
958.49653	0.56503
956.56797	0.57052
954.63940	0.57627
952.71084	0.58230
950.78228	0.58850
948.85371	0.59465
946.92515	0.60066
944.99658	0.60668
943.06802	0.61293
941.13945	0.61921
939.21089	0.62529
937.28232	0.63125
935.35376	0.63706
933.42520	0.64256
931.49663	0.64778
929.56807	0.65302
927.63950	0.65855
925.71094	0.66452
923.78237	0.67101
921.85381	0.67743
919.92524	0.68335
917.99668	0.68978
916.06812	0.69705
914.13955	0.70435
912.21099	0.71168
910.28242	0.71894
908.35386	0.72618
906.42529	0.73424
904.49673	0.74352
902.56816	0.75335
900.63960	0.76278
898.71104	0.77188
896.78247	0.78178
894.85391	0.79253
892.92534	0.80250
890.99678	0.81214
889.06821	0.82315
887.13965	0.83404
885.21108	0.84368
883.28252	0.85358
881.35396	0.86496
879.42539	0.87753
877.49683	0.88989
875.56826	0.90162
873.63970	0.91290
871.71113	0.92383
869.78257	0.93452
867.85400	0.94520
865.92544	0.95721
863.99687	0.96965
862.06831	0.97948
860.13975	0.98797
858.21118	0.99926
856.28262	1.01317
854.35405	1.02634
852.42549	1.03866
850.49692	1.05231
848.56836	1.06501
846.63979	1.07412
844.71123	1.08258
842.78267	1.09252
840.85410	1.10336
838.92554	1.11671
836.99697	1.13226
835.06841	1.14346
833.13984	1.15156
831.21128	1.16510
829.28271	1.18135
827.35415	1.19111
825.42559	1.19525
823.49702	1.20182
821.56846	1.21121
819.63989	1.22407
817.71133	1.24067
815.78276	1.25331
813.85420	1.26146
811.92563	1.26494
809.99707	1.26223
808.06851	1.26811
806.13994	1.29730
804.21138	1.33377
802.28281	1.35720
800.35425	1.37407
798.42568	1.38235
796.49712	1.38164
794.56855	1.38624
792.63999	1.38748
790.71143	1.38786
788.78286	1.43330
786.85430	1.53355
784.92573	1.61150
782.99717	1.57515
781.06860	1.47669
779.14004	1.39818
777.21147	1.37674
775.28291	1.42807
773.35435	1.50646
771.42578	1.56827
769.49722	1.60911
767.56865	1.59145
765.64009	1.56603
763.71152	1.60088
761.78296	1.71490
759.85439	1.88284
757.92583	2.02688
755.99727	2.32100
754.06870	2.72752
752.14014	1.92983
750.21157	1.55643
748.28301	1.32605
746.35444	1.24407
744.42588	1.24008
742.49731	1.20812
740.56875	1.14046
738.64019	1.00648
736.71162	0.88766
734.78306	0.80662
732.85449	0.67989
730.92593	0.57250
728.99736	0.56545
727.06880	0.62459
725.14023	0.64167
723.21167	0.64606
721.28311	0.58505
719.35454	0.38257
717.42598	0.36610
715.49741	0.51666
713.56885	0.42683
711.64028	0.39746
709.71172	0.79851
707.78315	4.24670
705.85459	0.45003
703.92603	0.26509
701.99746	0.26940
700.06890	0.27703
698.14033	0.25697
696.21177	0.26641
694.28320	0.29581
692.35464	0.28218
690.42607	0.24353
688.49751	0.27780
686.56895	0.44394
684.64038	0.53064
682.71182	0.37130
680.78325	0.36054
678.85469	0.47277
676.92612	0.37307
674.99756	0.26294
673.06899	0.34856
671.14043	0.43779
669.21187	0.36803
667.28330	0.28231
665.35474	0.21432
663.42617	0.19830
661.49761	0.30692
659.56904	0.39811
657.64048	0.31571
655.71191	0.20652
653.78335	0.15703
651.85479	0.17401
649.92622	0.28243
647.99766	0.43836
646.06909	0.46494
644.14053	0.41992
642.21196	0.55383
640.28340	0.81397
638.35483	0.61625
636.42627	0.40641
634.49771	0.28298
632.56914	0.25308
630.64058	0.31113
628.71201	0.32596
626.78345	0.26013
624.85488	0.26359
622.92632	0.28695
620.99775	0.26844
619.06919	0.30759
617.14062	0.42119
615.21206	0.45612
613.28350	0.35871
611.35493	0.33568
609.42637	0.42809
607.49780	0.46412
605.56924	0.34887
603.64067	0.21278
601.71211	0.13374
599.78354	0.11889
597.85498	0.13888
595.92642	0.21058
593.99785	0.25398
592.06929	0.20594
590.14072	0.16445
588.21216	0.20971
586.28359	0.29632
584.35503	0.32292
582.42646	0.32556
580.49790	0.38009
578.56934	0.42051
576.64077	0.33657
574.71221	0.26077
572.78364	0.23548
570.85508	0.21485
568.92651	0.21528
566.99795	0.27003
565.06938	0.30398
563.14082	0.28392
561.21226	0.26682
559.28369	0.28276
557.35513	0.32066
555.42656	0.21115
553.49800	0.12176
551.56943	0.16788
549.64087	0.28667
547.71230	0.33452
545.78374	0.24351
543.85518	0.17951
541.92661	0.17510
539.99805	0.18788
538.06948	0.21307
536.14092	0.26865
534.21235	0.28835
532.28379	0.22190
530.35522	0.16930
528.42666	0.18388
526.49810	0.20118
524.56953	0.21039
522.64097	0.26076
520.71240	0.25655
518.78384	0.20498
516.85527	0.23082
514.92671	0.27460
512.99814	0.30561
511.06958	0.32498
509.14102	0.31869
507.21245	0.35311
505.28389	0.37131
503.35532	0.25055
501.42676	0.17844
499.49819	0.23191
