3997.91411	0.06905
3995.98555	0.06942
3994.05698	0.06965
3992.12842	0.06968
3990.19985	0.06965
3988.27129	0.06951
3986.34272	0.06933
3984.41416	0.06971
3982.48560	0.07064
3980.55703	0.07132
3978.62847	0.07131
3976.69990	0.07134
3974.77134	0.07224
3972.84277	0.07337
3970.91421	0.07357
3968.98564	0.07300
3967.05708	0.07234
3965.12852	0.07204
3963.19995	0.07261
3961.27139	0.07352
3959.34282	0.07395
3957.41426	0.07404
3955.48569	0.07395
3953.55713	0.07377
3951.62856	0.07406
3949.70000	0.07506
3947.77144	0.07597
3945.84287	0.07598
3943.91431	0.07608
3941.98574	0.07669
3940.05718	0.07609
3938.12861	0.07460
3936.20005	0.07407
3934.27148	0.07490
3932.34292	0.07666
3930.41436	0.07792
3928.48579	0.07715
3926.55723	0.07582
3924.62866	0.07603
3922.70010	0.07666
3920.77153	0.07630
3918.84297	0.07623
3916.91440	0.07699
3914.98584	0.07670
3913.05728	0.07474
3911.12871	0.07299
3909.20015	0.07258
3907.27158	0.07395
3905.34302	0.07748
3903.41445	0.08177
3901.48589	0.08370
3899.55732	0.08289
3897.62876	0.08048
3895.70020	0.07764
3893.77163	0.07657
3891.84307	0.07789
3889.91450	0.07874
3887.98594	0.07782
3886.05737	0.07835
3884.12881	0.08011
3882.20024	0.08064
3880.27168	0.08099
3878.34312	0.08030
3876.41455	0.07847
3874.48599	0.07896
3872.55742	0.08194
3870.62886	0.08490
3868.70029	0.08608
3866.77173	0.08518
3864.84316	0.08524
3862.91460	0.08615
3860.98604	0.08457
3859.05747	0.08222
3857.12891	0.08237
3855.20034	0.08561
3853.27178	0.09183
3851.34321	0.09506
3849.41465	0.09038
3847.48608	0.08536
3845.55752	0.08368
3843.62896	0.08544
3841.70039	0.08914
3839.77183	0.09344
3837.84326	0.09713
3835.91470	0.09712
3833.98613	0.09433
3832.05757	0.09232
3830.12900	0.09151
3828.20044	0.09162
3826.27187	0.09265
3824.34331	0.09394
3822.41475	0.09660
3820.48618	0.10161
3818.55762	0.10358
3816.62905	0.10225
3814.70049	0.10060
3812.77192	0.09774
3810.84336	0.09584
3808.91479	0.09674
3806.98623	0.10025
3805.05767	0.10398
3803.12910	0.10663
3801.20054	0.11024
3799.27197	0.11226
3797.34341	0.11113
3795.41484	0.10944
3793.48628	0.10706
3791.55771	0.10542
3789.62915	0.10582
3787.70059	0.10750
3785.77202	0.11009
3783.84346	0.11284
3781.91489	0.11454
3779.98633	0.11647
3778.05776	0.11877
3776.12920	0.11910
3774.20063	0.11902
3772.27207	0.12095
3770.34351	0.12494
3768.41494	0.12893
3766.48638	0.13100
3764.55781	0.13223
3762.62925	0.13339
3760.70068	0.13569
3758.77212	0.14007
3756.84355	0.14422
3754.91499	0.14687
3752.98643	0.15098
3751.05786	0.15908
3749.12930	0.16709
3747.20073	0.16914
3745.27217	0.17070
3743.34360	0.17503
3741.41504	0.17829
3739.48647	0.18124
3737.55791	0.18798
3735.62935	0.19993
3733.70078	0.21204
3731.77222	0.21689
3729.84365	0.21790
3727.91509	0.22040
3725.98652	0.22643
3724.05796	0.23395
3722.12939	0.23936
3720.20083	0.24218
3718.27227	0.24345
3716.34370	0.24538
3714.41514	0.25074
3712.48657	0.26316
3710.55801	0.28331
3708.62944	0.30063
3706.70088	0.31053
3704.77231	0.32020
3702.84375	0.33356
3700.91519	0.35101
3698.98662	0.36874
3697.05806	0.38485
3695.12949	0.40224
3693.20093	0.42200
3691.27236	0.44548
3689.34380	0.47557
3687.41523	0.50861
3685.48667	0.53502
3683.55811	0.55808
3681.62954	0.58512
3679.70098	0.61794
3677.77241	0.65408
3675.84385	0.69755
3673.91528	0.75244
3671.98672	0.79371
3670.05815	0.83095
3668.12959	0.88269
3666.20103	0.92812
3664.27246	0.96630
3662.34390	1.00902
3660.41533	1.05643
3658.48677	1.10422
3656.55820	1.15596
3654.62964	1.21328
3652.70107	1.26127
3650.77251	1.30493
3648.84395	1.36637
3646.91538	1.43652
3644.98682	1.48287
3643.05825	1.51848
3641.12969	1.55771
3639.20112	1.60288
3637.27256	1.64972
3635.34399	1.69623
3633.41543	1.74281
3631.48687	1.78650
3629.55830	1.83171
3627.62974	1.88969
3625.70117	1.93918
3623.77261	1.97001
3621.84404	2.00097
3619.91548	2.03849
3617.98691	2.08402
3616.05835	2.12666
3614.12979	2.16217
3612.20122	2.20045
3610.27266	2.23903
3608.34409	2.27855
3606.41553	2.32211
3604.48696	2.36270
3602.55840	2.39847
3600.62983	2.43728
3598.70127	2.47939
3596.77271	2.52004
3594.84414	2.56196
3592.91558	2.60384
3590.98701	2.63961
3589.05845	2.67297
3587.12988	2.71588
3585.20132	2.76294
3583.27275	2.80140
3581.34419	2.83729
3579.41562	2.87682
3577.48706	2.91973
3575.55850	2.96381
3573.62993	3.00783
3571.70137	3.04881
3569.77280	3.08842
3567.84424	3.13292
3565.91567	3.18697
3563.98711	3.23628
3562.05854	3.27467
3560.12998	3.31260
3558.20142	3.35278
3556.27285	3.39585
3554.34429	3.44174
3552.41572	3.49117
3550.48716	3.54160
3548.55859	3.58765
3546.63003	3.63135
3544.70146	3.67933
3542.77290	3.72860
3540.84434	3.77456
3538.91577	3.81991
3536.98721	3.86519
3535.05864	3.91234
3533.13008	3.96011
3531.20151	4.00453
3529.27295	4.04721
3527.34438	4.09438
3525.41582	4.14353
3523.48726	4.18981
3521.55869	4.23833
3519.63013	4.29007
3517.70156	4.34095
3515.77300	4.38759
3513.84443	4.43026
3511.91587	4.47493
3509.98730	4.52760
3508.05874	4.58239
3506.13018	4.63069
3504.20161	4.67740
3502.27305	4.72657
3500.34448	4.77225
3498.41592	4.81427
3496.48735	4.86053
3494.55879	4.90940
3492.63022	4.95668
3490.70166	5.00701
3488.77310	5.06252
3486.84453	5.11455
3484.91597	5.15633
3482.98740	5.19549
3481.05884	5.24021
3479.13027	5.28908
3477.20171	5.33801
3475.27314	5.38414
3473.34458	5.42863
3471.41602	5.47009
3469.48745	5.50724
3467.55889	5.55218
3465.63032	5.60727
3463.70176	5.65575
3461.77319	5.69706
3459.84463	5.75069
3457.91606	5.81408
3455.98750	5.86923
3454.05894	5.91283
3452.13037	5.95743
3450.20181	6.01221
3448.27324	6.06787
3446.34468	6.12104
3444.41611	6.17268
3442.48755	6.22582
3440.55898	6.28911
3438.63042	6.34705
3436.70186	6.36658
3434.77329	6.37443
3432.84473	6.42556
3430.91616	6.51117
3428.98760	6.58709
3427.05903	6.63580
3425.13047	6.67872
3423.20190	6.71502
3421.27334	6.74200
3419.34478	6.77893
3417.41621	6.83508
3415.48765	6.89702
3413.55908	6.93485
3411.63052	6.95724
3409.70195	6.99599
3407.77339	7.07743
3405.84482	7.17175
3403.91626	7.22622
3401.98770	7.24736
3400.05913	7.26458
3398.13057	7.28716
3396.20200	7.32692
3394.27344	7.39734
3392.34487	7.44315
3390.41631	7.44170
3388.48774	7.44590
3386.55918	7.47708
3384.63062	7.52210
3382.70205	7.57182
3380.77349	7.59961
3378.84492	7.60087
3376.91636	7.61552
3374.98779	7.66686
3373.05923	7.73284
3371.13066	7.74061
3369.20210	7.72517
3367.27354	7.74940
3365.34497	7.79200
3363.41641	7.81606
3361.48784	7.81967
3359.55928	7.81882
3357.63071	7.82417
3355.70215	7.87993
3353.77358	7.94945
3351.84502	7.98496
3349.91646	7.98875
3347.98789	8.00584
3346.05933	8.07070
3344.13076	8.06403
3342.20220	7.94344
3340.27363	7.87078
3338.34507	7.93734
3336.41650	8.02873
3334.48794	8.03098
3332.55937	8.00016
3330.63081	8.01083
3328.70225	8.02598
3326.77368	8.01370
3324.84512	8.01001
3322.91655	8.01256
3320.98799	8.01707
3319.05942	8.02938
3317.13086	8.06460
3315.20229	8.08830
3313.27373	8.08924
3311.34517	8.12089
3309.41660	8.19235
3307.48804	8.24185
3305.55947	8.21473
3303.63091	8.15272
3301.70234	8.10284
3299.77378	8.10942
3297.84521	8.12745
3295.91665	8.09443
3293.98809	8.04651
3292.05952	8.01730
3290.13096	7.99676
3288.20239	7.98397
3286.27383	8.04867
3284.34526	8.14802
3282.41670	8.15667
3280.48813	8.13249
3278.55957	8.15503
3276.63101	8.16438
3274.70244	8.12597
3272.77388	8.08103
3270.84531	8.07172
3268.91675	8.12664
3266.98818	8.17294
3265.05962	8.12338
3263.13105	8.07304
3261.20249	8.11067
3259.27393	8.15373
3257.34536	8.13926
3255.41680	8.09433
3253.48823	8.06265
3251.55967	8.07059
3249.63110	8.10691
3247.70254	8.20854
3245.77397	8.34409
3243.84541	8.35968
3241.91685	8.28080
3239.98828	8.22857
3238.05972	8.19244
3236.13115	8.14433
3234.20259	8.07209
3232.27402	8.03046
3230.34546	8.07897
3228.41689	8.11884
3226.48833	8.04568
3224.55977	7.93453
3222.63120	7.91052
3220.70264	7.92004
3218.77407	7.83963
3216.84551	7.74600
3214.91694	7.72383
3212.98838	7.77109
3211.05981	7.82626
3209.13125	7.76976
3207.20269	7.67327
3205.27412	7.66496
3203.34556	7.67191
3201.41699	7.64058
3199.48843	7.63019
3197.55986	7.61718
3195.63130	7.55651
3193.70273	7.48691
3191.77417	7.44533
3189.84561	7.42202
3187.91704	7.38326
3185.98848	7.34885
3184.05991	7.34190
3182.13135	7.31617
3180.20278	7.27553
3178.27422	7.23279
3176.34565	7.15885
3174.41709	7.08529
3172.48853	7.04168
3170.55996	6.98938
3168.63140	6.89891
3166.70283	6.80414
3164.77427	6.74438
3162.84570	6.70531
3160.91714	6.65666
3158.98857	6.60017
3157.06001	6.54328
3155.13145	6.47798
3153.20288	6.39668
3151.27432	6.31585
3149.34575	6.25441
3147.41719	6.20331
3145.48862	6.13670
3143.56006	6.04529
3141.63149	5.95664
3139.70293	5.88968
3137.77437	5.83054
3135.84580	5.76880
3133.91724	5.70592
3131.98867	5.63709
3130.06011	5.56606
3128.13154	5.50217
3126.20298	5.43488
3124.27441	5.35731
3122.34585	5.28182
3120.41729	5.21303
3118.48872	5.14153
3116.56016	5.06532
3114.63159	4.99303
3112.70303	4.92722
3110.77446	4.85980
3108.84590	4.78789
3106.91733	4.71662
3104.98877	4.64928
3103.06021	4.58684
3101.13164	4.52419
3099.20308	4.45749
3097.27451	4.39047
3095.34595	4.32680
3093.41738	4.26520
3091.48882	4.20160
3089.56025	4.13494
3087.63169	4.06823
3085.70312	4.00591
3083.77456	3.94767
3081.84600	3.88961
3079.91743	3.82903
3077.98887	3.76621
3076.06030	3.70422
3074.13174	3.64560
3072.20317	3.59088
3070.27461	3.53608
3068.34604	3.47776
3066.41748	3.42028
3064.48892	3.36696
3062.56035	3.31459
3060.63179	3.26118
3058.70322	3.20780
3056.77466	3.15438
3054.84609	3.10012
3052.91753	3.04650
3050.98896	2.99543
3049.06040	2.94586
3047.13184	2.89665
3045.20327	2.84747
3043.27471	2.79868
3041.34614	2.75174
3039.41758	2.70634
3037.48901	2.66099
3035.56045	2.61512
3033.63188	2.56931
3031.70332	2.52434
3029.77476	2.48023
3027.84619	2.43763
3025.91763	2.39707
3023.98906	2.35714
3022.06050	2.31665
3020.13193	2.27569
3018.20337	2.23466
3016.27480	2.19424
3014.34624	2.15524
3012.41768	2.11768
3010.48911	2.08111
3008.56055	2.04541
3006.63198	2.00988
3004.70342	1.97381
3002.77485	1.93805
3000.84629	1.90366
2998.91772	1.87046
2996.98916	1.83808
2995.06060	1.80630
2993.13203	1.77471
2991.20347	1.74391
2989.27490	1.71407
2987.34634	1.68437
2985.41777	1.65482
2983.48921	1.62600
2981.56064	1.59817
2979.63208	1.57100
2977.70352	1.54401
2975.77495	1.51725
2973.84639	1.49133
2971.91782	1.46631
2969.98926	1.44149
2968.06069	1.41678
2966.13213	1.39250
2964.20356	1.36845
2962.27500	1.34441
2960.34644	1.32054
2958.41787	1.29696
2956.48931	1.27345
2954.56074	1.25005
2952.63218	1.22710
2950.70361	1.20480
2948.77505	1.18328
2946.84648	1.16197
2944.91792	1.14035
2942.98936	1.11904
2941.06079	1.09870
2939.13223	1.07929
2937.20366	1.06022
2935.27510	1.04061
2933.34653	1.02115
2931.41797	1.00282
2929.48940	0.98509
2927.56084	0.96726
2925.63228	0.94964
2923.70371	0.93263
2921.77515	0.91586
2919.84658	0.89922
2917.91802	0.88304
2915.98945	0.86710
2914.06089	0.85122
2912.13232	0.83566
2910.20376	0.82057
2908.27520	0.80582
2906.34663	0.79153
2904.41807	0.77773
2902.48950	0.76416
2900.56094	0.75077
2898.63237	0.73768
2896.70381	0.72479
2894.77524	0.71228
2892.84668	0.70060
2890.91812	0.68945
2888.98955	0.67815
2887.06099	0.66685
2885.13242	0.65606
2883.20386	0.64592
2881.27529	0.63630
2879.34673	0.62683
2877.41816	0.61715
2875.48960	0.60713
2873.56104	0.59701
2871.63247	0.58687
2869.70391	0.57646
2867.77534	0.56600
2865.84678	0.55559
2863.91821	0.54509
2861.98965	0.53479
2860.06108	0.52501
2858.13252	0.51580
2856.20396	0.50702
2854.27539	0.49858
2852.34683	0.49038
2850.41826	0.48226
2848.48970	0.47413
2846.56113	0.46619
2844.63257	0.45878
2842.70400	0.45186
2840.77544	0.44534
2838.84687	0.43932
2836.91831	0.43359
2834.98975	0.42793
2833.06118	0.42225
2831.13262	0.41639
2829.20405	0.41040
2827.27549	0.40453
2825.34692	0.39874
2823.41836	0.39289
2821.48979	0.38713
2819.56123	0.38165
2817.63267	0.37611
2815.70410	0.37045
2813.77554	0.36497
2811.84697	0.35973
2809.91841	0.35462
2807.98984	0.34958
2806.06128	0.34451
2804.13271	0.33947
2802.20415	0.33462
2800.27559	0.32991
2798.34702	0.32536
2796.41846	0.32096
2794.48989	0.31645
2792.56133	0.31178
2790.63276	0.30731
2788.70420	0.30316
2786.77563	0.29913
2784.84707	0.29512
2782.91851	0.29113
2780.98994	0.28720
2779.06138	0.28342
2777.13281	0.27967
2775.20425	0.27587
2773.27568	0.27220
2771.34712	0.26875
2769.41855	0.26540
2767.48999	0.26194
2765.56143	0.25847
2763.63286	0.25522
2761.70430	0.25200
2759.77573	0.24865
2757.84717	0.24546
2755.91860	0.24262
2753.99004	0.23991
2752.06147	0.23718
2750.13291	0.23439
2748.20435	0.23152
2746.27578	0.22882
2744.34722	0.22633
2742.41865	0.22384
2740.49009	0.22135
2738.56152	0.21900
2736.63296	0.21666
2734.70439	0.21417
2732.77583	0.21167
2730.84727	0.20935
2728.91870	0.20726
2726.99014	0.20526
2725.06157	0.20316
2723.13301	0.20102
2721.20444	0.19888
2719.27588	0.19682
2717.34731	0.19498
2715.41875	0.19324
2713.49019	0.19145
2711.56162	0.18976
2709.63306	0.18827
2707.70449	0.18685
2705.77593	0.18530
2703.84736	0.18354
2701.91880	0.18180
2699.99023	0.18027
2698.06167	0.17888
2696.13311	0.17745
2694.20454	0.17602
2692.27598	0.17469
2690.34741	0.17344
2688.41885	0.17229
2686.49028	0.17114
2684.56172	0.16995
2682.63315	0.16889
2680.70459	0.16783
2678.77603	0.16667
2676.84746	0.16562
2674.91890	0.16469
2672.99033	0.16370
2671.06177	0.16264
2669.13320	0.16160
2667.20464	0.16069
2665.27607	0.15985
2663.34751	0.15900
2661.41895	0.15813
2659.49038	0.15730
2657.56182	0.15660
2655.63325	0.15597
2653.70469	0.15531
2651.77612	0.15466
2649.84756	0.15409
2647.91899	0.15345
2645.99043	0.15273
2644.06187	0.15218
2642.13330	0.15180
2640.20474	0.15136
2638.27617	0.15084
2636.34761	0.15037
2634.41904	0.14995
2632.49048	0.14950
2630.56191	0.14903
2628.63335	0.14858
2626.70479	0.14823
2624.77622	0.14805
2622.84766	0.14797
2620.91909	0.14786
2618.99053	0.14765
2617.06196	0.14737
2615.13340	0.14706
2613.20483	0.14680
2611.27627	0.14669
2609.34771	0.14664
2607.41914	0.14659
2605.49058	0.14658
2603.56201	0.14661
2601.63345	0.14663
2599.70488	0.14663
2597.77632	0.14664
2595.84775	0.14662
2593.91919	0.14663
2591.99062	0.14680
2590.06206	0.14701
2588.13350	0.14721
2586.20493	0.14750
2584.27637	0.14780
2582.34780	0.14807
2580.41924	0.14835
2578.49067	0.14852
2576.56211	0.14859
2574.63354	0.14875
2572.70498	0.14916
2570.77642	0.14977
2568.84785	0.15029
2566.91929	0.15062
2564.99072	0.15088
2563.06216	0.15119
2561.13359	0.15164
2559.20503	0.15209
2557.27646	0.15241
2555.34790	0.15275
2553.41934	0.15329
2551.49077	0.15385
2549.56221	0.15433
2547.63364	0.15490
2545.70508	0.15560
2543.77651	0.15631
2541.84795	0.15705
2539.91938	0.15776
2537.99082	0.15843
2536.06226	0.15910
2534.13369	0.15972
2532.20513	0.16027
2530.27656	0.16093
2528.34800	0.16168
2526.41943	0.16241
2524.49087	0.16308
2522.56230	0.16373
2520.63374	0.16442
2518.70518	0.16518
2516.77661	0.16596
2514.84805	0.16675
2512.91948	0.16760
2510.99092	0.16841
2509.06235	0.16903
2507.13379	0.16964
2505.20522	0.17053
2503.27666	0.17148
2501.34810	0.17223
2499.41953	0.17301
2497.49097	0.17393
2495.56240	0.17483
2493.63384	0.17571
2491.70527	0.17655
2489.77671	0.17731
2487.84814	0.17811
2485.91958	0.17911
2483.99102	0.18017
2482.06245	0.18107
2480.13389	0.18188
2478.20532	0.18274
2476.27676	0.18360
2474.34819	0.18445
2472.41963	0.18531
2470.49106	0.18617
2468.56250	0.18702
2466.63394	0.18781
2464.70537	0.18871
2462.77681	0.18980
2460.84824	0.19084
2458.91968	0.19175
2456.99111	0.19264
2455.06255	0.19355
2453.13398	0.19450
2451.20542	0.19555
2449.27686	0.19659
2447.34829	0.19754
2445.41973	0.19842
2443.49116	0.19936
2441.56260	0.20040
2439.63403	0.20153
2437.70547	0.20265
2435.77690	0.20365
2433.84834	0.20456
2431.91978	0.20555
2429.99121	0.20661
2428.06265	0.20763
2426.13408	0.20863
2424.20552	0.20971
2422.27695	0.21087
2420.34839	0.21208
2418.41982	0.21338
2416.49126	0.21467
2414.56270	0.21577
2412.63413	0.21667
2410.70557	0.21754
2408.77700	0.21858
2406.84844	0.21981
2404.91987	0.22117
2402.99131	0.22249
2401.06274	0.22380
2399.13418	0.22508
2397.20562	0.22621
2395.27705	0.22725
2393.34849	0.22846
2391.41992	0.22995
2389.49136	0.23190
2387.56279	0.23509
2385.63423	0.24056
2383.70566	0.24922
2381.77710	0.26125
2379.84854	0.27593
2377.91997	0.29253
2375.99141	0.31129
2374.06284	0.33284
2372.13428	0.35675
2370.20571	0.38166
2368.27715	0.40658
2366.34858	0.43006
2364.42002	0.44956
2362.49146	0.46395
2360.56289	0.47341
2358.63433	0.47561
2356.70576	0.46698
2354.77720	0.44831
2352.84863	0.42373
2350.92007	0.39820
2348.99150	0.38210
2347.06294	0.38259
2345.13437	0.39962
2343.20581	0.42183
2341.27725	0.43303
2339.34868	0.43357
2337.42012	0.43107
2335.49155	0.42869
2333.56299	0.42641
2331.63442	0.42469
2329.70586	0.42280
2327.77729	0.41913
2325.84873	0.41308
2323.92017	0.40564
2321.99160	0.39767
2320.06304	0.38877
2318.13447	0.37894
2316.20591	0.37001
2314.27734	0.36414
2312.34878	0.36097
2310.42021	0.35789
2308.49165	0.35312
2306.56309	0.34705
2304.63452	0.34137
2302.70596	0.33759
2300.77739	0.33548
2298.84883	0.33384
2296.92026	0.33218
2294.99170	0.33066
2293.06313	0.32926
2291.13457	0.32783
2289.20601	0.32648
2287.27744	0.32530
2285.34888	0.32437
2283.42031	0.32429
2281.49175	0.32565
2279.56318	0.32818
2277.63462	0.33093
2275.70605	0.33348
2273.77749	0.33589
2271.84893	0.33812
2269.92036	0.34011
2267.99180	0.34197
2266.06323	0.34381
2264.13467	0.34553
2262.20610	0.34715
2260.27754	0.34872
2258.34897	0.35024
2256.42041	0.35175
2254.49185	0.35337
2252.56328	0.35512
2250.63472	0.35686
2248.70615	0.35850
2246.77759	0.36010
2244.84902	0.36183
2242.92046	0.36380
2240.99189	0.36590
2239.06333	0.36801
2237.13477	0.37007
2235.20620	0.37217
2233.27764	0.37434
2231.34907	0.37645
2229.42051	0.37850
2227.49194	0.38061
2225.56338	0.38278
2223.63481	0.38495
2221.70625	0.38710
2219.77769	0.38923
2217.84912	0.39138
2215.92056	0.39363
2213.99199	0.39586
2212.06343	0.39802
2210.13486	0.40012
2208.20630	0.40222
2206.27773	0.40424
2204.34917	0.40617
2202.42061	0.40814
2200.49204	0.41012
2198.56348	0.41212
2196.63491	0.41418
2194.70635	0.41618
2192.77778	0.41805
2190.84922	0.41984
2188.92065	0.42160
2186.99209	0.42346
2185.06353	0.42550
2183.13496	0.42748
2181.20640	0.42919
2179.27783	0.43068
2177.34927	0.43217
2175.42070	0.43376
2173.49214	0.43532
2171.56357	0.43673
2169.63501	0.43805
2167.70645	0.43940
2165.77788	0.44081
2163.84932	0.44212
2161.92075	0.44325
2159.99219	0.44427
2158.06362	0.44525
2156.13506	0.44630
2154.20649	0.44732
2152.27793	0.44827
2150.34937	0.44918
2148.42080	0.44990
2146.49224	0.45044
2144.56367	0.45092
2142.63511	0.45148
2140.70654	0.45201
2138.77798	0.45240
2136.84941	0.45263
2134.92085	0.45276
2132.99229	0.45281
2131.06372	0.45276
2129.13516	0.45257
2127.20659	0.45233
2125.27803	0.45208
2123.34946	0.45174
2121.42090	0.45124
2119.49233	0.45065
2117.56377	0.45014
2115.63521	0.44963
2113.70664	0.44901
2111.77808	0.44835
2109.84951	0.44761
2107.92095	0.44663
2105.99238	0.44546
2104.06382	0.44424
2102.13525	0.44310
2100.20669	0.44196
2098.27812	0.44071
2096.34956	0.43942
2094.42100	0.43814
2092.49243	0.43682
2090.56387	0.43535
2088.63530	0.43363
2086.70674	0.43177
2084.77817	0.42991
2082.84961	0.42809
2080.92104	0.42624
2078.99248	0.42439
2077.06392	0.42254
2075.13535	0.42049
2073.20679	0.41828
2071.27822	0.41608
2069.34966	0.41393
2067.42109	0.41185
2065.49253	0.40979
2063.56396	0.40748
2061.63540	0.40499
2059.70684	0.40252
2057.77827	0.40008
2055.84971	0.39764
2053.92114	0.39514
2051.99258	0.39268
2050.06401	0.39019
2048.13545	0.38754
2046.20688	0.38486
2044.27832	0.38236
2042.34976	0.37993
2040.42119	0.37732
2038.49263	0.37453
2036.56406	0.37177
2034.63550	0.36906
2032.70693	0.36631
2030.77837	0.36356
2028.84980	0.36091
2026.92124	0.35832
2024.99268	0.35557
2023.06411	0.35276
2021.13555	0.35010
2019.20698	0.34765
2017.27842	0.34521
2015.34985	0.34241
2013.42129	0.33936
2011.49272	0.33650
2009.56416	0.33389
2007.63560	0.33125
2005.70703	0.32846
2003.77847	0.32569
2001.84990	0.32301
1999.92134	0.32037
1997.99277	0.31782
1996.06421	0.31539
1994.13564	0.31319
1992.20708	0.31117
1990.27852	0.30884
1988.34995	0.30615
1986.42139	0.30348
1984.49282	0.30092
1982.56426	0.29843
1980.63569	0.29600
1978.70713	0.29372
1976.77856	0.29149
1974.85000	0.28926
1972.92144	0.28703
1970.99287	0.28491
1969.06431	0.28307
1967.13574	0.28137
1965.20718	0.27934
1963.27861	0.27709
1961.35005	0.27499
1959.42148	0.27302
1957.49292	0.27112
1955.56436	0.26935
1953.63579	0.26766
1951.70723	0.26592
1949.77866	0.26424
1947.85010	0.26271
1945.92153	0.26146
1943.99297	0.26052
1942.06440	0.25926
1940.13584	0.25718
1938.20728	0.25512
1936.27871	0.25364
1934.35015	0.25242
1932.42158	0.25117
1930.49302	0.24983
1928.56445	0.24859
1926.63589	0.24765
1924.70732	0.24711
1922.77876	0.24671
1920.85020	0.24590
1918.92163	0.24492
1916.99307	0.24379
1915.06450	0.24225
1913.13594	0.24102
1911.20737	0.24057
1909.27881	0.24035
1907.35024	0.23969
1905.42168	0.23865
1903.49312	0.23773
1901.56455	0.23703
1899.63599	0.23641
1897.70742	0.23596
1895.77886	0.23583
1893.85029	0.23568
1891.92173	0.23548
1889.99316	0.23561
1888.06460	0.23531
1886.13604	0.23446
1884.20747	0.23388
1882.27891	0.23357
1880.35034	0.23334
1878.42178	0.23315
1876.49321	0.23298
1874.56465	0.23294
1872.63608	0.23341
1870.70752	0.23470
1868.77896	0.23645
1866.85039	0.23673
1864.92183	0.23550
1862.99326	0.23468
1861.06470	0.23465
1859.13613	0.23488
1857.20757	0.23504
1855.27900	0.23530
1853.35044	0.23572
1851.42187	0.23634
1849.49331	0.23725
1847.56475	0.23857
1845.63618	0.24029
1843.70762	0.24179
1841.77905	0.24195
1839.85049	0.24152
1837.92192	0.24184
1835.99336	0.24260
1834.06479	0.24349
1832.13623	0.24502
1830.20767	0.24756
1828.27910	0.24949
1826.35054	0.25012
1824.42197	0.25092
1822.49341	0.25159
1820.56484	0.25217
1818.63628	0.25327
1816.70771	0.25489
1814.77915	0.25661
1812.85059	0.25874
1810.92202	0.26130
1808.99346	0.26334
1807.06489	0.26480
1805.13633	0.26648
1803.20776	0.26902
1801.27920	0.27220
1799.35063	0.27523
1797.42207	0.27754
1795.49351	0.28006
1793.56494	0.28358
1791.63638	0.28767
1789.70781	0.29024
1787.77925	0.29170
1785.85068	0.29445
1783.92212	0.29827
1781.99355	0.30244
1780.06499	0.30676
1778.13643	0.31093
1776.20786	0.31511
1774.27930	0.32042
1772.35073	0.32758
1770.42217	0.33390
1768.49360	0.33799
1766.56504	0.34195
1764.63647	0.34666
1762.70791	0.35272
1760.77935	0.36052
1758.85078	0.36746
1756.92222	0.37436
1754.99365	0.38184
1753.06509	0.38897
1751.13652	0.39837
1749.20796	0.41016
1747.27939	0.42066
1745.35083	0.42924
1743.42227	0.43848
1741.49370	0.44891
1739.56514	0.46123
1737.63657	0.47350
1735.70801	0.48488
1733.77944	0.50252
1731.85088	0.52184
1729.92231	0.53564
1727.99375	0.54983
1726.06519	0.56578
1724.13662	0.58403
1722.20806	0.60423
1720.27949	0.62342
1718.35093	0.64684
1716.42236	0.68041
1714.49380	0.70961
1712.56523	0.73208
1710.63667	0.75477
1708.70811	0.78041
1706.77954	0.81031
1704.85098	0.84573
1702.92241	0.87687
1700.99385	0.90836
1699.06528	0.95572
1697.13672	0.99828
1695.20815	1.04030
1693.27959	1.08049
1691.35103	1.11342
1689.42246	1.15285
1687.49390	1.19502
1685.56533	1.23584
1683.63677	1.29793
1681.70820	1.36093
1679.77964	1.40076
1677.85107	1.43904
1675.92251	1.48352
1673.99395	1.53879
1672.06538	1.58829
1670.13682	1.63730
1668.20825	1.70037
1666.27969	1.75121
1664.35112	1.79476
1662.42256	1.84937
1660.49399	1.91042
1658.56543	1.95874
1656.63687	1.99927
1654.70830	2.03821
1652.77974	2.09788
1650.85117	2.15109
1648.92261	2.17042
1646.99404	2.19729
1645.06548	2.22749
1643.13691	2.24638
1641.20835	2.25676
1639.27979	2.26592
1637.35122	2.27132
1635.42266	2.26994
1633.49409	2.26234
1631.56553	2.25051
1629.63696	2.23557
1627.70840	2.20937
1625.77983	2.17779
1623.85127	2.13780
1621.92271	2.08882
1619.99414	2.04449
1618.06558	2.00083
1616.13701	1.93840
1614.20845	1.87339
1612.27988	1.82335
1610.35132	1.77210
1608.42275	1.71700
1606.49419	1.66224
1604.56562	1.61129
1602.63706	1.56201
1600.70850	1.51388
1598.77993	1.46951
1596.85137	1.42811
1594.92280	1.38843
1592.99424	1.35004
1591.06567	1.31453
1589.13711	1.28122
1587.20854	1.25010
1585.27998	1.22126
1583.35142	1.19446
1581.42285	1.17025
1579.49429	1.14991
1577.56572	1.13249
1575.63716	1.11106
1573.70859	1.09046
1571.78003	1.07712
1569.85146	1.06443
1567.92290	1.04938
1565.99434	1.03705
1564.06577	1.02781
1562.13721	1.02124
1560.20864	1.01825
1558.28008	1.01524
1556.35151	1.00886
1554.42295	1.00353
1552.49438	0.99914
1550.56582	0.99431
1548.63726	0.98804
1546.70869	0.98120
1544.78013	0.97402
1542.85156	0.96598
1540.92300	0.95413
1538.99443	0.93116
1537.06587	0.91150
1535.13730	0.89907
1533.20874	0.88457
1531.28018	0.86853
1529.35161	0.85666
1527.42305	0.84645
1525.49448	0.83626
1523.56592	0.82766
1521.63735	0.81938
1519.70879	0.80933
1517.78022	0.80000
1515.85166	0.78994
1513.92310	0.77955
1511.99453	0.77121
1510.06597	0.76520
1508.13740	0.76090
1506.20884	0.75069
1504.28027	0.73729
1502.35171	0.72935
1500.42314	0.72410
1498.49458	0.71968
1496.56602	0.71387
1494.63745	0.70678
1492.70889	0.70155
1490.78032	0.69832
1488.85176	0.69452
1486.92319	0.68896
1484.99463	0.68357
1483.06606	0.67960
1481.13750	0.67668
1479.20894	0.67440
1477.28037	0.67324
1475.35181	0.67329
1473.42324	0.67361
1471.49468	0.67153
1469.56611	0.66739
1467.63755	0.66422
1465.70898	0.66253
1463.78042	0.66105
1461.85186	0.65954
1459.92329	0.65953
1457.99473	0.66133
1456.06616	0.66099
1454.13760	0.65682
1452.20903	0.65326
1450.28047	0.65076
1448.35190	0.64878
1446.42334	0.64650
1444.49478	0.64396
1442.56621	0.64171
1440.63765	0.63968
1438.70908	0.63812
1436.78052	0.63668
1434.85195	0.63403
1432.92339	0.63119
1430.99482	0.62954
1429.06626	0.62845
1427.13770	0.62732
1425.20913	0.62689
1423.28057	0.62706
1421.35200	0.62707
1419.42344	0.62728
1417.49487	0.62684
1415.56631	0.62479
1413.63774	0.62283
1411.70918	0.62186
1409.78062	0.62168
1407.85205	0.62187
1405.92349	0.62238
1403.99492	0.62270
1402.06636	0.62237
1400.13779	0.62193
1398.20923	0.62129
1396.28066	0.61990
1394.35210	0.61723
1392.42354	0.61346
1390.49497	0.61012
1388.56641	0.60755
1386.63784	0.60456
1384.70928	0.60073
1382.78071	0.59691
1380.85215	0.59360
1378.92358	0.59100
1376.99502	0.58924
1375.06646	0.58824
1373.13789	0.58719
1371.20933	0.58587
1369.28076	0.58487
1367.35220	0.58387
1365.42363	0.58276
1363.49507	0.58203
1361.56650	0.58114
1359.63794	0.57939
1357.70937	0.57761
1355.78081	0.57631
1353.85225	0.57528
1351.92368	0.57438
1349.99512	0.57367
1348.06655	0.57296
1346.13799	0.57205
1344.20942	0.57116
1342.28086	0.57071
1340.35229	0.57076
1338.42373	0.57042
1336.49517	0.56920
1334.56660	0.56791
1332.63804	0.56713
1330.70947	0.56674
1328.78091	0.56647
1326.85234	0.56638
1324.92378	0.56655
1322.99521	0.56685
1321.06665	0.56716
1319.13809	0.56743
1317.20952	0.56742
1315.28096	0.56710
1313.35239	0.56665
1311.42383	0.56594
1309.49526	0.56491
1307.56670	0.56397
1305.63813	0.56340
1303.70957	0.56303
1301.78101	0.56257
1299.85244	0.56184
1297.92388	0.56090
1295.99531	0.55992
1294.06675	0.55897
1292.13818	0.55801
1290.20962	0.55711
1288.28105	0.55617
1286.35249	0.55503
1284.42393	0.55392
1282.49536	0.55308
1280.56680	0.55244
1278.63823	0.55158
1276.70967	0.55051
1274.78110	0.54960
1272.85254	0.54900
1270.92397	0.54855
1268.99541	0.54813
1267.06685	0.54768
1265.13828	0.54712
1263.20972	0.54641
1261.28115	0.54568
1259.35259	0.54496
1257.42402	0.54423
1255.49546	0.54373
1253.56689	0.54368
1251.63833	0.54386
1249.70977	0.54398
1247.78120	0.54397
1245.85264	0.54378
1243.92407	0.54324
1241.99551	0.54232
1240.06694	0.54117
1238.13838	0.53999
1236.20981	0.53875
1234.28125	0.53738
1232.35269	0.53589
1230.42412	0.53441
1228.49556	0.53303
1226.56699	0.53166
1224.63843	0.53024
1222.70986	0.52887
1220.78130	0.52768
1218.85273	0.52669
1216.92417	0.52583
1214.99561	0.52498
1213.06704	0.52404
1211.13848	0.52327
1209.20991	0.52269
1207.28135	0.52211
1205.35278	0.52147
1203.42422	0.52069
1201.49565	0.51990
1199.56709	0.51922
1197.63853	0.51857
1195.70996	0.51792
1193.78140	0.51733
1191.85283	0.51682
1189.92427	0.51643
1187.99570	0.51614
1186.06714	0.51587
1184.13857	0.51574
1182.21001	0.51588
1180.28145	0.51631
1178.35288	0.51705
1176.42432	0.51796
1174.49575	0.51885
1172.56719	0.51947
1170.63862	0.51965
1168.71006	0.51960
1166.78149	0.51964
1164.85293	0.51968
1162.92437	0.51964
1160.99580	0.51960
1159.06724	0.51941
1157.13867	0.51880
1155.21011	0.51777
1153.28154	0.51645
1151.35298	0.51488
1149.42441	0.51299
1147.49585	0.51071
1145.56729	0.50823
1143.63872	0.50589
1141.71016	0.50376
1139.78159	0.50171
1137.85303	0.49995
1135.92446	0.49864
1133.99590	0.49768
1132.06733	0.49686
1130.13877	0.49611
1128.21021	0.49533
1126.28164	0.49437
1124.35308	0.49338
1122.42451	0.49266
1120.49595	0.49234
1118.56738	0.49217
1116.63882	0.49215
1114.71025	0.49245
1112.78169	0.49279
1110.85312	0.49320
1108.92456	0.49410
1106.99600	0.49524
1105.06743	0.49621
1103.13887	0.49728
1101.21030	0.49873
1099.28174	0.50040
1097.35317	0.50239
1095.42461	0.50503
1093.49604	0.50847
1091.56748	0.51291
1089.63892	0.51839
1087.71035	0.52457
1085.78179	0.53123
1083.85322	0.53834
1081.92466	0.54530
1079.99609	0.55099
1078.06753	0.55436
1076.13896	0.55471
1074.21040	0.55198
1072.28184	0.54686
1070.35327	0.54047
1068.42471	0.53373
1066.49614	0.52705
1064.56758	0.52082
1062.63901	0.51537
1060.71045	0.51055
1058.78188	0.50618
1056.85332	0.50244
1054.92476	0.49942
1052.99619	0.49687
1051.06763	0.49464
1049.13906	0.49278
1047.21050	0.49120
1045.28193	0.48990
1043.35337	0.48907
1041.42480	0.48863
1039.49624	0.48830
1037.56768	0.48796
1035.63911	0.48763
1033.71055	0.48745
1031.78198	0.48723
1029.85342	0.48658
1027.92485	0.48564
1025.99629	0.48482
1024.06772	0.48442
1022.13916	0.48445
1020.21060	0.48485
1018.28203	0.48546
1016.35347	0.48604
1014.42490	0.48651
1012.49634	0.48700
1010.56777	0.48775
1008.63921	0.48877
1006.71064	0.48987
1004.78208	0.49117
1002.85352	0.49306
1000.92495	0.49568
998.99639	0.49880
997.06782	0.50226
995.13926	0.50622
993.21069	0.51040
991.28213	0.51406
989.35356	0.51661
987.42500	0.51794
985.49644	0.51858
983.56787	0.51912
981.63931	0.51984
979.71074	0.52093
977.78218	0.52237
975.85361	0.52442
973.92505	0.52728
971.99648	0.53044
970.06792	0.53350
968.13936	0.53682
966.21079	0.54076
964.28223	0.54521
962.35366	0.55009
960.42510	0.55529
958.49653	0.56037
956.56797	0.56570
954.63940	0.57191
952.71084	0.57852
950.78228	0.58479
948.85371	0.59064
946.92515	0.59646
944.99658	0.60268
943.06802	0.60932
941.13945	0.61588
939.21089	0.62190
937.28232	0.62744
935.35376	0.63276
933.42520	0.63819
931.49663	0.64371
929.56807	0.64904
927.63950	0.65450
925.71094	0.66014
923.78237	0.66556
921.85381	0.67150
919.92524	0.67820
917.99668	0.68492
916.06812	0.69162
914.13955	0.69856
912.21099	0.70611
910.28242	0.71422
908.35386	0.72222
906.42529	0.73017
904.49673	0.73824
902.56816	0.74676
900.63960	0.75655
898.71104	0.76674
896.78247	0.77594
894.85391	0.78492
892.92534	0.79467
890.99678	0.80493
889.06821	0.81617
887.13965	0.82829
885.21108	0.83990
883.28252	0.85098
881.35396	0.86218
879.42539	0.87340
877.49683	0.88421
875.56826	0.89453
873.63970	0.90530
871.71113	0.91738
869.78257	0.92982
867.85400	0.94086
865.92544	0.95080
863.99687	0.96085
862.06831	0.97150
860.13975	0.98312
858.21118	0.99586
856.28262	1.00842
854.35405	1.01898
852.42549	1.02827
850.49692	1.03858
848.56836	1.05040
846.63979	1.06298
844.71123	1.07562
842.78267	1.08671
840.85410	1.09571
838.92554	1.10478
836.99697	1.11582
835.06841	1.12799
833.13984	1.14040
831.21128	1.15203
829.28271	1.16267
827.35415	1.17531
825.42559	1.18737
823.49702	1.19544
821.56846	1.20195
819.63989	1.21124
817.71133	1.22684
815.78276	1.24215
813.85420	1.24761
811.92563	1.24494
809.99707	1.24132
808.06851	1.24097
806.13994	1.25009
804.21138	1.26678
802.28281	1.27943
800.35425	1.29524
798.42568	1.32561
796.49712	1.35302
794.56855	1.34880
792.63999	1.33228
790.71143	1.34252
788.78286	1.34793
786.85430	1.30739
784.92573	1.27034
782.99717	1.26950
781.06860	1.29345
779.14004	1.32636
777.21147	1.35327
775.28291	1.36323
773.35435	1.35121
771.42578	1.32001
769.49722	1.29439
767.56865	1.29115
765.64009	1.25470
763.71152	1.19640
761.78296	1.21316
759.85439	1.30136
757.92583	1.30602
755.99727	1.22727
754.06870	1.20078
752.14014	1.17688
750.21157	1.10716
748.28301	1.07190
746.35444	1.14278
744.42588	1.25669
742.49731	1.13122
740.56875	0.92093
738.64019	0.81251
736.71162	0.81052
734.78306	0.84340
732.85449	0.82719
730.92593	0.77300
728.99736	0.71763
727.06880	0.63140
725.14023	0.46069
723.21167	0.28408
721.28311	0.17974
719.35454	0.15167
717.42598	0.11436
715.49741	0.04531
713.56885	0.00205
711.64028	0.03877
709.71172	0.10704
707.78315	0.09333
705.85459	0.11725
703.92603	0.17179
701.99746	0.23264
700.06890	0.33651
698.14033	0.36077
696.21177	0.17932
694.28320	0.08405
692.35464	0.10178
690.42607	0.14177
688.49751	0.19991
686.56895	0.31689
684.64038	0.51557
682.71182	0.57777
680.78325	0.33164
678.85469	0.17988
676.92612	0.16525
674.99756	0.21093
673.06899	0.28977
671.14043	0.34855
669.21187	0.34112
667.28330	0.34692
665.35474	0.41283
663.42617	0.41128
661.49761	0.30663
659.56904	0.25508
657.64048	0.27543
655.71191	0.22753
653.78335	0.19853
651.85479	0.25725
649.92622	0.29696
647.99766	0.28336
646.06909	0.21989
644.14053	0.17207
642.21196	0.24025
640.28340	0.28710
638.35483	0.21422
636.42627	0.17838
634.49771	0.20449
632.56914	0.21079
630.64058	0.20404
628.71201	0.20056
626.78345	0.20438
624.85488	0.24246
622.92632	0.29382
620.99775	0.28659
619.06919	0.23928
617.14062	0.24327
615.21206	0.20400
613.28350	0.08135
611.35493	0.03007
609.42637	0.08073
607.49780	0.17988
605.56924	0.25019
603.64067	0.23964
601.71211	0.24592
599.78354	0.30042
597.85498	0.28454
595.92642	0.20383
593.99785	0.17471
592.06929	0.23972
590.14072	0.28671
588.21216	0.23640
586.28359	0.17834
584.35503	0.14861
582.42646	0.15527
580.49790	0.21672
578.56934	0.33087
576.64077	0.41312
574.71221	0.31300
572.78364	0.20379
570.85508	0.17056
568.92651	0.12614
566.99795	0.07984
565.06938	0.10882
563.14082	0.18927
561.21226	0.26729
559.28369	0.29318
557.35513	0.25501
555.42656	0.21997
553.49800	0.27623
551.56943	0.43140
549.64087	0.64280
547.71230	0.56888
545.78374	0.39611
543.85518	0.31135
541.92661	0.28421
539.99805	0.27236
538.06948	0.22064
536.14092	0.14989
534.21235	0.13616
532.28379	0.17774
530.35522	0.19126
528.42666	0.19205
526.49810	0.21222
524.56953	0.19388
522.64097	0.19402
520.71240	0.24974
518.78384	0.27120
516.85527	0.23840
514.92671	0.22910
512.99814	0.22252
511.06958	0.19306
509.14102	0.20841
507.21245	0.27923
505.28389	0.32594
503.35532	0.27867
501.42676	0.18407
499.49819	0.12989
