3997.91411	0.06699
3995.98555	0.06762
3994.05698	0.06793
3992.12842	0.06806
3990.19985	0.06808
3988.27129	0.06791
3986.34272	0.06777
3984.41416	0.06801
3982.48560	0.06855
3980.55703	0.06905
3978.62847	0.06951
3976.69990	0.07031
3974.77134	0.07117
3972.84277	0.07150
3970.91421	0.07141
3968.98564	0.07121
3967.05708	0.07094
3965.12852	0.07085
3963.19995	0.07138
3961.27139	0.07226
3959.34282	0.07255
3957.41426	0.07215
3955.48569	0.07180
3953.55713	0.07199
3951.62856	0.07298
3949.70000	0.07459
3947.77144	0.07578
3945.84287	0.07598
3943.91431	0.07623
3941.98574	0.07630
3940.05718	0.07476
3938.12861	0.07302
3936.20005	0.07264
3934.27148	0.07366
3932.34292	0.07579
3930.41436	0.07721
3928.48579	0.07636
3926.55723	0.07535
3924.62866	0.07598
3922.70010	0.07667
3920.77153	0.07625
3918.84297	0.07602
3916.91440	0.07618
3914.98584	0.07515
3913.05728	0.07300
3911.12871	0.07143
3909.20015	0.07108
3907.27158	0.07259
3905.34302	0.07698
3903.41445	0.08293
3901.48589	0.08620
3899.55732	0.08531
3897.62876	0.08157
3895.70020	0.07729
3893.77163	0.07586
3891.84307	0.07774
3889.91450	0.07863
3887.98594	0.07729
3886.05737	0.07818
3884.12881	0.08093
3882.20024	0.08221
3880.27168	0.08263
3878.34312	0.08116
3876.41455	0.07892
3874.48599	0.07986
3872.55742	0.08315
3870.62886	0.08606
3868.70029	0.08703
3866.77173	0.08557
3864.84316	0.08545
3862.91460	0.08643
3860.98604	0.08441
3859.05747	0.08160
3857.12891	0.08204
3855.20034	0.08678
3853.27178	0.09507
3851.34321	0.09718
3849.41465	0.08941
3847.48608	0.08299
3845.55752	0.08134
3843.62896	0.08403
3841.70039	0.08914
3839.77183	0.09468
3837.84326	0.09894
3835.91470	0.09879
3833.98613	0.09534
3832.05757	0.09247
3830.12900	0.09094
3828.20044	0.09070
3826.27187	0.09207
3824.34331	0.09431
3822.41475	0.09794
3820.48618	0.10315
3818.55762	0.10437
3816.62905	0.10228
3814.70049	0.09996
3812.77192	0.09634
3810.84336	0.09390
3808.91479	0.09512
3806.98623	0.09962
3805.05767	0.10365
3803.12910	0.10651
3801.20054	0.11099
3799.27197	0.11306
3797.34341	0.11146
3795.41484	0.10959
3793.48628	0.10679
3791.55771	0.10468
3789.62915	0.10492
3787.70059	0.10685
3785.77202	0.10995
3783.84346	0.11275
3781.91489	0.11411
3779.98633	0.11628
3778.05776	0.11891
3776.12920	0.11870
3774.20063	0.11796
3772.27207	0.11989
3770.34351	0.12443
3768.41494	0.12890
3766.48638	0.13106
3764.55781	0.13209
3762.62925	0.13297
3760.70068	0.13574
3758.77212	0.14092
3756.84355	0.14482
3754.91499	0.14736
3752.98643	0.15319
3751.05786	0.16381
3749.12930	0.17202
3747.20073	0.17244
3745.27217	0.17312
3743.34360	0.17634
3741.41504	0.17822
3739.48647	0.18057
3737.55791	0.18686
3735.62935	0.19815
3733.70078	0.20905
3731.77222	0.21161
3729.84365	0.21084
3727.91509	0.21301
3725.98652	0.21931
3724.05796	0.22698
3722.12939	0.23250
3720.20083	0.23589
3718.27227	0.23847
3716.34370	0.24193
3714.41514	0.24853
3712.48657	0.26172
3710.55801	0.28162
3708.62944	0.29743
3706.70088	0.30590
3704.77231	0.31475
3702.84375	0.32786
3700.91519	0.34540
3698.98662	0.36303
3697.05806	0.37910
3695.12949	0.39717
3693.20093	0.41843
3691.27236	0.44382
3689.34380	0.47517
3687.41523	0.50761
3685.48667	0.53271
3683.55811	0.55547
3681.62954	0.58293
3679.70098	0.61677
3677.77241	0.65471
3675.84385	0.69965
3673.91528	0.75455
3671.98672	0.79579
3670.05815	0.83375
3668.12959	0.88544
3666.20103	0.92957
3664.27246	0.96699
3662.34390	1.00999
3660.41533	1.05791
3658.48677	1.10589
3656.55820	1.15806
3654.62964	1.21587
3652.70107	1.26378
3650.77251	1.30810
3648.84395	1.37180
3646.91538	1.44328
3644.98682	1.48822
3643.05825	1.52231
3641.12969	1.56079
3639.20112	1.60562
3637.27256	1.65151
3635.34399	1.69678
3633.41543	1.74334
3631.48687	1.78832
3629.55830	1.83469
3627.62974	1.89204
3625.70117	1.93986
3623.77261	1.97064
3621.84404	2.00320
3619.91548	2.04282
3617.98691	2.08957
3616.05835	2.13274
3614.12979	2.16887
3612.20122	2.20699
3610.27266	2.24504
3608.34409	2.28520
3606.41553	2.32965
3604.48696	2.36938
3602.55840	2.40329
3600.62983	2.44077
3598.70127	2.48272
3596.77271	2.52409
3594.84414	2.56598
3592.91558	2.60743
3590.98701	2.64478
3589.05845	2.68071
3587.12988	2.72506
3585.20132	2.77174
3583.27275	2.80913
3581.34419	2.84500
3579.41562	2.88579
3577.48706	2.92942
3575.55850	2.97206
3573.62993	3.01383
3571.70137	3.05435
3569.77280	3.09520
3567.84424	3.14050
3565.91567	3.19516
3563.98711	3.24572
3562.05854	3.28471
3560.12998	3.32327
3558.20142	3.36533
3556.27285	3.41012
3554.34429	3.45538
3552.41572	3.50209
3550.48716	3.54887
3548.55859	3.59304
3546.63003	3.63750
3544.70146	3.68581
3542.77290	3.73325
3540.84434	3.77629
3538.91577	3.81964
3536.98721	3.86655
3535.05864	3.91795
3533.13008	3.96842
3531.20151	4.01583
3529.27295	4.06336
3527.34438	4.11209
3525.41582	4.16160
3523.48726	4.21234
3521.55869	4.26350
3519.63013	4.31077
3517.70156	4.35440
3515.77300	4.39670
3513.84443	4.44122
3511.91587	4.49056
3509.98730	4.54215
3508.05874	4.59216
3506.13018	4.64000
3504.20161	4.68866
3502.27305	4.74136
3500.34448	4.79481
3498.41592	4.84411
3496.48735	4.89006
3494.55879	4.93130
3492.63022	4.97341
3490.70166	5.02485
3488.77310	5.07962
3486.84453	5.12777
3484.91597	5.16974
3482.98740	5.21259
3481.05884	5.25877
3479.13027	5.30650
3477.20171	5.35987
3475.27314	5.41732
3473.34458	5.46569
3471.41602	5.50509
3469.48745	5.54805
3467.55889	5.59629
3465.63032	5.64378
3463.70176	5.69178
3461.77319	5.74654
3459.84463	5.80457
3457.91606	5.85433
3455.98750	5.89894
3454.05894	5.94406
3452.13037	5.99109
3450.20181	6.03799
3448.27324	6.07710
3446.34468	6.12046
3444.41611	6.17426
3442.48755	6.22919
3440.55898	6.28874
3438.63042	6.34750
3436.70186	6.37750
3434.77329	6.39731
3432.84473	6.44609
3430.91616	6.50522
3428.98760	6.56692
3427.05903	6.63750
3425.13047	6.69370
3423.20190	6.73163
3421.27334	6.77807
3419.34478	6.82934
3417.41621	6.87839
3415.48765	6.93025
3413.55908	6.97805
3411.63052	7.02422
3409.70195	7.05879
3407.77339	7.09942
3405.84482	7.14747
3403.91626	7.18037
3401.98770	7.21772
3400.05913	7.28049
3398.13057	7.35779
3396.20200	7.41228
3394.27344	7.42919
3392.34487	7.43788
3390.41631	7.47148
3388.48774	7.52799
3386.55918	7.59181
3384.63062	7.62578
3382.70205	7.64274
3380.77349	7.68380
3378.84492	7.74053
3376.91636	7.79242
3374.98779	7.81690
3373.05923	7.84565
3371.13066	7.88545
3369.20210	7.90593
3367.27354	7.88702
3365.34497	7.84982
3363.41641	7.83833
3361.48784	7.85404
3359.55928	7.87272
3357.63071	7.90042
3355.70215	7.95159
3353.77358	7.95171
3351.84502	7.89190
3349.91646	7.85467
3347.98789	7.89185
3346.05933	7.93863
3344.13076	7.90896
3342.20220	7.88632
3340.27363	7.96853
3338.34507	8.10559
3336.41650	8.11524
3334.48794	8.01631
3332.55937	8.01315
3330.63081	8.15457
3328.70225	8.27401
3326.77368	8.26345
3324.84512	8.21502
3322.91655	8.19749
3320.98799	8.19792
3319.05942	8.14793
3317.13086	8.11830
3315.20229	8.16971
3313.27373	8.19728
3311.34517	8.10841
3309.41660	8.03628
3307.48804	8.09652
3305.55947	8.17482
3303.63091	8.17994
3301.70234	8.12658
3299.77378	8.09753
3297.84521	8.12986
3295.91665	8.15546
3293.98809	8.20956
3292.05952	8.32609
3290.13096	8.30359
3288.20239	8.14591
3286.27383	8.11699
3284.34526	8.17051
3282.41670	8.18141
3280.48813	8.23086
3278.55957	8.29416
3276.63101	8.24669
3274.70244	8.17995
3272.77388	8.21070
3270.84531	8.34715
3268.91675	8.52975
3266.98818	8.58386
3265.05962	8.46757
3263.13105	8.31284
3261.20249	8.21565
3259.27393	8.18025
3257.34536	8.14145
3255.41680	8.07362
3253.48823	8.04488
3251.55967	8.06171
3249.63110	8.04442
3247.70254	8.02467
3245.77397	8.01911
3243.84541	7.98079
3241.91685	7.99585
3239.98828	8.10431
3238.05972	8.20665
3236.13115	8.31290
3234.20259	8.40216
3232.27402	8.36116
3230.34546	8.26070
3228.41689	8.15761
3226.48833	8.07878
3224.55977	8.07789
3222.63120	8.10489
3220.70264	8.10385
3218.77407	8.09254
3216.84551	8.05448
3214.91694	8.02052
3212.98838	7.99173
3211.05981	7.90184
3209.13125	7.80536
3207.20269	7.74593
3205.27412	7.71753
3203.34556	7.72978
3201.41699	7.75183
3199.48843	7.72472
3197.55986	7.66063
3195.63130	7.62843
3193.70273	7.59283
3191.77417	7.50747
3189.84561	7.46962
3187.91704	7.50462
3185.98848	7.48225
3184.05991	7.35828
3182.13135	7.23619
3180.20278	7.19135
3178.27422	7.18931
3176.34565	7.15017
3174.41709	7.06474
3172.48853	6.97930
3170.55996	6.92001
3168.63140	6.87796
3166.70283	6.84835
3164.77427	6.81570
3162.84570	6.74190
3160.91714	6.64539
3158.98857	6.56185
3157.06001	6.49319
3155.13145	6.43833
3153.20288	6.37845
3151.27432	6.30394
3149.34575	6.23601
3147.41719	6.17960
3145.48862	6.10759
3143.56006	6.01594
3141.63149	5.93399
3139.70293	5.86584
3137.77437	5.80265
3135.84580	5.73540
3133.91724	5.66395
3131.98867	5.60397
3130.06011	5.54752
3128.13154	5.47939
3126.20298	5.40341
3124.27441	5.32476
3122.34585	5.24679
3120.41729	5.17382
3118.48872	5.10593
3116.56016	5.04073
3114.63159	4.97527
3112.70303	4.90775
3110.77446	4.83932
3108.84590	4.77244
3106.91733	4.70845
3104.98877	4.64570
3103.06021	4.58152
3101.13164	4.51190
3099.20308	4.43748
3097.27451	4.36599
3095.34595	4.30137
3093.41738	4.23963
3091.48882	4.17612
3089.56025	4.11175
3087.63169	4.04912
3085.70312	3.98814
3083.77456	3.92757
3081.84600	3.86752
3079.91743	3.80859
3077.98887	3.75029
3076.06030	3.69137
3074.13174	3.63226
3072.20317	3.57410
3070.27461	3.51680
3068.34604	3.46141
3066.41748	3.40722
3064.48892	3.35185
3062.56035	3.29643
3060.63179	3.24292
3058.70322	3.18999
3056.77466	3.13592
3054.84609	3.08163
3052.91753	3.02921
3050.98896	2.97909
3049.06040	2.93009
3047.13184	2.88230
3045.20327	2.83545
3043.27471	2.78784
3041.34614	2.73969
3039.41758	2.69274
3037.48901	2.64720
3035.56045	2.60177
3033.63188	2.55709
3031.70332	2.51418
3029.77476	2.47161
3027.84619	2.42881
3025.91763	2.38655
3023.98906	2.34518
3022.06050	2.30462
3020.13193	2.26455
3018.20337	2.22493
3016.27480	2.18577
3014.34624	2.14723
3012.41768	2.10923
3010.48911	2.07182
3008.56055	2.03572
3006.63198	2.00072
3004.70342	1.96553
3002.77485	1.93006
3000.84629	1.89555
2998.91772	1.86268
2996.98916	1.83098
2995.06060	1.79960
2993.13203	1.76850
2991.20347	1.73822
2989.27490	1.70875
2987.34634	1.67956
2985.41777	1.65057
2983.48921	1.62199
2981.56064	1.59408
2979.63208	1.56704
2977.70352	1.54052
2975.77495	1.51426
2973.84639	1.48847
2971.91782	1.46322
2969.98926	1.43866
2968.06069	1.41491
2966.13213	1.39134
2964.20356	1.36737
2962.27500	1.34329
2960.34644	1.31950
2958.41787	1.29617
2956.48931	1.27305
2954.56074	1.25003
2952.63218	1.22771
2950.70361	1.20601
2948.77505	1.18456
2946.84648	1.16346
2944.91792	1.14270
2942.98936	1.12215
2941.06079	1.10205
2939.13223	1.08242
2937.20366	1.06311
2935.27510	1.04452
2933.34653	1.02673
2931.41797	1.00906
2929.48940	0.99097
2927.56084	0.97279
2925.63228	0.95532
2923.70371	0.93875
2921.77515	0.92217
2919.84658	0.90500
2917.91802	0.88793
2915.98945	0.87141
2914.06089	0.85519
2912.13232	0.83961
2910.20376	0.82482
2908.27520	0.81030
2906.34663	0.79596
2904.41807	0.78190
2902.48950	0.76827
2900.56094	0.75516
2898.63237	0.74219
2896.70381	0.72920
2894.77524	0.71649
2892.84668	0.70428
2890.91812	0.69256
2888.98955	0.68127
2887.06099	0.67036
2885.13242	0.65986
2883.20386	0.64974
2881.27529	0.63992
2879.34673	0.63027
2877.41816	0.62045
2875.48960	0.61058
2873.56104	0.60099
2871.63247	0.59125
2869.70391	0.58084
2867.77534	0.57022
2865.84678	0.55992
2863.91821	0.54977
2861.98965	0.53960
2860.06108	0.52966
2858.13252	0.52026
2856.20396	0.51124
2854.27539	0.50241
2852.34683	0.49386
2850.41826	0.48556
2848.48970	0.47731
2846.56113	0.46932
2844.63257	0.46180
2842.70400	0.45460
2840.77544	0.44763
2838.84687	0.44103
2836.91831	0.43514
2834.98975	0.42981
2833.06118	0.42425
2831.13262	0.41817
2829.20405	0.41209
2827.27549	0.40633
2825.34692	0.40049
2823.41836	0.39452
2821.48979	0.38884
2819.56123	0.38337
2817.63267	0.37787
2815.70410	0.37235
2813.77554	0.36677
2811.84697	0.36129
2809.91841	0.35597
2807.98984	0.35070
2806.06128	0.34560
2804.13271	0.34068
2802.20415	0.33584
2800.27559	0.33116
2798.34702	0.32655
2796.41846	0.32203
2794.48989	0.31766
2792.56133	0.31327
2790.63276	0.30880
2788.70420	0.30432
2786.77563	0.29995
2784.84707	0.29585
2782.91851	0.29195
2780.98994	0.28814
2779.06138	0.28438
2777.13281	0.28065
2775.20425	0.27698
2773.27568	0.27341
2771.34712	0.26990
2769.41855	0.26636
2767.48999	0.26283
2765.56143	0.25939
2763.63286	0.25604
2761.70430	0.25280
2759.77573	0.24960
2757.84717	0.24644
2755.91860	0.24352
2753.99004	0.24084
2752.06147	0.23815
2750.13291	0.23535
2748.20435	0.23244
2746.27578	0.22948
2744.34722	0.22669
2742.41865	0.22416
2740.49009	0.22175
2738.56152	0.21942
2736.63296	0.21714
2734.70439	0.21468
2732.77583	0.21218
2730.84727	0.20994
2728.91870	0.20784
2726.99014	0.20564
2725.06157	0.20345
2723.13301	0.20143
2721.20444	0.19943
2719.27588	0.19742
2717.34731	0.19557
2715.41875	0.19381
2713.49019	0.19208
2711.56162	0.19040
2709.63306	0.18873
2707.70449	0.18704
2705.77593	0.18540
2703.84736	0.18373
2701.91880	0.18206
2699.99023	0.18050
2698.06167	0.17905
2696.13311	0.17764
2694.20454	0.17633
2692.27598	0.17503
2690.34741	0.17368
2688.41885	0.17244
2686.49028	0.17122
2684.56172	0.16991
2682.63315	0.16872
2680.70459	0.16772
2678.77603	0.16680
2676.84746	0.16577
2674.91890	0.16463
2672.99033	0.16354
2671.06177	0.16257
2669.13320	0.16156
2667.20464	0.16048
2665.27607	0.15953
2663.34751	0.15885
2661.41895	0.15823
2659.49038	0.15746
2657.56182	0.15665
2655.63325	0.15590
2653.70469	0.15514
2651.77612	0.15442
2649.84756	0.15372
2647.91899	0.15300
2645.99043	0.15239
2644.06187	0.15191
2642.13330	0.15141
2640.20474	0.15086
2638.27617	0.15033
2636.34761	0.14989
2634.41904	0.14945
2632.49048	0.14901
2630.56191	0.14861
2628.63335	0.14821
2626.70479	0.14777
2624.77622	0.14747
2622.84766	0.14741
2620.91909	0.14733
2618.99053	0.14702
2617.06196	0.14664
2615.13340	0.14633
2613.20483	0.14609
2611.27627	0.14594
2609.34771	0.14590
2607.41914	0.14591
2605.49058	0.14585
2603.56201	0.14572
2601.63345	0.14565
2599.70488	0.14565
2597.77632	0.14568
2595.84775	0.14569
2593.91919	0.14572
2591.99062	0.14579
2590.06206	0.14592
2588.13350	0.14612
2586.20493	0.14637
2584.27637	0.14667
2582.34780	0.14697
2580.41924	0.14720
2578.49067	0.14740
2576.56211	0.14766
2574.63354	0.14797
2572.70498	0.14826
2570.77642	0.14863
2568.84785	0.14906
2566.91929	0.14933
2564.99072	0.14947
2563.06216	0.14983
2561.13359	0.15040
2559.20503	0.15101
2557.27646	0.15151
2555.34790	0.15186
2553.41934	0.15229
2551.49077	0.15289
2549.56221	0.15338
2547.63364	0.15372
2545.70508	0.15416
2543.77651	0.15476
2541.84795	0.15548
2539.91938	0.15629
2537.99082	0.15703
2536.06226	0.15762
2534.13369	0.15809
2532.20513	0.15861
2530.27656	0.15931
2528.34800	0.16016
2526.41943	0.16091
2524.49087	0.16148
2522.56230	0.16207
2520.63374	0.16281
2518.70518	0.16357
2516.77661	0.16429
2514.84805	0.16498
2512.91948	0.16567
2510.99092	0.16641
2509.06235	0.16725
2507.13379	0.16810
2505.20522	0.16892
2503.27666	0.16992
2501.34810	0.17102
2499.41953	0.17177
2497.49097	0.17226
2495.56240	0.17292
2493.63384	0.17376
2491.70527	0.17463
2489.77671	0.17555
2487.84814	0.17653
2485.91958	0.17746
2483.99102	0.17829
2482.06245	0.17898
2480.13389	0.17967
2478.20532	0.18054
2476.27676	0.18150
2474.34819	0.18248
2472.41963	0.18345
2470.49106	0.18435
2468.56250	0.18516
2466.63394	0.18603
2464.70537	0.18700
2462.77681	0.18791
2460.84824	0.18876
2458.91968	0.18960
2456.99111	0.19050
2455.06255	0.19159
2453.13398	0.19266
2451.20542	0.19349
2449.27686	0.19434
2447.34829	0.19545
2445.41973	0.19661
2443.49116	0.19751
2441.56260	0.19827
2439.63403	0.19915
2437.70547	0.20016
2435.77690	0.20120
2433.84834	0.20223
2431.91978	0.20323
2429.99121	0.20423
2428.06265	0.20522
2426.13408	0.20618
2424.20552	0.20716
2422.27695	0.20826
2420.34839	0.20952
2418.41982	0.21087
2416.49126	0.21208
2414.56270	0.21315
2412.63413	0.21430
2410.70557	0.21549
2408.77700	0.21659
2406.84844	0.21769
2404.91987	0.21886
2402.99131	0.22008
2401.06274	0.22129
2399.13418	0.22241
2397.20562	0.22352
2395.27705	0.22477
2393.34849	0.22616
2391.41992	0.22762
2389.49136	0.22930
2387.56279	0.23179
2385.63423	0.23586
2383.70566	0.24219
2381.77710	0.25105
2379.84854	0.26201
2377.91997	0.27447
2375.99141	0.28854
2374.06284	0.30485
2372.13428	0.32369
2370.20571	0.34404
2368.27715	0.36410
2366.34858	0.38323
2364.42002	0.40078
2362.49146	0.41431
2360.56289	0.42166
2358.63433	0.42250
2356.70576	0.41603
2354.77720	0.40117
2352.84863	0.38056
2350.92007	0.35960
2348.99150	0.34686
2347.06294	0.34788
2345.13437	0.36266
2343.20581	0.38155
2341.27725	0.39067
2339.34868	0.39059
2337.42012	0.38826
2335.49155	0.38643
2333.56299	0.38507
2331.63442	0.38464
2329.70586	0.38349
2327.77729	0.37992
2325.84873	0.37498
2323.92017	0.36990
2321.99160	0.36446
2320.06304	0.35788
2318.13447	0.35050
2316.20591	0.34416
2314.27734	0.34014
2312.34878	0.33789
2310.42021	0.33581
2308.49165	0.33275
2306.56309	0.32908
2304.63452	0.32582
2302.70596	0.32376
2300.77739	0.32270
2298.84883	0.32189
2296.92026	0.32117
2294.99170	0.32056
2293.06313	0.31996
2291.13457	0.31943
2289.20601	0.31906
2287.27744	0.31877
2285.34888	0.31874
2283.42031	0.31941
2281.49175	0.32103
2279.56318	0.32338
2277.63462	0.32589
2275.70605	0.32832
2273.77749	0.33072
2271.84893	0.33297
2269.92036	0.33493
2267.99180	0.33677
2266.06323	0.33875
2264.13467	0.34075
2262.20610	0.34251
2260.27754	0.34399
2258.34897	0.34552
2256.42041	0.34733
2254.49185	0.34921
2252.56328	0.35087
2250.63472	0.35249
2248.70615	0.35437
2246.77759	0.35640
2244.84902	0.35837
2242.92046	0.36025
2240.99189	0.36221
2239.06333	0.36433
2237.13477	0.36649
2235.20620	0.36859
2233.27764	0.37071
2231.34907	0.37290
2229.42051	0.37512
2227.49194	0.37736
2225.56338	0.37961
2223.63481	0.38170
2221.70625	0.38366
2219.77769	0.38570
2217.84912	0.38785
2215.92056	0.39014
2213.99199	0.39245
2212.06343	0.39458
2210.13486	0.39657
2208.20630	0.39860
2206.27773	0.40066
2204.34917	0.40275
2202.42061	0.40489
2200.49204	0.40695
2198.56348	0.40894
2196.63491	0.41090
2194.70635	0.41280
2192.77778	0.41463
2190.84922	0.41648
2188.92065	0.41831
2186.99209	0.42008
2185.06353	0.42190
2183.13496	0.42375
2181.20640	0.42547
2179.27783	0.42704
2177.34927	0.42862
2175.42070	0.43030
2173.49214	0.43204
2171.56357	0.43358
2169.63501	0.43487
2167.70645	0.43612
2165.77788	0.43734
2163.84932	0.43852
2161.92075	0.43967
2159.99219	0.44078
2158.06362	0.44180
2156.13506	0.44280
2154.20649	0.44387
2152.27793	0.44488
2150.34937	0.44567
2148.42080	0.44633
2146.49224	0.44691
2144.56367	0.44745
2142.63511	0.44799
2140.70654	0.44843
2138.77798	0.44876
2136.84941	0.44903
2134.92085	0.44930
2132.99229	0.44950
2131.06372	0.44947
2129.13516	0.44927
2127.20659	0.44902
2125.27803	0.44879
2123.34946	0.44856
2121.42090	0.44825
2119.49233	0.44775
2117.56377	0.44716
2115.63521	0.44667
2113.70664	0.44610
2111.77808	0.44526
2109.84951	0.44429
2107.92095	0.44333
2105.99238	0.44239
2104.06382	0.44142
2102.13525	0.44025
2100.20669	0.43899
2098.27812	0.43771
2096.34956	0.43637
2094.42100	0.43500
2092.49243	0.43367
2090.56387	0.43230
2088.63530	0.43079
2086.70674	0.42911
2084.77817	0.42721
2082.84961	0.42530
2080.92104	0.42343
2078.99248	0.42151
2077.06392	0.41952
2075.13535	0.41747
2073.20679	0.41536
2071.27822	0.41324
2069.34966	0.41110
2067.42109	0.40903
2065.49253	0.40703
2063.56396	0.40486
2061.63540	0.40249
2059.70684	0.40008
2057.77827	0.39768
2055.84971	0.39527
2053.92114	0.39288
2051.99258	0.39049
2050.06401	0.38802
2048.13545	0.38552
2046.20688	0.38298
2044.27832	0.38044
2042.34976	0.37794
2040.42119	0.37532
2038.49263	0.37246
2036.56406	0.36956
2034.63550	0.36677
2032.70693	0.36410
2030.77837	0.36146
2028.84980	0.35879
2026.92124	0.35617
2024.99268	0.35357
2023.06411	0.35094
2021.13555	0.34836
2019.20698	0.34594
2017.27842	0.34358
2015.34985	0.34078
2013.42129	0.33758
2011.49272	0.33455
2009.56416	0.33187
2007.63560	0.32924
2005.70703	0.32653
2003.77847	0.32390
2001.84990	0.32140
1999.92134	0.31896
1997.99277	0.31644
1996.06421	0.31393
1994.13564	0.31179
1992.20708	0.30982
1990.27852	0.30732
1988.34995	0.30443
1986.42139	0.30160
1984.49282	0.29894
1982.56426	0.29655
1980.63569	0.29428
1978.70713	0.29205
1976.77856	0.28991
1974.85000	0.28771
1972.92144	0.28539
1970.99287	0.28330
1969.06431	0.28170
1967.13574	0.28019
1965.20718	0.27806
1963.27861	0.27555
1961.35005	0.27332
1959.42148	0.27136
1957.49292	0.26958
1955.56436	0.26794
1953.63579	0.26622
1951.70723	0.26435
1949.77866	0.26261
1947.85010	0.26120
1945.92153	0.26013
1943.99297	0.25928
1942.06440	0.25805
1940.13584	0.25591
1938.20728	0.25370
1936.27871	0.25212
1934.35015	0.25094
1932.42158	0.24978
1930.49302	0.24847
1928.56445	0.24719
1926.63589	0.24620
1924.70732	0.24577
1922.77876	0.24549
1920.85020	0.24457
1918.92163	0.24356
1916.99307	0.24257
1915.06450	0.24104
1913.13594	0.23972
1911.20737	0.23928
1909.27881	0.23911
1907.35024	0.23836
1905.42168	0.23721
1903.49312	0.23622
1901.56455	0.23547
1899.63599	0.23493
1897.70742	0.23476
1895.77886	0.23483
1893.85029	0.23457
1891.92173	0.23412
1889.99316	0.23417
1888.06460	0.23395
1886.13604	0.23310
1884.20747	0.23246
1882.27891	0.23205
1880.35034	0.23171
1878.42178	0.23155
1876.49321	0.23156
1874.56465	0.23162
1872.63608	0.23210
1870.70752	0.23364
1868.77896	0.23580
1866.85039	0.23599
1864.92183	0.23426
1862.99326	0.23312
1861.06470	0.23311
1859.13613	0.23353
1857.20757	0.23378
1855.27900	0.23402
1853.35044	0.23440
1851.42187	0.23498
1849.49331	0.23593
1847.56475	0.23744
1845.63618	0.23938
1843.70762	0.24083
1841.77905	0.24057
1839.85049	0.23999
1837.92192	0.24055
1835.99336	0.24148
1834.06479	0.24233
1832.13623	0.24395
1830.20767	0.24673
1828.27910	0.24866
1826.35054	0.24912
1824.42197	0.24974
1822.49341	0.25015
1820.56484	0.25061
1818.63628	0.25176
1816.70771	0.25336
1814.77915	0.25504
1812.85059	0.25730
1810.92202	0.26004
1808.99346	0.26211
1807.06489	0.26343
1805.13633	0.26498
1803.20776	0.26759
1801.27920	0.27103
1799.35063	0.27431
1797.42207	0.27666
1795.49351	0.27910
1793.56494	0.28270
1791.63638	0.28683
1789.70781	0.28901
1787.77925	0.29019
1785.85068	0.29298
1783.92212	0.29688
1781.99355	0.30106
1780.06499	0.30544
1778.13643	0.30952
1776.20786	0.31360
1774.27930	0.31918
1772.35073	0.32685
1770.42217	0.33304
1768.49360	0.33654
1766.56504	0.34012
1764.63647	0.34479
1762.70791	0.35110
1760.77935	0.35911
1758.85078	0.36610
1756.92222	0.37311
1754.99365	0.38064
1753.06509	0.38788
1751.13652	0.39769
1749.20796	0.40983
1747.27939	0.42008
1745.35083	0.42822
1743.42227	0.43721
1741.49370	0.44762
1739.56514	0.46008
1737.63657	0.47237
1735.70801	0.48368
1733.77944	0.50138
1731.85088	0.52082
1729.92231	0.53460
1727.99375	0.54842
1726.06519	0.56393
1724.13662	0.58200
1722.20806	0.60216
1720.27949	0.62144
1718.35093	0.64530
1716.42236	0.67924
1714.49380	0.70806
1712.56523	0.73003
1710.63667	0.75252
1708.70811	0.77834
1706.77954	0.80885
1704.85098	0.84506
1702.92241	0.87656
1700.99385	0.90810
1699.06528	0.95555
1697.13672	0.99782
1695.20815	1.03931
1693.27959	1.07935
1691.35103	1.11276
1689.42246	1.15309
1687.49390	1.19635
1685.56533	1.23832
1683.63677	1.30211
1681.70820	1.36618
1679.77964	1.40608
1677.85107	1.44504
1675.92251	1.49138
1673.99395	1.54918
1672.06538	1.59992
1670.13682	1.64908
1668.20825	1.71207
1666.27969	1.76269
1664.35112	1.80660
1662.42256	1.86249
1660.49399	1.92552
1658.56543	1.97520
1656.63687	2.01671
1654.70830	2.05687
1652.77974	2.11844
1650.85117	2.17265
1648.92261	2.19166
1646.99404	2.21702
1645.06548	2.24452
1643.13691	2.26326
1641.20835	2.27541
1639.27979	2.28734
1637.35122	2.29735
1635.42266	2.30264
1633.49409	2.29594
1631.56553	2.27921
1629.63696	2.26063
1627.70840	2.23417
1625.77983	2.20411
1623.85127	2.16446
1621.92271	2.11379
1619.99414	2.06851
1618.06558	2.02601
1616.13701	1.96425
1614.20845	1.89786
1612.27988	1.84728
1610.35132	1.79663
1608.42275	1.74186
1606.49419	1.68654
1604.56562	1.63549
1602.63706	1.58690
1600.70850	1.53935
1598.77993	1.49539
1596.85137	1.45412
1594.92280	1.41376
1592.99424	1.37423
1591.06567	1.33803
1589.13711	1.30438
1587.20854	1.27268
1585.27998	1.24284
1583.35142	1.21502
1581.42285	1.19000
1579.49429	1.16928
1577.56572	1.15174
1575.63716	1.12930
1573.70859	1.10715
1571.78003	1.09293
1569.85146	1.07964
1567.92290	1.06376
1565.99434	1.05076
1564.06577	1.04102
1562.13721	1.03429
1560.20864	1.03211
1558.28008	1.02946
1556.35151	1.02100
1554.42295	1.01421
1552.49438	1.00901
1550.56582	1.00375
1548.63726	0.99720
1546.70869	0.99024
1544.78013	0.98328
1542.85156	0.97553
1540.92300	0.96364
1538.99443	0.93976
1537.06587	0.91924
1535.13730	0.90679
1533.20874	0.89208
1531.28018	0.87494
1529.35161	0.86248
1527.42305	0.85245
1525.49448	0.84244
1523.56592	0.83367
1521.63735	0.82515
1519.70879	0.81519
1517.78022	0.80618
1515.85166	0.79572
1513.92310	0.78443
1511.99453	0.77583
1510.06597	0.77012
1508.13740	0.76618
1506.20884	0.75579
1504.28027	0.74185
1502.35171	0.73376
1500.42314	0.72864
1498.49458	0.72466
1496.56602	0.71925
1494.63745	0.71217
1492.70889	0.70710
1490.78032	0.70450
1488.85176	0.70145
1486.92319	0.69602
1484.99463	0.69058
1483.06606	0.68702
1481.13750	0.68493
1479.20894	0.68340
1477.28037	0.68288
1475.35181	0.68383
1473.42324	0.68527
1471.49468	0.68392
1469.56611	0.67988
1467.63755	0.67681
1465.70898	0.67531
1463.78042	0.67383
1461.85186	0.67221
1459.92329	0.67231
1457.99473	0.67431
1456.06616	0.67344
1454.13760	0.66807
1452.20903	0.66339
1450.28047	0.65999
1448.35190	0.65731
1446.42334	0.65430
1444.49478	0.65104
1442.56621	0.64833
1440.63765	0.64617
1438.70908	0.64473
1436.78052	0.64328
1434.85195	0.64016
1432.92339	0.63685
1430.99482	0.63488
1429.06626	0.63342
1427.13770	0.63202
1425.20913	0.63163
1423.28057	0.63213
1421.35200	0.63265
1419.42344	0.63335
1417.49487	0.63290
1415.56631	0.63044
1413.63774	0.62818
1411.70918	0.62693
1409.78062	0.62639
1407.85205	0.62639
1405.92349	0.62708
1403.99492	0.62755
1402.06636	0.62717
1400.13779	0.62687
1398.20923	0.62636
1396.28066	0.62469
1394.35210	0.62149
1392.42354	0.61727
1390.49497	0.61377
1388.56641	0.61124
1386.63784	0.60823
1384.70928	0.60428
1382.78071	0.60052
1380.85215	0.59737
1378.92358	0.59488
1376.99502	0.59330
1375.06646	0.59257
1373.13789	0.59152
1371.20933	0.59000
1369.28076	0.58903
1367.35220	0.58825
1365.42363	0.58732
1363.49507	0.58665
1361.56650	0.58545
1359.63794	0.58334
1357.70937	0.58155
1355.78081	0.58038
1353.85225	0.57937
1351.92368	0.57841
1349.99512	0.57759
1348.06655	0.57675
1346.13799	0.57569
1344.20942	0.57464
1342.28086	0.57423
1340.35229	0.57453
1338.42373	0.57420
1336.49517	0.57274
1334.56660	0.57133
1332.63804	0.57056
1330.70947	0.57026
1328.78091	0.57021
1326.85234	0.57022
1324.92378	0.57029
1322.99521	0.57062
1321.06665	0.57118
1319.13809	0.57163
1317.20952	0.57157
1315.28096	0.57108
1313.35239	0.57046
1311.42383	0.56967
1309.49526	0.56875
1307.56670	0.56790
1305.63813	0.56720
1303.70957	0.56652
1301.78101	0.56570
1299.85244	0.56473
1297.92388	0.56382
1295.99531	0.56295
1294.06675	0.56200
1292.13818	0.56102
1290.20962	0.56009
1288.28105	0.55912
1286.35249	0.55806
1284.42393	0.55691
1282.49536	0.55577
1280.56680	0.55475
1278.63823	0.55382
1276.70967	0.55286
1274.78110	0.55195
1272.85254	0.55129
1270.92397	0.55086
1268.99541	0.55041
1267.06685	0.54982
1265.13828	0.54924
1263.20972	0.54871
1261.28115	0.54817
1259.35259	0.54752
1257.42402	0.54686
1255.49546	0.54656
1253.56689	0.54654
1251.63833	0.54645
1249.70977	0.54630
1247.78120	0.54607
1245.85264	0.54570
1243.92407	0.54530
1241.99551	0.54471
1240.06694	0.54374
1238.13838	0.54254
1236.20981	0.54120
1234.28125	0.53970
1232.35269	0.53822
1230.42412	0.53681
1228.49556	0.53541
1226.56699	0.53401
1224.63843	0.53272
1222.70986	0.53151
1220.78130	0.53023
1218.85273	0.52895
1216.92417	0.52780
1214.99561	0.52682
1213.06704	0.52598
1211.13848	0.52534
1209.20991	0.52482
1207.28135	0.52419
1205.35278	0.52349
1203.42422	0.52282
1201.49565	0.52225
1199.56709	0.52168
1197.63853	0.52097
1195.70996	0.52020
1193.78140	0.51957
1191.85283	0.51911
1189.92427	0.51870
1187.99570	0.51833
1186.06714	0.51813
1184.13857	0.51812
1182.21001	0.51838
1180.28145	0.51910
1178.35288	0.52015
1176.42432	0.52126
1174.49575	0.52242
1172.56719	0.52342
1170.63862	0.52404
1168.71006	0.52446
1166.78149	0.52484
1164.85293	0.52514
1162.92437	0.52549
1160.99580	0.52582
1159.06724	0.52580
1157.13867	0.52534
1155.21011	0.52460
1153.28154	0.52355
1151.35298	0.52203
1149.42441	0.51994
1147.49585	0.51735
1145.56729	0.51456
1143.63872	0.51180
1141.71016	0.50934
1139.78159	0.50736
1137.85303	0.50585
1135.92446	0.50470
1133.99590	0.50380
1132.06733	0.50304
1130.13877	0.50240
1128.21021	0.50189
1126.28164	0.50139
1124.35308	0.50074
1122.42451	0.50023
1120.49595	0.50011
1118.56738	0.50015
1116.63882	0.50013
1114.71025	0.50022
1112.78169	0.50054
1110.85312	0.50112
1108.92456	0.50199
1106.99600	0.50296
1105.06743	0.50382
1103.13887	0.50466
1101.21030	0.50585
1099.28174	0.50762
1097.35317	0.50980
1095.42461	0.51238
1093.49604	0.51573
1091.56748	0.52008
1089.63892	0.52575
1087.71035	0.53292
1085.78179	0.54092
1083.85322	0.54900
1081.92466	0.55641
1079.99609	0.56194
1078.06753	0.56475
1076.13896	0.56466
1074.21040	0.56172
1072.28184	0.55647
1070.35327	0.54982
1068.42471	0.54268
1066.49614	0.53600
1064.56758	0.53015
1062.63901	0.52476
1060.71045	0.51980
1058.78188	0.51551
1056.85332	0.51177
1054.92476	0.50843
1052.99619	0.50559
1051.06763	0.50325
1049.13906	0.50146
1047.21050	0.50036
1045.28193	0.49986
1043.35337	0.49968
1041.42480	0.49964
1039.49624	0.49955
1037.56768	0.49933
1035.63911	0.49913
1033.71055	0.49882
1031.78198	0.49809
1029.85342	0.49691
1027.92485	0.49551
1025.99629	0.49422
1024.06772	0.49345
1022.13916	0.49314
1020.21060	0.49298
1018.28203	0.49297
1016.35347	0.49316
1014.42490	0.49324
1012.49634	0.49309
1010.56777	0.49312
1008.63921	0.49354
1006.71064	0.49422
1004.78208	0.49527
1002.85352	0.49685
1000.92495	0.49909
998.99639	0.50218
997.06782	0.50613
995.13926	0.51059
993.21069	0.51480
991.28213	0.51819
989.35356	0.52050
987.42500	0.52158
985.49644	0.52169
983.56787	0.52155
981.63931	0.52183
979.71074	0.52283
977.78218	0.52449
975.85361	0.52654
973.92505	0.52887
971.99648	0.53159
970.06792	0.53477
968.13936	0.53828
966.21079	0.54215
964.28223	0.54640
962.35366	0.55101
960.42510	0.55592
958.49653	0.56101
956.56797	0.56627
954.63940	0.57210
952.71084	0.57864
950.78228	0.58527
948.85371	0.59146
946.92515	0.59751
944.99658	0.60366
943.06802	0.60982
941.13945	0.61601
939.21089	0.62207
937.28232	0.62790
935.35376	0.63342
933.42520	0.63841
931.49663	0.64353
929.56807	0.64952
927.63950	0.65571
925.71094	0.66153
923.78237	0.66748
921.85381	0.67377
919.92524	0.68010
917.99668	0.68665
916.06812	0.69369
914.13955	0.70104
912.21099	0.70842
910.28242	0.71603
908.35386	0.72420
906.42529	0.73237
904.49673	0.74054
902.56816	0.75015
900.63960	0.76103
898.71104	0.77121
896.78247	0.77992
894.85391	0.78785
892.92534	0.79678
890.99678	0.80672
889.06821	0.81615
887.13965	0.82568
885.21108	0.83595
883.28252	0.84759
881.35396	0.86118
879.42539	0.87480
877.49683	0.88650
875.56826	0.89700
873.63970	0.90789
871.71113	0.91892
869.78257	0.92891
867.85400	0.93887
865.92544	0.94992
863.99687	0.96079
862.06831	0.97132
860.13975	0.98280
858.21118	0.99545
856.28262	1.00858
854.35405	1.02077
852.42549	1.03162
850.49692	1.04225
848.56836	1.05388
846.63979	1.06682
844.71123	1.07982
842.78267	1.09170
840.85410	1.10238
838.92554	1.11188
836.99697	1.12112
835.06841	1.13183
833.13984	1.14488
831.21128	1.15880
829.28271	1.17117
827.35415	1.18002
825.42559	1.18623
823.49702	1.19409
821.56846	1.20297
819.63989	1.21435
817.71133	1.23499
815.78276	1.26023
813.85420	1.27280
811.92563	1.27191
809.99707	1.27886
808.06851	1.29242
806.13994	1.29880
804.21138	1.30760
802.28281	1.32333
800.35425	1.33143
798.42568	1.33147
796.49712	1.33021
794.56855	1.31912
792.63999	1.31309
790.71143	1.32847
788.78286	1.34426
786.85430	1.37672
784.92573	1.48554
782.99717	1.62954
781.06860	1.59233
779.14004	1.45329
777.21147	1.35638
775.28291	1.30392
773.35435	1.31321
771.42578	1.40307
769.49722	1.53041
767.56865	1.57198
765.64009	1.50276
763.71152	1.46567
761.78296	1.45031
759.85439	1.44483
757.92583	1.53567
755.99727	1.66218
754.06870	1.53120
752.14014	1.30697
750.21157	1.21536
748.28301	1.20692
746.35444	1.16745
744.42588	1.12136
742.49731	1.10880
740.56875	1.09166
738.64019	1.06820
736.71162	1.20948
734.78306	4.40870
732.85449	4.39713
730.92593	4.38556
728.99736	1.27436
727.06880	0.95974
725.14023	0.93915
723.21167	0.69846
721.28311	0.43785
719.35454	0.26325
717.42598	0.17508
715.49741	0.23248
713.56885	0.33157
711.64028	0.29189
709.71172	0.12226
707.78315	-0.03354
705.85459	0.03541
703.92603	0.23454
701.99746	0.30252
700.06890	0.36841
698.14033	0.53950
696.21177	0.71478
694.28320	0.59242
692.35464	0.43649
690.42607	0.38247
688.49751	0.41511
686.56895	0.50323
684.64038	0.57394
682.71182	0.59086
680.78325	0.55501
678.85469	0.45345
676.92612	0.44439
674.99756	0.54111
673.06899	0.51621
671.14043	0.35823
669.21187	0.22979
667.28330	0.16169
665.35474	0.19548
663.42617	0.36815
661.49761	0.68664
659.56904	3.95741
657.64048	3.94584
655.71191	1.06885
653.78335	0.70138
651.85479	0.51500
649.92622	0.41064
647.99766	0.35835
646.06909	0.32028
644.14053	0.27724
642.21196	0.32171
640.28340	0.47517
638.35483	0.62178
636.42627	0.68886
634.49771	0.67423
632.56914	0.50560
630.64058	0.38765
628.71201	0.39426
626.78345	0.41607
624.85488	0.42163
622.92632	0.47412
620.99775	0.54248
619.06919	0.44469
617.14062	0.28764
615.21206	0.24185
613.28350	0.31366
611.35493	0.44232
609.42637	0.49761
607.49780	0.50369
605.56924	0.50030
603.64067	0.38980
601.71211	0.33467
599.78354	0.36524
597.85498	0.44240
595.92642	0.55487
593.99785	0.45322
592.06929	0.30871
590.14072	0.29660
588.21216	0.35739
586.28359	0.37970
584.35503	0.37967
582.42646	0.39897
580.49790	0.40726
578.56934	0.39843
576.64077	0.39842
574.71221	0.45036
572.78364	0.45882
570.85508	0.29864
568.92651	0.20415
566.99795	0.24629
565.06938	0.29391
563.14082	0.26346
561.21226	0.25638
559.28369	0.25823
557.35513	0.24903
555.42656	0.24513
553.49800	0.22735
551.56943	0.20691
549.64087	0.21763
547.71230	0.27840
545.78374	0.32407
543.85518	0.26379
541.92661	0.21342
539.99805	0.20832
538.06948	0.24956
536.14092	0.28779
534.21235	0.25957
532.28379	0.22193
530.35522	0.24496
528.42666	0.28515
526.49810	0.25376
524.56953	0.25241
522.64097	0.33075
520.71240	0.40208
518.78384	0.39900
516.85527	0.33982
514.92671	0.30258
512.99814	0.29282
511.06958	0.26241
509.14102	0.23871
507.21245	0.27034
505.28389	0.27016
503.35532	0.23964
501.42676	0.24779
499.49819	0.25323
