3997.91411	0.07137
3995.98555	0.07152
3994.05698	0.07194
3992.12842	0.07268
3990.19985	0.07344
3988.27129	0.07364
3986.34272	0.07328
3984.41416	0.07306
3982.48560	0.07331
3980.55703	0.07374
3978.62847	0.07408
3976.69990	0.07436
3974.77134	0.07441
3972.84277	0.07427
3970.91421	0.07444
3968.98564	0.07486
3967.05708	0.07520
3965.12852	0.07550
3963.19995	0.07561
3961.27139	0.07549
3959.34282	0.07553
3957.41426	0.07568
3955.48569	0.07550
3953.55713	0.07522
3951.62856	0.07526
3949.70000	0.07523
3947.77144	0.07499
3945.84287	0.07525
3943.91431	0.07586
3941.98574	0.07610
3940.05718	0.07586
3938.12861	0.07565
3936.20005	0.07563
3934.27148	0.07571
3932.34292	0.07609
3930.41436	0.07648
3928.48579	0.07613
3926.55723	0.07558
3924.62866	0.07565
3922.70010	0.07606
3920.77153	0.07627
3918.84297	0.07625
3916.91440	0.07617
3914.98584	0.07586
3913.05728	0.07513
3911.12871	0.07457
3909.20015	0.07459
3907.27158	0.07504
3905.34302	0.07592
3903.41445	0.07717
3901.48589	0.07789
3899.55732	0.07750
3897.62876	0.07641
3895.70020	0.07535
3893.77163	0.07526
3891.84307	0.07642
3889.91450	0.07742
3887.98594	0.07688
3886.05737	0.07625
3884.12881	0.07650
3882.20024	0.07669
3880.27168	0.07663
3878.34312	0.07654
3876.41455	0.07634
3874.48599	0.07672
3872.55742	0.07767
3870.62886	0.07842
3868.70029	0.07904
3866.77173	0.07939
3864.84316	0.07962
3862.91460	0.07980
3860.98604	0.07936
3859.05747	0.07889
3857.12891	0.07888
3855.20034	0.07955
3853.27178	0.08157
3851.34321	0.08332
3849.41465	0.08253
3847.48608	0.08146
3845.55752	0.08130
3843.62896	0.08231
3841.70039	0.08408
3839.77183	0.08566
3837.84326	0.08663
3835.91470	0.08685
3833.98613	0.08680
3832.05757	0.08695
3830.12900	0.08722
3828.20044	0.08751
3826.27187	0.08827
3824.34331	0.08945
3822.41475	0.09070
3820.48618	0.09246
3818.55762	0.09365
3816.62905	0.09389
3814.70049	0.09440
3812.77192	0.09469
3810.84336	0.09494
3808.91479	0.09598
3806.98623	0.09774
3805.05767	0.09918
3803.12910	0.10009
3801.20054	0.10179
3799.27197	0.10375
3797.34341	0.10453
3795.41484	0.10501
3793.48628	0.10558
3791.55771	0.10627
3789.62915	0.10724
3787.70059	0.10838
3785.77202	0.10974
3783.84346	0.11112
3781.91489	0.11241
3779.98633	0.11438
3778.05776	0.11687
3776.12920	0.11846
3774.20063	0.11941
3772.27207	0.12091
3770.34351	0.12332
3768.41494	0.12602
3766.48638	0.12802
3764.55781	0.12969
3762.62925	0.13134
3760.70068	0.13333
3758.77212	0.13625
3756.84355	0.13909
3754.91499	0.14107
3752.98643	0.14356
3751.05786	0.14775
3749.12930	0.15221
3747.20073	0.15432
3745.27217	0.15613
3743.34360	0.15970
3741.41504	0.16305
3739.48647	0.16526
3737.55791	0.16806
3735.62935	0.17277
3733.70078	0.17889
3731.77222	0.18346
3729.84365	0.18621
3727.91509	0.18916
3725.98652	0.19410
3724.05796	0.20101
3722.12939	0.20844
3720.20083	0.21601
3718.27227	0.22365
3716.34370	0.23153
3714.41514	0.23952
3712.48657	0.24869
3710.55801	0.26161
3708.62944	0.27606
3706.70088	0.28796
3704.77231	0.29896
3702.84375	0.31194
3700.91519	0.32906
3698.98662	0.34782
3697.05806	0.36562
3695.12949	0.38459
3693.20093	0.40464
3691.27236	0.42635
3689.34380	0.45458
3687.41523	0.48925
3685.48667	0.51994
3683.55811	0.54676
3681.62954	0.57541
3679.70098	0.60730
3677.77241	0.64049
3675.84385	0.67939
3673.91528	0.73245
3671.98672	0.77695
3670.05815	0.81682
3668.12959	0.87140
3666.20103	0.92082
3664.27246	0.96152
3662.34390	1.00515
3660.41533	1.05248
3658.48677	1.09906
3656.55820	1.14854
3654.62964	1.20461
3652.70107	1.25231
3650.77251	1.29320
3648.84395	1.34953
3646.91538	1.41950
3644.98682	1.47048
3643.05825	1.50925
3641.12969	1.54938
3639.20112	1.59446
3637.27256	1.63985
3635.34399	1.68294
3633.41543	1.72553
3631.48687	1.76581
3629.55830	1.80688
3627.62974	1.86175
3625.70117	1.91404
3623.77261	1.94868
3621.84404	1.98099
3619.91548	2.01873
3617.98691	2.06597
3616.05835	2.11133
3614.12979	2.14766
3612.20122	2.18592
3610.27266	2.22621
3608.34409	2.26766
3606.41553	2.31174
3604.48696	2.35247
3602.55840	2.38780
3600.62983	2.42511
3598.70127	2.46540
3596.77271	2.50381
3594.84414	2.54251
3592.91558	2.58429
3590.98701	2.62478
3589.05845	2.66153
3587.12988	2.70522
3585.20132	2.75485
3583.27275	2.79703
3581.34419	2.83599
3579.41562	2.87764
3577.48706	2.92070
3575.55850	2.96304
3573.62993	3.00563
3571.70137	3.04664
3569.77280	3.08517
3567.84424	3.12530
3565.91567	3.17563
3563.98711	3.22800
3562.05854	3.27288
3560.12998	3.31611
3558.20142	3.35954
3556.27285	3.40363
3554.34429	3.44832
3552.41572	3.49538
3550.48716	3.54431
3548.55859	3.59090
3546.63003	3.63464
3544.70146	3.68089
3542.77290	3.73024
3540.84434	3.77746
3538.91577	3.82068
3536.98721	3.86350
3535.05864	3.91273
3533.13008	3.96438
3531.20151	4.01315
3529.27295	4.06115
3527.34438	4.11130
3525.41582	4.16113
3523.48726	4.20765
3521.55869	4.25185
3519.63013	4.29478
3517.70156	4.34269
3515.77300	4.39602
3513.84443	4.44710
3511.91587	4.49272
3509.98730	4.53591
3508.05874	4.58050
3506.13018	4.62859
3504.20161	4.67875
3502.27305	4.72647
3500.34448	4.77237
3498.41592	4.81866
3496.48735	4.86199
3494.55879	4.90691
3492.63022	4.96185
3490.70166	5.02060
3488.77310	5.07556
3486.84453	5.12452
3484.91597	5.16765
3482.98740	5.21567
3481.05884	5.27430
3479.13027	5.32799
3477.20171	5.36957
3475.27314	5.41287
3473.34458	5.46253
3471.41602	5.50575
3469.48745	5.54162
3467.55889	5.58813
3465.63032	5.64616
3463.70176	5.70354
3461.77319	5.75706
3459.84463	5.81047
3457.91606	5.86094
3455.98750	5.89650
3454.05894	5.91976
3452.13037	5.95281
3450.20181	6.00343
3448.27324	6.06122
3446.34468	6.12817
3444.41611	6.20070
3442.48755	6.26222
3440.55898	6.30680
3438.63042	6.34957
3436.70186	6.38777
3434.77329	6.40705
3432.84473	6.42858
3430.91616	6.47351
3428.98760	6.54572
3427.05903	6.62241
3425.13047	6.67721
3423.20190	6.71427
3421.27334	6.75324
3419.34478	6.79863
3417.41621	6.85542
3415.48765	6.93640
3413.55908	7.01096
3411.63052	7.03933
3409.70195	7.03765
3407.77339	7.04746
3405.84482	7.07441
3403.91626	7.11652
3401.98770	7.17320
3400.05913	7.25151
3398.13057	7.32994
3396.20200	7.35644
3394.27344	7.34628
3392.34487	7.34965
3390.41631	7.39220
3388.48774	7.43866
3386.55918	7.46166
3384.63062	7.45365
3382.70205	7.44094
3380.77349	7.47260
3378.84492	7.54057
3376.91636	7.60760
3374.98779	7.66232
3373.05923	7.72798
3371.13066	7.74619
3369.20210	7.71711
3367.27354	7.71874
3365.34497	7.76217
3363.41641	7.82673
3361.48784	7.88685
3359.55928	7.93819
3357.63071	7.97666
3355.70215	7.98223
3353.77358	7.90409
3351.84502	7.79276
3349.91646	7.75487
3347.98789	7.82910
3346.05933	7.93043
3344.13076	7.93765
3342.20220	7.90304
3340.27363	7.93213
3338.34507	8.00683
3336.41650	8.00343
3334.48794	7.98066
3332.55937	8.05626
3330.63081	8.13842
3328.70225	8.08622
3326.77368	7.97698
3324.84512	7.94883
3322.91655	7.98997
3320.98799	8.06405
3319.05942	8.14912
3317.13086	8.19564
3315.20229	8.15131
3313.27373	8.08739
3311.34517	8.08513
3309.41660	8.10799
3307.48804	8.09865
3305.55947	8.05264
3303.63091	8.02394
3301.70234	8.03540
3299.77378	8.06323
3297.84521	8.06181
3295.91665	8.05810
3293.98809	8.08300
3292.05952	8.12433
3290.13096	8.11953
3288.20239	8.00526
3286.27383	7.94564
3284.34526	8.05228
3282.41670	8.16363
3280.48813	8.12113
3278.55957	8.04712
3276.63101	8.03989
3274.70244	8.06260
3272.77388	8.06794
3270.84531	8.05213
3268.91675	8.01789
3266.98818	7.95728
3265.05962	7.95882
3263.13105	8.03981
3261.20249	8.09581
3259.27393	8.14301
3257.34536	8.24339
3255.41680	8.30034
3253.48823	8.21783
3251.55967	8.05896
3249.63110	7.96646
3247.70254	8.00118
3245.77397	8.05399
3243.84541	8.05638
3241.91685	8.05174
3239.98828	8.05470
3238.05972	8.10466
3236.13115	8.24711
3234.20259	8.36286
3232.27402	8.30836
3230.34546	8.19084
3228.41689	8.11729
3226.48833	8.07819
3224.55977	8.05028
3222.63120	8.01583
3220.70264	7.94716
3218.77407	7.86916
3216.84551	7.80767
3214.91694	7.76206
3212.98838	7.74113
3211.05981	7.71432
3209.13125	7.69019
3207.20269	7.70466
3205.27412	7.73341
3203.34556	7.74781
3201.41699	7.71180
3199.48843	7.61540
3197.55986	7.55101
3195.63130	7.56159
3193.70273	7.58798
3191.77417	7.58702
3189.84561	7.52026
3187.91704	7.41947
3185.98848	7.37933
3184.05991	7.36500
3182.13135	7.31998
3180.20278	7.25926
3178.27422	7.16767
3176.34565	7.09044
3174.41709	7.07199
3172.48853	7.05236
3170.55996	6.98364
3168.63140	6.89409
3166.70283	6.81470
3164.77427	6.74364
3162.84570	6.68324
3160.91714	6.63152
3158.98857	6.57615
3157.06001	6.51236
3155.13145	6.44493
3153.20288	6.38096
3151.27432	6.31762
3149.34575	6.25151
3147.41719	6.18074
3145.48862	6.10627
3143.56006	6.03438
3141.63149	5.96012
3139.70293	5.87854
3137.77437	5.80082
3135.84580	5.73131
3133.91724	5.66526
3131.98867	5.60033
3130.06011	5.53659
3128.13154	5.47027
3126.20298	5.39932
3124.27441	5.33223
3122.34585	5.26867
3120.41729	5.20226
3118.48872	5.12692
3116.56016	5.04475
3114.63159	4.97035
3112.70303	4.90482
3110.77446	4.84253
3108.84590	4.77994
3106.91733	4.71210
3104.98877	4.64233
3103.06021	4.57472
3101.13164	4.50939
3099.20308	4.44593
3097.27451	4.38225
3095.34595	4.31863
3093.41738	4.25482
3091.48882	4.19046
3089.56025	4.12777
3087.63169	4.06451
3085.70312	3.99978
3083.77456	3.93850
3081.84600	3.88108
3079.91743	3.82299
3077.98887	3.76355
3076.06030	3.70531
3074.13174	3.64839
3072.20317	3.59204
3070.27461	3.53636
3068.34604	3.48151
3066.41748	3.42780
3064.48892	3.37435
3062.56035	3.32030
3060.63179	3.26628
3058.70322	3.21311
3056.77466	3.16009
3054.84609	3.10622
3052.91753	3.05410
3050.98896	3.00569
3049.06040	2.95767
3047.13184	2.90879
3045.20327	2.86135
3043.27471	2.81438
3041.34614	2.76650
3039.41758	2.71948
3037.48901	2.67380
3035.56045	2.62850
3033.63188	2.58375
3031.70332	2.53932
3029.77476	2.49515
3027.84619	2.45235
3025.91763	2.41038
3023.98906	2.36818
3022.06050	2.32684
3020.13193	2.28692
3018.20337	2.24733
3016.27480	2.20785
3014.34624	2.16944
3012.41768	2.13207
3010.48911	2.09496
3008.56055	2.05847
3006.63198	2.02353
3004.70342	1.98938
3002.77485	1.95466
3000.84629	1.92002
2998.91772	1.88665
2996.98916	1.85474
2995.06060	1.82352
2993.13203	1.79236
2991.20347	1.76184
2989.27490	1.73257
2987.34634	1.70414
2985.41777	1.67607
2983.48921	1.64868
2981.56064	1.62193
2979.63208	1.59517
2977.70352	1.56857
2975.77495	1.54286
2973.84639	1.51831
2971.91782	1.49428
2969.98926	1.47029
2968.06069	1.44639
2966.13213	1.42247
2964.20356	1.39896
2962.27500	1.37611
2960.34644	1.35323
2958.41787	1.32983
2956.48931	1.30638
2954.56074	1.28356
2952.63218	1.26116
2950.70361	1.23882
2948.77505	1.21675
2946.84648	1.19514
2944.91792	1.17440
2942.98936	1.15449
2941.06079	1.13512
2939.13223	1.11605
2937.20366	1.09684
2935.27510	1.07732
2933.34653	1.05796
2931.41797	1.03935
2929.48940	1.02098
2927.56084	1.00244
2925.63228	0.98444
2923.70371	0.96703
2921.77515	0.94980
2919.84658	0.93301
2917.91802	0.91664
2915.98945	0.90020
2914.06089	0.88359
2912.13232	0.86720
2910.20376	0.85148
2908.27520	0.83637
2906.34663	0.82182
2904.41807	0.80793
2902.48950	0.79448
2900.56094	0.78117
2898.63237	0.76805
2896.70381	0.75522
2894.77524	0.74261
2892.84668	0.73038
2890.91812	0.71874
2888.98955	0.70743
2887.06099	0.69631
2885.13242	0.68564
2883.20386	0.67543
2881.27529	0.66562
2879.34673	0.65611
2877.41816	0.64656
2875.48960	0.63675
2873.56104	0.62669
2871.63247	0.61657
2869.70391	0.60631
2867.77534	0.59552
2865.84678	0.58428
2863.91821	0.57322
2861.98965	0.56260
2860.06108	0.55231
2858.13252	0.54242
2856.20396	0.53287
2854.27539	0.52356
2852.34683	0.51461
2850.41826	0.50610
2848.48970	0.49774
2846.56113	0.48918
2844.63257	0.48084
2842.70400	0.47349
2840.77544	0.46707
2838.84687	0.46090
2836.91831	0.45471
2834.98975	0.44868
2833.06118	0.44277
2831.13262	0.43674
2829.20405	0.43065
2827.27549	0.42472
2825.34692	0.41876
2823.41836	0.41264
2821.48979	0.40651
2819.56123	0.40062
2817.63267	0.39494
2815.70410	0.38937
2813.77554	0.38388
2811.84697	0.37843
2809.91841	0.37299
2807.98984	0.36754
2806.06128	0.36220
2804.13271	0.35712
2802.20415	0.35221
2800.27559	0.34728
2798.34702	0.34233
2796.41846	0.33746
2794.48989	0.33270
2792.56133	0.32812
2790.63276	0.32391
2788.70420	0.31983
2786.77563	0.31555
2784.84707	0.31119
2782.91851	0.30697
2780.98994	0.30288
2779.06138	0.29890
2777.13281	0.29500
2775.20425	0.29120
2773.27568	0.28744
2771.34712	0.28365
2769.41855	0.27996
2767.48999	0.27643
2765.56143	0.27301
2763.63286	0.26966
2761.70430	0.26638
2759.77573	0.26309
2757.84717	0.25971
2755.91860	0.25641
2753.99004	0.25330
2752.06147	0.25035
2750.13291	0.24757
2748.20435	0.24489
2746.27578	0.24213
2744.34722	0.23931
2742.41865	0.23654
2740.49009	0.23385
2738.56152	0.23120
2736.63296	0.22857
2734.70439	0.22608
2732.77583	0.22376
2730.84727	0.22147
2728.91870	0.21913
2726.99014	0.21681
2725.06157	0.21456
2723.13301	0.21237
2721.20444	0.21028
2719.27588	0.20825
2717.34731	0.20633
2715.41875	0.20452
2713.49019	0.20269
2711.56162	0.20086
2709.63306	0.19913
2707.70449	0.19748
2705.77593	0.19583
2703.84736	0.19416
2701.91880	0.19257
2699.99023	0.19107
2698.06167	0.18962
2696.13311	0.18819
2694.20454	0.18680
2692.27598	0.18552
2690.34741	0.18426
2688.41885	0.18283
2686.49028	0.18135
2684.56172	0.18006
2682.63315	0.17890
2680.70459	0.17770
2678.77603	0.17659
2676.84746	0.17563
2674.91890	0.17454
2672.99033	0.17326
2671.06177	0.17208
2669.13320	0.17103
2667.20464	0.16991
2665.27607	0.16882
2663.34751	0.16794
2661.41895	0.16714
2659.49038	0.16631
2657.56182	0.16550
2655.63325	0.16471
2653.70469	0.16392
2651.77612	0.16324
2649.84756	0.16263
2647.91899	0.16193
2645.99043	0.16108
2644.06187	0.16027
2642.13330	0.15969
2640.20474	0.15922
2638.27617	0.15869
2636.34761	0.15816
2634.41904	0.15772
2632.49048	0.15722
2630.56191	0.15664
2628.63335	0.15618
2626.70479	0.15594
2624.77622	0.15573
2622.84766	0.15537
2620.91909	0.15496
2618.99053	0.15457
2617.06196	0.15429
2615.13340	0.15410
2613.20483	0.15383
2611.27627	0.15354
2609.34771	0.15332
2607.41914	0.15314
2605.49058	0.15299
2603.56201	0.15292
2601.63345	0.15294
2599.70488	0.15298
2597.77632	0.15297
2595.84775	0.15293
2593.91919	0.15295
2591.99062	0.15307
2590.06206	0.15319
2588.13350	0.15324
2586.20493	0.15321
2584.27637	0.15331
2582.34780	0.15364
2580.41924	0.15395
2578.49067	0.15415
2576.56211	0.15437
2574.63354	0.15457
2572.70498	0.15480
2570.77642	0.15512
2568.84785	0.15547
2566.91929	0.15583
2564.99072	0.15613
2563.06216	0.15641
2561.13359	0.15682
2559.20503	0.15737
2557.27646	0.15785
2555.34790	0.15817
2553.41934	0.15846
2551.49077	0.15889
2549.56221	0.15948
2547.63364	0.16011
2545.70508	0.16074
2543.77651	0.16130
2541.84795	0.16175
2539.91938	0.16222
2537.99082	0.16281
2536.06226	0.16344
2534.13369	0.16410
2532.20513	0.16478
2530.27656	0.16533
2528.34800	0.16581
2526.41943	0.16647
2524.49087	0.16721
2522.56230	0.16785
2520.63374	0.16854
2518.70518	0.16940
2516.77661	0.17025
2514.84805	0.17093
2512.91948	0.17152
2510.99092	0.17208
2509.06235	0.17278
2507.13379	0.17369
2505.20522	0.17466
2503.27666	0.17549
2501.34810	0.17616
2499.41953	0.17677
2497.49097	0.17748
2495.56240	0.17829
2493.63384	0.17908
2491.70527	0.17992
2489.77671	0.18079
2487.84814	0.18158
2485.91958	0.18231
2483.99102	0.18309
2482.06245	0.18395
2480.13389	0.18479
2478.20532	0.18563
2476.27676	0.18647
2474.34819	0.18728
2472.41963	0.18813
2470.49106	0.18898
2468.56250	0.18977
2466.63394	0.19055
2464.70537	0.19140
2462.77681	0.19235
2460.84824	0.19337
2458.91968	0.19435
2456.99111	0.19526
2455.06255	0.19606
2453.13398	0.19682
2451.20542	0.19767
2449.27686	0.19863
2447.34829	0.19963
2445.41973	0.20054
2443.49116	0.20144
2441.56260	0.20247
2439.63403	0.20362
2437.70547	0.20466
2435.77690	0.20553
2433.84834	0.20641
2431.91978	0.20731
2429.99121	0.20825
2428.06265	0.20936
2426.13408	0.21054
2424.20552	0.21161
2422.27695	0.21269
2420.34839	0.21376
2418.41982	0.21476
2416.49126	0.21578
2414.56270	0.21691
2412.63413	0.21808
2410.70557	0.21920
2408.77700	0.22034
2406.84844	0.22145
2404.91987	0.22250
2402.99131	0.22365
2401.06274	0.22490
2399.13418	0.22600
2397.20562	0.22702
2395.27705	0.22817
2393.34849	0.22939
2391.41992	0.23059
2389.49136	0.23179
2387.56279	0.23293
2385.63423	0.23380
2383.70566	0.23433
2381.77710	0.23459
2379.84854	0.23473
2377.91997	0.23472
2375.99141	0.23445
2374.06284	0.23387
2372.13428	0.23308
2370.20571	0.23242
2368.27715	0.23174
2366.34858	0.23081
2364.42002	0.23053
2362.49146	0.23104
2360.56289	0.23146
2358.63433	0.23265
2356.70576	0.23540
2354.77720	0.23929
2352.84863	0.24378
2350.92007	0.24778
2348.99150	0.25020
2347.06294	0.25089
2345.13437	0.25019
2343.20581	0.24924
2341.27725	0.24994
2339.34868	0.25262
2337.42012	0.25563
2335.49155	0.25802
2333.56299	0.26004
2331.63442	0.26204
2329.70586	0.26415
2327.77729	0.26628
2325.84873	0.26834
2323.92017	0.27055
2321.99160	0.27287
2320.06304	0.27519
2318.13447	0.27776
2316.20591	0.28066
2314.27734	0.28336
2312.34878	0.28556
2310.42021	0.28775
2308.49165	0.29018
2306.56309	0.29259
2304.63452	0.29477
2302.70596	0.29683
2300.77739	0.29893
2298.84883	0.30106
2296.92026	0.30328
2294.99170	0.30561
2293.06313	0.30787
2291.13457	0.30999
2289.20601	0.31208
2287.27744	0.31423
2285.34888	0.31641
2283.42031	0.31849
2281.49175	0.32045
2279.56318	0.32238
2277.63462	0.32431
2275.70605	0.32620
2273.77749	0.32809
2271.84893	0.33008
2269.92036	0.33211
2267.99180	0.33414
2266.06323	0.33622
2264.13467	0.33834
2262.20610	0.34057
2260.27754	0.34287
2258.34897	0.34512
2256.42041	0.34727
2254.49185	0.34936
2252.56328	0.35149
2250.63472	0.35370
2248.70615	0.35597
2246.77759	0.35825
2244.84902	0.36044
2242.92046	0.36254
2240.99189	0.36463
2239.06333	0.36673
2237.13477	0.36887
2235.20620	0.37109
2233.27764	0.37339
2231.34907	0.37570
2229.42051	0.37793
2227.49194	0.38011
2225.56338	0.38223
2223.63481	0.38431
2221.70625	0.38646
2219.77769	0.38871
2217.84912	0.39092
2215.92056	0.39301
2213.99199	0.39507
2212.06343	0.39725
2210.13486	0.39944
2208.20630	0.40149
2206.27773	0.40347
2204.34917	0.40547
2202.42061	0.40751
2200.49204	0.40954
2198.56348	0.41152
2196.63491	0.41351
2194.70635	0.41557
2192.77778	0.41763
2190.84922	0.41957
2188.92065	0.42135
2186.99209	0.42300
2185.06353	0.42459
2183.13496	0.42623
2181.20640	0.42800
2179.27783	0.42975
2177.34927	0.43133
2175.42070	0.43285
2173.49214	0.43441
2171.56357	0.43591
2169.63501	0.43725
2167.70645	0.43854
2165.77788	0.43986
2163.84932	0.44116
2161.92075	0.44231
2159.99219	0.44333
2158.06362	0.44441
2156.13506	0.44554
2154.20649	0.44664
2152.27793	0.44761
2150.34937	0.44831
2148.42080	0.44881
2146.49224	0.44936
2144.56367	0.44997
2142.63511	0.45040
2140.70654	0.45068
2138.77798	0.45100
2136.84941	0.45134
2134.92085	0.45166
2132.99229	0.45186
2131.06372	0.45182
2129.13516	0.45155
2127.20659	0.45121
2125.27803	0.45100
2123.34946	0.45081
2121.42090	0.45050
2119.49233	0.45011
2117.56377	0.44960
2115.63521	0.44891
2113.70664	0.44818
2111.77808	0.44741
2109.84951	0.44646
2107.92095	0.44547
2105.99238	0.44450
2104.06382	0.44345
2102.13525	0.44230
2100.20669	0.44110
2098.27812	0.43980
2096.34956	0.43834
2094.42100	0.43683
2092.49243	0.43535
2090.56387	0.43376
2088.63530	0.43211
2086.70674	0.43057
2084.77817	0.42893
2082.84961	0.42714
2080.92104	0.42530
2078.99248	0.42341
2077.06392	0.42142
2075.13535	0.41938
2073.20679	0.41730
2071.27822	0.41518
2069.34966	0.41306
2067.42109	0.41091
2065.49253	0.40864
2063.56396	0.40621
2061.63540	0.40380
2059.70684	0.40147
2057.77827	0.39913
2055.84971	0.39674
2053.92114	0.39428
2051.99258	0.39178
2050.06401	0.38919
2048.13545	0.38657
2046.20688	0.38400
2044.27832	0.38148
2042.34976	0.37897
2040.42119	0.37649
2038.49263	0.37398
2036.56406	0.37130
2034.63550	0.36856
2032.70693	0.36583
2030.77837	0.36307
2028.84980	0.36028
2026.92124	0.35756
2024.99268	0.35489
2023.06411	0.35228
2021.13555	0.34970
2019.20698	0.34703
2017.27842	0.34424
2015.34985	0.34139
2013.42129	0.33859
2011.49272	0.33590
2009.56416	0.33325
2007.63560	0.33058
2005.70703	0.32801
2003.77847	0.32548
2001.84990	0.32284
1999.92134	0.32018
1997.99277	0.31759
1996.06421	0.31506
1994.13564	0.31266
1992.20708	0.31030
1990.27852	0.30778
1988.34995	0.30515
1986.42139	0.30262
1984.49282	0.30027
1982.56426	0.29800
1980.63569	0.29569
1978.70713	0.29331
1976.77856	0.29096
1974.85000	0.28877
1972.92144	0.28673
1970.99287	0.28469
1969.06431	0.28264
1967.13574	0.28058
1965.20718	0.27848
1963.27861	0.27641
1961.35005	0.27444
1959.42148	0.27255
1957.49292	0.27079
1955.56436	0.26911
1953.63579	0.26735
1951.70723	0.26552
1949.77866	0.26385
1947.85010	0.26232
1945.92153	0.26087
1943.99297	0.25948
1942.06440	0.25803
1940.13584	0.25645
1938.20728	0.25490
1936.27871	0.25342
1934.35015	0.25203
1932.42158	0.25083
1930.49302	0.24965
1928.56445	0.24841
1926.63589	0.24719
1924.70732	0.24615
1922.77876	0.24526
1920.85020	0.24431
1918.92163	0.24341
1916.99307	0.24259
1915.06450	0.24164
1913.13594	0.24062
1911.20737	0.23980
1909.27881	0.23923
1907.35024	0.23865
1905.42168	0.23799
1903.49312	0.23739
1901.56455	0.23681
1899.63599	0.23620
1897.70742	0.23575
1895.77886	0.23536
1893.85029	0.23491
1891.92173	0.23449
1889.99316	0.23430
1888.06460	0.23410
1886.13604	0.23373
1884.20747	0.23335
1882.27891	0.23309
1880.35034	0.23300
1878.42178	0.23294
1876.49321	0.23285
1874.56465	0.23279
1872.63608	0.23288
1870.70752	0.23320
1868.77896	0.23385
1866.85039	0.23423
1864.92183	0.23402
1862.99326	0.23382
1861.06470	0.23387
1859.13613	0.23416
1857.20757	0.23458
1855.27900	0.23511
1853.35044	0.23558
1851.42187	0.23607
1849.49331	0.23667
1847.56475	0.23735
1845.63618	0.23808
1843.70762	0.23901
1841.77905	0.23989
1839.85049	0.24039
1837.92192	0.24105
1835.99336	0.24188
1834.06479	0.24274
1832.13623	0.24370
1830.20767	0.24514
1828.27910	0.24667
1826.35054	0.24773
1824.42197	0.24894
1822.49341	0.25015
1820.56484	0.25127
1818.63628	0.25258
1816.70771	0.25426
1814.77915	0.25597
1812.85059	0.25770
1810.92202	0.25962
1808.99346	0.26157
1807.06489	0.26348
1805.13633	0.26538
1803.20776	0.26749
1801.27920	0.26989
1799.35063	0.27268
1797.42207	0.27527
1795.49351	0.27767
1793.56494	0.28040
1791.63638	0.28393
1789.70781	0.28729
1787.77925	0.28976
1785.85068	0.29272
1783.92212	0.29637
1781.99355	0.30036
1780.06499	0.30454
1778.13643	0.30877
1776.20786	0.31267
1774.27930	0.31687
1772.35073	0.32263
1770.42217	0.32890
1768.49360	0.33411
1766.56504	0.33911
1764.63647	0.34434
1762.70791	0.35019
1760.77935	0.35761
1758.85078	0.36459
1756.92222	0.37155
1754.99365	0.37906
1753.06509	0.38578
1751.13652	0.39390
1749.20796	0.40440
1747.27939	0.41479
1745.35083	0.42378
1743.42227	0.43334
1741.49370	0.44397
1739.56514	0.45638
1737.63657	0.46865
1735.70801	0.47933
1733.77944	0.49543
1731.85088	0.51469
1729.92231	0.52990
1727.99375	0.54548
1726.06519	0.56224
1724.13662	0.58048
1722.20806	0.60022
1720.27949	0.61835
1718.35093	0.63936
1716.42236	0.67073
1714.49380	0.70101
1712.56523	0.72562
1710.63667	0.74940
1708.70811	0.77495
1706.77954	0.80405
1704.85098	0.83913
1702.92241	0.87057
1700.99385	0.90136
1699.06528	0.94760
1697.13672	0.99097
1695.20815	1.03569
1693.27959	1.07904
1691.35103	1.11402
1689.42246	1.15470
1687.49390	1.19811
1685.56533	1.24025
1683.63677	1.30559
1681.70820	1.37390
1679.77964	1.41764
1677.85107	1.45913
1675.92251	1.50630
1673.99395	1.56446
1672.06538	1.61660
1670.13682	1.66879
1668.20825	1.73828
1666.27969	1.79507
1664.35112	1.84291
1662.42256	1.90338
1660.49399	1.97208
1658.56543	2.02561
1656.63687	2.06879
1654.70830	2.10832
1652.77974	2.17059
1650.85117	2.22943
1648.92261	2.24773
1646.99404	2.26992
1645.06548	2.29739
1643.13691	2.31745
1641.20835	2.32886
1639.27979	2.33869
1637.35122	2.34373
1635.42266	2.34122
1633.49409	2.33312
1631.56553	2.32040
1629.63696	2.30388
1627.70840	2.27539
1625.77983	2.24253
1623.85127	2.20015
1621.92271	2.14642
1619.99414	2.09838
1618.06558	2.05167
1616.13701	1.98577
1614.20845	1.91942
1612.27988	1.86941
1610.35132	1.81741
1608.42275	1.76125
1606.49419	1.70583
1604.56562	1.65412
1602.63706	1.60436
1600.70850	1.55665
1598.77993	1.51270
1596.85137	1.47108
1594.92280	1.43070
1592.99424	1.39187
1591.06567	1.35640
1589.13711	1.32289
1587.20854	1.29156
1585.27998	1.26297
1583.35142	1.23657
1581.42285	1.21237
1579.49429	1.19159
1577.56572	1.17314
1575.63716	1.15109
1573.70859	1.13197
1571.78003	1.11998
1569.85146	1.10813
1567.92290	1.09510
1565.99434	1.08546
1564.06577	1.07870
1562.13721	1.07384
1560.20864	1.07110
1558.28008	1.07085
1556.35151	1.07198
1554.42295	1.07199
1552.49438	1.07169
1550.56582	1.07012
1548.63726	1.06630
1546.70869	1.06039
1544.78013	1.05177
1542.85156	1.03996
1540.92300	1.02264
1538.99443	0.99550
1537.06587	0.97519
1535.13730	0.96113
1533.20874	0.94254
1531.28018	0.92273
1529.35161	0.90834
1527.42305	0.89458
1525.49448	0.88009
1523.56592	0.86779
1521.63735	0.85625
1519.70879	0.84497
1517.78022	0.83573
1515.85166	0.82497
1513.92310	0.81353
1511.99453	0.80352
1510.06597	0.79437
1508.13740	0.78524
1506.20884	0.77085
1504.28027	0.75859
1502.35171	0.75192
1500.42314	0.74614
1498.49458	0.74000
1496.56602	0.73288
1494.63745	0.72586
1492.70889	0.72039
1490.78032	0.71576
1488.85176	0.71082
1486.92319	0.70610
1484.99463	0.70218
1483.06606	0.69910
1481.13750	0.69679
1479.20894	0.69525
1477.28037	0.69467
1475.35181	0.69497
1473.42324	0.69578
1471.49468	0.69603
1469.56611	0.69479
1467.63755	0.69271
1465.70898	0.69066
1463.78042	0.68921
1461.85186	0.68852
1459.92329	0.68836
1457.99473	0.68848
1456.06616	0.68765
1454.13760	0.68521
1452.20903	0.68242
1450.28047	0.67945
1448.35190	0.67655
1446.42334	0.67370
1444.49478	0.67092
1442.56621	0.66820
1440.63765	0.66546
1438.70908	0.66271
1436.78052	0.65938
1434.85195	0.65570
1432.92339	0.65289
1430.99482	0.65099
1429.06626	0.64985
1427.13770	0.64941
1425.20913	0.64955
1423.28057	0.65008
1421.35200	0.65050
1419.42344	0.65075
1417.49487	0.65048
1415.56631	0.64933
1413.63774	0.64830
1411.70918	0.64802
1409.78062	0.64841
1407.85205	0.64904
1405.92349	0.64980
1403.99492	0.65056
1402.06636	0.65080
1400.13779	0.65030
1398.20923	0.64902
1396.28066	0.64686
1394.35210	0.64344
1392.42354	0.63937
1390.49497	0.63559
1388.56641	0.63178
1386.63784	0.62735
1384.70928	0.62277
1382.78071	0.61862
1380.85215	0.61481
1378.92358	0.61150
1376.99502	0.60895
1375.06646	0.60714
1373.13789	0.60596
1371.20933	0.60523
1369.28076	0.60463
1367.35220	0.60368
1365.42363	0.60241
1363.49507	0.60114
1361.56650	0.59971
1359.63794	0.59801
1357.70937	0.59638
1355.78081	0.59499
1353.85225	0.59386
1351.92368	0.59296
1349.99512	0.59225
1348.06655	0.59141
1346.13799	0.59032
1344.20942	0.58919
1342.28086	0.58822
1340.35229	0.58745
1338.42373	0.58685
1336.49517	0.58639
1334.56660	0.58593
1332.63804	0.58544
1330.70947	0.58518
1328.78091	0.58538
1326.85234	0.58601
1324.92378	0.58685
1322.99521	0.58755
1321.06665	0.58803
1319.13809	0.58846
1317.20952	0.58879
1315.28096	0.58885
1313.35239	0.58855
1311.42383	0.58792
1309.49526	0.58716
1307.56670	0.58647
1305.63813	0.58575
1303.70957	0.58492
1301.78101	0.58404
1299.85244	0.58310
1297.92388	0.58203
1295.99531	0.58088
1294.06675	0.57971
1292.13818	0.57854
1290.20962	0.57747
1288.28105	0.57649
1286.35249	0.57547
1284.42393	0.57428
1282.49536	0.57291
1280.56680	0.57149
1278.63823	0.57003
1276.70967	0.56866
1274.78110	0.56757
1272.85254	0.56674
1270.92397	0.56605
1268.99541	0.56536
1267.06685	0.56470
1265.13828	0.56415
1263.20972	0.56360
1261.28115	0.56288
1259.35259	0.56215
1257.42402	0.56154
1255.49546	0.56102
1253.56689	0.56067
1251.63833	0.56066
1249.70977	0.56078
1247.78120	0.56063
1245.85264	0.56019
1243.92407	0.55958
1241.99551	0.55871
1240.06694	0.55752
1238.13838	0.55602
1236.20981	0.55426
1234.28125	0.55234
1232.35269	0.55044
1230.42412	0.54855
1228.49556	0.54657
1226.56699	0.54456
1224.63843	0.54275
1222.70986	0.54108
1220.78130	0.53945
1218.85273	0.53785
1216.92417	0.53645
1214.99561	0.53534
1213.06704	0.53450
1211.13848	0.53392
1209.20991	0.53340
1207.28135	0.53281
1205.35278	0.53208
1203.42422	0.53112
1201.49565	0.52999
1199.56709	0.52887
1197.63853	0.52791
1195.70996	0.52718
1193.78140	0.52668
1191.85283	0.52634
1189.92427	0.52599
1187.99570	0.52573
1186.06714	0.52574
1184.13857	0.52580
1182.21001	0.52589
1180.28145	0.52642
1178.35288	0.52752
1176.42432	0.52894
1174.49575	0.53039
1172.56719	0.53158
1170.63862	0.53230
1168.71006	0.53279
1166.78149	0.53337
1164.85293	0.53400
1162.92437	0.53450
1160.99580	0.53487
1159.06724	0.53505
1157.13867	0.53489
1155.21011	0.53431
1153.28154	0.53324
1151.35298	0.53149
1149.42441	0.52906
1147.49585	0.52633
1145.56729	0.52354
1143.63872	0.52074
1141.71016	0.51808
1139.78159	0.51580
1137.85303	0.51417
1135.92446	0.51337
1133.99590	0.51323
1132.06733	0.51336
1130.13877	0.51352
1128.21021	0.51351
1126.28164	0.51327
1124.35308	0.51307
1122.42451	0.51297
1120.49595	0.51295
1118.56738	0.51316
1116.63882	0.51348
1114.71025	0.51385
1112.78169	0.51451
1110.85312	0.51548
1108.92456	0.51653
1106.99600	0.51769
1105.06743	0.51874
1103.13887	0.51938
1101.21030	0.52017
1099.28174	0.52156
1097.35317	0.52329
1095.42461	0.52533
1093.49604	0.52832
1091.56748	0.53311
1089.63892	0.53978
1087.71035	0.54774
1085.78179	0.55639
1083.85322	0.56510
1081.92466	0.57305
1079.99609	0.57893
1078.06753	0.58150
1076.13896	0.58062
1074.21040	0.57689
1072.28184	0.57115
1070.35327	0.56422
1068.42471	0.55678
1066.49614	0.54973
1064.56758	0.54370
1062.63901	0.53851
1060.71045	0.53380
1058.78188	0.52955
1056.85332	0.52579
1054.92476	0.52255
1052.99619	0.51982
1051.06763	0.51752
1049.13906	0.51580
1047.21050	0.51503
1045.28193	0.51516
1043.35337	0.51560
1041.42480	0.51607
1039.49624	0.51634
1037.56768	0.51621
1035.63911	0.51593
1033.71055	0.51546
1031.78198	0.51453
1029.85342	0.51301
1027.92485	0.51100
1025.99629	0.50898
1024.06772	0.50741
1022.13916	0.50637
1020.21060	0.50570
1018.28203	0.50523
1016.35347	0.50488
1014.42490	0.50455
1012.49634	0.50410
1010.56777	0.50354
1008.63921	0.50313
1006.71064	0.50319
1004.78208	0.50389
1002.85352	0.50521
1000.92495	0.50729
998.99639	0.51039
997.06782	0.51434
995.13926	0.51867
993.21069	0.52285
991.28213	0.52611
989.35356	0.52801
987.42500	0.52864
985.49644	0.52842
983.56787	0.52801
981.63931	0.52799
979.71074	0.52859
977.78218	0.52974
975.85361	0.53139
973.92505	0.53354
971.99648	0.53628
970.06792	0.53941
968.13936	0.54290
966.21079	0.54688
964.28223	0.55126
962.35366	0.55587
960.42510	0.56072
958.49653	0.56592
956.56797	0.57130
954.63940	0.57671
952.71084	0.58242
950.78228	0.58853
948.85371	0.59484
946.92515	0.60117
944.99658	0.60721
943.06802	0.61295
941.13945	0.61888
939.21089	0.62512
937.28232	0.63139
935.35376	0.63743
933.42520	0.64316
931.49663	0.64865
929.56807	0.65391
927.63950	0.65916
925.71094	0.66490
923.78237	0.67123
921.85381	0.67765
919.92524	0.68375
917.99668	0.68989
916.06812	0.69649
914.13955	0.70349
912.21099	0.71116
910.28242	0.71923
908.35386	0.72649
906.42529	0.73341
904.49673	0.74146
902.56816	0.75073
900.63960	0.76062
898.71104	0.77077
896.78247	0.78104
894.85391	0.79110
892.92534	0.80083
890.99678	0.81069
889.06821	0.82107
887.13965	0.83156
885.21108	0.84227
883.28252	0.85313
881.35396	0.86325
879.42539	0.87411
877.49683	0.88621
875.56826	0.89793
873.63970	0.90921
871.71113	0.91992
869.78257	0.92994
867.85400	0.94029
865.92544	0.95156
863.99687	0.96358
862.06831	0.97571
860.13975	0.98717
858.21118	0.99913
856.28262	1.01210
854.35405	1.02395
852.42549	1.03479
850.49692	1.04625
848.56836	1.05803
846.63979	1.07042
844.71123	1.08410
842.78267	1.09676
840.85410	1.10672
838.92554	1.11579
836.99697	1.12413
835.06841	1.13098
833.13984	1.14017
831.21128	1.15312
829.28271	1.16603
827.35415	1.17883
825.42559	1.19123
823.49702	1.20225
821.56846	1.21447
819.63989	1.22513
817.71133	1.23035
815.78276	1.23378
813.85420	1.23974
811.92563	1.25355
809.99707	1.27331
808.06851	1.28642
806.13994	1.29355
804.21138	1.29659
802.28281	1.29218
800.35425	1.29599
798.42568	1.32486
796.49712	1.36556
794.56855	1.39010
792.63999	1.40036
790.71143	1.41969
788.78286	1.43640
786.85430	1.39730
784.92573	1.33585
782.99717	1.29964
781.06860	1.28735
779.14004	1.31171
777.21147	1.35256
775.28291	1.36093
773.35435	1.35950
771.42578	1.33924
769.49722	1.29193
767.56865	1.29699
765.64009	1.38019
763.71152	1.48352
761.78296	1.42957
759.85439	1.31741
757.92583	1.31812
755.99727	1.34664
754.06870	1.28357
752.14014	1.20586
750.21157	1.18710
748.28301	1.18743
746.35444	1.11778
744.42588	1.04260
742.49731	1.06234
740.56875	1.18259
738.64019	1.22939
736.71162	1.02338
734.78306	0.82840
732.85449	0.75045
730.92593	0.70256
728.99736	0.60621
727.06880	0.49526
725.14023	0.42356
723.21167	0.44795
721.28311	0.50675
719.35454	0.44600
717.42598	0.29275
715.49741	0.18009
713.56885	0.21764
711.64028	0.38250
709.71172	0.47713
707.78315	0.37485
705.85459	0.21422
703.92603	0.10374
701.99746	0.04296
700.06890	0.04708
698.14033	0.16734
696.21177	0.30088
694.28320	0.26313
692.35464	0.28717
690.42607	0.44926
688.49751	0.47331
686.56895	0.33953
684.64038	0.31609
682.71182	0.33675
680.78325	0.27994
678.85469	0.18741
676.92612	0.16987
674.99756	0.19148
673.06899	0.23669
671.14043	0.35185
669.21187	0.45730
667.28330	0.45028
665.35474	0.42580
663.42617	0.42119
661.49761	0.42997
659.56904	0.42271
657.64048	0.33760
655.71191	0.23461
653.78335	0.15663
651.85479	0.12147
649.92622	0.15877
647.99766	0.26222
646.06909	0.40732
644.14053	0.46495
642.21196	0.43444
640.28340	0.49256
638.35483	0.52296
636.42627	0.47257
634.49771	0.40117
632.56914	0.29409
630.64058	0.24496
628.71201	0.28490
626.78345	0.28218
624.85488	0.23022
622.92632	0.23558
620.99775	0.28892
619.06919	0.36226
617.14062	0.40331
615.21206	0.36567
613.28350	0.32306
611.35493	0.35608
609.42637	0.41725
607.49780	0.39199
605.56924	0.39822
603.64067	0.44779
601.71211	0.40249
599.78354	0.33935
597.85498	0.32756
595.92642	0.31799
593.99785	0.30161
592.06929	0.31011
590.14072	0.27088
588.21216	0.19782
586.28359	0.16813
584.35503	0.21233
582.42646	0.28220
580.49790	0.33136
578.56934	0.36423
576.64077	0.43088
574.71221	0.46321
572.78364	0.40282
570.85508	0.39067
568.92651	0.39579
566.99795	0.32897
565.06938	0.25838
563.14082	0.20703
561.21226	0.18331
559.28369	0.19888
557.35513	0.24921
555.42656	0.28497
553.49800	0.24489
551.56943	0.19662
549.64087	0.15738
547.71230	0.10691
545.78374	0.06027
543.85518	0.09267
541.92661	0.21526
539.99805	0.30206
538.06948	0.31445
536.14092	0.26849
534.21235	0.20608
532.28379	0.18954
530.35522	0.21991
528.42666	0.23841
526.49810	0.22797
524.56953	0.21425
522.64097	0.20456
520.71240	0.18721
518.78384	0.17893
516.85527	0.20830
514.92671	0.26171
512.99814	0.28070
511.06958	0.25107
509.14102	0.23752
507.21245	0.26371
505.28389	0.32529
503.35532	0.36678
501.42676	0.32002
499.49819	0.25752
