3997.91411	0.06959
3995.98555	0.07060
3994.05698	0.07170
3992.12842	0.07201
3990.19985	0.07225
3988.27129	0.07272
3986.34272	0.07292
3984.41416	0.07288
3982.48560	0.07265
3980.55703	0.07252
3978.62847	0.07284
3976.69990	0.07369
3974.77134	0.07461
3972.84277	0.07490
3970.91421	0.07483
3968.98564	0.07491
3967.05708	0.07479
3965.12852	0.07425
3963.19995	0.07407
3961.27139	0.07455
3959.34282	0.07507
3957.41426	0.07531
3955.48569	0.07542
3953.55713	0.07571
3951.62856	0.07680
3949.70000	0.07862
3947.77144	0.07956
3945.84287	0.07901
3943.91431	0.07876
3941.98574	0.07881
3940.05718	0.07769
3938.12861	0.07644
3936.20005	0.07612
3934.27148	0.07692
3932.34292	0.07919
3930.41436	0.08122
3928.48579	0.08078
3926.55723	0.07973
3924.62866	0.08019
3922.70010	0.08055
3920.77153	0.07983
3918.84297	0.07971
3916.91440	0.07999
3914.98584	0.07901
3913.05728	0.07684
3911.12871	0.07505
3909.20015	0.07475
3907.27158	0.07662
3905.34302	0.08104
3903.41445	0.08640
3901.48589	0.08899
3899.55732	0.08775
3897.62876	0.08397
3895.70020	0.08017
3893.77163	0.07960
3891.84307	0.08230
3889.91450	0.08347
3887.98594	0.08169
3886.05737	0.08198
3884.12881	0.08427
3882.20024	0.08515
3880.27168	0.08521
3878.34312	0.08366
3876.41455	0.08190
3874.48599	0.08364
3872.55742	0.08742
3870.62886	0.09040
3868.70029	0.09136
3866.77173	0.08979
3864.84316	0.08947
3862.91460	0.09028
3860.98604	0.08811
3859.05747	0.08534
3857.12891	0.08609
3855.20034	0.09120
3853.27178	0.09968
3851.34321	0.10147
3849.41465	0.09339
3847.48608	0.08706
3845.55752	0.08564
3843.62896	0.08857
3841.70039	0.09390
3839.77183	0.09956
3837.84326	0.10349
3835.91470	0.10280
3833.98613	0.09945
3832.05757	0.09661
3830.12900	0.09426
3828.20044	0.09333
3826.27187	0.09485
3824.34331	0.09735
3822.41475	0.10125
3820.48618	0.10748
3818.55762	0.10948
3816.62905	0.10740
3814.70049	0.10495
3812.77192	0.10072
3810.84336	0.09764
3808.91479	0.09861
3806.98623	0.10328
3805.05767	0.10789
3803.12910	0.11139
3801.20054	0.11617
3799.27197	0.11789
3797.34341	0.11556
3795.41484	0.11298
3793.48628	0.10986
3791.55771	0.10764
3789.62915	0.10774
3787.70059	0.10972
3785.77202	0.11296
3783.84346	0.11584
3781.91489	0.11718
3779.98633	0.11913
3778.05776	0.12153
3776.12920	0.12155
3774.20063	0.12101
3772.27207	0.12300
3770.34351	0.12815
3768.41494	0.13322
3766.48638	0.13528
3764.55781	0.13619
3762.62925	0.13695
3760.70068	0.13967
3758.77212	0.14539
3756.84355	0.14985
3754.91499	0.15206
3752.98643	0.15733
3751.05786	0.16816
3749.12930	0.17711
3747.20073	0.17770
3745.27217	0.17811
3743.34360	0.18105
3741.41504	0.18295
3739.48647	0.18544
3737.55791	0.19232
3735.62935	0.20464
3733.70078	0.21565
3731.77222	0.21740
3729.84365	0.21642
3727.91509	0.21899
3725.98652	0.22560
3724.05796	0.23310
3722.12939	0.23836
3720.20083	0.24152
3718.27227	0.24370
3716.34370	0.24696
3714.41514	0.25368
3712.48657	0.26734
3710.55801	0.28853
3708.62944	0.30502
3706.70088	0.31259
3704.77231	0.32077
3702.84375	0.33432
3700.91519	0.35296
3698.98662	0.37119
3697.05806	0.38742
3695.12949	0.40571
3693.20093	0.42697
3691.27236	0.45253
3689.34380	0.48487
3687.41523	0.51814
3685.48667	0.54335
3683.55811	0.56593
3681.62954	0.59303
3679.70098	0.62643
3677.77241	0.66388
3675.84385	0.70905
3673.91528	0.76569
3671.98672	0.80830
3670.05815	0.84672
3668.12959	0.89837
3666.20103	0.94190
3664.27246	0.97906
3662.34390	1.02250
3660.41533	1.07105
3658.48677	1.11943
3656.55820	1.17141
3654.62964	1.22847
3652.70107	1.27635
3650.77251	1.32133
3648.84395	1.38525
3646.91538	1.45572
3644.98682	1.49922
3643.05825	1.53266
3641.12969	1.57097
3639.20112	1.61542
3637.27256	1.66123
3635.34399	1.70686
3633.41543	1.75350
3631.48687	1.79797
3629.55830	1.84348
3627.62974	1.90031
3625.70117	1.94810
3623.77261	1.97847
3621.84404	2.01037
3619.91548	2.04963
3617.98691	2.09601
3616.05835	2.13820
3614.12979	2.17417
3612.20122	2.21343
3610.27266	2.25203
3608.34409	2.29168
3606.41553	2.33404
3604.48696	2.37026
3602.55840	2.40215
3600.62983	2.44059
3598.70127	2.48490
3596.77271	2.52681
3594.84414	2.56804
3592.91558	2.60970
3590.98701	2.64658
3589.05845	2.68116
3587.12988	2.72547
3585.20132	2.77329
3583.27275	2.81065
3581.34419	2.84537
3579.41562	2.88531
3577.48706	2.92927
3575.55850	2.97200
3573.62993	3.01209
3571.70137	3.05062
3569.77280	3.09130
3567.84424	3.13933
3565.91567	3.19787
3563.98711	3.24883
3562.05854	3.28532
3560.12998	3.32034
3558.20142	3.35910
3556.27285	3.40412
3554.34429	3.45351
3552.41572	3.50320
3550.48716	3.54840
3548.55859	3.58944
3546.63003	3.63209
3544.70146	3.68034
3542.77290	3.73034
3540.84434	3.77691
3538.91577	3.82179
3536.98721	3.86836
3535.05864	3.91697
3533.13008	3.96241
3531.20151	4.00769
3529.27295	4.05952
3527.34438	4.11410
3525.41582	4.16255
3523.48726	4.20782
3521.55869	4.25540
3519.63013	4.30203
3517.70156	4.34785
3515.77300	4.39234
3513.84443	4.43876
3511.91587	4.48998
3509.98730	4.54018
3508.05874	4.58710
3506.13018	4.63338
3504.20161	4.67895
3502.27305	4.72399
3500.34448	4.77306
3498.41592	4.82643
3496.48735	4.87650
3494.55879	4.91956
3492.63022	4.96044
3490.70166	5.00223
3488.77310	5.04969
3486.84453	5.10775
3484.91597	5.17038
3482.98740	5.22780
3481.05884	5.27377
3479.13027	5.31218
3477.20171	5.35363
3475.27314	5.39972
3473.34458	5.45091
3471.41602	5.50602
3469.48745	5.55400
3467.55889	5.59297
3465.63032	5.64420
3463.70176	5.71441
3461.77319	5.77178
3459.84463	5.80826
3457.91606	5.84810
3455.98750	5.89692
3454.05894	5.94664
3452.13037	5.99702
3450.20181	6.04941
3448.27324	6.09737
3446.34468	6.14092
3444.41611	6.19060
3442.48755	6.25298
3440.55898	6.30819
3438.63042	6.34661
3436.70186	6.38027
3434.77329	6.41745
3432.84473	6.46852
3430.91616	6.53423
3428.98760	6.59865
3427.05903	6.64785
3425.13047	6.70003
3423.20190	6.75751
3421.27334	6.81481
3419.34478	6.86717
3417.41621	6.89824
3415.48765	6.94128
3413.55908	7.02199
3411.63052	7.09219
3409.70195	7.11071
3407.77339	7.11778
3405.84482	7.15521
3403.91626	7.23159
3401.98770	7.29688
3400.05913	7.33098
3398.13057	7.37430
3396.20200	7.41676
3394.27344	7.46047
3392.34487	7.49707
3390.41631	7.51647
3388.48774	7.55921
3386.55918	7.63413
3384.63062	7.66402
3382.70205	7.63398
3380.77349	7.62345
3378.84492	7.66018
3376.91636	7.70082
3374.98779	7.70754
3373.05923	7.72179
3371.13066	7.74955
3369.20210	7.79459
3367.27354	7.87329
3365.34497	7.95133
3363.41641	7.98829
3361.48784	7.99758
3359.55928	8.00349
3357.63071	7.98434
3355.70215	7.97381
3353.77358	8.01970
3351.84502	8.10893
3349.91646	8.13405
3347.98789	8.08966
3346.05933	8.08583
3344.13076	8.12027
3342.20220	8.15241
3340.27363	8.22735
3338.34507	8.33114
3336.41650	8.29455
3334.48794	8.19768
3332.55937	8.19127
3330.63081	8.20504
3328.70225	8.17869
3326.77368	8.19572
3324.84512	8.25302
3322.91655	8.24178
3320.98799	8.21542
3319.05942	8.19497
3317.13086	8.18751
3315.20229	8.22675
3313.27373	8.23660
3311.34517	8.17952
3309.41660	8.13793
3307.48804	8.13946
3305.55947	8.16723
3303.63091	8.23718
3301.70234	8.32324
3299.77378	8.39550
3297.84521	8.40348
3295.91665	8.34905
3293.98809	8.22796
3292.05952	8.09872
3290.13096	8.09227
3288.20239	8.16463
3286.27383	8.25570
3284.34526	8.30223
3282.41670	8.21137
3280.48813	8.13578
3278.55957	8.21683
3276.63101	8.29480
3274.70244	8.23156
3272.77388	8.15144
3270.84531	8.16736
3268.91675	8.29891
3266.98818	8.39734
3265.05962	8.39956
3263.13105	8.48017
3261.20249	8.60543
3259.27393	8.59296
3257.34536	8.47843
3255.41680	8.33785
3253.48823	8.23358
3251.55967	8.20005
3249.63110	8.18538
3247.70254	8.18160
3245.77397	8.18374
3243.84541	8.19084
3241.91685	8.25610
3239.98828	8.30298
3238.05972	8.21571
3236.13115	8.13181
3234.20259	8.18155
3232.27402	8.29694
3230.34546	8.35086
3228.41689	8.32341
3226.48833	8.27023
3224.55977	8.21794
3222.63120	8.19034
3220.70264	8.16641
3218.77407	8.11298
3216.84551	8.00799
3214.91694	7.90085
3212.98838	7.90931
3211.05981	7.98376
3209.13125	7.94785
3207.20269	7.82667
3205.27412	7.78346
3203.34556	7.82040
3201.41699	7.80551
3199.48843	7.71167
3197.55986	7.61801
3195.63130	7.56092
3193.70273	7.53706
3191.77417	7.54603
3189.84561	7.55984
3187.91704	7.54125
3185.98848	7.50830
3184.05991	7.45860
3182.13135	7.39285
3180.20278	7.33738
3178.27422	7.25896
3176.34565	7.15527
3174.41709	7.06225
3172.48853	6.98970
3170.55996	6.94718
3168.63140	6.91993
3166.70283	6.86505
3164.77427	6.78015
3162.84570	6.70380
3160.91714	6.64368
3158.98857	6.58698
3157.06001	6.53411
3155.13145	6.47570
3153.20288	6.38986
3151.27432	6.28967
3149.34575	6.20718
3147.41719	6.14947
3145.48862	6.10427
3143.56006	6.04146
3141.63149	5.95331
3139.70293	5.86992
3137.77437	5.80228
3135.84580	5.73504
3133.91724	5.65817
3131.98867	5.57841
3130.06011	5.50770
3128.13154	5.44064
3126.20298	5.36989
3124.27441	5.30296
3122.34585	5.23617
3120.41729	5.15758
3118.48872	5.07348
3116.56016	4.99516
3114.63159	4.91986
3112.70303	4.84681
3110.77446	4.78079
3108.84590	4.71919
3106.91733	4.65702
3104.98877	4.59155
3103.06021	4.52266
3101.13164	4.45006
3099.20308	4.37550
3097.27451	4.30432
3095.34595	4.23616
3093.41738	4.16838
3091.48882	4.10319
3089.56025	4.04130
3087.63169	3.98088
3085.70312	3.91936
3083.77456	3.85458
3081.84600	3.78952
3079.91743	3.72601
3077.98887	3.66275
3076.06030	3.60124
3074.13174	3.54323
3072.20317	3.48722
3070.27461	3.42979
3068.34604	3.37092
3066.41748	3.31308
3064.48892	3.25618
3062.56035	3.19922
3060.63179	3.14333
3058.70322	3.08998
3056.77466	3.03762
3054.84609	2.98388
3052.91753	2.93070
3050.98896	2.88049
3049.06040	2.83156
3047.13184	2.78265
3045.20327	2.73391
3043.27471	2.68506
3041.34614	2.63642
3039.41758	2.58875
3037.48901	2.54252
3035.56045	2.49788
3033.63188	2.45455
3031.70332	2.41118
3029.77476	2.36705
3027.84619	2.32363
3025.91763	2.28121
3023.98906	2.23869
3022.06050	2.19700
3020.13193	2.15735
3018.20337	2.11909
3016.27480	2.08114
3014.34624	2.04306
3012.41768	2.00530
3010.48911	1.96837
3008.56055	1.93240
3006.63198	1.89709
3004.70342	1.86186
3002.77485	1.82682
3000.84629	1.79260
2998.91772	1.75928
2996.98916	1.72662
2995.06060	1.69455
2993.13203	1.66267
2991.20347	1.63093
2989.27490	1.59988
2987.34634	1.56964
2985.41777	1.53999
2983.48921	1.51106
2981.56064	1.48262
2979.63208	1.45417
2977.70352	1.42594
2975.77495	1.39857
2973.84639	1.37174
2971.91782	1.34481
2969.98926	1.31802
2968.06069	1.29181
2966.13213	1.26635
2964.20356	1.24164
2962.27500	1.21743
2960.34644	1.19367
2958.41787	1.17066
2956.48931	1.14837
2954.56074	1.12636
2952.63218	1.10437
2950.70361	1.08253
2948.77505	1.06123
2946.84648	1.04091
2944.91792	1.02097
2942.98936	1.00066
2941.06079	0.98068
2939.13223	0.96146
2937.20366	0.94252
2935.27510	0.92358
2933.34653	0.90504
2931.41797	0.88750
2929.48940	0.87072
2927.56084	0.85396
2925.63228	0.83747
2923.70371	0.82188
2921.77515	0.80679
2919.84658	0.79172
2917.91802	0.77708
2915.98945	0.76301
2914.06089	0.74882
2912.13232	0.73445
2910.20376	0.72067
2908.27520	0.70760
2906.34663	0.69494
2904.41807	0.68237
2902.48950	0.66979
2900.56094	0.65746
2898.63237	0.64560
2896.70381	0.63422
2894.77524	0.62316
2892.84668	0.61211
2890.91812	0.60091
2888.98955	0.58977
2887.06099	0.57883
2885.13242	0.56821
2883.20386	0.55811
2881.27529	0.54833
2879.34673	0.53850
2877.41816	0.52867
2875.48960	0.51909
2873.56104	0.50984
2871.63247	0.50080
2869.70391	0.49185
2867.77534	0.48287
2865.84678	0.47384
2863.91821	0.46494
2861.98965	0.45631
2860.06108	0.44799
2858.13252	0.44003
2856.20396	0.43251
2854.27539	0.42544
2852.34683	0.41855
2850.41826	0.41166
2848.48970	0.40474
2846.56113	0.39788
2844.63257	0.39127
2842.70400	0.38498
2840.77544	0.37905
2838.84687	0.37354
2836.91831	0.36828
2834.98975	0.36303
2833.06118	0.35772
2831.13262	0.35243
2829.20405	0.34724
2827.27549	0.34213
2825.34692	0.33705
2823.41836	0.33201
2821.48979	0.32696
2819.56123	0.32182
2817.63267	0.31675
2815.70410	0.31192
2813.77554	0.30719
2811.84697	0.30252
2809.91841	0.29798
2807.98984	0.29346
2806.06128	0.28895
2804.13271	0.28452
2802.20415	0.28019
2800.27559	0.27603
2798.34702	0.27210
2796.41846	0.26823
2794.48989	0.26438
2792.56133	0.26072
2790.63276	0.25711
2788.70420	0.25350
2786.77563	0.24995
2784.84707	0.24645
2782.91851	0.24300
2780.98994	0.23965
2779.06138	0.23637
2777.13281	0.23313
2775.20425	0.23002
2773.27568	0.22720
2771.34712	0.22440
2769.41855	0.22141
2767.48999	0.21840
2765.56143	0.21552
2763.63286	0.21271
2761.70430	0.20998
2759.77573	0.20739
2757.84717	0.20493
2755.91860	0.20244
2753.99004	0.19990
2752.06147	0.19746
2750.13291	0.19512
2748.20435	0.19284
2746.27578	0.19054
2744.34722	0.18833
2742.41865	0.18643
2740.49009	0.18466
2738.56152	0.18268
2736.63296	0.18049
2734.70439	0.17831
2732.77583	0.17633
2730.84727	0.17445
2728.91870	0.17254
2726.99014	0.17076
2725.06157	0.16923
2723.13301	0.16778
2721.20444	0.16624
2719.27588	0.16462
2717.34731	0.16303
2715.41875	0.16166
2713.49019	0.16034
2711.56162	0.15886
2709.63306	0.15735
2707.70449	0.15603
2705.77593	0.15481
2703.84736	0.15349
2701.91880	0.15202
2699.99023	0.15062
2698.06167	0.14940
2696.13311	0.14826
2694.20454	0.14721
2692.27598	0.14638
2690.34741	0.14555
2688.41885	0.14459
2686.49028	0.14365
2684.56172	0.14266
2682.63315	0.14148
2680.70459	0.14044
2678.77603	0.13973
2676.84746	0.13908
2674.91890	0.13833
2672.99033	0.13755
2671.06177	0.13680
2669.13320	0.13611
2667.20464	0.13546
2665.27607	0.13475
2663.34751	0.13400
2661.41895	0.13336
2659.49038	0.13291
2657.56182	0.13256
2655.63325	0.13204
2653.70469	0.13140
2651.77612	0.13093
2649.84756	0.13061
2647.91899	0.13022
2645.99043	0.12971
2644.06187	0.12925
2642.13330	0.12897
2640.20474	0.12874
2638.27617	0.12853
2636.34761	0.12841
2634.41904	0.12830
2632.49048	0.12812
2630.56191	0.12794
2628.63335	0.12779
2626.70479	0.12759
2624.77622	0.12737
2622.84766	0.12724
2620.91909	0.12716
2618.99053	0.12702
2617.06196	0.12692
2615.13340	0.12698
2613.20483	0.12711
2611.27627	0.12720
2609.34771	0.12729
2607.41914	0.12734
2605.49058	0.12724
2603.56201	0.12719
2601.63345	0.12737
2599.70488	0.12760
2597.77632	0.12787
2595.84775	0.12816
2593.91919	0.12834
2591.99062	0.12851
2590.06206	0.12864
2588.13350	0.12878
2586.20493	0.12912
2584.27637	0.12954
2582.34780	0.12987
2580.41924	0.13027
2578.49067	0.13079
2576.56211	0.13118
2574.63354	0.13142
2572.70498	0.13180
2570.77642	0.13228
2568.84785	0.13272
2566.91929	0.13324
2564.99072	0.13384
2563.06216	0.13435
2561.13359	0.13477
2559.20503	0.13526
2557.27646	0.13584
2555.34790	0.13653
2553.41934	0.13723
2551.49077	0.13788
2549.56221	0.13843
2547.63364	0.13889
2545.70508	0.13942
2543.77651	0.14017
2541.84795	0.14099
2539.91938	0.14174
2537.99082	0.14242
2536.06226	0.14311
2534.13369	0.14382
2532.20513	0.14454
2530.27656	0.14529
2528.34800	0.14604
2526.41943	0.14668
2524.49087	0.14734
2522.56230	0.14815
2520.63374	0.14903
2518.70518	0.14991
2516.77661	0.15076
2514.84805	0.15147
2512.91948	0.15219
2510.99092	0.15309
2509.06235	0.15412
2507.13379	0.15510
2505.20522	0.15595
2503.27666	0.15672
2501.34810	0.15750
2499.41953	0.15830
2497.49097	0.15907
2495.56240	0.15985
2493.63384	0.16078
2491.70527	0.16178
2489.77671	0.16268
2487.84814	0.16352
2485.91958	0.16443
2483.99102	0.16543
2482.06245	0.16643
2480.13389	0.16740
2478.20532	0.16838
2476.27676	0.16940
2474.34819	0.17034
2472.41963	0.17110
2470.49106	0.17189
2468.56250	0.17289
2466.63394	0.17394
2464.70537	0.17496
2462.77681	0.17598
2460.84824	0.17697
2458.91968	0.17791
2456.99111	0.17887
2455.06255	0.17991
2453.13398	0.18104
2451.20542	0.18212
2449.27686	0.18310
2447.34829	0.18414
2445.41973	0.18517
2443.49116	0.18617
2441.56260	0.18724
2439.63403	0.18839
2437.70547	0.18954
2435.77690	0.19064
2433.84834	0.19173
2431.91978	0.19285
2429.99121	0.19387
2428.06265	0.19486
2426.13408	0.19597
2424.20552	0.19711
2422.27695	0.19818
2420.34839	0.19925
2418.41982	0.20043
2416.49126	0.20177
2414.56270	0.20317
2412.63413	0.20444
2410.70557	0.20563
2408.77700	0.20689
2406.84844	0.20812
2404.91987	0.20926
2402.99131	0.21044
2401.06274	0.21167
2399.13418	0.21293
2397.20562	0.21424
2395.27705	0.21557
2393.34849	0.21689
2391.41992	0.21833
2389.49136	0.22021
2387.56279	0.22303
2385.63423	0.22747
2383.70566	0.23451
2381.77710	0.24451
2379.84854	0.25673
2377.91997	0.27050
2375.99141	0.28607
2374.06284	0.30401
2372.13428	0.32409
2370.20571	0.34553
2368.27715	0.36747
2366.34858	0.38887
2364.42002	0.40797
2362.49146	0.42234
2360.56289	0.43017
2358.63433	0.43070
2356.70576	0.42325
2354.77720	0.40734
2352.84863	0.38554
2350.92007	0.36319
2348.99150	0.34919
2347.06294	0.34968
2345.13437	0.36491
2343.20581	0.38465
2341.27725	0.39460
2339.34868	0.39511
2337.42012	0.39258
2335.49155	0.39038
2333.56299	0.38876
2331.63442	0.38748
2329.70586	0.38564
2327.77729	0.38229
2325.84873	0.37757
2323.92017	0.37236
2321.99160	0.36674
2320.06304	0.35975
2318.13447	0.35163
2316.20591	0.34433
2314.27734	0.33961
2312.34878	0.33719
2310.42021	0.33502
2308.49165	0.33161
2306.56309	0.32707
2304.63452	0.32280
2302.70596	0.32028
2300.77739	0.31920
2298.84883	0.31830
2296.92026	0.31731
2294.99170	0.31646
2293.06313	0.31572
2291.13457	0.31508
2289.20601	0.31459
2287.27744	0.31428
2285.34888	0.31412
2283.42031	0.31450
2281.49175	0.31602
2279.56318	0.31851
2277.63462	0.32124
2275.70605	0.32377
2273.77749	0.32607
2271.84893	0.32822
2269.92036	0.33027
2267.99180	0.33223
2266.06323	0.33410
2264.13467	0.33589
2262.20610	0.33765
2260.27754	0.33937
2258.34897	0.34112
2256.42041	0.34302
2254.49185	0.34493
2252.56328	0.34661
2250.63472	0.34828
2248.70615	0.35013
2246.77759	0.35200
2244.84902	0.35387
2242.92046	0.35587
2240.99189	0.35795
2239.06333	0.36002
2237.13477	0.36218
2235.20620	0.36439
2233.27764	0.36665
2231.34907	0.36890
2229.42051	0.37104
2227.49194	0.37316
2225.56338	0.37538
2223.63481	0.37760
2221.70625	0.37969
2219.77769	0.38176
2217.84912	0.38402
2215.92056	0.38647
2213.99199	0.38877
2212.06343	0.39085
2210.13486	0.39288
2208.20630	0.39500
2206.27773	0.39720
2204.34917	0.39941
2202.42061	0.40150
2200.49204	0.40351
2198.56348	0.40552
2196.63491	0.40751
2194.70635	0.40948
2192.77778	0.41151
2190.84922	0.41359
2188.92065	0.41553
2186.99209	0.41730
2185.06353	0.41901
2183.13496	0.42075
2181.20640	0.42263
2179.27783	0.42459
2177.34927	0.42635
2175.42070	0.42781
2173.49214	0.42917
2171.56357	0.43057
2169.63501	0.43201
2167.70645	0.43349
2165.77788	0.43496
2163.84932	0.43633
2161.92075	0.43766
2159.99219	0.43897
2158.06362	0.44010
2156.13506	0.44107
2154.20649	0.44195
2152.27793	0.44278
2150.34937	0.44364
2148.42080	0.44452
2146.49224	0.44523
2144.56367	0.44577
2142.63511	0.44635
2140.70654	0.44687
2138.77798	0.44716
2136.84941	0.44737
2134.92085	0.44754
2132.99229	0.44760
2131.06372	0.44757
2129.13516	0.44754
2127.20659	0.44753
2125.27803	0.44745
2123.34946	0.44721
2121.42090	0.44690
2119.49233	0.44660
2117.56377	0.44627
2115.63521	0.44578
2113.70664	0.44509
2111.77808	0.44425
2109.84951	0.44337
2107.92095	0.44253
2105.99238	0.44161
2104.06382	0.44054
2102.13525	0.43937
2100.20669	0.43817
2098.27812	0.43690
2096.34956	0.43552
2094.42100	0.43412
2092.49243	0.43275
2090.56387	0.43132
2088.63530	0.42971
2086.70674	0.42794
2084.77817	0.42614
2082.84961	0.42434
2080.92104	0.42257
2078.99248	0.42081
2077.06392	0.41891
2075.13535	0.41687
2073.20679	0.41476
2071.27822	0.41263
2069.34966	0.41056
2067.42109	0.40858
2065.49253	0.40657
2063.56396	0.40427
2061.63540	0.40177
2059.70684	0.39929
2057.77827	0.39688
2055.84971	0.39453
2053.92114	0.39219
2051.99258	0.38974
2050.06401	0.38720
2048.13545	0.38468
2046.20688	0.38213
2044.27832	0.37959
2042.34976	0.37707
2040.42119	0.37443
2038.49263	0.37164
2036.56406	0.36893
2034.63550	0.36632
2032.70693	0.36365
2030.77837	0.36098
2028.84980	0.35836
2026.92124	0.35572
2024.99268	0.35302
2023.06411	0.35030
2021.13555	0.34760
2019.20698	0.34514
2017.27842	0.34284
2015.34985	0.34010
2013.42129	0.33704
2011.49272	0.33419
2009.56416	0.33153
2007.63560	0.32877
2005.70703	0.32596
2003.77847	0.32329
2001.84990	0.32078
1999.92134	0.31832
1997.99277	0.31574
1996.06421	0.31316
1994.13564	0.31104
1992.20708	0.30919
1990.27852	0.30683
1988.34995	0.30402
1986.42139	0.30117
1984.49282	0.29839
1982.56426	0.29586
1980.63569	0.29360
1978.70713	0.29136
1976.77856	0.28898
1974.85000	0.28664
1972.92144	0.28444
1970.99287	0.28242
1969.06431	0.28081
1967.13574	0.27930
1965.20718	0.27715
1963.27861	0.27468
1961.35005	0.27248
1959.42148	0.27044
1957.49292	0.26851
1955.56436	0.26675
1953.63579	0.26508
1951.70723	0.26339
1949.77866	0.26173
1947.85010	0.26025
1945.92153	0.25914
1943.99297	0.25837
1942.06440	0.25719
1940.13584	0.25500
1938.20728	0.25271
1936.27871	0.25105
1934.35015	0.24972
1932.42158	0.24848
1930.49302	0.24722
1928.56445	0.24600
1926.63589	0.24498
1924.70732	0.24458
1922.77876	0.24438
1920.85020	0.24346
1918.92163	0.24244
1916.99307	0.24148
1915.06450	0.23993
1913.13594	0.23848
1911.20737	0.23791
1909.27881	0.23777
1907.35024	0.23710
1905.42168	0.23594
1903.49312	0.23494
1901.56455	0.23418
1899.63599	0.23353
1897.70742	0.23319
1895.77886	0.23322
1893.85029	0.23308
1891.92173	0.23280
1889.99316	0.23294
1888.06460	0.23266
1886.13604	0.23165
1884.20747	0.23090
1882.27891	0.23053
1880.35034	0.23031
1878.42178	0.23017
1876.49321	0.23011
1874.56465	0.23015
1872.63608	0.23067
1870.70752	0.23226
1868.77896	0.23450
1866.85039	0.23479
1864.92183	0.23298
1862.99326	0.23169
1861.06470	0.23160
1859.13613	0.23208
1857.20757	0.23239
1855.27900	0.23254
1853.35044	0.23278
1851.42187	0.23336
1849.49331	0.23443
1847.56475	0.23608
1845.63618	0.23814
1843.70762	0.23965
1841.77905	0.23928
1839.85049	0.23852
1837.92192	0.23902
1835.99336	0.23999
1834.06479	0.24081
1832.13623	0.24236
1830.20767	0.24511
1828.27910	0.24703
1826.35054	0.24744
1824.42197	0.24806
1822.49341	0.24851
1820.56484	0.24893
1818.63628	0.25001
1816.70771	0.25165
1814.77915	0.25341
1812.85059	0.25568
1810.92202	0.25837
1808.99346	0.26037
1807.06489	0.26169
1805.13633	0.26333
1803.20776	0.26608
1801.27920	0.26965
1799.35063	0.27300
1797.42207	0.27529
1795.49351	0.27766
1793.56494	0.28127
1791.63638	0.28554
1789.70781	0.28780
1787.77925	0.28886
1785.85068	0.29154
1783.92212	0.29550
1781.99355	0.29986
1780.06499	0.30433
1778.13643	0.30845
1776.20786	0.31271
1774.27930	0.31846
1772.35073	0.32607
1770.42217	0.33221
1768.49360	0.33583
1766.56504	0.33946
1764.63647	0.34412
1762.70791	0.35043
1760.77935	0.35839
1758.85078	0.36530
1756.92222	0.37229
1754.99365	0.37988
1753.06509	0.38716
1751.13652	0.39704
1749.20796	0.40945
1747.27939	0.42001
1745.35083	0.42817
1743.42227	0.43702
1741.49370	0.44731
1739.56514	0.45968
1737.63657	0.47204
1735.70801	0.48365
1733.77944	0.50152
1731.85088	0.52052
1729.92231	0.53392
1727.99375	0.54790
1726.06519	0.56384
1724.13662	0.58224
1722.20806	0.60241
1720.27949	0.62165
1718.35093	0.64567
1716.42236	0.67984
1714.49380	0.70863
1712.56523	0.73049
1710.63667	0.75272
1708.70811	0.77802
1706.77954	0.80782
1704.85098	0.84307
1702.92241	0.87374
1700.99385	0.90427
1699.06528	0.94990
1697.13672	0.99066
1695.20815	1.03012
1693.27959	1.06712
1691.35103	1.09742
1689.42246	1.13382
1687.49390	1.17251
1685.56533	1.21018
1683.63677	1.26758
1681.70820	1.32426
1679.77964	1.35894
1677.85107	1.39257
1675.92251	1.43255
1673.99395	1.48306
1672.06538	1.52823
1670.13682	1.57177
1668.20825	1.62541
1666.27969	1.66682
1664.35112	1.70238
1662.42256	1.74739
1660.49399	1.79639
1658.56543	1.83408
1656.63687	1.86682
1654.70830	1.90144
1652.77974	1.95875
1650.85117	2.00953
1648.92261	2.02984
1646.99404	2.06027
1645.06548	2.09428
1643.13691	2.11548
1641.20835	2.12999
1639.27979	2.14394
1637.35122	2.15393
1635.42266	2.15868
1633.49409	2.15628
1631.56553	2.14717
1629.63696	2.13555
1627.70840	2.11453
1625.77983	2.08867
1623.85127	2.05444
1621.92271	2.01027
1619.99414	1.97057
1618.06558	1.93222
1616.13701	1.87508
1614.20845	1.81383
1612.27988	1.76702
1610.35132	1.71920
1608.42275	1.66705
1606.49419	1.61425
1604.56562	1.56479
1602.63706	1.51704
1600.70850	1.46982
1598.77993	1.42566
1596.85137	1.38444
1594.92280	1.34477
1592.99424	1.30599
1591.06567	1.26999
1589.13711	1.23598
1587.20854	1.20362
1585.27998	1.17318
1583.35142	1.14464
1581.42285	1.11830
1579.49429	1.09556
1577.56572	1.07563
1575.63716	1.05004
1573.70859	1.02473
1571.78003	1.00802
1569.85146	0.99112
1567.92290	0.97045
1565.99434	0.95302
1564.06577	0.93844
1562.13721	0.92697
1560.20864	0.91929
1558.28008	0.90407
1556.35151	0.88435
1554.42295	0.87075
1552.49438	0.85817
1550.56582	0.84675
1548.63726	0.83600
1546.70869	0.82751
1544.78013	0.82187
1542.85156	0.81774
1540.92300	0.81216
1538.99443	0.79788
1537.06587	0.78423
1535.13730	0.77709
1533.20874	0.77030
1531.28018	0.76165
1529.35161	0.75509
1527.42305	0.75053
1525.49448	0.74613
1523.56592	0.74199
1521.63735	0.73757
1519.70879	0.73095
1517.78022	0.72455
1515.85166	0.71802
1513.92310	0.71132
1511.99453	0.70687
1510.06597	0.70512
1508.13740	0.70540
1506.20884	0.70080
1504.28027	0.69066
1502.35171	0.68447
1500.42314	0.68111
1498.49458	0.67886
1496.56602	0.67572
1494.63745	0.67116
1492.70889	0.66782
1490.78032	0.66672
1488.85176	0.66524
1486.92319	0.66064
1484.99463	0.65550
1483.06606	0.65186
1481.13750	0.64909
1479.20894	0.64640
1477.28037	0.64450
1475.35181	0.64385
1473.42324	0.64321
1471.49468	0.63930
1469.56611	0.63366
1467.63755	0.63006
1465.70898	0.62810
1463.78042	0.62561
1461.85186	0.62293
1459.92329	0.62238
1457.99473	0.62381
1456.06616	0.62221
1454.13760	0.61690
1452.20903	0.61306
1450.28047	0.61084
1448.35190	0.60943
1446.42334	0.60751
1444.49478	0.60512
1442.56621	0.60328
1440.63765	0.60211
1438.70908	0.60175
1436.78052	0.60165
1434.85195	0.60005
1432.92339	0.59786
1430.99482	0.59645
1429.06626	0.59498
1427.13770	0.59318
1425.20913	0.59204
1423.28057	0.59127
1421.35200	0.59049
1419.42344	0.58996
1417.49487	0.58816
1415.56631	0.58500
1413.63774	0.58258
1411.70918	0.58106
1409.78062	0.57970
1407.85205	0.57845
1405.92349	0.57762
1403.99492	0.57659
1402.06636	0.57527
1400.13779	0.57464
1398.20923	0.57436
1396.28066	0.57352
1394.35210	0.57181
1392.42354	0.56940
1390.49497	0.56754
1388.56641	0.56676
1386.63784	0.56576
1384.70928	0.56369
1382.78071	0.56187
1380.85215	0.56093
1378.92358	0.56026
1376.99502	0.55976
1375.06646	0.55973
1373.13789	0.55910
1371.20933	0.55746
1369.28076	0.55597
1367.35220	0.55473
1365.42363	0.55387
1363.49507	0.55389
1361.56650	0.55355
1359.63794	0.55181
1357.70937	0.55011
1355.78081	0.54908
1353.85225	0.54822
1351.92368	0.54736
1349.99512	0.54659
1348.06655	0.54574
1346.13799	0.54479
1344.20942	0.54389
1342.28086	0.54354
1340.35229	0.54392
1338.42373	0.54373
1336.49517	0.54209
1334.56660	0.54009
1332.63804	0.53860
1330.70947	0.53757
1328.78091	0.53675
1326.85234	0.53602
1324.92378	0.53521
1322.99521	0.53433
1321.06665	0.53366
1319.13809	0.53319
1317.20952	0.53250
1315.28096	0.53164
1313.35239	0.53075
1311.42383	0.52964
1309.49526	0.52845
1307.56670	0.52752
1305.63813	0.52675
1303.70957	0.52596
1301.78101	0.52512
1299.85244	0.52418
1297.92388	0.52330
1295.99531	0.52256
1294.06675	0.52180
1292.13818	0.52106
1290.20962	0.52043
1288.28105	0.51975
1286.35249	0.51888
1284.42393	0.51802
1282.49536	0.51741
1280.56680	0.51695
1278.63823	0.51628
1276.70967	0.51533
1274.78110	0.51451
1272.85254	0.51399
1270.92397	0.51345
1268.99541	0.51268
1267.06685	0.51186
1265.13828	0.51113
1263.20972	0.51042
1261.28115	0.50974
1259.35259	0.50912
1257.42402	0.50848
1255.49546	0.50774
1253.56689	0.50699
1251.63833	0.50642
1249.70977	0.50601
1247.78120	0.50555
1245.85264	0.50499
1243.92407	0.50444
1241.99551	0.50388
1240.06694	0.50317
1238.13838	0.50227
1236.20981	0.50138
1234.28125	0.50062
1232.35269	0.49988
1230.42412	0.49915
1228.49556	0.49847
1226.56699	0.49771
1224.63843	0.49687
1222.70986	0.49595
1220.78130	0.49503
1218.85273	0.49426
1216.92417	0.49340
1214.99561	0.49238
1213.06704	0.49146
1211.13848	0.49064
1209.20991	0.48979
1207.28135	0.48892
1205.35278	0.48801
1203.42422	0.48711
1201.49565	0.48627
1199.56709	0.48545
1197.63853	0.48465
1195.70996	0.48391
1193.78140	0.48307
1191.85283	0.48200
1189.92427	0.48087
1187.99570	0.47985
1186.06714	0.47896
1184.13857	0.47808
1182.21001	0.47714
1180.28145	0.47623
1178.35288	0.47543
1176.42432	0.47464
1174.49575	0.47383
1172.56719	0.47302
1170.63862	0.47213
1168.71006	0.47125
1166.78149	0.47043
1164.85293	0.46961
1162.92437	0.46878
1160.99580	0.46787
1159.06724	0.46703
1157.13867	0.46641
1155.21011	0.46578
1153.28154	0.46500
1151.35298	0.46429
1149.42441	0.46362
1147.49585	0.46276
1145.56729	0.46182
1143.63872	0.46101
1141.71016	0.46030
1139.78159	0.45946
1137.85303	0.45860
1135.92446	0.45791
1133.99590	0.45722
1132.06733	0.45644
1130.13877	0.45572
1128.21021	0.45494
1126.28164	0.45401
1124.35308	0.45330
1122.42451	0.45295
1120.49595	0.45252
1118.56738	0.45184
1116.63882	0.45125
1114.71025	0.45078
1112.78169	0.45019
1110.85312	0.44954
1108.92456	0.44909
1106.99600	0.44895
1105.06743	0.44894
1103.13887	0.44875
1101.21030	0.44835
1099.28174	0.44799
1097.35317	0.44776
1095.42461	0.44765
1093.49604	0.44748
1091.56748	0.44700
1089.63892	0.44651
1087.71035	0.44633
1085.78179	0.44624
1083.85322	0.44615
1081.92466	0.44608
1079.99609	0.44596
1078.06753	0.44575
1076.13896	0.44544
1074.21040	0.44517
1072.28184	0.44502
1070.35327	0.44502
1068.42471	0.44539
1066.49614	0.44608
1064.56758	0.44666
1062.63901	0.44690
1060.71045	0.44698
1058.78188	0.44710
1056.85332	0.44719
1054.92476	0.44732
1052.99619	0.44774
1051.06763	0.44831
1049.13906	0.44882
1047.21050	0.44920
1045.28193	0.44948
1043.35337	0.44965
1041.42480	0.44983
1039.49624	0.45028
1037.56768	0.45103
1035.63911	0.45191
1033.71055	0.45277
1031.78198	0.45359
1029.85342	0.45440
1027.92485	0.45533
1025.99629	0.45645
1024.06772	0.45764
1022.13916	0.45880
1020.21060	0.46002
1018.28203	0.46133
1016.35347	0.46255
1014.42490	0.46363
1012.49634	0.46474
1010.56777	0.46610
1008.63921	0.46765
1006.71064	0.46920
1004.78208	0.47072
1002.85352	0.47234
1000.92495	0.47401
998.99639	0.47585
997.06782	0.47795
995.13926	0.48016
993.21069	0.48236
991.28213	0.48460
989.35356	0.48686
987.42500	0.48911
985.49644	0.49137
983.56787	0.49378
981.63931	0.49651
979.71074	0.49946
977.78218	0.50239
975.85361	0.50536
973.92505	0.50863
971.99648	0.51220
970.06792	0.51570
968.13936	0.51901
966.21079	0.52247
964.28223	0.52614
962.35366	0.52989
960.42510	0.53387
958.49653	0.53818
956.56797	0.54265
954.63940	0.54713
952.71084	0.55173
950.78228	0.55667
948.85371	0.56182
946.92515	0.56690
944.99658	0.57216
943.06802	0.57772
941.13945	0.58319
939.21089	0.58857
937.28232	0.59428
935.35376	0.60035
933.42520	0.60654
931.49663	0.61314
929.56807	0.62047
927.63950	0.62791
925.71094	0.63451
923.78237	0.64046
921.85381	0.64716
919.92524	0.65475
917.99668	0.66231
916.06812	0.67014
914.13955	0.67869
912.21099	0.68761
910.28242	0.69659
908.35386	0.70542
906.42529	0.71406
904.49673	0.72248
902.56816	0.73080
900.63960	0.73975
898.71104	0.74955
896.78247	0.75960
894.85391	0.76974
892.92534	0.77987
890.99678	0.79043
889.06821	0.80216
887.13965	0.81309
885.21108	0.82196
883.28252	0.83116
881.35396	0.84148
879.42539	0.85257
877.49683	0.86464
875.56826	0.87667
873.63970	0.88821
871.71113	0.89968
869.78257	0.91052
867.85400	0.92083
865.92544	0.93165
863.99687	0.94318
862.06831	0.95503
860.13975	0.96646
858.21118	0.97724
856.28262	0.98840
854.35405	1.00118
852.42549	1.01437
850.49692	1.02484
848.56836	1.03292
846.63979	1.04303
844.71123	1.05680
842.78267	1.07061
840.85410	1.08186
838.92554	1.09327
836.99697	1.10697
835.06841	1.11851
833.13984	1.12817
831.21128	1.14311
829.28271	1.15823
827.35415	1.16399
825.42559	1.16523
823.49702	1.17397
821.56846	1.19387
819.63989	1.21546
817.71133	1.22981
815.78276	1.23810
813.85420	1.24401
811.92563	1.25734
809.99707	1.28494
808.06851	1.31002
806.13994	1.31693
804.21138	1.31085
802.28281	1.30743
800.35425	1.32542
798.42568	1.36441
796.49712	1.39380
794.56855	1.41024
792.63999	1.46028
790.71143	1.53198
788.78286	1.56237
786.85430	1.57926
784.92573	1.60521
782.99717	1.58387
781.06860	1.54043
779.14004	1.54258
777.21147	1.56373
775.28291	1.53119
773.35435	1.44675
771.42578	1.39322
769.49722	1.43961
767.56865	1.55613
765.64009	1.58434
763.71152	1.59184
761.78296	1.61539
759.85439	1.69465
757.92583	1.72142
755.99727	1.42970
754.06870	1.32964
752.14014	1.48596
750.21157	2.01097
748.28301	1.88930
746.35444	1.38466
744.42588	1.29128
742.49731	1.43279
740.56875	1.40680
738.64019	1.41512
736.71162	1.62357
734.78306	1.24766
732.85449	0.97895
730.92593	0.81440
728.99736	0.74967
727.06880	0.92506
725.14023	4.35084
723.21167	1.74261
721.28311	0.66834
719.35454	0.23560
717.42598	0.06983
715.49741	0.05803
713.56885	0.09460
711.64028	0.06291
709.71172	-0.07876
707.78315	-0.16836
705.85459	-0.12349
703.92603	0.01736
701.99746	0.21885
700.06890	0.49152
698.14033	0.65029
696.21177	0.45787
694.28320	0.37800
692.35464	0.50823
690.42607	0.51329
688.49751	0.30688
686.56895	0.23024
684.64038	0.22026
682.71182	0.24209
680.78325	0.39166
678.85469	0.57425
676.92612	0.41620
674.99756	0.29608
673.06899	0.28973
671.14043	0.29329
669.21187	0.26761
667.28330	0.25970
665.35474	0.28187
663.42617	0.33919
661.49761	0.41759
659.56904	0.40764
657.64048	0.30923
655.71191	0.24631
653.78335	0.25130
651.85479	0.30375
649.92622	0.33411
647.99766	0.31891
646.06909	0.25436
644.14053	0.17101
642.21196	0.11383
640.28340	0.16525
638.35483	0.44726
636.42627	1.15979
634.49771	0.70046
632.56914	0.38885
630.64058	0.26465
628.71201	0.26570
626.78345	0.33112
624.85488	0.33205
622.92632	0.28182
620.99775	0.25496
619.06919	0.24722
617.14062	0.26588
615.21206	0.31358
613.28350	0.31081
611.35493	0.23706
609.42637	0.17197
607.49780	0.16889
605.56924	0.19812
603.64067	0.21163
601.71211	0.19699
599.78354	0.18911
597.85498	0.18756
595.92642	0.18799
593.99785	0.19810
592.06929	0.19857
590.14072	0.20133
588.21216	0.25637
586.28359	0.48294
584.35503	0.85001
582.42646	0.71262
580.49790	0.50390
578.56934	0.46782
576.64077	0.53113
574.71221	0.44256
572.78364	0.33682
570.85508	0.31458
568.92651	0.34987
566.99795	0.39164
565.06938	0.36887
563.14082	0.28598
561.21226	0.20442
559.28369	0.13313
557.35513	0.09866
555.42656	0.14528
553.49800	0.18389
551.56943	0.19875
549.64087	0.28629
547.71230	0.37311
545.78374	0.31791
543.85518	0.23965
541.92661	0.25730
539.99805	0.31658
538.06948	0.27604
536.14092	0.18524
534.21235	0.16802
532.28379	0.21023
530.35522	0.22117
528.42666	0.19972
526.49810	0.17055
524.56953	0.14841
522.64097	0.14357
520.71240	0.14724
518.78384	0.18756
516.85527	0.22989
514.92671	0.23074
512.99814	0.23607
511.06958	0.25341
509.14102	0.27527
507.21245	0.28491
505.28389	0.26823
503.35532	0.28149
501.42676	0.29984
499.49819	0.24097
