3997.91411	0.07059
3995.98555	0.07062
3994.05698	0.07084
3992.12842	0.07123
3990.19985	0.07152
3988.27129	0.07165
3986.34272	0.07157
3984.41416	0.07176
3982.48560	0.07243
3980.55703	0.07291
3978.62847	0.07286
3976.69990	0.07298
3974.77134	0.07375
3972.84277	0.07464
3970.91421	0.07492
3968.98564	0.07454
3967.05708	0.07401
3965.12852	0.07390
3963.19995	0.07438
3961.27139	0.07493
3959.34282	0.07535
3957.41426	0.07574
3955.48569	0.07569
3953.55713	0.07529
3951.62856	0.07559
3949.70000	0.07667
3947.77144	0.07729
3945.84287	0.07696
3943.91431	0.07693
3941.98574	0.07759
3940.05718	0.07739
3938.12861	0.07636
3936.20005	0.07589
3934.27148	0.07646
3932.34292	0.07784
3930.41436	0.07883
3928.48579	0.07822
3926.55723	0.07728
3924.62866	0.07772
3922.70010	0.07829
3920.77153	0.07800
3918.84297	0.07841
3916.91440	0.07940
3914.98584	0.07884
3913.05728	0.07693
3911.12871	0.07540
3909.20015	0.07478
3907.27158	0.07547
3905.34302	0.07818
3903.41445	0.08197
3901.48589	0.08409
3899.55732	0.08369
3897.62876	0.08157
3895.70020	0.07914
3893.77163	0.07841
3891.84307	0.07966
3889.91450	0.08030
3887.98594	0.07929
3886.05737	0.07956
3884.12881	0.08126
3882.20024	0.08192
3880.27168	0.08214
3878.34312	0.08164
3876.41455	0.08042
3874.48599	0.08124
3872.55742	0.08400
3870.62886	0.08648
3868.70029	0.08757
3866.77173	0.08673
3864.84316	0.08632
3862.91460	0.08665
3860.98604	0.08516
3859.05747	0.08316
3857.12891	0.08343
3855.20034	0.08670
3853.27178	0.09275
3851.34321	0.09529
3849.41465	0.09061
3847.48608	0.08611
3845.55752	0.08476
3843.62896	0.08663
3841.70039	0.09034
3839.77183	0.09449
3837.84326	0.09809
3835.91470	0.09860
3833.98613	0.09645
3832.05757	0.09450
3830.12900	0.09331
3828.20044	0.09307
3826.27187	0.09415
3824.34331	0.09555
3822.41475	0.09780
3820.48618	0.10223
3818.55762	0.10427
3816.62905	0.10316
3814.70049	0.10160
3812.77192	0.09894
3810.84336	0.09721
3808.91479	0.09842
3806.98623	0.10238
3805.05767	0.10611
3803.12910	0.10832
3801.20054	0.11146
3799.27197	0.11312
3797.34341	0.11198
3795.41484	0.11066
3793.48628	0.10865
3791.55771	0.10707
3789.62915	0.10760
3787.70059	0.10971
3785.77202	0.11251
3783.84346	0.11514
3781.91489	0.11679
3779.98633	0.11851
3778.05776	0.12037
3776.12920	0.12078
3774.20063	0.12101
3772.27207	0.12287
3770.34351	0.12659
3768.41494	0.13049
3766.48638	0.13261
3764.55781	0.13380
3762.62925	0.13485
3760.70068	0.13719
3758.77212	0.14186
3756.84355	0.14619
3754.91499	0.14847
3752.98643	0.15184
3751.05786	0.15944
3749.12930	0.16799
3747.20073	0.17064
3745.27217	0.17176
3743.34360	0.17565
3741.41504	0.17981
3739.48647	0.18359
3737.55791	0.19015
3735.62935	0.20114
3733.70078	0.21232
3731.77222	0.21695
3729.84365	0.21834
3727.91509	0.22154
3725.98652	0.22803
3724.05796	0.23548
3722.12939	0.24074
3720.20083	0.24360
3718.27227	0.24513
3716.34370	0.24745
3714.41514	0.25288
3712.48657	0.26472
3710.55801	0.28430
3708.62944	0.30176
3706.70088	0.31199
3704.77231	0.32187
3702.84375	0.33540
3700.91519	0.35318
3698.98662	0.37143
3697.05806	0.38809
3695.12949	0.40619
3693.20093	0.42641
3691.27236	0.44952
3689.34380	0.47891
3687.41523	0.51200
3685.48667	0.53903
3683.55811	0.56268
3681.62954	0.59001
3679.70098	0.62289
3677.77241	0.65865
3675.84385	0.70122
3673.91528	0.75632
3671.98672	0.79906
3670.05815	0.83739
3668.12959	0.89014
3666.20103	0.93632
3664.27246	0.97470
3662.34390	1.01764
3660.41533	1.06551
3658.48677	1.11354
3656.55820	1.16521
3654.62964	1.22243
3652.70107	1.27023
3650.77251	1.31346
3648.84395	1.37432
3646.91538	1.44474
3644.98682	1.49211
3643.05825	1.52838
3641.12969	1.56783
3639.20112	1.61320
3637.27256	1.66027
3635.34399	1.70673
3633.41543	1.75308
3631.48687	1.79667
3629.55830	1.84147
3627.62974	1.89845
3625.70117	1.94842
3623.77261	1.98101
3621.84404	2.01257
3619.91548	2.04872
3617.98691	2.09299
3616.05835	2.13676
3614.12979	2.17403
3612.20122	2.21252
3610.27266	2.25124
3608.34409	2.29215
3606.41553	2.33522
3604.48696	2.37318
3602.55840	2.40800
3600.62983	2.44792
3598.70127	2.49124
3596.77271	2.53256
3594.84414	2.57463
3592.91558	2.61689
3590.98701	2.65398
3589.05845	2.68767
3587.12988	2.72998
3585.20132	2.77789
3583.27275	2.81750
3581.34419	2.85420
3579.41562	2.89500
3577.48706	2.93832
3575.55850	2.98020
3573.62993	3.02104
3571.70137	3.06107
3569.77280	3.10152
3567.84424	3.14573
3565.91567	3.19775
3563.98711	3.24579
3562.05854	3.28500
3560.12998	3.32687
3558.20142	3.37297
3556.27285	3.41872
3554.34429	3.46319
3552.41572	3.51053
3550.48716	3.55901
3548.55859	3.60281
3546.63003	3.64390
3544.70146	3.68990
3542.77290	3.73948
3540.84434	3.78681
3538.91577	3.83303
3536.98721	3.87834
3535.05864	3.92343
3533.13008	3.97023
3531.20151	4.02047
3529.27295	4.07039
3527.34438	4.11553
3525.41582	4.15745
3523.48726	4.20376
3521.55869	4.25749
3519.63013	4.30953
3517.70156	4.35623
3515.77300	4.40000
3513.84443	4.44362
3511.91587	4.49050
3509.98730	4.54180
3508.05874	4.59204
3506.13018	4.63356
3504.20161	4.67223
3502.27305	4.72164
3500.34448	4.77930
3498.41592	4.82930
3496.48735	4.87239
3494.55879	4.91862
3492.63022	4.96880
3490.70166	5.02220
3488.77310	5.07496
3486.84453	5.11832
3484.91597	5.15932
3482.98740	5.20902
3481.05884	5.25925
3479.13027	5.29801
3477.20171	5.33612
3475.27314	5.38965
3473.34458	5.45305
3471.41602	5.50914
3469.48745	5.55221
3467.55889	5.59524
3465.63032	5.64456
3463.70176	5.69138
3461.77319	5.73343
3459.84463	5.78231
3457.91606	5.84130
3455.98750	5.89583
3454.05894	5.94212
3452.13037	5.99814
3450.20181	6.06226
3448.27324	6.11245
3446.34468	6.15675
3444.41611	6.20931
3442.48755	6.26593
3440.55898	6.31458
3438.63042	6.34628
3436.70186	6.37049
3434.77329	6.40582
3432.84473	6.45083
3430.91616	6.49566
3428.98760	6.55669
3427.05903	6.62630
3425.13047	6.67746
3423.20190	6.71718
3421.27334	6.76116
3419.34478	6.80421
3417.41621	6.85169
3415.48765	6.89375
3413.55908	6.91579
3411.63052	6.95491
3409.70195	7.00964
3407.77339	7.05406
3405.84482	7.09825
3403.91626	7.14654
3401.98770	7.18959
3400.05913	7.23246
3398.13057	7.26907
3396.20200	7.31513
3394.27344	7.39394
3392.34487	7.45097
3390.41631	7.46677
3388.48774	7.47356
3386.55918	7.49042
3384.63062	7.51205
3382.70205	7.55744
3380.77349	7.63263
3378.84492	7.66434
3376.91636	7.65559
3374.98779	7.69735
3373.05923	7.78952
3371.13066	7.81963
3369.20210	7.79086
3367.27354	7.78514
3365.34497	7.83956
3363.41641	7.88998
3361.48784	7.85388
3359.55928	7.83290
3357.63071	7.90401
3355.70215	8.00932
3353.77358	8.04446
3351.84502	8.01398
3349.91646	7.97819
3347.98789	7.97444
3346.05933	7.99021
3344.13076	7.94538
3342.20220	7.87991
3340.27363	7.89815
3338.34507	7.95521
3336.41650	7.92731
3334.48794	7.87971
3332.55937	7.90098
3330.63081	7.95264
3328.70225	7.97069
3326.77368	7.96991
3324.84512	8.00337
3322.91655	8.05948
3320.98799	8.12150
3319.05942	8.15661
3317.13086	8.16720
3315.20229	8.14665
3313.27373	8.08540
3311.34517	8.05280
3309.41660	8.05435
3307.48804	8.01416
3305.55947	7.97684
3303.63091	8.01532
3301.70234	8.03239
3299.77378	8.00192
3297.84521	8.01655
3295.91665	8.09319
3293.98809	8.13407
3292.05952	8.08099
3290.13096	8.05835
3288.20239	8.16446
3286.27383	8.29494
3284.34526	8.26285
3282.41670	8.13402
3280.48813	8.08058
3278.55957	8.16091
3276.63101	8.25792
3274.70244	8.21640
3272.77388	8.10945
3270.84531	8.06950
3268.91675	8.11901
3266.98818	8.17399
3265.05962	8.12918
3263.13105	7.99796
3261.20249	7.92546
3259.27393	7.95336
3257.34536	7.98297
3255.41680	7.97038
3253.48823	7.98404
3251.55967	8.08748
3249.63110	8.20619
3247.70254	8.22269
3245.77397	8.16690
3243.84541	8.11744
3241.91685	8.07423
3239.98828	8.01058
3238.05972	7.97572
3236.13115	8.03071
3234.20259	8.07243
3232.27402	8.02578
3230.34546	8.02556
3228.41689	8.07405
3226.48833	8.03439
3224.55977	7.95193
3222.63120	7.94670
3220.70264	7.98715
3218.77407	8.02216
3216.84551	8.02166
3214.91694	7.93131
3212.98838	7.84781
3211.05981	7.84897
3209.13125	7.84171
3207.20269	7.76615
3205.27412	7.68689
3203.34556	7.66148
3201.41699	7.67785
3199.48843	7.69411
3197.55986	7.70599
3195.63130	7.70778
3193.70273	7.64152
3191.77417	7.52846
3189.84561	7.45554
3187.91704	7.41185
3185.98848	7.37433
3184.05991	7.36687
3182.13135	7.34771
3180.20278	7.27753
3178.27422	7.19760
3176.34565	7.14658
3174.41709	7.10371
3172.48853	7.02886
3170.55996	6.93502
3168.63140	6.86489
3166.70283	6.83250
3164.77427	6.80545
3162.84570	6.75284
3160.91714	6.69475
3158.98857	6.64342
3157.06001	6.57696
3155.13145	6.48896
3153.20288	6.38890
3151.27432	6.29917
3149.34575	6.24011
3147.41719	6.19720
3145.48862	6.14314
3143.56006	6.07238
3141.63149	5.99478
3139.70293	5.92340
3137.77437	5.86004
3135.84580	5.78878
3133.91724	5.71151
3131.98867	5.64107
3130.06011	5.57904
3128.13154	5.52186
3126.20298	5.45257
3124.27441	5.36735
3122.34585	5.28560
3120.41729	5.21178
3118.48872	5.13778
3116.56016	5.06786
3114.63159	5.00504
3112.70303	4.94223
3110.77446	4.87768
3108.84590	4.81027
3106.91733	4.73799
3104.98877	4.66804
3103.06021	4.60322
3101.13164	4.53489
3099.20308	4.46385
3097.27451	4.39726
3095.34595	4.33266
3093.41738	4.26686
3091.48882	4.20106
3089.56025	4.13534
3087.63169	4.06949
3085.70312	4.00504
3083.77456	3.94239
3081.84600	3.88113
3079.91743	3.82099
3077.98887	3.76076
3076.06030	3.70008
3074.13174	3.64003
3072.20317	3.58011
3070.27461	3.52030
3068.34604	3.46267
3066.41748	3.40726
3064.48892	3.35296
3062.56035	3.29879
3060.63179	3.24400
3058.70322	3.18971
3056.77466	3.13637
3054.84609	3.08292
3052.91753	3.02976
3050.98896	2.97847
3049.06040	2.92902
3047.13184	2.88012
3045.20327	2.83048
3043.27471	2.78057
3041.34614	2.73248
3039.41758	2.68640
3037.48901	2.64047
3035.56045	2.59389
3033.63188	2.54823
3031.70332	2.50468
3029.77476	2.46215
3027.84619	2.41990
3025.91763	2.37821
3023.98906	2.33696
3022.06050	2.29584
3020.13193	2.25456
3018.20337	2.21395
3016.27480	2.17499
3014.34624	2.13714
3012.41768	2.10001
3010.48911	2.06331
3008.56055	2.02667
3006.63198	1.99027
3004.70342	1.95414
3002.77485	1.91858
3000.84629	1.88397
2998.91772	1.85007
2996.98916	1.81704
2995.06060	1.78497
2993.13203	1.75309
2991.20347	1.72111
2989.27490	1.68969
2987.34634	1.65923
2985.41777	1.62950
2983.48921	1.60034
2981.56064	1.57155
2979.63208	1.54267
2977.70352	1.51405
2975.77495	1.48628
2973.84639	1.45907
2971.91782	1.43215
2969.98926	1.40560
2968.06069	1.37956
2966.13213	1.35416
2964.20356	1.32922
2962.27500	1.30430
2960.34644	1.27966
2958.41787	1.25592
2956.48931	1.23296
2954.56074	1.21022
2952.63218	1.18793
2950.70361	1.16670
2948.77505	1.14635
2946.84648	1.12611
2944.91792	1.10544
2942.98936	1.08469
2941.06079	1.06451
2939.13223	1.04485
2937.20366	1.02556
2935.27510	1.00657
2933.34653	0.98803
2931.41797	0.97017
2929.48940	0.95263
2927.56084	0.93539
2925.63228	0.91882
2923.70371	0.90265
2921.77515	0.88664
2919.84658	0.87124
2917.91802	0.85640
2915.98945	0.84165
2914.06089	0.82677
2912.13232	0.81177
2910.20376	0.79696
2908.27520	0.78274
2906.34663	0.76939
2904.41807	0.75651
2902.48950	0.74353
2900.56094	0.73071
2898.63237	0.71856
2896.70381	0.70688
2894.77524	0.69506
2892.84668	0.68322
2890.91812	0.67184
2888.98955	0.66074
2887.06099	0.64958
2885.13242	0.63857
2883.20386	0.62795
2881.27529	0.61765
2879.34673	0.60736
2877.41816	0.59681
2875.48960	0.58639
2873.56104	0.57654
2871.63247	0.56692
2869.70391	0.55713
2867.77534	0.54742
2865.84678	0.53776
2863.91821	0.52817
2861.98965	0.51895
2860.06108	0.51003
2858.13252	0.50126
2856.20396	0.49279
2854.27539	0.48481
2852.34683	0.47712
2850.41826	0.46959
2848.48970	0.46216
2846.56113	0.45478
2844.63257	0.44756
2842.70400	0.44053
2840.77544	0.43397
2838.84687	0.42803
2836.91831	0.42222
2834.98975	0.41635
2833.06118	0.41057
2831.13262	0.40468
2829.20405	0.39869
2827.27549	0.39284
2825.34692	0.38705
2823.41836	0.38127
2821.48979	0.37558
2819.56123	0.37003
2817.63267	0.36453
2815.70410	0.35914
2813.77554	0.35396
2811.84697	0.34886
2809.91841	0.34369
2807.98984	0.33854
2806.06128	0.33350
2804.13271	0.32857
2802.20415	0.32386
2800.27559	0.31934
2798.34702	0.31491
2796.41846	0.31050
2794.48989	0.30614
2792.56133	0.30187
2790.63276	0.29765
2788.70420	0.29340
2786.77563	0.28920
2784.84707	0.28532
2782.91851	0.28173
2780.98994	0.27807
2779.06138	0.27423
2777.13281	0.27043
2775.20425	0.26680
2773.27568	0.26339
2771.34712	0.26010
2769.41855	0.25676
2767.48999	0.25345
2765.56143	0.25033
2763.63286	0.24736
2761.70430	0.24434
2759.77573	0.24115
2757.84717	0.23802
2755.91860	0.23526
2753.99004	0.23272
2752.06147	0.23017
2750.13291	0.22751
2748.20435	0.22473
2746.27578	0.22196
2744.34722	0.21935
2742.41865	0.21692
2740.49009	0.21472
2738.56152	0.21275
2736.63296	0.21065
2734.70439	0.20829
2732.77583	0.20586
2730.84727	0.20350
2728.91870	0.20135
2726.99014	0.19937
2725.06157	0.19742
2723.13301	0.19554
2721.20444	0.19375
2719.27588	0.19203
2717.34731	0.19027
2715.41875	0.18844
2713.49019	0.18665
2711.56162	0.18502
2709.63306	0.18354
2707.70449	0.18204
2705.77593	0.18040
2703.84736	0.17872
2701.91880	0.17713
2699.99023	0.17562
2698.06167	0.17414
2696.13311	0.17278
2694.20454	0.17157
2692.27598	0.17033
2690.34741	0.16897
2688.41885	0.16761
2686.49028	0.16634
2684.56172	0.16512
2682.63315	0.16401
2680.70459	0.16304
2678.77603	0.16204
2676.84746	0.16093
2674.91890	0.15980
2672.99033	0.15868
2671.06177	0.15759
2669.13320	0.15666
2667.20464	0.15588
2665.27607	0.15510
2663.34751	0.15422
2661.41895	0.15330
2659.49038	0.15246
2657.56182	0.15184
2655.63325	0.15128
2653.70469	0.15062
2651.77612	0.14999
2649.84756	0.14940
2647.91899	0.14867
2645.99043	0.14786
2644.06187	0.14727
2642.13330	0.14686
2640.20474	0.14630
2638.27617	0.14574
2636.34761	0.14553
2634.41904	0.14542
2632.49048	0.14507
2630.56191	0.14462
2628.63335	0.14427
2626.70479	0.14393
2624.77622	0.14352
2622.84766	0.14325
2620.91909	0.14320
2618.99053	0.14316
2617.06196	0.14298
2615.13340	0.14270
2613.20483	0.14251
2611.27627	0.14250
2609.34771	0.14255
2607.41914	0.14258
2605.49058	0.14263
2603.56201	0.14277
2601.63345	0.14290
2599.70488	0.14295
2597.77632	0.14298
2595.84775	0.14301
2593.91919	0.14308
2591.99062	0.14317
2590.06206	0.14323
2588.13350	0.14339
2586.20493	0.14373
2584.27637	0.14397
2582.34780	0.14411
2580.41924	0.14437
2578.49067	0.14475
2576.56211	0.14515
2574.63354	0.14557
2572.70498	0.14605
2570.77642	0.14661
2568.84785	0.14709
2566.91929	0.14745
2564.99072	0.14784
2563.06216	0.14833
2561.13359	0.14880
2559.20503	0.14922
2557.27646	0.14965
2555.34790	0.15017
2553.41934	0.15075
2551.49077	0.15123
2549.56221	0.15168
2547.63364	0.15224
2545.70508	0.15300
2543.77651	0.15387
2541.84795	0.15465
2539.91938	0.15527
2537.99082	0.15591
2536.06226	0.15663
2534.13369	0.15728
2532.20513	0.15785
2530.27656	0.15849
2528.34800	0.15921
2526.41943	0.16000
2524.49087	0.16084
2522.56230	0.16161
2520.63374	0.16240
2518.70518	0.16324
2516.77661	0.16406
2514.84805	0.16487
2512.91948	0.16566
2510.99092	0.16639
2509.06235	0.16714
2507.13379	0.16799
2505.20522	0.16891
2503.27666	0.16980
2501.34810	0.17057
2499.41953	0.17135
2497.49097	0.17226
2495.56240	0.17329
2493.63384	0.17429
2491.70527	0.17512
2489.77671	0.17581
2487.84814	0.17659
2485.91958	0.17758
2483.99102	0.17862
2482.06245	0.17956
2480.13389	0.18052
2478.20532	0.18156
2476.27676	0.18253
2474.34819	0.18336
2472.41963	0.18408
2470.49106	0.18486
2468.56250	0.18578
2466.63394	0.18674
2464.70537	0.18780
2462.77681	0.18895
2460.84824	0.18993
2458.91968	0.19069
2456.99111	0.19149
2455.06255	0.19243
2453.13398	0.19347
2451.20542	0.19458
2449.27686	0.19563
2447.34829	0.19654
2445.41973	0.19747
2443.49116	0.19856
2441.56260	0.19969
2439.63403	0.20073
2437.70547	0.20170
2435.77690	0.20262
2433.84834	0.20357
2431.91978	0.20466
2429.99121	0.20578
2428.06265	0.20683
2426.13408	0.20797
2424.20552	0.20925
2422.27695	0.21053
2420.34839	0.21169
2418.41982	0.21279
2416.49126	0.21389
2414.56270	0.21499
2412.63413	0.21605
2410.70557	0.21718
2408.77700	0.21845
2406.84844	0.21967
2404.91987	0.22076
2402.99131	0.22194
2401.06274	0.22328
2399.13418	0.22455
2397.20562	0.22569
2395.27705	0.22680
2393.34849	0.22803
2391.41992	0.22954
2389.49136	0.23155
2387.56279	0.23467
2385.63423	0.23995
2383.70566	0.24831
2381.77710	0.25991
2379.84854	0.27414
2377.91997	0.29038
2375.99141	0.30884
2374.06284	0.33029
2372.13428	0.35456
2370.20571	0.38058
2368.27715	0.40714
2366.34858	0.43261
2364.42002	0.45466
2362.49146	0.47159
2360.56289	0.48237
2358.63433	0.48415
2356.70576	0.47378
2354.77720	0.45251
2352.84863	0.42537
2350.92007	0.39800
2348.99150	0.38082
2347.06294	0.38124
2345.13437	0.39952
2343.20581	0.42351
2341.27725	0.43558
2339.34868	0.43591
2337.42012	0.43250
2335.49155	0.42919
2333.56299	0.42636
2331.63442	0.42424
2329.70586	0.42186
2327.77729	0.41785
2325.84873	0.41171
2323.92017	0.40443
2321.99160	0.39666
2320.06304	0.38752
2318.13447	0.37718
2316.20591	0.36803
2314.27734	0.36214
2312.34878	0.35890
2310.42021	0.35574
2308.49165	0.35096
2306.56309	0.34515
2304.63452	0.33992
2302.70596	0.33635
2300.77739	0.33422
2298.84883	0.33258
2296.92026	0.33099
2294.99170	0.32949
2293.06313	0.32813
2291.13457	0.32692
2289.20601	0.32590
2287.27744	0.32493
2285.34888	0.32405
2283.42031	0.32409
2281.49175	0.32569
2279.56318	0.32832
2277.63462	0.33101
2275.70605	0.33350
2273.77749	0.33584
2271.84893	0.33792
2269.92036	0.33985
2267.99180	0.34182
2266.06323	0.34384
2264.13467	0.34570
2262.20610	0.34731
2260.27754	0.34886
2258.34897	0.35043
2256.42041	0.35195
2254.49185	0.35358
2252.56328	0.35535
2250.63472	0.35705
2248.70615	0.35861
2246.77759	0.36021
2244.84902	0.36198
2242.92046	0.36397
2240.99189	0.36614
2239.06333	0.36835
2237.13477	0.37048
2235.20620	0.37253
2233.27764	0.37457
2231.34907	0.37662
2229.42051	0.37876
2227.49194	0.38103
2225.56338	0.38325
2223.63481	0.38538
2221.70625	0.38756
2219.77769	0.38977
2217.84912	0.39189
2215.92056	0.39399
2213.99199	0.39616
2212.06343	0.39834
2210.13486	0.40056
2208.20630	0.40279
2206.27773	0.40484
2204.34917	0.40671
2202.42061	0.40863
2200.49204	0.41072
2198.56348	0.41293
2196.63491	0.41503
2194.70635	0.41693
2192.77778	0.41882
2190.84922	0.42074
2188.92065	0.42256
2186.99209	0.42435
2185.06353	0.42619
2183.13496	0.42798
2181.20640	0.42967
2179.27783	0.43125
2177.34927	0.43282
2175.42070	0.43443
2173.49214	0.43600
2171.56357	0.43753
2169.63501	0.43903
2167.70645	0.44042
2165.77788	0.44170
2163.84932	0.44293
2161.92075	0.44413
2159.99219	0.44526
2158.06362	0.44631
2156.13506	0.44733
2154.20649	0.44828
2152.27793	0.44913
2150.34937	0.44996
2148.42080	0.45077
2146.49224	0.45152
2144.56367	0.45217
2142.63511	0.45270
2140.70654	0.45313
2138.77798	0.45350
2136.84941	0.45383
2134.92085	0.45403
2132.99229	0.45404
2131.06372	0.45396
2129.13516	0.45381
2127.20659	0.45365
2125.27803	0.45351
2123.34946	0.45321
2121.42090	0.45275
2119.49233	0.45221
2117.56377	0.45169
2115.63521	0.45113
2113.70664	0.45042
2111.77808	0.44966
2109.84951	0.44892
2107.92095	0.44799
2105.99238	0.44693
2104.06382	0.44596
2102.13525	0.44497
2100.20669	0.44373
2098.27812	0.44221
2096.34956	0.44067
2094.42100	0.43931
2092.49243	0.43799
2090.56387	0.43657
2088.63530	0.43496
2086.70674	0.43317
2084.77817	0.43131
2082.84961	0.42958
2080.92104	0.42786
2078.99248	0.42606
2077.06392	0.42421
2075.13535	0.42222
2073.20679	0.42006
2071.27822	0.41786
2069.34966	0.41570
2067.42109	0.41354
2065.49253	0.41135
2063.56396	0.40908
2061.63540	0.40676
2059.70684	0.40433
2057.77827	0.40182
2055.84971	0.39939
2053.92114	0.39699
2051.99258	0.39451
2050.06401	0.39195
2048.13545	0.38939
2046.20688	0.38687
2044.27832	0.38440
2042.34976	0.38188
2040.42119	0.37919
2038.49263	0.37638
2036.56406	0.37361
2034.63550	0.37093
2032.70693	0.36826
2030.77837	0.36559
2028.84980	0.36293
2026.92124	0.36030
2024.99268	0.35762
2023.06411	0.35488
2021.13555	0.35219
2019.20698	0.34964
2017.27842	0.34714
2015.34985	0.34433
2013.42129	0.34134
2011.49272	0.33849
2009.56416	0.33583
2007.63560	0.33317
2005.70703	0.33043
2003.77847	0.32773
2001.84990	0.32510
1999.92134	0.32247
1997.99277	0.31979
1996.06421	0.31727
1994.13564	0.31515
1992.20708	0.31313
1990.27852	0.31062
1988.34995	0.30787
1986.42139	0.30527
1984.49282	0.30273
1982.56426	0.30023
1980.63569	0.29783
1978.70713	0.29554
1976.77856	0.29331
1974.85000	0.29112
1972.92144	0.28892
1970.99287	0.28679
1969.06431	0.28493
1967.13574	0.28318
1965.20718	0.28104
1963.27861	0.27869
1961.35005	0.27657
1959.42148	0.27462
1957.49292	0.27277
1955.56436	0.27107
1953.63579	0.26934
1951.70723	0.26752
1949.77866	0.26580
1947.85010	0.26431
1945.92153	0.26308
1943.99297	0.26209
1942.06440	0.26083
1940.13584	0.25884
1938.20728	0.25687
1936.27871	0.25545
1934.35015	0.25414
1932.42158	0.25279
1930.49302	0.25150
1928.56445	0.25029
1926.63589	0.24923
1924.70732	0.24860
1922.77876	0.24819
1920.85020	0.24735
1918.92163	0.24635
1916.99307	0.24530
1915.06450	0.24385
1913.13594	0.24261
1911.20737	0.24214
1909.27881	0.24186
1907.35024	0.24109
1905.42168	0.24001
1903.49312	0.23916
1901.56455	0.23852
1899.63599	0.23794
1897.70742	0.23757
1895.77886	0.23741
1893.85029	0.23714
1891.92173	0.23680
1889.99316	0.23682
1888.06460	0.23653
1886.13604	0.23575
1884.20747	0.23514
1882.27891	0.23482
1880.35034	0.23468
1878.42178	0.23461
1876.49321	0.23454
1874.56465	0.23449
1872.63608	0.23483
1870.70752	0.23596
1868.77896	0.23761
1866.85039	0.23796
1864.92183	0.23682
1862.99326	0.23596
1861.06470	0.23593
1859.13613	0.23628
1857.20757	0.23649
1855.27900	0.23671
1853.35044	0.23711
1851.42187	0.23776
1849.49331	0.23870
1847.56475	0.24003
1845.63618	0.24168
1843.70762	0.24305
1841.77905	0.24319
1839.85049	0.24290
1837.92192	0.24340
1835.99336	0.24422
1834.06479	0.24504
1832.13623	0.24645
1830.20767	0.24885
1828.27910	0.25068
1826.35054	0.25121
1824.42197	0.25193
1822.49341	0.25267
1820.56484	0.25344
1818.63628	0.25468
1816.70771	0.25630
1814.77915	0.25791
1812.85059	0.25993
1810.92202	0.26244
1808.99346	0.26452
1807.06489	0.26603
1805.13633	0.26771
1803.20776	0.27023
1801.27920	0.27344
1799.35063	0.27655
1797.42207	0.27888
1795.49351	0.28128
1793.56494	0.28466
1791.63638	0.28871
1789.70781	0.29141
1787.77925	0.29301
1785.85068	0.29582
1783.92212	0.29971
1781.99355	0.30396
1780.06499	0.30830
1778.13643	0.31240
1776.20786	0.31651
1774.27930	0.32176
1772.35073	0.32886
1770.42217	0.33522
1768.49360	0.33949
1766.56504	0.34359
1764.63647	0.34833
1762.70791	0.35431
1760.77935	0.36203
1758.85078	0.36904
1756.92222	0.37602
1754.99365	0.38350
1753.06509	0.39064
1751.13652	0.40007
1749.20796	0.41195
1747.27939	0.42258
1745.35083	0.43128
1743.42227	0.44063
1741.49370	0.45121
1739.56514	0.46363
1737.63657	0.47594
1735.70801	0.48725
1733.77944	0.50463
1731.85088	0.52395
1729.92231	0.53806
1727.99375	0.55244
1726.06519	0.56856
1724.13662	0.58703
1722.20806	0.60725
1720.27949	0.62624
1718.35093	0.64941
1716.42236	0.68288
1714.49380	0.71225
1712.56523	0.73487
1710.63667	0.75747
1708.70811	0.78276
1706.77954	0.81216
1704.85098	0.84697
1702.92241	0.87751
1700.99385	0.90795
1699.06528	0.95341
1697.13672	0.99440
1695.20815	1.03480
1693.27959	1.07286
1691.35103	1.10354
1689.42246	1.14003
1687.49390	1.17888
1685.56533	1.21666
1683.63677	1.27428
1681.70820	1.33177
1679.77964	1.36720
1677.85107	1.40146
1675.92251	1.44183
1673.99395	1.49184
1672.06538	1.53596
1670.13682	1.57887
1668.20825	1.63371
1666.27969	1.67744
1664.35112	1.71393
1662.42256	1.75846
1660.49399	1.80702
1658.56543	1.84467
1656.63687	1.87715
1654.70830	1.91091
1652.77974	1.96816
1650.85117	2.02201
1648.92261	2.04284
1646.99404	2.07102
1645.06548	2.10409
1643.13691	2.12673
1641.20835	2.14231
1639.27979	2.15630
1637.35122	2.16593
1635.42266	2.17023
1633.49409	2.16762
1631.56553	2.15832
1629.63696	2.14528
1627.70840	2.12138
1625.77983	2.09274
1623.85127	2.05722
1621.92271	2.01357
1619.99414	1.97430
1618.06558	1.93525
1616.13701	1.87859
1614.20845	1.81964
1612.27988	1.77388
1610.35132	1.72603
1608.42275	1.67397
1606.49419	1.62165
1604.56562	1.57286
1602.63706	1.52580
1600.70850	1.47951
1598.77993	1.43662
1596.85137	1.39632
1594.92280	1.35706
1592.99424	1.31882
1591.06567	1.28359
1589.13711	1.25034
1587.20854	1.21883
1585.27998	1.18920
1583.35142	1.16116
1581.42285	1.13528
1579.49429	1.11312
1577.56572	1.09345
1575.63716	1.06817
1573.70859	1.04366
1571.78003	1.02700
1569.85146	1.00925
1567.92290	0.98783
1565.99434	0.96993
1564.06577	0.95485
1562.13721	0.94270
1560.20864	0.93332
1558.28008	0.91575
1556.35151	0.89608
1554.42295	0.88289
1552.49438	0.87060
1550.56582	0.85922
1548.63726	0.84799
1546.70869	0.83852
1544.78013	0.83142
1542.85156	0.82539
1540.92300	0.81771
1538.99443	0.80361
1537.06587	0.79190
1535.13730	0.78530
1533.20874	0.77833
1531.28018	0.76987
1529.35161	0.76327
1527.42305	0.75798
1525.49448	0.75286
1523.56592	0.74823
1521.63735	0.74314
1519.70879	0.73646
1517.78022	0.73042
1515.85166	0.72408
1513.92310	0.71762
1511.99453	0.71307
1510.06597	0.71059
1508.13740	0.70976
1506.20884	0.70534
1504.28027	0.69683
1502.35171	0.69138
1500.42314	0.68813
1498.49458	0.68570
1496.56602	0.68235
1494.63745	0.67807
1492.70889	0.67504
1490.78032	0.67366
1488.85176	0.67168
1486.92319	0.66756
1484.99463	0.66335
1483.06606	0.66022
1481.13750	0.65772
1479.20894	0.65544
1477.28037	0.65388
1475.35181	0.65311
1473.42324	0.65223
1471.49468	0.64914
1469.56611	0.64474
1467.63755	0.64174
1465.70898	0.64021
1463.78042	0.63860
1461.85186	0.63674
1459.92329	0.63620
1457.99473	0.63690
1456.06616	0.63533
1454.13760	0.63103
1452.20903	0.62760
1450.28047	0.62519
1448.35190	0.62348
1446.42334	0.62159
1444.49478	0.61930
1442.56621	0.61729
1440.63765	0.61582
1438.70908	0.61522
1436.78052	0.61521
1434.85195	0.61416
1432.92339	0.61230
1430.99482	0.61103
1429.06626	0.60989
1427.13770	0.60844
1425.20913	0.60739
1423.28057	0.60670
1421.35200	0.60594
1419.42344	0.60541
1417.49487	0.60408
1415.56631	0.60128
1413.63774	0.59860
1411.70918	0.59645
1409.78062	0.59443
1407.85205	0.59272
1405.92349	0.59150
1403.99492	0.58997
1402.06636	0.58807
1400.13779	0.58688
1398.20923	0.58620
1396.28066	0.58520
1394.35210	0.58361
1392.42354	0.58153
1390.49497	0.57985
1388.56641	0.57897
1386.63784	0.57819
1384.70928	0.57684
1382.78071	0.57548
1380.85215	0.57460
1378.92358	0.57412
1376.99502	0.57391
1375.06646	0.57399
1373.13789	0.57365
1371.20933	0.57265
1369.28076	0.57183
1367.35220	0.57125
1365.42363	0.57073
1363.49507	0.57039
1361.56650	0.56959
1359.63794	0.56794
1357.70937	0.56633
1355.78081	0.56514
1353.85225	0.56401
1351.92368	0.56282
1349.99512	0.56182
1348.06655	0.56087
1346.13799	0.55971
1344.20942	0.55852
1342.28086	0.55783
1340.35229	0.55768
1338.42373	0.55700
1336.49517	0.55533
1334.56660	0.55362
1332.63804	0.55236
1330.70947	0.55141
1328.78091	0.55057
1326.85234	0.54983
1324.92378	0.54926
1322.99521	0.54880
1321.06665	0.54840
1319.13809	0.54798
1317.20952	0.54735
1315.28096	0.54654
1313.35239	0.54569
1311.42383	0.54465
1309.49526	0.54340
1307.56670	0.54210
1305.63813	0.54085
1303.70957	0.53968
1301.78101	0.53860
1299.85244	0.53769
1297.92388	0.53695
1295.99531	0.53625
1294.06675	0.53558
1292.13818	0.53506
1290.20962	0.53452
1288.28105	0.53385
1286.35249	0.53315
1284.42393	0.53254
1282.49536	0.53208
1280.56680	0.53170
1278.63823	0.53117
1276.70967	0.53047
1274.78110	0.52980
1272.85254	0.52930
1270.92397	0.52899
1268.99541	0.52878
1267.06685	0.52851
1265.13828	0.52805
1263.20972	0.52755
1261.28115	0.52716
1259.35259	0.52677
1257.42402	0.52624
1255.49546	0.52577
1253.56689	0.52550
1251.63833	0.52530
1249.70977	0.52501
1247.78120	0.52469
1245.85264	0.52431
1243.92407	0.52377
1241.99551	0.52313
1240.06694	0.52250
1238.13838	0.52200
1236.20981	0.52157
1234.28125	0.52105
1232.35269	0.52046
1230.42412	0.51986
1228.49556	0.51924
1226.56699	0.51858
1224.63843	0.51780
1222.70986	0.51693
1220.78130	0.51606
1218.85273	0.51514
1216.92417	0.51423
1214.99561	0.51350
1213.06704	0.51298
1211.13848	0.51262
1209.20991	0.51229
1207.28135	0.51187
1205.35278	0.51135
1203.42422	0.51075
1201.49565	0.51014
1199.56709	0.50954
1197.63853	0.50890
1195.70996	0.50813
1193.78140	0.50726
1191.85283	0.50638
1189.92427	0.50564
1187.99570	0.50522
1186.06714	0.50497
1184.13857	0.50466
1182.21001	0.50445
1180.28145	0.50452
1178.35288	0.50482
1176.42432	0.50533
1174.49575	0.50605
1172.56719	0.50687
1170.63862	0.50773
1168.71006	0.50870
1166.78149	0.50964
1164.85293	0.51052
1162.92437	0.51134
1160.99580	0.51210
1159.06724	0.51280
1157.13867	0.51310
1155.21011	0.51277
1153.28154	0.51198
1151.35298	0.51077
1149.42441	0.50890
1147.49585	0.50649
1145.56729	0.50391
1143.63872	0.50138
1141.71016	0.49899
1139.78159	0.49688
1137.85303	0.49530
1135.92446	0.49417
1133.99590	0.49329
1132.06733	0.49277
1130.13877	0.49259
1128.21021	0.49235
1126.28164	0.49198
1124.35308	0.49168
1122.42451	0.49140
1120.49595	0.49108
1118.56738	0.49094
1116.63882	0.49121
1114.71025	0.49177
1112.78169	0.49238
1110.85312	0.49320
1108.92456	0.49434
1106.99600	0.49552
1105.06743	0.49647
1103.13887	0.49716
1101.21030	0.49780
1099.28174	0.49866
1097.35317	0.50002
1095.42461	0.50225
1093.49604	0.50581
1091.56748	0.51111
1089.63892	0.51808
1087.71035	0.52610
1085.78179	0.53465
1083.85322	0.54356
1081.92466	0.55203
1079.99609	0.55835
1078.06753	0.56129
1076.13896	0.56083
1074.21040	0.55734
1072.28184	0.55148
1070.35327	0.54439
1068.42471	0.53714
1066.49614	0.53032
1064.56758	0.52428
1062.63901	0.51927
1060.71045	0.51510
1058.78188	0.51146
1056.85332	0.50828
1054.92476	0.50546
1052.99619	0.50295
1051.06763	0.50112
1049.13906	0.50027
1047.21050	0.50034
1045.28193	0.50119
1043.35337	0.50248
1041.42480	0.50366
1039.49624	0.50450
1037.56768	0.50537
1035.63911	0.50617
1033.71055	0.50607
1031.78198	0.50470
1029.85342	0.50268
1027.92485	0.50064
1025.99629	0.49867
1024.06772	0.49700
1022.13916	0.49607
1020.21060	0.49578
1018.28203	0.49555
1016.35347	0.49520
1014.42490	0.49488
1012.49634	0.49472
1010.56777	0.49463
1008.63921	0.49440
1006.71064	0.49432
1004.78208	0.49486
1002.85352	0.49621
1000.92495	0.49832
998.99639	0.50120
997.06782	0.50499
995.13926	0.50935
993.21069	0.51353
991.28213	0.51683
989.35356	0.51885
987.42500	0.51953
985.49644	0.51935
983.56787	0.51909
981.63931	0.51928
979.71074	0.52000
977.78218	0.52132
975.85361	0.52341
973.92505	0.52605
971.99648	0.52892
970.06792	0.53216
968.13936	0.53578
966.21079	0.53964
964.28223	0.54393
962.35366	0.54855
960.42510	0.55315
958.49653	0.55807
956.56797	0.56377
954.63940	0.56989
952.71084	0.57598
950.78228	0.58219
948.85371	0.58857
946.92515	0.59472
944.99658	0.60042
943.06802	0.60615
941.13945	0.61229
939.21089	0.61841
937.28232	0.62411
935.35376	0.62950
933.42520	0.63496
931.49663	0.64095
929.56807	0.64703
927.63950	0.65259
925.71094	0.65824
923.78237	0.66425
921.85381	0.67006
919.92524	0.67597
917.99668	0.68263
916.06812	0.68989
914.13955	0.69762
912.21099	0.70565
910.28242	0.71379
908.35386	0.72204
906.42529	0.72998
904.49673	0.73758
902.56816	0.74583
900.63960	0.75538
898.71104	0.76524
896.78247	0.77443
894.85391	0.78381
892.92534	0.79384
890.99678	0.80337
889.06821	0.81241
887.13965	0.82255
885.21108	0.83455
883.28252	0.84738
881.35396	0.85962
879.42539	0.87051
877.49683	0.87985
875.56826	0.88967
873.63970	0.90197
871.71113	0.91431
869.78257	0.92405
867.85400	0.93375
865.92544	0.94498
863.99687	0.95557
862.06831	0.96604
860.13975	0.97774
858.21118	0.98988
856.28262	1.00097
854.35405	1.01139
852.42549	1.02370
850.49692	1.03768
848.56836	1.05008
846.63979	1.05940
844.71123	1.06790
842.78267	1.07948
840.85410	1.09364
838.92554	1.10408
836.99697	1.11071
835.06841	1.11850
833.13984	1.12825
831.21128	1.14010
829.28271	1.15224
827.35415	1.16236
825.42559	1.17054
823.49702	1.17863
821.56846	1.18890
819.63989	1.20345
817.71133	1.21968
815.78276	1.22770
813.85420	1.22693
811.92563	1.22533
809.99707	1.23010
808.06851	1.24547
806.13994	1.26519
804.21138	1.27686
802.28281	1.27464
800.35425	1.27146
798.42568	1.28529
796.49712	1.29417
794.56855	1.27155
792.63999	1.26418
790.71143	1.31194
788.78286	1.36413
786.85430	1.34382
784.92573	1.30427
782.99717	1.29804
781.06860	1.31472
779.14004	1.33127
777.21147	1.33903
775.28291	1.34036
773.35435	1.30600
771.42578	1.25935
769.49722	1.24699
767.56865	1.22925
765.64009	1.16871
763.71152	1.14102
761.78296	1.17287
759.85439	1.20447
757.92583	1.22183
755.99727	1.20194
754.06870	1.15076
752.14014	1.14053
750.21157	1.11470
748.28301	1.04794
746.35444	1.05141
744.42588	1.10566
742.49731	1.05073
740.56875	0.93679
738.64019	0.86427
736.71162	0.78818
734.78306	0.67416
732.85449	0.54459
730.92593	0.42416
728.99736	0.36734
727.06880	0.35507
725.14023	0.31644
723.21167	0.26446
721.28311	0.15441
719.35454	0.04454
717.42598	0.09125
715.49741	0.13733
713.56885	0.00842
711.64028	-0.12971
709.71172	-0.19880
707.78315	-0.11729
705.85459	0.01643
703.92603	0.09323
701.99746	0.13542
700.06890	0.15858
698.14033	0.13338
696.21177	0.08348
694.28320	0.10637
692.35464	0.18208
690.42607	0.20810
688.49751	0.19088
686.56895	0.23105
684.64038	0.32348
682.71182	0.30369
680.78325	0.18241
678.85469	0.15328
676.92612	0.16850
674.99756	0.12106
673.06899	0.08374
671.14043	0.12348
669.21187	0.19872
667.28330	0.23145
665.35474	0.21292
663.42617	0.19595
661.49761	0.21621
659.56904	0.31936
657.64048	0.54629
655.71191	1.21064
653.78335	0.71169
651.85479	0.31483
649.92622	0.22548
647.99766	0.22690
646.06909	0.22715
644.14053	0.25290
642.21196	0.29472
640.28340	0.27688
638.35483	0.23004
636.42627	0.22625
634.49771	0.25046
632.56914	0.19591
630.64058	0.11746
628.71201	0.12056
626.78345	0.18968
624.85488	0.28185
622.92632	0.30447
620.99775	0.25276
619.06919	0.20854
617.14062	0.18294
615.21206	0.18075
613.28350	0.19918
611.35493	0.16671
609.42637	0.12351
607.49780	0.13390
605.56924	0.16418
603.64067	0.17769
601.71211	0.20087
599.78354	0.20904
597.85498	0.16518
595.92642	0.13185
593.99785	0.21610
592.06929	0.40519
590.14072	0.39810
588.21216	0.26066
586.28359	0.24037
584.35503	0.32985
582.42646	0.36931
580.49790	0.24923
578.56934	0.20698
576.64077	0.26231
574.71221	0.31704
572.78364	0.31215
570.85508	0.28993
568.92651	0.26288
566.99795	0.27277
565.06938	0.32747
563.14082	0.29744
561.21226	0.24324
559.28369	0.24234
557.35513	0.24845
555.42656	0.24535
553.49800	0.24924
551.56943	0.27061
549.64087	0.29945
547.71230	0.26412
545.78374	0.18890
543.85518	0.13441
541.92661	0.10532
539.99805	0.09919
538.06948	0.14945
536.14092	0.27424
534.21235	0.34346
532.28379	0.29176
530.35522	0.25863
528.42666	0.24549
526.49810	0.21022
524.56953	0.15415
522.64097	0.10645
520.71240	0.11613
518.78384	0.18931
516.85527	0.25080
514.92671	0.22565
512.99814	0.17549
511.06958	0.14778
509.14102	0.16225
507.21245	0.20671
505.28389	0.23868
503.35532	0.22413
501.42676	0.19679
499.49819	0.20407
