3997.91411	0.07567
3995.98555	0.07572
3994.05698	0.07626
3992.12842	0.07698
3990.19985	0.07748
3988.27129	0.07768
3986.34272	0.07774
3984.41416	0.07783
3982.48560	0.07783
3980.55703	0.07780
3978.62847	0.07805
3976.69990	0.07847
3974.77134	0.07868
3972.84277	0.07873
3970.91421	0.07887
3968.98564	0.07906
3967.05708	0.07925
3965.12852	0.07942
3963.19995	0.07951
3961.27139	0.07967
3959.34282	0.08000
3957.41426	0.08021
3955.48569	0.08001
3953.55713	0.07968
3951.62856	0.07983
3949.70000	0.08030
3947.77144	0.08035
3945.84287	0.08014
3943.91431	0.08032
3941.98574	0.08060
3940.05718	0.08049
3938.12861	0.08032
3936.20005	0.08034
3934.27148	0.08054
3932.34292	0.08104
3930.41436	0.08151
3928.48579	0.08127
3926.55723	0.08065
3924.62866	0.08053
3922.70010	0.08082
3920.77153	0.08087
3918.84297	0.08059
3916.91440	0.08033
3914.98584	0.07992
3913.05728	0.07925
3911.12871	0.07898
3909.20015	0.07928
3907.27158	0.07994
3905.34302	0.08110
3903.41445	0.08258
3901.48589	0.08321
3899.55732	0.08273
3897.62876	0.08187
3895.70020	0.08096
3893.77163	0.08057
3891.84307	0.08120
3889.91450	0.08201
3887.98594	0.08179
3886.05737	0.08148
3884.12881	0.08162
3882.20024	0.08172
3880.27168	0.08198
3878.34312	0.08201
3876.41455	0.08171
3874.48599	0.08222
3872.55742	0.08329
3870.62886	0.08391
3868.70029	0.08436
3866.77173	0.08465
3864.84316	0.08497
3862.91460	0.08498
3860.98604	0.08392
3859.05747	0.08326
3857.12891	0.08389
3855.20034	0.08540
3853.27178	0.08790
3851.34321	0.08949
3849.41465	0.08804
3847.48608	0.08662
3845.55752	0.08661
3843.62896	0.08784
3841.70039	0.08988
3839.77183	0.09203
3837.84326	0.09344
3835.91470	0.09319
3833.98613	0.09217
3832.05757	0.09185
3830.12900	0.09222
3828.20044	0.09276
3826.27187	0.09349
3824.34331	0.09451
3822.41475	0.09622
3820.48618	0.09892
3818.55762	0.10028
3816.62905	0.10007
3814.70049	0.10003
3812.77192	0.09966
3810.84336	0.09962
3808.91479	0.10084
3806.98623	0.10294
3805.05767	0.10471
3803.12910	0.10580
3801.20054	0.10736
3799.27197	0.10894
3797.34341	0.10967
3795.41484	0.11027
3793.48628	0.11047
3791.55771	0.11050
3789.62915	0.11106
3787.70059	0.11221
3785.77202	0.11378
3783.84346	0.11549
3781.91489	0.11721
3779.98633	0.11948
3778.05776	0.12182
3776.12920	0.12283
3774.20063	0.12353
3772.27207	0.12525
3770.34351	0.12791
3768.41494	0.13054
3766.48638	0.13234
3764.55781	0.13421
3762.62925	0.13623
3760.70068	0.13827
3758.77212	0.14109
3756.84355	0.14411
3754.91499	0.14650
3752.98643	0.14937
3751.05786	0.15403
3749.12930	0.15868
3747.20073	0.16054
3745.27217	0.16225
3743.34360	0.16532
3741.41504	0.16772
3739.48647	0.16947
3737.55791	0.17220
3735.62935	0.17689
3733.70078	0.18285
3731.77222	0.18675
3729.84365	0.18869
3727.91509	0.19133
3725.98652	0.19630
3724.05796	0.20322
3722.12939	0.21072
3720.20083	0.21864
3718.27227	0.22678
3716.34370	0.23513
3714.41514	0.24372
3712.48657	0.25376
3710.55801	0.26708
3708.62944	0.28060
3706.70088	0.29148
3704.77231	0.30215
3702.84375	0.31518
3700.91519	0.33234
3698.98662	0.35089
3697.05806	0.36850
3695.12949	0.38752
3693.20093	0.40803
3691.27236	0.43086
3689.34380	0.46066
3687.41523	0.49599
3685.48667	0.52585
3683.55811	0.55159
3681.62954	0.57962
3679.70098	0.61160
3677.77241	0.64556
3675.84385	0.68605
3673.91528	0.74081
3671.98672	0.78519
3670.05815	0.82389
3668.12959	0.87733
3666.20103	0.92614
3664.27246	0.96650
3662.34390	1.00990
3660.41533	1.05744
3658.48677	1.10473
3656.55820	1.15484
3654.62964	1.21059
3652.70107	1.25750
3650.77251	1.29880
3648.84395	1.35675
3646.91538	1.42709
3644.98682	1.47674
3643.05825	1.51462
3641.12969	1.55436
3639.20112	1.59851
3637.27256	1.64252
3635.34399	1.68507
3633.41543	1.72788
3631.48687	1.76816
3629.55830	1.80892
3627.62974	1.86338
3625.70117	1.91530
3623.77261	1.94995
3621.84404	1.98294
3619.91548	2.02193
3617.98691	2.07000
3616.05835	2.11493
3614.12979	2.15129
3612.20122	2.19044
3610.27266	2.23024
3608.34409	2.26959
3606.41553	2.31108
3604.48696	2.35010
3602.55840	2.38551
3600.62983	2.42409
3598.70127	2.46647
3596.77271	2.50772
3594.84414	2.54869
3592.91558	2.59053
3590.98701	2.62982
3589.05845	2.66553
3587.12988	2.70768
3585.20132	2.75534
3583.27275	2.79653
3581.34419	2.83526
3579.41562	2.87740
3577.48706	2.92137
3575.55850	2.96377
3573.62993	3.00661
3571.70137	3.04959
3569.77280	3.09136
3567.84424	3.13495
3565.91567	3.18587
3563.98711	3.23463
3562.05854	3.27586
3560.12998	3.31792
3558.20142	3.36316
3556.27285	3.40936
3554.34429	3.45415
3552.41572	3.50088
3550.48716	3.54831
3548.55859	3.59213
3546.63003	3.63664
3544.70146	3.68617
3542.77290	3.73588
3540.84434	3.78276
3538.91577	3.82857
3536.98721	3.87329
3535.05864	3.91877
3533.13008	3.96497
3531.20151	4.01200
3529.27295	4.06058
3527.34438	4.11337
3525.41582	4.16651
3523.48726	4.21230
3521.55869	4.25450
3519.63013	4.29869
3517.70156	4.34818
3515.77300	4.39964
3513.84443	4.44854
3511.91587	4.49901
3509.98730	4.55318
3508.05874	4.60305
3506.13018	4.64547
3504.20161	4.68792
3502.27305	4.73408
3500.34448	4.78304
3498.41592	4.83322
3496.48735	4.88289
3494.55879	4.93068
3492.63022	4.97849
3490.70166	5.02850
3488.77310	5.07761
3486.84453	5.12294
3484.91597	5.16824
3482.98740	5.21944
3481.05884	5.27243
3479.13027	5.31441
3477.20171	5.35319
3475.27314	5.40644
3473.34458	5.46879
3471.41602	5.52390
3469.48745	5.57145
3467.55889	5.62378
3465.63032	5.67585
3463.70176	5.71548
3461.77319	5.75701
3459.84463	5.81594
3457.91606	5.86986
3455.98750	5.89993
3454.05894	5.92762
3452.13037	5.97541
3450.20181	6.03166
3448.27324	6.07319
3446.34468	6.11136
3444.41611	6.17017
3442.48755	6.24741
3440.55898	6.31243
3438.63042	6.34628
3436.70186	6.37580
3434.77329	6.43260
3432.84473	6.50909
3430.91616	6.58184
3428.98760	6.63904
3427.05903	6.67796
3425.13047	6.72000
3423.20190	6.76290
3421.27334	6.80230
3419.34478	6.85725
3417.41621	6.92934
3415.48765	6.98946
3413.55908	7.01311
3411.63052	7.03537
3409.70195	7.07177
3407.77339	7.12118
3405.84482	7.20123
3403.91626	7.28721
3401.98770	7.33402
3400.05913	7.36384
3398.13057	7.41197
3396.20200	7.47474
3394.27344	7.50960
3392.34487	7.48594
3390.41631	7.48248
3388.48774	7.52256
3386.55918	7.56204
3384.63062	7.60964
3382.70205	7.70025
3380.77349	7.78906
3378.84492	7.79807
3376.91636	7.75984
3374.98779	7.74704
3373.05923	7.79873
3371.13066	7.85756
3369.20210	7.87878
3367.27354	7.85667
3365.34497	7.81595
3363.41641	7.82421
3361.48784	7.86818
3359.55928	7.88806
3357.63071	7.89599
3355.70215	7.96065
3353.77358	8.04359
3351.84502	8.08224
3349.91646	8.08499
3347.98789	8.05443
3346.05933	7.99984
3344.13076	7.99479
3342.20220	8.02557
3340.27363	7.99082
3338.34507	8.00539
3336.41650	8.15207
3334.48794	8.27831
3332.55937	8.29060
3330.63081	8.27720
3328.70225	8.25351
3326.77368	8.23174
3324.84512	8.23018
3322.91655	8.19121
3320.98799	8.14653
3319.05942	8.13039
3317.13086	8.09615
3315.20229	8.02286
3313.27373	8.00994
3311.34517	8.07506
3309.41660	8.12485
3307.48804	8.19003
3305.55947	8.30533
3303.63091	8.38998
3301.70234	8.41152
3299.77378	8.38389
3297.84521	8.32560
3295.91665	8.31287
3293.98809	8.23557
3292.05952	8.09569
3290.13096	8.09010
3288.20239	8.18840
3286.27383	8.27880
3284.34526	8.32463
3282.41670	8.34942
3280.48813	8.41726
3278.55957	8.52878
3276.63101	8.58375
3274.70244	8.54388
3272.77388	8.45093
3270.84531	8.37219
3268.91675	8.37114
3266.98818	8.36684
3265.05962	8.31064
3263.13105	8.29456
3261.20249	8.32336
3259.27393	8.28453
3257.34536	8.15286
3255.41680	7.99271
3253.48823	7.95517
3251.55967	8.10878
3249.63110	8.28614
3247.70254	8.38470
3245.77397	8.45325
3243.84541	8.47567
3241.91685	8.44299
3239.98828	8.38021
3238.05972	8.27764
3236.13115	8.14862
3234.20259	8.11664
3232.27402	8.29150
3230.34546	8.52766
3228.41689	8.48139
3226.48833	8.22285
3224.55977	8.03580
3222.63120	7.96689
3220.70264	7.93743
3218.77407	7.99338
3216.84551	8.19372
3214.91694	8.35299
3212.98838	8.32493
3211.05981	8.23225
3209.13125	8.10121
3207.20269	7.92816
3205.27412	7.83826
3203.34556	7.86970
3201.41699	7.94126
3199.48843	7.93473
3197.55986	7.78582
3195.63130	7.62220
3193.70273	7.57582
3191.77417	7.61630
3189.84561	7.63054
3187.91704	7.57933
3185.98848	7.52565
3184.05991	7.47907
3182.13135	7.38924
3180.20278	7.29921
3178.27422	7.25255
3176.34565	7.18705
3174.41709	7.09140
3172.48853	7.02965
3170.55996	6.99180
3168.63140	6.93867
3166.70283	6.89976
3164.77427	6.88176
3162.84570	6.82369
3160.91714	6.72061
3158.98857	6.62501
3157.06001	6.55766
3155.13145	6.51062
3153.20288	6.45896
3151.27432	6.38265
3149.34575	6.28890
3147.41719	6.20323
3145.48862	6.14388
3143.56006	6.09332
3141.63149	6.02291
3139.70293	5.94260
3137.77437	5.87444
3135.84580	5.81588
3133.91724	5.75485
3131.98867	5.67657
3130.06011	5.58895
3128.13154	5.51271
3126.20298	5.44264
3124.27441	5.37173
3122.34585	5.30104
3120.41729	5.22950
3118.48872	5.16017
3116.56016	5.09119
3114.63159	5.01600
3112.70303	4.94158
3110.77446	4.87514
3108.84590	4.81156
3106.91733	4.74538
3104.98877	4.67473
3103.06021	4.60232
3101.13164	4.53206
3099.20308	4.46462
3097.27451	4.39901
3095.34595	4.33527
3093.41738	4.27277
3091.48882	4.21161
3089.56025	4.15172
3087.63169	4.08876
3085.70312	4.02227
3083.77456	3.95684
3081.84600	3.89489
3079.91743	3.83423
3077.98887	3.77365
3076.06030	3.71465
3074.13174	3.65570
3072.20317	3.59646
3070.27461	3.53918
3068.34604	3.48338
3066.41748	3.42725
3064.48892	3.37081
3062.56035	3.31520
3060.63179	3.26046
3058.70322	3.20585
3056.77466	3.15175
3054.84609	3.09871
3052.91753	3.04664
3050.98896	2.99586
3049.06040	2.94646
3047.13184	2.89830
3045.20327	2.85074
3043.27471	2.80288
3041.34614	2.75473
3039.41758	2.70693
3037.48901	2.66014
3035.56045	2.61490
3033.63188	2.57064
3031.70332	2.52606
3029.77476	2.48199
3027.84619	2.43965
3025.91763	2.39788
3023.98906	2.35543
3022.06050	2.31326
3020.13193	2.27342
3018.20337	2.23499
3016.27480	2.19572
3014.34624	2.15667
3012.41768	2.11926
3010.48911	2.08239
3008.56055	2.04546
3006.63198	2.00915
3004.70342	1.97349
3002.77485	1.93844
3000.84629	1.90441
2998.91772	1.87119
2996.98916	1.83883
2995.06060	1.80730
2993.13203	1.77576
2991.20347	1.74448
2989.27490	1.71420
2987.34634	1.68475
2985.41777	1.65576
2983.48921	1.62704
2981.56064	1.59855
2979.63208	1.57062
2977.70352	1.54327
2975.77495	1.51600
2973.84639	1.48892
2971.91782	1.46295
2969.98926	1.43838
2968.06069	1.41411
2966.13213	1.38937
2964.20356	1.36487
2962.27500	1.34112
2960.34644	1.31778
2958.41787	1.29472
2956.48931	1.27230
2954.56074	1.25032
2952.63218	1.22825
2950.70361	1.20628
2948.77505	1.18455
2946.84648	1.16334
2944.91792	1.14327
2942.98936	1.12387
2941.06079	1.10436
2939.13223	1.08482
2937.20366	1.06575
2935.27510	1.04727
2933.34653	1.02919
2931.41797	1.01181
2929.48940	0.99524
2927.56084	0.97846
2925.63228	0.96095
2923.70371	0.94365
2921.77515	0.92735
2919.84658	0.91138
2917.91802	0.89499
2915.98945	0.87863
2914.06089	0.86245
2912.13232	0.84638
2910.20376	0.83095
2908.27520	0.81625
2906.34663	0.80194
2904.41807	0.78804
2902.48950	0.77488
2900.56094	0.76229
2898.63237	0.74975
2896.70381	0.73721
2894.77524	0.72478
2892.84668	0.71262
2890.91812	0.70086
2888.98955	0.68943
2887.06099	0.67824
2885.13242	0.66740
2883.20386	0.65677
2881.27529	0.64626
2879.34673	0.63618
2877.41816	0.62648
2875.48960	0.61674
2873.56104	0.60672
2871.63247	0.59655
2869.70391	0.58644
2867.77534	0.57626
2865.84678	0.56606
2863.91821	0.55618
2861.98965	0.54670
2860.06108	0.53741
2858.13252	0.52833
2856.20396	0.51951
2854.27539	0.51100
2852.34683	0.50295
2850.41826	0.49510
2848.48970	0.48697
2846.56113	0.47853
2844.63257	0.47027
2842.70400	0.46269
2840.77544	0.45575
2838.84687	0.44922
2836.91831	0.44287
2834.98975	0.43662
2833.06118	0.43058
2831.13262	0.42472
2829.20405	0.41886
2827.27549	0.41301
2825.34692	0.40708
2823.41836	0.40079
2821.48979	0.39449
2819.56123	0.38872
2817.63267	0.38327
2815.70410	0.37772
2813.77554	0.37226
2811.84697	0.36698
2809.91841	0.36161
2807.98984	0.35619
2806.06128	0.35091
2804.13271	0.34590
2802.20415	0.34112
2800.27559	0.33642
2798.34702	0.33181
2796.41846	0.32726
2794.48989	0.32268
2792.56133	0.31822
2790.63276	0.31386
2788.70420	0.30946
2786.77563	0.30522
2784.84707	0.30124
2782.91851	0.29735
2780.98994	0.29348
2779.06138	0.28969
2777.13281	0.28591
2775.20425	0.28207
2773.27568	0.27832
2771.34712	0.27478
2769.41855	0.27143
2767.48999	0.26813
2765.56143	0.26469
2763.63286	0.26129
2761.70430	0.25814
2759.77573	0.25509
2757.84717	0.25201
2755.91860	0.24895
2753.99004	0.24594
2752.06147	0.24311
2750.13291	0.24049
2748.20435	0.23793
2746.27578	0.23532
2744.34722	0.23266
2742.41865	0.23002
2740.49009	0.22748
2738.56152	0.22499
2736.63296	0.22253
2734.70439	0.22023
2732.77583	0.21801
2730.84727	0.21579
2728.91870	0.21365
2726.99014	0.21156
2725.06157	0.20945
2723.13301	0.20740
2721.20444	0.20541
2719.27588	0.20348
2717.34731	0.20160
2715.41875	0.19973
2713.49019	0.19792
2711.56162	0.19623
2709.63306	0.19464
2707.70449	0.19304
2705.77593	0.19139
2703.84736	0.18974
2701.91880	0.18825
2699.99023	0.18682
2698.06167	0.18539
2696.13311	0.18401
2694.20454	0.18264
2692.27598	0.18134
2690.34741	0.17999
2688.41885	0.17847
2686.49028	0.17705
2684.56172	0.17582
2682.63315	0.17465
2680.70459	0.17346
2678.77603	0.17233
2676.84746	0.17136
2674.91890	0.17032
2672.99033	0.16907
2671.06177	0.16795
2669.13320	0.16696
2667.20464	0.16588
2665.27607	0.16486
2663.34751	0.16405
2661.41895	0.16331
2659.49038	0.16249
2657.56182	0.16163
2655.63325	0.16081
2653.70469	0.16018
2651.77612	0.15969
2649.84756	0.15903
2647.91899	0.15814
2645.99043	0.15735
2644.06187	0.15680
2642.13330	0.15635
2640.20474	0.15589
2638.27617	0.15540
2636.34761	0.15486
2634.41904	0.15430
2632.49048	0.15379
2630.56191	0.15337
2628.63335	0.15308
2626.70479	0.15287
2624.77622	0.15260
2622.84766	0.15228
2620.91909	0.15195
2618.99053	0.15165
2617.06196	0.15143
2615.13340	0.15126
2613.20483	0.15105
2611.27627	0.15083
2609.34771	0.15067
2607.41914	0.15059
2605.49058	0.15059
2603.56201	0.15055
2601.63345	0.15042
2599.70488	0.15034
2597.77632	0.15044
2595.84775	0.15062
2593.91919	0.15073
2591.99062	0.15081
2590.06206	0.15092
2588.13350	0.15103
2586.20493	0.15114
2584.27637	0.15135
2582.34780	0.15161
2580.41924	0.15183
2578.49067	0.15210
2576.56211	0.15247
2574.63354	0.15282
2572.70498	0.15316
2570.77642	0.15349
2568.84785	0.15376
2566.91929	0.15414
2564.99072	0.15460
2563.06216	0.15499
2561.13359	0.15536
2559.20503	0.15584
2557.27646	0.15639
2555.34790	0.15685
2553.41934	0.15726
2551.49077	0.15772
2549.56221	0.15824
2547.63364	0.15884
2545.70508	0.15954
2543.77651	0.16022
2541.84795	0.16072
2539.91938	0.16121
2537.99082	0.16187
2536.06226	0.16261
2534.13369	0.16329
2532.20513	0.16395
2530.27656	0.16458
2528.34800	0.16523
2526.41943	0.16597
2524.49087	0.16666
2522.56230	0.16721
2520.63374	0.16785
2518.70518	0.16872
2516.77661	0.16969
2514.84805	0.17060
2512.91948	0.17135
2510.99092	0.17190
2509.06235	0.17248
2507.13379	0.17331
2505.20522	0.17429
2503.27666	0.17521
2501.34810	0.17589
2499.41953	0.17648
2497.49097	0.17730
2495.56240	0.17830
2493.63384	0.17918
2491.70527	0.17995
2489.77671	0.18078
2487.84814	0.18165
2485.91958	0.18245
2483.99102	0.18326
2482.06245	0.18419
2480.13389	0.18514
2478.20532	0.18601
2476.27676	0.18691
2474.34819	0.18788
2472.41963	0.18879
2470.49106	0.18964
2468.56250	0.19054
2466.63394	0.19143
2464.70537	0.19220
2462.77681	0.19301
2460.84824	0.19401
2458.91968	0.19502
2456.99111	0.19591
2455.06255	0.19673
2453.13398	0.19760
2451.20542	0.19867
2449.27686	0.19976
2447.34829	0.20073
2445.41973	0.20168
2443.49116	0.20259
2441.56260	0.20348
2439.63403	0.20451
2437.70547	0.20558
2435.77690	0.20654
2433.84834	0.20757
2431.91978	0.20862
2429.99121	0.20960
2428.06265	0.21063
2426.13408	0.21170
2424.20552	0.21278
2422.27695	0.21396
2420.34839	0.21510
2418.41982	0.21609
2416.49126	0.21716
2414.56270	0.21832
2412.63413	0.21943
2410.70557	0.22059
2408.77700	0.22182
2406.84844	0.22294
2404.91987	0.22397
2402.99131	0.22509
2401.06274	0.22625
2399.13418	0.22741
2397.20562	0.22854
2395.27705	0.22967
2393.34849	0.23091
2391.41992	0.23218
2389.49136	0.23325
2387.56279	0.23410
2385.63423	0.23452
2383.70566	0.23417
2381.77710	0.23299
2379.84854	0.23132
2377.91997	0.22928
2375.99141	0.22665
2374.06284	0.22333
2372.13428	0.21954
2370.20571	0.21573
2368.27715	0.21217
2366.34858	0.20896
2364.42002	0.20586
2362.49146	0.20299
2360.56289	0.20199
2358.63433	0.20431
2356.70576	0.20912
2354.77720	0.21540
2352.84863	0.22305
2350.92007	0.23075
2348.99150	0.23572
2347.06294	0.23666
2345.13437	0.23439
2343.20581	0.23187
2341.27725	0.23184
2339.34868	0.23365
2337.42012	0.23581
2335.49155	0.23813
2333.56299	0.24104
2331.63442	0.24435
2329.70586	0.24743
2327.77729	0.25031
2325.84873	0.25358
2323.92017	0.25707
2321.99160	0.26052
2320.06304	0.26434
2318.13447	0.26863
2316.20591	0.27278
2314.27734	0.27625
2312.34878	0.27915
2310.42021	0.28203
2308.49165	0.28509
2306.56309	0.28831
2304.63452	0.29152
2302.70596	0.29441
2300.77739	0.29707
2298.84883	0.29975
2296.92026	0.30254
2294.99170	0.30535
2293.06313	0.30796
2291.13457	0.31039
2289.20601	0.31291
2287.27744	0.31553
2285.34888	0.31804
2283.42031	0.32028
2281.49175	0.32229
2279.56318	0.32418
2277.63462	0.32608
2275.70605	0.32801
2273.77749	0.32990
2271.84893	0.33181
2269.92036	0.33376
2267.99180	0.33577
2266.06323	0.33792
2264.13467	0.34017
2262.20610	0.34244
2260.27754	0.34470
2258.34897	0.34694
2256.42041	0.34922
2254.49185	0.35156
2252.56328	0.35388
2250.63472	0.35607
2248.70615	0.35816
2246.77759	0.36033
2244.84902	0.36269
2242.92046	0.36512
2240.99189	0.36746
2239.06333	0.36961
2237.13477	0.37172
2235.20620	0.37395
2233.27764	0.37618
2231.34907	0.37837
2229.42051	0.38059
2227.49194	0.38279
2225.56338	0.38497
2223.63481	0.38716
2221.70625	0.38932
2219.77769	0.39147
2217.84912	0.39362
2215.92056	0.39574
2213.99199	0.39788
2212.06343	0.40011
2210.13486	0.40233
2208.20630	0.40445
2206.27773	0.40653
2204.34917	0.40865
2202.42061	0.41078
2200.49204	0.41283
2198.56348	0.41478
2196.63491	0.41670
2194.70635	0.41862
2192.77778	0.42046
2190.84922	0.42235
2188.92065	0.42430
2186.99209	0.42615
2185.06353	0.42791
2183.13496	0.42966
2181.20640	0.43133
2179.27783	0.43301
2177.34927	0.43471
2175.42070	0.43629
2173.49214	0.43777
2171.56357	0.43920
2169.63501	0.44055
2167.70645	0.44181
2165.77788	0.44304
2163.84932	0.44427
2161.92075	0.44550
2159.99219	0.44672
2158.06362	0.44781
2156.13506	0.44873
2154.20649	0.44958
2152.27793	0.45044
2150.34937	0.45127
2148.42080	0.45199
2146.49224	0.45268
2144.56367	0.45330
2142.63511	0.45379
2140.70654	0.45408
2138.77798	0.45429
2136.84941	0.45457
2134.92085	0.45482
2132.99229	0.45491
2131.06372	0.45490
2129.13516	0.45486
2127.20659	0.45466
2125.27803	0.45430
2123.34946	0.45391
2121.42090	0.45357
2119.49233	0.45317
2117.56377	0.45267
2115.63521	0.45211
2113.70664	0.45148
2111.77808	0.45067
2109.84951	0.44971
2107.92095	0.44877
2105.99238	0.44778
2104.06382	0.44668
2102.13525	0.44552
2100.20669	0.44440
2098.27812	0.44323
2096.34956	0.44186
2094.42100	0.44037
2092.49243	0.43889
2090.56387	0.43736
2088.63530	0.43574
2086.70674	0.43410
2084.77817	0.43232
2082.84961	0.43040
2080.92104	0.42846
2078.99248	0.42653
2077.06392	0.42460
2075.13535	0.42263
2073.20679	0.42055
2071.27822	0.41837
2069.34966	0.41623
2067.42109	0.41410
2065.49253	0.41186
2063.56396	0.40950
2061.63540	0.40717
2059.70684	0.40487
2057.77827	0.40247
2055.84971	0.40005
2053.92114	0.39765
2051.99258	0.39515
2050.06401	0.39254
2048.13545	0.39000
2046.20688	0.38754
2044.27832	0.38502
2042.34976	0.38240
2040.42119	0.37975
2038.49263	0.37701
2036.56406	0.37419
2034.63550	0.37146
2032.70693	0.36881
2030.77837	0.36614
2028.84980	0.36341
2026.92124	0.36066
2024.99268	0.35797
2023.06411	0.35534
2021.13555	0.35266
2019.20698	0.35000
2017.27842	0.34735
2015.34985	0.34457
2013.42129	0.34173
2011.49272	0.33900
2009.56416	0.33635
2007.63560	0.33362
2005.70703	0.33090
2003.77847	0.32827
2001.84990	0.32573
1999.92134	0.32321
1997.99277	0.32064
1996.06421	0.31806
1994.13564	0.31558
1992.20708	0.31320
1990.27852	0.31073
1988.34995	0.30814
1986.42139	0.30559
1984.49282	0.30317
1982.56426	0.30081
1980.63569	0.29843
1978.70713	0.29608
1976.77856	0.29384
1974.85000	0.29167
1972.92144	0.28953
1970.99287	0.28747
1969.06431	0.28548
1967.13574	0.28354
1965.20718	0.28152
1963.27861	0.27941
1961.35005	0.27731
1959.42148	0.27532
1957.49292	0.27352
1955.56436	0.27181
1953.63579	0.27002
1951.70723	0.26817
1949.77866	0.26646
1947.85010	0.26495
1945.92153	0.26354
1943.99297	0.26218
1942.06440	0.26072
1940.13584	0.25907
1938.20728	0.25750
1936.27871	0.25613
1934.35015	0.25482
1932.42158	0.25361
1930.49302	0.25239
1928.56445	0.25115
1926.63589	0.24998
1924.70732	0.24903
1922.77876	0.24825
1920.85020	0.24740
1918.92163	0.24655
1916.99307	0.24569
1915.06450	0.24461
1913.13594	0.24346
1911.20737	0.24256
1909.27881	0.24186
1907.35024	0.24115
1905.42168	0.24043
1903.49312	0.23989
1901.56455	0.23947
1899.63599	0.23892
1897.70742	0.23837
1895.77886	0.23798
1893.85029	0.23763
1891.92173	0.23723
1889.99316	0.23707
1888.06460	0.23693
1886.13604	0.23659
1884.20747	0.23617
1882.27891	0.23580
1880.35034	0.23562
1878.42178	0.23557
1876.49321	0.23556
1874.56465	0.23556
1872.63608	0.23571
1870.70752	0.23613
1868.77896	0.23690
1866.85039	0.23726
1864.92183	0.23691
1862.99326	0.23662
1861.06470	0.23665
1859.13613	0.23694
1857.20757	0.23733
1855.27900	0.23779
1853.35044	0.23821
1851.42187	0.23866
1849.49331	0.23925
1847.56475	0.24008
1845.63618	0.24114
1843.70762	0.24225
1841.77905	0.24288
1839.85049	0.24315
1837.92192	0.24382
1835.99336	0.24471
1834.06479	0.24561
1832.13623	0.24668
1830.20767	0.24829
1828.27910	0.24987
1826.35054	0.25086
1824.42197	0.25198
1822.49341	0.25310
1820.56484	0.25421
1818.63628	0.25558
1816.70771	0.25721
1814.77915	0.25874
1812.85059	0.26038
1810.92202	0.26246
1808.99346	0.26462
1807.06489	0.26651
1805.13633	0.26824
1803.20776	0.27033
1801.27920	0.27294
1799.35063	0.27591
1797.42207	0.27846
1795.49351	0.28082
1793.56494	0.28362
1791.63638	0.28722
1789.70781	0.29055
1787.77925	0.29299
1785.85068	0.29597
1783.92212	0.29966
1781.99355	0.30365
1780.06499	0.30783
1778.13643	0.31215
1776.20786	0.31625
1774.27930	0.32070
1772.35073	0.32671
1770.42217	0.33301
1768.49360	0.33803
1766.56504	0.34283
1764.63647	0.34795
1762.70791	0.35388
1760.77935	0.36149
1758.85078	0.36856
1756.92222	0.37555
1754.99365	0.38315
1753.06509	0.39008
1751.13652	0.39852
1749.20796	0.40932
1747.27939	0.41990
1745.35083	0.42905
1743.42227	0.43872
1741.49370	0.44930
1739.56514	0.46162
1737.63657	0.47400
1735.70801	0.48496
1733.77944	0.50144
1731.85088	0.52099
1729.92231	0.53619
1727.99375	0.55152
1726.06519	0.56798
1724.13662	0.58599
1722.20806	0.60558
1720.27949	0.62381
1718.35093	0.64533
1716.42236	0.67733
1714.49380	0.70759
1712.56523	0.73187
1710.63667	0.75555
1708.70811	0.78123
1706.77954	0.81052
1704.85098	0.84550
1702.92241	0.87649
1700.99385	0.90668
1699.06528	0.95211
1697.13672	0.99468
1695.20815	1.03798
1693.27959	1.07922
1691.35103	1.11230
1689.42246	1.15095
1687.49390	1.19171
1685.56533	1.23034
1683.63677	1.29013
1681.70820	1.35332
1679.77964	1.39389
1677.85107	1.43235
1675.92251	1.47693
1673.99395	1.53270
1672.06538	1.58190
1670.13682	1.62895
1668.20825	1.68986
1666.27969	1.73921
1664.35112	1.78055
1662.42256	1.83138
1660.49399	1.88823
1658.56543	1.93269
1656.63687	1.96880
1654.70830	2.00286
1652.77974	2.05961
1650.85117	2.11477
1648.92261	2.13604
1646.99404	2.16487
1645.06548	2.19866
1643.13691	2.22066
1641.20835	2.23366
1639.27979	2.24575
1637.35122	2.25431
1635.42266	2.25736
1633.49409	2.25316
1631.56553	2.24161
1629.63696	2.22763
1627.70840	2.20372
1625.77983	2.17424
1623.85127	2.13652
1621.92271	2.08898
1619.99414	2.04462
1618.06558	2.00050
1616.13701	1.93809
1614.20845	1.87536
1612.27988	1.82868
1610.35132	1.77989
1608.42275	1.72649
1606.49419	1.67355
1604.56562	1.62442
1602.63706	1.57673
1600.70850	1.53039
1598.77993	1.48808
1596.85137	1.44814
1594.92280	1.40863
1592.99424	1.36964
1591.06567	1.33360
1589.13711	1.29956
1587.20854	1.26741
1585.27998	1.23721
1583.35142	1.20858
1581.42285	1.18212
1579.49429	1.15928
1577.56572	1.13862
1575.63716	1.11304
1573.70859	1.08992
1571.78003	1.07462
1569.85146	1.05827
1567.92290	1.03916
1565.99434	1.02401
1564.06577	1.01181
1562.13721	1.00212
1560.20864	0.99482
1558.28008	0.98254
1556.35151	0.96996
1554.42295	0.96216
1552.49438	0.95469
1550.56582	0.94658
1548.63726	0.93732
1546.70869	0.92859
1544.78013	0.92024
1542.85156	0.91092
1540.92300	0.89864
1538.99443	0.87986
1537.06587	0.86566
1535.13730	0.85634
1533.20874	0.84457
1531.28018	0.83169
1529.35161	0.82216
1527.42305	0.81330
1525.49448	0.80421
1523.56592	0.79643
1521.63735	0.78863
1519.70879	0.78000
1517.78022	0.77260
1515.85166	0.76478
1513.92310	0.75691
1511.99453	0.75044
1510.06597	0.74502
1508.13740	0.74004
1506.20884	0.73151
1504.28027	0.72304
1502.35171	0.71814
1500.42314	0.71428
1498.49458	0.71055
1496.56602	0.70600
1494.63745	0.70118
1492.70889	0.69760
1490.78032	0.69495
1488.85176	0.69201
1486.92319	0.68870
1484.99463	0.68578
1483.06606	0.68358
1481.13750	0.68197
1479.20894	0.68065
1477.28037	0.67983
1475.35181	0.67962
1473.42324	0.67957
1471.49468	0.67843
1469.56611	0.67637
1467.63755	0.67447
1465.70898	0.67289
1463.78042	0.67121
1461.85186	0.66944
1459.92329	0.66819
1457.99473	0.66738
1456.06616	0.66550
1454.13760	0.66233
1452.20903	0.65927
1450.28047	0.65632
1448.35190	0.65348
1446.42334	0.65047
1444.49478	0.64765
1442.56621	0.64535
1440.63765	0.64321
1438.70908	0.64111
1436.78052	0.63890
1434.85195	0.63655
1432.92339	0.63457
1430.99482	0.63303
1429.06626	0.63177
1427.13770	0.63067
1425.20913	0.62971
1423.28057	0.62883
1421.35200	0.62815
1419.42344	0.62773
1417.49487	0.62683
1415.56631	0.62505
1413.63774	0.62317
1411.70918	0.62161
1409.78062	0.62047
1407.85205	0.61960
1405.92349	0.61883
1403.99492	0.61796
1402.06636	0.61684
1400.13779	0.61559
1398.20923	0.61411
1396.28066	0.61239
1394.35210	0.61033
1392.42354	0.60788
1390.49497	0.60554
1388.56641	0.60348
1386.63784	0.60131
1384.70928	0.59901
1382.78071	0.59691
1380.85215	0.59506
1378.92358	0.59355
1376.99502	0.59245
1375.06646	0.59171
1373.13789	0.59106
1371.20933	0.59035
1369.28076	0.58980
1367.35220	0.58918
1365.42363	0.58827
1363.49507	0.58730
1361.56650	0.58615
1359.63794	0.58476
1357.70937	0.58344
1355.78081	0.58218
1353.85225	0.58091
1351.92368	0.57976
1349.99512	0.57879
1348.06655	0.57780
1346.13799	0.57672
1344.20942	0.57567
1342.28086	0.57461
1340.35229	0.57356
1338.42373	0.57255
1336.49517	0.57160
1334.56660	0.57069
1332.63804	0.56990
1330.70947	0.56932
1328.78091	0.56894
1326.85234	0.56868
1324.92378	0.56839
1322.99521	0.56810
1321.06665	0.56792
1319.13809	0.56781
1317.20952	0.56754
1315.28096	0.56700
1313.35239	0.56623
1311.42383	0.56523
1309.49526	0.56415
1307.56670	0.56315
1305.63813	0.56216
1303.70957	0.56109
1301.78101	0.56007
1299.85244	0.55911
1297.92388	0.55812
1295.99531	0.55713
1294.06675	0.55623
1292.13818	0.55541
1290.20962	0.55452
1288.28105	0.55357
1286.35249	0.55273
1284.42393	0.55201
1282.49536	0.55133
1280.56680	0.55064
1278.63823	0.54986
1276.70967	0.54902
1274.78110	0.54818
1272.85254	0.54745
1270.92397	0.54683
1268.99541	0.54627
1267.06685	0.54578
1265.13828	0.54545
1263.20972	0.54527
1261.28115	0.54498
1259.35259	0.54436
1257.42402	0.54367
1255.49546	0.54321
1253.56689	0.54293
1251.63833	0.54264
1249.70977	0.54233
1247.78120	0.54201
1245.85264	0.54161
1243.92407	0.54111
1241.99551	0.54055
1240.06694	0.53991
1238.13838	0.53913
1236.20981	0.53804
1234.28125	0.53676
1232.35269	0.53559
1230.42412	0.53448
1228.49556	0.53323
1226.56699	0.53191
1224.63843	0.53074
1222.70986	0.52961
1220.78130	0.52846
1218.85273	0.52747
1216.92417	0.52660
1214.99561	0.52573
1213.06704	0.52487
1211.13848	0.52411
1209.20991	0.52359
1207.28135	0.52315
1205.35278	0.52261
1203.42422	0.52202
1201.49565	0.52140
1199.56709	0.52069
1197.63853	0.51988
1195.70996	0.51902
1193.78140	0.51823
1191.85283	0.51762
1189.92427	0.51710
1187.99570	0.51661
1186.06714	0.51628
1184.13857	0.51621
1182.21001	0.51644
1180.28145	0.51700
1178.35288	0.51787
1176.42432	0.51899
1174.49575	0.52019
1172.56719	0.52126
1170.63862	0.52217
1168.71006	0.52312
1166.78149	0.52425
1164.85293	0.52551
1162.92437	0.52673
1160.99580	0.52772
1159.06724	0.52843
1157.13867	0.52869
1155.21011	0.52840
1153.28154	0.52760
1151.35298	0.52621
1149.42441	0.52412
1147.49585	0.52145
1145.56729	0.51848
1143.63872	0.51552
1141.71016	0.51283
1139.78159	0.51060
1137.85303	0.50887
1135.92446	0.50766
1133.99590	0.50701
1132.06733	0.50687
1130.13877	0.50704
1128.21021	0.50716
1126.28164	0.50699
1124.35308	0.50667
1122.42451	0.50650
1120.49595	0.50671
1118.56738	0.50709
1116.63882	0.50733
1114.71025	0.50770
1112.78169	0.50852
1110.85312	0.50955
1108.92456	0.51058
1106.99600	0.51154
1105.06743	0.51237
1103.13887	0.51302
1101.21030	0.51358
1099.28174	0.51433
1097.35317	0.51577
1095.42461	0.51815
1093.49604	0.52161
1091.56748	0.52652
1089.63892	0.53341
1087.71035	0.54223
1085.78179	0.55202
1083.85322	0.56168
1081.92466	0.57021
1079.99609	0.57624
1078.06753	0.57891
1076.13896	0.57837
1074.21040	0.57479
1072.28184	0.56852
1070.35327	0.56101
1068.42471	0.55367
1066.49614	0.54677
1064.56758	0.54044
1062.63901	0.53514
1060.71045	0.53095
1058.78188	0.52740
1056.85332	0.52400
1054.92476	0.52076
1052.99619	0.51793
1051.06763	0.51594
1049.13906	0.51508
1047.21050	0.51522
1045.28193	0.51628
1043.35337	0.51789
1041.42480	0.51931
1039.49624	0.52025
1037.56768	0.52076
1035.63911	0.52094
1033.71055	0.52070
1031.78198	0.51954
1029.85342	0.51748
1027.92485	0.51520
1025.99629	0.51312
1024.06772	0.51126
1022.13916	0.50957
1020.21060	0.50817
1018.28203	0.50724
1016.35347	0.50655
1014.42490	0.50577
1012.49634	0.50494
1010.56777	0.50415
1008.63921	0.50337
1006.71064	0.50285
1004.78208	0.50309
1002.85352	0.50444
1000.92495	0.50682
998.99639	0.51003
997.06782	0.51406
995.13926	0.51852
993.21069	0.52247
991.28213	0.52528
989.35356	0.52687
987.42500	0.52742
985.49644	0.52726
983.56787	0.52667
981.63931	0.52612
979.71074	0.52635
977.78218	0.52756
975.85361	0.52950
973.92505	0.53199
971.99648	0.53487
970.06792	0.53798
968.13936	0.54136
966.21079	0.54516
964.28223	0.54935
962.35366	0.55386
960.42510	0.55870
958.49653	0.56384
956.56797	0.56926
954.63940	0.57515
952.71084	0.58145
950.78228	0.58777
948.85371	0.59399
946.92515	0.60011
944.99658	0.60601
943.06802	0.61195
941.13945	0.61804
939.21089	0.62411
937.28232	0.62995
935.35376	0.63517
933.42520	0.64037
931.49663	0.64646
929.56807	0.65287
927.63950	0.65880
925.71094	0.66471
923.78237	0.67098
921.85381	0.67726
919.92524	0.68335
917.99668	0.68941
916.06812	0.69614
914.13955	0.70399
912.21099	0.71253
910.28242	0.72108
908.35386	0.72924
906.42529	0.73755
904.49673	0.74589
902.56816	0.75370
900.63960	0.76188
898.71104	0.77089
896.78247	0.78048
894.85391	0.79081
892.92534	0.80145
890.99678	0.81205
889.06821	0.82331
887.13965	0.83470
885.21108	0.84492
883.28252	0.85486
881.35396	0.86532
879.42539	0.87568
877.49683	0.88628
875.56826	0.89791
873.63970	0.90984
871.71113	0.92094
869.78257	0.93198
867.85400	0.94416
865.92544	0.95646
863.99687	0.96844
862.06831	0.98036
860.13975	0.99087
858.21118	0.99997
856.28262	1.00916
854.35405	1.02088
852.42549	1.03583
850.49692	1.05093
848.56836	1.06409
846.63979	1.07534
844.71123	1.08479
842.78267	1.09363
840.85410	1.10507
838.92554	1.11908
836.99697	1.13286
835.06841	1.14530
833.13984	1.15580
831.21128	1.16630
829.28271	1.17908
827.35415	1.19153
825.42559	1.20037
823.49702	1.21137
821.56846	1.23041
819.63989	1.24962
817.71133	1.25847
815.78276	1.26200
813.85420	1.27474
811.92563	1.29739
809.99707	1.31647
808.06851	1.33393
806.13994	1.35627
804.21138	1.36947
802.28281	1.38144
800.35425	1.39914
798.42568	1.40443
796.49712	1.40264
794.56855	1.40258
792.63999	1.42590
790.71143	1.48146
788.78286	1.52188
786.85430	1.55469
784.92573	1.59416
782.99717	1.55019
781.06860	1.52841
779.14004	1.61866
777.21147	1.66044
775.28291	1.58585
773.35435	1.53148
771.42578	1.46376
769.49722	1.34690
767.56865	1.26170
765.64009	1.25167
763.71152	1.23979
761.78296	1.18845
759.85439	1.14540
757.92583	1.11751
755.99727	1.09799
754.06870	1.05754
752.14014	0.99650
750.21157	1.00291
748.28301	1.11069
746.35444	1.33509
744.42588	1.83727
742.49731	1.88008
740.56875	1.24253
738.64019	0.98928
736.71162	0.89050
734.78306	0.81934
732.85449	0.72531
730.92593	0.70385
728.99736	0.82282
727.06880	0.87349
725.14023	0.55870
723.21167	0.34803
721.28311	0.28079
719.35454	0.15843
717.42598	-0.02480
715.49741	-0.11648
713.56885	-0.01984
711.64028	0.17896
709.71172	0.25881
707.78315	0.24262
705.85459	0.24159
703.92603	0.22630
701.99746	0.16123
700.06890	0.11936
698.14033	0.15607
696.21177	0.21600
694.28320	0.21796
692.35464	0.23028
690.42607	0.31084
688.49751	0.39555
686.56895	0.36727
684.64038	0.31824
682.71182	0.32842
680.78325	0.27809
678.85469	0.14733
676.92612	0.08708
674.99756	0.10547
673.06899	0.16388
671.14043	0.23503
669.21187	0.28840
667.28330	0.31520
665.35474	0.31658
663.42617	0.30828
661.49761	0.22921
659.56904	0.16377
657.64048	0.19260
655.71191	0.24319
653.78335	0.26860
651.85479	0.26274
649.92622	0.22041
647.99766	0.17782
646.06909	0.12837
644.14053	0.09023
642.21196	0.11404
640.28340	0.16574
638.35483	0.22091
636.42627	0.31873
634.49771	0.47742
632.56914	0.54733
630.64058	0.36649
628.71201	0.24938
626.78345	0.18715
624.85488	0.18134
622.92632	0.24020
620.99775	0.24728
619.06919	0.22462
617.14062	0.27918
615.21206	0.31794
613.28350	0.27299
611.35493	0.23826
609.42637	0.22273
607.49780	0.21363
605.56924	0.21579
603.64067	0.24021
601.71211	0.27947
599.78354	0.27888
597.85498	0.23774
595.92642	0.20558
593.99785	0.23128
592.06929	0.36045
590.14072	0.47654
588.21216	0.35363
586.28359	0.19815
584.35503	0.16345
582.42646	0.19073
580.49790	0.19034
578.56934	0.19811
576.64077	0.27770
574.71221	0.33748
572.78364	0.25306
570.85508	0.15264
568.92651	0.14672
566.99795	0.19886
565.06938	0.24129
563.14082	0.25008
561.21226	0.27977
559.28369	0.32525
557.35513	0.28404
555.42656	0.16313
553.49800	0.10252
551.56943	0.11817
549.64087	0.14477
547.71230	0.14468
545.78374	0.08980
543.85518	0.00990
541.92661	0.01047
539.99805	0.07909
538.06948	0.18140
536.14092	0.30325
534.21235	0.34119
532.28379	0.27867
530.35522	0.25823
528.42666	0.27052
526.49810	0.25861
524.56953	0.23176
522.64097	0.20449
520.71240	0.16657
518.78384	0.14871
516.85527	0.18631
514.92671	0.23610
512.99814	0.26183
511.06958	0.28105
509.14102	0.27771
507.21245	0.23180
505.28389	0.17927
503.35532	0.13081
501.42676	0.10654
499.49819	0.15477
