3997.91411	0.06007
3995.98555	0.06067
3994.05698	0.06081
3992.12842	0.06112
3990.19985	0.06166
3988.27129	0.06180
3986.34272	0.06152
3984.41416	0.06139
3982.48560	0.06168
3980.55703	0.06204
3978.62847	0.06230
3976.69990	0.06273
3974.77134	0.06324
3972.84277	0.06354
3970.91421	0.06373
3968.98564	0.06392
3967.05708	0.06379
3965.12852	0.06340
3963.19995	0.06336
3961.27139	0.06377
3959.34282	0.06414
3957.41426	0.06446
3955.48569	0.06474
3953.55713	0.06466
3951.62856	0.06460
3949.70000	0.06501
3947.77144	0.06536
3945.84287	0.06532
3943.91431	0.06559
3941.98574	0.06623
3940.05718	0.06601
3938.12861	0.06496
3936.20005	0.06439
3934.27148	0.06473
3932.34292	0.06537
3930.41436	0.06577
3928.48579	0.06575
3926.55723	0.06549
3924.62866	0.06538
3922.70010	0.06562
3920.77153	0.06593
3918.84297	0.06604
3916.91440	0.06604
3914.98584	0.06550
3913.05728	0.06425
3911.12871	0.06353
3909.20015	0.06357
3907.27158	0.06386
3905.34302	0.06480
3903.41445	0.06637
3901.48589	0.06713
3899.55732	0.06674
3897.62876	0.06605
3895.70020	0.06550
3893.77163	0.06552
3891.84307	0.06611
3889.91450	0.06643
3887.98594	0.06591
3886.05737	0.06554
3884.12881	0.06589
3882.20024	0.06632
3880.27168	0.06683
3878.34312	0.06731
3876.41455	0.06745
3874.48599	0.06805
3872.55742	0.06903
3870.62886	0.06955
3868.70029	0.06959
3866.77173	0.06938
3864.84316	0.06947
3862.91460	0.06959
3860.98604	0.06921
3859.05747	0.06913
3857.12891	0.06979
3855.20034	0.07126
3853.27178	0.07401
3851.34321	0.07564
3849.41465	0.07393
3847.48608	0.07216
3845.55752	0.07164
3843.62896	0.07245
3841.70039	0.07427
3839.77183	0.07643
3837.84326	0.07815
3835.91470	0.07840
3833.98613	0.07764
3832.05757	0.07721
3830.12900	0.07759
3828.20044	0.07824
3826.27187	0.07888
3824.34331	0.07961
3822.41475	0.08082
3820.48618	0.08295
3818.55762	0.08420
3816.62905	0.08438
3814.70049	0.08493
3812.77192	0.08516
3810.84336	0.08515
3808.91479	0.08580
3806.98623	0.08752
3805.05767	0.08954
3803.12910	0.09113
3801.20054	0.09316
3799.27197	0.09459
3797.34341	0.09479
3795.41484	0.09528
3793.48628	0.09585
3791.55771	0.09640
3789.62915	0.09738
3787.70059	0.09862
3785.77202	0.10016
3783.84346	0.10206
3781.91489	0.10376
3779.98633	0.10526
3778.05776	0.10687
3776.12920	0.10825
3774.20063	0.10964
3772.27207	0.11153
3770.34351	0.11404
3768.41494	0.11665
3766.48638	0.11870
3764.55781	0.12046
3762.62925	0.12168
3760.70068	0.12319
3758.77212	0.12626
3756.84355	0.12984
3754.91499	0.13229
3752.98643	0.13465
3751.05786	0.13881
3749.12930	0.14365
3747.20073	0.14599
3745.27217	0.14800
3743.34360	0.15168
3741.41504	0.15484
3739.48647	0.15707
3737.55791	0.16049
3735.62935	0.16602
3733.70078	0.17213
3731.77222	0.17663
3729.84365	0.18052
3727.91509	0.18486
3725.98652	0.19047
3724.05796	0.19704
3722.12939	0.20372
3720.20083	0.21067
3718.27227	0.21761
3716.34370	0.22474
3714.41514	0.23247
3712.48657	0.24232
3710.55801	0.25641
3708.62944	0.27104
3706.70088	0.28222
3704.77231	0.29280
3702.84375	0.30576
3700.91519	0.32282
3698.98662	0.34143
3697.05806	0.35912
3695.12949	0.37812
3693.20093	0.39859
3691.27236	0.42082
3689.34380	0.44927
3687.41523	0.48383
3685.48667	0.51412
3683.55811	0.54038
3681.62954	0.56881
3679.70098	0.60130
3677.77241	0.63563
3675.84385	0.67539
3673.91528	0.72845
3671.98672	0.77273
3670.05815	0.81221
3668.12959	0.86549
3666.20103	0.91388
3664.27246	0.95447
3662.34390	0.99836
3660.41533	1.04607
3658.48677	1.09321
3656.55820	1.14329
3654.62964	1.19874
3652.70107	1.24488
3650.77251	1.28495
3648.84395	1.34112
3646.91538	1.41144
3644.98682	1.46344
3643.05825	1.50262
3641.12969	1.54262
3639.20112	1.58699
3637.27256	1.63152
3635.34399	1.67470
3633.41543	1.71784
3631.48687	1.75870
3629.55830	1.80123
3627.62974	1.85594
3625.70117	1.90477
3623.77261	1.93783
3621.84404	1.97123
3619.91548	2.01015
3617.98691	2.05622
3616.05835	2.10027
3614.12979	2.13699
3612.20122	2.17535
3610.27266	2.21508
3608.34409	2.25614
3606.41553	2.29929
3604.48696	2.33820
3602.55840	2.37235
3600.62983	2.40992
3598.70127	2.45158
3596.77271	2.49239
3594.84414	2.53377
3592.91558	2.57622
3590.98701	2.61555
3589.05845	2.65147
3587.12988	2.69391
3585.20132	2.74150
3583.27275	2.78191
3581.34419	2.81919
3579.41562	2.86062
3577.48706	2.90436
3575.55850	2.94612
3573.62993	2.98795
3571.70137	3.03045
3569.77280	3.07234
3567.84424	3.11552
3565.91567	3.16742
3563.98711	3.21747
3562.05854	3.25685
3560.12998	3.29687
3558.20142	3.34015
3556.27285	3.38341
3554.34429	3.42711
3552.41572	3.47450
3550.48716	3.52276
3548.55859	3.56815
3546.63003	3.61349
3544.70146	3.66332
3542.77290	3.71362
3540.84434	3.75922
3538.91577	3.80453
3536.98721	3.85254
3535.05864	3.90090
3533.13008	3.94538
3531.20151	3.98982
3529.27295	4.03853
3527.34438	4.08957
3525.41582	4.13846
3523.48726	4.18579
3521.55869	4.23505
3519.63013	4.28212
3517.70156	4.32765
3515.77300	4.37610
3513.84443	4.42608
3511.91587	4.47439
3509.98730	4.52360
3508.05874	4.57498
3506.13018	4.62166
3504.20161	4.66420
3502.27305	4.71106
3500.34448	4.76110
3498.41592	4.80619
3496.48735	4.85110
3494.55879	4.90417
3492.63022	4.95562
3490.70166	4.99619
3488.77310	5.03936
3486.84453	5.09237
3484.91597	5.14168
3482.98740	5.18394
3481.05884	5.22744
3479.13027	5.27355
3477.20171	5.32805
3475.27314	5.39136
3473.34458	5.44792
3471.41602	5.49288
3469.48745	5.53286
3467.55889	5.57209
3465.63032	5.61758
3463.70176	5.67068
3461.77319	5.72364
3459.84463	5.77575
3457.91606	5.82762
3455.98750	5.87643
3454.05894	5.91885
3452.13037	5.96152
3450.20181	6.01125
3448.27324	6.05989
3446.34468	6.10706
3444.41611	6.15629
3442.48755	6.21263
3440.55898	6.27659
3438.63042	6.34336
3436.70186	6.39908
3434.77329	6.43848
3432.84473	6.48286
3430.91616	6.53371
3428.98760	6.58188
3427.05903	6.62759
3425.13047	6.67726
3423.20190	6.73107
3421.27334	6.78265
3419.34478	6.82116
3417.41621	6.84034
3415.48765	6.85720
3413.55908	6.90790
3411.63052	7.00396
3409.70195	7.08091
3407.77339	7.09927
3405.84482	7.11601
3403.91626	7.17263
3401.98770	7.20556
3400.05913	7.21123
3398.13057	7.26806
3396.20200	7.34580
3394.27344	7.38733
3392.34487	7.39894
3390.41631	7.42568
3388.48774	7.49497
3386.55918	7.57532
3384.63062	7.61986
3382.70205	7.65943
3380.77349	7.70861
3378.84492	7.72539
3376.91636	7.72115
3374.98779	7.70691
3373.05923	7.71865
3371.13066	7.77601
3369.20210	7.84323
3367.27354	7.88163
3365.34497	7.89329
3363.41641	7.87948
3361.48784	7.87090
3359.55928	7.95887
3357.63071	8.08397
3355.70215	8.07884
3353.77358	7.97733
3351.84502	7.93881
3349.91646	7.97033
3347.98789	7.99131
3346.05933	7.99388
3344.13076	8.02713
3342.20220	8.05523
3340.27363	8.02693
3338.34507	8.03473
3336.41650	8.10147
3334.48794	8.11858
3332.55937	8.04158
3330.63081	7.99468
3328.70225	8.03943
3326.77368	8.10209
3324.84512	8.12070
3322.91655	8.11926
3320.98799	8.12788
3319.05942	8.11871
3317.13086	8.13934
3315.20229	8.17942
3313.27373	8.20042
3311.34517	8.23859
3309.41660	8.28884
3307.48804	8.30863
3305.55947	8.25377
3303.63091	8.18466
3301.70234	8.18984
3299.77378	8.24692
3297.84521	8.25412
3295.91665	8.22018
3293.98809	8.17279
3292.05952	8.11616
3290.13096	8.11302
3288.20239	8.17440
3286.27383	8.24349
3284.34526	8.25096
3282.41670	8.24326
3280.48813	8.26760
3278.55957	8.31775
3276.63101	8.40046
3274.70244	8.49093
3272.77388	8.53800
3270.84531	8.45665
3268.91675	8.30500
3266.98818	8.22776
3265.05962	8.24822
3263.13105	8.32819
3261.20249	8.41329
3259.27393	8.40035
3257.34536	8.28662
3255.41680	8.19748
3253.48823	8.21391
3251.55967	8.29943
3249.63110	8.35158
3247.70254	8.29839
3245.77397	8.18759
3243.84541	8.16030
3241.91685	8.18969
3239.98828	8.15228
3238.05972	8.08347
3236.13115	8.05921
3234.20259	8.09493
3232.27402	8.14857
3230.34546	8.12367
3228.41689	8.05926
3226.48833	8.10144
3224.55977	8.16267
3222.63120	8.10537
3220.70264	8.06445
3218.77407	8.10734
3216.84551	8.13563
3214.91694	8.08178
3212.98838	7.98040
3211.05981	7.93500
3209.13125	7.95306
3207.20269	7.94556
3205.27412	7.89729
3203.34556	7.83678
3201.41699	7.79299
3199.48843	7.80386
3197.55986	7.82175
3195.63130	7.75080
3193.70273	7.66076
3191.77417	7.64043
3189.84561	7.61672
3187.91704	7.53361
3185.98848	7.45015
3184.05991	7.41703
3182.13135	7.39551
3180.20278	7.32671
3178.27422	7.25265
3176.34565	7.21386
3174.41709	7.15719
3172.48853	7.06962
3170.55996	7.00001
3168.63140	6.96593
3166.70283	6.93924
3164.77427	6.87605
3162.84570	6.78075
3160.91714	6.68047
3158.98857	6.60069
3157.06001	6.55449
3155.13145	6.50209
3153.20288	6.41451
3151.27432	6.32420
3149.34575	6.25960
3147.41719	6.20279
3145.48862	6.13580
3143.56006	6.06962
3141.63149	6.00684
3139.70293	5.94336
3137.77437	5.87846
3135.84580	5.80642
3133.91724	5.72990
3131.98867	5.65214
3130.06011	5.57093
3128.13154	5.49014
3126.20298	5.41823
3124.27441	5.35388
3122.34585	5.28536
3120.41729	5.21422
3118.48872	5.14675
3116.56016	5.07464
3114.63159	4.99608
3112.70303	4.92394
3110.77446	4.86049
3108.84590	4.79558
3106.91733	4.72608
3104.98877	4.65716
3103.06021	4.59042
3101.13164	4.52361
3099.20308	4.45707
3097.27451	4.38976
3095.34595	4.32064
3093.41738	4.25251
3091.48882	4.18809
3089.56025	4.12749
3087.63169	4.06888
3085.70312	4.00996
3083.77456	3.94873
3081.84600	3.88556
3079.91743	3.82237
3077.98887	3.76220
3076.06030	3.70582
3074.13174	3.64917
3072.20317	3.59032
3070.27461	3.53195
3068.34604	3.47527
3066.41748	3.41892
3064.48892	3.36311
3062.56035	3.30878
3060.63179	3.25580
3058.70322	3.20329
3056.77466	3.15051
3054.84609	3.09767
3052.91753	3.04498
3050.98896	2.99278
3049.06040	2.94202
3047.13184	2.89317
3045.20327	2.84442
3043.27471	2.79537
3041.34614	2.74808
3039.41758	2.70192
3037.48901	2.65579
3035.56045	2.61035
3033.63188	2.56546
3031.70332	2.52086
3029.77476	2.47712
3027.84619	2.43411
3025.91763	2.39140
3023.98906	2.34943
3022.06050	2.30833
3020.13193	2.26744
3018.20337	2.22706
3016.27480	2.18809
3014.34624	2.14995
3012.41768	2.11176
3010.48911	2.07413
3008.56055	2.03781
3006.63198	2.00210
3004.70342	1.96627
3002.77485	1.93111
3000.84629	1.89725
2998.91772	1.86386
2996.98916	1.83095
2995.06060	1.79909
2993.13203	1.76786
2991.20347	1.73740
2989.27490	1.70757
2987.34634	1.67758
2985.41777	1.64779
2983.48921	1.61886
2981.56064	1.59071
2979.63208	1.56307
2977.70352	1.53601
2975.77495	1.50954
2973.84639	1.48320
2971.91782	1.45724
2969.98926	1.43210
2968.06069	1.40742
2966.13213	1.38300
2964.20356	1.35884
2962.27500	1.33481
2960.34644	1.31092
2958.41787	1.28743
2956.48931	1.26439
2954.56074	1.24123
2952.63218	1.21801
2950.70361	1.19525
2948.77505	1.17285
2946.84648	1.15074
2944.91792	1.12927
2942.98936	1.10845
2941.06079	1.08807
2939.13223	1.06802
2937.20366	1.04818
2935.27510	1.02848
2933.34653	1.00920
2931.41797	0.99055
2929.48940	0.97208
2927.56084	0.95372
2925.63228	0.93606
2923.70371	0.91918
2921.77515	0.90271
2919.84658	0.88615
2917.91802	0.86902
2915.98945	0.85207
2914.06089	0.83623
2912.13232	0.82122
2910.20376	0.80667
2908.27520	0.79243
2906.34663	0.77813
2904.41807	0.76389
2902.48950	0.75042
2900.56094	0.73764
2898.63237	0.72482
2896.70381	0.71198
2894.77524	0.69951
2892.84668	0.68747
2890.91812	0.67577
2888.98955	0.66442
2887.06099	0.65352
2885.13242	0.64308
2883.20386	0.63306
2881.27529	0.62338
2879.34673	0.61360
2877.41816	0.60359
2875.48960	0.59363
2873.56104	0.58375
2871.63247	0.57370
2869.70391	0.56341
2867.77534	0.55292
2865.84678	0.54228
2863.91821	0.53174
2861.98965	0.52155
2860.06108	0.51188
2858.13252	0.50264
2856.20396	0.49361
2854.27539	0.48503
2852.34683	0.47709
2850.41826	0.46935
2848.48970	0.46134
2846.56113	0.45329
2844.63257	0.44572
2842.70400	0.43886
2840.77544	0.43269
2838.84687	0.42705
2836.91831	0.42177
2834.98975	0.41645
2833.06118	0.41083
2831.13262	0.40519
2829.20405	0.39968
2827.27549	0.39407
2825.34692	0.38823
2823.41836	0.38246
2821.48979	0.37685
2819.56123	0.37116
2817.63267	0.36552
2815.70410	0.36011
2813.77554	0.35480
2811.84697	0.34960
2809.91841	0.34456
2807.98984	0.33954
2806.06128	0.33466
2804.13271	0.32996
2802.20415	0.32513
2800.27559	0.32024
2798.34702	0.31564
2796.41846	0.31126
2794.48989	0.30684
2792.56133	0.30239
2790.63276	0.29801
2788.70420	0.29373
2786.77563	0.28970
2784.84707	0.28591
2782.91851	0.28204
2780.98994	0.27804
2779.06138	0.27419
2777.13281	0.27056
2775.20425	0.26698
2773.27568	0.26340
2771.34712	0.25984
2769.41855	0.25627
2767.48999	0.25286
2765.56143	0.24978
2763.63286	0.24680
2761.70430	0.24371
2759.77573	0.24062
2757.84717	0.23760
2755.91860	0.23464
2753.99004	0.23174
2752.06147	0.22883
2750.13291	0.22588
2748.20435	0.22301
2746.27578	0.22032
2744.34722	0.21780
2742.41865	0.21535
2740.49009	0.21294
2738.56152	0.21057
2736.63296	0.20818
2734.70439	0.20589
2732.77583	0.20361
2730.84727	0.20119
2728.91870	0.19883
2726.99014	0.19670
2725.06157	0.19467
2723.13301	0.19270
2721.20444	0.19080
2719.27588	0.18885
2717.34731	0.18690
2715.41875	0.18518
2713.49019	0.18355
2711.56162	0.18179
2709.63306	0.18002
2707.70449	0.17842
2705.77593	0.17688
2703.84736	0.17533
2701.91880	0.17388
2699.99023	0.17267
2698.06167	0.17149
2696.13311	0.17009
2694.20454	0.16855
2692.27598	0.16709
2690.34741	0.16589
2688.41885	0.16481
2686.49028	0.16364
2684.56172	0.16244
2682.63315	0.16128
2680.70459	0.16006
2678.77603	0.15894
2676.84746	0.15801
2674.91890	0.15706
2672.99033	0.15609
2671.06177	0.15518
2669.13320	0.15431
2667.20464	0.15348
2665.27607	0.15266
2663.34751	0.15174
2661.41895	0.15082
2659.49038	0.15000
2657.56182	0.14922
2655.63325	0.14854
2653.70469	0.14797
2651.77612	0.14745
2649.84756	0.14704
2647.91899	0.14660
2645.99043	0.14597
2644.06187	0.14527
2642.13330	0.14479
2640.20474	0.14452
2638.27617	0.14417
2636.34761	0.14371
2634.41904	0.14330
2632.49048	0.14302
2630.56191	0.14277
2628.63335	0.14251
2626.70479	0.14221
2624.77622	0.14183
2622.84766	0.14148
2620.91909	0.14119
2618.99053	0.14087
2617.06196	0.14057
2615.13340	0.14036
2613.20483	0.14019
2611.27627	0.14009
2609.34771	0.14011
2607.41914	0.14015
2605.49058	0.14018
2603.56201	0.14017
2601.63345	0.14015
2599.70488	0.14011
2597.77632	0.14005
2595.84775	0.14013
2593.91919	0.14040
2591.99062	0.14063
2590.06206	0.14082
2588.13350	0.14109
2586.20493	0.14134
2584.27637	0.14152
2582.34780	0.14177
2580.41924	0.14207
2578.49067	0.14238
2576.56211	0.14271
2574.63354	0.14303
2572.70498	0.14333
2570.77642	0.14359
2568.84785	0.14384
2566.91929	0.14421
2564.99072	0.14464
2563.06216	0.14498
2561.13359	0.14535
2559.20503	0.14594
2557.27646	0.14669
2555.34790	0.14729
2553.41934	0.14769
2551.49077	0.14818
2549.56221	0.14880
2547.63364	0.14939
2545.70508	0.14999
2543.77651	0.15049
2541.84795	0.15090
2539.91938	0.15148
2537.99082	0.15226
2536.06226	0.15297
2534.13369	0.15360
2532.20513	0.15423
2530.27656	0.15484
2528.34800	0.15555
2526.41943	0.15643
2524.49087	0.15725
2522.56230	0.15795
2520.63374	0.15874
2518.70518	0.15952
2516.77661	0.16022
2514.84805	0.16101
2512.91948	0.16189
2510.99092	0.16273
2509.06235	0.16354
2507.13379	0.16430
2505.20522	0.16505
2503.27666	0.16588
2501.34810	0.16673
2499.41953	0.16759
2497.49097	0.16844
2495.56240	0.16929
2493.63384	0.17013
2491.70527	0.17094
2489.77671	0.17175
2487.84814	0.17260
2485.91958	0.17347
2483.99102	0.17439
2482.06245	0.17535
2480.13389	0.17631
2478.20532	0.17719
2476.27676	0.17800
2474.34819	0.17891
2472.41963	0.17999
2470.49106	0.18105
2468.56250	0.18187
2466.63394	0.18254
2464.70537	0.18337
2462.77681	0.18439
2460.84824	0.18549
2458.91968	0.18659
2456.99111	0.18762
2455.06255	0.18861
2453.13398	0.18965
2451.20542	0.19065
2449.27686	0.19151
2447.34829	0.19240
2445.41973	0.19342
2443.49116	0.19447
2441.56260	0.19543
2439.63403	0.19636
2437.70547	0.19735
2435.77690	0.19835
2433.84834	0.19935
2431.91978	0.20045
2429.99121	0.20169
2428.06265	0.20286
2426.13408	0.20390
2424.20552	0.20496
2422.27695	0.20604
2420.34839	0.20709
2418.41982	0.20819
2416.49126	0.20936
2414.56270	0.21052
2412.63413	0.21166
2410.70557	0.21283
2408.77700	0.21404
2406.84844	0.21526
2404.91987	0.21649
2402.99131	0.21768
2401.06274	0.21879
2399.13418	0.21986
2397.20562	0.22098
2395.27705	0.22219
2393.34849	0.22347
2391.41992	0.22475
2389.49136	0.22605
2387.56279	0.22747
2385.63423	0.22907
2383.70566	0.23086
2381.77710	0.23276
2379.84854	0.23476
2377.91997	0.23677
2375.99141	0.23878
2374.06284	0.24094
2372.13428	0.24334
2370.20571	0.24595
2368.27715	0.24855
2366.34858	0.25099
2364.42002	0.25327
2362.49146	0.25534
2360.56289	0.25690
2358.63433	0.25787
2356.70576	0.25891
2354.77720	0.26010
2352.84863	0.26098
2350.92007	0.26143
2348.99150	0.26182
2347.06294	0.26274
2345.13437	0.26464
2343.20581	0.26712
2341.27725	0.26942
2339.34868	0.27133
2337.42012	0.27265
2335.49155	0.27401
2333.56299	0.27550
2331.63442	0.27689
2329.70586	0.27851
2327.77729	0.28018
2325.84873	0.28136
2323.92017	0.28246
2321.99160	0.28388
2320.06304	0.28525
2318.13447	0.28648
2316.20591	0.28774
2314.27734	0.28897
2312.34878	0.29031
2310.42021	0.29196
2308.49165	0.29360
2306.56309	0.29498
2304.63452	0.29638
2302.70596	0.29789
2300.77739	0.29944
2298.84883	0.30104
2296.92026	0.30272
2294.99170	0.30442
2293.06313	0.30606
2291.13457	0.30771
2289.20601	0.30949
2287.27744	0.31140
2285.34888	0.31331
2283.42031	0.31519
2281.49175	0.31701
2279.56318	0.31888
2277.63462	0.32092
2275.70605	0.32307
2273.77749	0.32514
2271.84893	0.32716
2269.92036	0.32925
2267.99180	0.33141
2266.06323	0.33355
2264.13467	0.33565
2262.20610	0.33777
2260.27754	0.33986
2258.34897	0.34191
2256.42041	0.34397
2254.49185	0.34609
2252.56328	0.34823
2250.63472	0.35037
2248.70615	0.35250
2246.77759	0.35465
2244.84902	0.35682
2242.92046	0.35895
2240.99189	0.36106
2239.06333	0.36326
2237.13477	0.36548
2235.20620	0.36766
2233.27764	0.36992
2231.34907	0.37224
2229.42051	0.37445
2227.49194	0.37665
2225.56338	0.37895
2223.63481	0.38122
2221.70625	0.38330
2219.77769	0.38538
2217.84912	0.38757
2215.92056	0.38979
2213.99199	0.39202
2212.06343	0.39430
2210.13486	0.39647
2208.20630	0.39838
2206.27773	0.40018
2204.34917	0.40213
2202.42061	0.40439
2200.49204	0.40673
2198.56348	0.40883
2196.63491	0.41063
2194.70635	0.41236
2192.77778	0.41420
2190.84922	0.41619
2188.92065	0.41819
2186.99209	0.42004
2185.06353	0.42179
2183.13496	0.42350
2181.20640	0.42515
2179.27783	0.42679
2177.34927	0.42850
2175.42070	0.43019
2173.49214	0.43165
2171.56357	0.43298
2169.63501	0.43437
2167.70645	0.43576
2165.77788	0.43714
2163.84932	0.43846
2161.92075	0.43968
2159.99219	0.44087
2158.06362	0.44197
2156.13506	0.44285
2154.20649	0.44355
2152.27793	0.44427
2150.34937	0.44511
2148.42080	0.44602
2146.49224	0.44686
2144.56367	0.44741
2142.63511	0.44776
2140.70654	0.44814
2138.77798	0.44850
2136.84941	0.44873
2134.92085	0.44883
2132.99229	0.44886
2131.06372	0.44892
2129.13516	0.44891
2127.20659	0.44868
2125.27803	0.44840
2123.34946	0.44815
2121.42090	0.44777
2119.49233	0.44714
2117.56377	0.44646
2115.63521	0.44587
2113.70664	0.44534
2111.77808	0.44466
2109.84951	0.44369
2107.92095	0.44261
2105.99238	0.44161
2104.06382	0.44062
2102.13525	0.43946
2100.20669	0.43811
2098.27812	0.43669
2096.34956	0.43525
2094.42100	0.43375
2092.49243	0.43231
2090.56387	0.43084
2088.63530	0.42921
2086.70674	0.42755
2084.77817	0.42587
2082.84961	0.42410
2080.92104	0.42226
2078.99248	0.42040
2077.06392	0.41844
2075.13535	0.41635
2073.20679	0.41420
2071.27822	0.41198
2069.34966	0.40969
2067.42109	0.40737
2065.49253	0.40507
2063.56396	0.40279
2061.63540	0.40046
2059.70684	0.39804
2057.77827	0.39561
2055.84971	0.39319
2053.92114	0.39069
2051.99258	0.38820
2050.06401	0.38578
2048.13545	0.38341
2046.20688	0.38101
2044.27832	0.37848
2042.34976	0.37581
2040.42119	0.37307
2038.49263	0.37032
2036.56406	0.36761
2034.63550	0.36487
2032.70693	0.36206
2030.77837	0.35930
2028.84980	0.35661
2026.92124	0.35395
2024.99268	0.35124
2023.06411	0.34843
2021.13555	0.34556
2019.20698	0.34281
2017.27842	0.34023
2015.34985	0.33763
2013.42129	0.33494
2011.49272	0.33219
2009.56416	0.32946
2007.63560	0.32679
2005.70703	0.32415
2003.77847	0.32151
2001.84990	0.31891
1999.92134	0.31635
1997.99277	0.31372
1996.06421	0.31110
1994.13564	0.30866
1992.20708	0.30630
1990.27852	0.30379
1988.34995	0.30120
1986.42139	0.29867
1984.49282	0.29626
1982.56426	0.29398
1980.63569	0.29168
1978.70713	0.28935
1976.77856	0.28708
1974.85000	0.28498
1972.92144	0.28294
1970.99287	0.28083
1969.06431	0.27874
1967.13574	0.27669
1965.20718	0.27455
1963.27861	0.27246
1961.35005	0.27055
1959.42148	0.26871
1957.49292	0.26686
1955.56436	0.26501
1953.63579	0.26322
1951.70723	0.26148
1949.77866	0.25984
1947.85010	0.25830
1945.92153	0.25689
1943.99297	0.25556
1942.06440	0.25414
1940.13584	0.25249
1938.20728	0.25086
1936.27871	0.24949
1934.35015	0.24823
1932.42158	0.24700
1930.49302	0.24576
1928.56445	0.24457
1926.63589	0.24345
1924.70732	0.24253
1922.77876	0.24173
1920.85020	0.24081
1918.92163	0.23987
1916.99307	0.23899
1915.06450	0.23805
1913.13594	0.23709
1911.20737	0.23628
1909.27881	0.23558
1907.35024	0.23485
1905.42168	0.23405
1903.49312	0.23338
1901.56455	0.23283
1899.63599	0.23227
1897.70742	0.23179
1895.77886	0.23147
1893.85029	0.23119
1891.92173	0.23088
1889.99316	0.23071
1888.06460	0.23051
1886.13604	0.23016
1884.20747	0.22979
1882.27891	0.22954
1880.35034	0.22946
1878.42178	0.22939
1876.49321	0.22933
1874.56465	0.22930
1872.63608	0.22942
1870.70752	0.22977
1868.77896	0.23034
1866.85039	0.23062
1864.92183	0.23052
1862.99326	0.23051
1861.06470	0.23068
1859.13613	0.23103
1857.20757	0.23139
1855.27900	0.23173
1853.35044	0.23206
1851.42187	0.23258
1849.49331	0.23330
1847.56475	0.23415
1845.63618	0.23509
1843.70762	0.23609
1841.77905	0.23674
1839.85049	0.23707
1837.92192	0.23781
1835.99336	0.23884
1834.06479	0.23983
1832.13623	0.24087
1830.20767	0.24234
1828.27910	0.24385
1826.35054	0.24487
1824.42197	0.24598
1822.49341	0.24707
1820.56484	0.24815
1818.63628	0.24949
1816.70771	0.25115
1814.77915	0.25283
1812.85059	0.25464
1810.92202	0.25674
1808.99346	0.25882
1807.06489	0.26074
1805.13633	0.26259
1803.20776	0.26472
1801.27920	0.26720
1799.35063	0.27002
1797.42207	0.27257
1795.49351	0.27498
1793.56494	0.27787
1791.63638	0.28159
1789.70781	0.28492
1787.77925	0.28732
1785.85068	0.29033
1783.92212	0.29403
1781.99355	0.29792
1780.06499	0.30204
1778.13643	0.30630
1776.20786	0.31034
1774.27930	0.31479
1772.35073	0.32087
1770.42217	0.32723
1768.49360	0.33228
1766.56504	0.33715
1764.63647	0.34237
1762.70791	0.34817
1760.77935	0.35550
1758.85078	0.36250
1756.92222	0.36952
1754.99365	0.37714
1753.06509	0.38415
1751.13652	0.39257
1749.20796	0.40317
1747.27939	0.41351
1745.35083	0.42251
1743.42227	0.43200
1741.49370	0.44235
1739.56514	0.45453
1737.63657	0.46688
1735.70801	0.47772
1733.77944	0.49391
1731.85088	0.51334
1729.92231	0.52874
1727.99375	0.54437
1726.06519	0.56131
1724.13662	0.57978
1722.20806	0.59952
1720.27949	0.61767
1718.35093	0.63906
1716.42236	0.67087
1714.49380	0.70121
1712.56523	0.72575
1710.63667	0.74962
1708.70811	0.77534
1706.77954	0.80453
1704.85098	0.83924
1702.92241	0.87015
1700.99385	0.90076
1699.06528	0.94619
1697.13672	0.98810
1695.20815	1.03126
1693.27959	1.07328
1691.35103	1.10726
1689.42246	1.14657
1687.49390	1.18805
1685.56533	1.22817
1683.63677	1.29002
1681.70820	1.35391
1679.77964	1.39463
1677.85107	1.43352
1675.92251	1.47830
1673.99395	1.53393
1672.06538	1.58411
1670.13682	1.63359
1668.20825	1.69734
1666.27969	1.74906
1664.35112	1.79328
1662.42256	1.84943
1660.49399	1.91295
1658.56543	1.96209
1656.63687	2.00151
1654.70830	2.03864
1652.77974	2.09893
1650.85117	2.15527
1648.92261	2.17376
1646.99404	2.19772
1645.06548	2.22719
1643.13691	2.24681
1641.20835	2.25780
1639.27979	2.26864
1637.35122	2.27614
1635.42266	2.27728
1633.49409	2.27129
1631.56553	2.25780
1629.63696	2.24001
1627.70840	2.21181
1625.77983	2.17927
1623.85127	2.13921
1621.92271	2.09113
1619.99414	2.04769
1618.06558	2.00443
1616.13701	1.94125
1614.20845	1.87554
1612.27988	1.82604
1610.35132	1.77520
1608.42275	1.71961
1606.49419	1.66400
1604.56562	1.61229
1602.63706	1.56267
1600.70850	1.51496
1598.77993	1.47104
1596.85137	1.42953
1594.92280	1.38934
1592.99424	1.35079
1591.06567	1.31568
1589.13711	1.28271
1587.20854	1.25169
1585.27998	1.22280
1583.35142	1.19586
1581.42285	1.17140
1579.49429	1.15042
1577.56572	1.13154
1575.63716	1.10891
1573.70859	1.08912
1571.78003	1.07617
1569.85146	1.06292
1567.92290	1.04861
1565.99434	1.03781
1564.06577	1.02935
1562.13721	1.02276
1560.20864	1.01864
1558.28008	1.01482
1556.35151	1.01105
1554.42295	1.00815
1552.49438	1.00543
1550.56582	1.00176
1548.63726	0.99628
1546.70869	0.98956
1544.78013	0.98130
1542.85156	0.97093
1540.92300	0.95594
1538.99443	0.93178
1537.06587	0.91372
1535.13730	0.90202
1533.20874	0.88711
1531.28018	0.87083
1529.35161	0.85866
1527.42305	0.84723
1525.49448	0.83549
1523.56592	0.82549
1521.63735	0.81593
1519.70879	0.80607
1517.78022	0.79761
1515.85166	0.78782
1513.92310	0.77752
1511.99453	0.76880
1510.06597	0.76123
1508.13740	0.75424
1506.20884	0.74311
1504.28027	0.73246
1502.35171	0.72623
1500.42314	0.72111
1498.49458	0.71600
1496.56602	0.71008
1494.63745	0.70389
1492.70889	0.69888
1490.78032	0.69467
1488.85176	0.69002
1486.92319	0.68514
1484.99463	0.68088
1483.06606	0.67750
1481.13750	0.67471
1479.20894	0.67241
1477.28037	0.67072
1475.35181	0.66970
1473.42324	0.66903
1471.49468	0.66718
1469.56611	0.66431
1467.63755	0.66176
1465.70898	0.65964
1463.78042	0.65779
1461.85186	0.65654
1459.92329	0.65622
1457.99473	0.65649
1456.06616	0.65526
1454.13760	0.65227
1452.20903	0.64965
1450.28047	0.64731
1448.35190	0.64505
1446.42334	0.64272
1444.49478	0.64051
1442.56621	0.63846
1440.63765	0.63635
1438.70908	0.63417
1436.78052	0.63154
1434.85195	0.62854
1432.92339	0.62615
1430.99482	0.62444
1429.06626	0.62315
1427.13770	0.62239
1425.20913	0.62222
1423.28057	0.62229
1421.35200	0.62221
1419.42344	0.62206
1417.49487	0.62155
1415.56631	0.62025
1413.63774	0.61910
1411.70918	0.61857
1409.78062	0.61861
1407.85205	0.61906
1405.92349	0.61984
1403.99492	0.62061
1402.06636	0.62066
1400.13779	0.61998
1398.20923	0.61863
1396.28066	0.61670
1394.35210	0.61411
1392.42354	0.61085
1390.49497	0.60755
1388.56641	0.60440
1386.63784	0.60090
1384.70928	0.59704
1382.78071	0.59331
1380.85215	0.58985
1378.92358	0.58686
1376.99502	0.58454
1375.06646	0.58295
1373.13789	0.58180
1371.20933	0.58074
1369.28076	0.57971
1367.35220	0.57854
1365.42363	0.57719
1363.49507	0.57589
1361.56650	0.57465
1359.63794	0.57333
1357.70937	0.57205
1355.78081	0.57098
1353.85225	0.57015
1351.92368	0.56943
1349.99512	0.56882
1348.06655	0.56828
1346.13799	0.56760
1344.20942	0.56680
1342.28086	0.56609
1340.35229	0.56556
1338.42373	0.56493
1336.49517	0.56413
1334.56660	0.56352
1332.63804	0.56325
1330.70947	0.56315
1328.78091	0.56305
1326.85234	0.56306
1324.92378	0.56329
1322.99521	0.56363
1321.06665	0.56391
1319.13809	0.56408
1317.20952	0.56395
1315.28096	0.56346
1313.35239	0.56287
1311.42383	0.56235
1309.49526	0.56186
1307.56670	0.56130
1305.63813	0.56066
1303.70957	0.56004
1301.78101	0.55945
1299.85244	0.55871
1297.92388	0.55775
1295.99531	0.55677
1294.06675	0.55596
1292.13818	0.55525
1290.20962	0.55445
1288.28105	0.55354
1286.35249	0.55261
1284.42393	0.55163
1282.49536	0.55061
1280.56680	0.54966
1278.63823	0.54866
1276.70967	0.54763
1274.78110	0.54674
1272.85254	0.54596
1270.92397	0.54522
1268.99541	0.54461
1267.06685	0.54405
1265.13828	0.54345
1263.20972	0.54294
1261.28115	0.54234
1259.35259	0.54147
1257.42402	0.54063
1255.49546	0.54018
1253.56689	0.54017
1251.63833	0.54040
1249.70977	0.54052
1247.78120	0.54040
1245.85264	0.54019
1243.92407	0.53988
1241.99551	0.53934
1240.06694	0.53843
1238.13838	0.53716
1236.20981	0.53576
1234.28125	0.53427
1232.35269	0.53267
1230.42412	0.53109
1228.49556	0.52962
1226.56699	0.52824
1224.63843	0.52699
1222.70986	0.52582
1220.78130	0.52466
1218.85273	0.52360
1216.92417	0.52273
1214.99561	0.52198
1213.06704	0.52126
1211.13848	0.52061
1209.20991	0.52008
1207.28135	0.51952
1205.35278	0.51882
1203.42422	0.51799
1201.49565	0.51713
1199.56709	0.51643
1197.63853	0.51596
1195.70996	0.51561
1193.78140	0.51527
1191.85283	0.51487
1189.92427	0.51443
1187.99570	0.51408
1186.06714	0.51389
1184.13857	0.51400
1182.21001	0.51440
1180.28145	0.51504
1178.35288	0.51586
1176.42432	0.51668
1174.49575	0.51742
1172.56719	0.51792
1170.63862	0.51802
1168.71006	0.51794
1166.78149	0.51783
1164.85293	0.51759
1162.92437	0.51716
1160.99580	0.51665
1159.06724	0.51614
1157.13867	0.51541
1155.21011	0.51431
1153.28154	0.51291
1151.35298	0.51128
1149.42441	0.50935
1147.49585	0.50707
1145.56729	0.50456
1143.63872	0.50210
1141.71016	0.49979
1139.78159	0.49761
1137.85303	0.49582
1135.92446	0.49444
1133.99590	0.49309
1132.06733	0.49175
1130.13877	0.49066
1128.21021	0.48975
1126.28164	0.48877
1124.35308	0.48780
1122.42451	0.48707
1120.49595	0.48646
1118.56738	0.48588
1116.63882	0.48557
1114.71025	0.48545
1112.78169	0.48541
1110.85312	0.48567
1108.92456	0.48639
1106.99600	0.48745
1105.06743	0.48871
1103.13887	0.49024
1101.21030	0.49203
1099.28174	0.49407
1097.35317	0.49650
1095.42461	0.49946
1093.49604	0.50293
1091.56748	0.50685
1089.63892	0.51135
1087.71035	0.51651
1085.78179	0.52217
1083.85322	0.52843
1081.92466	0.53491
1079.99609	0.54041
1078.06753	0.54394
1076.13896	0.54488
1074.21040	0.54295
1072.28184	0.53867
1070.35327	0.53290
1068.42471	0.52643
1066.49614	0.51985
1064.56758	0.51343
1062.63901	0.50752
1060.71045	0.50241
1058.78188	0.49797
1056.85332	0.49401
1054.92476	0.49054
1052.99619	0.48747
1051.06763	0.48473
1049.13906	0.48236
1047.21050	0.48033
1045.28193	0.47846
1043.35337	0.47668
1041.42480	0.47520
1039.49624	0.47416
1037.56768	0.47346
1035.63911	0.47293
1033.71055	0.47264
1031.78198	0.47271
1029.85342	0.47300
1027.92485	0.47321
1025.99629	0.47332
1024.06772	0.47364
1022.13916	0.47434
1020.21060	0.47515
1018.28203	0.47593
1016.35347	0.47672
1014.42490	0.47761
1012.49634	0.47862
1010.56777	0.47971
1008.63921	0.48098
1006.71064	0.48269
1004.78208	0.48486
1002.85352	0.48740
1000.92495	0.49030
998.99639	0.49348
997.06782	0.49689
995.13926	0.50067
993.21069	0.50479
991.28213	0.50865
989.35356	0.51142
987.42500	0.51295
985.49644	0.51381
983.56787	0.51458
981.63931	0.51554
979.71074	0.51681
977.78218	0.51857
975.85361	0.52096
973.92505	0.52385
971.99648	0.52693
970.06792	0.53014
968.13936	0.53366
966.21079	0.53771
964.28223	0.54224
962.35366	0.54696
960.42510	0.55177
958.49653	0.55684
956.56797	0.56231
954.63940	0.56820
952.71084	0.57457
950.78228	0.58123
948.85371	0.58776
946.92515	0.59391
944.99658	0.60003
943.06802	0.60663
941.13945	0.61323
939.21089	0.61902
937.28232	0.62430
935.35376	0.62988
933.42520	0.63559
931.49663	0.64119
929.56807	0.64704
927.63950	0.65282
925.71094	0.65844
923.78237	0.66463
921.85381	0.67101
919.92524	0.67683
917.99668	0.68280
916.06812	0.68988
914.13955	0.69778
912.21099	0.70608
910.28242	0.71453
908.35386	0.72256
906.42529	0.73034
904.49673	0.73855
902.56816	0.74697
900.63960	0.75552
898.71104	0.76513
896.78247	0.77591
894.85391	0.78631
892.92534	0.79569
890.99678	0.80525
889.06821	0.81586
887.13965	0.82692
885.21108	0.83781
883.28252	0.84884
881.35396	0.86032
879.42539	0.87198
877.49683	0.88323
875.56826	0.89378
873.63970	0.90458
871.71113	0.91673
869.78257	0.92896
867.85400	0.93994
865.92544	0.95061
863.99687	0.96117
862.06831	0.97105
860.13975	0.98156
858.21118	0.99400
856.28262	1.00695
854.35405	1.01969
852.42549	1.03243
850.49692	1.04410
848.56836	1.05455
846.63979	1.06514
844.71123	1.07820
842.78267	1.09315
840.85410	1.10413
838.92554	1.11024
836.99697	1.11977
835.06841	1.13453
833.13984	1.14634
831.21128	1.15467
829.28271	1.16509
827.35415	1.17596
825.42559	1.18812
823.49702	1.20373
821.56846	1.21381
819.63989	1.21717
817.71133	1.22191
815.78276	1.23036
813.85420	1.24740
811.92563	1.27410
809.99707	1.29399
808.06851	1.30074
806.13994	1.31049
804.21138	1.31577
802.28281	1.30834
800.35425	1.32036
798.42568	1.37226
796.49712	1.43162
794.56855	1.46075
792.63999	1.44086
790.71143	1.37099
788.78286	1.32559
786.85430	1.33790
784.92573	1.36782
782.99717	1.39666
781.06860	1.44984
779.14004	1.51727
777.21147	1.58271
775.28291	1.68799
773.35435	1.73018
771.42578	1.60475
769.49722	1.43078
767.56865	1.30807
765.64009	1.31709
763.71152	1.51860
761.78296	1.96103
759.85439	1.85252
757.92583	1.53335
755.99727	1.55525
754.06870	1.85506
752.14014	1.78128
750.21157	1.59186
748.28301	1.37188
746.35444	1.10760
744.42588	0.99223
742.49731	1.03804
740.56875	1.16131
738.64019	1.12680
736.71162	0.92052
734.78306	0.74627
732.85449	0.66012
730.92593	0.65108
728.99736	0.65567
727.06880	0.55547
725.14023	0.42599
723.21167	0.45976
721.28311	1.00571
719.35454	0.71746
717.42598	-0.13540
715.49741	-0.47877
713.56885	-0.44748
711.64028	-0.02779
709.71172	0.24892
707.78315	0.35304
705.85459	0.56881
703.92603	0.64899
701.99746	0.48917
700.06890	0.40357
698.14033	0.50235
696.21177	0.88060
694.28320	0.93119
692.35464	0.51663
690.42607	0.31308
688.49751	0.27094
686.56895	0.34119
684.64038	0.37738
682.71182	0.33824
680.78325	0.32701
678.85469	0.30806
676.92612	0.33983
674.99756	0.42412
673.06899	0.38447
671.14043	0.36235
669.21187	0.44467
667.28330	0.44709
665.35474	0.39109
663.42617	0.43253
661.49761	0.57537
659.56904	0.53670
657.64048	0.41031
655.71191	0.39415
653.78335	0.40621
651.85479	0.36355
649.92622	0.30637
647.99766	0.34760
646.06909	0.45555
644.14053	0.48780
642.21196	0.51022
640.28340	0.82005
638.35483	1.36314
636.42627	0.61544
634.49771	0.36259
632.56914	0.26781
630.64058	0.25698
628.71201	0.27774
626.78345	0.29615
624.85488	0.32142
622.92632	0.36711
620.99775	0.37888
619.06919	0.36865
617.14062	0.39326
615.21206	0.39449
613.28350	0.36786
611.35493	0.35427
609.42637	0.35769
607.49780	0.35051
605.56924	0.31573
603.64067	0.28401
601.71211	0.23375
599.78354	0.18146
597.85498	0.17432
595.92642	0.21780
593.99785	0.29802
592.06929	0.39474
590.14072	0.40324
588.21216	0.32551
586.28359	0.27538
584.35503	0.28570
582.42646	0.32936
580.49790	0.37011
578.56934	0.45854
576.64077	0.50908
574.71221	0.43114
572.78364	0.32440
570.85508	0.25085
568.92651	0.23893
566.99795	0.23470
565.06938	0.20825
563.14082	0.20910
561.21226	0.27821
559.28369	0.35983
557.35513	0.34032
555.42656	0.26609
553.49800	0.20484
551.56943	0.17063
549.64087	0.15198
547.71230	0.17066
545.78374	0.24421
543.85518	0.32979
541.92661	0.38401
539.99805	0.42240
538.06948	0.44547
536.14092	0.33971
534.21235	0.24606
532.28379	0.25881
530.35522	0.29304
528.42666	0.25552
526.49810	0.22551
524.56953	0.23858
522.64097	0.27967
520.71240	0.35156
518.78384	0.36415
516.85527	0.33890
514.92671	0.39486
512.99814	0.39742
511.06958	0.27628
509.14102	0.21942
507.21245	0.24881
505.28389	0.28674
503.35532	0.28089
501.42676	0.27869
499.49819	0.31014
