3997.91411	0.06862
3995.98555	0.06930
3994.05698	0.07022
3992.12842	0.07074
3990.19985	0.07084
3988.27129	0.07098
3986.34272	0.07150
3984.41416	0.07218
3982.48560	0.07266
3980.55703	0.07259
3978.62847	0.07202
3976.69990	0.07165
3974.77134	0.07195
3972.84277	0.07251
3970.91421	0.07271
3968.98564	0.07258
3967.05708	0.07267
3965.12852	0.07305
3963.19995	0.07338
3961.27139	0.07363
3959.34282	0.07378
3957.41426	0.07377
3955.48569	0.07384
3953.55713	0.07410
3951.62856	0.07447
3949.70000	0.07491
3947.77144	0.07499
3945.84287	0.07454
3943.91431	0.07397
3941.98574	0.07354
3940.05718	0.07335
3938.12861	0.07356
3936.20005	0.07419
3934.27148	0.07503
3932.34292	0.07561
3930.41436	0.07558
3928.48579	0.07535
3926.55723	0.07534
3924.62866	0.07538
3922.70010	0.07510
3920.77153	0.07472
3918.84297	0.07455
3916.91440	0.07422
3914.98584	0.07369
3913.05728	0.07332
3911.12871	0.07326
3909.20015	0.07338
3907.27158	0.07359
3905.34302	0.07420
3903.41445	0.07536
3901.48589	0.07607
3899.55732	0.07568
3897.62876	0.07457
3895.70020	0.07356
3893.77163	0.07352
3891.84307	0.07425
3889.91450	0.07465
3887.98594	0.07443
3886.05737	0.07458
3884.12881	0.07516
3882.20024	0.07563
3880.27168	0.07593
3878.34312	0.07544
3876.41455	0.07460
3874.48599	0.07462
3872.55742	0.07539
3870.62886	0.07630
3868.70029	0.07700
3866.77173	0.07711
3864.84316	0.07730
3862.91460	0.07775
3860.98604	0.07763
3859.05747	0.07742
3857.12891	0.07816
3855.20034	0.08011
3853.27178	0.08253
3851.34321	0.08295
3849.41465	0.08143
3847.48608	0.08036
3845.55752	0.08045
3843.62896	0.08165
3841.70039	0.08325
3839.77183	0.08474
3837.84326	0.08612
3835.91470	0.08677
3833.98613	0.08648
3832.05757	0.08599
3830.12900	0.08589
3828.20044	0.08645
3826.27187	0.08756
3824.34331	0.08883
3822.41475	0.09018
3820.48618	0.09169
3818.55762	0.09231
3816.62905	0.09260
3814.70049	0.09320
3812.77192	0.09330
3810.84336	0.09338
3808.91479	0.09418
3806.98623	0.09580
3805.05767	0.09773
3803.12910	0.09928
3801.20054	0.10065
3799.27197	0.10147
3797.34341	0.10183
3795.41484	0.10259
3793.48628	0.10361
3791.55771	0.10470
3789.62915	0.10586
3787.70059	0.10718
3785.77202	0.10892
3783.84346	0.11061
3781.91489	0.11191
3779.98633	0.11370
3778.05776	0.11593
3776.12920	0.11717
3774.20063	0.11796
3772.27207	0.11923
3770.34351	0.12127
3768.41494	0.12420
3766.48638	0.12695
3764.55781	0.12889
3762.62925	0.13047
3760.70068	0.13233
3758.77212	0.13495
3756.84355	0.13784
3754.91499	0.14018
3752.98643	0.14279
3751.05786	0.14680
3749.12930	0.15110
3747.20073	0.15335
3745.27217	0.15529
3743.34360	0.15863
3741.41504	0.16167
3739.48647	0.16395
3737.55791	0.16670
3735.62935	0.17088
3733.70078	0.17680
3731.77222	0.18219
3729.84365	0.18646
3727.91509	0.19073
3725.98652	0.19609
3724.05796	0.20276
3722.12939	0.20981
3720.20083	0.21690
3718.27227	0.22417
3716.34370	0.23194
3714.41514	0.24029
3712.48657	0.25032
3710.55801	0.26375
3708.62944	0.27804
3706.70088	0.29009
3704.77231	0.30127
3702.84375	0.31388
3700.91519	0.33071
3698.98662	0.34972
3697.05806	0.36765
3695.12949	0.38666
3693.20093	0.40710
3691.27236	0.42904
3689.34380	0.45729
3687.41523	0.49307
3685.48667	0.52471
3683.55811	0.55118
3681.62954	0.57941
3679.70098	0.61161
3677.77241	0.64576
3675.84385	0.68606
3673.91528	0.73963
3671.98672	0.78351
3670.05815	0.82272
3668.12959	0.87633
3666.20103	0.92565
3664.27246	0.96716
3662.34390	1.01154
3660.41533	1.05934
3658.48677	1.10633
3656.55820	1.15635
3654.62964	1.21260
3652.70107	1.25977
3650.77251	1.29969
3648.84395	1.35413
3646.91538	1.42264
3644.98682	1.47462
3643.05825	1.51464
3641.12969	1.55553
3639.20112	1.60077
3637.27256	1.64594
3635.34399	1.68953
3633.41543	1.73308
3631.48687	1.77369
3629.55830	1.81439
3627.62974	1.86848
3625.70117	1.92036
3623.77261	1.95449
3621.84404	1.98625
3619.91548	2.02418
3617.98691	2.07091
3616.05835	2.11508
3614.12979	2.15224
3612.20122	2.19180
3610.27266	2.23118
3608.34409	2.27113
3606.41553	2.31405
3604.48696	2.35312
3602.55840	2.38743
3600.62983	2.42432
3598.70127	2.46483
3596.77271	2.50548
3594.84414	2.54723
3592.91558	2.59021
3590.98701	2.62999
3589.05845	2.66548
3587.12988	2.70648
3585.20132	2.75299
3583.27275	2.79519
3581.34419	2.83496
3579.41562	2.87622
3577.48706	2.91912
3575.55850	2.96167
3573.62993	3.00429
3571.70137	3.04610
3569.77280	3.08574
3567.84424	3.12668
3565.91567	3.17759
3563.98711	3.22973
3562.05854	3.27401
3560.12998	3.31682
3558.20142	3.35958
3556.27285	3.40285
3554.34429	3.44755
3552.41572	3.49483
3550.48716	3.54166
3548.55859	3.58498
3546.63003	3.62765
3544.70146	3.67371
3542.77290	3.72236
3540.84434	3.76962
3538.91577	3.81364
3536.98721	3.85893
3535.05864	3.91086
3533.13008	3.96273
3531.20151	4.01010
3529.27295	4.05469
3527.34438	4.09882
3525.41582	4.14409
3523.48726	4.19110
3521.55869	4.23999
3519.63013	4.28961
3517.70156	4.34119
3515.77300	4.39173
3513.84443	4.43795
3511.91587	4.48162
3509.98730	4.52780
3508.05874	4.57651
3506.13018	4.62301
3504.20161	4.66766
3502.27305	4.71417
3500.34448	4.76477
3498.41592	4.81521
3496.48735	4.86498
3494.55879	4.91892
3492.63022	4.97262
3490.70166	5.01669
3488.77310	5.05484
3486.84453	5.09838
3484.91597	5.14799
3482.98740	5.19437
3481.05884	5.23897
3479.13027	5.29058
3477.20171	5.34489
3475.27314	5.39778
3473.34458	5.44708
3471.41602	5.48768
3469.48745	5.53008
3467.55889	5.58392
3465.63032	5.63997
3463.70176	5.69024
3461.77319	5.73539
3459.84463	5.78213
3457.91606	5.83393
3455.98750	5.88558
3454.05894	5.93234
3452.13037	5.98112
3450.20181	6.04370
3448.27324	6.10994
3446.34468	6.15709
3444.41611	6.18901
3442.48755	6.22755
3440.55898	6.27199
3438.63042	6.31655
3436.70186	6.35821
3434.77329	6.40441
3432.84473	6.45994
3430.91616	6.50387
3428.98760	6.54290
3427.05903	6.61176
3425.13047	6.69499
3423.20190	6.72581
3421.27334	6.71872
3419.34478	6.73036
3417.41621	6.76959
3415.48765	6.83678
3413.55908	6.92175
3411.63052	7.01227
3409.70195	7.07853
3407.77339	7.09542
3405.84482	7.10524
3403.91626	7.15206
3401.98770	7.21014
3400.05913	7.27071
3398.13057	7.33873
3396.20200	7.38480
3394.27344	7.40024
3392.34487	7.41109
3390.41631	7.45356
3388.48774	7.50080
3386.55918	7.55076
3384.63062	7.59752
3382.70205	7.58851
3380.77349	7.57999
3378.84492	7.64425
3376.91636	7.70938
3374.98779	7.68879
3373.05923	7.63841
3371.13066	7.62609
3369.20210	7.70610
3367.27354	7.82517
3365.34497	7.84909
3363.41641	7.80377
3361.48784	7.79548
3359.55928	7.84299
3357.63071	7.91094
3355.70215	7.98511
3353.77358	8.03514
3351.84502	8.07249
3349.91646	8.05583
3347.98789	7.95789
3346.05933	7.91897
3344.13076	8.00777
3342.20220	8.10088
3340.27363	8.07470
3338.34507	8.01876
3336.41650	8.03861
3334.48794	8.12789
3332.55937	8.19233
3330.63081	8.17626
3328.70225	8.09548
3326.77368	8.02938
3324.84512	8.04331
3322.91655	8.07722
3320.98799	8.08246
3319.05942	8.07707
3317.13086	8.09321
3315.20229	8.14374
3313.27373	8.20095
3311.34517	8.17684
3309.41660	8.11722
3307.48804	8.12947
3305.55947	8.18721
3303.63091	8.22514
3301.70234	8.18630
3299.77378	8.14478
3297.84521	8.16491
3295.91665	8.22003
3293.98809	8.26776
3292.05952	8.27301
3290.13096	8.25773
3288.20239	8.23787
3286.27383	8.21161
3284.34526	8.17109
3282.41670	8.11936
3280.48813	8.07564
3278.55957	8.04797
3276.63101	7.99884
3274.70244	7.97061
3272.77388	7.99986
3270.84531	8.03057
3268.91675	8.08154
3266.98818	8.13575
3265.05962	8.14863
3263.13105	8.17055
3261.20249	8.19801
3259.27393	8.17396
3257.34536	8.16687
3255.41680	8.22403
3253.48823	8.25923
3251.55967	8.21234
3249.63110	8.12556
3247.70254	8.08473
3245.77397	8.09232
3243.84541	8.12895
3241.91685	8.21049
3239.98828	8.29490
3238.05972	8.32327
3236.13115	8.29160
3234.20259	8.21402
3232.27402	8.10611
3230.34546	8.03704
3228.41689	8.05552
3226.48833	8.08490
3224.55977	8.06655
3222.63120	8.06057
3220.70264	8.05162
3218.77407	7.98624
3216.84551	7.93311
3214.91694	7.94805
3212.98838	7.93870
3211.05981	7.85564
3209.13125	7.80699
3207.20269	7.80830
3205.27412	7.80007
3203.34556	7.77744
3201.41699	7.70538
3199.48843	7.59733
3197.55986	7.55862
3195.63130	7.57610
3193.70273	7.54618
3191.77417	7.48370
3189.84561	7.43149
3187.91704	7.38654
3185.98848	7.37287
3184.05991	7.36429
3182.13135	7.30951
3180.20278	7.23520
3178.27422	7.16022
3176.34565	7.08594
3174.41709	7.03577
3172.48853	7.02198
3170.55996	7.00260
3168.63140	6.92297
3166.70283	6.81474
3164.77427	6.73244
3162.84570	6.67851
3160.91714	6.63641
3158.98857	6.58995
3157.06001	6.53122
3155.13145	6.46579
3153.20288	6.38962
3151.27432	6.30698
3149.34575	6.22957
3147.41719	6.16681
3145.48862	6.12446
3143.56006	6.06863
3141.63149	5.98200
3139.70293	5.89999
3137.77437	5.83548
3135.84580	5.77149
3133.91724	5.70453
3131.98867	5.63477
3130.06011	5.55673
3128.13154	5.47797
3126.20298	5.40641
3124.27441	5.34004
3122.34585	5.27212
3120.41729	5.19898
3118.48872	5.12731
3116.56016	5.05975
3114.63159	4.98975
3112.70303	4.91831
3110.77446	4.84882
3108.84590	4.77853
3106.91733	4.70925
3104.98877	4.64378
3103.06021	4.57835
3101.13164	4.51050
3099.20308	4.44402
3097.27451	4.38127
3095.34595	4.31883
3093.41738	4.25239
3091.48882	4.18315
3089.56025	4.11564
3087.63169	4.05205
3085.70312	3.99357
3083.77456	3.93821
3081.84600	3.88041
3079.91743	3.81920
3077.98887	3.75750
3076.06030	3.69603
3074.13174	3.63610
3072.20317	3.57903
3070.27461	3.52251
3068.34604	3.46543
3066.41748	3.40894
3064.48892	3.35331
3062.56035	3.29734
3060.63179	3.24144
3058.70322	3.18768
3056.77466	3.13617
3054.84609	3.08508
3052.91753	3.03340
3050.98896	2.98276
3049.06040	2.93381
3047.13184	2.88461
3045.20327	2.83485
3043.27471	2.78654
3041.34614	2.74009
3039.41758	2.69394
3037.48901	2.64768
3035.56045	2.60186
3033.63188	2.55674
3031.70332	2.51198
3029.77476	2.46775
3027.84619	2.42559
3025.91763	2.38483
3023.98906	2.34290
3022.06050	2.30033
3020.13193	2.25922
3018.20337	2.21946
3016.27480	2.18060
3014.34624	2.14270
3012.41768	2.10515
3010.48911	2.06790
3008.56055	2.03164
3006.63198	1.99607
3004.70342	1.96082
3002.77485	1.92656
3000.84629	1.89322
2998.91772	1.85972
2996.98916	1.82611
2995.06060	1.79347
2993.13203	1.76225
2991.20347	1.73194
2989.27490	1.70177
2987.34634	1.67167
2985.41777	1.64219
2983.48921	1.61338
2981.56064	1.58491
2979.63208	1.55686
2977.70352	1.52960
2975.77495	1.50302
2973.84639	1.47672
2971.91782	1.45080
2969.98926	1.42531
2968.06069	1.40020
2966.13213	1.37554
2964.20356	1.35087
2962.27500	1.32630
2960.34644	1.30248
2958.41787	1.27928
2956.48931	1.25637
2954.56074	1.23368
2952.63218	1.21100
2950.70361	1.18825
2948.77505	1.16585
2946.84648	1.14411
2944.91792	1.12314
2942.98936	1.10302
2941.06079	1.08298
2939.13223	1.06259
2937.20366	1.04283
2935.27510	1.02402
2933.34653	1.00549
2931.41797	0.98725
2929.48940	0.96946
2927.56084	0.95180
2925.63228	0.93420
2923.70371	0.91716
2921.77515	0.90067
2919.84658	0.88442
2917.91802	0.86862
2915.98945	0.85321
2914.06089	0.83767
2912.13232	0.82181
2910.20376	0.80634
2908.27520	0.79178
2906.34663	0.77784
2904.41807	0.76435
2902.48950	0.75121
2900.56094	0.73824
2898.63237	0.72563
2896.70381	0.71366
2894.77524	0.70192
2892.84668	0.68986
2890.91812	0.67776
2888.98955	0.66611
2887.06099	0.65488
2885.13242	0.64413
2883.20386	0.63392
2881.27529	0.62391
2879.34673	0.61397
2877.41816	0.60410
2875.48960	0.59417
2873.56104	0.58434
2871.63247	0.57467
2869.70391	0.56478
2867.77534	0.55456
2865.84678	0.54425
2863.91821	0.53413
2861.98965	0.52435
2860.06108	0.51483
2858.13252	0.50556
2856.20396	0.49664
2854.27539	0.48831
2852.34683	0.48060
2850.41826	0.47302
2848.48970	0.46523
2846.56113	0.45741
2844.63257	0.44999
2842.70400	0.44326
2840.77544	0.43710
2838.84687	0.43120
2836.91831	0.42544
2834.98975	0.41973
2833.06118	0.41395
2831.13262	0.40823
2829.20405	0.40255
2827.27549	0.39680
2825.34692	0.39101
2823.41836	0.38533
2821.48979	0.37989
2819.56123	0.37443
2817.63267	0.36878
2815.70410	0.36312
2813.77554	0.35768
2811.84697	0.35248
2809.91841	0.34734
2807.98984	0.34221
2806.06128	0.33730
2804.13271	0.33249
2802.20415	0.32775
2800.27559	0.32324
2798.34702	0.31883
2796.41846	0.31436
2794.48989	0.30991
2792.56133	0.30544
2790.63276	0.30102
2788.70420	0.29692
2786.77563	0.29302
2784.84707	0.28912
2782.91851	0.28532
2780.98994	0.28157
2779.06138	0.27780
2777.13281	0.27413
2775.20425	0.27053
2773.27568	0.26699
2771.34712	0.26357
2769.41855	0.26020
2767.48999	0.25669
2765.56143	0.25313
2763.63286	0.24982
2761.70430	0.24684
2759.77573	0.24399
2757.84717	0.24114
2755.91860	0.23833
2753.99004	0.23554
2752.06147	0.23276
2750.13291	0.23005
2748.20435	0.22745
2746.27578	0.22490
2744.34722	0.22233
2742.41865	0.21958
2740.49009	0.21689
2738.56152	0.21458
2736.63296	0.21232
2734.70439	0.20991
2732.77583	0.20764
2730.84727	0.20557
2728.91870	0.20346
2726.99014	0.20125
2725.06157	0.19915
2723.13301	0.19719
2721.20444	0.19527
2719.27588	0.19340
2717.34731	0.19145
2715.41875	0.18950
2713.49019	0.18776
2711.56162	0.18617
2709.63306	0.18453
2707.70449	0.18280
2705.77593	0.18119
2703.84736	0.17981
2701.91880	0.17845
2699.99023	0.17695
2698.06167	0.17555
2696.13311	0.17436
2694.20454	0.17315
2692.27598	0.17179
2690.34741	0.17042
2688.41885	0.16914
2686.49028	0.16795
2684.56172	0.16689
2682.63315	0.16592
2680.70459	0.16492
2678.77603	0.16387
2676.84746	0.16281
2674.91890	0.16182
2672.99033	0.16087
2671.06177	0.15980
2669.13320	0.15864
2667.20464	0.15765
2665.27607	0.15685
2663.34751	0.15607
2661.41895	0.15534
2659.49038	0.15462
2657.56182	0.15394
2655.63325	0.15331
2653.70469	0.15257
2651.77612	0.15182
2649.84756	0.15119
2647.91899	0.15066
2645.99043	0.15012
2644.06187	0.14954
2642.13330	0.14899
2640.20474	0.14855
2638.27617	0.14817
2636.34761	0.14791
2634.41904	0.14777
2632.49048	0.14754
2630.56191	0.14717
2628.63335	0.14674
2626.70479	0.14636
2624.77622	0.14607
2622.84766	0.14573
2620.91909	0.14538
2618.99053	0.14521
2617.06196	0.14508
2615.13340	0.14486
2613.20483	0.14471
2611.27627	0.14463
2609.34771	0.14449
2607.41914	0.14443
2605.49058	0.14456
2603.56201	0.14462
2601.63345	0.14451
2599.70488	0.14440
2597.77632	0.14446
2595.84775	0.14467
2593.91919	0.14490
2591.99062	0.14508
2590.06206	0.14514
2588.13350	0.14515
2586.20493	0.14540
2584.27637	0.14577
2582.34780	0.14601
2580.41924	0.14619
2578.49067	0.14655
2576.56211	0.14699
2574.63354	0.14727
2572.70498	0.14749
2570.77642	0.14792
2568.84785	0.14848
2566.91929	0.14889
2564.99072	0.14926
2563.06216	0.14975
2561.13359	0.15022
2559.20503	0.15061
2557.27646	0.15111
2555.34790	0.15169
2553.41934	0.15215
2551.49077	0.15263
2549.56221	0.15332
2547.63364	0.15398
2545.70508	0.15442
2543.77651	0.15486
2541.84795	0.15547
2539.91938	0.15614
2537.99082	0.15682
2536.06226	0.15754
2534.13369	0.15828
2532.20513	0.15898
2530.27656	0.15968
2528.34800	0.16043
2526.41943	0.16116
2524.49087	0.16182
2522.56230	0.16256
2520.63374	0.16336
2518.70518	0.16403
2516.77661	0.16467
2514.84805	0.16544
2512.91948	0.16630
2510.99092	0.16717
2509.06235	0.16798
2507.13379	0.16881
2505.20522	0.16976
2503.27666	0.17071
2501.34810	0.17144
2499.41953	0.17206
2497.49097	0.17282
2495.56240	0.17378
2493.63384	0.17476
2491.70527	0.17564
2489.77671	0.17654
2487.84814	0.17748
2485.91958	0.17834
2483.99102	0.17907
2482.06245	0.17981
2480.13389	0.18066
2478.20532	0.18160
2476.27676	0.18260
2474.34819	0.18357
2472.41963	0.18444
2470.49106	0.18530
2468.56250	0.18619
2466.63394	0.18714
2464.70537	0.18807
2462.77681	0.18893
2460.84824	0.18990
2458.91968	0.19101
2456.99111	0.19194
2455.06255	0.19271
2453.13398	0.19369
2451.20542	0.19494
2449.27686	0.19612
2447.34829	0.19708
2445.41973	0.19802
2443.49116	0.19904
2441.56260	0.20006
2439.63403	0.20109
2437.70547	0.20217
2435.77690	0.20328
2433.84834	0.20433
2431.91978	0.20534
2429.99121	0.20630
2428.06265	0.20725
2426.13408	0.20835
2424.20552	0.20951
2422.27695	0.21056
2420.34839	0.21156
2418.41982	0.21260
2416.49126	0.21363
2414.56270	0.21470
2412.63413	0.21588
2410.70557	0.21703
2408.77700	0.21821
2406.84844	0.21951
2404.91987	0.22084
2402.99131	0.22207
2401.06274	0.22317
2399.13418	0.22430
2397.20562	0.22554
2395.27705	0.22676
2393.34849	0.22783
2391.41992	0.22899
2389.49136	0.23031
2387.56279	0.23153
2385.63423	0.23252
2383.70566	0.23335
2381.77710	0.23403
2379.84854	0.23473
2377.91997	0.23553
2375.99141	0.23615
2374.06284	0.23644
2372.13428	0.23662
2370.20571	0.23715
2368.27715	0.23792
2366.34858	0.23851
2364.42002	0.23888
2362.49146	0.23946
2360.56289	0.24125
2358.63433	0.24416
2356.70576	0.24663
2354.77720	0.24826
2352.84863	0.25022
2350.92007	0.25284
2348.99150	0.25496
2347.06294	0.25608
2345.13437	0.25664
2343.20581	0.25746
2341.27725	0.25901
2339.34868	0.26087
2337.42012	0.26253
2335.49155	0.26414
2333.56299	0.26582
2331.63442	0.26747
2329.70586	0.26905
2327.77729	0.27099
2325.84873	0.27323
2323.92017	0.27529
2321.99160	0.27716
2320.06304	0.27909
2318.13447	0.28129
2316.20591	0.28361
2314.27734	0.28577
2312.34878	0.28786
2310.42021	0.28998
2308.49165	0.29212
2306.56309	0.29425
2304.63452	0.29629
2302.70596	0.29832
2300.77739	0.30036
2298.84883	0.30226
2296.92026	0.30411
2294.99170	0.30602
2293.06313	0.30806
2291.13457	0.31015
2289.20601	0.31214
2287.27744	0.31413
2285.34888	0.31634
2283.42031	0.31861
2281.49175	0.32059
2279.56318	0.32232
2277.63462	0.32417
2275.70605	0.32622
2273.77749	0.32828
2271.84893	0.33037
2269.92036	0.33248
2267.99180	0.33456
2266.06323	0.33660
2264.13467	0.33861
2262.20610	0.34066
2260.27754	0.34279
2258.34897	0.34495
2256.42041	0.34712
2254.49185	0.34929
2252.56328	0.35150
2250.63472	0.35374
2248.70615	0.35590
2246.77759	0.35797
2244.84902	0.36008
2242.92046	0.36234
2240.99189	0.36470
2239.06333	0.36691
2237.13477	0.36898
2235.20620	0.37116
2233.27764	0.37347
2231.34907	0.37575
2229.42051	0.37795
2227.49194	0.38012
2225.56338	0.38227
2223.63481	0.38431
2221.70625	0.38628
2219.77769	0.38843
2217.84912	0.39074
2215.92056	0.39302
2213.99199	0.39516
2212.06343	0.39725
2210.13486	0.39944
2208.20630	0.40169
2206.27773	0.40383
2204.34917	0.40582
2202.42061	0.40781
2200.49204	0.40980
2198.56348	0.41174
2196.63491	0.41371
2194.70635	0.41571
2192.77778	0.41769
2190.84922	0.41967
2188.92065	0.42153
2186.99209	0.42326
2185.06353	0.42501
2183.13496	0.42671
2181.20640	0.42836
2179.27783	0.42996
2177.34927	0.43147
2175.42070	0.43298
2173.49214	0.43460
2171.56357	0.43615
2169.63501	0.43752
2167.70645	0.43885
2165.77788	0.44021
2163.84932	0.44149
2161.92075	0.44266
2159.99219	0.44379
2158.06362	0.44490
2156.13506	0.44601
2154.20649	0.44698
2152.27793	0.44775
2150.34937	0.44854
2148.42080	0.44943
2146.49224	0.45017
2144.56367	0.45061
2142.63511	0.45092
2140.70654	0.45125
2138.77798	0.45163
2136.84941	0.45196
2134.92085	0.45217
2132.99229	0.45219
2131.06372	0.45211
2129.13516	0.45203
2127.20659	0.45190
2125.27803	0.45171
2123.34946	0.45156
2121.42090	0.45138
2119.49233	0.45095
2117.56377	0.45031
2115.63521	0.44965
2113.70664	0.44899
2111.77808	0.44821
2109.84951	0.44720
2107.92095	0.44614
2105.99238	0.44522
2104.06382	0.44440
2102.13525	0.44335
2100.20669	0.44210
2098.27812	0.44080
2096.34956	0.43939
2094.42100	0.43791
2092.49243	0.43644
2090.56387	0.43497
2088.63530	0.43330
2086.70674	0.43142
2084.77817	0.42952
2082.84961	0.42780
2080.92104	0.42613
2078.99248	0.42430
2077.06392	0.42229
2075.13535	0.42026
2073.20679	0.41823
2071.27822	0.41610
2069.34966	0.41386
2067.42109	0.41151
2065.49253	0.40916
2063.56396	0.40686
2061.63540	0.40461
2059.70684	0.40230
2057.77827	0.39987
2055.84971	0.39744
2053.92114	0.39502
2051.99258	0.39258
2050.06401	0.39012
2048.13545	0.38769
2046.20688	0.38515
2044.27832	0.38246
2042.34976	0.37976
2040.42119	0.37707
2038.49263	0.37434
2036.56406	0.37168
2034.63550	0.36912
2032.70693	0.36655
2030.77837	0.36391
2028.84980	0.36118
2026.92124	0.35839
2024.99268	0.35558
2023.06411	0.35286
2021.13555	0.35019
2019.20698	0.34754
2017.27842	0.34487
2015.34985	0.34210
2013.42129	0.33932
2011.49272	0.33658
2009.56416	0.33393
2007.63560	0.33131
2005.70703	0.32862
2003.77847	0.32588
2001.84990	0.32318
1999.92134	0.32061
1997.99277	0.31815
1996.06421	0.31565
1994.13564	0.31319
1992.20708	0.31081
1990.27852	0.30830
1988.34995	0.30565
1986.42139	0.30303
1984.49282	0.30064
1982.56426	0.29846
1980.63569	0.29624
1978.70713	0.29388
1976.77856	0.29152
1974.85000	0.28931
1972.92144	0.28709
1970.99287	0.28488
1969.06431	0.28276
1967.13574	0.28065
1965.20718	0.27857
1963.27861	0.27666
1961.35005	0.27482
1959.42148	0.27294
1957.49292	0.27110
1955.56436	0.26929
1953.63579	0.26751
1951.70723	0.26583
1949.77866	0.26426
1947.85010	0.26272
1945.92153	0.26116
1943.99297	0.25961
1942.06440	0.25804
1940.13584	0.25645
1938.20728	0.25501
1936.27871	0.25366
1934.35015	0.25226
1932.42158	0.25090
1930.49302	0.24961
1928.56445	0.24844
1926.63589	0.24738
1924.70732	0.24639
1922.77876	0.24542
1920.85020	0.24444
1918.92163	0.24353
1916.99307	0.24257
1915.06450	0.24157
1913.13594	0.24069
1911.20737	0.24000
1909.27881	0.23934
1907.35024	0.23866
1905.42168	0.23790
1903.49312	0.23709
1901.56455	0.23638
1899.63599	0.23591
1897.70742	0.23569
1895.77886	0.23543
1893.85029	0.23499
1891.92173	0.23450
1889.99316	0.23418
1888.06460	0.23382
1886.13604	0.23348
1884.20747	0.23332
1882.27891	0.23320
1880.35034	0.23307
1878.42178	0.23296
1876.49321	0.23292
1874.56465	0.23290
1872.63608	0.23294
1870.70752	0.23318
1868.77896	0.23369
1866.85039	0.23397
1864.92183	0.23386
1862.99326	0.23382
1861.06470	0.23400
1859.13613	0.23438
1857.20757	0.23483
1855.27900	0.23531
1853.35044	0.23567
1851.42187	0.23606
1849.49331	0.23658
1847.56475	0.23724
1845.63618	0.23811
1843.70762	0.23914
1841.77905	0.23981
1839.85049	0.24009
1837.92192	0.24077
1835.99336	0.24176
1834.06479	0.24276
1832.13623	0.24377
1830.20767	0.24520
1828.27910	0.24675
1826.35054	0.24787
1824.42197	0.24909
1822.49341	0.25028
1820.56484	0.25145
1818.63628	0.25279
1816.70771	0.25434
1814.77915	0.25590
1812.85059	0.25756
1810.92202	0.25953
1808.99346	0.26158
1807.06489	0.26355
1805.13633	0.26545
1803.20776	0.26763
1801.27920	0.27015
1799.35063	0.27297
1797.42207	0.27550
1795.49351	0.27786
1793.56494	0.28060
1791.63638	0.28410
1789.70781	0.28750
1787.77925	0.29013
1785.85068	0.29319
1783.92212	0.29682
1781.99355	0.30070
1780.06499	0.30479
1778.13643	0.30904
1776.20786	0.31310
1774.27930	0.31745
1772.35073	0.32323
1770.42217	0.32944
1768.49360	0.33476
1766.56504	0.33996
1764.63647	0.34525
1762.70791	0.35094
1760.77935	0.35812
1758.85078	0.36503
1756.92222	0.37211
1754.99365	0.37990
1753.06509	0.38693
1751.13652	0.39513
1749.20796	0.40551
1747.27939	0.41593
1745.35083	0.42517
1743.42227	0.43499
1741.49370	0.44577
1739.56514	0.45816
1737.63657	0.47048
1735.70801	0.48131
1733.77944	0.49745
1731.85088	0.51689
1729.92231	0.53245
1727.99375	0.54813
1726.06519	0.56485
1724.13662	0.58302
1722.20806	0.60272
1720.27949	0.62105
1718.35093	0.64245
1716.42236	0.67381
1714.49380	0.70372
1712.56523	0.72820
1710.63667	0.75212
1708.70811	0.77785
1706.77954	0.80699
1704.85098	0.84162
1702.92241	0.87248
1700.99385	0.90300
1699.06528	0.94828
1697.13672	0.98974
1695.20815	1.03209
1693.27959	1.07369
1691.35103	1.10743
1689.42246	1.14594
1687.49390	1.18622
1685.56533	1.22485
1683.63677	1.28416
1681.70820	1.34618
1679.77964	1.38652
1677.85107	1.42534
1675.92251	1.46991
1673.99395	1.52432
1672.06538	1.57227
1670.13682	1.61876
1668.20825	1.67945
1666.27969	1.72962
1664.35112	1.77236
1662.42256	1.82500
1660.49399	1.88295
1658.56543	1.92785
1656.63687	1.96488
1654.70830	1.99972
1652.77974	2.05604
1650.85117	2.11192
1648.92261	2.13469
1646.99404	2.16262
1645.06548	2.19174
1643.13691	2.21079
1641.20835	2.22345
1639.27979	2.23502
1637.35122	2.24159
1635.42266	2.24166
1633.49409	2.23625
1631.56553	2.22423
1629.63696	2.20802
1627.70840	2.18185
1625.77983	2.15231
1623.85127	2.11515
1621.92271	2.06752
1619.99414	2.02306
1618.06558	1.97890
1616.13701	1.91745
1614.20845	1.85603
1612.27988	1.80875
1610.35132	1.75804
1608.42275	1.70280
1606.49419	1.64889
1604.56562	1.59902
1602.63706	1.55041
1600.70850	1.50267
1598.77993	1.45852
1596.85137	1.41717
1594.92280	1.37722
1592.99424	1.33849
1591.06567	1.30281
1589.13711	1.26949
1587.20854	1.23863
1585.27998	1.20997
1583.35142	1.18279
1581.42285	1.15770
1579.49429	1.13610
1577.56572	1.11664
1575.63716	1.09326
1573.70859	1.07240
1571.78003	1.05825
1569.85146	1.04331
1567.92290	1.02689
1565.99434	1.01428
1564.06577	1.00381
1562.13721	0.99503
1560.20864	0.98818
1558.28008	0.97901
1556.35151	0.97117
1554.42295	0.96584
1552.49438	0.96026
1550.56582	0.95406
1548.63726	0.94673
1546.70869	0.93907
1544.78013	0.93045
1542.85156	0.92012
1540.92300	0.90695
1538.99443	0.88815
1537.06587	0.87402
1535.13730	0.86404
1533.20874	0.85107
1531.28018	0.83724
1529.35161	0.82708
1527.42305	0.81763
1525.49448	0.80807
1523.56592	0.79985
1521.63735	0.79145
1519.70879	0.78223
1517.78022	0.77443
1515.85166	0.76630
1513.92310	0.75814
1511.99453	0.75105
1510.06597	0.74456
1508.13740	0.73827
1506.20884	0.72884
1504.28027	0.72034
1502.35171	0.71527
1500.42314	0.71072
1498.49458	0.70579
1496.56602	0.70023
1494.63745	0.69488
1492.70889	0.69060
1490.78032	0.68676
1488.85176	0.68236
1486.92319	0.67801
1484.99463	0.67424
1483.06606	0.67100
1481.13750	0.66811
1479.20894	0.66562
1477.28037	0.66359
1475.35181	0.66186
1473.42324	0.66042
1471.49468	0.65850
1469.56611	0.65601
1467.63755	0.65354
1465.70898	0.65124
1463.78042	0.64916
1461.85186	0.64760
1459.92329	0.64673
1457.99473	0.64624
1456.06616	0.64484
1454.13760	0.64240
1452.20903	0.64025
1450.28047	0.63833
1448.35190	0.63637
1446.42334	0.63410
1444.49478	0.63183
1442.56621	0.62981
1440.63765	0.62799
1438.70908	0.62633
1436.78052	0.62429
1434.85195	0.62180
1432.92339	0.61970
1430.99482	0.61806
1429.06626	0.61670
1427.13770	0.61573
1425.20913	0.61521
1423.28057	0.61491
1421.35200	0.61461
1419.42344	0.61414
1417.49487	0.61306
1415.56631	0.61158
1413.63774	0.61041
1411.70918	0.60961
1409.78062	0.60918
1407.85205	0.60909
1405.92349	0.60910
1403.99492	0.60893
1402.06636	0.60843
1400.13779	0.60765
1398.20923	0.60644
1396.28066	0.60461
1394.35210	0.60214
1392.42354	0.59947
1390.49497	0.59705
1388.56641	0.59474
1386.63784	0.59215
1384.70928	0.58933
1382.78071	0.58657
1380.85215	0.58393
1378.92358	0.58163
1376.99502	0.57986
1375.06646	0.57856
1373.13789	0.57749
1371.20933	0.57642
1369.28076	0.57536
1367.35220	0.57435
1365.42363	0.57336
1363.49507	0.57229
1361.56650	0.57102
1359.63794	0.56965
1357.70937	0.56850
1355.78081	0.56756
1353.85225	0.56665
1351.92368	0.56582
1349.99512	0.56520
1348.06655	0.56465
1346.13799	0.56388
1344.20942	0.56299
1342.28086	0.56223
1340.35229	0.56167
1338.42373	0.56118
1336.49517	0.56051
1334.56660	0.55969
1332.63804	0.55903
1330.70947	0.55864
1328.78091	0.55841
1326.85234	0.55824
1324.92378	0.55812
1322.99521	0.55801
1321.06665	0.55790
1319.13809	0.55778
1317.20952	0.55742
1315.28096	0.55684
1313.35239	0.55627
1311.42383	0.55578
1309.49526	0.55526
1307.56670	0.55466
1305.63813	0.55399
1303.70957	0.55326
1301.78101	0.55250
1299.85244	0.55174
1297.92388	0.55094
1295.99531	0.55005
1294.06675	0.54914
1292.13818	0.54827
1290.20962	0.54738
1288.28105	0.54655
1286.35249	0.54587
1284.42393	0.54519
1282.49536	0.54434
1280.56680	0.54345
1278.63823	0.54261
1276.70967	0.54175
1274.78110	0.54093
1272.85254	0.54027
1270.92397	0.53977
1268.99541	0.53934
1267.06685	0.53883
1265.13828	0.53828
1263.20972	0.53787
1261.28115	0.53752
1259.35259	0.53703
1257.42402	0.53640
1255.49546	0.53587
1253.56689	0.53573
1251.63833	0.53577
1249.70977	0.53570
1247.78120	0.53553
1245.85264	0.53536
1243.92407	0.53511
1241.99551	0.53466
1240.06694	0.53402
1238.13838	0.53316
1236.20981	0.53193
1234.28125	0.53045
1232.35269	0.52905
1230.42412	0.52779
1228.49556	0.52667
1226.56699	0.52565
1224.63843	0.52463
1222.70986	0.52358
1220.78130	0.52257
1218.85273	0.52166
1216.92417	0.52081
1214.99561	0.52003
1213.06704	0.51933
1211.13848	0.51865
1209.20991	0.51798
1207.28135	0.51734
1205.35278	0.51664
1203.42422	0.51590
1201.49565	0.51528
1199.56709	0.51476
1197.63853	0.51432
1195.70996	0.51384
1193.78140	0.51320
1191.85283	0.51249
1189.92427	0.51201
1187.99570	0.51184
1186.06714	0.51171
1184.13857	0.51160
1182.21001	0.51183
1180.28145	0.51252
1178.35288	0.51337
1176.42432	0.51413
1174.49575	0.51470
1172.56719	0.51506
1170.63862	0.51524
1168.71006	0.51531
1166.78149	0.51541
1164.85293	0.51557
1162.92437	0.51547
1160.99580	0.51505
1159.06724	0.51453
1157.13867	0.51394
1155.21011	0.51310
1153.28154	0.51192
1151.35298	0.51046
1149.42441	0.50870
1147.49585	0.50655
1145.56729	0.50425
1143.63872	0.50207
1141.71016	0.49989
1139.78159	0.49771
1137.85303	0.49579
1135.92446	0.49416
1133.99590	0.49276
1132.06733	0.49162
1130.13877	0.49066
1128.21021	0.48973
1126.28164	0.48865
1124.35308	0.48747
1122.42451	0.48652
1120.49595	0.48613
1118.56738	0.48615
1116.63882	0.48614
1114.71025	0.48597
1112.78169	0.48586
1110.85312	0.48612
1108.92456	0.48685
1106.99600	0.48795
1105.06743	0.48930
1103.13887	0.49076
1101.21030	0.49232
1099.28174	0.49415
1097.35317	0.49636
1095.42461	0.49913
1093.49604	0.50257
1091.56748	0.50664
1089.63892	0.51140
1087.71035	0.51697
1085.78179	0.52327
1083.85322	0.53004
1081.92466	0.53678
1079.99609	0.54255
1078.06753	0.54612
1076.13896	0.54682
1074.21040	0.54482
1072.28184	0.54050
1070.35327	0.53446
1068.42471	0.52774
1066.49614	0.52116
1064.56758	0.51503
1062.63901	0.50953
1060.71045	0.50462
1058.78188	0.50014
1056.85332	0.49621
1054.92476	0.49282
1052.99619	0.48973
1051.06763	0.48701
1049.13906	0.48486
1047.21050	0.48326
1045.28193	0.48212
1043.35337	0.48113
1041.42480	0.48008
1039.49624	0.47912
1037.56768	0.47842
1035.63911	0.47788
1033.71055	0.47755
1031.78198	0.47749
1029.85342	0.47757
1027.92485	0.47762
1025.99629	0.47759
1024.06772	0.47765
1022.13916	0.47794
1020.21060	0.47844
1018.28203	0.47923
1016.35347	0.48023
1014.42490	0.48117
1012.49634	0.48187
1010.56777	0.48262
1008.63921	0.48397
1006.71064	0.48587
1004.78208	0.48787
1002.85352	0.48993
1000.92495	0.49239
998.99639	0.49543
997.06782	0.49897
995.13926	0.50279
993.21069	0.50664
991.28213	0.51013
989.35356	0.51275
987.42500	0.51433
985.49644	0.51526
983.56787	0.51602
981.63931	0.51704
979.71074	0.51842
977.78218	0.52003
975.85361	0.52215
973.92505	0.52480
971.99648	0.52770
970.06792	0.53100
968.13936	0.53482
966.21079	0.53890
964.28223	0.54311
962.35366	0.54758
960.42510	0.55252
958.49653	0.55803
956.56797	0.56392
954.63940	0.56970
952.71084	0.57531
950.78228	0.58133
948.85371	0.58792
946.92515	0.59446
944.99658	0.60063
943.06802	0.60657
941.13945	0.61232
939.21089	0.61798
937.28232	0.62379
935.35376	0.62971
933.42520	0.63539
931.49663	0.64086
929.56807	0.64615
927.63950	0.65141
925.71094	0.65720
923.78237	0.66325
921.85381	0.66926
919.92524	0.67562
917.99668	0.68246
916.06812	0.68945
914.13955	0.69624
912.21099	0.70368
910.28242	0.71268
908.35386	0.72223
906.42529	0.73082
904.49673	0.73890
902.56816	0.74754
900.63960	0.75567
898.71104	0.76313
896.78247	0.77253
894.85391	0.78330
892.92534	0.79294
890.99678	0.80325
889.06821	0.81509
887.13965	0.82571
885.21108	0.83567
883.28252	0.84682
881.35396	0.85783
879.42539	0.86870
877.49683	0.88111
875.56826	0.89437
873.63970	0.90579
871.71113	0.91520
869.78257	0.92586
867.85400	0.93807
865.92544	0.94895
863.99687	0.95882
862.06831	0.96922
860.13975	0.97933
858.21118	0.98892
856.28262	0.99930
854.35405	1.01196
852.42549	1.02647
850.49692	1.03965
848.56836	1.04988
846.63979	1.05955
844.71123	1.07157
842.78267	1.08474
840.85410	1.09575
838.92554	1.10531
836.99697	1.11774
835.06841	1.13246
833.13984	1.14405
831.21128	1.15191
829.28271	1.15933
827.35415	1.16939
825.42559	1.18244
823.49702	1.19724
821.56846	1.21259
819.63989	1.22303
817.71133	1.22972
815.78276	1.24166
813.85420	1.25348
811.92563	1.25632
809.99707	1.26057
808.06851	1.26953
806.13994	1.27735
804.21138	1.29051
802.28281	1.30354
800.35425	1.30680
798.42568	1.31422
796.49712	1.32803
794.56855	1.32980
792.63999	1.31503
790.71143	1.30163
788.78286	1.29301
786.85430	1.27586
784.92573	1.26831
782.99717	1.28147
781.06860	1.30141
779.14004	1.32824
777.21147	1.36996
775.28291	1.39558
773.35435	1.34131
771.42578	1.27639
769.49722	1.28357
767.56865	1.31699
765.64009	1.29070
763.71152	1.25281
761.78296	1.23509
759.85439	1.20743
757.92583	1.17868
755.99727	1.16951
754.06870	1.24696
752.14014	1.49227
750.21157	1.49188
748.28301	1.23343
746.35444	1.21674
744.42588	1.36365
742.49731	1.27886
740.56875	1.03519
738.64019	0.88637
736.71162	0.86065
734.78306	0.91031
732.85449	0.91197
730.92593	0.85222
728.99736	0.75752
727.06880	0.63179
725.14023	0.54617
723.21167	0.48370
721.28311	0.40766
719.35454	0.37880
717.42598	0.38484
715.49741	0.32270
713.56885	0.25705
711.64028	0.21305
709.71172	0.15770
707.78315	0.18804
705.85459	0.25001
703.92603	0.17784
701.99746	0.11169
700.06890	0.18796
698.14033	0.23461
696.21177	0.21750
694.28320	0.20948
692.35464	0.19325
690.42607	0.20489
688.49751	0.30921
686.56895	0.52682
684.64038	0.58867
682.71182	0.32409
680.78325	0.19303
678.85469	0.28039
676.92612	0.64385
674.99756	4.04999
673.06899	4.03841
671.14043	1.27533
669.21187	0.68653
667.28330	0.63222
665.35474	0.39539
663.42617	0.24871
661.49761	0.22918
659.56904	0.27718
657.64048	0.34776
655.71191	0.40796
653.78335	0.34948
651.85479	0.23192
649.92622	0.17470
647.99766	0.20060
646.06909	0.18567
644.14053	0.13335
642.21196	0.16254
640.28340	0.20262
638.35483	0.19426
636.42627	0.16608
634.49771	0.14490
632.56914	0.16570
630.64058	0.23985
628.71201	0.24760
626.78345	0.28199
624.85488	0.73038
622.92632	3.73756
620.99775	0.84069
619.06919	0.47256
617.14062	0.36334
615.21206	0.33791
613.28350	0.32160
611.35493	0.31590
609.42637	0.30523
607.49780	0.24048
605.56924	0.23936
603.64067	0.26949
601.71211	0.16487
599.78354	0.11652
597.85498	0.25058
595.92642	0.42262
593.99785	0.38309
592.06929	0.28145
590.14072	0.22417
588.21216	0.17633
586.28359	0.13819
584.35503	0.14615
582.42646	0.19709
580.49790	0.26112
578.56934	0.24886
576.64077	0.23424
574.71221	0.35355
572.78364	0.48479
570.85508	0.24696
568.92651	0.10585
566.99795	0.12757
565.06938	0.14735
563.14082	0.14392
561.21226	0.20461
559.28369	0.29228
557.35513	0.29986
555.42656	0.29189
553.49800	0.33264
551.56943	0.41553
549.64087	0.45608
547.71230	0.38733
545.78374	0.35922
543.85518	0.36624
541.92661	0.34404
539.99805	0.42305
538.06948	0.55863
536.14092	0.34134
534.21235	0.18973
532.28379	0.15574
530.35522	0.15367
528.42666	0.17679
526.49810	0.22098
524.56953	0.20571
522.64097	0.13272
520.71240	0.12214
518.78384	0.19201
516.85527	0.22827
514.92671	0.20668
512.99814	0.22494
511.06958	0.18095
509.14102	0.08836
507.21245	0.06479
505.28389	0.09083
503.35532	0.15281
501.42676	0.21416
499.49819	0.20867
