3997.91411	0.06435
3995.98555	0.06417
3994.05698	0.06450
3992.12842	0.06542
3990.19985	0.06617
3988.27129	0.06624
3986.34272	0.06598
3984.41416	0.06591
3982.48560	0.06611
3980.55703	0.06626
3978.62847	0.06632
3976.69990	0.06672
3974.77134	0.06749
3972.84277	0.06806
3970.91421	0.06839
3968.98564	0.06864
3967.05708	0.06864
3965.12852	0.06855
3963.19995	0.06869
3961.27139	0.06918
3959.34282	0.06981
3957.41426	0.07016
3955.48569	0.07003
3953.55713	0.06971
3951.62856	0.06999
3949.70000	0.07090
3947.77144	0.07132
3945.84287	0.07104
3943.91431	0.07125
3941.98574	0.07183
3940.05718	0.07131
3938.12861	0.07016
3936.20005	0.06971
3934.27148	0.07048
3932.34292	0.07223
3930.41436	0.07334
3928.48579	0.07250
3926.55723	0.07145
3924.62866	0.07183
3922.70010	0.07221
3920.77153	0.07166
3918.84297	0.07158
3916.91440	0.07204
3914.98584	0.07150
3913.05728	0.06998
3911.12871	0.06895
3909.20015	0.06887
3907.27158	0.06983
3905.34302	0.07242
3903.41445	0.07608
3901.48589	0.07836
3899.55732	0.07801
3897.62876	0.07536
3895.70020	0.07248
3893.77163	0.07202
3891.84307	0.07346
3889.91450	0.07364
3887.98594	0.07264
3886.05737	0.07346
3884.12881	0.07530
3882.20024	0.07596
3880.27168	0.07625
3878.34312	0.07544
3876.41455	0.07370
3874.48599	0.07379
3872.55742	0.07598
3870.62886	0.07852
3868.70029	0.07963
3866.77173	0.07870
3864.84316	0.07876
3862.91460	0.08008
3860.98604	0.07959
3859.05747	0.07814
3857.12891	0.07834
3855.20034	0.08100
3853.27178	0.08604
3851.34321	0.08790
3849.41465	0.08348
3847.48608	0.07948
3845.55752	0.07821
3843.62896	0.07946
3841.70039	0.08249
3839.77183	0.08647
3837.84326	0.08977
3835.91470	0.08986
3833.98613	0.08768
3832.05757	0.08571
3830.12900	0.08483
3828.20044	0.08520
3826.27187	0.08665
3824.34331	0.08856
3822.41475	0.09120
3820.48618	0.09469
3818.55762	0.09531
3816.62905	0.09435
3814.70049	0.09417
3812.77192	0.09254
3810.84336	0.09107
3808.91479	0.09220
3806.98623	0.09561
3805.05767	0.09864
3803.12910	0.10087
3801.20054	0.10412
3799.27197	0.10560
3797.34341	0.10453
3795.41484	0.10380
3793.48628	0.10311
3791.55771	0.10255
3789.62915	0.10294
3787.70059	0.10459
3785.77202	0.10723
3783.84346	0.10953
3781.91489	0.11090
3779.98633	0.11285
3778.05776	0.11510
3776.12920	0.11546
3774.20063	0.11539
3772.27207	0.11702
3770.34351	0.12035
3768.41494	0.12393
3766.48638	0.12627
3764.55781	0.12783
3762.62925	0.12912
3760.70068	0.13130
3758.77212	0.13519
3756.84355	0.13866
3754.91499	0.14079
3752.98643	0.14446
3751.05786	0.15169
3749.12930	0.15866
3747.20073	0.16060
3745.27217	0.16216
3743.34360	0.16571
3741.41504	0.16814
3739.48647	0.17008
3737.55791	0.17461
3735.62935	0.18298
3733.70078	0.19168
3731.77222	0.19502
3729.84365	0.19617
3727.91509	0.19934
3725.98652	0.20504
3724.05796	0.21163
3722.12939	0.21781
3720.20083	0.22346
3718.27227	0.22862
3716.34370	0.23450
3714.41514	0.24217
3712.48657	0.25362
3710.55801	0.26983
3708.62944	0.28391
3706.70088	0.29318
3704.77231	0.30329
3702.84375	0.31717
3700.91519	0.33489
3698.98662	0.35253
3697.05806	0.36870
3695.12949	0.38692
3693.20093	0.40776
3691.27236	0.43159
3689.34380	0.46146
3687.41523	0.49471
3685.48667	0.52237
3683.55811	0.54709
3681.62954	0.57490
3679.70098	0.60738
3677.77241	0.64288
3675.84385	0.68543
3673.91528	0.73958
3671.98672	0.78184
3670.05815	0.82020
3668.12959	0.87266
3666.20103	0.91907
3664.27246	0.95807
3662.34390	1.00138
3660.41533	1.04899
3658.48677	1.09617
3656.55820	1.14694
3654.62964	1.20361
3652.70107	1.25110
3650.77251	1.29403
3648.84395	1.35392
3646.91538	1.42222
3644.98682	1.46851
3643.05825	1.50483
3641.12969	1.54440
3639.20112	1.58926
3637.27256	1.63462
3635.34399	1.67874
3633.41543	1.72315
3631.48687	1.76500
3629.55830	1.80811
3627.62974	1.86418
3625.70117	1.91368
3623.77261	1.94611
3621.84404	1.97923
3619.91548	2.01862
3617.98691	2.06502
3616.05835	2.10933
3614.12979	2.14771
3612.20122	2.18705
3610.27266	2.22423
3608.34409	2.26185
3606.41553	2.30318
3604.48696	2.34198
3602.55840	2.37849
3600.62983	2.41914
3598.70127	2.46126
3596.77271	2.50054
3594.84414	2.54070
3592.91558	2.58209
3590.98701	2.62013
3589.05845	2.65561
3587.12988	2.69919
3585.20132	2.74796
3583.27275	2.78846
3581.34419	2.82552
3579.41562	2.86660
3577.48706	2.91080
3575.55850	2.95444
3573.62993	2.99767
3571.70137	3.03948
3569.77280	3.08028
3567.84424	3.12503
3565.91567	3.17932
3563.98711	3.22819
3562.05854	3.26470
3560.12998	3.30315
3558.20142	3.34827
3556.27285	3.39433
3554.34429	3.43841
3552.41572	3.48555
3550.48716	3.53400
3548.55859	3.57871
3546.63003	3.62239
3544.70146	3.67016
3542.77290	3.71943
3540.84434	3.76585
3538.91577	3.81205
3536.98721	3.85832
3535.05864	3.90502
3533.13008	3.95261
3531.20151	3.99987
3529.27295	4.04611
3527.34438	4.09459
3525.41582	4.14468
3523.48726	4.19095
3521.55869	4.23607
3519.63013	4.28333
3517.70156	4.33094
3515.77300	4.37900
3513.84443	4.42953
3511.91587	4.47893
3509.98730	4.52715
3508.05874	4.57818
3506.13018	4.62674
3504.20161	4.67044
3502.27305	4.71519
3500.34448	4.76242
3498.41592	4.81251
3496.48735	4.86644
3494.55879	4.91928
3492.63022	4.96809
3490.70166	5.01452
3488.77310	5.05908
3486.84453	5.10451
3484.91597	5.15532
3482.98740	5.20789
3481.05884	5.25896
3479.13027	5.30733
3477.20171	5.34846
3475.27314	5.38885
3473.34458	5.43819
3471.41602	5.48789
3469.48745	5.53158
3467.55889	5.57770
3465.63032	5.62341
3463.70176	5.67056
3461.77319	5.72983
3459.84463	5.79200
3457.91606	5.84022
3455.98750	5.87651
3454.05894	5.91510
3452.13037	5.96845
3450.20181	6.03382
3448.27324	6.09209
3446.34468	6.13832
3444.41611	6.18466
3442.48755	6.24015
3440.55898	6.29879
3438.63042	6.35953
3436.70186	6.41645
3434.77329	6.45138
3432.84473	6.47977
3430.91616	6.52636
3428.98760	6.58369
3427.05903	6.63928
3425.13047	6.69451
3423.20190	6.73867
3421.27334	6.77972
3419.34478	6.82515
3417.41621	6.86408
3415.48765	6.90607
3413.55908	6.95240
3411.63052	6.99886
3409.70195	7.05943
3407.77339	7.12975
3405.84482	7.16518
3403.91626	7.18317
3401.98770	7.21689
3400.05913	7.26665
3398.13057	7.32835
3396.20200	7.37800
3394.27344	7.42786
3392.34487	7.46286
3390.41631	7.45906
3388.48774	7.46070
3386.55918	7.52549
3384.63062	7.62219
3382.70205	7.65008
3380.77349	7.62382
3378.84492	7.64441
3376.91636	7.71081
3374.98779	7.75635
3373.05923	7.80796
3371.13066	7.86783
3369.20210	7.88004
3367.27354	7.85434
3365.34497	7.85443
3363.41641	7.89636
3361.48784	7.93405
3359.55928	7.93462
3357.63071	7.91951
3355.70215	7.94236
3353.77358	7.96696
3351.84502	7.96474
3349.91646	7.98221
3347.98789	8.02948
3346.05933	8.06121
3344.13076	8.05210
3342.20220	8.03730
3340.27363	8.04301
3338.34507	8.06896
3336.41650	8.10261
3334.48794	8.10043
3332.55937	8.06569
3330.63081	8.09028
3328.70225	8.10112
3326.77368	8.05127
3324.84512	8.06390
3322.91655	8.14184
3320.98799	8.18436
3319.05942	8.12154
3317.13086	8.06353
3315.20229	8.06971
3313.27373	8.07588
3311.34517	8.07916
3309.41660	8.11178
3307.48804	8.12812
3305.55947	8.10019
3303.63091	8.16839
3301.70234	8.32662
3299.77378	8.38607
3297.84521	8.31536
3295.91665	8.22217
3293.98809	8.17323
3292.05952	8.15956
3290.13096	8.15434
3288.20239	8.13276
3286.27383	8.10263
3284.34526	8.09185
3282.41670	8.09156
3280.48813	8.13322
3278.55957	8.20973
3276.63101	8.23455
3274.70244	8.27511
3272.77388	8.38308
3270.84531	8.50519
3268.91675	8.54544
3266.98818	8.39621
3265.05962	8.20766
3263.13105	8.13980
3261.20249	8.20321
3259.27393	8.30368
3257.34536	8.31983
3255.41680	8.24764
3253.48823	8.16761
3251.55967	8.14770
3249.63110	8.21117
3247.70254	8.32227
3245.77397	8.39208
3243.84541	8.37273
3241.91685	8.29928
3239.98828	8.23325
3238.05972	8.16892
3236.13115	8.13084
3234.20259	8.19153
3232.27402	8.30322
3230.34546	8.34069
3228.41689	8.27659
3226.48833	8.19688
3224.55977	8.14013
3222.63120	8.06764
3220.70264	7.96561
3218.77407	7.90920
3216.84551	7.90622
3214.91694	7.84420
3212.98838	7.76871
3211.05981	7.78458
3209.13125	7.80823
3207.20269	7.76671
3205.27412	7.74151
3203.34556	7.76312
3201.41699	7.76903
3199.48843	7.74230
3197.55986	7.71109
3195.63130	7.65951
3193.70273	7.58188
3191.77417	7.52441
3189.84561	7.51634
3187.91704	7.53333
3185.98848	7.52738
3184.05991	7.46181
3182.13135	7.35938
3180.20278	7.29154
3178.27422	7.26382
3176.34565	7.21848
3174.41709	7.12712
3172.48853	7.02541
3170.55996	6.94876
3168.63140	6.90443
3166.70283	6.89021
3164.77427	6.87217
3162.84570	6.81123
3160.91714	6.70717
3158.98857	6.61221
3157.06001	6.55544
3155.13145	6.49506
3153.20288	6.42090
3151.27432	6.36073
3149.34575	6.29616
3147.41719	6.20568
3145.48862	6.11984
3143.56006	6.06122
3141.63149	6.01089
3139.70293	5.94566
3137.77437	5.85697
3135.84580	5.76324
3133.91724	5.69802
3131.98867	5.65031
3130.06011	5.58341
3128.13154	5.50254
3126.20298	5.42405
3124.27441	5.34809
3122.34585	5.27832
3120.41729	5.21554
3118.48872	5.15170
3116.56016	5.08383
3114.63159	5.01400
3112.70303	4.94169
3110.77446	4.86747
3108.84590	4.79297
3106.91733	4.72232
3104.98877	4.65885
3103.06021	4.59608
3101.13164	4.52933
3099.20308	4.46369
3097.27451	4.39977
3095.34595	4.33587
3093.41738	4.27271
3091.48882	4.20684
3089.56025	4.13794
3087.63169	4.07155
3085.70312	4.01007
3083.77456	3.95068
3081.84600	3.88981
3079.91743	3.82759
3077.98887	3.76842
3076.06030	3.71404
3074.13174	3.65979
3072.20317	3.60231
3070.27461	3.54428
3068.34604	3.48806
3066.41748	3.43268
3064.48892	3.37745
3062.56035	3.32216
3060.63179	3.26743
3058.70322	3.21376
3056.77466	3.16101
3054.84609	3.10955
3052.91753	3.05860
3050.98896	3.00769
3049.06040	2.95769
3047.13184	2.90871
3045.20327	2.85990
3043.27471	2.81080
3041.34614	2.76200
3039.41758	2.71456
3037.48901	2.66855
3035.56045	2.62354
3033.63188	2.57988
3031.70332	2.53628
3029.77476	2.49141
3027.84619	2.44724
3025.91763	2.40481
3023.98906	2.36290
3022.06050	2.32157
3020.13193	2.28119
3018.20337	2.24145
3016.27480	2.20228
3014.34624	2.16343
3012.41768	2.12489
3010.48911	2.08703
3008.56055	2.05024
3006.63198	2.01505
3004.70342	1.98082
3002.77485	1.94633
3000.84629	1.91168
2998.91772	1.87764
2996.98916	1.84490
2995.06060	1.81358
2993.13203	1.78292
2991.20347	1.75252
2989.27490	1.72250
2987.34634	1.69284
2985.41777	1.66374
2983.48921	1.63586
2981.56064	1.60895
2979.63208	1.58226
2977.70352	1.55577
2975.77495	1.52958
2973.84639	1.50400
2971.91782	1.47949
2969.98926	1.45550
2968.06069	1.43121
2966.13213	1.40692
2964.20356	1.38333
2962.27500	1.36023
2960.34644	1.33716
2958.41787	1.31405
2956.48931	1.29093
2954.56074	1.26808
2952.63218	1.24532
2950.70361	1.22226
2948.77505	1.19955
2946.84648	1.17773
2944.91792	1.15674
2942.98936	1.13647
2941.06079	1.11636
2939.13223	1.09592
2937.20366	1.07553
2935.27510	1.05585
2933.34653	1.03683
2931.41797	1.01806
2929.48940	0.99948
2927.56084	0.98090
2925.63228	0.96230
2923.70371	0.94436
2921.77515	0.92731
2919.84658	0.91065
2917.91802	0.89403
2915.98945	0.87779
2914.06089	0.86228
2912.13232	0.84739
2910.20376	0.83267
2908.27520	0.81785
2906.34663	0.80317
2904.41807	0.78883
2902.48950	0.77496
2900.56094	0.76181
2898.63237	0.74926
2896.70381	0.73688
2894.77524	0.72451
2892.84668	0.71242
2890.91812	0.70085
2888.98955	0.68949
2887.06099	0.67830
2885.13242	0.66777
2883.20386	0.65778
2881.27529	0.64777
2879.34673	0.63778
2877.41816	0.62812
2875.48960	0.61866
2873.56104	0.60889
2871.63247	0.59876
2869.70391	0.58840
2867.77534	0.57762
2865.84678	0.56631
2863.91821	0.55477
2861.98965	0.54357
2860.06108	0.53302
2858.13252	0.52300
2856.20396	0.51349
2854.27539	0.50459
2852.34683	0.49629
2850.41826	0.48830
2848.48970	0.48036
2846.56113	0.47271
2844.63257	0.46576
2842.70400	0.45923
2840.77544	0.45290
2838.84687	0.44687
2836.91831	0.44093
2834.98975	0.43485
2833.06118	0.42879
2831.13262	0.42287
2829.20405	0.41702
2827.27549	0.41122
2825.34692	0.40545
2823.41836	0.39966
2821.48979	0.39384
2819.56123	0.38809
2817.63267	0.38251
2815.70410	0.37700
2813.77554	0.37156
2811.84697	0.36632
2809.91841	0.36105
2807.98984	0.35568
2806.06128	0.35041
2804.13271	0.34544
2802.20415	0.34070
2800.27559	0.33592
2798.34702	0.33108
2796.41846	0.32639
2794.48989	0.32181
2792.56133	0.31729
2790.63276	0.31297
2788.70420	0.30874
2786.77563	0.30454
2784.84707	0.30039
2782.91851	0.29616
2780.98994	0.29194
2779.06138	0.28790
2777.13281	0.28410
2775.20425	0.28044
2773.27568	0.27682
2771.34712	0.27331
2769.41855	0.26990
2767.48999	0.26652
2765.56143	0.26302
2763.63286	0.25940
2761.70430	0.25605
2759.77573	0.25303
2757.84717	0.25011
2755.91860	0.24715
2753.99004	0.24417
2752.06147	0.24132
2750.13291	0.23847
2748.20435	0.23567
2746.27578	0.23302
2744.34722	0.23034
2742.41865	0.22762
2740.49009	0.22505
2738.56152	0.22251
2736.63296	0.22000
2734.70439	0.21761
2732.77583	0.21514
2730.84727	0.21259
2728.91870	0.21032
2726.99014	0.20827
2725.06157	0.20621
2723.13301	0.20417
2721.20444	0.20223
2719.27588	0.20035
2717.34731	0.19846
2715.41875	0.19647
2713.49019	0.19451
2711.56162	0.19281
2709.63306	0.19125
2707.70449	0.18966
2705.77593	0.18807
2703.84736	0.18655
2701.91880	0.18508
2699.99023	0.18361
2698.06167	0.18205
2696.13311	0.18048
2694.20454	0.17904
2692.27598	0.17780
2690.34741	0.17663
2688.41885	0.17546
2686.49028	0.17426
2684.56172	0.17301
2682.63315	0.17186
2680.70459	0.17070
2678.77603	0.16942
2676.84746	0.16830
2674.91890	0.16735
2672.99033	0.16634
2671.06177	0.16533
2669.13320	0.16436
2667.20464	0.16324
2665.27607	0.16219
2663.34751	0.16139
2661.41895	0.16074
2659.49038	0.16011
2657.56182	0.15936
2655.63325	0.15846
2653.70469	0.15759
2651.77612	0.15685
2649.84756	0.15624
2647.91899	0.15571
2645.99043	0.15512
2644.06187	0.15459
2642.13330	0.15419
2640.20474	0.15374
2638.27617	0.15324
2636.34761	0.15280
2634.41904	0.15245
2632.49048	0.15211
2630.56191	0.15169
2628.63335	0.15123
2626.70479	0.15082
2624.77622	0.15040
2622.84766	0.15003
2620.91909	0.14984
2618.99053	0.14977
2617.06196	0.14967
2615.13340	0.14947
2613.20483	0.14918
2611.27627	0.14894
2609.34771	0.14884
2607.41914	0.14876
2605.49058	0.14865
2603.56201	0.14864
2601.63345	0.14866
2599.70488	0.14853
2597.77632	0.14843
2595.84775	0.14849
2593.91919	0.14859
2591.99062	0.14869
2590.06206	0.14889
2588.13350	0.14920
2586.20493	0.14939
2584.27637	0.14938
2582.34780	0.14946
2580.41924	0.14984
2578.49067	0.15017
2576.56211	0.15032
2574.63354	0.15060
2572.70498	0.15103
2570.77642	0.15139
2568.84785	0.15167
2566.91929	0.15199
2564.99072	0.15247
2563.06216	0.15303
2561.13359	0.15352
2559.20503	0.15392
2557.27646	0.15426
2555.34790	0.15464
2553.41934	0.15511
2551.49077	0.15559
2549.56221	0.15608
2547.63364	0.15659
2545.70508	0.15710
2543.77651	0.15776
2541.84795	0.15845
2539.91938	0.15902
2537.99082	0.15968
2536.06226	0.16050
2534.13369	0.16118
2532.20513	0.16169
2530.27656	0.16220
2528.34800	0.16278
2526.41943	0.16334
2524.49087	0.16389
2522.56230	0.16462
2520.63374	0.16551
2518.70518	0.16641
2516.77661	0.16725
2514.84805	0.16801
2512.91948	0.16874
2510.99092	0.16958
2509.06235	0.17045
2507.13379	0.17120
2505.20522	0.17193
2503.27666	0.17272
2501.34810	0.17353
2499.41953	0.17431
2497.49097	0.17498
2495.56240	0.17570
2493.63384	0.17670
2491.70527	0.17774
2489.77671	0.17853
2487.84814	0.17918
2485.91958	0.17989
2483.99102	0.18075
2482.06245	0.18182
2480.13389	0.18296
2478.20532	0.18393
2476.27676	0.18470
2474.34819	0.18547
2472.41963	0.18633
2470.49106	0.18719
2468.56250	0.18804
2466.63394	0.18890
2464.70537	0.18985
2462.77681	0.19087
2460.84824	0.19182
2458.91968	0.19268
2456.99111	0.19359
2455.06255	0.19460
2453.13398	0.19564
2451.20542	0.19659
2449.27686	0.19744
2447.34829	0.19822
2445.41973	0.19896
2443.49116	0.19977
2441.56260	0.20086
2439.63403	0.20223
2437.70547	0.20350
2435.77690	0.20452
2433.84834	0.20551
2431.91978	0.20656
2429.99121	0.20752
2428.06265	0.20841
2426.13408	0.20939
2424.20552	0.21053
2422.27695	0.21173
2420.34839	0.21288
2418.41982	0.21405
2416.49126	0.21519
2414.56270	0.21622
2412.63413	0.21724
2410.70557	0.21835
2408.77700	0.21952
2406.84844	0.22068
2404.91987	0.22184
2402.99131	0.22300
2401.06274	0.22420
2399.13418	0.22541
2397.20562	0.22662
2395.27705	0.22793
2393.34849	0.22930
2391.41992	0.23060
2389.49136	0.23203
2387.56279	0.23392
2385.63423	0.23649
2383.70566	0.23995
2381.77710	0.24454
2379.84854	0.25006
2377.91997	0.25614
2375.99141	0.26279
2374.06284	0.27020
2372.13428	0.27835
2370.20571	0.28722
2368.27715	0.29669
2366.34858	0.30615
2364.42002	0.31413
2362.49146	0.31952
2360.56289	0.32257
2358.63433	0.32373
2356.70576	0.32284
2354.77720	0.31901
2352.84863	0.31211
2350.92007	0.30397
2348.99150	0.29878
2347.06294	0.29943
2345.13437	0.30630
2343.20581	0.31515
2341.27725	0.31969
2339.34868	0.32073
2337.42012	0.32115
2335.49155	0.32174
2333.56299	0.32227
2331.63442	0.32266
2329.70586	0.32268
2327.77729	0.32213
2325.84873	0.32124
2323.92017	0.32027
2321.99160	0.31913
2320.06304	0.31769
2318.13447	0.31614
2316.20591	0.31480
2314.27734	0.31395
2312.34878	0.31371
2310.42021	0.31382
2308.49165	0.31374
2306.56309	0.31326
2304.63452	0.31279
2302.70596	0.31284
2300.77739	0.31339
2298.84883	0.31415
2296.92026	0.31496
2294.99170	0.31574
2293.06313	0.31645
2291.13457	0.31729
2289.20601	0.31835
2287.27744	0.31938
2285.34888	0.32031
2283.42031	0.32148
2281.49175	0.32316
2279.56318	0.32527
2277.63462	0.32751
2275.70605	0.32977
2273.77749	0.33200
2271.84893	0.33414
2269.92036	0.33617
2267.99180	0.33820
2266.06323	0.34025
2264.13467	0.34220
2262.20610	0.34410
2260.27754	0.34601
2258.34897	0.34796
2256.42041	0.34992
2254.49185	0.35185
2252.56328	0.35380
2250.63472	0.35590
2248.70615	0.35807
2246.77759	0.36012
2244.84902	0.36208
2242.92046	0.36403
2240.99189	0.36607
2239.06333	0.36828
2237.13477	0.37061
2235.20620	0.37282
2233.27764	0.37487
2231.34907	0.37690
2229.42051	0.37900
2227.49194	0.38118
2225.56338	0.38345
2223.63481	0.38579
2221.70625	0.38805
2219.77769	0.39014
2217.84912	0.39216
2215.92056	0.39426
2213.99199	0.39646
2212.06343	0.39870
2210.13486	0.40086
2208.20630	0.40299
2206.27773	0.40509
2204.34917	0.40706
2202.42061	0.40904
2200.49204	0.41114
2198.56348	0.41320
2196.63491	0.41517
2194.70635	0.41709
2192.77778	0.41896
2190.84922	0.42075
2188.92065	0.42243
2186.99209	0.42410
2185.06353	0.42588
2183.13496	0.42772
2181.20640	0.42954
2179.27783	0.43125
2177.34927	0.43272
2175.42070	0.43420
2173.49214	0.43584
2171.56357	0.43735
2169.63501	0.43874
2167.70645	0.44019
2165.77788	0.44157
2163.84932	0.44275
2161.92075	0.44380
2159.99219	0.44484
2158.06362	0.44585
2156.13506	0.44689
2154.20649	0.44791
2152.27793	0.44879
2150.34937	0.44954
2148.42080	0.45025
2146.49224	0.45088
2144.56367	0.45139
2142.63511	0.45182
2140.70654	0.45220
2138.77798	0.45254
2136.84941	0.45277
2134.92085	0.45287
2132.99229	0.45285
2131.06372	0.45279
2129.13516	0.45267
2127.20659	0.45251
2125.27803	0.45231
2123.34946	0.45204
2121.42090	0.45164
2119.49233	0.45112
2117.56377	0.45055
2115.63521	0.44990
2113.70664	0.44919
2111.77808	0.44846
2109.84951	0.44760
2107.92095	0.44655
2105.99238	0.44547
2104.06382	0.44441
2102.13525	0.44326
2100.20669	0.44196
2098.27812	0.44055
2096.34956	0.43918
2094.42100	0.43784
2092.49243	0.43640
2090.56387	0.43485
2088.63530	0.43321
2086.70674	0.43148
2084.77817	0.42971
2082.84961	0.42790
2080.92104	0.42592
2078.99248	0.42387
2077.06392	0.42184
2075.13535	0.41985
2073.20679	0.41783
2071.27822	0.41582
2069.34966	0.41384
2067.42109	0.41180
2065.49253	0.40954
2063.56396	0.40710
2061.63540	0.40467
2059.70684	0.40224
2057.77827	0.39970
2055.84971	0.39714
2053.92114	0.39462
2051.99258	0.39212
2050.06401	0.38957
2048.13545	0.38709
2046.20688	0.38471
2044.27832	0.38222
2042.34976	0.37954
2040.42119	0.37679
2038.49263	0.37411
2036.56406	0.37146
2034.63550	0.36873
2032.70693	0.36592
2030.77837	0.36314
2028.84980	0.36037
2026.92124	0.35767
2024.99268	0.35505
2023.06411	0.35249
2021.13555	0.34995
2019.20698	0.34741
2017.27842	0.34478
2015.34985	0.34192
2013.42129	0.33898
2011.49272	0.33618
2009.56416	0.33344
2007.63560	0.33070
2005.70703	0.32802
2003.77847	0.32542
2001.84990	0.32282
1999.92134	0.32024
1997.99277	0.31775
1996.06421	0.31537
1994.13564	0.31319
1992.20708	0.31109
1990.27852	0.30857
1988.34995	0.30574
1986.42139	0.30300
1984.49282	0.30043
1982.56426	0.29795
1980.63569	0.29556
1978.70713	0.29337
1976.77856	0.29126
1974.85000	0.28904
1972.92144	0.28682
1970.99287	0.28480
1969.06431	0.28302
1967.13574	0.28128
1965.20718	0.27920
1963.27861	0.27691
1961.35005	0.27486
1959.42148	0.27300
1957.49292	0.27117
1955.56436	0.26937
1953.63579	0.26756
1951.70723	0.26573
1949.77866	0.26406
1947.85010	0.26267
1945.92153	0.26151
1943.99297	0.26049
1942.06440	0.25915
1940.13584	0.25720
1938.20728	0.25529
1936.27871	0.25381
1934.35015	0.25244
1932.42158	0.25112
1930.49302	0.24992
1928.56445	0.24885
1926.63589	0.24792
1924.70732	0.24729
1922.77876	0.24672
1920.85020	0.24571
1918.92163	0.24469
1916.99307	0.24372
1915.06450	0.24242
1913.13594	0.24122
1911.20737	0.24062
1909.27881	0.24023
1907.35024	0.23954
1905.42168	0.23863
1903.49312	0.23783
1901.56455	0.23711
1899.63599	0.23651
1897.70742	0.23619
1895.77886	0.23609
1893.85029	0.23589
1891.92173	0.23560
1889.99316	0.23555
1888.06460	0.23526
1886.13604	0.23460
1884.20747	0.23415
1882.27891	0.23392
1880.35034	0.23370
1878.42178	0.23352
1876.49321	0.23348
1874.56465	0.23350
1872.63608	0.23375
1870.70752	0.23467
1868.77896	0.23618
1866.85039	0.23659
1864.92183	0.23564
1862.99326	0.23492
1861.06470	0.23489
1859.13613	0.23519
1857.20757	0.23544
1855.27900	0.23573
1853.35044	0.23611
1851.42187	0.23670
1849.49331	0.23755
1847.56475	0.23866
1845.63618	0.24004
1843.70762	0.24141
1841.77905	0.24180
1839.85049	0.24170
1837.92192	0.24230
1835.99336	0.24324
1834.06479	0.24414
1832.13623	0.24543
1830.20767	0.24748
1828.27910	0.24917
1826.35054	0.25004
1824.42197	0.25111
1822.49341	0.25191
1820.56484	0.25254
1818.63628	0.25356
1816.70771	0.25502
1814.77915	0.25666
1812.85059	0.25879
1810.92202	0.26135
1808.99346	0.26344
1807.06489	0.26503
1805.13633	0.26682
1803.20776	0.26930
1801.27920	0.27227
1799.35063	0.27520
1797.42207	0.27761
1795.49351	0.28012
1793.56494	0.28338
1791.63638	0.28719
1789.70781	0.28991
1787.77925	0.29170
1785.85068	0.29457
1783.92212	0.29839
1781.99355	0.30252
1780.06499	0.30685
1778.13643	0.31105
1776.20786	0.31509
1774.27930	0.32000
1772.35073	0.32668
1770.42217	0.33285
1768.49360	0.33724
1766.56504	0.34157
1764.63647	0.34647
1762.70791	0.35248
1760.77935	0.36012
1758.85078	0.36697
1756.92222	0.37370
1754.99365	0.38101
1753.06509	0.38802
1751.13652	0.39717
1749.20796	0.40858
1747.27939	0.41883
1745.35083	0.42722
1743.42227	0.43629
1741.49370	0.44667
1739.56514	0.45903
1737.63657	0.47136
1735.70801	0.48257
1733.77944	0.49974
1731.85088	0.51921
1729.92231	0.53357
1727.99375	0.54803
1726.06519	0.56408
1724.13662	0.58225
1722.20806	0.60218
1720.27949	0.62103
1718.35093	0.64395
1716.42236	0.67694
1714.49380	0.70631
1712.56523	0.72934
1710.63667	0.75235
1708.70811	0.77813
1706.77954	0.80824
1704.85098	0.84390
1702.92241	0.87501
1700.99385	0.90604
1699.06528	0.95287
1697.13672	0.99534
1695.20815	1.03792
1693.27959	1.07960
1691.35103	1.11397
1689.42246	1.15445
1687.49390	1.19760
1685.56533	1.23970
1683.63677	1.30406
1681.70820	1.36955
1679.77964	1.41087
1677.85107	1.45065
1675.92251	1.49754
1673.99395	1.55644
1672.06538	1.60912
1670.13682	1.66089
1668.20825	1.72762
1666.27969	1.78163
1664.35112	1.82830
1662.42256	1.88783
1660.49399	1.95427
1658.56543	2.00583
1656.63687	2.04857
1654.70830	2.08932
1652.77974	2.15174
1650.85117	2.20665
1648.92261	2.22605
1646.99404	2.25439
1645.06548	2.28409
1643.13691	2.30109
1641.20835	2.31088
1639.27979	2.31987
1637.35122	2.32391
1635.42266	2.32200
1633.49409	2.31533
1631.56553	2.30255
1629.63696	2.28600
1627.70840	2.25754
1625.77983	2.22316
1623.85127	2.18064
1621.92271	2.12863
1619.99414	2.08109
1618.06558	2.03556
1616.13701	1.97189
1614.20845	1.90588
1612.27988	1.85516
1610.35132	1.80258
1608.42275	1.74560
1606.49419	1.68944
1604.56562	1.63809
1602.63706	1.58920
1600.70850	1.54169
1598.77993	1.49750
1596.85137	1.45535
1594.92280	1.41421
1592.99424	1.37463
1591.06567	1.33845
1589.13711	1.30474
1587.20854	1.27365
1585.27998	1.24501
1583.35142	1.21833
1581.42285	1.19439
1579.49429	1.17461
1577.56572	1.15753
1575.63716	1.13653
1573.70859	1.11694
1571.78003	1.10431
1569.85146	1.09260
1567.92290	1.07989
1565.99434	1.07031
1564.06577	1.06360
1562.13721	1.05923
1560.20864	1.05865
1558.28008	1.06102
1556.35151	1.06058
1554.42295	1.05911
1552.49438	1.05830
1550.56582	1.05674
1548.63726	1.05321
1546.70869	1.04769
1544.78013	1.04013
1542.85156	1.03036
1540.92300	1.01529
1538.99443	0.98811
1537.06587	0.96606
1535.13730	0.95163
1533.20874	0.93344
1531.28018	0.91338
1529.35161	0.89880
1527.42305	0.88614
1525.49448	0.87356
1523.56592	0.86294
1521.63735	0.85276
1519.70879	0.84158
1517.78022	0.83162
1515.85166	0.82001
1513.92310	0.80748
1511.99453	0.79712
1510.06597	0.78925
1508.13740	0.78314
1506.20884	0.77083
1504.28027	0.75623
1502.35171	0.74772
1500.42314	0.74168
1498.49458	0.73625
1496.56602	0.72969
1494.63745	0.72232
1492.70889	0.71684
1490.78032	0.71311
1488.85176	0.70874
1486.92319	0.70306
1484.99463	0.69796
1483.06606	0.69429
1481.13750	0.69158
1479.20894	0.68960
1477.28037	0.68888
1475.35181	0.68944
1473.42324	0.69040
1471.49468	0.68949
1469.56611	0.68628
1467.63755	0.68324
1465.70898	0.68140
1463.78042	0.68014
1461.85186	0.67908
1459.92329	0.67922
1457.99473	0.68091
1456.06616	0.68075
1454.13760	0.67688
1452.20903	0.67327
1450.28047	0.67054
1448.35190	0.66818
1446.42334	0.66534
1444.49478	0.66224
1442.56621	0.65947
1440.63765	0.65698
1438.70908	0.65486
1436.78052	0.65242
1434.85195	0.64883
1432.92339	0.64560
1430.99482	0.64373
1429.06626	0.64262
1427.13770	0.64171
1425.20913	0.64147
1423.28057	0.64181
1421.35200	0.64215
1419.42344	0.64277
1417.49487	0.64259
1415.56631	0.64079
1413.63774	0.63931
1411.70918	0.63901
1409.78062	0.63947
1407.85205	0.64035
1405.92349	0.64176
1403.99492	0.64306
1402.06636	0.64336
1400.13779	0.64308
1398.20923	0.64219
1396.28066	0.64020
1394.35210	0.63683
1392.42354	0.63250
1390.49497	0.62850
1388.56641	0.62497
1386.63784	0.62090
1384.70928	0.61614
1382.78071	0.61153
1380.85215	0.60742
1378.92358	0.60413
1376.99502	0.60188
1375.06646	0.60042
1373.13789	0.59905
1371.20933	0.59762
1369.28076	0.59658
1367.35220	0.59549
1365.42363	0.59419
1363.49507	0.59323
1361.56650	0.59218
1359.63794	0.59046
1357.70937	0.58879
1355.78081	0.58750
1353.85225	0.58637
1351.92368	0.58542
1349.99512	0.58468
1348.06655	0.58390
1346.13799	0.58295
1344.20942	0.58207
1342.28086	0.58159
1340.35229	0.58159
1338.42373	0.58136
1336.49517	0.58047
1334.56660	0.57949
1332.63804	0.57892
1330.70947	0.57879
1328.78091	0.57898
1326.85234	0.57938
1324.92378	0.57989
1322.99521	0.58051
1321.06665	0.58119
1319.13809	0.58176
1317.20952	0.58193
1315.28096	0.58177
1313.35239	0.58144
1311.42383	0.58087
1309.49526	0.58008
1307.56670	0.57928
1305.63813	0.57862
1303.70957	0.57810
1301.78101	0.57757
1299.85244	0.57688
1297.92388	0.57608
1295.99531	0.57524
1294.06675	0.57428
1292.13818	0.57321
1290.20962	0.57215
1288.28105	0.57109
1286.35249	0.56982
1284.42393	0.56844
1282.49536	0.56715
1280.56680	0.56590
1278.63823	0.56468
1276.70967	0.56352
1274.78110	0.56238
1272.85254	0.56151
1270.92397	0.56096
1268.99541	0.56031
1267.06685	0.55948
1265.13828	0.55860
1263.20972	0.55787
1261.28115	0.55732
1259.35259	0.55671
1257.42402	0.55607
1255.49546	0.55565
1253.56689	0.55539
1251.63833	0.55526
1249.70977	0.55528
1247.78120	0.55519
1245.85264	0.55496
1243.92407	0.55457
1241.99551	0.55380
1240.06694	0.55266
1238.13838	0.55116
1236.20981	0.54929
1234.28125	0.54736
1232.35269	0.54561
1230.42412	0.54390
1228.49556	0.54212
1226.56699	0.54027
1224.63843	0.53851
1222.70986	0.53705
1220.78130	0.53588
1218.85273	0.53470
1216.92417	0.53334
1214.99561	0.53217
1213.06704	0.53141
1211.13848	0.53073
1209.20991	0.52997
1207.28135	0.52933
1205.35278	0.52868
1203.42422	0.52785
1201.49565	0.52697
1199.56709	0.52621
1197.63853	0.52555
1195.70996	0.52503
1193.78140	0.52463
1191.85283	0.52423
1189.92427	0.52387
1187.99570	0.52365
1186.06714	0.52341
1184.13857	0.52324
1182.21001	0.52351
1180.28145	0.52433
1178.35288	0.52550
1176.42432	0.52689
1174.49575	0.52826
1172.56719	0.52916
1170.63862	0.52951
1168.71006	0.52956
1166.78149	0.52967
1164.85293	0.52989
1162.92437	0.52992
1160.99580	0.52966
1159.06724	0.52933
1157.13867	0.52892
1155.21011	0.52819
1153.28154	0.52693
1151.35298	0.52511
1149.42441	0.52275
1147.49585	0.51992
1145.56729	0.51694
1143.63872	0.51408
1141.71016	0.51140
1139.78159	0.50907
1137.85303	0.50740
1135.92446	0.50635
1133.99590	0.50556
1132.06733	0.50502
1130.13877	0.50468
1128.21021	0.50413
1126.28164	0.50328
1124.35308	0.50260
1122.42451	0.50234
1120.49595	0.50234
1118.56738	0.50249
1116.63882	0.50280
1114.71025	0.50333
1112.78169	0.50399
1110.85312	0.50455
1108.92456	0.50523
1106.99600	0.50629
1105.06743	0.50759
1103.13887	0.50882
1101.21030	0.50999
1099.28174	0.51146
1097.35317	0.51361
1095.42461	0.51645
1093.49604	0.51989
1091.56748	0.52425
1089.63892	0.52973
1087.71035	0.53628
1085.78179	0.54380
1083.85322	0.55165
1081.92466	0.55856
1079.99609	0.56374
1078.06753	0.56670
1076.13896	0.56690
1074.21040	0.56436
1072.28184	0.55954
1070.35327	0.55318
1068.42471	0.54620
1066.49614	0.53924
1064.56758	0.53277
1062.63901	0.52719
1060.71045	0.52237
1058.78188	0.51807
1056.85332	0.51428
1054.92476	0.51090
1052.99619	0.50779
1051.06763	0.50511
1049.13906	0.50309
1047.21050	0.50160
1045.28193	0.50044
1043.35337	0.49958
1041.42480	0.49889
1039.49624	0.49829
1037.56768	0.49799
1035.63911	0.49801
1033.71055	0.49788
1031.78198	0.49728
1029.85342	0.49639
1027.92485	0.49543
1025.99629	0.49457
1024.06772	0.49396
1022.13916	0.49375
1020.21060	0.49382
1018.28203	0.49397
1016.35347	0.49417
1014.42490	0.49448
1012.49634	0.49485
1010.56777	0.49527
1008.63921	0.49588
1006.71064	0.49677
1004.78208	0.49809
1002.85352	0.50008
1000.92495	0.50270
998.99639	0.50583
997.06782	0.50955
995.13926	0.51376
993.21069	0.51789
991.28213	0.52129
989.35356	0.52360
987.42500	0.52485
985.49644	0.52542
983.56787	0.52564
981.63931	0.52594
979.71074	0.52681
977.78218	0.52838
975.85361	0.53051
973.92505	0.53295
971.99648	0.53559
970.06792	0.53867
968.13936	0.54223
966.21079	0.54619
964.28223	0.55044
962.35366	0.55491
960.42510	0.55967
958.49653	0.56473
956.56797	0.57021
954.63940	0.57618
952.71084	0.58243
950.78228	0.58861
948.85371	0.59480
946.92515	0.60128
944.99658	0.60765
943.06802	0.61357
941.13945	0.61950
939.21089	0.62570
937.28232	0.63191
935.35376	0.63799
933.42520	0.64362
931.49663	0.64893
929.56807	0.65441
927.63950	0.66007
925.71094	0.66591
923.78237	0.67225
921.85381	0.67932
919.92524	0.68654
917.99668	0.69320
916.06812	0.69954
914.13955	0.70608
912.21099	0.71297
910.28242	0.72025
908.35386	0.72835
906.42529	0.73724
904.49673	0.74645
902.56816	0.75552
900.63960	0.76408
898.71104	0.77293
896.78247	0.78274
894.85391	0.79313
892.92534	0.80377
890.99678	0.81356
889.06821	0.82285
887.13965	0.83419
885.21108	0.84696
883.28252	0.85873
881.35396	0.86969
879.42539	0.88049
877.49683	0.89219
875.56826	0.90502
873.63970	0.91650
871.71113	0.92644
869.78257	0.93614
867.85400	0.94528
865.92544	0.95516
863.99687	0.96732
862.06831	0.98021
860.13975	0.99220
858.21118	1.00428
856.28262	1.01560
854.35405	1.02584
852.42549	1.03862
850.49692	1.05308
848.56836	1.06424
846.63979	1.07259
844.71123	1.08214
842.78267	1.09371
840.85410	1.10547
838.92554	1.11569
836.99697	1.12611
835.06841	1.13933
833.13984	1.15367
831.21128	1.16825
829.28271	1.18085
827.35415	1.18616
825.42559	1.19226
823.49702	1.20600
821.56846	1.21549
819.63989	1.22306
817.71133	1.24457
815.78276	1.27241
813.85420	1.28328
811.92563	1.27937
809.99707	1.28301
808.06851	1.29696
806.13994	1.30816
804.21138	1.31569
802.28281	1.32879
800.35425	1.33699
798.42568	1.33238
796.49712	1.33317
794.56855	1.34316
792.63999	1.35437
790.71143	1.36923
788.78286	1.37624
786.85430	1.36908
784.92573	1.37578
782.99717	1.41417
781.06860	1.47746
779.14004	1.48500
777.21147	1.40867
775.28291	1.34869
773.35435	1.34209
771.42578	1.38780
769.49722	1.42095
767.56865	1.41042
765.64009	1.42293
763.71152	1.46317
761.78296	1.48485
759.85439	1.42524
757.92583	1.27107
755.99727	1.17679
754.06870	1.23425
752.14014	1.34631
750.21157	1.28032
748.28301	1.15570
746.35444	1.15782
744.42588	1.32270
742.49731	1.49263
740.56875	1.32106
738.64019	1.05148
736.71162	0.86801
734.78306	0.78700
732.85449	0.77573
730.92593	0.78919
728.99736	0.76585
727.06880	0.63243
725.14023	0.50880
723.21167	0.44266
721.28311	0.39838
719.35454	0.37069
717.42598	0.26129
715.49741	0.14725
713.56885	0.11765
711.64028	0.16303
709.71172	0.26130
707.78315	0.38343
705.85459	0.34422
703.92603	0.21153
701.99746	0.13817
700.06890	0.15386
698.14033	0.30231
696.21177	0.69600
694.28320	0.70825
692.35464	0.26809
690.42607	0.13421
688.49751	0.16261
686.56895	0.28666
684.64038	0.37494
682.71182	0.29389
680.78325	0.22541
678.85469	0.24125
676.92612	0.29127
674.99756	0.32686
673.06899	0.41447
671.14043	0.58640
669.21187	0.66876
667.28330	0.54978
665.35474	0.40258
663.42617	0.24410
661.49761	0.12163
659.56904	0.12869
657.64048	0.27090
655.71191	0.35438
653.78335	0.28726
651.85479	0.16322
649.92622	0.10590
647.99766	0.23816
646.06909	0.58994
644.14053	0.77405
642.21196	0.43944
640.28340	0.31015
638.35483	0.40863
636.42627	0.68838
634.49771	0.68558
632.56914	0.45759
630.64058	0.46900
628.71201	0.60124
626.78345	0.53859
624.85488	0.45444
622.92632	0.41737
620.99775	0.35355
619.06919	0.26202
617.14062	0.19330
615.21206	0.17635
613.28350	0.22223
611.35493	0.32154
609.42637	0.45983
607.49780	0.56974
605.56924	0.54876
603.64067	0.46720
601.71211	0.36719
599.78354	0.26671
597.85498	0.21767
595.92642	0.27990
593.99785	0.43003
592.06929	0.49152
590.14072	0.41803
588.21216	0.33917
586.28359	0.27113
584.35503	0.25964
582.42646	0.28218
580.49790	0.28969
578.56934	0.26466
576.64077	0.20141
574.71221	0.15913
572.78364	0.20121
570.85508	0.31227
568.92651	0.40037
566.99795	0.40798
565.06938	0.38578
563.14082	0.47593
561.21226	0.74356
559.28369	0.51102
557.35513	0.19423
555.42656	0.06876
553.49800	0.10418
551.56943	0.15362
549.64087	0.13730
547.71230	0.11508
545.78374	0.14217
543.85518	0.28855
541.92661	0.88912
539.99805	1.22207
538.06948	0.37942
536.14092	0.26075
534.21235	0.22688
532.28379	0.19419
530.35522	0.17090
528.42666	0.17385
526.49810	0.17313
524.56953	0.15382
522.64097	0.13239
520.71240	0.12976
518.78384	0.15813
516.85527	0.19918
514.92671	0.22455
512.99814	0.21706
511.06958	0.21649
509.14102	0.23342
507.21245	0.22591
505.28389	0.21863
503.35532	0.25415
501.42676	0.31549
499.49819	0.34609
