3997.91411	0.06888
3995.98555	0.06987
3994.05698	0.07053
3992.12842	0.07094
3990.19985	0.07114
3988.27129	0.07096
3986.34272	0.07065
3984.41416	0.07073
3982.48560	0.07124
3980.55703	0.07180
3978.62847	0.07208
3976.69990	0.07211
3974.77134	0.07236
3972.84277	0.07298
3970.91421	0.07340
3968.98564	0.07337
3967.05708	0.07324
3965.12852	0.07329
3963.19995	0.07374
3961.27139	0.07418
3959.34282	0.07423
3957.41426	0.07441
3955.48569	0.07472
3953.55713	0.07474
3951.62856	0.07457
3949.70000	0.07443
3947.77144	0.07447
3945.84287	0.07456
3943.91431	0.07443
3941.98574	0.07430
3940.05718	0.07451
3938.12861	0.07453
3936.20005	0.07400
3934.27148	0.07367
3932.34292	0.07388
3930.41436	0.07401
3928.48579	0.07399
3926.55723	0.07413
3924.62866	0.07451
3922.70010	0.07503
3920.77153	0.07516
3918.84297	0.07473
3916.91440	0.07425
3914.98584	0.07396
3913.05728	0.07357
3911.12871	0.07315
3909.20015	0.07295
3907.27158	0.07305
3905.34302	0.07383
3903.41445	0.07545
3901.48589	0.07655
3899.55732	0.07628
3897.62876	0.07526
3895.70020	0.07420
3893.77163	0.07356
3891.84307	0.07345
3889.91450	0.07375
3887.98594	0.07398
3886.05737	0.07459
3884.12881	0.07586
3882.20024	0.07650
3880.27168	0.07664
3878.34312	0.07648
3876.41455	0.07558
3874.48599	0.07492
3872.55742	0.07546
3870.62886	0.07687
3868.70029	0.07781
3866.77173	0.07751
3864.84316	0.07726
3862.91460	0.07754
3860.98604	0.07747
3859.05747	0.07738
3857.12891	0.07791
3855.20034	0.07903
3853.27178	0.08092
3851.34321	0.08207
3849.41465	0.08090
3847.48608	0.07990
3845.55752	0.08010
3843.62896	0.08111
3841.70039	0.08224
3839.77183	0.08345
3837.84326	0.08500
3835.91470	0.08597
3833.98613	0.08606
3832.05757	0.08596
3830.12900	0.08589
3828.20044	0.08609
3826.27187	0.08678
3824.34331	0.08773
3822.41475	0.08901
3820.48618	0.09105
3818.55762	0.09229
3816.62905	0.09215
3814.70049	0.09226
3812.77192	0.09274
3810.84336	0.09328
3808.91479	0.09430
3806.98623	0.09613
3805.05767	0.09794
3803.12910	0.09920
3801.20054	0.10114
3799.27197	0.10285
3797.34341	0.10297
3795.41484	0.10321
3793.48628	0.10392
3791.55771	0.10455
3789.62915	0.10549
3787.70059	0.10696
3785.77202	0.10870
3783.84346	0.11034
3781.91489	0.11155
3779.98633	0.11301
3778.05776	0.11517
3776.12920	0.11680
3774.20063	0.11789
3772.27207	0.11952
3770.34351	0.12196
3768.41494	0.12447
3766.48638	0.12621
3764.55781	0.12800
3762.62925	0.12992
3760.70068	0.13178
3758.77212	0.13450
3756.84355	0.13770
3754.91499	0.13998
3752.98643	0.14212
3751.05786	0.14553
3749.12930	0.14963
3747.20073	0.15204
3745.27217	0.15379
3743.34360	0.15664
3741.41504	0.15908
3739.48647	0.16030
3737.55791	0.16180
3735.62935	0.16497
3733.70078	0.16994
3731.77222	0.17375
3729.84365	0.17579
3727.91509	0.17834
3725.98652	0.18333
3724.05796	0.19082
3722.12939	0.19931
3720.20083	0.20844
3718.27227	0.21802
3716.34370	0.22779
3714.41514	0.23711
3712.48657	0.24657
3710.55801	0.25839
3708.62944	0.27080
3706.70088	0.28129
3704.77231	0.29187
3702.84375	0.30482
3700.91519	0.32211
3698.98662	0.34136
3697.05806	0.35972
3695.12949	0.37914
3693.20093	0.39952
3691.27236	0.42165
3689.34380	0.45132
3687.41523	0.48866
3685.48667	0.52084
3683.55811	0.54792
3681.62954	0.57665
3679.70098	0.60869
3677.77241	0.64240
3675.84385	0.68290
3673.91528	0.73828
3671.98672	0.78324
3670.05815	0.82222
3668.12959	0.87593
3666.20103	0.92501
3664.27246	0.96579
3662.34390	1.00995
3660.41533	1.05796
3658.48677	1.10468
3656.55820	1.15415
3654.62964	1.21055
3652.70107	1.25810
3650.77251	1.29857
3648.84395	1.35515
3646.91538	1.42585
3644.98682	1.47673
3643.05825	1.51523
3641.12969	1.55488
3639.20112	1.59873
3637.27256	1.64299
3635.34399	1.68591
3633.41543	1.72847
3631.48687	1.76810
3629.55830	1.80804
3627.62974	1.86126
3625.70117	1.91257
3623.77261	1.94739
3621.84404	1.98076
3619.91548	2.02019
3617.98691	2.06800
3616.05835	2.11292
3614.12979	2.15111
3612.20122	2.19232
3610.27266	2.23148
3608.34409	2.26790
3606.41553	2.30817
3604.48696	2.34797
3602.55840	2.38335
3600.62983	2.42129
3598.70127	2.46338
3596.77271	2.50402
3594.84414	2.54410
3592.91558	2.58630
3590.98701	2.62706
3589.05845	2.66432
3587.12988	2.70837
3585.20132	2.75812
3583.27275	2.79942
3581.34419	2.83628
3579.41562	2.87641
3577.48706	2.91900
3575.55850	2.96156
3573.62993	3.00542
3571.70137	3.04775
3569.77280	3.08725
3567.84424	3.12983
3565.91567	3.18503
3563.98711	3.23908
3562.05854	3.27972
3560.12998	3.31898
3558.20142	3.36209
3556.27285	3.40593
3554.34429	3.44829
3552.41572	3.49426
3550.48716	3.54423
3548.55859	3.59039
3546.63003	3.63244
3544.70146	3.67918
3542.77290	3.73030
3540.84434	3.77778
3538.91577	3.82186
3536.98721	3.86634
3535.05864	3.91512
3533.13008	3.96591
3531.20151	4.01533
3529.27295	4.06246
3527.34438	4.10886
3525.41582	4.15536
3523.48726	4.20220
3521.55869	4.25067
3519.63013	4.29690
3517.70156	4.34089
3515.77300	4.38675
3513.84443	4.43669
3511.91587	4.48859
3509.98730	4.54046
3508.05874	4.59117
3506.13018	4.63688
3504.20161	4.67936
3502.27305	4.72593
3500.34448	4.77666
3498.41592	4.82581
3496.48735	4.87477
3494.55879	4.92652
3492.63022	4.98015
3490.70166	5.03107
3488.77310	5.07543
3486.84453	5.11593
3484.91597	5.15895
3482.98740	5.20709
3481.05884	5.25930
3479.13027	5.31124
3477.20171	5.35812
3475.27314	5.40256
3473.34458	5.44813
3471.41602	5.49071
3469.48745	5.53148
3467.55889	5.57934
3465.63032	5.63529
3463.70176	5.69492
3461.77319	5.75005
3459.84463	5.79807
3457.91606	5.84398
3455.98750	5.88849
3454.05894	5.93110
3452.13037	5.97942
3450.20181	6.03416
3448.27324	6.08047
3446.34468	6.12596
3444.41611	6.18518
3442.48755	6.24303
3440.55898	6.28895
3438.63042	6.33322
3436.70186	6.37801
3434.77329	6.43038
3432.84473	6.48093
3430.91616	6.51006
3428.98760	6.55094
3427.05903	6.62175
3425.13047	6.70387
3423.20190	6.77890
3421.27334	6.83141
3419.34478	6.85363
3417.41621	6.86941
3415.48765	6.89914
3413.55908	6.93440
3411.63052	6.98037
3409.70195	7.03145
3407.77339	7.08852
3405.84482	7.14915
3403.91626	7.18485
3401.98770	7.19039
3400.05913	7.22165
3398.13057	7.29234
3396.20200	7.35354
3394.27344	7.39949
3392.34487	7.44444
3390.41631	7.51649
3388.48774	7.57433
3386.55918	7.59621
3384.63062	7.64303
3382.70205	7.67607
3380.77349	7.65161
3378.84492	7.64571
3376.91636	7.67803
3374.98779	7.72059
3373.05923	7.78941
3371.13066	7.81001
3369.20210	7.78432
3367.27354	7.78606
3365.34497	7.80042
3363.41641	7.82514
3361.48784	7.85634
3359.55928	7.87887
3357.63071	7.91699
3355.70215	7.97618
3353.77358	7.98716
3351.84502	7.95476
3349.91646	7.92038
3347.98789	7.92912
3346.05933	7.97931
3344.13076	8.00320
3342.20220	8.00816
3340.27363	8.01892
3338.34507	8.06154
3336.41650	8.09616
3334.48794	8.06364
3332.55937	8.01171
3330.63081	8.03081
3328.70225	8.09010
3326.77368	8.05854
3324.84512	7.97388
3322.91655	7.99773
3320.98799	8.13372
3319.05942	8.17834
3317.13086	8.12467
3315.20229	8.12434
3313.27373	8.16727
3311.34517	8.19121
3309.41660	8.17750
3307.48804	8.13214
3305.55947	8.09260
3303.63091	8.05342
3301.70234	8.00287
3299.77378	8.05239
3297.84521	8.18777
3295.91665	8.26110
3293.98809	8.22975
3292.05952	8.12331
3290.13096	7.99592
3288.20239	7.94376
3286.27383	8.03486
3284.34526	8.16927
3282.41670	8.18552
3280.48813	8.10496
3278.55957	8.08949
3276.63101	8.14969
3274.70244	8.15246
3272.77388	8.12956
3270.84531	8.16358
3268.91675	8.20825
3266.98818	8.22346
3265.05962	8.25070
3263.13105	8.28234
3261.20249	8.26025
3259.27393	8.20207
3257.34536	8.13892
3255.41680	8.07105
3253.48823	8.06095
3251.55967	8.11878
3249.63110	8.17982
3247.70254	8.23726
3245.77397	8.23978
3243.84541	8.19346
3241.91685	8.18989
3239.98828	8.21843
3238.05972	8.23149
3236.13115	8.24264
3234.20259	8.25113
3232.27402	8.17827
3230.34546	8.08442
3228.41689	8.09066
3226.48833	8.13110
3224.55977	8.09542
3222.63120	7.99875
3220.70264	7.91407
3218.77407	7.89913
3216.84551	7.92487
3214.91694	7.90351
3212.98838	7.88384
3211.05981	7.92542
3209.13125	7.94656
3207.20269	7.95179
3205.27412	7.94570
3203.34556	7.87516
3201.41699	7.80332
3199.48843	7.76059
3197.55986	7.68962
3195.63130	7.57135
3193.70273	7.47422
3191.77417	7.44036
3189.84561	7.45684
3187.91704	7.46001
3185.98848	7.40322
3184.05991	7.34139
3182.13135	7.28788
3180.20278	7.21420
3178.27422	7.14057
3176.34565	7.09415
3174.41709	7.05371
3172.48853	7.00167
3170.55996	6.94302
3168.63140	6.87342
3166.70283	6.80690
3164.77427	6.74709
3162.84570	6.68952
3160.91714	6.62775
3158.98857	6.54320
3157.06001	6.45443
3155.13145	6.39736
3153.20288	6.36391
3151.27432	6.31616
3149.34575	6.23293
3147.41719	6.14686
3145.48862	6.09009
3143.56006	6.02713
3141.63149	5.94610
3139.70293	5.87992
3137.77437	5.82005
3135.84580	5.75287
3133.91724	5.69356
3131.98867	5.64063
3130.06011	5.57475
3128.13154	5.49311
3126.20298	5.41086
3124.27441	5.33575
3122.34585	5.26063
3120.41729	5.19047
3118.48872	5.13282
3116.56016	5.07141
3114.63159	4.99455
3112.70303	4.91447
3110.77446	4.83916
3108.84590	4.76659
3106.91733	4.69790
3104.98877	4.63252
3103.06021	4.56914
3101.13164	4.50831
3099.20308	4.44651
3097.27451	4.37823
3095.34595	4.30748
3093.41738	4.24362
3091.48882	4.18497
3089.56025	4.12283
3087.63169	4.05524
3085.70312	3.98766
3083.77456	3.92473
3081.84600	3.86580
3079.91743	3.80749
3077.98887	3.74928
3076.06030	3.69175
3074.13174	3.63326
3072.20317	3.57450
3070.27461	3.51782
3068.34604	3.46254
3066.41748	3.40636
3064.48892	3.34998
3062.56035	3.29519
3060.63179	3.24229
3058.70322	3.19121
3056.77466	3.14065
3054.84609	3.08914
3052.91753	3.03749
3050.98896	2.98719
3049.06040	2.93722
3047.13184	2.88687
3045.20327	2.83802
3043.27471	2.79093
3041.34614	2.74446
3039.41758	2.69922
3037.48901	2.65514
3035.56045	2.61030
3033.63188	2.56429
3031.70332	2.51872
3029.77476	2.47499
3027.84619	2.43313
3025.91763	2.39150
3023.98906	2.34954
3022.06050	2.30857
3020.13193	2.26876
3018.20337	2.22882
3016.27480	2.18915
3014.34624	2.15104
3012.41768	2.11375
3010.48911	2.07647
3008.56055	2.03987
3006.63198	2.00387
3004.70342	1.96823
3002.77485	1.93362
3000.84629	1.89995
2998.91772	1.86655
2996.98916	1.83384
2995.06060	1.80213
2993.13203	1.77076
2991.20347	1.73984
2989.27490	1.70993
2987.34634	1.68081
2985.41777	1.65229
2983.48921	1.62436
2981.56064	1.59654
2979.63208	1.56874
2977.70352	1.54148
2975.77495	1.51486
2973.84639	1.48881
2971.91782	1.46356
2969.98926	1.43890
2968.06069	1.41428
2966.13213	1.38958
2964.20356	1.36489
2962.27500	1.34034
2960.34644	1.31604
2958.41787	1.29225
2956.48931	1.26915
2954.56074	1.24637
2952.63218	1.22347
2950.70361	1.20092
2948.77505	1.17894
2946.84648	1.15685
2944.91792	1.13481
2942.98936	1.11346
2941.06079	1.09287
2939.13223	1.07274
2937.20366	1.05281
2935.27510	1.03296
2933.34653	1.01313
2931.41797	0.99343
2929.48940	0.97397
2927.56084	0.95487
2925.63228	0.93663
2923.70371	0.91962
2921.77515	0.90338
2919.84658	0.88734
2917.91802	0.87148
2915.98945	0.85600
2914.06089	0.84119
2912.13232	0.82673
2910.20376	0.81212
2908.27520	0.79770
2906.34663	0.78411
2904.41807	0.77107
2902.48950	0.75806
2900.56094	0.74526
2898.63237	0.73283
2896.70381	0.72043
2894.77524	0.70803
2892.84668	0.69596
2890.91812	0.68432
2888.98955	0.67313
2887.06099	0.66245
2885.13242	0.65219
2883.20386	0.64217
2881.27529	0.63240
2879.34673	0.62278
2877.41816	0.61312
2875.48960	0.60345
2873.56104	0.59361
2871.63247	0.58340
2869.70391	0.57291
2867.77534	0.56222
2865.84678	0.55139
2863.91821	0.54058
2861.98965	0.53001
2860.06108	0.51983
2858.13252	0.50991
2856.20396	0.50023
2854.27539	0.49115
2852.34683	0.48291
2850.41826	0.47537
2848.48970	0.46802
2846.56113	0.46065
2844.63257	0.45378
2842.70400	0.44773
2840.77544	0.44212
2838.84687	0.43658
2836.91831	0.43118
2834.98975	0.42582
2833.06118	0.42023
2831.13262	0.41443
2829.20405	0.40865
2827.27549	0.40303
2825.34692	0.39756
2823.41836	0.39209
2821.48979	0.38655
2819.56123	0.38104
2817.63267	0.37567
2815.70410	0.37035
2813.77554	0.36494
2811.84697	0.35964
2809.91841	0.35449
2807.98984	0.34933
2806.06128	0.34423
2804.13271	0.33931
2802.20415	0.33450
2800.27559	0.32973
2798.34702	0.32507
2796.41846	0.32049
2794.48989	0.31598
2792.56133	0.31160
2790.63276	0.30735
2788.70420	0.30322
2786.77563	0.29910
2784.84707	0.29495
2782.91851	0.29099
2780.98994	0.28729
2779.06138	0.28345
2777.13281	0.27947
2775.20425	0.27569
2773.27568	0.27214
2771.34712	0.26874
2769.41855	0.26541
2767.48999	0.26205
2765.56143	0.25873
2763.63286	0.25548
2761.70430	0.25228
2759.77573	0.24922
2757.84717	0.24622
2755.91860	0.24313
2753.99004	0.24011
2752.06147	0.23734
2750.13291	0.23464
2748.20435	0.23187
2746.27578	0.22913
2744.34722	0.22639
2742.41865	0.22375
2740.49009	0.22127
2738.56152	0.21877
2736.63296	0.21629
2734.70439	0.21390
2732.77583	0.21147
2730.84727	0.20907
2728.91870	0.20690
2726.99014	0.20488
2725.06157	0.20284
2723.13301	0.20079
2721.20444	0.19890
2719.27588	0.19708
2717.34731	0.19513
2715.41875	0.19320
2713.49019	0.19147
2711.56162	0.18982
2709.63306	0.18813
2707.70449	0.18647
2705.77593	0.18490
2703.84736	0.18338
2701.91880	0.18187
2699.99023	0.18037
2698.06167	0.17887
2696.13311	0.17742
2694.20454	0.17609
2692.27598	0.17475
2690.34741	0.17341
2688.41885	0.17228
2686.49028	0.17122
2684.56172	0.17005
2682.63315	0.16886
2680.70459	0.16768
2678.77603	0.16651
2676.84746	0.16546
2674.91890	0.16444
2672.99033	0.16343
2671.06177	0.16259
2669.13320	0.16190
2667.20464	0.16103
2665.27607	0.15999
2663.34751	0.15912
2661.41895	0.15846
2659.49038	0.15777
2657.56182	0.15702
2655.63325	0.15632
2653.70469	0.15566
2651.77612	0.15489
2649.84756	0.15409
2647.91899	0.15349
2645.99043	0.15298
2644.06187	0.15249
2642.13330	0.15205
2640.20474	0.15161
2638.27617	0.15115
2636.34761	0.15076
2634.41904	0.15035
2632.49048	0.14988
2630.56191	0.14939
2628.63335	0.14900
2626.70479	0.14878
2624.77622	0.14856
2622.84766	0.14821
2620.91909	0.14786
2618.99053	0.14767
2617.06196	0.14752
2615.13340	0.14731
2613.20483	0.14715
2611.27627	0.14705
2609.34771	0.14692
2607.41914	0.14678
2605.49058	0.14671
2603.56201	0.14675
2601.63345	0.14676
2599.70488	0.14666
2597.77632	0.14667
2595.84775	0.14689
2593.91919	0.14700
2591.99062	0.14695
2590.06206	0.14702
2588.13350	0.14725
2586.20493	0.14745
2584.27637	0.14765
2582.34780	0.14791
2580.41924	0.14812
2578.49067	0.14831
2576.56211	0.14859
2574.63354	0.14887
2572.70498	0.14918
2570.77642	0.14962
2568.84785	0.15012
2566.91929	0.15061
2564.99072	0.15100
2563.06216	0.15136
2561.13359	0.15187
2559.20503	0.15245
2557.27646	0.15284
2555.34790	0.15309
2553.41934	0.15350
2551.49077	0.15410
2549.56221	0.15469
2547.63364	0.15518
2545.70508	0.15568
2543.77651	0.15637
2541.84795	0.15716
2539.91938	0.15783
2537.99082	0.15837
2536.06226	0.15892
2534.13369	0.15959
2532.20513	0.16033
2530.27656	0.16109
2528.34800	0.16184
2526.41943	0.16255
2524.49087	0.16312
2522.56230	0.16361
2520.63374	0.16423
2518.70518	0.16499
2516.77661	0.16584
2514.84805	0.16665
2512.91948	0.16734
2510.99092	0.16803
2509.06235	0.16873
2507.13379	0.16959
2505.20522	0.17058
2503.27666	0.17145
2501.34810	0.17219
2499.41953	0.17295
2497.49097	0.17374
2495.56240	0.17454
2493.63384	0.17538
2491.70527	0.17629
2489.77671	0.17722
2487.84814	0.17806
2485.91958	0.17882
2483.99102	0.17965
2482.06245	0.18055
2480.13389	0.18146
2478.20532	0.18228
2476.27676	0.18305
2474.34819	0.18393
2472.41963	0.18492
2470.49106	0.18578
2468.56250	0.18654
2466.63394	0.18745
2464.70537	0.18852
2462.77681	0.18959
2460.84824	0.19060
2458.91968	0.19157
2456.99111	0.19255
2455.06255	0.19349
2453.13398	0.19432
2451.20542	0.19518
2449.27686	0.19615
2447.34829	0.19716
2445.41973	0.19820
2443.49116	0.19921
2441.56260	0.20015
2439.63403	0.20116
2437.70547	0.20224
2435.77690	0.20330
2433.84834	0.20432
2431.91978	0.20536
2429.99121	0.20645
2428.06265	0.20754
2426.13408	0.20859
2424.20552	0.20963
2422.27695	0.21065
2420.34839	0.21166
2418.41982	0.21273
2416.49126	0.21393
2414.56270	0.21530
2412.63413	0.21663
2410.70557	0.21767
2408.77700	0.21858
2406.84844	0.21966
2404.91987	0.22094
2402.99131	0.22215
2401.06274	0.22321
2399.13418	0.22423
2397.20562	0.22537
2395.27705	0.22666
2393.34849	0.22795
2391.41992	0.22913
2389.49136	0.23002
2387.56279	0.23023
2385.63423	0.22913
2383.70566	0.22638
2381.77710	0.22207
2379.84854	0.21639
2377.91997	0.20954
2375.99141	0.20151
2374.06284	0.19173
2372.13428	0.17985
2370.20571	0.16680
2368.27715	0.15396
2366.34858	0.14191
2364.42002	0.13127
2362.49146	0.12401
2360.56289	0.12105
2358.63433	0.12224
2356.70576	0.13025
2354.77720	0.14559
2352.84863	0.16452
2350.92007	0.18268
2348.99150	0.19383
2347.06294	0.19471
2345.13437	0.18634
2343.20581	0.17575
2341.27725	0.17207
2339.34868	0.17443
2337.42012	0.17806
2335.49155	0.18153
2333.56299	0.18547
2331.63442	0.18969
2329.70586	0.19417
2327.77729	0.19961
2325.84873	0.20588
2323.92017	0.21235
2321.99160	0.21932
2320.06304	0.22729
2318.13447	0.23567
2316.20591	0.24319
2314.27734	0.24907
2312.34878	0.25363
2310.42021	0.25813
2308.49165	0.26346
2306.56309	0.26935
2304.63452	0.27501
2302.70596	0.27983
2300.77739	0.28378
2298.84883	0.28731
2296.92026	0.29087
2294.99170	0.29455
2293.06313	0.29822
2291.13457	0.30183
2289.20601	0.30545
2287.27744	0.30893
2285.34888	0.31220
2283.42031	0.31522
2281.49175	0.31762
2279.56318	0.31928
2277.63462	0.32074
2275.70605	0.32250
2273.77749	0.32446
2271.84893	0.32638
2269.92036	0.32832
2267.99180	0.33041
2266.06323	0.33260
2264.13467	0.33490
2262.20610	0.33733
2260.27754	0.33982
2258.34897	0.34229
2256.42041	0.34462
2254.49185	0.34690
2252.56328	0.34927
2250.63472	0.35164
2248.70615	0.35402
2246.77759	0.35643
2244.84902	0.35880
2242.92046	0.36119
2240.99189	0.36365
2239.06333	0.36591
2237.13477	0.36796
2235.20620	0.37010
2233.27764	0.37237
2231.34907	0.37472
2229.42051	0.37708
2227.49194	0.37931
2225.56338	0.38141
2223.63481	0.38354
2221.70625	0.38570
2219.77769	0.38781
2217.84912	0.38989
2215.92056	0.39206
2213.99199	0.39424
2212.06343	0.39633
2210.13486	0.39843
2208.20630	0.40055
2206.27773	0.40262
2204.34917	0.40471
2202.42061	0.40688
2200.49204	0.40903
2198.56348	0.41102
2196.63491	0.41277
2194.70635	0.41462
2192.77778	0.41671
2190.84922	0.41870
2188.92065	0.42046
2186.99209	0.42220
2185.06353	0.42406
2183.13496	0.42592
2181.20640	0.42765
2179.27783	0.42924
2177.34927	0.43079
2175.42070	0.43235
2173.49214	0.43384
2171.56357	0.43526
2169.63501	0.43674
2167.70645	0.43819
2165.77788	0.43947
2163.84932	0.44069
2161.92075	0.44197
2159.99219	0.44317
2158.06362	0.44417
2156.13506	0.44503
2154.20649	0.44579
2152.27793	0.44652
2150.34937	0.44729
2148.42080	0.44806
2146.49224	0.44877
2144.56367	0.44944
2142.63511	0.45007
2140.70654	0.45058
2138.77798	0.45089
2136.84941	0.45105
2134.92085	0.45115
2132.99229	0.45120
2131.06372	0.45121
2129.13516	0.45112
2127.20659	0.45091
2125.27803	0.45066
2123.34946	0.45034
2121.42090	0.44995
2119.49233	0.44950
2117.56377	0.44895
2115.63521	0.44829
2113.70664	0.44766
2111.77808	0.44701
2109.84951	0.44618
2107.92095	0.44517
2105.99238	0.44408
2104.06382	0.44299
2102.13525	0.44190
2100.20669	0.44076
2098.27812	0.43951
2096.34956	0.43818
2094.42100	0.43682
2092.49243	0.43535
2090.56387	0.43375
2088.63530	0.43206
2086.70674	0.43030
2084.77817	0.42851
2082.84961	0.42676
2080.92104	0.42501
2078.99248	0.42318
2077.06392	0.42125
2075.13535	0.41926
2073.20679	0.41712
2071.27822	0.41491
2069.34966	0.41282
2067.42109	0.41080
2065.49253	0.40858
2063.56396	0.40616
2061.63540	0.40380
2059.70684	0.40146
2057.77827	0.39899
2055.84971	0.39644
2053.92114	0.39396
2051.99258	0.39158
2050.06401	0.38911
2048.13545	0.38647
2046.20688	0.38379
2044.27832	0.38122
2042.34976	0.37867
2040.42119	0.37608
2038.49263	0.37347
2036.56406	0.37081
2034.63550	0.36805
2032.70693	0.36523
2030.77837	0.36249
2028.84980	0.35980
2026.92124	0.35708
2024.99268	0.35442
2023.06411	0.35194
2021.13555	0.34941
2019.20698	0.34669
2017.27842	0.34395
2015.34985	0.34126
2013.42129	0.33859
2011.49272	0.33585
2009.56416	0.33310
2007.63560	0.33035
2005.70703	0.32759
2003.77847	0.32493
2001.84990	0.32241
1999.92134	0.31992
1997.99277	0.31735
1996.06421	0.31478
1994.13564	0.31232
1992.20708	0.30990
1990.27852	0.30740
1988.34995	0.30491
1986.42139	0.30247
1984.49282	0.30007
1982.56426	0.29769
1980.63569	0.29534
1978.70713	0.29302
1976.77856	0.29071
1974.85000	0.28851
1972.92144	0.28637
1970.99287	0.28415
1969.06431	0.28199
1967.13574	0.28005
1965.20718	0.27811
1963.27861	0.27611
1961.35005	0.27416
1959.42148	0.27228
1957.49292	0.27049
1955.56436	0.26874
1953.63579	0.26700
1951.70723	0.26524
1949.77866	0.26353
1947.85010	0.26185
1945.92153	0.26024
1943.99297	0.25876
1942.06440	0.25733
1940.13584	0.25583
1938.20728	0.25429
1936.27871	0.25278
1934.35015	0.25138
1932.42158	0.25019
1930.49302	0.24911
1928.56445	0.24800
1926.63589	0.24688
1924.70732	0.24591
1922.77876	0.24501
1920.85020	0.24391
1918.92163	0.24287
1916.99307	0.24200
1915.06450	0.24108
1913.13594	0.24013
1911.20737	0.23935
1909.27881	0.23869
1907.35024	0.23805
1905.42168	0.23731
1903.49312	0.23659
1901.56455	0.23599
1899.63599	0.23544
1897.70742	0.23497
1895.77886	0.23462
1893.85029	0.23428
1891.92173	0.23390
1889.99316	0.23363
1888.06460	0.23331
1886.13604	0.23294
1884.20747	0.23273
1882.27891	0.23262
1880.35034	0.23252
1878.42178	0.23240
1876.49321	0.23233
1874.56465	0.23234
1872.63608	0.23251
1870.70752	0.23279
1868.77896	0.23326
1866.85039	0.23347
1864.92183	0.23325
1862.99326	0.23317
1861.06470	0.23339
1859.13613	0.23373
1857.20757	0.23400
1855.27900	0.23438
1853.35044	0.23488
1851.42187	0.23547
1849.49331	0.23603
1847.56475	0.23662
1845.63618	0.23745
1843.70762	0.23851
1841.77905	0.23925
1839.85049	0.23957
1837.92192	0.24022
1835.99336	0.24117
1834.06479	0.24214
1832.13623	0.24317
1830.20767	0.24464
1828.27910	0.24617
1826.35054	0.24718
1824.42197	0.24830
1822.49341	0.24951
1820.56484	0.25078
1818.63628	0.25220
1816.70771	0.25382
1814.77915	0.25541
1812.85059	0.25712
1810.92202	0.25913
1808.99346	0.26119
1807.06489	0.26310
1805.13633	0.26489
1803.20776	0.26701
1801.27920	0.26956
1799.35063	0.27237
1797.42207	0.27481
1795.49351	0.27713
1793.56494	0.27994
1791.63638	0.28360
1789.70781	0.28700
1787.77925	0.28949
1785.85068	0.29247
1783.92212	0.29607
1781.99355	0.29994
1780.06499	0.30403
1778.13643	0.30826
1776.20786	0.31228
1774.27930	0.31658
1772.35073	0.32227
1770.42217	0.32843
1768.49360	0.33360
1766.56504	0.33858
1764.63647	0.34378
1762.70791	0.34961
1760.77935	0.35707
1758.85078	0.36400
1756.92222	0.37086
1754.99365	0.37843
1753.06509	0.38535
1751.13652	0.39355
1749.20796	0.40399
1747.27939	0.41433
1745.35083	0.42323
1743.42227	0.43254
1741.49370	0.44301
1739.56514	0.45551
1737.63657	0.46788
1735.70801	0.47851
1733.77944	0.49475
1731.85088	0.51467
1729.92231	0.53042
1727.99375	0.54605
1726.06519	0.56252
1724.13662	0.58034
1722.20806	0.59979
1720.27949	0.61796
1718.35093	0.63932
1716.42236	0.67122
1714.49380	0.70169
1712.56523	0.72615
1710.63667	0.74989
1708.70811	0.77556
1706.77954	0.80468
1704.85098	0.83955
1702.92241	0.87089
1700.99385	0.90187
1699.06528	0.94796
1697.13672	0.99041
1695.20815	1.03402
1693.27959	1.07634
1691.35103	1.11031
1689.42246	1.14981
1687.49390	1.19199
1685.56533	1.23256
1683.63677	1.29448
1681.70820	1.35917
1679.77964	1.40099
1677.85107	1.44086
1675.92251	1.48671
1673.99395	1.54383
1672.06538	1.59465
1670.13682	1.64406
1668.20825	1.70881
1666.27969	1.76158
1664.35112	1.80638
1662.42256	1.86350
1660.49399	1.92802
1658.56543	1.97730
1656.63687	2.01650
1654.70830	2.05394
1652.77974	2.11740
1650.85117	2.17539
1648.92261	2.19278
1646.99404	2.21723
1645.06548	2.24781
1643.13691	2.26785
1641.20835	2.27841
1639.27979	2.28850
1637.35122	2.29557
1635.42266	2.29421
1633.49409	2.28513
1631.56553	2.27131
1629.63696	2.25419
1627.70840	2.22686
1625.77983	2.19546
1623.85127	2.15482
1621.92271	2.10340
1619.99414	2.05770
1618.06558	2.01431
1616.13701	1.95159
1614.20845	1.88601
1612.27988	1.83627
1610.35132	1.78487
1608.42275	1.72872
1606.49419	1.67320
1604.56562	1.62207
1602.63706	1.57199
1600.70850	1.52270
1598.77993	1.47782
1596.85137	1.43617
1594.92280	1.39600
1592.99424	1.35705
1591.06567	1.32101
1589.13711	1.28746
1587.20854	1.25688
1585.27998	1.22875
1583.35142	1.20196
1581.42285	1.17732
1579.49429	1.15645
1577.56572	1.13776
1575.63716	1.11521
1573.70859	1.09554
1571.78003	1.08264
1569.85146	1.06920
1567.92290	1.05462
1565.99434	1.04403
1564.06577	1.03608
1562.13721	1.02981
1560.20864	1.02548
1558.28008	1.02159
1556.35151	1.01873
1554.42295	1.01616
1552.49438	1.01353
1550.56582	1.01014
1548.63726	1.00502
1546.70869	0.99873
1544.78013	0.99095
1542.85156	0.98082
1540.92300	0.96573
1538.99443	0.94195
1537.06587	0.92454
1535.13730	0.91291
1533.20874	0.89734
1531.28018	0.88025
1529.35161	0.86769
1527.42305	0.85596
1525.49448	0.84376
1523.56592	0.83327
1521.63735	0.82332
1519.70879	0.81311
1517.78022	0.80427
1515.85166	0.79445
1513.92310	0.78456
1511.99453	0.77607
1510.06597	0.76821
1508.13740	0.76036
1506.20884	0.74819
1504.28027	0.73774
1502.35171	0.73193
1500.42314	0.72688
1498.49458	0.72148
1496.56602	0.71499
1494.63745	0.70829
1492.70889	0.70309
1490.78032	0.69872
1488.85176	0.69367
1486.92319	0.68850
1484.99463	0.68419
1483.06606	0.68086
1481.13750	0.67809
1479.20894	0.67576
1477.28037	0.67424
1475.35181	0.67336
1473.42324	0.67240
1471.49468	0.67030
1469.56611	0.66756
1467.63755	0.66506
1465.70898	0.66295
1463.78042	0.66118
1461.85186	0.65982
1459.92329	0.65910
1457.99473	0.65888
1456.06616	0.65793
1454.13760	0.65571
1452.20903	0.65347
1450.28047	0.65118
1448.35190	0.64878
1446.42334	0.64640
1444.49478	0.64428
1442.56621	0.64222
1440.63765	0.63991
1438.70908	0.63748
1436.78052	0.63464
1434.85195	0.63158
1432.92339	0.62926
1430.99482	0.62766
1429.06626	0.62650
1427.13770	0.62563
1425.20913	0.62525
1423.28057	0.62542
1421.35200	0.62551
1419.42344	0.62536
1417.49487	0.62501
1415.56631	0.62399
1413.63774	0.62289
1411.70918	0.62226
1409.78062	0.62232
1407.85205	0.62295
1405.92349	0.62384
1403.99492	0.62455
1402.06636	0.62463
1400.13779	0.62410
1398.20923	0.62284
1396.28066	0.62083
1394.35210	0.61812
1392.42354	0.61486
1390.49497	0.61165
1388.56641	0.60853
1386.63784	0.60491
1384.70928	0.60083
1382.78071	0.59691
1380.85215	0.59326
1378.92358	0.59008
1376.99502	0.58767
1375.06646	0.58600
1373.13789	0.58468
1371.20933	0.58349
1369.28076	0.58246
1367.35220	0.58137
1365.42363	0.58017
1363.49507	0.57901
1361.56650	0.57780
1359.63794	0.57647
1357.70937	0.57524
1355.78081	0.57423
1353.85225	0.57345
1351.92368	0.57276
1349.99512	0.57198
1348.06655	0.57120
1346.13799	0.57055
1344.20942	0.56997
1342.28086	0.56937
1340.35229	0.56884
1338.42373	0.56828
1336.49517	0.56758
1334.56660	0.56702
1332.63804	0.56681
1330.70947	0.56679
1328.78091	0.56680
1326.85234	0.56683
1324.92378	0.56693
1322.99521	0.56717
1321.06665	0.56752
1319.13809	0.56778
1317.20952	0.56775
1315.28096	0.56744
1313.35239	0.56700
1311.42383	0.56647
1309.49526	0.56584
1307.56670	0.56522
1305.63813	0.56467
1303.70957	0.56419
1301.78101	0.56369
1299.85244	0.56298
1297.92388	0.56202
1295.99531	0.56096
1294.06675	0.55990
1292.13818	0.55885
1290.20962	0.55786
1288.28105	0.55695
1286.35249	0.55613
1284.42393	0.55534
1282.49536	0.55447
1280.56680	0.55353
1278.63823	0.55252
1276.70967	0.55148
1274.78110	0.55056
1272.85254	0.54974
1270.92397	0.54902
1268.99541	0.54851
1267.06685	0.54806
1265.13828	0.54745
1263.20972	0.54663
1261.28115	0.54572
1259.35259	0.54507
1257.42402	0.54484
1255.49546	0.54485
1253.56689	0.54487
1251.63833	0.54487
1249.70977	0.54489
1247.78120	0.54482
1245.85264	0.54460
1243.92407	0.54417
1241.99551	0.54339
1240.06694	0.54243
1238.13838	0.54138
1236.20981	0.54006
1234.28125	0.53852
1232.35269	0.53693
1230.42412	0.53536
1228.49556	0.53379
1226.56699	0.53229
1224.63843	0.53090
1222.70986	0.52961
1220.78130	0.52844
1218.85273	0.52741
1216.92417	0.52650
1214.99561	0.52570
1213.06704	0.52501
1211.13848	0.52435
1209.20991	0.52362
1207.28135	0.52287
1205.35278	0.52208
1203.42422	0.52123
1201.49565	0.52037
1199.56709	0.51960
1197.63853	0.51907
1195.70996	0.51877
1193.78140	0.51844
1191.85283	0.51800
1189.92427	0.51762
1187.99570	0.51732
1186.06714	0.51714
1184.13857	0.51717
1182.21001	0.51749
1180.28145	0.51814
1178.35288	0.51901
1176.42432	0.52006
1174.49575	0.52113
1172.56719	0.52179
1170.63862	0.52194
1168.71006	0.52177
1166.78149	0.52152
1164.85293	0.52140
1162.92437	0.52122
1160.99580	0.52073
1159.06724	0.51988
1157.13867	0.51892
1155.21011	0.51797
1153.28154	0.51684
1151.35298	0.51526
1149.42441	0.51311
1147.49585	0.51074
1145.56729	0.50847
1143.63872	0.50614
1141.71016	0.50388
1139.78159	0.50201
1137.85303	0.50052
1135.92446	0.49909
1133.99590	0.49775
1132.06733	0.49659
1130.13877	0.49540
1128.21021	0.49420
1126.28164	0.49309
1124.35308	0.49202
1122.42451	0.49104
1120.49595	0.49035
1118.56738	0.48997
1116.63882	0.48977
1114.71025	0.48978
1112.78169	0.49010
1110.85312	0.49051
1108.92456	0.49090
1106.99600	0.49167
1105.06743	0.49304
1103.13887	0.49474
1101.21030	0.49662
1099.28174	0.49878
1097.35317	0.50134
1095.42461	0.50443
1093.49604	0.50821
1091.56748	0.51250
1089.63892	0.51709
1087.71035	0.52226
1085.78179	0.52815
1083.85322	0.53429
1081.92466	0.54024
1079.99609	0.54542
1078.06753	0.54902
1076.13896	0.55027
1074.21040	0.54873
1072.28184	0.54450
1070.35327	0.53837
1068.42471	0.53162
1066.49614	0.52514
1064.56758	0.51897
1062.63901	0.51314
1060.71045	0.50781
1058.78188	0.50304
1056.85332	0.49880
1054.92476	0.49504
1052.99619	0.49163
1051.06763	0.48864
1049.13906	0.48640
1047.21050	0.48483
1045.28193	0.48339
1043.35337	0.48175
1041.42480	0.48011
1039.49624	0.47885
1037.56768	0.47805
1035.63911	0.47749
1033.71055	0.47707
1031.78198	0.47703
1029.85342	0.47727
1027.92485	0.47739
1025.99629	0.47740
1024.06772	0.47751
1022.13916	0.47783
1020.21060	0.47841
1018.28203	0.47928
1016.35347	0.48041
1014.42490	0.48150
1012.49634	0.48246
1010.56777	0.48351
1008.63921	0.48492
1006.71064	0.48672
1004.78208	0.48874
1002.85352	0.49110
1000.92495	0.49400
998.99639	0.49739
997.06782	0.50119
995.13926	0.50515
993.21069	0.50885
991.28213	0.51217
989.35356	0.51486
987.42500	0.51657
985.49644	0.51755
983.56787	0.51825
981.63931	0.51893
979.71074	0.51986
977.78218	0.52147
975.85361	0.52387
973.92505	0.52676
971.99648	0.52985
970.06792	0.53319
968.13936	0.53689
966.21079	0.54090
964.28223	0.54513
962.35366	0.54961
960.42510	0.55462
958.49653	0.56017
956.56797	0.56593
954.63940	0.57180
952.71084	0.57780
950.78228	0.58396
948.85371	0.59018
946.92515	0.59651
944.99658	0.60279
943.06802	0.60863
941.13945	0.61423
939.21089	0.62016
937.28232	0.62631
935.35376	0.63195
933.42520	0.63706
931.49663	0.64259
929.56807	0.64887
927.63950	0.65491
925.71094	0.65992
923.78237	0.66500
921.85381	0.67114
919.92524	0.67794
917.99668	0.68478
916.06812	0.69145
914.13955	0.69846
912.21099	0.70624
910.28242	0.71412
908.35386	0.72186
906.42529	0.73014
904.49673	0.73842
902.56816	0.74646
900.63960	0.75554
898.71104	0.76580
896.78247	0.77629
894.85391	0.78643
892.92534	0.79662
890.99678	0.80705
889.06821	0.81722
887.13965	0.82742
885.21108	0.83791
883.28252	0.84857
881.35396	0.85961
879.42539	0.87065
877.49683	0.88165
875.56826	0.89353
873.63970	0.90635
871.71113	0.91942
869.78257	0.93120
867.85400	0.94081
865.92544	0.94989
863.99687	0.95988
862.06831	0.97110
860.13975	0.98397
858.21118	0.99765
856.28262	1.00938
854.35405	1.01939
852.42549	1.03063
850.49692	1.04286
848.56836	1.05373
846.63979	1.06388
844.71123	1.07646
842.78267	1.09106
840.85410	1.10406
838.92554	1.11417
836.99697	1.12459
835.06841	1.13666
833.13984	1.14684
831.21128	1.15569
829.28271	1.16761
827.35415	1.18224
825.42559	1.19329
823.49702	1.19770
821.56846	1.20246
819.63989	1.21429
817.71133	1.22946
815.78276	1.24724
813.85420	1.26960
811.92563	1.28736
809.99707	1.29522
808.06851	1.30260
806.13994	1.32281
804.21138	1.33900
802.28281	1.32747
800.35425	1.31537
798.42568	1.32713
796.49712	1.34353
794.56855	1.34953
792.63999	1.36890
790.71143	1.40456
788.78286	1.41924
786.85430	1.40315
784.92573	1.39152
782.99717	1.40108
781.06860	1.41660
779.14004	1.43064
777.21147	1.42997
775.28291	1.41123
773.35435	1.44001
771.42578	1.53900
769.49722	1.52064
767.56865	1.40862
765.64009	1.33499
763.71152	1.27316
761.78296	1.25291
759.85439	1.28439
757.92583	1.36425
755.99727	1.47882
754.06870	1.41771
752.14014	1.29112
750.21157	1.32327
748.28301	1.42549
746.35444	1.28162
744.42588	1.07497
742.49731	0.99873
740.56875	0.98180
738.64019	0.89531
736.71162	0.80019
734.78306	0.73791
732.85449	0.64817
730.92593	0.57071
728.99736	0.55709
727.06880	0.59193
725.14023	0.55346
723.21167	0.39943
721.28311	0.37113
719.35454	0.68016
717.42598	4.30456
715.49741	4.29298
713.56885	0.88989
711.64028	0.26237
709.71172	0.12106
707.78315	0.13710
705.85459	0.24842
703.92603	0.39673
701.99746	0.36795
700.06890	0.25109
698.14033	0.20020
696.21177	0.21467
694.28320	0.22801
692.35464	0.28216
690.42607	0.48274
688.49751	0.73665
686.56895	0.55961
684.64038	0.37107
682.71182	0.29625
680.78325	0.27407
678.85469	0.22498
676.92612	0.19421
674.99756	0.26109
673.06899	0.43112
671.14043	0.66700
669.21187	0.64953
667.28330	0.29607
665.35474	0.08680
663.42617	0.05263
661.49761	0.16619
659.56904	0.27639
657.64048	0.19475
655.71191	0.08883
653.78335	0.08126
651.85479	0.14693
649.92622	0.31645
647.99766	0.56170
646.06909	0.42223
644.14053	0.15638
642.21196	0.12475
640.28340	0.32865
638.35483	0.57563
636.42627	0.45373
634.49771	0.38623
632.56914	0.46348
630.64058	0.61757
628.71201	3.77227
626.78345	3.76070
624.85488	3.74913
622.92632	0.41281
620.99775	0.20321
619.06919	0.22291
617.14062	0.22482
615.21206	0.15735
613.28350	0.12137
611.35493	0.17977
609.42637	0.23150
607.49780	0.19361
605.56924	0.16945
603.64067	0.20731
601.71211	0.33379
599.78354	0.44315
597.85498	0.33352
595.92642	0.17493
593.99785	0.12832
592.06929	0.09664
590.14072	0.03947
588.21216	0.05951
586.28359	0.18340
584.35503	0.31404
582.42646	0.42221
580.49790	0.45891
578.56934	0.48490
576.64077	0.82435
574.71221	0.87387
572.78364	0.39059
570.85508	0.25052
568.92651	0.26233
566.99795	0.32115
565.06938	0.28346
563.14082	0.25832
561.21226	0.22187
559.28369	0.12956
557.35513	0.05332
555.42656	0.02992
553.49800	0.07572
551.56943	0.13669
549.64087	0.15645
547.71230	0.16736
545.78374	0.19834
543.85518	0.22896
541.92661	0.25648
539.99805	0.30528
538.06948	0.33946
536.14092	0.26120
534.21235	0.15139
532.28379	0.10043
530.35522	0.12586
528.42666	0.18570
526.49810	0.19500
524.56953	0.17472
522.64097	0.15816
520.71240	0.14454
518.78384	0.15790
516.85527	0.22068
514.92671	0.28787
512.99814	0.28594
511.06958	0.26412
509.14102	0.23600
507.21245	0.18779
505.28389	0.19272
503.35532	0.26881
501.42676	0.36767
499.49819	0.36463
