3997.91411	0.06379
3995.98555	0.06434
3994.05698	0.06500
3992.12842	0.06551
3990.19985	0.06582
3988.27129	0.06599
3986.34272	0.06614
3984.41416	0.06645
3982.48560	0.06696
3980.55703	0.06726
3978.62847	0.06703
3976.69990	0.06702
3974.77134	0.06763
3972.84277	0.06814
3970.91421	0.06843
3968.98564	0.06878
3967.05708	0.06873
3965.12852	0.06822
3963.19995	0.06810
3961.27139	0.06846
3959.34282	0.06878
3957.41426	0.06899
3955.48569	0.06899
3953.55713	0.06882
3951.62856	0.06920
3949.70000	0.07019
3947.77144	0.07075
3945.84287	0.07049
3943.91431	0.07029
3941.98574	0.07072
3940.05718	0.07075
3938.12861	0.06987
3936.20005	0.06908
3934.27148	0.06932
3932.34292	0.07054
3930.41436	0.07128
3928.48579	0.07044
3926.55723	0.06919
3924.62866	0.06916
3922.70010	0.06985
3920.77153	0.06988
3918.84297	0.06975
3916.91440	0.07017
3914.98584	0.07014
3913.05728	0.06910
3911.12871	0.06835
3909.20015	0.06848
3907.27158	0.06924
3905.34302	0.07083
3903.41445	0.07282
3901.48589	0.07362
3899.55732	0.07326
3897.62876	0.07219
3895.70020	0.07049
3893.77163	0.06979
3891.84307	0.07073
3889.91450	0.07135
3887.98594	0.07074
3886.05737	0.07086
3884.12881	0.07190
3882.20024	0.07251
3880.27168	0.07289
3878.34312	0.07259
3876.41455	0.07180
3874.48599	0.07231
3872.55742	0.07383
3870.62886	0.07491
3868.70029	0.07540
3866.77173	0.07529
3864.84316	0.07562
3862.91460	0.07617
3860.98604	0.07534
3859.05747	0.07448
3857.12891	0.07513
3855.20034	0.07730
3853.27178	0.08132
3851.34321	0.08353
3849.41465	0.08040
3847.48608	0.07720
3845.55752	0.07635
3843.62896	0.07751
3841.70039	0.07951
3839.77183	0.08184
3837.84326	0.08422
3835.91470	0.08488
3833.98613	0.08407
3832.05757	0.08340
3830.12900	0.08311
3828.20044	0.08333
3826.27187	0.08402
3824.34331	0.08466
3822.41475	0.08602
3820.48618	0.08902
3818.55762	0.09068
3816.62905	0.09054
3814.70049	0.09062
3812.77192	0.09008
3810.84336	0.08966
3808.91479	0.09062
3806.98623	0.09296
3805.05767	0.09542
3803.12910	0.09738
3801.20054	0.09979
3799.27197	0.10086
3797.34341	0.10017
3795.41484	0.09994
3793.48628	0.09981
3791.55771	0.09996
3789.62915	0.10133
3787.70059	0.10332
3785.77202	0.10507
3783.84346	0.10634
3781.91489	0.10736
3779.98633	0.10919
3778.05776	0.11160
3776.12920	0.11277
3774.20063	0.11349
3772.27207	0.11529
3770.34351	0.11831
3768.41494	0.12164
3766.48638	0.12391
3764.55781	0.12548
3762.62925	0.12681
3760.70068	0.12876
3758.77212	0.13207
3756.84355	0.13511
3754.91499	0.13702
3752.98643	0.13978
3751.05786	0.14501
3749.12930	0.15046
3747.20073	0.15224
3745.27217	0.15334
3743.34360	0.15692
3741.41504	0.16090
3739.48647	0.16367
3737.55791	0.16739
3735.62935	0.17380
3733.70078	0.18078
3731.77222	0.18417
3729.84365	0.18631
3727.91509	0.19005
3725.98652	0.19626
3724.05796	0.20375
3722.12939	0.21030
3720.20083	0.21615
3718.27227	0.22229
3716.34370	0.22918
3714.41514	0.23711
3712.48657	0.24783
3710.55801	0.26287
3708.62944	0.27706
3706.70088	0.28710
3704.77231	0.29697
3702.84375	0.30987
3700.91519	0.32744
3698.98662	0.34643
3697.05806	0.36405
3695.12949	0.38259
3693.20093	0.40259
3691.27236	0.42534
3689.34380	0.45504
3687.41523	0.48967
3685.48667	0.51892
3683.55811	0.54437
3681.62954	0.57236
3679.70098	0.60487
3677.77241	0.63979
3675.84385	0.68072
3673.91528	0.73416
3671.98672	0.77728
3670.05815	0.81622
3668.12959	0.86978
3666.20103	0.91754
3664.27246	0.95691
3662.34390	1.00030
3660.41533	1.04857
3658.48677	1.09649
3656.55820	1.14691
3654.62964	1.20267
3652.70107	1.24966
3650.77251	1.29115
3648.84395	1.34905
3646.91538	1.41867
3644.98682	1.46769
3643.05825	1.50514
3641.12969	1.54444
3639.20112	1.58855
3637.27256	1.63363
3635.34399	1.67761
3633.41543	1.72155
3631.48687	1.76303
3629.55830	1.80529
3627.62974	1.86054
3625.70117	1.91152
3623.77261	1.94538
3621.84404	1.97781
3619.91548	2.01498
3617.98691	2.06064
3616.05835	2.10617
3614.12979	2.14416
3612.20122	2.18279
3610.27266	2.22158
3608.34409	2.26140
3606.41553	2.30404
3604.48696	2.34271
3602.55840	2.37708
3600.62983	2.41591
3598.70127	2.45894
3596.77271	2.49921
3594.84414	2.53857
3592.91558	2.57984
3590.98701	2.61898
3589.05845	2.65573
3587.12988	2.70049
3585.20132	2.74901
3583.27275	2.78871
3581.34419	2.82521
3579.41562	2.86461
3577.48706	2.90758
3575.55850	2.95232
3573.62993	2.99698
3571.70137	3.03850
3569.77280	3.07730
3567.84424	3.11931
3565.91567	3.17179
3563.98711	3.22260
3562.05854	3.26436
3560.12998	3.30544
3558.20142	3.34796
3556.27285	3.39207
3554.34429	3.43736
3552.41572	3.48485
3550.48716	3.53211
3548.55859	3.57688
3546.63003	3.62130
3544.70146	3.66861
3542.77290	3.71791
3540.84434	3.76594
3538.91577	3.81329
3536.98721	3.86123
3535.05864	3.90912
3533.13008	3.95259
3531.20151	3.99585
3529.27295	4.04513
3527.34438	4.09781
3525.41582	4.14840
3523.48726	4.19529
3521.55869	4.23922
3519.63013	4.28372
3517.70156	4.33408
3515.77300	4.38645
3513.84443	4.43528
3511.91587	4.48010
3509.98730	4.52386
3508.05874	4.57089
3506.13018	4.62060
3504.20161	4.66816
3502.27305	4.71531
3500.34448	4.76697
3498.41592	4.81893
3496.48735	4.86820
3494.55879	4.91172
3492.63022	4.94946
3490.70166	4.99219
3488.77310	5.04139
3486.84453	5.09238
3484.91597	5.14762
3482.98740	5.20310
3481.05884	5.25485
3479.13027	5.30432
3477.20171	5.35194
3475.27314	5.39761
3473.34458	5.44058
3471.41602	5.48472
3469.48745	5.53285
3467.55889	5.58233
3465.63032	5.63037
3463.70176	5.68076
3461.77319	5.73310
3459.84463	5.77839
3457.91606	5.81662
3455.98750	5.85703
3454.05894	5.90717
3452.13037	5.96914
3450.20181	6.03287
3448.27324	6.08494
3446.34468	6.12524
3444.41611	6.16043
3442.48755	6.20370
3440.55898	6.25888
3438.63042	6.31730
3436.70186	6.36368
3434.77329	6.39395
3432.84473	6.43383
3430.91616	6.49898
3428.98760	6.56040
3427.05903	6.59405
3425.13047	6.63192
3423.20190	6.68173
3421.27334	6.72653
3419.34478	6.77895
3417.41621	6.85345
3415.48765	6.92496
3413.55908	6.96678
3411.63052	7.00089
3409.70195	7.03694
3407.77339	7.08541
3405.84482	7.13991
3403.91626	7.17503
3401.98770	7.20996
3400.05913	7.26902
3398.13057	7.32555
3396.20200	7.36241
3394.27344	7.41548
3392.34487	7.47015
3390.41631	7.49373
3388.48774	7.50042
3386.55918	7.51767
3384.63062	7.56207
3382.70205	7.64489
3380.77349	7.69487
3378.84492	7.65430
3376.91636	7.62976
3374.98779	7.67474
3373.05923	7.75275
3371.13066	7.81228
3369.20210	7.80930
3367.27354	7.77107
3365.34497	7.77466
3363.41641	7.81482
3361.48784	7.86158
3359.55928	7.93285
3357.63071	7.99391
3355.70215	7.97543
3353.77358	7.88602
3351.84502	7.86884
3349.91646	7.91034
3347.98789	7.90282
3346.05933	7.92595
3344.13076	8.01566
3342.20220	8.10169
3340.27363	8.13219
3338.34507	8.07154
3336.41650	7.98874
3334.48794	7.99214
3332.55937	8.06518
3330.63081	8.16887
3328.70225	8.21940
3326.77368	8.17576
3324.84512	8.13378
3322.91655	8.09922
3320.98799	8.07524
3319.05942	8.08858
3317.13086	8.11724
3315.20229	8.11981
3313.27373	8.07414
3311.34517	7.99830
3309.41660	7.98447
3307.48804	8.05109
3305.55947	8.10012
3303.63091	8.11607
3301.70234	8.11878
3299.77378	8.14233
3297.84521	8.20986
3295.91665	8.24275
3293.98809	8.20690
3292.05952	8.23761
3290.13096	8.33302
3288.20239	8.28953
3286.27383	8.13571
3284.34526	8.05281
3282.41670	8.11169
3280.48813	8.23755
3278.55957	8.29795
3276.63101	8.27063
3274.70244	8.22628
3272.77388	8.22753
3270.84531	8.29661
3268.91675	8.34681
3266.98818	8.31634
3265.05962	8.31032
3263.13105	8.31107
3261.20249	8.27320
3259.27393	8.27133
3257.34536	8.30798
3255.41680	8.29994
3253.48823	8.21084
3251.55967	8.12313
3249.63110	8.13981
3247.70254	8.26150
3245.77397	8.31617
3243.84541	8.21094
3241.91685	8.13547
3239.98828	8.15954
3238.05972	8.18392
3236.13115	8.22770
3234.20259	8.27148
3232.27402	8.21688
3230.34546	8.12646
3228.41689	8.06436
3226.48833	8.04462
3224.55977	8.03325
3222.63120	7.97226
3220.70264	7.90830
3218.77407	7.91071
3216.84551	7.94773
3214.91694	7.98110
3212.98838	8.03316
3211.05981	8.02341
3209.13125	7.89255
3207.20269	7.79404
3205.27412	7.81975
3203.34556	7.86124
3201.41699	7.80041
3199.48843	7.70774
3197.55986	7.67560
3195.63130	7.67869
3193.70273	7.66809
3191.77417	7.62938
3189.84561	7.58172
3187.91704	7.51994
3185.98848	7.42438
3184.05991	7.34091
3182.13135	7.31385
3180.20278	7.32394
3178.27422	7.29180
3176.34565	7.19939
3174.41709	7.10928
3172.48853	7.02386
3170.55996	6.94244
3168.63140	6.89276
3166.70283	6.84710
3164.77427	6.78074
3162.84570	6.73074
3160.91714	6.69537
3158.98857	6.63389
3157.06001	6.54583
3155.13145	6.45049
3153.20288	6.36444
3151.27432	6.30021
3149.34575	6.25167
3147.41719	6.20243
3145.48862	6.14516
3143.56006	6.07735
3141.63149	6.00239
3139.70293	5.93345
3137.77437	5.86760
3135.84580	5.78865
3133.91724	5.70333
3131.98867	5.62440
3130.06011	5.55501
3128.13154	5.49702
3126.20298	5.43753
3124.27441	5.36278
3122.34585	5.28221
3120.41729	5.20931
3118.48872	5.14220
3116.56016	5.07244
3114.63159	4.99688
3112.70303	4.92408
3110.77446	4.85860
3108.84590	4.79345
3106.91733	4.72828
3104.98877	4.66506
3103.06021	4.60155
3101.13164	4.53617
3099.20308	4.46970
3097.27451	4.40555
3095.34595	4.34360
3093.41738	4.27883
3091.48882	4.21047
3089.56025	4.14341
3087.63169	4.07865
3085.70312	4.01501
3083.77456	3.95314
3081.84600	3.89152
3079.91743	3.82960
3077.98887	3.77045
3076.06030	3.71393
3074.13174	3.65764
3072.20317	3.60089
3070.27461	3.54255
3068.34604	3.48392
3066.41748	3.42789
3064.48892	3.37372
3062.56035	3.31971
3060.63179	3.26618
3058.70322	3.21333
3056.77466	3.16077
3054.84609	3.10910
3052.91753	3.05854
3050.98896	3.00814
3049.06040	2.95756
3047.13184	2.90757
3045.20327	2.85846
3043.27471	2.80997
3041.34614	2.76214
3039.41758	2.71510
3037.48901	2.66844
3035.56045	2.62235
3033.63188	2.57816
3031.70332	2.53515
3029.77476	2.49148
3027.84619	2.44795
3025.91763	2.40572
3023.98906	2.36434
3022.06050	2.32310
3020.13193	2.28183
3018.20337	2.24160
3016.27480	2.20290
3014.34624	2.16459
3012.41768	2.12646
3010.48911	2.08880
3008.56055	2.05154
3006.63198	2.01478
3004.70342	1.97911
3002.77485	1.94513
3000.84629	1.91206
2998.91772	1.87913
2996.98916	1.84683
2995.06060	1.81501
2993.13203	1.78338
2991.20347	1.75239
2989.27490	1.72209
2987.34634	1.69209
2985.41777	1.66279
2983.48921	1.63497
2981.56064	1.60808
2979.63208	1.58109
2977.70352	1.55435
2975.77495	1.52838
2973.84639	1.50271
2971.91782	1.47713
2969.98926	1.45219
2968.06069	1.42768
2966.13213	1.40313
2964.20356	1.37909
2962.27500	1.35569
2960.34644	1.33221
2958.41787	1.30869
2956.48931	1.28508
2954.56074	1.26125
2952.63218	1.23797
2950.70361	1.21583
2948.77505	1.19430
2946.84648	1.17262
2944.91792	1.15105
2942.98936	1.13044
2941.06079	1.11044
2939.13223	1.09022
2937.20366	1.07008
2935.27510	1.05058
2933.34653	1.03139
2931.41797	1.01228
2929.48940	0.99379
2927.56084	0.97613
2925.63228	0.95849
2923.70371	0.94049
2921.77515	0.92268
2919.84658	0.90551
2917.91802	0.88916
2915.98945	0.87381
2914.06089	0.85890
2912.13232	0.84355
2910.20376	0.82777
2908.27520	0.81207
2906.34663	0.79715
2904.41807	0.78332
2902.48950	0.76996
2900.56094	0.75654
2898.63237	0.74314
2896.70381	0.73007
2894.77524	0.71760
2892.84668	0.70582
2890.91812	0.69432
2888.98955	0.68272
2887.06099	0.67135
2885.13242	0.66074
2883.20386	0.65073
2881.27529	0.64078
2879.34673	0.63083
2877.41816	0.62115
2875.48960	0.61154
2873.56104	0.60170
2871.63247	0.59173
2869.70391	0.58162
2867.77534	0.57111
2865.84678	0.56009
2863.91821	0.54898
2861.98965	0.53826
2860.06108	0.52814
2858.13252	0.51860
2856.20396	0.50947
2854.27539	0.50071
2852.34683	0.49225
2850.41826	0.48401
2848.48970	0.47610
2846.56113	0.46845
2844.63257	0.46108
2842.70400	0.45426
2840.77544	0.44798
2838.84687	0.44197
2836.91831	0.43599
2834.98975	0.43000
2833.06118	0.42408
2831.13262	0.41830
2829.20405	0.41269
2827.27549	0.40707
2825.34692	0.40125
2823.41836	0.39522
2821.48979	0.38928
2819.56123	0.38357
2817.63267	0.37786
2815.70410	0.37211
2813.77554	0.36654
2811.84697	0.36129
2809.91841	0.35622
2807.98984	0.35116
2806.06128	0.34620
2804.13271	0.34132
2802.20415	0.33644
2800.27559	0.33165
2798.34702	0.32702
2796.41846	0.32244
2794.48989	0.31789
2792.56133	0.31340
2790.63276	0.30887
2788.70420	0.30445
2786.77563	0.30032
2784.84707	0.29634
2782.91851	0.29218
2780.98994	0.28801
2779.06138	0.28410
2777.13281	0.28043
2775.20425	0.27693
2773.27568	0.27353
2771.34712	0.27009
2769.41855	0.26666
2767.48999	0.26335
2765.56143	0.26006
2763.63286	0.25657
2761.70430	0.25309
2759.77573	0.24984
2757.84717	0.24663
2755.91860	0.24344
2753.99004	0.24051
2752.06147	0.23783
2750.13291	0.23515
2748.20435	0.23232
2746.27578	0.22945
2744.34722	0.22661
2742.41865	0.22390
2740.49009	0.22137
2738.56152	0.21886
2736.63296	0.21639
2734.70439	0.21403
2732.77583	0.21174
2730.84727	0.20952
2728.91870	0.20744
2726.99014	0.20534
2725.06157	0.20312
2723.13301	0.20093
2721.20444	0.19890
2719.27588	0.19692
2717.34731	0.19500
2715.41875	0.19315
2713.49019	0.19131
2711.56162	0.18957
2709.63306	0.18804
2707.70449	0.18653
2705.77593	0.18497
2703.84736	0.18340
2701.91880	0.18173
2699.99023	0.18006
2698.06167	0.17864
2696.13311	0.17744
2694.20454	0.17623
2692.27598	0.17491
2690.34741	0.17356
2688.41885	0.17229
2686.49028	0.17103
2684.56172	0.16980
2682.63315	0.16862
2680.70459	0.16752
2678.77603	0.16660
2676.84746	0.16570
2674.91890	0.16464
2672.99033	0.16355
2671.06177	0.16258
2669.13320	0.16175
2667.20464	0.16097
2665.27607	0.16001
2663.34751	0.15898
2661.41895	0.15816
2659.49038	0.15750
2657.56182	0.15685
2655.63325	0.15615
2653.70469	0.15531
2651.77612	0.15446
2649.84756	0.15382
2647.91899	0.15321
2645.99043	0.15256
2644.06187	0.15205
2642.13330	0.15155
2640.20474	0.15105
2638.27617	0.15070
2636.34761	0.15038
2634.41904	0.14994
2632.49048	0.14953
2630.56191	0.14916
2628.63335	0.14880
2626.70479	0.14849
2624.77622	0.14813
2622.84766	0.14772
2620.91909	0.14745
2618.99053	0.14731
2617.06196	0.14708
2615.13340	0.14684
2613.20483	0.14671
2611.27627	0.14660
2609.34771	0.14654
2607.41914	0.14654
2605.49058	0.14649
2603.56201	0.14637
2601.63345	0.14634
2599.70488	0.14644
2597.77632	0.14666
2595.84775	0.14688
2593.91919	0.14692
2591.99062	0.14686
2590.06206	0.14695
2588.13350	0.14713
2586.20493	0.14730
2584.27637	0.14751
2582.34780	0.14771
2580.41924	0.14787
2578.49067	0.14805
2576.56211	0.14828
2574.63354	0.14863
2572.70498	0.14907
2570.77642	0.14946
2568.84785	0.14975
2566.91929	0.15003
2564.99072	0.15040
2563.06216	0.15086
2561.13359	0.15128
2559.20503	0.15164
2557.27646	0.15212
2555.34790	0.15270
2553.41934	0.15323
2551.49077	0.15376
2549.56221	0.15429
2547.63364	0.15477
2545.70508	0.15532
2543.77651	0.15590
2541.84795	0.15644
2539.91938	0.15706
2537.99082	0.15781
2536.06226	0.15853
2534.13369	0.15917
2532.20513	0.15986
2530.27656	0.16057
2528.34800	0.16123
2526.41943	0.16185
2524.49087	0.16244
2522.56230	0.16307
2520.63374	0.16383
2518.70518	0.16467
2516.77661	0.16547
2514.84805	0.16620
2512.91948	0.16695
2510.99092	0.16782
2509.06235	0.16870
2507.13379	0.16939
2505.20522	0.16999
2503.27666	0.17076
2501.34810	0.17167
2499.41953	0.17256
2497.49097	0.17344
2495.56240	0.17440
2493.63384	0.17537
2491.70527	0.17619
2489.77671	0.17683
2487.84814	0.17743
2485.91958	0.17822
2483.99102	0.17917
2482.06245	0.18011
2480.13389	0.18103
2478.20532	0.18201
2476.27676	0.18298
2474.34819	0.18390
2472.41963	0.18476
2470.49106	0.18562
2468.56250	0.18652
2466.63394	0.18732
2464.70537	0.18801
2462.77681	0.18892
2460.84824	0.19006
2458.91968	0.19116
2456.99111	0.19216
2455.06255	0.19313
2453.13398	0.19406
2451.20542	0.19496
2449.27686	0.19585
2447.34829	0.19670
2445.41973	0.19759
2443.49116	0.19868
2441.56260	0.19985
2439.63403	0.20091
2437.70547	0.20192
2435.77690	0.20289
2433.84834	0.20377
2431.91978	0.20464
2429.99121	0.20562
2428.06265	0.20666
2426.13408	0.20777
2424.20552	0.20897
2422.27695	0.21018
2420.34839	0.21133
2418.41982	0.21240
2416.49126	0.21342
2414.56270	0.21458
2412.63413	0.21581
2410.70557	0.21688
2408.77700	0.21791
2406.84844	0.21904
2404.91987	0.22026
2402.99131	0.22141
2401.06274	0.22246
2399.13418	0.22355
2397.20562	0.22477
2395.27705	0.22611
2393.34849	0.22746
2391.41992	0.22872
2389.49136	0.22995
2387.56279	0.23141
2385.63423	0.23322
2383.70566	0.23535
2381.77710	0.23781
2379.84854	0.24060
2377.91997	0.24357
2375.99141	0.24660
2374.06284	0.24986
2372.13428	0.25360
2370.20571	0.25757
2368.27715	0.26134
2366.34858	0.26478
2364.42002	0.26793
2362.49146	0.27109
2360.56289	0.27352
2358.63433	0.27484
2356.70576	0.27566
2354.77720	0.27541
2352.84863	0.27433
2350.92007	0.27318
2348.99150	0.27269
2347.06294	0.27366
2345.13437	0.27649
2343.20581	0.28018
2341.27725	0.28285
2339.34868	0.28446
2337.42012	0.28581
2335.49155	0.28717
2333.56299	0.28832
2331.63442	0.28951
2329.70586	0.29078
2327.77729	0.29185
2325.84873	0.29281
2323.92017	0.29371
2321.99160	0.29449
2320.06304	0.29511
2318.13447	0.29564
2316.20591	0.29632
2314.27734	0.29740
2312.34878	0.29872
2310.42021	0.29994
2308.49165	0.30089
2306.56309	0.30165
2304.63452	0.30244
2302.70596	0.30352
2300.77739	0.30483
2298.84883	0.30629
2296.92026	0.30784
2294.99170	0.30934
2293.06313	0.31070
2291.13457	0.31204
2289.20601	0.31353
2287.27744	0.31515
2285.34888	0.31681
2283.42031	0.31853
2281.49175	0.32036
2279.56318	0.32237
2277.63462	0.32450
2275.70605	0.32663
2273.77749	0.32878
2271.84893	0.33101
2269.92036	0.33317
2267.99180	0.33516
2266.06323	0.33709
2264.13467	0.33902
2262.20610	0.34102
2260.27754	0.34313
2258.34897	0.34531
2256.42041	0.34741
2254.49185	0.34940
2252.56328	0.35134
2250.63472	0.35333
2248.70615	0.35541
2246.77759	0.35759
2244.84902	0.35984
2242.92046	0.36205
2240.99189	0.36417
2239.06333	0.36634
2237.13477	0.36860
2235.20620	0.37088
2233.27764	0.37308
2231.34907	0.37525
2229.42051	0.37750
2227.49194	0.37972
2225.56338	0.38181
2223.63481	0.38385
2221.70625	0.38595
2219.77769	0.38814
2217.84912	0.39042
2215.92056	0.39269
2213.99199	0.39484
2212.06343	0.39690
2210.13486	0.39900
2208.20630	0.40118
2206.27773	0.40331
2204.34917	0.40526
2202.42061	0.40715
2200.49204	0.40915
2198.56348	0.41124
2196.63491	0.41330
2194.70635	0.41528
2192.77778	0.41714
2190.84922	0.41898
2188.92065	0.42084
2186.99209	0.42262
2185.06353	0.42436
2183.13496	0.42615
2181.20640	0.42796
2179.27783	0.42972
2177.34927	0.43137
2175.42070	0.43279
2173.49214	0.43412
2171.56357	0.43552
2169.63501	0.43698
2167.70645	0.43842
2165.77788	0.43976
2163.84932	0.44101
2161.92075	0.44211
2159.99219	0.44316
2158.06362	0.44425
2156.13506	0.44522
2154.20649	0.44606
2152.27793	0.44692
2150.34937	0.44770
2148.42080	0.44836
2146.49224	0.44896
2144.56367	0.44956
2142.63511	0.45016
2140.70654	0.45062
2138.77798	0.45087
2136.84941	0.45104
2134.92085	0.45123
2132.99229	0.45133
2131.06372	0.45134
2129.13516	0.45132
2127.20659	0.45118
2125.27803	0.45095
2123.34946	0.45065
2121.42090	0.45020
2119.49233	0.44968
2117.56377	0.44918
2115.63521	0.44863
2113.70664	0.44787
2111.77808	0.44697
2109.84951	0.44607
2107.92095	0.44517
2105.99238	0.44420
2104.06382	0.44318
2102.13525	0.44207
2100.20669	0.44091
2098.27812	0.43971
2096.34956	0.43832
2094.42100	0.43672
2092.49243	0.43502
2090.56387	0.43332
2088.63530	0.43162
2086.70674	0.42988
2084.77817	0.42808
2082.84961	0.42629
2080.92104	0.42459
2078.99248	0.42284
2077.06392	0.42089
2075.13535	0.41875
2073.20679	0.41657
2071.27822	0.41436
2069.34966	0.41213
2067.42109	0.40989
2065.49253	0.40764
2063.56396	0.40525
2061.63540	0.40281
2059.70684	0.40042
2057.77827	0.39801
2055.84971	0.39558
2053.92114	0.39313
2051.99258	0.39065
2050.06401	0.38813
2048.13545	0.38560
2046.20688	0.38306
2044.27832	0.38056
2042.34976	0.37809
2040.42119	0.37545
2038.49263	0.37262
2036.56406	0.36978
2034.63550	0.36701
2032.70693	0.36429
2030.77837	0.36166
2028.84980	0.35897
2026.92124	0.35607
2024.99268	0.35318
2023.06411	0.35051
2021.13555	0.34799
2019.20698	0.34550
2017.27842	0.34293
2015.34985	0.34010
2013.42129	0.33709
2011.49272	0.33422
2009.56416	0.33157
2007.63560	0.32896
2005.70703	0.32632
2003.77847	0.32371
2001.84990	0.32118
1999.92134	0.31863
1997.99277	0.31601
1996.06421	0.31346
1994.13564	0.31114
1992.20708	0.30885
1990.27852	0.30632
1988.34995	0.30367
1986.42139	0.30105
1984.49282	0.29857
1982.56426	0.29629
1980.63569	0.29403
1978.70713	0.29174
1976.77856	0.28950
1974.85000	0.28732
1972.92144	0.28509
1970.99287	0.28289
1969.06431	0.28093
1967.13574	0.27906
1965.20718	0.27695
1963.27861	0.27481
1961.35005	0.27282
1959.42148	0.27093
1957.49292	0.26908
1955.56436	0.26727
1953.63579	0.26550
1951.70723	0.26374
1949.77866	0.26208
1947.85010	0.26056
1945.92153	0.25917
1943.99297	0.25795
1942.06440	0.25667
1940.13584	0.25501
1938.20728	0.25323
1936.27871	0.25168
1934.35015	0.25031
1932.42158	0.24904
1930.49302	0.24781
1928.56445	0.24667
1926.63589	0.24559
1924.70732	0.24469
1922.77876	0.24393
1920.85020	0.24309
1918.92163	0.24228
1916.99307	0.24143
1915.06450	0.24030
1913.13594	0.23919
1911.20737	0.23847
1909.27881	0.23789
1907.35024	0.23712
1905.42168	0.23626
1903.49312	0.23550
1901.56455	0.23486
1899.63599	0.23431
1897.70742	0.23396
1895.77886	0.23375
1893.85029	0.23346
1891.92173	0.23307
1889.99316	0.23298
1888.06460	0.23284
1886.13604	0.23235
1884.20747	0.23189
1882.27891	0.23162
1880.35034	0.23147
1878.42178	0.23139
1876.49321	0.23140
1874.56465	0.23145
1872.63608	0.23164
1870.70752	0.23220
1868.77896	0.23311
1866.85039	0.23337
1864.92183	0.23285
1862.99326	0.23256
1861.06470	0.23266
1859.13613	0.23291
1857.20757	0.23316
1855.27900	0.23358
1853.35044	0.23406
1851.42187	0.23459
1849.49331	0.23529
1847.56475	0.23617
1845.63618	0.23726
1843.70762	0.23844
1841.77905	0.23900
1839.85049	0.23911
1837.92192	0.23973
1835.99336	0.24064
1834.06479	0.24156
1832.13623	0.24269
1830.20767	0.24447
1828.27910	0.24613
1826.35054	0.24708
1824.42197	0.24819
1822.49341	0.24922
1820.56484	0.25015
1818.63628	0.25140
1816.70771	0.25304
1814.77915	0.25465
1812.85059	0.25651
1810.92202	0.25879
1808.99346	0.26089
1807.06489	0.26262
1805.13633	0.26440
1803.20776	0.26674
1801.27920	0.26951
1799.35063	0.27237
1797.42207	0.27486
1795.49351	0.27743
1793.56494	0.28056
1791.63638	0.28425
1789.70781	0.28717
1787.77925	0.28925
1785.85068	0.29222
1783.92212	0.29599
1781.99355	0.30004
1780.06499	0.30425
1778.13643	0.30841
1776.20786	0.31240
1774.27930	0.31705
1772.35073	0.32336
1770.42217	0.32963
1768.49360	0.33442
1766.56504	0.33907
1764.63647	0.34412
1762.70791	0.35003
1760.77935	0.35756
1758.85078	0.36454
1756.92222	0.37160
1754.99365	0.37927
1753.06509	0.38630
1751.13652	0.39502
1749.20796	0.40607
1747.27939	0.41658
1745.35083	0.42555
1743.42227	0.43502
1741.49370	0.44547
1739.56514	0.45776
1737.63657	0.47007
1735.70801	0.48109
1733.77944	0.49789
1731.85088	0.51742
1729.92231	0.53229
1727.99375	0.54723
1726.06519	0.56345
1724.13662	0.58152
1722.20806	0.60137
1720.27949	0.62006
1718.35093	0.64231
1716.42236	0.67474
1714.49380	0.70472
1712.56523	0.72861
1710.63667	0.75200
1708.70811	0.77752
1706.77954	0.80696
1704.85098	0.84238
1702.92241	0.87389
1700.99385	0.90498
1699.06528	0.95113
1697.13672	0.99354
1695.20815	1.03695
1693.27959	1.07918
1691.35103	1.11367
1689.42246	1.15393
1687.49390	1.19626
1685.56533	1.23693
1683.63677	1.30000
1681.70820	1.36581
1679.77964	1.40783
1677.85107	1.44746
1675.92251	1.49306
1673.99395	1.55030
1672.06538	1.60245
1670.13682	1.65423
1668.20825	1.72005
1666.27969	1.77220
1664.35112	1.81672
1662.42256	1.87522
1660.49399	1.94281
1658.56543	1.99455
1656.63687	2.03521
1654.70830	2.07217
1652.77974	2.12925
1650.85117	2.18364
1648.92261	2.20368
1646.99404	2.23100
1645.06548	2.26263
1643.13691	2.28149
1641.20835	2.29093
1639.27979	2.30025
1637.35122	2.30682
1635.42266	2.30698
1633.49409	2.29913
1631.56553	2.28462
1629.63696	2.26660
1627.70840	2.23792
1625.77983	2.20467
1623.85127	2.16268
1621.92271	2.11166
1619.99414	2.06666
1618.06558	2.02283
1616.13701	1.95947
1614.20845	1.89289
1612.27988	1.84114
1610.35132	1.78861
1608.42275	1.73307
1606.49419	1.67807
1604.56562	1.62681
1602.63706	1.57747
1600.70850	1.52991
1598.77993	1.48640
1596.85137	1.44507
1594.92280	1.40439
1592.99424	1.36528
1591.06567	1.33026
1589.13711	1.29790
1587.20854	1.26752
1585.27998	1.23943
1583.35142	1.21353
1581.42285	1.19007
1579.49429	1.17015
1577.56572	1.15266
1575.63716	1.13161
1573.70859	1.11270
1571.78003	1.10050
1569.85146	1.08840
1567.92290	1.07484
1565.99434	1.06456
1564.06577	1.05716
1562.13721	1.05185
1560.20864	1.04927
1558.28008	1.04827
1556.35151	1.04654
1554.42295	1.04445
1552.49438	1.04260
1550.56582	1.03984
1548.63726	1.03514
1546.70869	1.02901
1544.78013	1.02092
1542.85156	1.00993
1540.92300	0.99389
1538.99443	0.96847
1537.06587	0.94882
1535.13730	0.93560
1533.20874	0.91868
1531.28018	0.90039
1529.35161	0.88715
1527.42305	0.87506
1525.49448	0.86242
1523.56592	0.85124
1521.63735	0.84048
1519.70879	0.82969
1517.78022	0.82059
1515.85166	0.80991
1513.92310	0.79861
1511.99453	0.78906
1510.06597	0.78089
1508.13740	0.77353
1506.20884	0.76119
1504.28027	0.74869
1502.35171	0.74156
1500.42314	0.73610
1498.49458	0.73065
1496.56602	0.72374
1494.63745	0.71615
1492.70889	0.71026
1490.78032	0.70565
1488.85176	0.70060
1486.92319	0.69522
1484.99463	0.69060
1483.06606	0.68708
1481.13750	0.68426
1479.20894	0.68200
1477.28037	0.68073
1475.35181	0.68039
1473.42324	0.68020
1471.49468	0.67848
1469.56611	0.67560
1467.63755	0.67317
1465.70898	0.67138
1463.78042	0.66969
1461.85186	0.66835
1459.92329	0.66813
1457.99473	0.66917
1456.06616	0.66919
1454.13760	0.66629
1452.20903	0.66314
1450.28047	0.66042
1448.35190	0.65796
1446.42334	0.65529
1444.49478	0.65255
1442.56621	0.65010
1440.63765	0.64783
1438.70908	0.64571
1436.78052	0.64321
1434.85195	0.63988
1432.92339	0.63702
1430.99482	0.63533
1429.06626	0.63446
1427.13770	0.63400
1425.20913	0.63401
1423.28057	0.63439
1421.35200	0.63486
1419.42344	0.63553
1417.49487	0.63546
1415.56631	0.63395
1413.63774	0.63258
1411.70918	0.63204
1409.78062	0.63227
1407.85205	0.63313
1405.92349	0.63444
1403.99492	0.63542
1402.06636	0.63532
1400.13779	0.63469
1398.20923	0.63357
1396.28066	0.63149
1394.35210	0.62818
1392.42354	0.62413
1390.49497	0.62048
1388.56641	0.61713
1386.63784	0.61314
1384.70928	0.60854
1382.78071	0.60431
1380.85215	0.60058
1378.92358	0.59731
1376.99502	0.59491
1375.06646	0.59340
1373.13789	0.59210
1371.20933	0.59088
1369.28076	0.58998
1367.35220	0.58891
1365.42363	0.58752
1363.49507	0.58621
1361.56650	0.58477
1359.63794	0.58312
1357.70937	0.58182
1355.78081	0.58089
1353.85225	0.58001
1351.92368	0.57913
1349.99512	0.57833
1348.06655	0.57769
1346.13799	0.57713
1344.20942	0.57659
1342.28086	0.57614
1340.35229	0.57586
1338.42373	0.57535
1336.49517	0.57440
1334.56660	0.57351
1332.63804	0.57300
1330.70947	0.57287
1328.78091	0.57305
1326.85234	0.57338
1324.92378	0.57375
1322.99521	0.57420
1321.06665	0.57472
1319.13809	0.57528
1317.20952	0.57560
1315.28096	0.57555
1313.35239	0.57517
1311.42383	0.57449
1309.49526	0.57374
1307.56670	0.57308
1305.63813	0.57246
1303.70957	0.57180
1301.78101	0.57112
1299.85244	0.57036
1297.92388	0.56942
1295.99531	0.56841
1294.06675	0.56731
1292.13818	0.56615
1290.20962	0.56510
1288.28105	0.56414
1286.35249	0.56305
1284.42393	0.56187
1282.49536	0.56079
1280.56680	0.55984
1278.63823	0.55888
1276.70967	0.55781
1274.78110	0.55673
1272.85254	0.55583
1270.92397	0.55505
1268.99541	0.55424
1267.06685	0.55349
1265.13828	0.55283
1263.20972	0.55216
1261.28115	0.55140
1259.35259	0.55060
1257.42402	0.54991
1255.49546	0.54941
1253.56689	0.54913
1251.63833	0.54917
1249.70977	0.54941
1247.78120	0.54946
1245.85264	0.54927
1243.92407	0.54893
1241.99551	0.54831
1240.06694	0.54725
1238.13838	0.54582
1236.20981	0.54418
1234.28125	0.54241
1232.35269	0.54061
1230.42412	0.53875
1228.49556	0.53692
1226.56699	0.53535
1224.63843	0.53399
1222.70986	0.53268
1220.78130	0.53143
1218.85273	0.53023
1216.92417	0.52912
1214.99561	0.52817
1213.06704	0.52740
1211.13848	0.52682
1209.20991	0.52629
1207.28135	0.52560
1205.35278	0.52470
1203.42422	0.52376
1201.49565	0.52296
1199.56709	0.52235
1197.63853	0.52183
1195.70996	0.52118
1193.78140	0.52044
1191.85283	0.51989
1189.92427	0.51954
1187.99570	0.51924
1186.06714	0.51908
1184.13857	0.51919
1182.21001	0.51953
1180.28145	0.52014
1178.35288	0.52114
1176.42432	0.52238
1174.49575	0.52343
1172.56719	0.52406
1170.63862	0.52424
1168.71006	0.52417
1166.78149	0.52403
1164.85293	0.52379
1162.92437	0.52340
1160.99580	0.52293
1159.06724	0.52231
1157.13867	0.52141
1155.21011	0.52022
1153.28154	0.51893
1151.35298	0.51746
1149.42441	0.51552
1147.49585	0.51312
1145.56729	0.51066
1143.63872	0.50844
1141.71016	0.50633
1139.78159	0.50434
1137.85303	0.50265
1135.92446	0.50121
1133.99590	0.50018
1132.06733	0.49965
1130.13877	0.49932
1128.21021	0.49878
1126.28164	0.49805
1124.35308	0.49738
1122.42451	0.49671
1120.49595	0.49592
1118.56738	0.49521
1116.63882	0.49473
1114.71025	0.49449
1112.78169	0.49463
1110.85312	0.49509
1108.92456	0.49554
1106.99600	0.49613
1105.06743	0.49725
1103.13887	0.49874
1101.21030	0.50038
1099.28174	0.50236
1097.35317	0.50489
1095.42461	0.50789
1093.49604	0.51127
1091.56748	0.51526
1089.63892	0.52011
1087.71035	0.52562
1085.78179	0.53170
1083.85322	0.53814
1081.92466	0.54439
1079.99609	0.54968
1078.06753	0.55321
1076.13896	0.55420
1074.21040	0.55210
1072.28184	0.54728
1070.35327	0.54101
1068.42471	0.53436
1066.49614	0.52780
1064.56758	0.52145
1062.63901	0.51561
1060.71045	0.51056
1058.78188	0.50634
1056.85332	0.50268
1054.92476	0.49907
1052.99619	0.49572
1051.06763	0.49310
1049.13906	0.49095
1047.21050	0.48897
1045.28193	0.48720
1043.35337	0.48580
1041.42480	0.48472
1039.49624	0.48355
1037.56768	0.48248
1035.63911	0.48204
1033.71055	0.48188
1031.78198	0.48156
1029.85342	0.48134
1027.92485	0.48130
1025.99629	0.48123
1024.06772	0.48118
1022.13916	0.48143
1020.21060	0.48197
1018.28203	0.48254
1016.35347	0.48320
1014.42490	0.48406
1012.49634	0.48497
1010.56777	0.48586
1008.63921	0.48698
1006.71064	0.48862
1004.78208	0.49078
1002.85352	0.49307
1000.92495	0.49551
998.99639	0.49857
997.06782	0.50222
995.13926	0.50613
993.21069	0.51002
991.28213	0.51357
989.35356	0.51636
987.42500	0.51813
985.49644	0.51906
983.56787	0.51963
981.63931	0.52036
979.71074	0.52161
977.78218	0.52335
975.85361	0.52542
973.92505	0.52790
971.99648	0.53082
970.06792	0.53407
968.13936	0.53761
966.21079	0.54156
964.28223	0.54604
962.35366	0.55086
960.42510	0.55586
958.49653	0.56110
956.56797	0.56658
954.63940	0.57228
952.71084	0.57820
950.78228	0.58432
948.85371	0.59073
946.92515	0.59733
944.99658	0.60379
943.06802	0.60994
941.13945	0.61569
939.21089	0.62135
937.28232	0.62726
935.35376	0.63282
933.42520	0.63769
931.49663	0.64283
929.56807	0.64879
927.63950	0.65489
925.71094	0.66071
923.78237	0.66699
921.85381	0.67380
919.92524	0.68021
917.99668	0.68630
916.06812	0.69283
914.13955	0.69996
912.21099	0.70768
910.28242	0.71578
908.35386	0.72365
906.42529	0.73175
904.49673	0.74096
902.56816	0.75076
900.63960	0.75996
898.71104	0.76853
896.78247	0.77774
894.85391	0.78804
892.92534	0.79853
890.99678	0.80909
889.06821	0.82034
887.13965	0.83151
885.21108	0.84175
883.28252	0.85190
881.35396	0.86301
879.42539	0.87519
877.49683	0.88758
875.56826	0.89953
873.63970	0.91048
871.71113	0.92046
869.78257	0.93100
867.85400	0.94209
865.92544	0.95208
863.99687	0.96155
862.06831	0.97327
860.13975	0.98770
858.21118	1.00224
856.28262	1.01413
854.35405	1.02301
852.42549	1.03179
850.49692	1.04328
848.56836	1.05647
846.63979	1.06937
844.71123	1.08145
842.78267	1.09261
840.85410	1.10377
838.92554	1.11521
836.99697	1.12595
835.06841	1.13476
833.13984	1.14319
831.21128	1.15578
829.28271	1.17423
827.35415	1.19350
825.42559	1.20583
823.49702	1.21675
821.56846	1.23166
819.63989	1.23862
817.71133	1.23767
815.78276	1.24854
813.85420	1.27130
811.92563	1.28330
809.99707	1.28224
808.06851	1.28199
806.13994	1.28992
804.21138	1.30852
802.28281	1.33546
800.35425	1.35946
798.42568	1.36225
796.49712	1.35425
794.56855	1.36410
792.63999	1.38852
790.71143	1.41473
788.78286	1.43566
786.85430	1.44018
784.92573	1.46541
782.99717	1.49961
781.06860	1.46804
779.14004	1.41055
777.21147	1.37228
775.28291	1.38236
773.35435	1.47410
771.42578	1.61461
769.49722	1.54842
767.56865	1.33686
765.64009	1.22914
763.71152	1.25575
761.78296	1.38770
759.85439	1.56240
757.92583	1.49690
755.99727	1.29911
754.06870	1.22560
752.14014	1.20771
750.21157	1.18678
748.28301	1.23266
746.35444	1.23381
744.42588	1.06094
742.49731	0.93759
740.56875	0.85705
738.64019	0.75537
736.71162	0.70115
734.78306	0.69448
732.85449	0.63306
730.92593	0.48514
728.99736	0.32062
727.06880	0.16228
725.14023	0.00342
723.21167	-0.10022
721.28311	-0.13765
719.35454	-0.14885
717.42598	-0.21025
715.49741	-0.07885
713.56885	0.17866
711.64028	0.23456
709.71172	0.22882
707.78315	0.24089
705.85459	0.31160
703.92603	0.45167
701.99746	0.57879
700.06890	0.63888
698.14033	0.63675
696.21177	0.60844
694.28320	0.57968
692.35464	0.51525
690.42607	0.47330
688.49751	0.47107
686.56895	0.43925
684.64038	0.39264
682.71182	0.39140
680.78325	0.42501
678.85469	0.46088
676.92612	0.43245
674.99756	0.37268
673.06899	0.37651
671.14043	0.40732
669.21187	0.43975
667.28330	0.50036
665.35474	0.49935
663.42617	0.45732
661.49761	0.42652
659.56904	0.38006
657.64048	0.35647
655.71191	0.36906
653.78335	0.43897
651.85479	0.59894
649.92622	0.94720
647.99766	1.20330
646.06909	0.67781
644.14053	0.50003
642.21196	0.49141
640.28340	0.56891
638.35483	0.65450
636.42627	0.61773
634.49771	0.48601
632.56914	0.39952
630.64058	0.39030
628.71201	0.40650
626.78345	0.38556
624.85488	0.37820
622.92632	0.44326
620.99775	0.52952
619.06919	0.48517
617.14062	0.38576
615.21206	0.35564
613.28350	0.39419
611.35493	0.39269
609.42637	0.34422
607.49780	0.34571
605.56924	0.44266
603.64067	0.48205
601.71211	0.37155
599.78354	0.33217
597.85498	0.34783
595.92642	0.30636
593.99785	0.27682
592.06929	0.30090
590.14072	0.29274
588.21216	0.24585
586.28359	0.23346
584.35503	0.28917
582.42646	0.38880
580.49790	0.45924
578.56934	0.44890
576.64077	0.42719
574.71221	0.45240
572.78364	0.46664
570.85508	0.38894
568.92651	0.32537
566.99795	0.33698
565.06938	0.37452
563.14082	0.36343
561.21226	0.33751
559.28369	0.35295
557.35513	0.36607
555.42656	0.33072
553.49800	0.33119
551.56943	0.40623
549.64087	0.44283
547.71230	0.36107
545.78374	0.26834
543.85518	0.23813
541.92661	0.24674
539.99805	0.23718
538.06948	0.23820
536.14092	0.28769
534.21235	0.33092
532.28379	0.33879
530.35522	0.35160
528.42666	0.36207
526.49810	0.37020
524.56953	0.38653
522.64097	0.36222
520.71240	0.29647
518.78384	0.24674
516.85527	0.24373
514.92671	0.31483
512.99814	0.46582
511.06958	0.47817
509.14102	0.37153
507.21245	0.32499
505.28389	0.30050
503.35532	0.26476
501.42676	0.24727
499.49819	0.25441
