3997.91411	0.07247
3995.98555	0.07250
3994.05698	0.07276
3992.12842	0.07333
3990.19985	0.07381
3988.27129	0.07393
3986.34272	0.07375
3984.41416	0.07391
3982.48560	0.07483
3980.55703	0.07575
3978.62847	0.07593
3976.69990	0.07593
3974.77134	0.07640
3972.84277	0.07706
3970.91421	0.07725
3968.98564	0.07671
3967.05708	0.07564
3965.12852	0.07490
3963.19995	0.07542
3961.27139	0.07670
3959.34282	0.07746
3957.41426	0.07748
3955.48569	0.07711
3953.55713	0.07683
3951.62856	0.07748
3949.70000	0.07909
3947.77144	0.08026
3945.84287	0.08010
3943.91431	0.07997
3941.98574	0.08031
3940.05718	0.07945
3938.12861	0.07799
3936.20005	0.07765
3934.27148	0.07868
3932.34292	0.08046
3930.41436	0.08131
3928.48579	0.08029
3926.55723	0.07937
3924.62866	0.08014
3922.70010	0.08086
3920.77153	0.08032
3918.84297	0.08018
3916.91440	0.08063
3914.98584	0.07991
3913.05728	0.07800
3911.12871	0.07652
3909.20015	0.07614
3907.27158	0.07719
3905.34302	0.08029
3903.41445	0.08446
3901.48589	0.08683
3899.55732	0.08666
3897.62876	0.08450
3895.70020	0.08175
3893.77163	0.08086
3891.84307	0.08215
3889.91450	0.08290
3887.98594	0.08219
3886.05737	0.08281
3884.12881	0.08433
3882.20024	0.08435
3880.27168	0.08428
3878.34312	0.08378
3876.41455	0.08228
3874.48599	0.08276
3872.55742	0.08559
3870.62886	0.08838
3868.70029	0.08952
3866.77173	0.08851
3864.84316	0.08808
3862.91460	0.08854
3860.98604	0.08719
3859.05747	0.08536
3857.12891	0.08578
3855.20034	0.08926
3853.27178	0.09572
3851.34321	0.09839
3849.41465	0.09317
3847.48608	0.08806
3845.55752	0.08633
3843.62896	0.08821
3841.70039	0.09225
3839.77183	0.09663
3837.84326	0.10013
3835.91470	0.10040
3833.98613	0.09824
3832.05757	0.09646
3830.12900	0.09526
3828.20044	0.09479
3826.27187	0.09571
3824.34331	0.09723
3822.41475	0.09997
3820.48618	0.10473
3818.55762	0.10664
3816.62905	0.10550
3814.70049	0.10395
3812.77192	0.10106
3810.84336	0.09901
3808.91479	0.10001
3806.98623	0.10392
3805.05767	0.10770
3803.12910	0.11010
3801.20054	0.11333
3799.27197	0.11463
3797.34341	0.11318
3795.41484	0.11196
3793.48628	0.11022
3791.55771	0.10881
3789.62915	0.10927
3787.70059	0.11118
3785.77202	0.11405
3783.84346	0.11667
3781.91489	0.11792
3779.98633	0.11959
3778.05776	0.12187
3776.12920	0.12241
3774.20063	0.12241
3772.27207	0.12402
3770.34351	0.12763
3768.41494	0.13171
3766.48638	0.13416
3764.55781	0.13557
3762.62925	0.13662
3760.70068	0.13887
3758.77212	0.14355
3756.84355	0.14803
3754.91499	0.15060
3752.98643	0.15441
3751.05786	0.16230
3749.12930	0.17055
3747.20073	0.17285
3745.27217	0.17410
3743.34360	0.17785
3741.41504	0.18109
3739.48647	0.18430
3737.55791	0.19109
3735.62935	0.20285
3733.70078	0.21413
3731.77222	0.21766
3729.84365	0.21841
3727.91509	0.22159
3725.98652	0.22794
3724.05796	0.23505
3722.12939	0.24001
3720.20083	0.24274
3718.27227	0.24457
3716.34370	0.24744
3714.41514	0.25323
3712.48657	0.26539
3710.55801	0.28512
3708.62944	0.30213
3706.70088	0.31205
3704.77231	0.32200
3702.84375	0.33561
3700.91519	0.35316
3698.98662	0.37074
3697.05806	0.38688
3695.12949	0.40504
3693.20093	0.42562
3691.27236	0.44902
3689.34380	0.47848
3687.41523	0.51115
3685.48667	0.53778
3683.55811	0.56141
3681.62954	0.58879
3679.70098	0.62162
3677.77241	0.65760
3675.84385	0.70045
3673.91528	0.75477
3671.98672	0.79627
3670.05815	0.83400
3668.12959	0.88693
3666.20103	0.93335
3664.27246	0.97149
3662.34390	1.01400
3660.41533	1.06157
3658.48677	1.10976
3656.55820	1.16203
3654.62964	1.21984
3652.70107	1.26776
3650.77251	1.31095
3648.84395	1.37208
3646.91538	1.44288
3644.98682	1.49029
3643.05825	1.52628
3641.12969	1.56515
3639.20112	1.60965
3637.27256	1.65579
3635.34399	1.70186
3633.41543	1.74834
3631.48687	1.79214
3629.55830	1.83754
3627.62974	1.89556
3625.70117	1.94511
3623.77261	1.97560
3621.84404	2.00541
3619.91548	2.04252
3617.98691	2.08997
3616.05835	2.13478
3614.12979	2.17038
3612.20122	2.20777
3610.27266	2.24684
3608.34409	2.28763
3606.41553	2.33036
3604.48696	2.36897
3602.55840	2.40451
3600.62983	2.44479
3598.70127	2.48852
3596.77271	2.52963
3594.84414	2.57011
3592.91558	2.60975
3590.98701	2.64531
3589.05845	2.68135
3587.12988	2.72796
3585.20132	2.77518
3583.27275	2.81102
3581.34419	2.84693
3579.41562	2.88861
3577.48706	2.93157
3575.55850	2.97407
3573.62993	3.01815
3571.70137	3.05979
3569.77280	3.09848
3567.84424	3.14196
3565.91567	3.19583
3563.98711	3.24510
3562.05854	3.28461
3560.12998	3.32434
3558.20142	3.36624
3556.27285	3.41029
3554.34429	3.45564
3552.41572	3.50381
3550.48716	3.55332
3548.55859	3.60034
3546.63003	3.64615
3544.70146	3.69359
3542.77290	3.73822
3540.84434	3.78014
3538.91577	3.82649
3536.98721	3.87557
3535.05864	3.92380
3533.13008	3.97044
3531.20151	4.01743
3529.27295	4.06460
3527.34438	4.11207
3525.41582	4.16110
3523.48726	4.20932
3521.55869	4.25482
3519.63013	4.30051
3517.70156	4.35224
3515.77300	4.40372
3513.84443	4.45005
3511.91587	4.49848
3509.98730	4.54953
3508.05874	4.59767
3506.13018	4.64151
3504.20161	4.68410
3502.27305	4.73000
3500.34448	4.77680
3498.41592	4.82362
3496.48735	4.87685
3494.55879	4.93197
3492.63022	4.98378
3490.70166	5.03394
3488.77310	5.07810
3486.84453	5.11897
3484.91597	5.17039
3482.98740	5.23145
3481.05884	5.28677
3479.13027	5.32879
3477.20171	5.36285
3475.27314	5.40084
3473.34458	5.45379
3471.41602	5.51115
3469.48745	5.55609
3467.55889	5.60104
3465.63032	5.65558
3463.70176	5.70895
3461.77319	5.75387
3459.84463	5.79261
3457.91606	5.83648
3455.98750	5.89127
3454.05894	5.95106
3452.13037	6.00734
3450.20181	6.04966
3448.27324	6.08910
3446.34468	6.14322
3444.41611	6.19921
3442.48755	6.25015
3440.55898	6.30009
3438.63042	6.34988
3436.70186	6.39844
3434.77329	6.45028
3432.84473	6.49782
3430.91616	6.53122
3428.98760	6.57973
3427.05903	6.64091
3425.13047	6.68187
3423.20190	6.70833
3421.27334	6.76211
3419.34478	6.85840
3417.41621	6.93937
3415.48765	6.94931
3413.55908	6.94192
3411.63052	6.98297
3409.70195	7.04459
3407.77339	7.09780
3405.84482	7.14766
3403.91626	7.21251
3401.98770	7.25665
3400.05913	7.25669
3398.13057	7.27190
3396.20200	7.30717
3394.27344	7.35260
3392.34487	7.41687
3390.41631	7.47996
3388.48774	7.52724
3386.55918	7.57891
3384.63062	7.60270
3382.70205	7.58863
3380.77349	7.59171
3378.84492	7.62132
3376.91636	7.66587
3374.98779	7.71036
3373.05923	7.76359
3371.13066	7.80025
3369.20210	7.76817
3367.27354	7.68499
3365.34497	7.66609
3363.41641	7.76211
3361.48784	7.89199
3359.55928	7.98687
3357.63071	8.01351
3355.70215	8.00384
3353.77358	7.99062
3351.84502	7.98815
3349.91646	8.01893
3347.98789	8.07351
3346.05933	8.11894
3344.13076	8.16047
3342.20220	8.20056
3340.27363	8.16661
3338.34507	8.08837
3336.41650	8.05320
3334.48794	8.06936
3332.55937	8.09652
3330.63081	8.12941
3328.70225	8.18459
3326.77368	8.26950
3324.84512	8.33541
3322.91655	8.30092
3320.98799	8.22584
3319.05942	8.17973
3317.13086	8.16316
3315.20229	8.17138
3313.27373	8.22194
3311.34517	8.28373
3309.41660	8.28895
3307.48804	8.24069
3305.55947	8.21714
3303.63091	8.25263
3301.70234	8.25094
3299.77378	8.19602
3297.84521	8.16234
3295.91665	8.16986
3293.98809	8.21604
3292.05952	8.31182
3290.13096	8.33065
3288.20239	8.17563
3286.27383	8.07851
3284.34526	8.14216
3282.41670	8.24138
3280.48813	8.31300
3278.55957	8.40512
3276.63101	8.43230
3274.70244	8.31401
3272.77388	8.19032
3270.84531	8.16567
3268.91675	8.22558
3266.98818	8.30398
3265.05962	8.36048
3263.13105	8.35821
3261.20249	8.31517
3259.27393	8.29450
3257.34536	8.28446
3255.41680	8.28003
3253.48823	8.30347
3251.55967	8.32713
3249.63110	8.29943
3247.70254	8.27590
3245.77397	8.33230
3243.84541	8.36801
3241.91685	8.28437
3239.98828	8.21865
3238.05972	8.24290
3236.13115	8.21646
3234.20259	8.12018
3232.27402	8.09414
3230.34546	8.12485
3228.41689	8.13110
3226.48833	8.12699
3224.55977	8.17688
3222.63120	8.24723
3220.70264	8.19584
3218.77407	8.06966
3216.84551	8.02173
3214.91694	8.05691
3212.98838	8.06581
3211.05981	7.98781
3209.13125	7.87977
3207.20269	7.80540
3205.27412	7.79030
3203.34556	7.82848
3201.41699	7.86673
3199.48843	7.83697
3197.55986	7.74740
3195.63130	7.66075
3193.70273	7.59793
3191.77417	7.53810
3189.84561	7.50253
3187.91704	7.48862
3185.98848	7.44923
3184.05991	7.39947
3182.13135	7.34060
3180.20278	7.24867
3178.27422	7.16567
3176.34565	7.12127
3174.41709	7.07280
3172.48853	7.01709
3170.55996	6.98358
3168.63140	6.95127
3166.70283	6.90077
3164.77427	6.84078
3162.84570	6.77037
3160.91714	6.68261
3158.98857	6.60041
3157.06001	6.54016
3155.13145	6.48206
3153.20288	6.40715
3151.27432	6.32860
3149.34575	6.26306
3147.41719	6.20531
3145.48862	6.15235
3143.56006	6.09532
3141.63149	6.01368
3139.70293	5.91377
3137.77437	5.83046
3135.84580	5.76561
3133.91724	5.69811
3131.98867	5.63181
3130.06011	5.56899
3128.13154	5.50063
3126.20298	5.42315
3124.27441	5.33947
3122.34585	5.25814
3120.41729	5.18566
3118.48872	5.11773
3116.56016	5.05158
3114.63159	4.99004
3112.70303	4.92676
3110.77446	4.85705
3108.84590	4.78627
3106.91733	4.71686
3104.98877	4.64911
3103.06021	4.58346
3101.13164	4.51603
3099.20308	4.44718
3097.27451	4.38169
3095.34595	4.32003
3093.41738	4.25781
3091.48882	4.19255
3089.56025	4.12766
3087.63169	4.06447
3085.70312	4.00307
3083.77456	3.94404
3081.84600	3.88460
3079.91743	3.82381
3077.98887	3.76421
3076.06030	3.70581
3074.13174	3.64766
3072.20317	3.59088
3070.27461	3.53527
3068.34604	3.47967
3066.41748	3.42323
3064.48892	3.36683
3062.56035	3.31224
3060.63179	3.25956
3058.70322	3.20839
3056.77466	3.15745
3054.84609	3.10613
3052.91753	3.05571
3050.98896	3.00562
3049.06040	2.95452
3047.13184	2.90405
3045.20327	2.85521
3043.27471	2.80753
3041.34614	2.76142
3039.41758	2.71594
3037.48901	2.66987
3035.56045	2.62415
3033.63188	2.57947
3031.70332	2.53501
3029.77476	2.49077
3027.84619	2.44782
3025.91763	2.40595
3023.98906	2.36449
3022.06050	2.32365
3020.13193	2.28370
3018.20337	2.24447
3016.27480	2.20537
3014.34624	2.16653
3012.41768	2.12863
3010.48911	2.09150
3008.56055	2.05489
3006.63198	2.01908
3004.70342	1.98385
3002.77485	1.94890
3000.84629	1.91474
2998.91772	1.88200
2996.98916	1.85034
2995.06060	1.81917
2993.13203	1.78850
2991.20347	1.75855
2989.27490	1.72911
2987.34634	1.69997
2985.41777	1.67145
2983.48921	1.64353
2981.56064	1.61591
2979.63208	1.58915
2977.70352	1.56360
2975.77495	1.53855
2973.84639	1.51389
2971.91782	1.49001
2969.98926	1.46633
2968.06069	1.44246
2966.13213	1.41883
2964.20356	1.39558
2962.27500	1.37212
2960.34644	1.34856
2958.41787	1.32552
2956.48931	1.30250
2954.56074	1.27901
2952.63218	1.25539
2950.70361	1.23190
2948.77505	1.20908
2946.84648	1.18725
2944.91792	1.16591
2942.98936	1.14494
2941.06079	1.12473
2939.13223	1.10491
2937.20366	1.08478
2935.27510	1.06464
2933.34653	1.04532
2931.41797	1.02689
2929.48940	1.00872
2927.56084	0.99030
2925.63228	0.97204
2923.70371	0.95454
2921.77515	0.93741
2919.84658	0.92041
2917.91802	0.90377
2915.98945	0.88717
2914.06089	0.87056
2912.13232	0.85432
2910.20376	0.83861
2908.27520	0.82364
2906.34663	0.80932
2904.41807	0.79503
2902.48950	0.78073
2900.56094	0.76681
2898.63237	0.75351
2896.70381	0.74074
2894.77524	0.72829
2892.84668	0.71616
2890.91812	0.70435
2888.98955	0.69280
2887.06099	0.68160
2885.13242	0.67091
2883.20386	0.66105
2881.27529	0.65192
2879.34673	0.64274
2877.41816	0.63324
2875.48960	0.62367
2873.56104	0.61390
2871.63247	0.60359
2869.70391	0.59277
2867.77534	0.58179
2865.84678	0.57061
2863.91821	0.55933
2861.98965	0.54851
2860.06108	0.53821
2858.13252	0.52829
2856.20396	0.51901
2854.27539	0.51043
2852.34683	0.50207
2850.41826	0.49361
2848.48970	0.48528
2846.56113	0.47739
2844.63257	0.46996
2842.70400	0.46290
2840.77544	0.45633
2838.84687	0.45035
2836.91831	0.44464
2834.98975	0.43894
2833.06118	0.43325
2831.13262	0.42747
2829.20405	0.42155
2827.27549	0.41558
2825.34692	0.40974
2823.41836	0.40406
2821.48979	0.39825
2819.56123	0.39240
2817.63267	0.38680
2815.70410	0.38134
2813.77554	0.37590
2811.84697	0.37065
2809.91841	0.36549
2807.98984	0.36020
2806.06128	0.35489
2804.13271	0.34978
2802.20415	0.34490
2800.27559	0.34027
2798.34702	0.33582
2796.41846	0.33124
2794.48989	0.32640
2792.56133	0.32165
2790.63276	0.31731
2788.70420	0.31311
2786.77563	0.30890
2784.84707	0.30497
2782.91851	0.30112
2780.98994	0.29699
2779.06138	0.29281
2777.13281	0.28884
2775.20425	0.28505
2773.27568	0.28137
2771.34712	0.27780
2769.41855	0.27433
2767.48999	0.27092
2765.56143	0.26750
2763.63286	0.26412
2761.70430	0.26073
2759.77573	0.25722
2757.84717	0.25387
2755.91860	0.25092
2753.99004	0.24819
2752.06147	0.24544
2750.13291	0.24254
2748.20435	0.23961
2746.27578	0.23681
2744.34722	0.23408
2742.41865	0.23134
2740.49009	0.22870
2738.56152	0.22617
2736.63296	0.22361
2734.70439	0.22107
2732.77583	0.21871
2730.84727	0.21647
2728.91870	0.21424
2726.99014	0.21198
2725.06157	0.20977
2723.13301	0.20765
2721.20444	0.20560
2719.27588	0.20360
2717.34731	0.20170
2715.41875	0.19988
2713.49019	0.19804
2711.56162	0.19632
2709.63306	0.19474
2707.70449	0.19320
2705.77593	0.19160
2703.84736	0.18983
2701.91880	0.18810
2699.99023	0.18662
2698.06167	0.18521
2696.13311	0.18379
2694.20454	0.18249
2692.27598	0.18127
2690.34741	0.17992
2688.41885	0.17860
2686.49028	0.17744
2684.56172	0.17633
2682.63315	0.17526
2680.70459	0.17421
2678.77603	0.17312
2676.84746	0.17203
2674.91890	0.17094
2672.99033	0.16989
2671.06177	0.16890
2669.13320	0.16795
2667.20464	0.16702
2665.27607	0.16615
2663.34751	0.16528
2661.41895	0.16436
2659.49038	0.16350
2657.56182	0.16280
2655.63325	0.16216
2653.70469	0.16150
2651.77612	0.16094
2649.84756	0.16044
2647.91899	0.15975
2645.99043	0.15901
2644.06187	0.15849
2642.13330	0.15801
2640.20474	0.15737
2638.27617	0.15679
2636.34761	0.15644
2634.41904	0.15614
2632.49048	0.15572
2630.56191	0.15527
2628.63335	0.15489
2626.70479	0.15451
2624.77622	0.15407
2622.84766	0.15376
2620.91909	0.15367
2618.99053	0.15360
2617.06196	0.15340
2615.13340	0.15312
2613.20483	0.15289
2611.27627	0.15276
2609.34771	0.15264
2607.41914	0.15248
2605.49058	0.15236
2603.56201	0.15233
2601.63345	0.15231
2599.70488	0.15221
2597.77632	0.15214
2595.84775	0.15214
2593.91919	0.15214
2591.99062	0.15215
2590.06206	0.15223
2588.13350	0.15241
2586.20493	0.15274
2584.27637	0.15307
2582.34780	0.15327
2580.41924	0.15349
2578.49067	0.15372
2576.56211	0.15384
2574.63354	0.15395
2572.70498	0.15431
2570.77642	0.15487
2568.84785	0.15522
2566.91929	0.15537
2564.99072	0.15560
2563.06216	0.15599
2561.13359	0.15649
2559.20503	0.15702
2557.27646	0.15739
2555.34790	0.15767
2553.41934	0.15815
2551.49077	0.15867
2549.56221	0.15909
2547.63364	0.15962
2545.70508	0.16028
2543.77651	0.16094
2541.84795	0.16156
2539.91938	0.16211
2537.99082	0.16269
2536.06226	0.16338
2534.13369	0.16409
2532.20513	0.16476
2530.27656	0.16536
2528.34800	0.16590
2526.41943	0.16648
2524.49087	0.16721
2522.56230	0.16798
2520.63374	0.16865
2518.70518	0.16928
2516.77661	0.16998
2514.84805	0.17074
2512.91948	0.17152
2510.99092	0.17229
2509.06235	0.17306
2507.13379	0.17385
2505.20522	0.17469
2503.27666	0.17549
2501.34810	0.17624
2499.41953	0.17700
2497.49097	0.17776
2495.56240	0.17858
2493.63384	0.17950
2491.70527	0.18037
2489.77671	0.18109
2487.84814	0.18184
2485.91958	0.18273
2483.99102	0.18369
2482.06245	0.18460
2480.13389	0.18544
2478.20532	0.18624
2476.27676	0.18700
2474.34819	0.18780
2472.41963	0.18865
2470.49106	0.18952
2468.56250	0.19039
2466.63394	0.19124
2464.70537	0.19218
2462.77681	0.19326
2460.84824	0.19424
2458.91968	0.19511
2456.99111	0.19592
2455.06255	0.19672
2453.13398	0.19754
2451.20542	0.19840
2449.27686	0.19927
2447.34829	0.20019
2445.41973	0.20123
2443.49116	0.20235
2441.56260	0.20351
2439.63403	0.20468
2437.70547	0.20571
2435.77690	0.20655
2433.84834	0.20742
2431.91978	0.20845
2429.99121	0.20953
2428.06265	0.21055
2426.13408	0.21164
2424.20552	0.21287
2422.27695	0.21407
2420.34839	0.21515
2418.41982	0.21620
2416.49126	0.21723
2414.56270	0.21826
2412.63413	0.21938
2410.70557	0.22058
2408.77700	0.22183
2406.84844	0.22301
2404.91987	0.22410
2402.99131	0.22524
2401.06274	0.22645
2399.13418	0.22760
2397.20562	0.22864
2395.27705	0.22970
2393.34849	0.23096
2391.41992	0.23246
2389.49136	0.23442
2387.56279	0.23756
2385.63423	0.24293
2383.70566	0.25140
2381.77710	0.26305
2379.84854	0.27712
2377.91997	0.29299
2375.99141	0.31108
2374.06284	0.33224
2372.13428	0.35609
2370.20571	0.38132
2368.27715	0.40682
2366.34858	0.43158
2364.42002	0.45404
2362.49146	0.47179
2360.56289	0.48210
2358.63433	0.48304
2356.70576	0.47295
2354.77720	0.45229
2352.84863	0.42558
2350.92007	0.39887
2348.99150	0.38222
2347.06294	0.38260
2345.13437	0.40019
2343.20581	0.42324
2341.27725	0.43480
2339.34868	0.43503
2337.42012	0.43174
2335.49155	0.42891
2333.56299	0.42654
2331.63442	0.42445
2329.70586	0.42181
2327.77729	0.41765
2325.84873	0.41176
2323.92017	0.40473
2321.99160	0.39709
2320.06304	0.38822
2318.13447	0.37823
2316.20591	0.36942
2314.27734	0.36382
2312.34878	0.36062
2310.42021	0.35735
2308.49165	0.35262
2306.56309	0.34691
2304.63452	0.34155
2302.70596	0.33789
2300.77739	0.33592
2298.84883	0.33445
2296.92026	0.33287
2294.99170	0.33137
2293.06313	0.33008
2291.13457	0.32885
2289.20601	0.32766
2287.27744	0.32659
2285.34888	0.32579
2283.42031	0.32575
2281.49175	0.32710
2279.56318	0.32963
2277.63462	0.33242
2275.70605	0.33491
2273.77749	0.33713
2271.84893	0.33929
2269.92036	0.34134
2267.99180	0.34324
2266.06323	0.34505
2264.13467	0.34680
2262.20610	0.34852
2260.27754	0.35017
2258.34897	0.35173
2256.42041	0.35328
2254.49185	0.35497
2252.56328	0.35673
2250.63472	0.35833
2248.70615	0.35980
2246.77759	0.36141
2244.84902	0.36318
2242.92046	0.36505
2240.99189	0.36713
2239.06333	0.36931
2237.13477	0.37134
2235.20620	0.37333
2233.27764	0.37545
2231.34907	0.37761
2229.42051	0.37976
2227.49194	0.38200
2225.56338	0.38423
2223.63481	0.38639
2221.70625	0.38862
2219.77769	0.39082
2217.84912	0.39284
2215.92056	0.39495
2213.99199	0.39716
2212.06343	0.39925
2210.13486	0.40132
2208.20630	0.40349
2206.27773	0.40559
2204.34917	0.40753
2202.42061	0.40940
2200.49204	0.41134
2198.56348	0.41347
2196.63491	0.41559
2194.70635	0.41752
2192.77778	0.41938
2190.84922	0.42128
2188.92065	0.42317
2186.99209	0.42499
2185.06353	0.42677
2183.13496	0.42848
2181.20640	0.43012
2179.27783	0.43172
2177.34927	0.43330
2175.42070	0.43486
2173.49214	0.43643
2171.56357	0.43793
2169.63501	0.43927
2167.70645	0.44050
2165.77788	0.44175
2163.84932	0.44298
2161.92075	0.44418
2159.99219	0.44537
2158.06362	0.44645
2156.13506	0.44744
2154.20649	0.44836
2152.27793	0.44926
2150.34937	0.45020
2148.42080	0.45101
2146.49224	0.45155
2144.56367	0.45194
2142.63511	0.45234
2140.70654	0.45272
2138.77798	0.45301
2136.84941	0.45316
2134.92085	0.45327
2132.99229	0.45338
2131.06372	0.45344
2129.13516	0.45344
2127.20659	0.45337
2125.27803	0.45312
2123.34946	0.45268
2121.42090	0.45215
2119.49233	0.45153
2117.56377	0.45103
2115.63521	0.45062
2113.70664	0.44997
2111.77808	0.44912
2109.84951	0.44825
2107.92095	0.44736
2105.99238	0.44640
2104.06382	0.44543
2102.13525	0.44435
2100.20669	0.44307
2098.27812	0.44169
2096.34956	0.44033
2094.42100	0.43898
2092.49243	0.43759
2090.56387	0.43609
2088.63530	0.43446
2086.70674	0.43280
2084.77817	0.43110
2082.84961	0.42925
2080.92104	0.42728
2078.99248	0.42540
2077.06392	0.42356
2075.13535	0.42155
2073.20679	0.41937
2071.27822	0.41716
2069.34966	0.41497
2067.42109	0.41284
2065.49253	0.41081
2063.56396	0.40869
2061.63540	0.40630
2059.70684	0.40381
2057.77827	0.40137
2055.84971	0.39894
2053.92114	0.39643
2051.99258	0.39388
2050.06401	0.39130
2048.13545	0.38860
2046.20688	0.38589
2044.27832	0.38342
2042.34976	0.38105
2040.42119	0.37850
2038.49263	0.37578
2036.56406	0.37308
2034.63550	0.37045
2032.70693	0.36773
2030.77837	0.36488
2028.84980	0.36206
2026.92124	0.35936
2024.99268	0.35667
2023.06411	0.35405
2021.13555	0.35155
2019.20698	0.34917
2017.27842	0.34673
2015.34985	0.34393
2013.42129	0.34091
2011.49272	0.33799
2009.56416	0.33523
2007.63560	0.33255
2005.70703	0.32982
2003.77847	0.32706
2001.84990	0.32440
1999.92134	0.32186
1997.99277	0.31935
1996.06421	0.31688
1994.13564	0.31470
1992.20708	0.31269
1990.27852	0.31028
1988.34995	0.30756
1986.42139	0.30492
1984.49282	0.30240
1982.56426	0.29993
1980.63569	0.29751
1978.70713	0.29519
1976.77856	0.29290
1974.85000	0.29062
1972.92144	0.28839
1970.99287	0.28628
1969.06431	0.28449
1967.13574	0.28288
1965.20718	0.28078
1963.27861	0.27838
1961.35005	0.27633
1959.42148	0.27455
1957.49292	0.27275
1955.56436	0.27090
1953.63579	0.26907
1951.70723	0.26728
1949.77866	0.26561
1947.85010	0.26409
1945.92153	0.26281
1943.99297	0.26179
1942.06440	0.26057
1940.13584	0.25864
1938.20728	0.25663
1936.27871	0.25510
1934.35015	0.25382
1932.42158	0.25262
1930.49302	0.25138
1928.56445	0.25013
1926.63589	0.24909
1924.70732	0.24854
1922.77876	0.24816
1920.85020	0.24733
1918.92163	0.24633
1916.99307	0.24522
1915.06450	0.24369
1913.13594	0.24243
1911.20737	0.24196
1909.27881	0.24165
1907.35024	0.24089
1905.42168	0.23989
1903.49312	0.23908
1901.56455	0.23841
1899.63599	0.23780
1897.70742	0.23740
1895.77886	0.23725
1893.85029	0.23700
1891.92173	0.23673
1889.99316	0.23683
1888.06460	0.23660
1886.13604	0.23584
1884.20747	0.23523
1882.27891	0.23487
1880.35034	0.23470
1878.42178	0.23465
1876.49321	0.23454
1874.56465	0.23443
1872.63608	0.23479
1870.70752	0.23598
1868.77896	0.23770
1866.85039	0.23803
1864.92183	0.23678
1862.99326	0.23589
1861.06470	0.23591
1859.13613	0.23626
1857.20757	0.23645
1855.27900	0.23672
1853.35044	0.23715
1851.42187	0.23771
1849.49331	0.23852
1847.56475	0.23978
1845.63618	0.24147
1843.70762	0.24298
1841.77905	0.24311
1839.85049	0.24268
1837.92192	0.24311
1835.99336	0.24395
1834.06479	0.24482
1832.13623	0.24624
1830.20767	0.24864
1828.27910	0.25051
1826.35054	0.25113
1824.42197	0.25193
1822.49341	0.25265
1820.56484	0.25333
1818.63628	0.25447
1816.70771	0.25603
1814.77915	0.25772
1812.85059	0.25992
1810.92202	0.26253
1808.99346	0.26448
1807.06489	0.26580
1805.13633	0.26737
1803.20776	0.26983
1801.27920	0.27303
1799.35063	0.27616
1797.42207	0.27852
1795.49351	0.28098
1793.56494	0.28440
1791.63638	0.28840
1789.70781	0.29088
1787.77925	0.29236
1785.85068	0.29515
1783.92212	0.29900
1781.99355	0.30318
1780.06499	0.30753
1778.13643	0.31164
1776.20786	0.31566
1774.27930	0.32082
1772.35073	0.32796
1770.42217	0.33438
1768.49360	0.33853
1766.56504	0.34240
1764.63647	0.34702
1762.70791	0.35312
1760.77935	0.36093
1758.85078	0.36780
1756.92222	0.37464
1754.99365	0.38206
1753.06509	0.38912
1751.13652	0.39855
1749.20796	0.41049
1747.27939	0.42106
1745.35083	0.42946
1743.42227	0.43842
1741.49370	0.44881
1739.56514	0.46132
1737.63657	0.47363
1735.70801	0.48478
1733.77944	0.50200
1731.85088	0.52109
1729.92231	0.53501
1727.99375	0.54938
1726.06519	0.56553
1724.13662	0.58381
1722.20806	0.60375
1720.27949	0.62263
1718.35093	0.64576
1716.42236	0.67911
1714.49380	0.70851
1712.56523	0.73126
1710.63667	0.75396
1708.70811	0.77950
1706.77954	0.80953
1704.85098	0.84552
1702.92241	0.87720
1700.99385	0.90895
1699.06528	0.95680
1697.13672	1.00019
1695.20815	1.04320
1693.27959	1.08450
1691.35103	1.11874
1689.42246	1.16004
1687.49390	1.20445
1685.56533	1.24787
1683.63677	1.31406
1681.70820	1.38059
1679.77964	1.42213
1677.85107	1.46236
1675.92251	1.50982
1673.99395	1.56954
1672.06538	1.62370
1670.13682	1.67747
1668.20825	1.74582
1666.27969	1.80076
1664.35112	1.84904
1662.42256	1.91177
1660.49399	1.98241
1658.56543	2.03703
1656.63687	2.08161
1654.70830	2.12329
1652.77974	2.18592
1650.85117	2.24221
1648.92261	2.26345
1646.99404	2.29227
1645.06548	2.31903
1643.13691	2.33283
1641.20835	2.33998
1639.27979	2.34747
1637.35122	2.35281
1635.42266	2.35205
1633.49409	2.34222
1631.56553	2.32665
1629.63696	2.30852
1627.70840	2.27875
1625.77983	2.24369
1623.85127	2.19953
1621.92271	2.14514
1619.99414	2.09736
1618.06558	2.05261
1616.13701	1.98808
1614.20845	1.91895
1612.27988	1.86497
1610.35132	1.81030
1608.42275	1.75257
1606.49419	1.69579
1604.56562	1.64309
1602.63706	1.59224
1600.70850	1.54311
1598.77993	1.49836
1596.85137	1.45636
1594.92280	1.41543
1592.99424	1.37611
1591.06567	1.34075
1589.13711	1.30800
1587.20854	1.27729
1585.27998	1.24917
1583.35142	1.22365
1581.42285	1.20068
1579.49429	1.18143
1577.56572	1.16533
1575.63716	1.14614
1573.70859	1.12812
1571.78003	1.11682
1569.85146	1.10695
1567.92290	1.09598
1565.99434	1.08767
1564.06577	1.08256
1562.13721	1.07981
1560.20864	1.08082
1558.28008	1.08652
1556.35151	1.08886
1554.42295	1.08878
1552.49438	1.08958
1550.56582	1.08965
1548.63726	1.08745
1546.70869	1.08302
1544.78013	1.07652
1542.85156	1.06733
1540.92300	1.05165
1538.99443	1.02203
1537.06587	0.99783
1535.13730	0.98241
1533.20874	0.96309
1531.28018	0.94140
1529.35161	0.92557
1527.42305	0.91190
1525.49448	0.89829
1523.56592	0.88691
1521.63735	0.87608
1519.70879	0.86374
1517.78022	0.85279
1515.85166	0.84026
1513.92310	0.82651
1511.99453	0.81513
1510.06597	0.80642
1508.13740	0.79917
1506.20884	0.78447
1504.28027	0.76779
1502.35171	0.75836
1500.42314	0.75173
1498.49458	0.74559
1496.56602	0.73786
1494.63745	0.72916
1492.70889	0.72277
1490.78032	0.71847
1488.85176	0.71322
1486.92319	0.70619
1484.99463	0.69981
1483.06606	0.69525
1481.13750	0.69207
1479.20894	0.68988
1477.28037	0.68902
1475.35181	0.68952
1473.42324	0.69057
1471.49468	0.68948
1469.56611	0.68589
1467.63755	0.68284
1465.70898	0.68114
1463.78042	0.67957
1461.85186	0.67824
1459.92329	0.67889
1457.99473	0.68163
1456.06616	0.68231
1454.13760	0.67851
1452.20903	0.67475
1450.28047	0.67198
1448.35190	0.66982
1446.42334	0.66720
1444.49478	0.66418
1442.56621	0.66144
1440.63765	0.65890
1438.70908	0.65680
1436.78052	0.65453
1434.85195	0.65079
1432.92339	0.64713
1430.99482	0.64496
1429.06626	0.64381
1427.13770	0.64310
1425.20913	0.64335
1423.28057	0.64439
1421.35200	0.64525
1419.42344	0.64619
1417.49487	0.64625
1415.56631	0.64446
1413.63774	0.64296
1411.70918	0.64284
1409.78062	0.64390
1407.85205	0.64567
1405.92349	0.64796
1403.99492	0.64988
1402.06636	0.65053
1400.13779	0.65056
1398.20923	0.64999
1396.28066	0.64814
1394.35210	0.64438
1392.42354	0.63923
1390.49497	0.63459
1388.56641	0.63063
1386.63784	0.62586
1384.70928	0.62013
1382.78071	0.61477
1380.85215	0.61019
1378.92358	0.60636
1376.99502	0.60352
1375.06646	0.60180
1373.13789	0.60029
1371.20933	0.59859
1369.28076	0.59735
1367.35220	0.59617
1365.42363	0.59476
1363.49507	0.59366
1361.56650	0.59235
1359.63794	0.59030
1357.70937	0.58846
1355.78081	0.58721
1353.85225	0.58628
1351.92368	0.58554
1349.99512	0.58500
1348.06655	0.58454
1346.13799	0.58391
1344.20942	0.58321
1342.28086	0.58291
1340.35229	0.58312
1338.42373	0.58284
1336.49517	0.58175
1334.56660	0.58080
1332.63804	0.58042
1330.70947	0.58051
1328.78091	0.58096
1326.85234	0.58153
1324.92378	0.58215
1322.99521	0.58297
1321.06665	0.58394
1319.13809	0.58481
1317.20952	0.58520
1315.28096	0.58514
1313.35239	0.58491
1311.42383	0.58439
1309.49526	0.58365
1307.56670	0.58309
1305.63813	0.58282
1303.70957	0.58262
1301.78101	0.58228
1299.85244	0.58164
1297.92388	0.58074
1295.99531	0.57962
1294.06675	0.57843
1292.13818	0.57741
1290.20962	0.57636
1288.28105	0.57509
1286.35249	0.57380
1284.42393	0.57258
1282.49536	0.57125
1280.56680	0.56981
1278.63823	0.56848
1276.70967	0.56739
1274.78110	0.56646
1272.85254	0.56563
1270.92397	0.56493
1268.99541	0.56426
1267.06685	0.56350
1265.13828	0.56266
1263.20972	0.56187
1261.28115	0.56118
1259.35259	0.56041
1257.42402	0.55952
1255.49546	0.55892
1253.56689	0.55888
1251.63833	0.55924
1249.70977	0.55962
1247.78120	0.55971
1245.85264	0.55948
1243.92407	0.55901
1241.99551	0.55819
1240.06694	0.55679
1238.13838	0.55499
1236.20981	0.55302
1234.28125	0.55086
1232.35269	0.54861
1230.42412	0.54656
1228.49556	0.54475
1226.56699	0.54305
1224.63843	0.54144
1222.70986	0.53989
1220.78130	0.53836
1218.85273	0.53686
1216.92417	0.53562
1214.99561	0.53465
1213.06704	0.53370
1211.13848	0.53290
1209.20991	0.53229
1207.28135	0.53156
1205.35278	0.53059
1203.42422	0.52952
1201.49565	0.52851
1199.56709	0.52762
1197.63853	0.52689
1195.70996	0.52632
1193.78140	0.52595
1191.85283	0.52570
1189.92427	0.52545
1187.99570	0.52525
1186.06714	0.52514
1184.13857	0.52520
1182.21001	0.52554
1180.28145	0.52636
1178.35288	0.52757
1176.42432	0.52865
1174.49575	0.52936
1172.56719	0.52982
1170.63862	0.52989
1168.71006	0.52950
1166.78149	0.52894
1164.85293	0.52839
1162.92437	0.52783
1160.99580	0.52718
1159.06724	0.52631
1157.13867	0.52524
1155.21011	0.52406
1153.28154	0.52269
1151.35298	0.52106
1149.42441	0.51903
1147.49585	0.51668
1145.56729	0.51434
1143.63872	0.51208
1141.71016	0.50991
1139.78159	0.50800
1137.85303	0.50650
1135.92446	0.50517
1133.99590	0.50378
1132.06733	0.50258
1130.13877	0.50175
1128.21021	0.50102
1126.28164	0.50003
1124.35308	0.49892
1122.42451	0.49813
1120.49595	0.49761
1118.56738	0.49717
1116.63882	0.49694
1114.71025	0.49698
1112.78169	0.49718
1110.85312	0.49759
1108.92456	0.49813
1106.99600	0.49883
1105.06743	0.49988
1103.13887	0.50134
1101.21030	0.50318
1099.28174	0.50532
1097.35317	0.50775
1095.42461	0.51058
1093.49604	0.51386
1091.56748	0.51768
1089.63892	0.52223
1087.71035	0.52749
1085.78179	0.53330
1083.85322	0.53930
1081.92466	0.54512
1079.99609	0.55022
1078.06753	0.55357
1076.13896	0.55416
1074.21040	0.55187
1072.28184	0.54734
1070.35327	0.54138
1068.42471	0.53482
1066.49614	0.52845
1064.56758	0.52235
1062.63901	0.51642
1060.71045	0.51098
1058.78188	0.50618
1056.85332	0.50207
1054.92476	0.49868
1052.99619	0.49576
1051.06763	0.49304
1049.13906	0.49045
1047.21050	0.48803
1045.28193	0.48588
1043.35337	0.48402
1041.42480	0.48252
1039.49624	0.48147
1037.56768	0.48071
1035.63911	0.48014
1033.71055	0.47982
1031.78198	0.47969
1029.85342	0.47965
1027.92485	0.47974
1025.99629	0.47992
1024.06772	0.48021
1022.13916	0.48069
1020.21060	0.48139
1018.28203	0.48226
1016.35347	0.48329
1014.42490	0.48438
1012.49634	0.48552
1010.56777	0.48679
1008.63921	0.48821
1006.71064	0.48969
1004.78208	0.49140
1002.85352	0.49362
1000.92495	0.49636
998.99639	0.49956
997.06782	0.50329
995.13926	0.50743
993.21069	0.51153
991.28213	0.51525
989.35356	0.51828
987.42500	0.52031
985.49644	0.52147
983.56787	0.52230
981.63931	0.52315
979.71074	0.52430
977.78218	0.52588
975.85361	0.52792
973.92505	0.53056
971.99648	0.53368
970.06792	0.53697
968.13936	0.54053
966.21079	0.54452
964.28223	0.54881
962.35366	0.55347
960.42510	0.55869
958.49653	0.56422
956.56797	0.56988
954.63940	0.57584
952.71084	0.58208
950.78228	0.58833
948.85371	0.59464
946.92515	0.60102
944.99658	0.60703
943.06802	0.61261
941.13945	0.61838
939.21089	0.62468
937.28232	0.63124
935.35376	0.63788
933.42520	0.64391
931.49663	0.64893
929.56807	0.65377
927.63950	0.65891
925.71094	0.66447
923.78237	0.67079
921.85381	0.67751
919.92524	0.68421
917.99668	0.69106
916.06812	0.69799
914.13955	0.70496
912.21099	0.71224
910.28242	0.71982
908.35386	0.72772
906.42529	0.73642
904.49673	0.74623
902.56816	0.75587
900.63960	0.76392
898.71104	0.77191
896.78247	0.78219
894.85391	0.79357
892.92534	0.80322
890.99678	0.81126
889.06821	0.82075
887.13965	0.83252
885.21108	0.84448
883.28252	0.85608
881.35396	0.86727
879.42539	0.87800
877.49683	0.88942
875.56826	0.90191
873.63970	0.91409
871.71113	0.92487
869.78257	0.93502
867.85400	0.94563
865.92544	0.95656
863.99687	0.96700
862.06831	0.97813
860.13975	0.99188
858.21118	1.00584
856.28262	1.01610
854.35405	1.02534
852.42549	1.03693
850.49692	1.04847
848.56836	1.05916
846.63979	1.07112
844.71123	1.08411
842.78267	1.09700
840.85410	1.10942
838.92554	1.12130
836.99697	1.13454
835.06841	1.14863
833.13984	1.15988
831.21128	1.16953
829.28271	1.18091
827.35415	1.19206
825.42559	1.20005
823.49702	1.21146
821.56846	1.22566
819.63989	1.23124
817.71133	1.23685
815.78276	1.25446
813.85420	1.27191
811.92563	1.27648
809.99707	1.28589
808.06851	1.31341
806.13994	1.34623
804.21138	1.37027
802.28281	1.37199
800.35425	1.37423
798.42568	1.40455
796.49712	1.42179
794.56855	1.40897
792.63999	1.41931
790.71143	1.45923
788.78286	1.48900
786.85430	1.49352
784.92573	1.50308
782.99717	1.55074
781.06860	1.58142
779.14004	1.52235
777.21147	1.49457
775.28291	1.60509
773.35435	1.86531
771.42578	1.92960
769.49722	1.63846
767.56865	1.46216
765.64009	1.42987
763.71152	1.52573
761.78296	1.55802
759.85439	1.53576
757.92583	1.62183
755.99727	1.68350
754.06870	1.68514
752.14014	1.58555
750.21157	1.42362
748.28301	1.27224
746.35444	1.16907
744.42588	1.11305
742.49731	1.05969
740.56875	1.05760
738.64019	1.05842
736.71162	0.90858
734.78306	0.82833
732.85449	0.89199
730.92593	0.91736
728.99736	0.78425
727.06880	0.67278
725.14023	0.53718
723.21167	0.31619
721.28311	0.13846
719.35454	0.16651
717.42598	0.43950
715.49741	0.44642
713.56885	0.24616
711.64028	0.16508
709.71172	0.17857
707.78315	0.29900
705.85459	0.49019
703.92603	0.67915
701.99746	0.80304
700.06890	0.67909
698.14033	0.48380
696.21177	0.31536
694.28320	0.21669
692.35464	0.26473
690.42607	0.41834
688.49751	0.51759
686.56895	0.39955
684.64038	0.25135
682.71182	0.19168
680.78325	0.20968
678.85469	0.23366
676.92612	0.25544
674.99756	0.32284
673.06899	0.35816
671.14043	0.28917
669.21187	0.26485
667.28330	0.30613
665.35474	0.37746
663.42617	0.39227
661.49761	0.32303
659.56904	0.25124
657.64048	0.22813
655.71191	0.24249
653.78335	0.22980
651.85479	0.17613
649.92622	0.17216
647.99766	0.22909
646.06909	0.26733
644.14053	0.32534
642.21196	0.48661
640.28340	0.49223
638.35483	0.38438
636.42627	0.31519
634.49771	0.28210
632.56914	0.28331
630.64058	0.27131
628.71201	0.24693
626.78345	0.30965
624.85488	0.53967
622.92632	0.88162
620.99775	0.63320
619.06919	0.34078
617.14062	0.21060
615.21206	0.18906
613.28350	0.17803
611.35493	0.20350
609.42637	0.40082
607.49780	0.67066
605.56924	0.42873
603.64067	0.29310
601.71211	0.35761
599.78354	0.48241
597.85498	0.39762
595.92642	0.24447
593.99785	0.21743
592.06929	0.29106
590.14072	0.31134
588.21216	0.25699
586.28359	0.23536
584.35503	0.27485
582.42646	0.32123
580.49790	0.31157
578.56934	0.34172
576.64077	0.43622
574.71221	0.48282
572.78364	0.60471
570.85508	0.87545
568.92651	0.47660
566.99795	0.22615
565.06938	0.15336
563.14082	0.15896
561.21226	0.25226
559.28369	0.45436
557.35513	0.60106
555.42656	0.41213
553.49800	0.26683
551.56943	0.20539
549.64087	0.17923
547.71230	0.19113
545.78374	0.22565
543.85518	0.27303
541.92661	0.30111
539.99805	0.26335
538.06948	0.21397
536.14092	0.22655
534.21235	0.29356
532.28379	0.34298
530.35522	0.36766
528.42666	0.44282
526.49810	0.52963
524.56953	0.45702
522.64097	0.36975
520.71240	0.33631
518.78384	0.26345
516.85527	0.16318
514.92671	0.12587
512.99814	0.18582
511.06958	0.30486
509.14102	0.41513
507.21245	0.42439
505.28389	0.41859
503.35532	0.42702
501.42676	0.31394
499.49819	0.21900
