3997.91411	0.06907
3995.98555	0.06933
3994.05698	0.06967
3992.12842	0.07062
3990.19985	0.07142
3988.27129	0.07150
3986.34272	0.07132
3984.41416	0.07132
3982.48560	0.07164
3980.55703	0.07207
3978.62847	0.07232
3976.69990	0.07269
3974.77134	0.07330
3972.84277	0.07351
3970.91421	0.07329
3968.98564	0.07319
3967.05708	0.07325
3965.12852	0.07334
3963.19995	0.07329
3961.27139	0.07320
3959.34282	0.07368
3957.41426	0.07442
3955.48569	0.07449
3953.55713	0.07409
3951.62856	0.07417
3949.70000	0.07496
3947.77144	0.07572
3945.84287	0.07553
3943.91431	0.07500
3941.98574	0.07492
3940.05718	0.07459
3938.12861	0.07405
3936.20005	0.07400
3934.27148	0.07443
3932.34292	0.07505
3930.41436	0.07555
3928.48579	0.07559
3926.55723	0.07531
3924.62866	0.07538
3922.70010	0.07562
3920.77153	0.07548
3918.84297	0.07551
3916.91440	0.07564
3914.98584	0.07488
3913.05728	0.07367
3911.12871	0.07311
3909.20015	0.07318
3907.27158	0.07369
3905.34302	0.07520
3903.41445	0.07760
3901.48589	0.07882
3899.55732	0.07814
3897.62876	0.07684
3895.70020	0.07555
3893.77163	0.07523
3891.84307	0.07634
3889.91450	0.07703
3887.98594	0.07623
3886.05737	0.07593
3884.12881	0.07664
3882.20024	0.07725
3880.27168	0.07732
3878.34312	0.07626
3876.41455	0.07523
3874.48599	0.07625
3872.55742	0.07854
3870.62886	0.08014
3868.70029	0.08045
3866.77173	0.07985
3864.84316	0.07998
3862.91460	0.08038
3860.98604	0.07955
3859.05747	0.07906
3857.12891	0.07997
3855.20034	0.08190
3853.27178	0.08484
3851.34321	0.08659
3849.41465	0.08460
3847.48608	0.08202
3845.55752	0.08098
3843.62896	0.08183
3841.70039	0.08390
3839.77183	0.08678
3837.84326	0.08953
3835.91470	0.08980
3833.98613	0.08873
3832.05757	0.08824
3830.12900	0.08771
3828.20044	0.08737
3826.27187	0.08813
3824.34331	0.08939
3822.41475	0.09103
3820.48618	0.09396
3818.55762	0.09582
3816.62905	0.09579
3814.70049	0.09529
3812.77192	0.09411
3810.84336	0.09372
3808.91479	0.09506
3806.98623	0.09752
3805.05767	0.09963
3803.12910	0.10115
3801.20054	0.10345
3799.27197	0.10538
3797.34341	0.10573
3795.41484	0.10533
3793.48628	0.10448
3791.55771	0.10445
3789.62915	0.10564
3787.70059	0.10734
3785.77202	0.10942
3783.84346	0.11156
3781.91489	0.11310
3779.98633	0.11467
3778.05776	0.11648
3776.12920	0.11739
3774.20063	0.11794
3772.27207	0.11947
3770.34351	0.12226
3768.41494	0.12517
3766.48638	0.12730
3764.55781	0.12936
3762.62925	0.13116
3760.70068	0.13328
3758.77212	0.13670
3756.84355	0.13961
3754.91499	0.14123
3752.98643	0.14389
3751.05786	0.14895
3749.12930	0.15444
3747.20073	0.15701
3745.27217	0.15867
3743.34360	0.16157
3741.41504	0.16431
3739.48647	0.16654
3737.55791	0.16990
3735.62935	0.17523
3733.70078	0.18134
3731.77222	0.18562
3729.84365	0.18833
3727.91509	0.19125
3725.98652	0.19596
3724.05796	0.20254
3722.12939	0.20988
3720.20083	0.21756
3718.27227	0.22508
3716.34370	0.23242
3714.41514	0.24008
3712.48657	0.24987
3710.55801	0.26431
3708.62944	0.27944
3706.70088	0.29043
3704.77231	0.30030
3702.84375	0.31259
3700.91519	0.32945
3698.98662	0.34801
3697.05806	0.36559
3695.12949	0.38468
3693.20093	0.40550
3691.27236	0.42870
3689.34380	0.45855
3687.41523	0.49382
3685.48667	0.52365
3683.55811	0.54915
3681.62954	0.57716
3679.70098	0.60980
3677.77241	0.64476
3675.84385	0.68584
3673.91528	0.74030
3671.98672	0.78397
3670.05815	0.82229
3668.12959	0.87579
3666.20103	0.92450
3664.27246	0.96448
3662.34390	1.00783
3660.41533	1.05569
3658.48677	1.10331
3656.55820	1.15386
3654.62964	1.21014
3652.70107	1.25713
3650.77251	1.29765
3648.84395	1.35479
3646.91538	1.42597
3644.98682	1.47699
3643.05825	1.51575
3641.12969	1.55562
3639.20112	1.59927
3637.27256	1.64308
3635.34399	1.68589
3633.41543	1.72943
3631.48687	1.77106
3629.55830	1.81334
3627.62974	1.86880
3625.70117	1.91998
3623.77261	1.95270
3621.84404	1.98414
3619.91548	2.02243
3617.98691	2.07062
3616.05835	2.11684
3614.12979	2.15484
3612.20122	2.19532
3610.27266	2.23561
3608.34409	2.27456
3606.41553	2.31584
3604.48696	2.35456
3602.55840	2.38932
3600.62983	2.42689
3598.70127	2.46771
3596.77271	2.50802
3594.84414	2.55013
3592.91558	2.59398
3590.98701	2.63350
3589.05845	2.66882
3587.12988	2.71325
3585.20132	2.76458
3583.27275	2.80508
3581.34419	2.83993
3579.41562	2.87943
3577.48706	2.92359
3575.55850	2.96741
3573.62993	3.01015
3571.70137	3.05142
3569.77280	3.09156
3567.84424	3.13611
3565.91567	3.19298
3563.98711	3.24454
3562.05854	3.28099
3560.12998	3.31844
3558.20142	3.36176
3556.27285	3.40649
3554.34429	3.45101
3552.41572	3.49851
3550.48716	3.54790
3548.55859	3.59660
3546.63003	3.64478
3544.70146	3.69277
3542.77290	3.73714
3540.84434	3.77825
3538.91577	3.82202
3536.98721	3.86943
3535.05864	3.91913
3533.13008	3.96790
3531.20151	4.01535
3529.27295	4.06282
3527.34438	4.11208
3525.41582	4.16155
3523.48726	4.20722
3521.55869	4.25200
3519.63013	4.29904
3517.70156	4.34773
3515.77300	4.39604
3513.84443	4.44462
3511.91587	4.49453
3509.98730	4.54727
3508.05874	4.59850
3506.13018	4.63866
3504.20161	4.67523
3502.27305	4.72434
3500.34448	4.78253
3498.41592	4.83476
3496.48735	4.88149
3494.55879	4.92952
3492.63022	4.97830
3490.70166	5.02294
3488.77310	5.06486
3486.84453	5.11254
3484.91597	5.16682
3482.98740	5.21925
3481.05884	5.26770
3479.13027	5.31423
3477.20171	5.36411
3475.27314	5.42077
3473.34458	5.47640
3471.41602	5.52553
3469.48745	5.57254
3467.55889	5.61966
3465.63032	5.66243
3463.70176	5.70042
3461.77319	5.73615
3459.84463	5.77724
3457.91606	5.82769
3455.98750	5.88147
3454.05894	5.93581
3452.13037	5.99260
3450.20181	6.04706
3448.27324	6.08773
3446.34468	6.12192
3444.41611	6.16675
3442.48755	6.22639
3440.55898	6.28455
3438.63042	6.33051
3436.70186	6.37038
3434.77329	6.40328
3432.84473	6.43189
3430.91616	6.47730
3428.98760	6.55240
3427.05903	6.62787
3425.13047	6.68072
3423.20190	6.71844
3421.27334	6.76571
3419.34478	6.82452
3417.41621	6.86810
3415.48765	6.90035
3413.55908	6.93657
3411.63052	6.97119
3409.70195	7.00274
3407.77339	7.06068
3405.84482	7.13407
3403.91626	7.19076
3401.98770	7.20661
3400.05913	7.20562
3398.13057	7.24509
3396.20200	7.29032
3394.27344	7.31725
3392.34487	7.34290
3390.41631	7.36212
3388.48774	7.39663
3386.55918	7.47348
3384.63062	7.55594
3382.70205	7.60049
3380.77349	7.61461
3378.84492	7.65164
3376.91636	7.74123
3374.98779	7.81589
3373.05923	7.84940
3371.13066	7.85671
3369.20210	7.84868
3367.27354	7.86951
3365.34497	7.92707
3363.41641	7.92179
3361.48784	7.86317
3359.55928	7.85159
3357.63071	7.85956
3355.70215	7.89944
3353.77358	7.95759
3351.84502	7.96195
3349.91646	7.93557
3347.98789	7.98622
3346.05933	8.11953
3344.13076	8.16924
3342.20220	8.13504
3340.27363	8.13383
3338.34507	8.12682
3336.41650	8.09277
3334.48794	8.12479
3332.55937	8.18383
3330.63081	8.16735
3328.70225	8.10205
3326.77368	8.07568
3324.84512	8.11049
3322.91655	8.15713
3320.98799	8.19206
3319.05942	8.16906
3317.13086	8.09350
3315.20229	8.01358
3313.27373	7.99971
3311.34517	8.09379
3309.41660	8.19734
3307.48804	8.21057
3305.55947	8.22053
3303.63091	8.27760
3301.70234	8.22964
3299.77378	8.11716
3297.84521	8.09003
3295.91665	8.16136
3293.98809	8.23851
3292.05952	8.20266
3290.13096	8.19610
3288.20239	8.32135
3286.27383	8.32378
3284.34526	8.15524
3282.41670	8.06094
3280.48813	8.06069
3278.55957	8.11954
3276.63101	8.15522
3274.70244	8.06396
3272.77388	7.98856
3270.84531	8.00753
3268.91675	7.99334
3266.98818	7.93334
3265.05962	7.93215
3263.13105	7.95626
3261.20249	7.97558
3259.27393	8.01055
3257.34536	8.03563
3255.41680	8.08826
3253.48823	8.21200
3251.55967	8.35107
3249.63110	8.36931
3247.70254	8.22855
3245.77397	8.08326
3243.84541	8.03010
3241.91685	8.01279
3239.98828	8.01523
3238.05972	8.06629
3236.13115	8.08572
3234.20259	8.03277
3232.27402	7.97787
3230.34546	7.95139
3228.41689	7.95388
3226.48833	7.97007
3224.55977	7.97107
3222.63120	7.96456
3220.70264	7.97615
3218.77407	7.97825
3216.84551	7.90782
3214.91694	7.83120
3212.98838	7.84018
3211.05981	7.86805
3209.13125	7.83489
3207.20269	7.77590
3205.27412	7.75147
3203.34556	7.79201
3201.41699	7.83790
3199.48843	7.79261
3197.55986	7.67043
3195.63130	7.56375
3193.70273	7.52192
3191.77417	7.49659
3189.84561	7.45694
3187.91704	7.41304
3185.98848	7.34705
3184.05991	7.27481
3182.13135	7.22977
3180.20278	7.20667
3178.27422	7.17346
3176.34565	7.12471
3174.41709	7.06849
3172.48853	6.99185
3170.55996	6.89931
3168.63140	6.82630
3166.70283	6.79026
3164.77427	6.75710
3162.84570	6.69892
3160.91714	6.63831
3158.98857	6.59031
3157.06001	6.53499
3155.13145	6.45680
3153.20288	6.37027
3151.27432	6.29459
3149.34575	6.22189
3147.41719	6.15102
3145.48862	6.08397
3143.56006	6.00912
3141.63149	5.93610
3139.70293	5.87388
3137.77437	5.81055
3135.84580	5.74152
3133.91724	5.67851
3131.98867	5.61310
3130.06011	5.53586
3128.13154	5.46449
3126.20298	5.40005
3124.27441	5.33139
3122.34585	5.25994
3120.41729	5.19124
3118.48872	5.12524
3116.56016	5.05877
3114.63159	4.98721
3112.70303	4.90898
3110.77446	4.83188
3108.84590	4.76250
3106.91733	4.69971
3104.98877	4.63794
3103.06021	4.57562
3101.13164	4.51263
3099.20308	4.44793
3097.27451	4.38276
3095.34595	4.31625
3093.41738	4.24850
3091.48882	4.18330
3089.56025	4.12279
3087.63169	4.06355
3085.70312	4.00247
3083.77456	3.94111
3081.84600	3.88018
3079.91743	3.81964
3077.98887	3.76083
3076.06030	3.70310
3074.13174	3.64633
3072.20317	3.59113
3070.27461	3.53541
3068.34604	3.47825
3066.41748	3.42139
3064.48892	3.36656
3062.56035	3.31264
3060.63179	3.25869
3058.70322	3.20611
3056.77466	3.15414
3054.84609	3.10208
3052.91753	3.05086
3050.98896	2.99995
3049.06040	2.94955
3047.13184	2.90124
3045.20327	2.85453
3043.27471	2.80799
3041.34614	2.76121
3039.41758	2.71386
3037.48901	2.66672
3035.56045	2.62099
3033.63188	2.57599
3031.70332	2.53133
3029.77476	2.48832
3027.84619	2.44670
3025.91763	2.40444
3023.98906	2.36165
3022.06050	2.32002
3020.13193	2.27993
3018.20337	2.24084
3016.27480	2.20222
3014.34624	2.16370
3012.41768	2.12528
3010.48911	2.08738
3008.56055	2.05080
3006.63198	2.01541
3004.70342	1.98049
3002.77485	1.94615
3000.84629	1.91274
2998.91772	1.88016
2996.98916	1.84811
2995.06060	1.81633
2993.13203	1.78478
2991.20347	1.75403
2989.27490	1.72447
2987.34634	1.69566
2985.41777	1.66714
2983.48921	1.63875
2981.56064	1.61076
2979.63208	1.58350
2977.70352	1.55693
2975.77495	1.53065
2973.84639	1.50439
2971.91782	1.47857
2969.98926	1.45353
2968.06069	1.42891
2966.13213	1.40446
2964.20356	1.38030
2962.27500	1.35622
2960.34644	1.33177
2958.41787	1.30721
2956.48931	1.28320
2954.56074	1.25989
2952.63218	1.23706
2950.70361	1.21469
2948.77505	1.19268
2946.84648	1.17074
2944.91792	1.14878
2942.98936	1.12698
2941.06079	1.10550
2939.13223	1.08425
2937.20366	1.06307
2935.27510	1.04163
2933.34653	1.01977
2931.41797	0.99815
2929.48940	0.97718
2927.56084	0.95651
2925.63228	0.93659
2923.70371	0.91806
2921.77515	0.90083
2919.84658	0.88539
2917.91802	0.87165
2915.98945	0.85834
2914.06089	0.84503
2912.13232	0.83218
2910.20376	0.81965
2908.27520	0.80703
2906.34663	0.79438
2904.41807	0.78158
2902.48950	0.76877
2900.56094	0.75632
2898.63237	0.74411
2896.70381	0.73209
2894.77524	0.72044
2892.84668	0.70917
2890.91812	0.69818
2888.98955	0.68751
2887.06099	0.67719
2885.13242	0.66717
2883.20386	0.65729
2881.27529	0.64749
2879.34673	0.63772
2877.41816	0.62779
2875.48960	0.61768
2873.56104	0.60748
2871.63247	0.59711
2869.70391	0.58625
2867.77534	0.57497
2865.84678	0.56339
2863.91821	0.55156
2861.98965	0.53965
2860.06108	0.52774
2858.13252	0.51595
2856.20396	0.50462
2854.27539	0.49434
2852.34683	0.48552
2850.41826	0.47809
2848.48970	0.47172
2846.56113	0.46611
2844.63257	0.46111
2842.70400	0.45637
2840.77544	0.45156
2838.84687	0.44685
2836.91831	0.44212
2834.98975	0.43696
2833.06118	0.43136
2831.13262	0.42568
2829.20405	0.42016
2827.27549	0.41471
2825.34692	0.40911
2823.41836	0.40343
2821.48979	0.39777
2819.56123	0.39222
2817.63267	0.38673
2815.70410	0.38124
2813.77554	0.37597
2811.84697	0.37090
2809.91841	0.36572
2807.98984	0.36036
2806.06128	0.35502
2804.13271	0.34992
2802.20415	0.34501
2800.27559	0.34001
2798.34702	0.33506
2796.41846	0.33042
2794.48989	0.32602
2792.56133	0.32172
2790.63276	0.31743
2788.70420	0.31308
2786.77563	0.30881
2784.84707	0.30472
2782.91851	0.30066
2780.98994	0.29656
2779.06138	0.29251
2777.13281	0.28864
2775.20425	0.28508
2773.27568	0.28166
2771.34712	0.27809
2769.41855	0.27442
2767.48999	0.27077
2765.56143	0.26719
2763.63286	0.26376
2761.70430	0.26049
2759.77573	0.25735
2757.84717	0.25442
2755.91860	0.25153
2753.99004	0.24839
2752.06147	0.24524
2750.13291	0.24236
2748.20435	0.23955
2746.27578	0.23670
2744.34722	0.23397
2742.41865	0.23137
2740.49009	0.22878
2738.56152	0.22628
2736.63296	0.22389
2734.70439	0.22137
2732.77583	0.21870
2730.84727	0.21610
2728.91870	0.21376
2726.99014	0.21169
2725.06157	0.20968
2723.13301	0.20761
2721.20444	0.20548
2719.27588	0.20342
2717.34731	0.20157
2715.41875	0.19980
2713.49019	0.19803
2711.56162	0.19636
2709.63306	0.19469
2707.70449	0.19286
2705.77593	0.19101
2703.84736	0.18942
2701.91880	0.18801
2699.99023	0.18654
2698.06167	0.18513
2696.13311	0.18386
2694.20454	0.18253
2692.27598	0.18103
2690.34741	0.17953
2688.41885	0.17821
2686.49028	0.17706
2684.56172	0.17578
2682.63315	0.17437
2680.70459	0.17320
2678.77603	0.17227
2676.84746	0.17123
2674.91890	0.17000
2672.99033	0.16876
2671.06177	0.16771
2669.13320	0.16677
2667.20464	0.16576
2665.27607	0.16480
2663.34751	0.16393
2661.41895	0.16309
2659.49038	0.16244
2657.56182	0.16182
2655.63325	0.16093
2653.70469	0.15997
2651.77612	0.15919
2649.84756	0.15858
2647.91899	0.15800
2645.99043	0.15744
2644.06187	0.15692
2642.13330	0.15631
2640.20474	0.15565
2638.27617	0.15503
2636.34761	0.15440
2634.41904	0.15390
2632.49048	0.15355
2630.56191	0.15322
2628.63335	0.15291
2626.70479	0.15256
2624.77622	0.15218
2622.84766	0.15193
2620.91909	0.15180
2618.99053	0.15162
2617.06196	0.15136
2615.13340	0.15112
2613.20483	0.15091
2611.27627	0.15065
2609.34771	0.15042
2607.41914	0.15028
2605.49058	0.15013
2603.56201	0.14998
2601.63345	0.14995
2599.70488	0.15003
2597.77632	0.15005
2595.84775	0.14996
2593.91919	0.14996
2591.99062	0.15011
2590.06206	0.15025
2588.13350	0.15041
2586.20493	0.15064
2584.27637	0.15080
2582.34780	0.15090
2580.41924	0.15105
2578.49067	0.15131
2576.56211	0.15156
2574.63354	0.15183
2572.70498	0.15223
2570.77642	0.15263
2568.84785	0.15287
2566.91929	0.15312
2564.99072	0.15356
2563.06216	0.15401
2561.13359	0.15427
2559.20503	0.15447
2557.27646	0.15475
2555.34790	0.15522
2553.41934	0.15582
2551.49077	0.15640
2549.56221	0.15695
2547.63364	0.15753
2545.70508	0.15815
2543.77651	0.15877
2541.84795	0.15939
2539.91938	0.15997
2537.99082	0.16055
2536.06226	0.16112
2534.13369	0.16173
2532.20513	0.16244
2530.27656	0.16317
2528.34800	0.16373
2526.41943	0.16423
2524.49087	0.16488
2522.56230	0.16554
2520.63374	0.16615
2518.70518	0.16690
2516.77661	0.16780
2514.84805	0.16864
2512.91948	0.16930
2510.99092	0.16994
2509.06235	0.17069
2507.13379	0.17149
2505.20522	0.17219
2503.27666	0.17281
2501.34810	0.17349
2499.41953	0.17436
2497.49097	0.17531
2495.56240	0.17618
2493.63384	0.17702
2491.70527	0.17793
2489.77671	0.17872
2487.84814	0.17931
2485.91958	0.17994
2483.99102	0.18082
2482.06245	0.18190
2480.13389	0.18297
2478.20532	0.18389
2476.27676	0.18466
2474.34819	0.18546
2472.41963	0.18641
2470.49106	0.18737
2468.56250	0.18820
2466.63394	0.18899
2464.70537	0.18981
2462.77681	0.19066
2460.84824	0.19159
2458.91968	0.19260
2456.99111	0.19358
2455.06255	0.19451
2453.13398	0.19539
2451.20542	0.19619
2449.27686	0.19704
2447.34829	0.19804
2445.41973	0.19906
2443.49116	0.20004
2441.56260	0.20102
2439.63403	0.20200
2437.70547	0.20298
2435.77690	0.20397
2433.84834	0.20491
2431.91978	0.20589
2429.99121	0.20702
2428.06265	0.20810
2426.13408	0.20906
2424.20552	0.21009
2422.27695	0.21121
2420.34839	0.21226
2418.41982	0.21319
2416.49126	0.21411
2414.56270	0.21520
2412.63413	0.21647
2410.70557	0.21772
2408.77700	0.21890
2406.84844	0.22003
2404.91987	0.22117
2402.99131	0.22240
2401.06274	0.22362
2399.13418	0.22473
2397.20562	0.22590
2395.27705	0.22718
2393.34849	0.22845
2391.41992	0.22972
2389.49136	0.23090
2387.56279	0.23189
2385.63423	0.23277
2383.70566	0.23357
2381.77710	0.23423
2379.84854	0.23492
2377.91997	0.23574
2375.99141	0.23637
2374.06284	0.23675
2372.13428	0.23699
2370.20571	0.23700
2368.27715	0.23673
2366.34858	0.23664
2364.42002	0.23733
2362.49146	0.23889
2360.56289	0.24087
2358.63433	0.24265
2356.70576	0.24416
2354.77720	0.24605
2352.84863	0.24898
2350.92007	0.25229
2348.99150	0.25437
2347.06294	0.25498
2345.13437	0.25521
2343.20581	0.25642
2341.27725	0.25838
2339.34868	0.25984
2337.42012	0.26115
2335.49155	0.26333
2333.56299	0.26564
2331.63442	0.26719
2329.70586	0.26841
2327.77729	0.27014
2325.84873	0.27227
2323.92017	0.27440
2321.99160	0.27661
2320.06304	0.27874
2318.13447	0.28070
2316.20591	0.28297
2314.27734	0.28539
2312.34878	0.28743
2310.42021	0.28925
2308.49165	0.29127
2306.56309	0.29342
2304.63452	0.29543
2302.70596	0.29728
2300.77739	0.29916
2298.84883	0.30122
2296.92026	0.30331
2294.99170	0.30527
2293.06313	0.30733
2291.13457	0.30962
2289.20601	0.31186
2287.27744	0.31385
2285.34888	0.31571
2283.42031	0.31764
2281.49175	0.31966
2279.56318	0.32162
2277.63462	0.32353
2275.70605	0.32557
2273.77749	0.32774
2271.84893	0.32983
2269.92036	0.33177
2267.99180	0.33369
2266.06323	0.33577
2264.13467	0.33800
2262.20610	0.34016
2260.27754	0.34226
2258.34897	0.34437
2256.42041	0.34649
2254.49185	0.34861
2252.56328	0.35067
2250.63472	0.35270
2248.70615	0.35478
2246.77759	0.35697
2244.84902	0.35930
2242.92046	0.36161
2240.99189	0.36374
2239.06333	0.36579
2237.13477	0.36794
2235.20620	0.37012
2233.27764	0.37223
2231.34907	0.37431
2229.42051	0.37640
2227.49194	0.37857
2225.56338	0.38078
2223.63481	0.38297
2221.70625	0.38521
2219.77769	0.38743
2217.84912	0.38947
2215.92056	0.39149
2213.99199	0.39372
2212.06343	0.39604
2210.13486	0.39820
2208.20630	0.40030
2206.27773	0.40240
2204.34917	0.40436
2202.42061	0.40630
2200.49204	0.40838
2198.56348	0.41047
2196.63491	0.41245
2194.70635	0.41436
2192.77778	0.41625
2190.84922	0.41814
2188.92065	0.42000
2186.99209	0.42172
2185.06353	0.42339
2183.13496	0.42514
2181.20640	0.42694
2179.27783	0.42867
2177.34927	0.43029
2175.42070	0.43175
2173.49214	0.43317
2171.56357	0.43461
2169.63501	0.43606
2167.70645	0.43749
2165.77788	0.43888
2163.84932	0.44015
2161.92075	0.44130
2159.99219	0.44244
2158.06362	0.44349
2156.13506	0.44438
2154.20649	0.44522
2152.27793	0.44613
2150.34937	0.44714
2148.42080	0.44799
2146.49224	0.44849
2144.56367	0.44877
2142.63511	0.44910
2140.70654	0.44956
2138.77798	0.45006
2136.84941	0.45035
2134.92085	0.45037
2132.99229	0.45036
2131.06372	0.45047
2129.13516	0.45049
2127.20659	0.45026
2125.27803	0.44991
2123.34946	0.44960
2121.42090	0.44929
2119.49233	0.44885
2117.56377	0.44839
2115.63521	0.44794
2113.70664	0.44736
2111.77808	0.44648
2109.84951	0.44542
2107.92095	0.44435
2105.99238	0.44331
2104.06382	0.44231
2102.13525	0.44128
2100.20669	0.44020
2098.27812	0.43898
2096.34956	0.43758
2094.42100	0.43602
2092.49243	0.43443
2090.56387	0.43294
2088.63530	0.43144
2086.70674	0.42972
2084.77817	0.42781
2082.84961	0.42595
2080.92104	0.42411
2078.99248	0.42225
2077.06392	0.42038
2075.13535	0.41849
2073.20679	0.41645
2071.27822	0.41416
2069.34966	0.41187
2067.42109	0.40980
2065.49253	0.40770
2063.56396	0.40536
2061.63540	0.40301
2059.70684	0.40070
2057.77827	0.39828
2055.84971	0.39582
2053.92114	0.39339
2051.99258	0.39089
2050.06401	0.38827
2048.13545	0.38568
2046.20688	0.38314
2044.27832	0.38061
2042.34976	0.37807
2040.42119	0.37549
2038.49263	0.37285
2036.56406	0.37018
2034.63550	0.36749
2032.70693	0.36476
2030.77837	0.36206
2028.84980	0.35939
2026.92124	0.35673
2024.99268	0.35402
2023.06411	0.35128
2021.13555	0.34856
2019.20698	0.34591
2017.27842	0.34326
2015.34985	0.34045
2013.42129	0.33763
2011.49272	0.33490
2009.56416	0.33222
2007.63560	0.32954
2005.70703	0.32693
2003.77847	0.32432
2001.84990	0.32162
1999.92134	0.31899
1997.99277	0.31649
1996.06421	0.31403
1994.13564	0.31162
1992.20708	0.30930
1990.27852	0.30693
1988.34995	0.30444
1986.42139	0.30189
1984.49282	0.29940
1982.56426	0.29700
1980.63569	0.29464
1978.70713	0.29232
1976.77856	0.29002
1974.85000	0.28776
1972.92144	0.28557
1970.99287	0.28349
1969.06431	0.28156
1967.13574	0.27975
1965.20718	0.27773
1963.27861	0.27553
1961.35005	0.27342
1959.42148	0.27150
1957.49292	0.26971
1955.56436	0.26794
1953.63579	0.26615
1951.70723	0.26439
1949.77866	0.26274
1947.85010	0.26117
1945.92153	0.25972
1943.99297	0.25852
1942.06440	0.25725
1940.13584	0.25551
1938.20728	0.25372
1936.27871	0.25223
1934.35015	0.25089
1932.42158	0.24966
1930.49302	0.24847
1928.56445	0.24727
1926.63589	0.24615
1924.70732	0.24532
1922.77876	0.24463
1920.85020	0.24372
1918.92163	0.24277
1916.99307	0.24181
1915.06450	0.24066
1913.13594	0.23960
1911.20737	0.23893
1909.27881	0.23838
1907.35024	0.23766
1905.42168	0.23686
1903.49312	0.23612
1901.56455	0.23544
1899.63599	0.23490
1897.70742	0.23454
1895.77886	0.23426
1893.85029	0.23398
1891.92173	0.23371
1889.99316	0.23361
1888.06460	0.23337
1886.13604	0.23286
1884.20747	0.23244
1882.27891	0.23214
1880.35034	0.23195
1878.42178	0.23182
1876.49321	0.23169
1874.56465	0.23156
1872.63608	0.23173
1870.70752	0.23239
1868.77896	0.23342
1866.85039	0.23377
1864.92183	0.23322
1862.99326	0.23280
1861.06470	0.23287
1859.13613	0.23320
1857.20757	0.23358
1855.27900	0.23404
1853.35044	0.23453
1851.42187	0.23508
1849.49331	0.23569
1847.56475	0.23644
1845.63618	0.23746
1843.70762	0.23855
1841.77905	0.23912
1839.85049	0.23939
1837.92192	0.24005
1835.99336	0.24094
1834.06479	0.24183
1832.13623	0.24290
1830.20767	0.24455
1828.27910	0.24613
1826.35054	0.24712
1824.42197	0.24831
1822.49341	0.24943
1820.56484	0.25042
1818.63628	0.25166
1816.70771	0.25322
1814.77915	0.25479
1812.85059	0.25657
1810.92202	0.25871
1808.99346	0.26073
1807.06489	0.26249
1805.13633	0.26426
1803.20776	0.26652
1801.27920	0.26922
1799.35063	0.27207
1797.42207	0.27447
1795.49351	0.27683
1793.56494	0.27981
1791.63638	0.28361
1789.70781	0.28675
1787.77925	0.28890
1785.85068	0.29179
1783.92212	0.29545
1781.99355	0.29941
1780.06499	0.30361
1778.13643	0.30780
1776.20786	0.31175
1774.27930	0.31628
1772.35073	0.32252
1770.42217	0.32876
1768.49360	0.33352
1766.56504	0.33813
1764.63647	0.34304
1762.70791	0.34863
1760.77935	0.35575
1758.85078	0.36229
1756.92222	0.36873
1754.99365	0.37567
1753.06509	0.38206
1751.13652	0.39002
1749.20796	0.40019
1747.27939	0.41005
1745.35083	0.41857
1743.42227	0.42775
1741.49370	0.43812
1739.56514	0.45063
1737.63657	0.46332
1735.70801	0.47458
1733.77944	0.49179
1731.85088	0.51203
1729.92231	0.52726
1727.99375	0.54245
1726.06519	0.55902
1724.13662	0.57741
1722.20806	0.59738
1720.27949	0.61600
1718.35093	0.63820
1716.42236	0.67071
1714.49380	0.70048
1712.56523	0.72414
1710.63667	0.74754
1708.70811	0.77331
1706.77954	0.80295
1704.85098	0.83836
1702.92241	0.86985
1700.99385	0.90112
1699.06528	0.94793
1697.13672	0.99073
1695.20815	1.03445
1693.27959	1.07722
1691.35103	1.11211
1689.42246	1.15285
1687.49390	1.19593
1685.56533	1.23712
1683.63677	1.30110
1681.70820	1.36852
1679.77964	1.41154
1677.85107	1.45227
1675.92251	1.49941
1673.99395	1.55796
1672.06538	1.61012
1670.13682	1.66201
1668.20825	1.73002
1666.27969	1.78500
1664.35112	1.83188
1662.42256	1.89188
1660.49399	1.96004
1658.56543	2.01277
1656.63687	2.05571
1654.70830	2.09584
1652.77974	2.15694
1650.85117	2.21235
1648.92261	2.23192
1646.99404	2.25978
1645.06548	2.29058
1643.13691	2.30776
1641.20835	2.31538
1639.27979	2.32326
1637.35122	2.32879
1635.42266	2.32670
1633.49409	2.31642
1631.56553	2.30150
1629.63696	2.28460
1627.70840	2.25716
1625.77983	2.22383
1623.85127	2.18061
1621.92271	2.12778
1619.99414	2.08091
1618.06558	2.03579
1616.13701	1.97164
1614.20845	1.90487
1612.27988	1.85322
1610.35132	1.79998
1608.42275	1.74281
1606.49419	1.68649
1604.56562	1.63467
1602.63706	1.58474
1600.70850	1.53614
1598.77993	1.49130
1596.85137	1.44897
1594.92280	1.40836
1592.99424	1.36972
1591.06567	1.33433
1589.13711	1.30121
1587.20854	1.27068
1585.27998	1.24264
1583.35142	1.21651
1581.42285	1.19274
1579.49429	1.17257
1577.56572	1.15504
1575.63716	1.13437
1573.70859	1.11596
1571.78003	1.10406
1569.85146	1.09251
1567.92290	1.08002
1565.99434	1.07091
1564.06577	1.06450
1562.13721	1.05991
1560.20864	1.05807
1558.28008	1.05916
1556.35151	1.05993
1554.42295	1.05952
1552.49438	1.05929
1550.56582	1.05798
1548.63726	1.05437
1546.70869	1.04874
1544.78013	1.04083
1542.85156	1.02996
1540.92300	1.01327
1538.99443	0.98632
1537.06587	0.96612
1535.13730	0.95263
1533.20874	0.93488
1531.28018	0.91532
1529.35161	0.90096
1527.42305	0.88786
1525.49448	0.87455
1523.56592	0.86326
1521.63735	0.85240
1519.70879	0.84093
1517.78022	0.83095
1515.85166	0.81938
1513.92310	0.80742
1511.99453	0.79756
1510.06597	0.78918
1508.13740	0.78131
1506.20884	0.76784
1504.28027	0.75467
1502.35171	0.74717
1500.42314	0.74128
1498.49458	0.73549
1496.56602	0.72834
1494.63745	0.72059
1492.70889	0.71455
1490.78032	0.70965
1488.85176	0.70419
1486.92319	0.69854
1484.99463	0.69372
1483.06606	0.69004
1481.13750	0.68726
1479.20894	0.68507
1477.28037	0.68380
1475.35181	0.68365
1473.42324	0.68395
1471.49468	0.68239
1469.56611	0.67913
1467.63755	0.67627
1465.70898	0.67429
1463.78042	0.67303
1461.85186	0.67233
1459.92329	0.67241
1457.99473	0.67322
1456.06616	0.67295
1454.13760	0.67052
1452.20903	0.66782
1450.28047	0.66522
1448.35190	0.66297
1446.42334	0.66085
1444.49478	0.65858
1442.56621	0.65615
1440.63765	0.65366
1438.70908	0.65143
1436.78052	0.64881
1434.85195	0.64534
1432.92339	0.64249
1430.99482	0.64078
1429.06626	0.63976
1427.13770	0.63921
1425.20913	0.63931
1423.28057	0.63995
1421.35200	0.64052
1419.42344	0.64088
1417.49487	0.64059
1415.56631	0.63938
1413.63774	0.63840
1411.70918	0.63816
1409.78062	0.63858
1407.85205	0.63959
1405.92349	0.64107
1403.99492	0.64228
1402.06636	0.64250
1400.13779	0.64210
1398.20923	0.64106
1396.28066	0.63894
1394.35210	0.63561
1392.42354	0.63161
1390.49497	0.62786
1388.56641	0.62409
1386.63784	0.61943
1384.70928	0.61441
1382.78071	0.60991
1380.85215	0.60580
1378.92358	0.60226
1376.99502	0.59979
1375.06646	0.59840
1373.13789	0.59738
1371.20933	0.59632
1369.28076	0.59539
1367.35220	0.59426
1365.42363	0.59280
1363.49507	0.59146
1361.56650	0.59019
1359.63794	0.58863
1357.70937	0.58719
1355.78081	0.58614
1353.85225	0.58524
1351.92368	0.58433
1349.99512	0.58348
1348.06655	0.58266
1346.13799	0.58188
1344.20942	0.58123
1342.28086	0.58078
1340.35229	0.58037
1338.42373	0.57969
1336.49517	0.57878
1334.56660	0.57812
1332.63804	0.57785
1330.70947	0.57780
1328.78091	0.57796
1326.85234	0.57843
1324.92378	0.57904
1322.99521	0.57971
1321.06665	0.58040
1319.13809	0.58096
1317.20952	0.58116
1315.28096	0.58105
1313.35239	0.58078
1311.42383	0.58024
1309.49526	0.57950
1307.56670	0.57888
1305.63813	0.57840
1303.70957	0.57782
1301.78101	0.57705
1299.85244	0.57614
1297.92388	0.57506
1295.99531	0.57392
1294.06675	0.57277
1292.13818	0.57162
1290.20962	0.57058
1288.28105	0.56963
1286.35249	0.56862
1284.42393	0.56742
1282.49536	0.56597
1280.56680	0.56449
1278.63823	0.56325
1276.70967	0.56220
1274.78110	0.56116
1272.85254	0.56026
1270.92397	0.55959
1268.99541	0.55898
1267.06685	0.55832
1265.13828	0.55758
1263.20972	0.55666
1261.28115	0.55573
1259.35259	0.55509
1257.42402	0.55471
1255.49546	0.55451
1253.56689	0.55446
1251.63833	0.55456
1249.70977	0.55483
1247.78120	0.55500
1245.85264	0.55479
1243.92407	0.55421
1241.99551	0.55337
1240.06694	0.55222
1238.13838	0.55069
1236.20981	0.54883
1234.28125	0.54678
1232.35269	0.54475
1230.42412	0.54282
1228.49556	0.54091
1226.56699	0.53904
1224.63843	0.53733
1222.70986	0.53583
1220.78130	0.53457
1218.85273	0.53341
1216.92417	0.53215
1214.99561	0.53093
1213.06704	0.52993
1211.13848	0.52915
1209.20991	0.52853
1207.28135	0.52794
1205.35278	0.52726
1203.42422	0.52648
1201.49565	0.52565
1199.56709	0.52486
1197.63853	0.52409
1195.70996	0.52328
1193.78140	0.52254
1191.85283	0.52201
1189.92427	0.52165
1187.99570	0.52135
1186.06714	0.52117
1184.13857	0.52123
1182.21001	0.52163
1180.28145	0.52235
1178.35288	0.52331
1176.42432	0.52456
1174.49575	0.52587
1172.56719	0.52685
1170.63862	0.52733
1168.71006	0.52732
1166.78149	0.52713
1164.85293	0.52713
1162.92437	0.52723
1160.99580	0.52712
1159.06724	0.52666
1157.13867	0.52594
1155.21011	0.52510
1153.28154	0.52407
1151.35298	0.52250
1149.42441	0.52029
1147.49585	0.51787
1145.56729	0.51561
1143.63872	0.51343
1141.71016	0.51134
1139.78159	0.50953
1137.85303	0.50807
1135.92446	0.50693
1133.99590	0.50612
1132.06733	0.50557
1130.13877	0.50516
1128.21021	0.50475
1126.28164	0.50423
1124.35308	0.50372
1122.42451	0.50341
1120.49595	0.50329
1118.56738	0.50321
1116.63882	0.50326
1114.71025	0.50354
1112.78169	0.50408
1110.85312	0.50489
1108.92456	0.50592
1106.99600	0.50707
1105.06743	0.50826
1103.13887	0.50940
1101.21030	0.51058
1099.28174	0.51200
1097.35317	0.51395
1095.42461	0.51670
1093.49604	0.52032
1091.56748	0.52486
1089.63892	0.53049
1087.71035	0.53738
1085.78179	0.54514
1083.85322	0.55298
1081.92466	0.55995
1079.99609	0.56505
1078.06753	0.56773
1076.13896	0.56794
1074.21040	0.56545
1072.28184	0.56041
1070.35327	0.55387
1068.42471	0.54681
1066.49614	0.53980
1064.56758	0.53340
1062.63901	0.52796
1060.71045	0.52335
1058.78188	0.51931
1056.85332	0.51563
1054.92476	0.51212
1052.99619	0.50888
1051.06763	0.50626
1049.13906	0.50437
1047.21050	0.50289
1045.28193	0.50156
1043.35337	0.50068
1041.42480	0.50040
1039.49624	0.50033
1037.56768	0.50012
1035.63911	0.49971
1033.71055	0.49909
1031.78198	0.49832
1029.85342	0.49728
1027.92485	0.49600
1025.99629	0.49483
1024.06772	0.49381
1022.13916	0.49287
1020.21060	0.49235
1018.28203	0.49238
1016.35347	0.49268
1014.42490	0.49319
1012.49634	0.49370
1010.56777	0.49399
1008.63921	0.49445
1006.71064	0.49547
1004.78208	0.49703
1002.85352	0.49902
1000.92495	0.50163
998.99639	0.50496
997.06782	0.50872
995.13926	0.51269
993.21069	0.51675
991.28213	0.52033
989.35356	0.52275
987.42500	0.52391
985.49644	0.52417
983.56787	0.52424
981.63931	0.52451
979.71074	0.52512
977.78218	0.52630
975.85361	0.52816
973.92505	0.53050
971.99648	0.53323
970.06792	0.53636
968.13936	0.54005
966.21079	0.54439
964.28223	0.54901
962.35366	0.55356
960.42510	0.55821
958.49653	0.56312
956.56797	0.56834
954.63940	0.57397
952.71084	0.58016
950.78228	0.58687
948.85371	0.59349
946.92515	0.59946
944.99658	0.60527
943.06802	0.61158
941.13945	0.61794
939.21089	0.62365
937.28232	0.62918
935.35376	0.63500
933.42520	0.64091
931.49663	0.64679
929.56807	0.65245
927.63950	0.65761
925.71094	0.66260
923.78237	0.66816
921.85381	0.67427
919.92524	0.68065
917.99668	0.68763
916.06812	0.69539
914.13955	0.70325
912.21099	0.71043
910.28242	0.71754
908.35386	0.72552
906.42529	0.73371
904.49673	0.74177
902.56816	0.75057
900.63960	0.75974
898.71104	0.76875
896.78247	0.77883
894.85391	0.78994
892.92534	0.80037
890.99678	0.81047
889.06821	0.82153
887.13965	0.83217
885.21108	0.84197
883.28252	0.85309
881.35396	0.86510
879.42539	0.87631
877.49683	0.88673
875.56826	0.89689
873.63970	0.90770
871.71113	0.91936
869.78257	0.93068
867.85400	0.94163
865.92544	0.95240
863.99687	0.96258
862.06831	0.97379
860.13975	0.98609
858.21118	0.99725
856.28262	1.00784
854.35405	1.02083
852.42549	1.03560
850.49692	1.04687
848.56836	1.05451
846.63979	1.06413
844.71123	1.07591
842.78267	1.08716
840.85410	1.09931
838.92554	1.11279
836.99697	1.12544
835.06841	1.13574
833.13984	1.14552
831.21128	1.15546
829.28271	1.16395
827.35415	1.17656
825.42559	1.19520
823.49702	1.21035
821.56846	1.21810
819.63989	1.22668
817.71133	1.24025
815.78276	1.25406
813.85420	1.26549
811.92563	1.27272
809.99707	1.27568
808.06851	1.28335
806.13994	1.30095
804.21138	1.32038
802.28281	1.34089
800.35425	1.35888
798.42568	1.35488
796.49712	1.32855
794.56855	1.31272
792.63999	1.33411
790.71143	1.36879
788.78286	1.38412
786.85430	1.38714
784.92573	1.37804
782.99717	1.36935
781.06860	1.39039
779.14004	1.39347
777.21147	1.35873
775.28291	1.40042
773.35435	1.57697
771.42578	1.69217
769.49722	1.53333
767.56865	1.46398
765.64009	1.50257
763.71152	1.50483
761.78296	1.63802
759.85439	4.55913
757.92583	2.34162
755.99727	1.45582
754.06870	1.21327
752.14014	1.14744
750.21157	1.22546
748.28301	1.27448
746.35444	1.17086
744.42588	1.16333
742.49731	1.25457
740.56875	1.17168
738.64019	1.00710
736.71162	0.87929
734.78306	0.80731
732.85449	0.78191
730.92593	0.74722
728.99736	0.75861
727.06880	0.86205
725.14023	0.92191
723.21167	0.62714
721.28311	0.34290
719.35454	0.21915
717.42598	0.18288
715.49741	0.16822
713.56885	0.20114
711.64028	0.24569
709.71172	0.31025
707.78315	0.38956
705.85459	0.26935
703.92603	0.17633
701.99746	0.20077
700.06890	0.39092
698.14033	0.62239
696.21177	0.54875
694.28320	0.54196
692.35464	0.77068
690.42607	0.69568
688.49751	0.48155
686.56895	0.46749
684.64038	0.51236
682.71182	0.47661
680.78325	0.48203
678.85469	0.41651
676.92612	0.34764
674.99756	0.34316
673.06899	0.30451
671.14043	0.28005
669.21187	0.31700
667.28330	0.32163
665.35474	0.28474
663.42617	0.27381
661.49761	0.33285
659.56904	0.40206
657.64048	0.43192
655.71191	0.42334
653.78335	0.47543
651.85479	0.61451
649.92622	0.49747
647.99766	0.27799
646.06909	0.23635
644.14053	0.25068
642.21196	0.22928
640.28340	0.24991
638.35483	0.34451
636.42627	0.46852
634.49771	0.49649
632.56914	0.33505
630.64058	0.18505
628.71201	0.16086
626.78345	0.18750
624.85488	0.21831
622.92632	0.26239
620.99775	0.31577
619.06919	0.34296
617.14062	0.32883
615.21206	0.30956
613.28350	0.29797
611.35493	0.26851
609.42637	0.23628
607.49780	0.27564
605.56924	0.44997
603.64067	0.69013
601.71211	0.57195
599.78354	0.33380
597.85498	0.21375
595.92642	0.18402
593.99785	0.16017
592.06929	0.16227
590.14072	0.23580
588.21216	0.31425
586.28359	0.29913
584.35503	0.29044
582.42646	0.30947
580.49790	0.29017
578.56934	0.26463
576.64077	0.24092
574.71221	0.23331
572.78364	0.23769
570.85508	0.22923
568.92651	0.25822
566.99795	0.35872
565.06938	0.48321
563.14082	0.37344
561.21226	0.21369
559.28369	0.19839
557.35513	0.27787
555.42656	0.29882
553.49800	0.26291
551.56943	0.26037
549.64087	0.26556
547.71230	0.26063
545.78374	0.27525
543.85518	0.34516
541.92661	0.40205
539.99805	0.30933
538.06948	0.21706
536.14092	0.20377
534.21235	0.25477
532.28379	0.37805
530.35522	0.41936
528.42666	0.31904
526.49810	0.25797
524.56953	0.22690
522.64097	0.22296
520.71240	0.27817
518.78384	0.32748
516.85527	0.31076
514.92671	0.31319
512.99814	0.27051
511.06958	0.18466
509.14102	0.14350
507.21245	0.16610
505.28389	0.20816
503.35532	0.22280
501.42676	0.22162
499.49819	0.26184
