3997.91411	0.06936
3995.98555	0.06979
3994.05698	0.07015
3992.12842	0.07017
3990.19985	0.07030
3988.27129	0.07078
3986.34272	0.07129
3984.41416	0.07162
3982.48560	0.07178
3980.55703	0.07197
3978.62847	0.07213
3976.69990	0.07210
3974.77134	0.07227
3972.84277	0.07276
3970.91421	0.07322
3968.98564	0.07351
3967.05708	0.07345
3965.12852	0.07308
3963.19995	0.07317
3961.27139	0.07389
3959.34282	0.07433
3957.41426	0.07396
3955.48569	0.07333
3953.55713	0.07326
3951.62856	0.07414
3949.70000	0.07539
3947.77144	0.07605
3945.84287	0.07572
3943.91431	0.07521
3941.98574	0.07519
3940.05718	0.07505
3938.12861	0.07457
3936.20005	0.07441
3934.27148	0.07483
3932.34292	0.07557
3930.41436	0.07620
3928.48579	0.07625
3926.55723	0.07622
3924.62866	0.07678
3922.70010	0.07694
3920.77153	0.07599
3918.84297	0.07538
3916.91440	0.07568
3914.98584	0.07531
3913.05728	0.07380
3911.12871	0.07277
3909.20015	0.07307
3907.27158	0.07444
3905.34302	0.07676
3903.41445	0.07938
3901.48589	0.08028
3899.55732	0.07935
3897.62876	0.07757
3895.70020	0.07583
3893.77163	0.07560
3891.84307	0.07687
3889.91450	0.07720
3887.98594	0.07598
3886.05737	0.07597
3884.12881	0.07734
3882.20024	0.07817
3880.27168	0.07856
3878.34312	0.07816
3876.41455	0.07735
3874.48599	0.07807
3872.55742	0.07979
3870.62886	0.08092
3868.70029	0.08155
3866.77173	0.08164
3864.84316	0.08188
3862.91460	0.08207
3860.98604	0.08098
3859.05747	0.08006
3857.12891	0.08076
3855.20034	0.08313
3853.27178	0.08710
3851.34321	0.08866
3849.41465	0.08530
3847.48608	0.08230
3845.55752	0.08163
3843.62896	0.08308
3841.70039	0.08598
3839.77183	0.08942
3837.84326	0.09204
3835.91470	0.09196
3833.98613	0.08994
3832.05757	0.08850
3830.12900	0.08835
3828.20044	0.08896
3826.27187	0.08994
3824.34331	0.09091
3822.41475	0.09226
3820.48618	0.09456
3818.55762	0.09588
3816.62905	0.09629
3814.70049	0.09638
3812.77192	0.09521
3810.84336	0.09445
3808.91479	0.09546
3806.98623	0.09810
3805.05767	0.10050
3803.12910	0.10187
3801.20054	0.10416
3799.27197	0.10619
3797.34341	0.10637
3795.41484	0.10616
3793.48628	0.10557
3791.55771	0.10512
3789.62915	0.10577
3787.70059	0.10741
3785.77202	0.10959
3783.84346	0.11159
3781.91489	0.11297
3779.98633	0.11480
3778.05776	0.11681
3776.12920	0.11746
3774.20063	0.11785
3772.27207	0.11936
3770.34351	0.12242
3768.41494	0.12619
3766.48638	0.12871
3764.55781	0.13014
3762.62925	0.13128
3760.70068	0.13328
3758.77212	0.13685
3756.84355	0.14047
3754.91499	0.14312
3752.98643	0.14651
3751.05786	0.15261
3749.12930	0.15933
3747.20073	0.16192
3745.27217	0.16352
3743.34360	0.16711
3741.41504	0.17046
3739.48647	0.17320
3737.55791	0.17793
3735.62935	0.18606
3733.70078	0.19451
3731.77222	0.19874
3729.84365	0.20134
3727.91509	0.20514
3725.98652	0.21094
3724.05796	0.21765
3722.12939	0.22365
3720.20083	0.22893
3718.27227	0.23356
3716.34370	0.23824
3714.41514	0.24457
3712.48657	0.25520
3710.55801	0.27196
3708.62944	0.28834
3706.70088	0.29939
3704.77231	0.30953
3702.84375	0.32240
3700.91519	0.33945
3698.98662	0.35770
3697.05806	0.37483
3695.12949	0.39310
3693.20093	0.41286
3691.27236	0.43534
3689.34380	0.46473
3687.41523	0.49887
3685.48667	0.52724
3683.55811	0.55200
3681.62954	0.57995
3679.70098	0.61261
3677.77241	0.64746
3675.84385	0.68841
3673.91528	0.74208
3671.98672	0.78496
3670.05815	0.82346
3668.12959	0.87639
3666.20103	0.92343
3664.27246	0.96273
3662.34390	1.00630
3660.41533	1.05423
3658.48677	1.10186
3656.55820	1.15232
3654.62964	1.20771
3652.70107	1.25473
3650.77251	1.29791
3648.84395	1.35830
3646.91538	1.42845
3644.98682	1.47666
3643.05825	1.51403
3641.12969	1.55402
3639.20112	1.59923
3637.27256	1.64500
3635.34399	1.68922
3633.41543	1.73336
3631.48687	1.77507
3629.55830	1.81823
3627.62974	1.87467
3625.70117	1.92478
3623.77261	1.95708
3621.84404	1.98940
3619.91548	2.02796
3617.98691	2.07455
3616.05835	2.11838
3614.12979	2.15423
3612.20122	2.19273
3610.27266	2.23276
3608.34409	2.27390
3606.41553	2.31683
3604.48696	2.35462
3602.55840	2.38899
3600.62983	2.42898
3598.70127	2.47229
3596.77271	2.51229
3594.84414	2.55193
3592.91558	2.59334
3590.98701	2.63341
3589.05845	2.67070
3587.12988	2.71345
3585.20132	2.76014
3583.27275	2.79917
3581.34419	2.83424
3579.41562	2.87274
3577.48706	2.91489
3575.55850	2.95797
3573.62993	3.00272
3571.70137	3.04610
3569.77280	3.08690
3567.84424	3.13035
3565.91567	3.18257
3563.98711	3.23163
3562.05854	3.27039
3560.12998	3.30977
3558.20142	3.35450
3556.27285	3.40129
3554.34429	3.44677
3552.41572	3.49417
3550.48716	3.54207
3548.55859	3.58689
3546.63003	3.63116
3544.70146	3.67891
3542.77290	3.72837
3540.84434	3.77367
3538.91577	3.81687
3536.98721	3.86421
3535.05864	3.91517
3533.13008	3.96226
3531.20151	4.00715
3529.27295	4.05388
3527.34438	4.10222
3525.41582	4.15118
3523.48726	4.20050
3521.55869	4.25020
3519.63013	4.29782
3517.70156	4.34550
3515.77300	4.39169
3513.84443	4.43290
3511.91587	4.47617
3509.98730	4.52939
3508.05874	4.58573
3506.13018	4.63390
3504.20161	4.67825
3502.27305	4.72501
3500.34448	4.77222
3498.41592	4.82148
3496.48735	4.87406
3494.55879	4.92402
3492.63022	4.96602
3490.70166	5.00542
3488.77310	5.05425
3486.84453	5.10916
3484.91597	5.15616
3482.98740	5.19707
3481.05884	5.24107
3479.13027	5.29037
3477.20171	5.34898
3475.27314	5.41218
3473.34458	5.46328
3471.41602	5.50009
3469.48745	5.53591
3467.55889	5.58159
3465.63032	5.63712
3463.70176	5.69669
3461.77319	5.75471
3459.84463	5.80644
3457.91606	5.84892
3455.98750	5.88774
3454.05894	5.92990
3452.13037	5.98202
3450.20181	6.04268
3448.27324	6.09729
3446.34468	6.14773
3444.41611	6.19597
3442.48755	6.24256
3440.55898	6.29145
3438.63042	6.33482
3436.70186	6.37312
3434.77329	6.42649
3432.84473	6.49208
3430.91616	6.53520
3428.98760	6.56597
3427.05903	6.61991
3425.13047	6.68512
3423.20190	6.73049
3421.27334	6.77389
3419.34478	6.81879
3417.41621	6.85231
3415.48765	6.90129
3413.55908	6.95897
3411.63052	7.00220
3409.70195	7.05207
3407.77339	7.12437
3405.84482	7.17628
3403.91626	7.20756
3401.98770	7.23927
3400.05913	7.26158
3398.13057	7.30242
3396.20200	7.37984
3394.27344	7.43405
3392.34487	7.42614
3390.41631	7.43055
3388.48774	7.47205
3386.55918	7.54025
3384.63062	7.62167
3382.70205	7.67789
3380.77349	7.68210
3378.84492	7.66081
3376.91636	7.68758
3374.98779	7.74688
3373.05923	7.79114
3371.13066	7.79038
3369.20210	7.77643
3367.27354	7.80868
3365.34497	7.89251
3363.41641	7.95289
3361.48784	7.94100
3359.55928	7.93520
3357.63071	7.93558
3355.70215	7.93928
3353.77358	7.97422
3351.84502	8.00974
3349.91646	8.02571
3347.98789	8.03414
3346.05933	8.01985
3344.13076	7.99434
3342.20220	7.99266
3340.27363	7.99986
3338.34507	8.02833
3336.41650	8.08247
3334.48794	8.15697
3332.55937	8.19114
3330.63081	8.14844
3328.70225	8.09433
3326.77368	8.06765
3324.84512	8.09139
3322.91655	8.12165
3320.98799	8.07589
3319.05942	8.03153
3317.13086	8.11329
3315.20229	8.20337
3313.27373	8.14693
3311.34517	8.05590
3309.41660	8.08698
3307.48804	8.22580
3305.55947	8.27396
3303.63091	8.21768
3301.70234	8.25293
3299.77378	8.31134
3297.84521	8.21557
3295.91665	8.12734
3293.98809	8.16156
3292.05952	8.28418
3290.13096	8.40870
3288.20239	8.36251
3286.27383	8.19809
3284.34526	8.09636
3282.41670	8.13403
3280.48813	8.26863
3278.55957	8.35580
3276.63101	8.30697
3274.70244	8.25898
3272.77388	8.26641
3270.84531	8.26216
3268.91675	8.24623
3266.98818	8.19452
3265.05962	8.19031
3263.13105	8.28028
3261.20249	8.36624
3259.27393	8.40086
3257.34536	8.41588
3255.41680	8.43498
3253.48823	8.39245
3251.55967	8.27100
3249.63110	8.17646
3247.70254	8.12811
3245.77397	8.07219
3243.84541	8.07876
3241.91685	8.14916
3239.98828	8.14169
3238.05972	8.09005
3236.13115	8.09758
3234.20259	8.15076
3232.27402	8.15597
3230.34546	8.03997
3228.41689	7.92684
3226.48833	7.94223
3224.55977	8.03004
3222.63120	8.08139
3220.70264	8.07189
3218.77407	8.07880
3216.84551	8.14337
3214.91694	8.18017
3212.98838	8.13653
3211.05981	8.04818
3209.13125	7.94207
3207.20269	7.85317
3205.27412	7.77651
3203.34556	7.69227
3201.41699	7.64438
3199.48843	7.65204
3197.55986	7.67353
3195.63130	7.69020
3193.70273	7.71810
3191.77417	7.70890
3189.84561	7.63211
3187.91704	7.51610
3185.98848	7.40043
3184.05991	7.34931
3182.13135	7.30450
3180.20278	7.21690
3178.27422	7.17480
3176.34565	7.17284
3174.41709	7.13619
3172.48853	7.05961
3170.55996	6.97952
3168.63140	6.92549
3166.70283	6.86923
3164.77427	6.78891
3162.84570	6.71202
3160.91714	6.64705
3158.98857	6.59438
3157.06001	6.54830
3155.13145	6.48650
3153.20288	6.40034
3151.27432	6.31867
3149.34575	6.25995
3147.41719	6.19891
3145.48862	6.13065
3143.56006	6.06635
3141.63149	5.99645
3139.70293	5.91775
3137.77437	5.83363
3135.84580	5.74404
3133.91724	5.66427
3131.98867	5.60022
3130.06011	5.53493
3128.13154	5.46540
3126.20298	5.39980
3124.27441	5.33791
3122.34585	5.27025
3120.41729	5.19402
3118.48872	5.12004
3116.56016	5.05260
3114.63159	4.98671
3112.70303	4.91931
3110.77446	4.84988
3108.84590	4.78067
3106.91733	4.71356
3104.98877	4.64424
3103.06021	4.57085
3101.13164	4.49949
3099.20308	4.43553
3097.27451	4.37552
3095.34595	4.31393
3093.41738	4.24941
3091.48882	4.18210
3089.56025	4.11535
3087.63169	4.05292
3085.70312	3.99323
3083.77456	3.93235
3081.84600	3.87006
3079.91743	3.80856
3077.98887	3.74919
3076.06030	3.69202
3074.13174	3.63529
3072.20317	3.57718
3070.27461	3.51777
3068.34604	3.46020
3066.41748	3.40678
3064.48892	3.35455
3062.56035	3.30109
3060.63179	3.24764
3058.70322	3.19475
3056.77466	3.14198
3054.84609	3.08882
3052.91753	3.03519
3050.98896	2.98285
3049.06040	2.93350
3047.13184	2.88609
3045.20327	2.83798
3043.27471	2.78860
3041.34614	2.73958
3039.41758	2.69322
3037.48901	2.64941
3035.56045	2.60496
3033.63188	2.55933
3031.70332	2.51450
3029.77476	2.47118
3027.84619	2.42898
3025.91763	2.38731
3023.98906	2.34638
3022.06050	2.30605
3020.13193	2.26581
3018.20337	2.22587
3016.27480	2.18634
3014.34624	2.14783
3012.41768	2.11050
3010.48911	2.07350
3008.56055	2.03678
3006.63198	2.00053
3004.70342	1.96497
3002.77485	1.93063
3000.84629	1.89723
2998.91772	1.86418
2996.98916	1.83151
2995.06060	1.79936
2993.13203	1.76774
2991.20347	1.73690
2989.27490	1.70693
2987.34634	1.67769
2985.41777	1.64892
2983.48921	1.62054
2981.56064	1.59308
2979.63208	1.56644
2977.70352	1.53960
2975.77495	1.51262
2973.84639	1.48617
2971.91782	1.46035
2969.98926	1.43520
2968.06069	1.41066
2966.13213	1.38620
2964.20356	1.36172
2962.27500	1.33816
2960.34644	1.31552
2958.41787	1.29259
2956.48931	1.26925
2954.56074	1.24623
2952.63218	1.22376
2950.70361	1.20191
2948.77505	1.18040
2946.84648	1.15874
2944.91792	1.13745
2942.98936	1.11716
2941.06079	1.09771
2939.13223	1.07864
2937.20366	1.05926
2935.27510	1.03981
2933.34653	1.02099
2931.41797	1.00258
2929.48940	0.98439
2927.56084	0.96682
2925.63228	0.95020
2923.70371	0.93401
2921.77515	0.91754
2919.84658	0.90086
2917.91802	0.88449
2915.98945	0.86842
2914.06089	0.85238
2912.13232	0.83673
2910.20376	0.82189
2908.27520	0.80768
2906.34663	0.79381
2904.41807	0.78028
2902.48950	0.76710
2900.56094	0.75408
2898.63237	0.74115
2896.70381	0.72852
2894.77524	0.71620
2892.84668	0.70413
2890.91812	0.69245
2888.98955	0.68126
2887.06099	0.67027
2885.13242	0.65936
2883.20386	0.64902
2881.27529	0.63924
2879.34673	0.62926
2877.41816	0.61905
2875.48960	0.60920
2873.56104	0.59966
2871.63247	0.58972
2869.70391	0.57920
2867.77534	0.56869
2865.84678	0.55848
2863.91821	0.54838
2861.98965	0.53826
2860.06108	0.52839
2858.13252	0.51904
2856.20396	0.50997
2854.27539	0.50111
2852.34683	0.49274
2850.41826	0.48486
2848.48970	0.47715
2846.56113	0.46947
2844.63257	0.46216
2842.70400	0.45526
2840.77544	0.44866
2838.84687	0.44252
2836.91831	0.43667
2834.98975	0.43081
2833.06118	0.42497
2831.13262	0.41916
2829.20405	0.41333
2827.27549	0.40736
2825.34692	0.40123
2823.41836	0.39510
2821.48979	0.38922
2819.56123	0.38366
2817.63267	0.37829
2815.70410	0.37296
2813.77554	0.36763
2811.84697	0.36233
2809.91841	0.35693
2807.98984	0.35156
2806.06128	0.34650
2804.13271	0.34166
2802.20415	0.33683
2800.27559	0.33204
2798.34702	0.32736
2796.41846	0.32278
2794.48989	0.31826
2792.56133	0.31388
2790.63276	0.30966
2788.70420	0.30540
2786.77563	0.30109
2784.84707	0.29692
2782.91851	0.29305
2780.98994	0.28934
2779.06138	0.28550
2777.13281	0.28157
2775.20425	0.27778
2773.27568	0.27415
2771.34712	0.27057
2769.41855	0.26712
2767.48999	0.26378
2765.56143	0.26049
2763.63286	0.25728
2761.70430	0.25416
2759.77573	0.25112
2757.84717	0.24804
2755.91860	0.24479
2753.99004	0.24155
2752.06147	0.23869
2750.13291	0.23616
2748.20435	0.23360
2746.27578	0.23088
2744.34722	0.22818
2742.41865	0.22559
2740.49009	0.22308
2738.56152	0.22061
2736.63296	0.21818
2734.70439	0.21580
2732.77583	0.21344
2730.84727	0.21118
2728.91870	0.20911
2726.99014	0.20712
2725.06157	0.20505
2723.13301	0.20302
2721.20444	0.20106
2719.27588	0.19905
2717.34731	0.19713
2715.41875	0.19531
2713.49019	0.19347
2711.56162	0.19172
2709.63306	0.19006
2707.70449	0.18848
2705.77593	0.18704
2703.84736	0.18557
2701.91880	0.18390
2699.99023	0.18219
2698.06167	0.18059
2696.13311	0.17912
2694.20454	0.17779
2692.27598	0.17647
2690.34741	0.17515
2688.41885	0.17400
2686.49028	0.17291
2684.56172	0.17169
2682.63315	0.17047
2680.70459	0.16928
2678.77603	0.16803
2676.84746	0.16670
2674.91890	0.16541
2672.99033	0.16438
2671.06177	0.16361
2669.13320	0.16282
2667.20464	0.16189
2665.27607	0.16098
2663.34751	0.16018
2661.41895	0.15941
2659.49038	0.15845
2657.56182	0.15748
2655.63325	0.15679
2653.70469	0.15633
2651.77612	0.15575
2649.84756	0.15499
2647.91899	0.15423
2645.99043	0.15351
2644.06187	0.15280
2642.13330	0.15216
2640.20474	0.15160
2638.27617	0.15115
2636.34761	0.15085
2634.41904	0.15057
2632.49048	0.15014
2630.56191	0.14962
2628.63335	0.14916
2626.70479	0.14882
2624.77622	0.14858
2622.84766	0.14844
2620.91909	0.14823
2618.99053	0.14788
2617.06196	0.14758
2615.13340	0.14741
2613.20483	0.14727
2611.27627	0.14706
2609.34771	0.14682
2607.41914	0.14675
2605.49058	0.14683
2603.56201	0.14688
2601.63345	0.14685
2599.70488	0.14680
2597.77632	0.14684
2595.84775	0.14693
2593.91919	0.14688
2591.99062	0.14673
2590.06206	0.14676
2588.13350	0.14707
2586.20493	0.14740
2584.27637	0.14764
2582.34780	0.14785
2580.41924	0.14810
2578.49067	0.14835
2576.56211	0.14863
2574.63354	0.14893
2572.70498	0.14916
2570.77642	0.14946
2568.84785	0.14988
2566.91929	0.15036
2564.99072	0.15088
2563.06216	0.15131
2561.13359	0.15163
2559.20503	0.15200
2557.27646	0.15241
2555.34790	0.15287
2553.41934	0.15343
2551.49077	0.15398
2549.56221	0.15453
2547.63364	0.15517
2545.70508	0.15584
2543.77651	0.15641
2541.84795	0.15687
2539.91938	0.15732
2537.99082	0.15784
2536.06226	0.15850
2534.13369	0.15924
2532.20513	0.15998
2530.27656	0.16065
2528.34800	0.16131
2526.41943	0.16199
2524.49087	0.16263
2522.56230	0.16332
2520.63374	0.16409
2518.70518	0.16481
2516.77661	0.16546
2514.84805	0.16625
2512.91948	0.16720
2510.99092	0.16804
2509.06235	0.16864
2507.13379	0.16929
2505.20522	0.17016
2503.27666	0.17109
2501.34810	0.17195
2499.41953	0.17282
2497.49097	0.17373
2495.56240	0.17460
2493.63384	0.17541
2491.70527	0.17622
2489.77671	0.17707
2487.84814	0.17804
2485.91958	0.17902
2483.99102	0.17984
2482.06245	0.18060
2480.13389	0.18142
2478.20532	0.18229
2476.27676	0.18310
2474.34819	0.18385
2472.41963	0.18466
2470.49106	0.18554
2468.56250	0.18650
2466.63394	0.18745
2464.70537	0.18831
2462.77681	0.18923
2460.84824	0.19023
2458.91968	0.19115
2456.99111	0.19201
2455.06255	0.19296
2453.13398	0.19402
2451.20542	0.19503
2449.27686	0.19593
2447.34829	0.19675
2445.41973	0.19756
2443.49116	0.19846
2441.56260	0.19945
2439.63403	0.20047
2437.70547	0.20147
2435.77690	0.20248
2433.84834	0.20360
2431.91978	0.20476
2429.99121	0.20585
2428.06265	0.20692
2426.13408	0.20805
2424.20552	0.20925
2422.27695	0.21034
2420.34839	0.21127
2418.41982	0.21229
2416.49126	0.21347
2414.56270	0.21462
2412.63413	0.21564
2410.70557	0.21662
2408.77700	0.21775
2406.84844	0.21902
2404.91987	0.22029
2402.99131	0.22141
2401.06274	0.22246
2399.13418	0.22359
2397.20562	0.22483
2395.27705	0.22609
2393.34849	0.22735
2391.41992	0.22869
2389.49136	0.23029
2387.56279	0.23247
2385.63423	0.23586
2383.70566	0.24105
2381.77710	0.24820
2379.84854	0.25685
2377.91997	0.26657
2375.99141	0.27761
2374.06284	0.29037
2372.13428	0.30469
2370.20571	0.31997
2368.27715	0.33501
2366.34858	0.34899
2364.42002	0.36207
2362.49146	0.37278
2360.56289	0.37842
2358.63433	0.37897
2356.70576	0.37458
2354.77720	0.36464
2352.84863	0.35058
2350.92007	0.33560
2348.99150	0.32629
2347.06294	0.32703
2345.13437	0.33794
2343.20581	0.35206
2341.27725	0.35920
2339.34868	0.35953
2337.42012	0.35820
2335.49155	0.35765
2333.56299	0.35750
2331.63442	0.35734
2329.70586	0.35664
2327.77729	0.35473
2325.84873	0.35156
2323.92017	0.34805
2321.99160	0.34461
2320.06304	0.34044
2318.13447	0.33559
2316.20591	0.33130
2314.27734	0.32868
2312.34878	0.32751
2310.42021	0.32649
2308.49165	0.32483
2306.56309	0.32248
2304.63452	0.32004
2302.70596	0.31857
2300.77739	0.31816
2298.84883	0.31798
2296.92026	0.31789
2294.99170	0.31808
2293.06313	0.31818
2291.13457	0.31805
2289.20601	0.31813
2287.27744	0.31863
2285.34888	0.31927
2283.42031	0.32012
2281.49175	0.32158
2279.56318	0.32374
2277.63462	0.32619
2275.70605	0.32850
2273.77749	0.33061
2271.84893	0.33261
2269.92036	0.33451
2267.99180	0.33645
2266.06323	0.33853
2264.13467	0.34059
2262.20610	0.34241
2260.27754	0.34413
2258.34897	0.34588
2256.42041	0.34767
2254.49185	0.34951
2252.56328	0.35146
2250.63472	0.35341
2248.70615	0.35526
2246.77759	0.35721
2244.84902	0.35932
2242.92046	0.36138
2240.99189	0.36338
2239.06333	0.36545
2237.13477	0.36752
2235.20620	0.36951
2233.27764	0.37160
2231.34907	0.37385
2229.42051	0.37614
2227.49194	0.37853
2225.56338	0.38085
2223.63481	0.38294
2221.70625	0.38507
2219.77769	0.38735
2217.84912	0.38949
2215.92056	0.39145
2213.99199	0.39339
2212.06343	0.39542
2210.13486	0.39750
2208.20630	0.39959
2206.27773	0.40176
2204.34917	0.40395
2202.42061	0.40605
2200.49204	0.40813
2198.56348	0.41022
2196.63491	0.41222
2194.70635	0.41412
2192.77778	0.41587
2190.84922	0.41752
2188.92065	0.41930
2186.99209	0.42116
2185.06353	0.42291
2183.13496	0.42462
2181.20640	0.42640
2179.27783	0.42814
2177.34927	0.42974
2175.42070	0.43128
2173.49214	0.43283
2171.56357	0.43430
2169.63501	0.43565
2167.70645	0.43697
2165.77788	0.43830
2163.84932	0.43959
2161.92075	0.44075
2159.99219	0.44182
2158.06362	0.44291
2156.13506	0.44397
2154.20649	0.44487
2152.27793	0.44566
2150.34937	0.44647
2148.42080	0.44734
2146.49224	0.44807
2144.56367	0.44859
2142.63511	0.44903
2140.70654	0.44947
2138.77798	0.44982
2136.84941	0.45005
2134.92085	0.45018
2132.99229	0.45022
2131.06372	0.45016
2129.13516	0.45006
2127.20659	0.44996
2125.27803	0.44975
2123.34946	0.44934
2121.42090	0.44890
2119.49233	0.44858
2117.56377	0.44822
2115.63521	0.44765
2113.70664	0.44693
2111.77808	0.44625
2109.84951	0.44554
2107.92095	0.44463
2105.99238	0.44356
2104.06382	0.44242
2102.13525	0.44115
2100.20669	0.43979
2098.27812	0.43844
2096.34956	0.43713
2094.42100	0.43582
2092.49243	0.43442
2090.56387	0.43292
2088.63530	0.43132
2086.70674	0.42960
2084.77817	0.42780
2082.84961	0.42604
2080.92104	0.42430
2078.99248	0.42247
2077.06392	0.42048
2075.13535	0.41835
2073.20679	0.41621
2071.27822	0.41411
2069.34966	0.41205
2067.42109	0.40997
2065.49253	0.40781
2063.56396	0.40544
2061.63540	0.40296
2059.70684	0.40055
2057.77827	0.39815
2055.84971	0.39573
2053.92114	0.39329
2051.99258	0.39080
2050.06401	0.38822
2048.13545	0.38563
2046.20688	0.38316
2044.27832	0.38080
2042.34976	0.37825
2040.42119	0.37552
2038.49263	0.37286
2036.56406	0.37026
2034.63550	0.36756
2032.70693	0.36480
2030.77837	0.36217
2028.84980	0.35956
2026.92124	0.35675
2024.99268	0.35392
2023.06411	0.35130
2021.13555	0.34875
2019.20698	0.34616
2017.27842	0.34354
2015.34985	0.34073
2013.42129	0.33787
2011.49272	0.33512
2009.56416	0.33249
2007.63560	0.32990
2005.70703	0.32724
2003.77847	0.32458
2001.84990	0.32195
1999.92134	0.31934
1997.99277	0.31674
1996.06421	0.31418
1994.13564	0.31185
1992.20708	0.30964
1990.27852	0.30714
1988.34995	0.30443
1986.42139	0.30174
1984.49282	0.29914
1982.56426	0.29675
1980.63569	0.29454
1978.70713	0.29239
1976.77856	0.29024
1974.85000	0.28814
1972.92144	0.28606
1970.99287	0.28397
1969.06431	0.28200
1967.13574	0.28013
1965.20718	0.27804
1963.27861	0.27584
1961.35005	0.27374
1959.42148	0.27170
1957.49292	0.26981
1955.56436	0.26810
1953.63579	0.26637
1951.70723	0.26454
1949.77866	0.26285
1947.85010	0.26138
1945.92153	0.26007
1943.99297	0.25896
1942.06440	0.25772
1940.13584	0.25593
1938.20728	0.25402
1936.27871	0.25248
1934.35015	0.25122
1932.42158	0.25007
1930.49302	0.24883
1928.56445	0.24754
1926.63589	0.24643
1924.70732	0.24574
1922.77876	0.24515
1920.85020	0.24421
1918.92163	0.24317
1916.99307	0.24210
1915.06450	0.24086
1913.13594	0.23979
1911.20737	0.23923
1909.27881	0.23884
1907.35024	0.23820
1905.42168	0.23731
1903.49312	0.23645
1901.56455	0.23564
1899.63599	0.23498
1897.70742	0.23464
1895.77886	0.23452
1893.85029	0.23431
1891.92173	0.23400
1889.99316	0.23390
1888.06460	0.23365
1886.13604	0.23308
1884.20747	0.23257
1882.27891	0.23225
1880.35034	0.23210
1878.42178	0.23210
1876.49321	0.23213
1874.56465	0.23213
1872.63608	0.23235
1870.70752	0.23307
1868.77896	0.23417
1866.85039	0.23438
1864.92183	0.23362
1862.99326	0.23309
1861.06470	0.23310
1859.13613	0.23346
1857.20757	0.23387
1855.27900	0.23433
1853.35044	0.23475
1851.42187	0.23523
1849.49331	0.23597
1847.56475	0.23709
1845.63618	0.23845
1843.70762	0.23955
1841.77905	0.23981
1839.85049	0.23981
1837.92192	0.24044
1835.99336	0.24130
1834.06479	0.24216
1832.13623	0.24333
1830.20767	0.24514
1828.27910	0.24673
1826.35054	0.24767
1824.42197	0.24883
1822.49341	0.24983
1820.56484	0.25068
1818.63628	0.25187
1816.70771	0.25351
1814.77915	0.25520
1812.85059	0.25704
1810.92202	0.25922
1808.99346	0.26127
1807.06489	0.26300
1805.13633	0.26472
1803.20776	0.26701
1801.27920	0.26983
1799.35063	0.27272
1797.42207	0.27515
1795.49351	0.27764
1793.56494	0.28084
1791.63638	0.28471
1789.70781	0.28764
1787.77925	0.28956
1785.85068	0.29243
1783.92212	0.29615
1781.99355	0.30016
1780.06499	0.30444
1778.13643	0.30875
1776.20786	0.31284
1774.27930	0.31753
1772.35073	0.32391
1770.42217	0.33016
1768.49360	0.33478
1766.56504	0.33927
1764.63647	0.34432
1762.70791	0.35030
1760.77935	0.35771
1758.85078	0.36441
1756.92222	0.37138
1754.99365	0.37920
1753.06509	0.38644
1751.13652	0.39539
1749.20796	0.40656
1747.27939	0.41686
1745.35083	0.42551
1743.42227	0.43479
1741.49370	0.44515
1739.56514	0.45748
1737.63657	0.46990
1735.70801	0.48101
1733.77944	0.49777
1731.85088	0.51697
1729.92231	0.53155
1727.99375	0.54646
1726.06519	0.56283
1724.13662	0.58101
1722.20806	0.60077
1720.27949	0.61928
1718.35093	0.64139
1716.42236	0.67385
1714.49380	0.70394
1712.56523	0.72779
1710.63667	0.75099
1708.70811	0.77644
1706.77954	0.80600
1704.85098	0.84126
1702.92241	0.87224
1700.99385	0.90283
1699.06528	0.94908
1697.13672	0.99173
1695.20815	1.03447
1693.27959	1.07535
1691.35103	1.10868
1689.42246	1.14824
1687.49390	1.19035
1685.56533	1.23072
1683.63677	1.29260
1681.70820	1.35615
1679.77964	1.39635
1677.85107	1.43544
1675.92251	1.48090
1673.99395	1.53601
1672.06538	1.58442
1670.13682	1.63327
1668.20825	1.69760
1666.27969	1.74857
1664.35112	1.79076
1662.42256	1.84439
1660.49399	1.90524
1658.56543	1.95214
1656.63687	1.99018
1654.70830	2.02615
1652.77974	2.08445
1650.85117	2.14029
1648.92261	2.16019
1646.99404	2.18594
1645.06548	2.21635
1643.13691	2.23741
1641.20835	2.25037
1639.27979	2.26183
1637.35122	2.26972
1635.42266	2.27164
1633.49409	2.26566
1631.56553	2.25410
1629.63696	2.23926
1627.70840	2.21171
1625.77983	2.17901
1623.85127	2.13974
1621.92271	2.09101
1619.99414	2.04660
1618.06558	2.00367
1616.13701	1.94138
1614.20845	1.87618
1612.27988	1.82737
1610.35132	1.77769
1608.42275	1.72333
1606.49419	1.66925
1604.56562	1.61975
1602.63706	1.57182
1600.70850	1.52420
1598.77993	1.48013
1596.85137	1.43878
1594.92280	1.39827
1592.99424	1.35885
1591.06567	1.32288
1589.13711	1.28918
1587.20854	1.25745
1585.27998	1.22794
1583.35142	1.20039
1581.42285	1.17523
1579.49429	1.15357
1577.56572	1.13405
1575.63716	1.11011
1573.70859	1.08855
1571.78003	1.07457
1569.85146	1.06022
1567.92290	1.04350
1565.99434	1.03016
1564.06577	1.01971
1562.13721	1.01177
1560.20864	1.00665
1558.28008	0.99963
1556.35151	0.99166
1554.42295	0.98594
1552.49438	0.98053
1550.56582	0.97453
1548.63726	0.96720
1546.70869	0.95976
1544.78013	0.95219
1542.85156	0.94328
1540.92300	0.93051
1538.99443	0.90926
1537.06587	0.89243
1535.13730	0.88145
1533.20874	0.86780
1531.28018	0.85273
1529.35161	0.84176
1527.42305	0.83206
1525.49448	0.82205
1523.56592	0.81334
1521.63735	0.80502
1519.70879	0.79597
1517.78022	0.78787
1515.85166	0.77858
1513.92310	0.76896
1511.99453	0.76128
1510.06597	0.75517
1508.13740	0.74989
1506.20884	0.74010
1504.28027	0.72942
1502.35171	0.72319
1500.42314	0.71861
1498.49458	0.71436
1496.56602	0.70903
1494.63745	0.70292
1492.70889	0.69829
1490.78032	0.69519
1488.85176	0.69180
1486.92319	0.68726
1484.99463	0.68298
1483.06606	0.67991
1481.13750	0.67763
1479.20894	0.67582
1477.28037	0.67498
1475.35181	0.67511
1473.42324	0.67537
1471.49468	0.67387
1469.56611	0.67073
1467.63755	0.66800
1465.70898	0.66618
1463.78042	0.66447
1461.85186	0.66273
1459.92329	0.66205
1457.99473	0.66238
1456.06616	0.66108
1454.13760	0.65743
1452.20903	0.65412
1450.28047	0.65143
1448.35190	0.64910
1446.42334	0.64663
1444.49478	0.64404
1442.56621	0.64151
1440.63765	0.63917
1438.70908	0.63733
1436.78052	0.63538
1434.85195	0.63258
1432.92339	0.62999
1430.99482	0.62823
1429.06626	0.62690
1427.13770	0.62589
1425.20913	0.62546
1423.28057	0.62542
1421.35200	0.62539
1419.42344	0.62536
1417.49487	0.62447
1415.56631	0.62254
1413.63774	0.62086
1411.70918	0.61975
1409.78062	0.61913
1407.85205	0.61893
1405.92349	0.61905
1403.99492	0.61895
1402.06636	0.61823
1400.13779	0.61741
1398.20923	0.61649
1396.28066	0.61500
1394.35210	0.61248
1392.42354	0.60921
1390.49497	0.60635
1388.56641	0.60393
1386.63784	0.60102
1384.70928	0.59758
1382.78071	0.59451
1380.85215	0.59204
1378.92358	0.58998
1376.99502	0.58834
1375.06646	0.58729
1373.13789	0.58635
1371.20933	0.58524
1369.28076	0.58445
1367.35220	0.58370
1365.42363	0.58260
1363.49507	0.58146
1361.56650	0.58016
1359.63794	0.57847
1357.70937	0.57698
1355.78081	0.57584
1353.85225	0.57489
1351.92368	0.57408
1349.99512	0.57332
1348.06655	0.57244
1346.13799	0.57141
1344.20942	0.57047
1342.28086	0.56996
1340.35229	0.56984
1338.42373	0.56929
1336.49517	0.56803
1334.56660	0.56680
1332.63804	0.56593
1330.70947	0.56543
1328.78091	0.56524
1326.85234	0.56515
1324.92378	0.56504
1322.99521	0.56517
1321.06665	0.56558
1319.13809	0.56587
1317.20952	0.56563
1315.28096	0.56504
1313.35239	0.56444
1311.42383	0.56377
1309.49526	0.56298
1307.56670	0.56219
1305.63813	0.56140
1303.70957	0.56056
1301.78101	0.55971
1299.85244	0.55885
1297.92388	0.55783
1295.99531	0.55672
1294.06675	0.55574
1292.13818	0.55490
1290.20962	0.55414
1288.28105	0.55345
1286.35249	0.55267
1284.42393	0.55170
1282.49536	0.55063
1280.56680	0.54966
1278.63823	0.54878
1276.70967	0.54796
1274.78110	0.54719
1272.85254	0.54659
1270.92397	0.54614
1268.99541	0.54557
1267.06685	0.54492
1265.13828	0.54432
1263.20972	0.54376
1261.28115	0.54330
1259.35259	0.54284
1257.42402	0.54220
1255.49546	0.54165
1253.56689	0.54145
1251.63833	0.54145
1249.70977	0.54139
1247.78120	0.54117
1245.85264	0.54082
1243.92407	0.54045
1241.99551	0.53997
1240.06694	0.53918
1238.13838	0.53804
1236.20981	0.53671
1234.28125	0.53526
1232.35269	0.53387
1230.42412	0.53272
1228.49556	0.53161
1226.56699	0.53020
1224.63843	0.52868
1222.70986	0.52739
1220.78130	0.52632
1218.85273	0.52529
1216.92417	0.52427
1214.99561	0.52334
1213.06704	0.52256
1211.13848	0.52195
1209.20991	0.52151
1207.28135	0.52111
1205.35278	0.52054
1203.42422	0.51978
1201.49565	0.51897
1199.56709	0.51822
1197.63853	0.51757
1195.70996	0.51695
1193.78140	0.51638
1191.85283	0.51589
1189.92427	0.51554
1187.99570	0.51523
1186.06714	0.51496
1184.13857	0.51491
1182.21001	0.51522
1180.28145	0.51580
1178.35288	0.51663
1176.42432	0.51773
1174.49575	0.51888
1172.56719	0.51980
1170.63862	0.52038
1168.71006	0.52082
1166.78149	0.52141
1164.85293	0.52213
1162.92437	0.52272
1160.99580	0.52309
1159.06724	0.52318
1157.13867	0.52290
1155.21011	0.52231
1153.28154	0.52144
1151.35298	0.52006
1149.42441	0.51797
1147.49585	0.51547
1145.56729	0.51284
1143.63872	0.51018
1141.71016	0.50769
1139.78159	0.50560
1137.85303	0.50397
1135.92446	0.50266
1133.99590	0.50185
1132.06733	0.50140
1130.13877	0.50085
1128.21021	0.50022
1126.28164	0.49976
1124.35308	0.49932
1122.42451	0.49893
1120.49595	0.49861
1118.56738	0.49834
1116.63882	0.49829
1114.71025	0.49860
1112.78169	0.49926
1110.85312	0.50010
1108.92456	0.50101
1106.99600	0.50199
1105.06743	0.50303
1103.13887	0.50409
1101.21030	0.50537
1099.28174	0.50717
1097.35317	0.50938
1095.42461	0.51197
1093.49604	0.51530
1091.56748	0.51983
1089.63892	0.52576
1087.71035	0.53298
1085.78179	0.54122
1083.85322	0.54967
1081.92466	0.55717
1079.99609	0.56285
1078.06753	0.56623
1076.13896	0.56671
1074.21040	0.56374
1072.28184	0.55792
1070.35327	0.55095
1068.42471	0.54386
1066.49614	0.53691
1064.56758	0.53057
1062.63901	0.52507
1060.71045	0.52038
1058.78188	0.51628
1056.85332	0.51237
1054.92476	0.50895
1052.99619	0.50639
1051.06763	0.50441
1049.13906	0.50282
1047.21050	0.50179
1045.28193	0.50138
1043.35337	0.50145
1041.42480	0.50181
1039.49624	0.50205
1037.56768	0.50199
1035.63911	0.50173
1033.71055	0.50125
1031.78198	0.50049
1029.85342	0.49941
1027.92485	0.49796
1025.99629	0.49650
1024.06772	0.49553
1022.13916	0.49499
1020.21060	0.49476
1018.28203	0.49487
1016.35347	0.49500
1014.42490	0.49494
1012.49634	0.49474
1010.56777	0.49446
1008.63921	0.49443
1006.71064	0.49493
1004.78208	0.49598
1002.85352	0.49766
1000.92495	0.50002
998.99639	0.50313
997.06782	0.50695
995.13926	0.51107
993.21069	0.51494
991.28213	0.51811
989.35356	0.52029
987.42500	0.52140
985.49644	0.52162
983.56787	0.52151
981.63931	0.52166
979.71074	0.52242
977.78218	0.52378
975.85361	0.52567
973.92505	0.52806
971.99648	0.53095
970.06792	0.53427
968.13936	0.53789
966.21079	0.54159
964.28223	0.54549
962.35366	0.55002
960.42510	0.55508
958.49653	0.56023
956.56797	0.56551
954.63940	0.57120
952.71084	0.57751
950.78228	0.58424
948.85371	0.59084
946.92515	0.59708
944.99658	0.60296
943.06802	0.60864
941.13945	0.61443
939.21089	0.62043
937.28232	0.62609
935.35376	0.63117
933.42520	0.63645
931.49663	0.64242
929.56807	0.64854
927.63950	0.65465
925.71094	0.66095
923.78237	0.66719
921.85381	0.67320
919.92524	0.67910
917.99668	0.68525
916.06812	0.69217
914.13955	0.69975
912.21099	0.70807
910.28242	0.71673
908.35386	0.72440
906.42529	0.73145
904.49673	0.73978
902.56816	0.74960
900.63960	0.75898
898.71104	0.76780
896.78247	0.77749
894.85391	0.78704
892.92534	0.79619
890.99678	0.80626
889.06821	0.81652
887.13965	0.82615
885.21108	0.83619
883.28252	0.84695
881.35396	0.85814
879.42539	0.87107
877.49683	0.88469
875.56826	0.89697
873.63970	0.90913
871.71113	0.92135
869.78257	0.93175
867.85400	0.94038
865.92544	0.94967
863.99687	0.96178
862.06831	0.97517
860.13975	0.98633
858.21118	0.99545
856.28262	1.00501
854.35405	1.01661
852.42549	1.02952
850.49692	1.04117
848.56836	1.05188
846.63979	1.06318
844.71123	1.07452
842.78267	1.08610
840.85410	1.09922
838.92554	1.11378
836.99697	1.12968
835.06841	1.14376
833.13984	1.15230
831.21128	1.16121
829.28271	1.17479
827.35415	1.18997
825.42559	1.20459
823.49702	1.21556
821.56846	1.22349
819.63989	1.23014
817.71133	1.23192
815.78276	1.23836
813.85420	1.25814
811.92563	1.27515
809.99707	1.28098
808.06851	1.28606
806.13994	1.29754
804.21138	1.31675
802.28281	1.33828
800.35425	1.36148
798.42568	1.38201
796.49712	1.38348
794.56855	1.38164
792.63999	1.39082
790.71143	1.41415
788.78286	1.48225
786.85430	1.57204
784.92573	1.60927
782.99717	1.60552
781.06860	1.59960
779.14004	1.64792
777.21147	1.81133
775.28291	2.00529
773.35435	1.78719
771.42578	1.53959
769.49722	1.38889
767.56865	1.32751
765.64009	1.34993
763.71152	1.40248
761.78296	1.42430
759.85439	1.46359
757.92583	1.53144
755.99727	1.45998
754.06870	1.39193
752.14014	1.46956
750.21157	1.40551
748.28301	1.15001
746.35444	1.05345
744.42588	1.17269
742.49731	1.53143
740.56875	1.69560
738.64019	1.46540
736.71162	1.28760
734.78306	1.01999
732.85449	0.80437
730.92593	0.79717
728.99736	0.94846
727.06880	0.84948
725.14023	0.65387
723.21167	0.60081
721.28311	0.56432
719.35454	0.39592
717.42598	0.18139
715.49741	0.07634
713.56885	0.05209
711.64028	-0.05444
709.71172	-0.15979
707.78315	-0.01904
705.85459	0.22527
703.92603	0.32846
701.99746	0.33021
700.06890	0.24974
698.14033	0.14173
696.21177	0.05702
694.28320	0.02799
692.35464	0.14580
690.42607	0.39426
688.49751	0.46575
686.56895	0.32500
684.64038	0.29329
682.71182	0.36215
680.78325	0.39191
678.85469	0.35521
676.92612	0.31596
674.99756	0.29858
673.06899	0.34778
671.14043	0.46756
669.21187	0.46581
667.28330	0.29136
665.35474	0.19723
663.42617	0.24022
661.49761	0.38991
659.56904	0.73834
657.64048	1.06010
655.71191	0.62523
653.78335	0.29892
651.85479	0.11692
649.92622	0.11306
647.99766	0.23846
646.06909	0.29320
644.14053	0.29335
642.21196	0.36711
640.28340	0.45193
638.35483	0.41790
636.42627	0.29525
634.49771	0.22978
632.56914	0.26511
630.64058	0.31257
628.71201	0.29326
626.78345	0.24632
624.85488	0.21872
622.92632	0.27204
620.99775	0.38556
619.06919	0.37104
617.14062	0.24937
615.21206	0.23107
613.28350	0.24796
611.35493	0.24425
609.42637	0.22698
607.49780	0.24746
605.56924	0.34005
603.64067	0.42604
601.71211	0.38728
599.78354	0.28420
597.85498	0.19224
595.92642	0.15793
593.99785	0.17997
592.06929	0.26117
590.14072	0.37835
588.21216	0.43656
586.28359	0.38016
584.35503	0.20458
582.42646	0.10399
580.49790	0.21717
578.56934	0.49116
576.64077	0.45562
574.71221	0.32967
572.78364	0.27163
570.85508	0.23294
568.92651	0.20608
566.99795	0.18877
565.06938	0.16750
563.14082	0.17131
561.21226	0.20495
559.28369	0.23054
557.35513	0.26543
555.42656	0.31023
553.49800	0.28497
551.56943	0.25794
549.64087	0.28734
547.71230	0.27597
545.78374	0.25529
543.85518	0.30910
541.92661	0.35833
539.99805	0.29666
538.06948	0.21481
536.14092	0.21699
534.21235	0.28347
532.28379	0.26958
530.35522	0.20046
528.42666	0.20318
526.49810	0.31673
524.56953	0.41217
522.64097	0.36201
520.71240	0.32334
518.78384	0.30724
516.85527	0.26876
514.92671	0.26293
512.99814	0.30487
511.06958	0.35193
509.14102	0.41069
507.21245	0.43001
505.28389	0.33176
503.35532	0.25650
501.42676	0.24718
499.49819	0.32178
