3997.91411	0.06912
3995.98555	0.06940
3994.05698	0.06939
3992.12842	0.06957
3990.19985	0.06993
3988.27129	0.07035
3986.34272	0.07057
3984.41416	0.07076
3982.48560	0.07122
3980.55703	0.07157
3978.62847	0.07168
3976.69990	0.07207
3974.77134	0.07277
3972.84277	0.07320
3970.91421	0.07318
3968.98564	0.07281
3967.05708	0.07246
3965.12852	0.07272
3963.19995	0.07324
3961.27139	0.07356
3959.34282	0.07402
3957.41426	0.07441
3955.48569	0.07426
3953.55713	0.07401
3951.62856	0.07427
3949.70000	0.07482
3947.77144	0.07502
3945.84287	0.07472
3943.91431	0.07448
3941.98574	0.07456
3940.05718	0.07452
3938.12861	0.07440
3936.20005	0.07442
3934.27148	0.07459
3932.34292	0.07517
3930.41436	0.07585
3928.48579	0.07568
3926.55723	0.07530
3924.62866	0.07569
3922.70010	0.07599
3920.77153	0.07560
3918.84297	0.07530
3916.91440	0.07531
3914.98584	0.07490
3913.05728	0.07407
3911.12871	0.07351
3909.20015	0.07322
3907.27158	0.07360
3905.34302	0.07544
3903.41445	0.07812
3901.48589	0.07937
3899.55732	0.07870
3897.62876	0.07726
3895.70020	0.07585
3893.77163	0.07559
3891.84307	0.07671
3889.91450	0.07722
3887.98594	0.07647
3886.05737	0.07658
3884.12881	0.07739
3882.20024	0.07757
3880.27168	0.07746
3878.34312	0.07664
3876.41455	0.07577
3874.48599	0.07660
3872.55742	0.07855
3870.62886	0.07993
3868.70029	0.07994
3866.77173	0.07914
3864.84316	0.07965
3862.91460	0.08079
3860.98604	0.08007
3859.05747	0.07909
3857.12891	0.07968
3855.20034	0.08139
3853.27178	0.08394
3851.34321	0.08544
3849.41465	0.08386
3847.48608	0.08212
3845.55752	0.08171
3843.62896	0.08266
3841.70039	0.08469
3839.77183	0.08738
3837.84326	0.08972
3835.91470	0.08995
3833.98613	0.08851
3832.05757	0.08733
3830.12900	0.08700
3828.20044	0.08753
3826.27187	0.08896
3824.34331	0.09042
3822.41475	0.09176
3820.48618	0.09398
3818.55762	0.09528
3816.62905	0.09539
3814.70049	0.09576
3812.77192	0.09521
3810.84336	0.09422
3808.91479	0.09443
3806.98623	0.09658
3805.05767	0.09935
3803.12910	0.10120
3801.20054	0.10323
3799.27197	0.10470
3797.34341	0.10469
3795.41484	0.10459
3793.48628	0.10446
3791.55771	0.10459
3789.62915	0.10543
3787.70059	0.10684
3785.77202	0.10885
3783.84346	0.11088
3781.91489	0.11227
3779.98633	0.11400
3778.05776	0.11648
3776.12920	0.11805
3774.20063	0.11880
3772.27207	0.12025
3770.34351	0.12283
3768.41494	0.12568
3766.48638	0.12774
3764.55781	0.12934
3762.62925	0.13072
3760.70068	0.13280
3758.77212	0.13625
3756.84355	0.13927
3754.91499	0.14116
3752.98643	0.14397
3751.05786	0.14918
3749.12930	0.15489
3747.20073	0.15729
3745.27217	0.15895
3743.34360	0.16233
3741.41504	0.16501
3739.48647	0.16654
3737.55791	0.16939
3735.62935	0.17509
3733.70078	0.18193
3731.77222	0.18592
3729.84365	0.18830
3727.91509	0.19164
3725.98652	0.19692
3724.05796	0.20367
3722.12939	0.21095
3720.20083	0.21852
3718.27227	0.22564
3716.34370	0.23272
3714.41514	0.24080
3712.48657	0.25143
3710.55801	0.26583
3708.62944	0.27955
3706.70088	0.28969
3704.77231	0.29970
3702.84375	0.31272
3700.91519	0.33039
3698.98662	0.34942
3697.05806	0.36716
3695.12949	0.38598
3693.20093	0.40611
3691.27236	0.42841
3689.34380	0.45764
3687.41523	0.49276
3685.48667	0.52296
3683.55811	0.54943
3681.62954	0.57819
3679.70098	0.61049
3677.77241	0.64458
3675.84385	0.68531
3673.91528	0.73969
3671.98672	0.78312
3670.05815	0.82139
3668.12959	0.87460
3666.20103	0.92305
3664.27246	0.96327
3662.34390	1.00699
3660.41533	1.05489
3658.48677	1.10193
3656.55820	1.15177
3654.62964	1.20807
3652.70107	1.25585
3650.77251	1.29741
3648.84395	1.35488
3646.91538	1.42465
3644.98682	1.47436
3643.05825	1.51264
3641.12969	1.55315
3639.20112	1.59810
3637.27256	1.64299
3635.34399	1.68685
3633.41543	1.73115
3631.48687	1.77261
3629.55830	1.81421
3627.62974	1.86846
3625.70117	1.91926
3623.77261	1.95377
3621.84404	1.98668
3619.91548	2.02429
3617.98691	2.07078
3616.05835	2.11649
3614.12979	2.15417
3612.20122	2.19278
3610.27266	2.23187
3608.34409	2.27163
3606.41553	2.31441
3604.48696	2.35534
3602.55840	2.39168
3600.62983	2.42926
3598.70127	2.46976
3596.77271	2.51003
3594.84414	2.55132
3592.91558	2.59416
3590.98701	2.63448
3589.05845	2.67070
3587.12988	2.71303
3585.20132	2.76180
3583.27275	2.80418
3581.34419	2.84176
3579.41562	2.88059
3577.48706	2.92239
3575.55850	2.96713
3573.62993	3.01350
3571.70137	3.05606
3569.77280	3.09507
3567.84424	3.13732
3565.91567	3.18861
3563.98711	3.23794
3562.05854	3.28007
3560.12998	3.32192
3558.20142	3.36452
3556.27285	3.40802
3554.34429	3.45106
3552.41572	3.49591
3550.48716	3.54409
3548.55859	3.59265
3546.63003	3.64108
3544.70146	3.69236
3542.77290	3.74228
3540.84434	3.78538
3538.91577	3.82659
3536.98721	3.87181
3535.05864	3.92352
3533.13008	3.97600
3531.20151	4.02385
3529.27295	4.06836
3527.34438	4.11397
3525.41582	4.16128
3523.48726	4.20996
3521.55869	4.25994
3519.63013	4.30578
3517.70156	4.34995
3515.77300	4.39596
3513.84443	4.44304
3511.91587	4.49336
3509.98730	4.54708
3508.05874	4.59763
3506.13018	4.64009
3504.20161	4.67999
3502.27305	4.72823
3500.34448	4.78345
3498.41592	4.83451
3496.48735	4.88137
3494.55879	4.92355
3492.63022	4.96456
3490.70166	5.01537
3488.77310	5.06840
3486.84453	5.10966
3484.91597	5.14733
3482.98740	5.19351
3481.05884	5.24518
3479.13027	5.29738
3477.20171	5.35176
3475.27314	5.40188
3473.34458	5.44693
3471.41602	5.50116
3469.48745	5.55699
3467.55889	5.60138
3465.63032	5.64355
3463.70176	5.68894
3461.77319	5.73325
3459.84463	5.78014
3457.91606	5.83134
3455.98750	5.88290
3454.05894	5.93831
3452.13037	6.00095
3450.20181	6.05639
3448.27324	6.09296
3446.34468	6.12844
3444.41611	6.17463
3442.48755	6.23047
3440.55898	6.29400
3438.63042	6.35148
3436.70186	6.39171
3434.77329	6.43273
3432.84473	6.48308
3430.91616	6.51689
3428.98760	6.54714
3427.05903	6.61511
3425.13047	6.71637
3423.20190	6.79202
3421.27334	6.80929
3419.34478	6.79979
3417.41621	6.82284
3415.48765	6.89082
3413.55908	6.94881
3411.63052	6.97857
3409.70195	7.01192
3407.77339	7.07600
3405.84482	7.15544
3403.91626	7.23228
3401.98770	7.29564
3400.05913	7.32163
3398.13057	7.32972
3396.20200	7.34170
3394.27344	7.34776
3392.34487	7.36149
3390.41631	7.40548
3388.48774	7.44849
3386.55918	7.48794
3384.63062	7.53250
3382.70205	7.56493
3380.77349	7.59269
3378.84492	7.63025
3376.91636	7.69406
3374.98779	7.75781
3373.05923	7.75539
3371.13066	7.69677
3369.20210	7.68873
3367.27354	7.76551
3365.34497	7.87090
3363.41641	7.91773
3361.48784	7.91955
3359.55928	7.93845
3357.63071	7.92126
3355.70215	7.89237
3353.77358	7.92075
3351.84502	7.98964
3349.91646	8.02831
3347.98789	8.02278
3346.05933	8.00539
3344.13076	7.99302
3342.20220	8.02326
3340.27363	8.07944
3338.34507	8.07098
3336.41650	7.98860
3334.48794	7.97076
3332.55937	8.03171
3330.63081	8.06240
3328.70225	8.05058
3326.77368	8.06949
3324.84512	8.09632
3322.91655	8.04993
3320.98799	8.00419
3319.05942	8.02214
3317.13086	8.07787
3315.20229	8.13272
3313.27373	8.18055
3311.34517	8.18096
3309.41660	8.12709
3307.48804	8.11368
3305.55947	8.13282
3303.63091	8.15243
3301.70234	8.20965
3299.77378	8.26160
3297.84521	8.22180
3295.91665	8.16516
3293.98809	8.17078
3292.05952	8.20794
3290.13096	8.19447
3288.20239	8.13976
3286.27383	8.11920
3284.34526	8.10121
3282.41670	8.10635
3280.48813	8.16033
3278.55957	8.23723
3276.63101	8.30636
3274.70244	8.28607
3272.77388	8.17994
3270.84531	8.12466
3268.91675	8.19872
3266.98818	8.27825
3265.05962	8.27709
3263.13105	8.31842
3261.20249	8.34505
3259.27393	8.21711
3257.34536	8.12231
3255.41680	8.17452
3253.48823	8.24373
3251.55967	8.19816
3249.63110	8.10121
3247.70254	8.09074
3245.77397	8.16811
3243.84541	8.31639
3241.91685	8.51573
3239.98828	8.59857
3238.05972	8.44750
3236.13115	8.25199
3234.20259	8.17195
3232.27402	8.15041
3230.34546	8.14955
3228.41689	8.15494
3226.48833	8.09511
3224.55977	8.03262
3222.63120	8.06960
3220.70264	8.09362
3218.77407	7.97914
3216.84551	7.84737
3214.91694	7.81045
3212.98838	7.87232
3211.05981	7.94481
3209.13125	7.93964
3207.20269	7.91968
3205.27412	7.91666
3203.34556	7.83785
3201.41699	7.66312
3199.48843	7.53503
3197.55986	7.54006
3195.63130	7.60370
3193.70273	7.62111
3191.77417	7.55239
3189.84561	7.46204
3187.91704	7.41703
3185.98848	7.36551
3184.05991	7.28262
3182.13135	7.23475
3180.20278	7.22934
3178.27422	7.21432
3176.34565	7.17223
3174.41709	7.09587
3172.48853	7.00231
3170.55996	6.93052
3168.63140	6.87415
3166.70283	6.81482
3164.77427	6.76530
3162.84570	6.71827
3160.91714	6.64260
3158.98857	6.54565
3157.06001	6.44507
3155.13145	6.35686
3153.20288	6.29923
3151.27432	6.26222
3149.34575	6.22128
3147.41719	6.16369
3145.48862	6.08890
3143.56006	6.01088
3141.63149	5.94101
3139.70293	5.86731
3137.77437	5.79145
3135.84580	5.71996
3133.91724	5.64334
3131.98867	5.56521
3130.06011	5.49643
3128.13154	5.43661
3126.20298	5.37533
3124.27441	5.30729
3122.34585	5.23580
3120.41729	5.16471
3118.48872	5.09873
3116.56016	5.03497
3114.63159	4.96341
3112.70303	4.88703
3110.77446	4.81346
3108.84590	4.74175
3106.91733	4.67353
3104.98877	4.60918
3103.06021	4.54551
3101.13164	4.48200
3099.20308	4.41974
3097.27451	4.35824
3095.34595	4.29607
3093.41738	4.23447
3091.48882	4.17510
3089.56025	4.11682
3087.63169	4.05666
3085.70312	3.99377
3083.77456	3.93075
3081.84600	3.86947
3079.91743	3.80980
3077.98887	3.75258
3076.06030	3.69716
3074.13174	3.64104
3072.20317	3.58426
3070.27461	3.52729
3068.34604	3.47066
3066.41748	3.41555
3064.48892	3.36153
3062.56035	3.30813
3060.63179	3.25591
3058.70322	3.20403
3056.77466	3.15126
3054.84609	3.09832
3052.91753	3.04700
3050.98896	2.99799
3049.06040	2.94982
3047.13184	2.90143
3045.20327	2.85257
3043.27471	2.80315
3041.34614	2.75478
3039.41758	2.70897
3037.48901	2.66468
3035.56045	2.62071
3033.63188	2.57707
3031.70332	2.53304
3029.77476	2.48884
3027.84619	2.44627
3025.91763	2.40545
3023.98906	2.36533
3022.06050	2.32506
3020.13193	2.28423
3018.20337	2.24358
3016.27480	2.20429
3014.34624	2.16634
3012.41768	2.12864
3010.48911	2.09121
3008.56055	2.05480
3006.63198	2.01954
3004.70342	1.98519
3002.77485	1.95119
3000.84629	1.91756
2998.91772	1.88466
2996.98916	1.85260
2995.06060	1.82128
2993.13203	1.79057
2991.20347	1.76066
2989.27490	1.73165
2987.34634	1.70343
2985.41777	1.67592
2983.48921	1.64900
2981.56064	1.62234
2979.63208	1.59581
2977.70352	1.56981
2975.77495	1.54443
2973.84639	1.51950
2971.91782	1.49503
2969.98926	1.47118
2968.06069	1.44784
2966.13213	1.42421
2964.20356	1.40030
2962.27500	1.37673
2960.34644	1.35332
2958.41787	1.33010
2956.48931	1.30705
2954.56074	1.28395
2952.63218	1.26105
2950.70361	1.23851
2948.77505	1.21651
2946.84648	1.19482
2944.91792	1.17290
2942.98936	1.15124
2941.06079	1.13051
2939.13223	1.11006
2937.20366	1.08943
2935.27510	1.06849
2933.34653	1.04704
2931.41797	1.02587
2929.48940	1.00597
2927.56084	0.98697
2925.63228	0.96808
2923.70371	0.94974
2921.77515	0.93239
2919.84658	0.91600
2917.91802	0.90068
2915.98945	0.88613
2914.06089	0.87175
2912.13232	0.85747
2910.20376	0.84346
2908.27520	0.82958
2906.34663	0.81569
2904.41807	0.80219
2902.48950	0.78918
2900.56094	0.77620
2898.63237	0.76326
2896.70381	0.75079
2894.77524	0.73888
2892.84668	0.72726
2890.91812	0.71568
2888.98955	0.70447
2887.06099	0.69385
2885.13242	0.68365
2883.20386	0.67390
2881.27529	0.66445
2879.34673	0.65494
2877.41816	0.64551
2875.48960	0.63614
2873.56104	0.62633
2871.63247	0.61598
2869.70391	0.60517
2867.77534	0.59380
2865.84678	0.58192
2863.91821	0.56976
2861.98965	0.55743
2860.06108	0.54528
2858.13252	0.53369
2856.20396	0.52288
2854.27539	0.51294
2852.34683	0.50398
2850.41826	0.49603
2848.48970	0.48865
2846.56113	0.48186
2844.63257	0.47591
2842.70400	0.47030
2840.77544	0.46479
2838.84687	0.45949
2836.91831	0.45420
2834.98975	0.44871
2833.06118	0.44305
2831.13262	0.43725
2829.20405	0.43145
2827.27549	0.42557
2825.34692	0.41956
2823.41836	0.41373
2821.48979	0.40819
2819.56123	0.40264
2817.63267	0.39688
2815.70410	0.39115
2813.77554	0.38553
2811.84697	0.38001
2809.91841	0.37477
2807.98984	0.36968
2806.06128	0.36453
2804.13271	0.35945
2802.20415	0.35453
2800.27559	0.34965
2798.34702	0.34480
2796.41846	0.33998
2794.48989	0.33524
2792.56133	0.33065
2790.63276	0.32612
2788.70420	0.32164
2786.77563	0.31734
2784.84707	0.31319
2782.91851	0.30909
2780.98994	0.30487
2779.06138	0.30054
2777.13281	0.29639
2775.20425	0.29256
2773.27568	0.28888
2771.34712	0.28515
2769.41855	0.28142
2767.48999	0.27779
2765.56143	0.27433
2763.63286	0.27089
2761.70430	0.26748
2759.77573	0.26428
2757.84717	0.26132
2755.91860	0.25832
2753.99004	0.25512
2752.06147	0.25209
2750.13291	0.24931
2748.20435	0.24635
2746.27578	0.24325
2744.34722	0.24042
2742.41865	0.23781
2740.49009	0.23515
2738.56152	0.23244
2736.63296	0.22984
2734.70439	0.22736
2732.77583	0.22494
2730.84727	0.22249
2728.91870	0.22002
2726.99014	0.21757
2725.06157	0.21534
2723.13301	0.21342
2721.20444	0.21160
2719.27588	0.20969
2717.34731	0.20761
2715.41875	0.20540
2713.49019	0.20338
2711.56162	0.20169
2709.63306	0.19996
2707.70449	0.19806
2705.77593	0.19642
2703.84736	0.19496
2701.91880	0.19337
2699.99023	0.19176
2698.06167	0.19022
2696.13311	0.18877
2694.20454	0.18740
2692.27598	0.18598
2690.34741	0.18458
2688.41885	0.18327
2686.49028	0.18187
2684.56172	0.18042
2682.63315	0.17911
2680.70459	0.17803
2678.77603	0.17719
2676.84746	0.17633
2674.91890	0.17527
2672.99033	0.17404
2671.06177	0.17270
2669.13320	0.17143
2667.20464	0.17033
2665.27607	0.16933
2663.34751	0.16837
2661.41895	0.16749
2659.49038	0.16672
2657.56182	0.16599
2655.63325	0.16515
2653.70469	0.16427
2651.77612	0.16349
2649.84756	0.16283
2647.91899	0.16215
2645.99043	0.16152
2644.06187	0.16102
2642.13330	0.16051
2640.20474	0.15992
2638.27617	0.15934
2636.34761	0.15881
2634.41904	0.15820
2632.49048	0.15745
2630.56191	0.15682
2628.63335	0.15643
2626.70479	0.15615
2624.77622	0.15579
2622.84766	0.15540
2620.91909	0.15514
2618.99053	0.15490
2617.06196	0.15462
2615.13340	0.15436
2613.20483	0.15410
2611.27627	0.15382
2609.34771	0.15364
2607.41914	0.15367
2605.49058	0.15369
2603.56201	0.15350
2601.63345	0.15328
2599.70488	0.15321
2597.77632	0.15318
2595.84775	0.15317
2593.91919	0.15329
2591.99062	0.15340
2590.06206	0.15332
2588.13350	0.15325
2586.20493	0.15336
2584.27637	0.15352
2582.34780	0.15359
2580.41924	0.15368
2578.49067	0.15397
2576.56211	0.15433
2574.63354	0.15461
2572.70498	0.15486
2570.77642	0.15519
2568.84785	0.15549
2566.91929	0.15573
2564.99072	0.15607
2563.06216	0.15641
2561.13359	0.15662
2559.20503	0.15693
2557.27646	0.15740
2555.34790	0.15784
2553.41934	0.15822
2551.49077	0.15873
2549.56221	0.15935
2547.63364	0.15988
2545.70508	0.16031
2543.77651	0.16078
2541.84795	0.16131
2539.91938	0.16181
2537.99082	0.16238
2536.06226	0.16299
2534.13369	0.16357
2532.20513	0.16411
2530.27656	0.16466
2528.34800	0.16528
2526.41943	0.16595
2524.49087	0.16657
2522.56230	0.16718
2520.63374	0.16791
2518.70518	0.16878
2516.77661	0.16959
2514.84805	0.17021
2512.91948	0.17078
2510.99092	0.17151
2509.06235	0.17239
2507.13379	0.17318
2505.20522	0.17386
2503.27666	0.17459
2501.34810	0.17532
2499.41953	0.17600
2497.49097	0.17665
2495.56240	0.17736
2493.63384	0.17816
2491.70527	0.17895
2489.77671	0.17977
2487.84814	0.18066
2485.91958	0.18152
2483.99102	0.18236
2482.06245	0.18320
2480.13389	0.18393
2478.20532	0.18460
2476.27676	0.18538
2474.34819	0.18627
2472.41963	0.18717
2470.49106	0.18809
2468.56250	0.18898
2466.63394	0.18974
2464.70537	0.19054
2462.77681	0.19148
2460.84824	0.19241
2458.91968	0.19319
2456.99111	0.19395
2455.06255	0.19489
2453.13398	0.19587
2451.20542	0.19673
2449.27686	0.19765
2447.34829	0.19869
2445.41973	0.19961
2443.49116	0.20040
2441.56260	0.20125
2439.63403	0.20226
2437.70547	0.20336
2435.77690	0.20440
2433.84834	0.20533
2431.91978	0.20628
2429.99121	0.20730
2428.06265	0.20824
2426.13408	0.20911
2424.20552	0.21010
2422.27695	0.21124
2420.34839	0.21235
2418.41982	0.21340
2416.49126	0.21440
2414.56270	0.21545
2412.63413	0.21665
2410.70557	0.21787
2408.77700	0.21901
2406.84844	0.22010
2404.91987	0.22125
2402.99131	0.22253
2401.06274	0.22381
2399.13418	0.22495
2397.20562	0.22607
2395.27705	0.22721
2393.34849	0.22833
2391.41992	0.22946
2389.49136	0.23061
2387.56279	0.23178
2385.63423	0.23286
2383.70566	0.23370
2381.77710	0.23435
2379.84854	0.23485
2377.91997	0.23532
2375.99141	0.23588
2374.06284	0.23628
2372.13428	0.23638
2370.20571	0.23667
2368.27715	0.23713
2366.34858	0.23738
2364.42002	0.23757
2362.49146	0.23836
2360.56289	0.24015
2358.63433	0.24250
2356.70576	0.24489
2354.77720	0.24732
2352.84863	0.25027
2350.92007	0.25320
2348.99150	0.25512
2347.06294	0.25602
2345.13437	0.25631
2343.20581	0.25673
2341.27725	0.25808
2339.34868	0.25980
2337.42012	0.26149
2335.49155	0.26317
2333.56299	0.26476
2331.63442	0.26654
2329.70586	0.26838
2327.77729	0.27035
2325.84873	0.27255
2323.92017	0.27472
2321.99160	0.27698
2320.06304	0.27926
2318.13447	0.28132
2316.20591	0.28326
2314.27734	0.28524
2312.34878	0.28716
2310.42021	0.28890
2308.49165	0.29062
2306.56309	0.29271
2304.63452	0.29499
2302.70596	0.29698
2300.77739	0.29882
2298.84883	0.30080
2296.92026	0.30284
2294.99170	0.30481
2293.06313	0.30680
2291.13457	0.30884
2289.20601	0.31091
2287.27744	0.31298
2285.34888	0.31496
2283.42031	0.31688
2281.49175	0.31885
2279.56318	0.32089
2277.63462	0.32287
2275.70605	0.32483
2273.77749	0.32680
2271.84893	0.32877
2269.92036	0.33074
2267.99180	0.33270
2266.06323	0.33462
2264.13467	0.33661
2262.20610	0.33872
2260.27754	0.34086
2258.34897	0.34298
2256.42041	0.34508
2254.49185	0.34718
2252.56328	0.34927
2250.63472	0.35135
2248.70615	0.35351
2246.77759	0.35583
2244.84902	0.35810
2242.92046	0.36016
2240.99189	0.36220
2239.06333	0.36432
2237.13477	0.36649
2235.20620	0.36868
2233.27764	0.37092
2231.34907	0.37321
2229.42051	0.37545
2227.49194	0.37758
2225.56338	0.37967
2223.63481	0.38178
2221.70625	0.38389
2219.77769	0.38594
2217.84912	0.38802
2215.92056	0.39027
2213.99199	0.39262
2212.06343	0.39493
2210.13486	0.39704
2208.20630	0.39898
2206.27773	0.40093
2204.34917	0.40298
2202.42061	0.40505
2200.49204	0.40699
2198.56348	0.40890
2196.63491	0.41094
2194.70635	0.41309
2192.77778	0.41513
2190.84922	0.41699
2188.92065	0.41877
2186.99209	0.42051
2185.06353	0.42216
2183.13496	0.42379
2181.20640	0.42545
2179.27783	0.42705
2177.34927	0.42865
2175.42070	0.43031
2173.49214	0.43186
2171.56357	0.43315
2169.63501	0.43436
2167.70645	0.43571
2165.77788	0.43715
2163.84932	0.43857
2161.92075	0.43990
2159.99219	0.44102
2158.06362	0.44192
2156.13506	0.44275
2154.20649	0.44358
2152.27793	0.44435
2150.34937	0.44508
2148.42080	0.44579
2146.49224	0.44650
2144.56367	0.44716
2142.63511	0.44768
2140.70654	0.44801
2138.77798	0.44827
2136.84941	0.44860
2134.92085	0.44884
2132.99229	0.44888
2131.06372	0.44884
2129.13516	0.44875
2127.20659	0.44861
2125.27803	0.44841
2123.34946	0.44810
2121.42090	0.44772
2119.49233	0.44727
2117.56377	0.44675
2115.63521	0.44618
2113.70664	0.44558
2111.77808	0.44485
2109.84951	0.44401
2107.92095	0.44308
2105.99238	0.44203
2104.06382	0.44090
2102.13525	0.43967
2100.20669	0.43836
2098.27812	0.43712
2096.34956	0.43586
2094.42100	0.43443
2092.49243	0.43299
2090.56387	0.43158
2088.63530	0.43003
2086.70674	0.42833
2084.77817	0.42646
2082.84961	0.42451
2080.92104	0.42264
2078.99248	0.42082
2077.06392	0.41891
2075.13535	0.41687
2073.20679	0.41475
2071.27822	0.41265
2069.34966	0.41065
2067.42109	0.40854
2065.49253	0.40639
2063.56396	0.40424
2061.63540	0.40197
2059.70684	0.39958
2057.77827	0.39707
2055.84971	0.39444
2053.92114	0.39187
2051.99258	0.38942
2050.06401	0.38700
2048.13545	0.38457
2046.20688	0.38211
2044.27832	0.37962
2042.34976	0.37707
2040.42119	0.37441
2038.49263	0.37169
2036.56406	0.36902
2034.63550	0.36638
2032.70693	0.36370
2030.77837	0.36097
2028.84980	0.35825
2026.92124	0.35563
2024.99268	0.35295
2023.06411	0.35011
2021.13555	0.34731
2019.20698	0.34476
2017.27842	0.34234
2015.34985	0.33975
2013.42129	0.33701
2011.49272	0.33424
2009.56416	0.33147
2007.63560	0.32866
2005.70703	0.32591
2003.77847	0.32335
2001.84990	0.32086
1999.92134	0.31838
1997.99277	0.31584
1996.06421	0.31324
1994.13564	0.31083
1992.20708	0.30864
1990.27852	0.30620
1988.34995	0.30350
1986.42139	0.30086
1984.49282	0.29844
1982.56426	0.29619
1980.63569	0.29389
1978.70713	0.29157
1976.77856	0.28934
1974.85000	0.28716
1972.92144	0.28499
1970.99287	0.28293
1969.06431	0.28101
1967.13574	0.27911
1965.20718	0.27703
1963.27861	0.27489
1961.35005	0.27291
1959.42148	0.27104
1957.49292	0.26926
1955.56436	0.26754
1953.63579	0.26575
1951.70723	0.26393
1949.77866	0.26223
1947.85010	0.26070
1945.92153	0.25936
1943.99297	0.25812
1942.06440	0.25671
1940.13584	0.25497
1938.20728	0.25320
1936.27871	0.25169
1934.35015	0.25035
1932.42158	0.24910
1930.49302	0.24794
1928.56445	0.24691
1926.63589	0.24593
1924.70732	0.24503
1922.77876	0.24415
1920.85020	0.24314
1918.92163	0.24216
1916.99307	0.24120
1915.06450	0.24009
1913.13594	0.23913
1911.20737	0.23854
1909.27881	0.23801
1907.35024	0.23725
1905.42168	0.23639
1903.49312	0.23560
1901.56455	0.23488
1899.63599	0.23429
1897.70742	0.23392
1895.77886	0.23369
1893.85029	0.23347
1891.92173	0.23329
1889.99316	0.23324
1888.06460	0.23292
1886.13604	0.23234
1884.20747	0.23190
1882.27891	0.23156
1880.35034	0.23135
1878.42178	0.23123
1876.49321	0.23114
1874.56465	0.23115
1872.63608	0.23142
1870.70752	0.23204
1868.77896	0.23291
1866.85039	0.23318
1864.92183	0.23277
1862.99326	0.23251
1861.06470	0.23254
1859.13613	0.23272
1857.20757	0.23294
1855.27900	0.23325
1853.35044	0.23362
1851.42187	0.23411
1849.49331	0.23480
1847.56475	0.23577
1845.63618	0.23698
1843.70762	0.23813
1841.77905	0.23861
1839.85049	0.23876
1837.92192	0.23939
1835.99336	0.24027
1834.06479	0.24115
1832.13623	0.24232
1830.20767	0.24406
1828.27910	0.24559
1826.35054	0.24647
1824.42197	0.24760
1822.49341	0.24867
1820.56484	0.24961
1818.63628	0.25078
1816.70771	0.25236
1814.77915	0.25401
1812.85059	0.25585
1810.92202	0.25797
1808.99346	0.25993
1807.06489	0.26164
1805.13633	0.26339
1803.20776	0.26563
1801.27920	0.26827
1799.35063	0.27115
1797.42207	0.27369
1795.49351	0.27614
1793.56494	0.27911
1791.63638	0.28277
1789.70781	0.28574
1787.77925	0.28780
1785.85068	0.29069
1783.92212	0.29439
1781.99355	0.29838
1780.06499	0.30254
1778.13643	0.30670
1776.20786	0.31074
1774.27930	0.31540
1772.35073	0.32156
1770.42217	0.32754
1768.49360	0.33208
1766.56504	0.33660
1764.63647	0.34163
1762.70791	0.34749
1760.77935	0.35479
1758.85078	0.36136
1756.92222	0.36792
1754.99365	0.37508
1753.06509	0.38166
1751.13652	0.38984
1749.20796	0.40025
1747.27939	0.41015
1745.35083	0.41861
1743.42227	0.42774
1741.49370	0.43807
1739.56514	0.45043
1737.63657	0.46281
1735.70801	0.47376
1733.77944	0.49045
1731.85088	0.51009
1729.92231	0.52514
1727.99375	0.54026
1726.06519	0.55668
1724.13662	0.57484
1722.20806	0.59463
1720.27949	0.61308
1718.35093	0.63493
1716.42236	0.66706
1714.49380	0.69706
1712.56523	0.72103
1710.63667	0.74443
1708.70811	0.77001
1706.77954	0.79961
1704.85098	0.83511
1702.92241	0.86658
1700.99385	0.89805
1699.06528	0.94547
1697.13672	0.98908
1695.20815	1.03356
1693.27959	1.07678
1691.35103	1.11211
1689.42246	1.15382
1687.49390	1.19842
1685.56533	1.24169
1683.63677	1.30827
1681.70820	1.37699
1679.77964	1.42045
1677.85107	1.46204
1675.92251	1.51058
1673.99395	1.57141
1672.06538	1.62633
1670.13682	1.68046
1668.20825	1.74996
1666.27969	1.80670
1664.35112	1.85651
1662.42256	1.92141
1660.49399	1.99686
1658.56543	2.05633
1656.63687	2.10273
1654.70830	2.14234
1652.77974	2.20212
1650.85117	2.26257
1648.92261	2.28586
1646.99404	2.31135
1645.06548	2.33604
1643.13691	2.35279
1641.20835	2.36147
1639.27979	2.36720
1637.35122	2.36870
1635.42266	2.36609
1633.49409	2.35836
1631.56553	2.34363
1629.63696	2.32492
1627.70840	2.29432
1625.77983	2.25889
1623.85127	2.21439
1621.92271	2.15928
1619.99414	2.11017
1618.06558	2.06258
1616.13701	1.99531
1614.20845	1.92756
1612.27988	1.87559
1610.35132	1.82047
1608.42275	1.76105
1606.49419	1.70320
1604.56562	1.65022
1602.63706	1.59971
1600.70850	1.55111
1598.77993	1.50668
1596.85137	1.46503
1594.92280	1.42460
1592.99424	1.38551
1591.06567	1.34983
1589.13711	1.31701
1587.20854	1.28707
1585.27998	1.25975
1583.35142	1.23476
1581.42285	1.21243
1579.49429	1.19359
1577.56572	1.17722
1575.63716	1.15809
1573.70859	1.14148
1571.78003	1.13106
1569.85146	1.12115
1567.92290	1.11068
1565.99434	1.10337
1564.06577	1.09879
1562.13721	1.09608
1560.20864	1.09616
1558.28008	1.10148
1556.35151	1.10705
1554.42295	1.10978
1552.49438	1.11252
1550.56582	1.11392
1548.63726	1.11271
1546.70869	1.10852
1544.78013	1.10087
1542.85156	1.08945
1540.92300	1.07107
1538.99443	1.04011
1537.06587	1.01657
1535.13730	1.00079
1533.20874	0.97955
1531.28018	0.95620
1529.35161	0.93951
1527.42305	0.92448
1525.49448	0.90894
1523.56592	0.89574
1521.63735	0.88348
1519.70879	0.87090
1517.78022	0.86006
1515.85166	0.84720
1513.92310	0.83336
1511.99453	0.82143
1510.06597	0.81112
1508.13740	0.80156
1506.20884	0.78581
1504.28027	0.77092
1502.35171	0.76258
1500.42314	0.75581
1498.49458	0.74889
1496.56602	0.74054
1494.63745	0.73191
1492.70889	0.72540
1490.78032	0.72009
1488.85176	0.71396
1486.92319	0.70759
1484.99463	0.70231
1483.06606	0.69846
1481.13750	0.69575
1479.20894	0.69381
1477.28037	0.69292
1475.35181	0.69325
1473.42324	0.69433
1471.49468	0.69409
1469.56611	0.69186
1467.63755	0.68945
1465.70898	0.68776
1463.78042	0.68672
1461.85186	0.68630
1459.92329	0.68693
1457.99473	0.68865
1456.06616	0.68883
1454.13760	0.68610
1452.20903	0.68332
1450.28047	0.68074
1448.35190	0.67813
1446.42334	0.67529
1444.49478	0.67255
1442.56621	0.67011
1440.63765	0.66767
1438.70908	0.66518
1436.78052	0.66200
1434.85195	0.65795
1432.92339	0.65463
1430.99482	0.65263
1429.06626	0.65169
1427.13770	0.65147
1425.20913	0.65196
1423.28057	0.65321
1421.35200	0.65455
1419.42344	0.65574
1417.49487	0.65597
1415.56631	0.65479
1413.63774	0.65379
1411.70918	0.65382
1409.78062	0.65481
1407.85205	0.65638
1405.92349	0.65845
1403.99492	0.66043
1402.06636	0.66123
1400.13779	0.66092
1398.20923	0.65966
1396.28066	0.65726
1394.35210	0.65334
1392.42354	0.64835
1390.49497	0.64358
1388.56641	0.63909
1386.63784	0.63402
1384.70928	0.62840
1382.78071	0.62301
1380.85215	0.61806
1378.92358	0.61387
1376.99502	0.61090
1375.06646	0.60913
1373.13789	0.60784
1371.20933	0.60677
1369.28076	0.60598
1367.35220	0.60502
1365.42363	0.60374
1363.49507	0.60245
1361.56650	0.60101
1359.63794	0.59930
1357.70937	0.59769
1355.78081	0.59633
1353.85225	0.59520
1351.92368	0.59429
1349.99512	0.59356
1348.06655	0.59290
1346.13799	0.59212
1344.20942	0.59125
1342.28086	0.59057
1340.35229	0.59023
1338.42373	0.58981
1336.49517	0.58910
1334.56660	0.58853
1332.63804	0.58832
1330.70947	0.58842
1328.78091	0.58885
1326.85234	0.58958
1324.92378	0.59053
1322.99521	0.59159
1321.06665	0.59253
1319.13809	0.59339
1317.20952	0.59407
1315.28096	0.59428
1313.35239	0.59399
1311.42383	0.59330
1309.49526	0.59245
1307.56670	0.59178
1305.63813	0.59132
1303.70957	0.59078
1301.78101	0.59009
1299.85244	0.58922
1297.92388	0.58808
1295.99531	0.58672
1294.06675	0.58531
1292.13818	0.58396
1290.20962	0.58274
1288.28105	0.58150
1286.35249	0.58014
1284.42393	0.57878
1282.49536	0.57736
1280.56680	0.57579
1278.63823	0.57429
1276.70967	0.57302
1274.78110	0.57188
1272.85254	0.57087
1270.92397	0.57011
1268.99541	0.56942
1267.06685	0.56860
1265.13828	0.56763
1263.20972	0.56658
1261.28115	0.56572
1259.35259	0.56516
1257.42402	0.56470
1255.49546	0.56424
1253.56689	0.56399
1251.63833	0.56408
1249.70977	0.56436
1247.78120	0.56444
1245.85264	0.56417
1243.92407	0.56363
1241.99551	0.56277
1240.06694	0.56139
1238.13838	0.55948
1236.20981	0.55722
1234.28125	0.55495
1232.35269	0.55283
1230.42412	0.55073
1228.49556	0.54848
1226.56699	0.54613
1224.63843	0.54397
1222.70986	0.54215
1220.78130	0.54052
1218.85273	0.53893
1216.92417	0.53747
1214.99561	0.53625
1213.06704	0.53523
1211.13848	0.53442
1209.20991	0.53382
1207.28135	0.53325
1205.35278	0.53252
1203.42422	0.53174
1201.49565	0.53091
1199.56709	0.52997
1197.63853	0.52905
1195.70996	0.52818
1193.78140	0.52744
1191.85283	0.52688
1189.92427	0.52632
1187.99570	0.52571
1186.06714	0.52538
1184.13857	0.52557
1182.21001	0.52620
1180.28145	0.52711
1178.35288	0.52840
1176.42432	0.53004
1174.49575	0.53168
1172.56719	0.53283
1170.63862	0.53327
1168.71006	0.53317
1166.78149	0.53295
1164.85293	0.53296
1162.92437	0.53312
1160.99580	0.53324
1159.06724	0.53330
1157.13867	0.53303
1155.21011	0.53218
1153.28154	0.53087
1151.35298	0.52912
1149.42441	0.52686
1147.49585	0.52420
1145.56729	0.52131
1143.63872	0.51850
1141.71016	0.51617
1139.78159	0.51452
1137.85303	0.51352
1135.92446	0.51294
1133.99590	0.51272
1132.06733	0.51291
1130.13877	0.51327
1128.21021	0.51336
1126.28164	0.51298
1124.35308	0.51250
1122.42451	0.51232
1120.49595	0.51242
1118.56738	0.51254
1116.63882	0.51272
1114.71025	0.51312
1112.78169	0.51372
1110.85312	0.51450
1108.92456	0.51551
1106.99600	0.51654
1105.06743	0.51758
1103.13887	0.51872
1101.21030	0.51998
1099.28174	0.52152
1097.35317	0.52335
1095.42461	0.52563
1093.49604	0.52906
1091.56748	0.53388
1089.63892	0.53973
1087.71035	0.54663
1085.78179	0.55460
1083.85322	0.56289
1081.92466	0.57040
1079.99609	0.57609
1078.06753	0.57892
1076.13896	0.57833
1074.21040	0.57470
1072.28184	0.56927
1070.35327	0.56294
1068.42471	0.55610
1066.49614	0.54928
1064.56758	0.54293
1062.63901	0.53719
1060.71045	0.53209
1058.78188	0.52764
1056.85332	0.52375
1054.92476	0.52051
1052.99619	0.51780
1051.06763	0.51549
1049.13906	0.51386
1047.21050	0.51289
1045.28193	0.51216
1043.35337	0.51172
1041.42480	0.51161
1039.49624	0.51152
1037.56768	0.51127
1035.63911	0.51075
1033.71055	0.51001
1031.78198	0.50904
1029.85342	0.50765
1027.92485	0.50586
1025.99629	0.50420
1024.06772	0.50306
1022.13916	0.50229
1020.21060	0.50176
1018.28203	0.50149
1016.35347	0.50131
1014.42490	0.50101
1012.49634	0.50058
1010.56777	0.50032
1008.63921	0.50048
1006.71064	0.50104
1004.78208	0.50204
1002.85352	0.50374
1000.92495	0.50612
998.99639	0.50911
997.06782	0.51291
995.13926	0.51724
993.21069	0.52139
991.28213	0.52481
989.35356	0.52685
987.42500	0.52731
985.49644	0.52709
983.56787	0.52712
981.63931	0.52744
979.71074	0.52792
977.78218	0.52877
975.85361	0.53047
973.92505	0.53303
971.99648	0.53585
970.06792	0.53874
968.13936	0.54218
966.21079	0.54619
964.28223	0.55028
962.35366	0.55442
960.42510	0.55903
958.49653	0.56424
956.56797	0.56987
954.63940	0.57589
952.71084	0.58217
950.78228	0.58828
948.85371	0.59422
946.92515	0.60041
944.99658	0.60663
943.06802	0.61253
941.13945	0.61854
939.21089	0.62479
937.28232	0.63092
935.35376	0.63682
933.42520	0.64266
931.49663	0.64833
929.56807	0.65380
927.63950	0.65941
925.71094	0.66512
923.78237	0.67068
921.85381	0.67637
919.92524	0.68247
917.99668	0.68898
916.06812	0.69600
914.13955	0.70360
912.21099	0.71165
910.28242	0.71971
908.35386	0.72740
906.42529	0.73465
904.49673	0.74238
902.56816	0.75169
900.63960	0.76216
898.71104	0.77235
896.78247	0.78145
894.85391	0.79036
892.92534	0.79995
890.99678	0.80954
889.06821	0.81914
887.13965	0.82991
885.21108	0.84195
883.28252	0.85348
881.35396	0.86356
879.42539	0.87368
877.49683	0.88434
875.56826	0.89579
873.63970	0.90900
871.71113	0.92218
869.78257	0.93358
867.85400	0.94445
865.92544	0.95590
863.99687	0.96754
862.06831	0.97875
860.13975	0.98905
858.21118	0.99948
856.28262	1.01174
854.35405	1.02367
852.42549	1.03351
850.49692	1.04458
848.56836	1.05713
846.63979	1.06916
844.71123	1.08166
842.78267	1.09340
840.85410	1.10145
838.92554	1.10803
836.99697	1.11813
835.06841	1.13142
833.13984	1.14753
831.21128	1.16528
829.28271	1.17664
827.35415	1.18492
825.42559	1.19916
823.49702	1.21428
821.56846	1.22737
819.63989	1.23913
817.71133	1.24682
815.78276	1.25676
813.85420	1.26731
811.92563	1.27295
809.99707	1.28596
808.06851	1.30576
806.13994	1.31682
804.21138	1.32337
802.28281	1.33388
800.35425	1.34078
798.42568	1.35205
796.49712	1.37755
794.56855	1.39660
792.63999	1.41464
790.71143	1.45121
788.78286	1.45042
786.85430	1.40290
784.92573	1.39816
782.99717	1.44469
781.06860	1.47920
779.14004	1.47033
777.21147	1.46529
775.28291	1.46419
773.35435	1.41261
771.42578	1.36229
769.49722	1.35527
767.56865	1.35332
765.64009	1.32863
763.71152	1.42437
761.78296	1.76506
759.85439	1.62830
757.92583	1.34835
755.99727	1.30126
754.06870	1.31167
752.14014	1.28431
750.21157	1.29131
748.28301	1.28997
746.35444	1.21419
744.42588	1.18037
742.49731	1.24413
740.56875	1.18469
738.64019	1.00884
736.71162	0.97733
734.78306	1.07380
732.85449	1.03694
730.92593	0.91892
728.99736	1.18612
727.06880	4.36241
725.14023	1.41072
723.21167	0.73500
721.28311	0.24757
719.35454	0.06889
717.42598	0.20652
715.49741	0.27036
713.56885	0.38509
711.64028	0.45116
709.71172	0.44159
707.78315	0.50065
705.85459	0.75338
703.92603	1.59524
701.99746	1.11046
700.06890	0.79750
698.14033	0.72254
696.21177	0.60541
694.28320	0.51607
692.35464	0.57521
690.42607	0.76507
688.49751	0.60180
686.56895	0.45480
684.64038	0.48545
682.71182	0.50388
680.78325	0.45755
678.85469	0.56307
676.92612	1.06101
674.99756	0.98689
673.06899	0.63582
671.14043	0.57576
669.21187	0.57868
667.28330	0.62434
665.35474	0.63827
663.42617	0.56323
661.49761	0.55436
659.56904	0.60242
657.64048	0.64310
655.71191	0.73199
653.78335	0.79664
651.85479	0.64961
649.92622	0.47429
647.99766	0.39983
646.06909	0.40637
644.14053	0.43071
642.21196	0.46735
640.28340	0.45641
638.35483	0.38364
636.42627	0.36932
634.49771	0.43610
632.56914	0.49430
630.64058	0.48963
628.71201	0.46000
626.78345	0.47501
624.85488	0.64391
622.92632	0.94094
620.99775	0.73932
619.06919	0.48332
617.14062	0.34883
615.21206	0.35453
613.28350	0.51647
611.35493	0.59152
609.42637	0.43759
607.49780	0.34393
605.56924	0.32362
603.64067	0.36532
601.71211	0.46489
599.78354	0.59891
597.85498	0.57622
595.92642	0.45363
593.99785	0.45640
592.06929	0.63565
590.14072	1.03441
588.21216	1.10208
586.28359	0.66255
584.35503	0.47562
582.42646	0.41576
580.49790	0.41040
578.56934	0.45039
576.64077	0.48766
574.71221	0.48022
572.78364	0.50360
570.85508	0.54268
568.92651	0.59213
566.99795	0.68613
565.06938	0.55846
563.14082	0.39002
561.21226	0.35734
559.28369	0.36874
557.35513	0.35792
555.42656	0.37712
553.49800	0.42995
551.56943	0.44846
549.64087	0.44867
547.71230	0.44778
545.78374	0.42699
543.85518	0.41718
541.92661	0.43186
539.99805	0.41626
538.06948	0.34588
536.14092	0.30466
534.21235	0.33865
532.28379	0.38511
530.35522	0.39476
528.42666	0.45997
526.49810	0.66169
524.56953	3.14742
522.64097	3.13585
520.71240	0.85620
518.78384	0.64190
516.85527	0.55010
514.92671	0.46953
512.99814	0.39262
511.06958	0.32788
509.14102	0.30307
507.21245	0.31387
505.28389	0.34317
503.35532	0.37348
501.42676	0.34078
499.49819	0.26839
