3997.91411	0.07370
3995.98555	0.07387
3994.05698	0.07433
3992.12842	0.07468
3990.19985	0.07493
3988.27129	0.07535
3986.34272	0.07570
3984.41416	0.07578
3982.48560	0.07579
3980.55703	0.07588
3978.62847	0.07608
3976.69990	0.07642
3974.77134	0.07683
3972.84277	0.07719
3970.91421	0.07745
3968.98564	0.07737
3967.05708	0.07716
3965.12852	0.07730
3963.19995	0.07763
3961.27139	0.07783
3959.34282	0.07801
3957.41426	0.07819
3955.48569	0.07824
3953.55713	0.07803
3951.62856	0.07783
3949.70000	0.07786
3947.77144	0.07803
3945.84287	0.07839
3943.91431	0.07880
3941.98574	0.07884
3940.05718	0.07849
3938.12861	0.07815
3936.20005	0.07798
3934.27148	0.07805
3932.34292	0.07854
3930.41436	0.07913
3928.48579	0.07915
3926.55723	0.07890
3924.62866	0.07892
3922.70010	0.07894
3920.77153	0.07876
3918.84297	0.07852
3916.91440	0.07835
3914.98584	0.07809
3913.05728	0.07750
3911.12871	0.07696
3909.20015	0.07679
3907.27158	0.07720
3905.34302	0.07812
3903.41445	0.07903
3901.48589	0.07955
3899.55732	0.07970
3897.62876	0.07911
3895.70020	0.07809
3893.77163	0.07778
3891.84307	0.07861
3889.91450	0.07954
3887.98594	0.07945
3886.05737	0.07923
3884.12881	0.07938
3882.20024	0.07926
3880.27168	0.07900
3878.34312	0.07910
3876.41455	0.07927
3874.48599	0.07953
3872.55742	0.08018
3870.62886	0.08109
3868.70029	0.08158
3866.77173	0.08138
3864.84316	0.08165
3862.91460	0.08231
3860.98604	0.08206
3859.05747	0.08152
3857.12891	0.08161
3855.20034	0.08237
3853.27178	0.08418
3851.34321	0.08589
3849.41465	0.08520
3847.48608	0.08397
3845.55752	0.08367
3843.62896	0.08475
3841.70039	0.08688
3839.77183	0.08898
3837.84326	0.08998
3835.91470	0.08984
3833.98613	0.08966
3832.05757	0.08976
3830.12900	0.09006
3828.20044	0.09044
3826.27187	0.09107
3824.34331	0.09189
3822.41475	0.09279
3820.48618	0.09461
3818.55762	0.09624
3816.62905	0.09639
3814.70049	0.09644
3812.77192	0.09671
3810.84336	0.09713
3808.91479	0.09799
3806.98623	0.09946
3805.05767	0.10102
3803.12910	0.10212
3801.20054	0.10372
3799.27197	0.10577
3797.34341	0.10690
3795.41484	0.10780
3793.48628	0.10861
3791.55771	0.10923
3789.62915	0.11011
3787.70059	0.11116
3785.77202	0.11227
3783.84346	0.11364
3781.91489	0.11533
3779.98633	0.11730
3778.05776	0.11930
3776.12920	0.12064
3774.20063	0.12158
3772.27207	0.12307
3770.34351	0.12544
3768.41494	0.12788
3766.48638	0.12960
3764.55781	0.13164
3762.62925	0.13385
3760.70068	0.13573
3758.77212	0.13830
3756.84355	0.14145
3754.91499	0.14395
3752.98643	0.14641
3751.05786	0.15022
3749.12930	0.15451
3747.20073	0.15663
3745.27217	0.15837
3743.34360	0.16163
3741.41504	0.16457
3739.48647	0.16662
3737.55791	0.16900
3735.62935	0.17251
3733.70078	0.17763
3731.77222	0.18245
3729.84365	0.18589
3727.91509	0.18918
3725.98652	0.19401
3724.05796	0.20074
3722.12939	0.20822
3720.20083	0.21623
3718.27227	0.22487
3716.34370	0.23368
3714.41514	0.24221
3712.48657	0.25186
3710.55801	0.26476
3708.62944	0.27828
3706.70088	0.28951
3704.77231	0.30035
3702.84375	0.31316
3700.91519	0.32999
3698.98662	0.34871
3697.05806	0.36690
3695.12949	0.38629
3693.20093	0.40661
3691.27236	0.42878
3689.34380	0.45820
3687.41523	0.49409
3685.48667	0.52458
3683.55811	0.55072
3681.62954	0.57922
3679.70098	0.61143
3677.77241	0.64522
3675.84385	0.68546
3673.91528	0.74030
3671.98672	0.78521
3670.05815	0.82434
3668.12959	0.87789
3666.20103	0.92682
3664.27246	0.96752
3662.34390	1.01135
3660.41533	1.05897
3658.48677	1.10576
3656.55820	1.15532
3654.62964	1.21101
3652.70107	1.25779
3650.77251	1.29801
3648.84395	1.35464
3646.91538	1.42567
3644.98682	1.47663
3643.05825	1.51502
3641.12969	1.55516
3639.20112	1.59986
3637.27256	1.64433
3635.34399	1.68703
3633.41543	1.73001
3631.48687	1.77031
3629.55830	1.80993
3627.62974	1.86296
3625.70117	1.91490
3623.77261	1.94954
3621.84404	1.98215
3619.91548	2.02068
3617.98691	2.06835
3616.05835	2.11409
3614.12979	2.15153
3612.20122	2.19054
3610.27266	2.22962
3608.34409	2.26822
3606.41553	2.30986
3604.48696	2.35038
3602.55840	2.38646
3600.62983	2.42381
3598.70127	2.46469
3596.77271	2.50542
3594.84414	2.54633
3592.91558	2.58843
3590.98701	2.62811
3589.05845	2.66382
3587.12988	2.70609
3585.20132	2.75525
3583.27275	2.79766
3581.34419	2.83578
3579.41562	2.87586
3577.48706	2.91838
3575.55850	2.96272
3573.62993	3.00741
3571.70137	3.04823
3569.77280	3.08700
3567.84424	3.12926
3565.91567	3.18092
3563.98711	3.23176
3562.05854	3.27275
3560.12998	3.31173
3558.20142	3.35438
3556.27285	3.40194
3554.34429	3.44991
3552.41572	3.49649
3550.48716	3.54233
3548.55859	3.58696
3546.63003	3.63160
3544.70146	3.68017
3542.77290	3.73012
3540.84434	3.77739
3538.91577	3.82297
3536.98721	3.86546
3535.05864	3.90841
3533.13008	3.95626
3531.20151	4.00748
3529.27295	4.05736
3527.34438	4.10392
3525.41582	4.14854
3523.48726	4.19486
3521.55869	4.24648
3519.63013	4.30017
3517.70156	4.34992
3515.77300	4.39289
3513.84443	4.43527
3511.91587	4.48278
3509.98730	4.53256
3508.05874	4.58087
3506.13018	4.62757
3504.20161	4.67479
3502.27305	4.72727
3500.34448	4.78418
3498.41592	4.83757
3496.48735	4.88705
3494.55879	4.93422
3492.63022	4.97743
3490.70166	5.01872
3488.77310	5.06305
3486.84453	5.11029
3484.91597	5.16157
3482.98740	5.21386
3481.05884	5.25727
3479.13027	5.29960
3477.20171	5.35069
3475.27314	5.40572
3473.34458	5.46274
3471.41602	5.51642
3469.48745	5.56003
3467.55889	5.59760
3465.63032	5.63546
3463.70176	5.67493
3461.77319	5.71372
3459.84463	5.76465
3457.91606	5.83400
3455.98750	5.89473
3454.05894	5.93275
3452.13037	5.97211
3450.20181	6.03295
3448.27324	6.11145
3446.34468	6.18421
3444.41611	6.22147
3442.48755	6.23706
3440.55898	6.26124
3438.63042	6.30527
3436.70186	6.36791
3434.77329	6.43977
3432.84473	6.50037
3430.91616	6.54127
3428.98760	6.57668
3427.05903	6.60604
3425.13047	6.64284
3423.20190	6.69840
3421.27334	6.76019
3419.34478	6.81333
3417.41621	6.86439
3415.48765	6.91632
3413.55908	6.95401
3411.63052	7.00472
3409.70195	7.08732
3407.77339	7.16264
3405.84482	7.17812
3403.91626	7.17199
3401.98770	7.21192
3400.05913	7.27715
3398.13057	7.29695
3396.20200	7.28467
3394.27344	7.31594
3392.34487	7.37919
3390.41631	7.43680
3388.48774	7.48898
3386.55918	7.55481
3384.63062	7.60955
3382.70205	7.64532
3380.77349	7.66455
3378.84492	7.64638
3376.91636	7.65098
3374.98779	7.68438
3373.05923	7.70660
3371.13066	7.72624
3369.20210	7.75638
3367.27354	7.78747
3365.34497	7.85264
3363.41641	7.92670
3361.48784	7.91358
3359.55928	7.86224
3357.63071	7.83268
3355.70215	7.82178
3353.77358	7.84890
3351.84502	7.94457
3349.91646	8.03545
3347.98789	8.04623
3346.05933	8.00576
3344.13076	7.95900
3342.20220	7.94286
3340.27363	7.96512
3338.34507	8.00463
3336.41650	8.01714
3334.48794	8.06145
3332.55937	8.11522
3330.63081	8.04478
3328.70225	7.91197
3326.77368	7.87607
3324.84512	7.96056
3322.91655	8.03662
3320.98799	8.08176
3319.05942	8.15739
3317.13086	8.20020
3315.20229	8.13780
3313.27373	8.05387
3311.34517	8.03512
3309.41660	8.06270
3307.48804	8.08329
3305.55947	8.08874
3303.63091	8.11856
3301.70234	8.16071
3299.77378	8.18521
3297.84521	8.19422
3295.91665	8.22921
3293.98809	8.26820
3292.05952	8.23392
3290.13096	8.15142
3288.20239	8.11893
3286.27383	8.18043
3284.34526	8.29191
3282.41670	8.34810
3280.48813	8.28907
3278.55957	8.23146
3276.63101	8.19677
3274.70244	8.15937
3272.77388	8.15995
3270.84531	8.20793
3268.91675	8.34893
3266.98818	8.46992
3265.05962	8.39272
3263.13105	8.24729
3261.20249	8.17151
3259.27393	8.15780
3257.34536	8.17194
3255.41680	8.18445
3253.48823	8.20490
3251.55967	8.22551
3249.63110	8.17587
3247.70254	8.05766
3245.77397	7.99896
3243.84541	8.05643
3241.91685	8.11628
3239.98828	8.18256
3238.05972	8.30625
3236.13115	8.29848
3234.20259	8.12995
3232.27402	7.98785
3230.34546	7.93520
3228.41689	8.01217
3226.48833	8.16923
3224.55977	8.21437
3222.63120	8.14737
3220.70264	8.06442
3218.77407	7.99288
3216.84551	7.95240
3214.91694	7.93229
3212.98838	7.92350
3211.05981	7.90485
3209.13125	7.86167
3207.20269	7.81997
3205.27412	7.81065
3203.34556	7.83104
3201.41699	7.85925
3199.48843	7.86140
3197.55986	7.76236
3195.63130	7.58758
3193.70273	7.50088
3191.77417	7.51746
3189.84561	7.50569
3187.91704	7.45260
3185.98848	7.41548
3184.05991	7.39324
3182.13135	7.35579
3180.20278	7.27561
3178.27422	7.19443
3176.34565	7.15386
3174.41709	7.11647
3172.48853	7.06270
3170.55996	7.00210
3168.63140	6.93496
3166.70283	6.86835
3164.77427	6.78766
3162.84570	6.68704
3160.91714	6.60634
3158.98857	6.56827
3157.06001	6.53285
3155.13145	6.45913
3153.20288	6.36367
3151.27432	6.28298
3149.34575	6.22219
3147.41719	6.16730
3145.48862	6.11494
3143.56006	6.05879
3141.63149	5.99085
3139.70293	5.91216
3137.77437	5.83524
3135.84580	5.76872
3133.91724	5.70219
3131.98867	5.63170
3130.06011	5.56648
3128.13154	5.50364
3126.20298	5.43018
3124.27441	5.34672
3122.34585	5.26467
3120.41729	5.18866
3118.48872	5.11657
3116.56016	5.04840
3114.63159	4.98568
3112.70303	4.92345
3110.77446	4.85655
3108.84590	4.79035
3106.91733	4.72591
3104.98877	4.65769
3103.06021	4.58992
3101.13164	4.52406
3099.20308	4.45479
3097.27451	4.38594
3095.34595	4.32177
3093.41738	4.25694
3091.48882	4.19086
3089.56025	4.12839
3087.63169	4.06819
3085.70312	4.00725
3083.77456	3.94542
3081.84600	3.88423
3079.91743	3.82395
3077.98887	3.76330
3076.06030	3.70278
3074.13174	3.64432
3072.20317	3.58848
3070.27461	3.53361
3068.34604	3.47866
3066.41748	3.42314
3064.48892	3.36642
3062.56035	3.31011
3060.63179	3.25634
3058.70322	3.20390
3056.77466	3.15165
3054.84609	3.09996
3052.91753	3.04824
3050.98896	2.99729
3049.06040	2.94809
3047.13184	2.89926
3045.20327	2.84982
3043.27471	2.80090
3041.34614	2.75382
3039.41758	2.70800
3037.48901	2.66207
3035.56045	2.61615
3033.63188	2.57165
3031.70332	2.52853
3029.77476	2.48493
3027.84619	2.44055
3025.91763	2.39750
3023.98906	2.35630
3022.06050	2.31537
3020.13193	2.27457
3018.20337	2.23489
3016.27480	2.19626
3014.34624	2.15830
3012.41768	2.12082
3010.48911	2.08382
3008.56055	2.04741
3006.63198	2.01122
3004.70342	1.97516
3002.77485	1.93998
3000.84629	1.90616
2998.91772	1.87324
2996.98916	1.84074
2995.06060	1.80895
2993.13203	1.77798
2991.20347	1.74733
2989.27490	1.71694
2987.34634	1.68724
2985.41777	1.65822
2983.48921	1.62979
2981.56064	1.60202
2979.63208	1.57446
2977.70352	1.54713
2975.77495	1.52059
2973.84639	1.49478
2971.91782	1.46926
2969.98926	1.44392
2968.06069	1.41899
2966.13213	1.39467
2964.20356	1.37068
2962.27500	1.34689
2960.34644	1.32357
2958.41787	1.30052
2956.48931	1.27762
2954.56074	1.25524
2952.63218	1.23314
2950.70361	1.21068
2948.77505	1.18797
2946.84648	1.16586
2944.91792	1.14486
2942.98936	1.12454
2941.06079	1.10464
2939.13223	1.08523
2937.20366	1.06597
2935.27510	1.04662
2933.34653	1.02760
2931.41797	1.00905
2929.48940	0.99083
2927.56084	0.97302
2925.63228	0.95543
2923.70371	0.93783
2921.77515	0.92080
2919.84658	0.90459
2917.91802	0.88848
2915.98945	0.87229
2914.06089	0.85633
2912.13232	0.84076
2910.20376	0.82563
2908.27520	0.81101
2906.34663	0.79694
2904.41807	0.78315
2902.48950	0.76954
2900.56094	0.75622
2898.63237	0.74322
2896.70381	0.73081
2894.77524	0.71880
2892.84668	0.70675
2890.91812	0.69490
2888.98955	0.68349
2887.06099	0.67251
2885.13242	0.66183
2883.20386	0.65131
2881.27529	0.64122
2879.34673	0.63164
2877.41816	0.62205
2875.48960	0.61219
2873.56104	0.60219
2871.63247	0.59195
2869.70391	0.58153
2867.77534	0.57118
2865.84678	0.56084
2863.91821	0.55054
2861.98965	0.54052
2860.06108	0.53076
2858.13252	0.52124
2856.20396	0.51211
2854.27539	0.50345
2852.34683	0.49518
2850.41826	0.48714
2848.48970	0.47906
2846.56113	0.47081
2844.63257	0.46285
2842.70400	0.45587
2840.77544	0.44975
2838.84687	0.44393
2836.91831	0.43809
2834.98975	0.43217
2833.06118	0.42628
2831.13262	0.42044
2829.20405	0.41466
2827.27549	0.40890
2825.34692	0.40302
2823.41836	0.39699
2821.48979	0.39106
2819.56123	0.38542
2817.63267	0.37993
2815.70410	0.37443
2813.77554	0.36906
2811.84697	0.36385
2809.91841	0.35868
2807.98984	0.35347
2806.06128	0.34824
2804.13271	0.34325
2802.20415	0.33861
2800.27559	0.33395
2798.34702	0.32912
2796.41846	0.32437
2794.48989	0.31976
2792.56133	0.31529
2790.63276	0.31105
2788.70420	0.30698
2786.77563	0.30293
2784.84707	0.29890
2782.91851	0.29495
2780.98994	0.29105
2779.06138	0.28720
2777.13281	0.28341
2775.20425	0.27969
2773.27568	0.27598
2771.34712	0.27231
2769.41855	0.26887
2767.48999	0.26558
2765.56143	0.26225
2763.63286	0.25889
2761.70430	0.25559
2759.77573	0.25237
2757.84717	0.24919
2755.91860	0.24616
2753.99004	0.24335
2752.06147	0.24065
2750.13291	0.23803
2748.20435	0.23538
2746.27578	0.23268
2744.34722	0.23011
2742.41865	0.22766
2740.49009	0.22511
2738.56152	0.22245
2736.63296	0.21982
2734.70439	0.21728
2732.77583	0.21488
2730.84727	0.21278
2728.91870	0.21081
2726.99014	0.20876
2725.06157	0.20663
2723.13301	0.20441
2721.20444	0.20216
2719.27588	0.20013
2717.34731	0.19835
2715.41875	0.19666
2713.49019	0.19498
2711.56162	0.19323
2709.63306	0.19155
2707.70449	0.19004
2705.77593	0.18847
2703.84736	0.18680
2701.91880	0.18523
2699.99023	0.18382
2698.06167	0.18250
2696.13311	0.18128
2694.20454	0.18006
2692.27598	0.17880
2690.34741	0.17740
2688.41885	0.17591
2686.49028	0.17461
2684.56172	0.17357
2682.63315	0.17257
2680.70459	0.17147
2678.77603	0.17034
2676.84746	0.16924
2674.91890	0.16819
2672.99033	0.16715
2671.06177	0.16618
2669.13320	0.16527
2667.20464	0.16426
2665.27607	0.16319
2663.34751	0.16226
2661.41895	0.16149
2659.49038	0.16077
2657.56182	0.16007
2655.63325	0.15934
2653.70469	0.15866
2651.77612	0.15818
2649.84756	0.15770
2647.91899	0.15701
2645.99043	0.15620
2644.06187	0.15549
2642.13330	0.15497
2640.20474	0.15455
2638.27617	0.15414
2636.34761	0.15375
2634.41904	0.15338
2632.49048	0.15290
2630.56191	0.15233
2628.63335	0.15189
2626.70479	0.15173
2624.77622	0.15163
2622.84766	0.15139
2620.91909	0.15108
2618.99053	0.15084
2617.06196	0.15065
2615.13340	0.15049
2613.20483	0.15028
2611.27627	0.15008
2609.34771	0.15004
2607.41914	0.15011
2605.49058	0.15008
2603.56201	0.14989
2601.63345	0.14976
2599.70488	0.14980
2597.77632	0.14999
2595.84775	0.15016
2593.91919	0.15018
2591.99062	0.15018
2590.06206	0.15029
2588.13350	0.15041
2586.20493	0.15052
2584.27637	0.15071
2582.34780	0.15100
2580.41924	0.15132
2578.49067	0.15161
2576.56211	0.15187
2574.63354	0.15214
2572.70498	0.15245
2570.77642	0.15293
2568.84785	0.15352
2566.91929	0.15401
2564.99072	0.15433
2563.06216	0.15458
2561.13359	0.15491
2559.20503	0.15542
2557.27646	0.15603
2555.34790	0.15651
2553.41934	0.15679
2551.49077	0.15713
2549.56221	0.15769
2547.63364	0.15831
2545.70508	0.15893
2543.77651	0.15961
2541.84795	0.16026
2539.91938	0.16076
2537.99082	0.16128
2536.06226	0.16199
2534.13369	0.16277
2532.20513	0.16346
2530.27656	0.16412
2528.34800	0.16483
2526.41943	0.16554
2524.49087	0.16623
2522.56230	0.16690
2520.63374	0.16757
2518.70518	0.16829
2516.77661	0.16900
2514.84805	0.16980
2512.91948	0.17069
2510.99092	0.17151
2509.06235	0.17225
2507.13379	0.17302
2505.20522	0.17386
2503.27666	0.17468
2501.34810	0.17542
2499.41953	0.17617
2497.49097	0.17699
2495.56240	0.17779
2493.63384	0.17853
2491.70527	0.17933
2489.77671	0.18029
2487.84814	0.18120
2485.91958	0.18197
2483.99102	0.18277
2482.06245	0.18359
2480.13389	0.18442
2478.20532	0.18535
2476.27676	0.18634
2474.34819	0.18728
2472.41963	0.18817
2470.49106	0.18903
2468.56250	0.18986
2466.63394	0.19071
2464.70537	0.19163
2462.77681	0.19263
2460.84824	0.19367
2458.91968	0.19468
2456.99111	0.19563
2455.06255	0.19652
2453.13398	0.19737
2451.20542	0.19826
2449.27686	0.19919
2447.34829	0.20015
2445.41973	0.20113
2443.49116	0.20212
2441.56260	0.20318
2439.63403	0.20435
2437.70547	0.20543
2435.77690	0.20633
2433.84834	0.20725
2431.91978	0.20819
2429.99121	0.20906
2428.06265	0.21012
2426.13408	0.21140
2424.20552	0.21259
2422.27695	0.21363
2420.34839	0.21468
2418.41982	0.21584
2416.49126	0.21700
2414.56270	0.21805
2412.63413	0.21912
2410.70557	0.22026
2408.77700	0.22146
2406.84844	0.22268
2404.91987	0.22386
2402.99131	0.22500
2401.06274	0.22616
2399.13418	0.22733
2397.20562	0.22849
2395.27705	0.22964
2393.34849	0.23077
2391.41992	0.23189
2389.49136	0.23296
2387.56279	0.23382
2385.63423	0.23411
2383.70566	0.23354
2381.77710	0.23210
2379.84854	0.23007
2377.91997	0.22759
2375.99141	0.22442
2374.06284	0.22035
2372.13428	0.21576
2370.20571	0.21106
2368.27715	0.20608
2366.34858	0.20139
2364.42002	0.19800
2362.49146	0.19598
2360.56289	0.19507
2358.63433	0.19616
2356.70576	0.20049
2354.77720	0.20793
2352.84863	0.21718
2350.92007	0.22624
2348.99150	0.23205
2347.06294	0.23311
2345.13437	0.23007
2343.20581	0.22629
2341.27725	0.22551
2339.34868	0.22721
2337.42012	0.22958
2335.49155	0.23232
2333.56299	0.23550
2331.63442	0.23875
2329.70586	0.24170
2327.77729	0.24454
2325.84873	0.24793
2323.92017	0.25195
2321.99160	0.25613
2320.06304	0.26034
2318.13447	0.26491
2316.20591	0.26952
2314.27734	0.27339
2312.34878	0.27657
2310.42021	0.27983
2308.49165	0.28338
2306.56309	0.28704
2304.63452	0.29048
2302.70596	0.29346
2300.77739	0.29616
2298.84883	0.29882
2296.92026	0.30149
2294.99170	0.30427
2293.06313	0.30713
2291.13457	0.30976
2289.20601	0.31221
2287.27744	0.31479
2285.34888	0.31738
2283.42031	0.31975
2281.49175	0.32194
2279.56318	0.32392
2277.63462	0.32578
2275.70605	0.32769
2273.77749	0.32963
2271.84893	0.33157
2269.92036	0.33360
2267.99180	0.33568
2266.06323	0.33777
2264.13467	0.33990
2262.20610	0.34210
2260.27754	0.34441
2258.34897	0.34680
2256.42041	0.34917
2254.49185	0.35145
2252.56328	0.35367
2250.63472	0.35594
2248.70615	0.35821
2246.77759	0.36046
2244.84902	0.36279
2242.92046	0.36512
2240.99189	0.36731
2239.06333	0.36939
2237.13477	0.37150
2235.20620	0.37365
2233.27764	0.37583
2231.34907	0.37812
2229.42051	0.38050
2227.49194	0.38278
2225.56338	0.38492
2223.63481	0.38713
2221.70625	0.38939
2219.77769	0.39151
2217.84912	0.39357
2215.92056	0.39573
2213.99199	0.39794
2212.06343	0.40011
2210.13486	0.40221
2208.20630	0.40426
2206.27773	0.40636
2204.34917	0.40853
2202.42061	0.41068
2200.49204	0.41270
2198.56348	0.41459
2196.63491	0.41646
2194.70635	0.41840
2192.77778	0.42027
2190.84922	0.42205
2188.92065	0.42389
2186.99209	0.42576
2185.06353	0.42756
2183.13496	0.42931
2181.20640	0.43101
2179.27783	0.43274
2177.34927	0.43443
2175.42070	0.43596
2173.49214	0.43742
2171.56357	0.43891
2169.63501	0.44039
2167.70645	0.44175
2165.77788	0.44301
2163.84932	0.44425
2161.92075	0.44540
2159.99219	0.44644
2158.06362	0.44751
2156.13506	0.44857
2154.20649	0.44952
2152.27793	0.45035
2150.34937	0.45112
2148.42080	0.45190
2146.49224	0.45271
2144.56367	0.45332
2142.63511	0.45369
2140.70654	0.45402
2138.77798	0.45432
2136.84941	0.45452
2134.92085	0.45471
2132.99229	0.45489
2131.06372	0.45502
2129.13516	0.45502
2127.20659	0.45483
2125.27803	0.45452
2123.34946	0.45412
2121.42090	0.45362
2119.49233	0.45305
2117.56377	0.45244
2115.63521	0.45175
2113.70664	0.45102
2111.77808	0.45036
2109.84951	0.44971
2107.92095	0.44893
2105.99238	0.44795
2104.06382	0.44681
2102.13525	0.44556
2100.20669	0.44427
2098.27812	0.44292
2096.34956	0.44150
2094.42100	0.44006
2092.49243	0.43863
2090.56387	0.43714
2088.63530	0.43556
2086.70674	0.43394
2084.77817	0.43220
2082.84961	0.43038
2080.92104	0.42848
2078.99248	0.42645
2077.06392	0.42435
2075.13535	0.42231
2073.20679	0.42027
2071.27822	0.41819
2069.34966	0.41605
2067.42109	0.41382
2065.49253	0.41153
2063.56396	0.40922
2061.63540	0.40685
2059.70684	0.40441
2057.77827	0.40205
2055.84971	0.39972
2053.92114	0.39728
2051.99258	0.39478
2050.06401	0.39226
2048.13545	0.38966
2046.20688	0.38706
2044.27832	0.38451
2042.34976	0.38195
2040.42119	0.37939
2038.49263	0.37678
2036.56406	0.37404
2034.63550	0.37129
2032.70693	0.36861
2030.77837	0.36594
2028.84980	0.36324
2026.92124	0.36052
2024.99268	0.35776
2023.06411	0.35498
2021.13555	0.35222
2019.20698	0.34948
2017.27842	0.34672
2015.34985	0.34390
2013.42129	0.34117
2011.49272	0.33858
2009.56416	0.33598
2007.63560	0.33331
2005.70703	0.33071
2003.77847	0.32817
2001.84990	0.32557
1999.92134	0.32291
1997.99277	0.32031
1996.06421	0.31783
1994.13564	0.31542
1992.20708	0.31297
1990.27852	0.31041
1988.34995	0.30781
1986.42139	0.30532
1984.49282	0.30296
1982.56426	0.30060
1980.63569	0.29820
1978.70713	0.29588
1976.77856	0.29363
1974.85000	0.29144
1972.92144	0.28928
1970.99287	0.28716
1969.06431	0.28515
1967.13574	0.28317
1965.20718	0.28109
1963.27861	0.27900
1961.35005	0.27698
1959.42148	0.27502
1957.49292	0.27317
1955.56436	0.27148
1953.63579	0.26982
1951.70723	0.26804
1949.77866	0.26633
1947.85010	0.26471
1945.92153	0.26316
1943.99297	0.26173
1942.06440	0.26030
1940.13584	0.25872
1938.20728	0.25715
1936.27871	0.25570
1934.35015	0.25436
1932.42158	0.25318
1930.49302	0.25202
1928.56445	0.25078
1926.63589	0.24957
1924.70732	0.24857
1922.77876	0.24772
1920.85020	0.24683
1918.92163	0.24592
1916.99307	0.24501
1915.06450	0.24401
1913.13594	0.24303
1911.20737	0.24226
1909.27881	0.24161
1907.35024	0.24088
1905.42168	0.24006
1903.49312	0.23943
1901.56455	0.23895
1899.63599	0.23848
1897.70742	0.23808
1895.77886	0.23773
1893.85029	0.23734
1891.92173	0.23692
1889.99316	0.23661
1888.06460	0.23632
1886.13604	0.23596
1884.20747	0.23558
1882.27891	0.23525
1880.35034	0.23506
1878.42178	0.23504
1876.49321	0.23515
1874.56465	0.23522
1872.63608	0.23532
1870.70752	0.23551
1868.77896	0.23596
1866.85039	0.23628
1864.92183	0.23611
1862.99326	0.23597
1861.06470	0.23609
1859.13613	0.23645
1857.20757	0.23691
1855.27900	0.23742
1853.35044	0.23788
1851.42187	0.23842
1849.49331	0.23906
1847.56475	0.23972
1845.63618	0.24043
1843.70762	0.24129
1841.77905	0.24206
1839.85049	0.24255
1837.92192	0.24331
1835.99336	0.24428
1834.06479	0.24524
1832.13623	0.24621
1830.20767	0.24757
1828.27910	0.24903
1826.35054	0.25005
1824.42197	0.25123
1822.49341	0.25246
1820.56484	0.25369
1818.63628	0.25508
1816.70771	0.25673
1814.77915	0.25837
1812.85059	0.26008
1810.92202	0.26204
1808.99346	0.26409
1807.06489	0.26607
1805.13633	0.26796
1803.20776	0.27005
1801.27920	0.27245
1799.35063	0.27529
1797.42207	0.27790
1795.49351	0.28024
1793.56494	0.28289
1791.63638	0.28639
1789.70781	0.28978
1787.77925	0.29234
1785.85068	0.29542
1783.92212	0.29910
1781.99355	0.30298
1780.06499	0.30712
1778.13643	0.31145
1776.20786	0.31544
1774.27930	0.31962
1772.35073	0.32535
1770.42217	0.33173
1768.49360	0.33707
1766.56504	0.34209
1764.63647	0.34724
1762.70791	0.35304
1760.77935	0.36057
1758.85078	0.36764
1756.92222	0.37460
1754.99365	0.38215
1753.06509	0.38894
1751.13652	0.39710
1749.20796	0.40766
1747.27939	0.41813
1745.35083	0.42724
1743.42227	0.43690
1741.49370	0.44756
1739.56514	0.46004
1737.63657	0.47242
1735.70801	0.48305
1733.77944	0.49905
1731.85088	0.51870
1729.92231	0.53441
1727.99375	0.55018
1726.06519	0.56695
1724.13662	0.58512
1722.20806	0.60479
1720.27949	0.62302
1718.35093	0.64428
1716.42236	0.67588
1714.49380	0.70619
1712.56523	0.73071
1710.63667	0.75440
1708.70811	0.77981
1706.77954	0.80871
1704.85098	0.84343
1702.92241	0.87440
1700.99385	0.90472
1699.06528	0.95023
1697.13672	0.99265
1695.20815	1.03624
1693.27959	1.07828
1691.35103	1.11181
1689.42246	1.15064
1687.49390	1.19187
1685.56533	1.23128
1683.63677	1.29208
1681.70820	1.35641
1679.77964	1.39794
1677.85107	1.43682
1675.92251	1.48113
1673.99395	1.53697
1672.06538	1.58747
1670.13682	1.63664
1668.20825	1.70000
1666.27969	1.75108
1664.35112	1.79432
1662.42256	1.84897
1660.49399	1.91037
1658.56543	1.95795
1656.63687	1.99702
1654.70830	2.03440
1652.77974	2.09399
1650.85117	2.14834
1648.92261	2.16682
1646.99404	2.19298
1645.06548	2.22613
1643.13691	2.24907
1641.20835	2.26122
1639.27979	2.27008
1637.35122	2.27531
1635.42266	2.27654
1633.49409	2.26975
1631.56553	2.25517
1629.63696	2.23744
1627.70840	2.20891
1625.77983	2.17649
1623.85127	2.13795
1621.92271	2.09076
1619.99414	2.04687
1618.06558	2.00248
1616.13701	1.93908
1614.20845	1.87482
1612.27988	1.82624
1610.35132	1.77537
1608.42275	1.71955
1606.49419	1.66449
1604.56562	1.61376
1602.63706	1.56408
1600.70850	1.51515
1598.77993	1.47059
1596.85137	1.42922
1594.92280	1.38900
1592.99424	1.35015
1591.06567	1.31476
1589.13711	1.28177
1587.20854	1.25129
1585.27998	1.22328
1583.35142	1.19678
1581.42285	1.17217
1579.49429	1.15093
1577.56572	1.13184
1575.63716	1.10891
1573.70859	1.08877
1571.78003	1.07584
1569.85146	1.06266
1567.92290	1.04767
1565.99434	1.03600
1564.06577	1.02696
1562.13721	1.01989
1560.20864	1.01502
1558.28008	1.00962
1556.35151	1.00484
1554.42295	1.00123
1552.49438	0.99767
1550.56582	0.99335
1548.63726	0.98721
1546.70869	0.97997
1544.78013	0.97125
1542.85156	0.96018
1540.92300	0.94507
1538.99443	0.92337
1537.06587	0.90775
1535.13730	0.89693
1533.20874	0.88258
1531.28018	0.86702
1529.35161	0.85556
1527.42305	0.84478
1525.49448	0.83351
1523.56592	0.82389
1521.63735	0.81454
1519.70879	0.80454
1517.78022	0.79612
1515.85166	0.78718
1513.92310	0.77806
1511.99453	0.76998
1510.06597	0.76243
1508.13740	0.75512
1506.20884	0.74410
1504.28027	0.73430
1502.35171	0.72854
1500.42314	0.72340
1498.49458	0.71799
1496.56602	0.71200
1494.63745	0.70619
1492.70889	0.70151
1490.78032	0.69715
1488.85176	0.69215
1486.92319	0.68754
1484.99463	0.68372
1483.06606	0.68041
1481.13750	0.67758
1479.20894	0.67535
1477.28037	0.67379
1475.35181	0.67257
1473.42324	0.67147
1471.49468	0.66980
1469.56611	0.66741
1467.63755	0.66502
1465.70898	0.66313
1463.78042	0.66177
1461.85186	0.66055
1459.92329	0.65961
1457.99473	0.65911
1456.06616	0.65841
1454.13760	0.65662
1452.20903	0.65455
1450.28047	0.65245
1448.35190	0.65052
1446.42334	0.64863
1444.49478	0.64648
1442.56621	0.64420
1440.63765	0.64197
1438.70908	0.63977
1436.78052	0.63712
1434.85195	0.63419
1432.92339	0.63196
1430.99482	0.63047
1429.06626	0.62941
1427.13770	0.62848
1425.20913	0.62777
1423.28057	0.62750
1421.35200	0.62736
1419.42344	0.62709
1417.49487	0.62652
1415.56631	0.62535
1413.63774	0.62418
1411.70918	0.62355
1409.78062	0.62346
1407.85205	0.62365
1405.92349	0.62412
1403.99492	0.62457
1402.06636	0.62430
1400.13779	0.62335
1398.20923	0.62201
1396.28066	0.62030
1394.35210	0.61790
1392.42354	0.61485
1390.49497	0.61180
1388.56641	0.60878
1386.63784	0.60551
1384.70928	0.60212
1382.78071	0.59894
1380.85215	0.59600
1378.92358	0.59344
1376.99502	0.59143
1375.06646	0.59002
1373.13789	0.58897
1371.20933	0.58802
1369.28076	0.58706
1367.35220	0.58592
1365.42363	0.58457
1363.49507	0.58328
1361.56650	0.58213
1359.63794	0.58098
1357.70937	0.57986
1355.78081	0.57876
1353.85225	0.57768
1351.92368	0.57667
1349.99512	0.57578
1348.06655	0.57498
1346.13799	0.57416
1344.20942	0.57332
1342.28086	0.57258
1340.35229	0.57200
1338.42373	0.57145
1336.49517	0.57079
1334.56660	0.57009
1332.63804	0.56946
1330.70947	0.56904
1328.78091	0.56889
1326.85234	0.56896
1324.92378	0.56915
1322.99521	0.56936
1321.06665	0.56944
1319.13809	0.56943
1317.20952	0.56943
1315.28096	0.56931
1313.35239	0.56886
1311.42383	0.56822
1309.49526	0.56760
1307.56670	0.56707
1305.63813	0.56659
1303.70957	0.56596
1301.78101	0.56504
1299.85244	0.56402
1297.92388	0.56312
1295.99531	0.56228
1294.06675	0.56134
1292.13818	0.56037
1290.20962	0.55954
1288.28105	0.55869
1286.35249	0.55763
1284.42393	0.55653
1282.49536	0.55548
1280.56680	0.55446
1278.63823	0.55348
1276.70967	0.55252
1274.78110	0.55168
1272.85254	0.55114
1270.92397	0.55069
1268.99541	0.55007
1267.06685	0.54942
1265.13828	0.54878
1263.20972	0.54813
1261.28115	0.54761
1259.35259	0.54719
1257.42402	0.54661
1255.49546	0.54614
1253.56689	0.54609
1251.63833	0.54618
1249.70977	0.54607
1247.78120	0.54582
1245.85264	0.54555
1243.92407	0.54521
1241.99551	0.54465
1240.06694	0.54369
1238.13838	0.54246
1236.20981	0.54111
1234.28125	0.53961
1232.35269	0.53795
1230.42412	0.53630
1228.49556	0.53477
1226.56699	0.53335
1224.63843	0.53212
1222.70986	0.53102
1220.78130	0.52995
1218.85273	0.52891
1216.92417	0.52778
1214.99561	0.52668
1213.06704	0.52590
1211.13848	0.52534
1209.20991	0.52470
1207.28135	0.52386
1205.35278	0.52304
1203.42422	0.52238
1201.49565	0.52178
1199.56709	0.52115
1197.63853	0.52048
1195.70996	0.51976
1193.78140	0.51916
1191.85283	0.51872
1189.92427	0.51823
1187.99570	0.51781
1186.06714	0.51771
1184.13857	0.51777
1182.21001	0.51789
1180.28145	0.51822
1178.35288	0.51884
1176.42432	0.51976
1174.49575	0.52067
1172.56719	0.52130
1170.63862	0.52167
1168.71006	0.52196
1166.78149	0.52213
1164.85293	0.52215
1162.92437	0.52215
1160.99580	0.52210
1159.06724	0.52188
1157.13867	0.52139
1155.21011	0.52066
1153.28154	0.51966
1151.35298	0.51819
1149.42441	0.51617
1147.49585	0.51377
1145.56729	0.51120
1143.63872	0.50870
1141.71016	0.50648
1139.78159	0.50453
1137.85303	0.50278
1135.92446	0.50122
1133.99590	0.49995
1132.06733	0.49896
1130.13877	0.49810
1128.21021	0.49735
1126.28164	0.49672
1124.35308	0.49604
1122.42451	0.49531
1120.49595	0.49492
1118.56738	0.49498
1116.63882	0.49515
1114.71025	0.49528
1112.78169	0.49565
1110.85312	0.49640
1108.92456	0.49728
1106.99600	0.49831
1105.06743	0.49951
1103.13887	0.50068
1101.21030	0.50190
1099.28174	0.50346
1097.35317	0.50556
1095.42461	0.50836
1093.49604	0.51197
1091.56748	0.51631
1089.63892	0.52152
1087.71035	0.52772
1085.78179	0.53479
1083.85322	0.54226
1081.92466	0.54941
1079.99609	0.55519
1078.06753	0.55847
1076.13896	0.55878
1074.21040	0.55644
1072.28184	0.55174
1070.35327	0.54517
1068.42471	0.53805
1066.49614	0.53128
1064.56758	0.52498
1062.63901	0.51940
1060.71045	0.51465
1058.78188	0.51049
1056.85332	0.50678
1054.92476	0.50351
1052.99619	0.50062
1051.06763	0.49824
1049.13906	0.49639
1047.21050	0.49498
1045.28193	0.49384
1043.35337	0.49286
1041.42480	0.49237
1039.49624	0.49227
1037.56768	0.49217
1035.63911	0.49206
1033.71055	0.49176
1031.78198	0.49125
1029.85342	0.49060
1027.92485	0.48970
1025.99629	0.48881
1024.06772	0.48833
1022.13916	0.48830
1020.21060	0.48869
1018.28203	0.48925
1016.35347	0.48956
1014.42490	0.48974
1012.49634	0.49018
1010.56777	0.49085
1008.63921	0.49159
1006.71064	0.49244
1004.78208	0.49361
1002.85352	0.49548
1000.92495	0.49811
998.99639	0.50128
997.06782	0.50503
995.13926	0.50923
993.21069	0.51330
991.28213	0.51679
989.35356	0.51937
987.42500	0.52082
985.49644	0.52147
983.56787	0.52182
981.63931	0.52217
979.71074	0.52293
977.78218	0.52441
975.85361	0.52652
973.92505	0.52911
971.99648	0.53207
970.06792	0.53537
968.13936	0.53911
966.21079	0.54324
964.28223	0.54757
962.35366	0.55202
960.42510	0.55683
958.49653	0.56217
956.56797	0.56794
954.63940	0.57414
952.71084	0.58049
950.78228	0.58667
948.85371	0.59275
946.92515	0.59887
944.99658	0.60503
943.06802	0.61107
941.13945	0.61669
939.21089	0.62216
937.28232	0.62801
935.35376	0.63401
933.42520	0.63975
931.49663	0.64498
929.56807	0.64979
927.63950	0.65526
925.71094	0.66208
923.78237	0.66918
921.85381	0.67509
919.92524	0.68047
917.99668	0.68704
916.06812	0.69482
914.13955	0.70256
912.21099	0.70947
910.28242	0.71611
908.35386	0.72394
906.42529	0.73316
904.49673	0.74270
902.56816	0.75225
900.63960	0.76197
898.71104	0.77120
896.78247	0.77998
894.85391	0.78900
892.92534	0.79800
890.99678	0.80706
889.06821	0.81782
887.13965	0.82991
885.21108	0.84070
883.28252	0.85048
881.35396	0.86151
879.42539	0.87405
877.49683	0.88642
875.56826	0.89809
873.63970	0.90927
871.71113	0.91929
869.78257	0.92885
867.85400	0.93916
865.92544	0.95003
863.99687	0.96164
862.06831	0.97417
860.13975	0.98544
858.21118	0.99466
856.28262	1.00537
854.35405	1.01923
852.42549	1.03270
850.49692	1.04295
848.56836	1.05320
846.63979	1.06732
844.71123	1.08222
842.78267	1.09295
840.85410	1.10144
838.92554	1.11143
836.99697	1.12285
835.06841	1.13533
833.13984	1.14887
831.21128	1.16084
829.28271	1.17045
827.35415	1.18144
825.42559	1.19477
823.49702	1.20799
821.56846	1.21832
819.63989	1.22578
817.71133	1.23320
815.78276	1.24737
813.85420	1.26957
811.92563	1.28683
809.99707	1.30035
808.06851	1.31308
806.13994	1.31677
804.21138	1.32064
802.28281	1.32054
800.35425	1.30098
798.42568	1.29370
796.49712	1.34153
794.56855	1.41202
792.63999	1.41472
790.71143	1.38616
788.78286	1.39829
786.85430	1.43174
784.92573	1.43768
782.99717	1.43170
781.06860	1.48047
779.14004	1.54369
777.21147	1.50534
775.28291	1.46222
773.35435	1.51666
771.42578	1.64846
769.49722	1.67966
767.56865	1.52684
765.64009	1.40213
763.71152	1.39544
761.78296	1.42344
759.85439	1.41736
757.92583	1.50212
755.99727	1.70016
754.06870	1.94135
752.14014	1.85536
750.21157	1.50986
748.28301	1.41952
746.35444	1.85829
744.42588	4.46656
742.49731	1.72616
740.56875	1.14058
738.64019	1.01248
736.71162	0.95737
734.78306	1.00303
732.85449	1.34701
730.92593	1.37902
728.99736	0.78752
727.06880	0.49970
725.14023	0.35888
723.21167	0.34364
721.28311	0.46645
719.35454	0.52589
717.42598	0.26046
715.49741	0.10149
713.56885	0.20635
711.64028	0.46827
709.71172	0.58068
707.78315	0.49090
705.85459	0.33454
703.92603	0.23611
701.99746	0.21823
700.06890	0.22645
698.14033	0.19601
696.21177	0.11918
694.28320	0.08647
692.35464	0.17290
690.42607	0.36197
688.49751	0.51302
686.56895	0.37152
684.64038	0.23914
682.71182	0.23413
680.78325	0.25109
678.85469	0.21166
676.92612	0.18052
674.99756	0.19472
673.06899	0.26591
671.14043	0.37874
669.21187	0.43320
667.28330	0.42136
665.35474	0.37800
663.42617	0.33367
661.49761	0.34520
659.56904	0.42803
657.64048	0.47663
655.71191	0.38018
653.78335	0.28666
651.85479	0.27934
649.92622	0.28015
647.99766	0.24788
646.06909	0.23570
644.14053	0.28916
642.21196	0.38982
640.28340	0.41637
638.35483	0.45860
636.42627	0.82906
634.49771	3.80699
632.56914	1.15846
630.64058	0.45503
628.71201	0.34828
626.78345	0.26170
624.85488	0.23200
622.92632	0.29636
620.99775	0.33139
619.06919	0.34496
617.14062	0.35531
615.21206	0.30512
613.28350	0.31841
611.35493	0.36093
609.42637	0.31244
607.49780	0.29439
605.56924	0.31384
603.64067	0.28492
601.71211	0.29272
599.78354	0.42918
597.85498	0.72178
595.92642	0.99569
593.99785	0.64880
592.06929	0.39046
590.14072	0.29932
588.21216	0.28600
586.28359	0.30168
584.35503	0.34265
582.42646	0.42553
580.49790	0.52898
578.56934	0.47694
576.64077	0.34013
574.71221	0.27971
572.78364	0.25669
570.85508	0.23691
568.92651	0.27381
566.99795	0.39170
565.06938	0.48978
563.14082	0.42401
561.21226	0.36370
559.28369	0.35598
557.35513	0.35302
555.42656	0.35476
553.49800	0.34824
551.56943	0.30909
549.64087	0.26899
547.71230	0.20270
545.78374	0.10733
543.85518	0.11145
541.92661	0.32750
539.99805	0.63864
538.06948	0.51025
536.14092	0.35327
534.21235	0.27766
532.28379	0.23112
530.35522	0.22151
528.42666	0.27543
526.49810	0.34786
524.56953	0.39421
522.64097	0.40051
520.71240	0.31059
518.78384	0.22695
516.85527	0.23564
514.92671	0.31590
512.99814	0.44568
511.06958	0.49687
509.14102	0.44214
507.21245	0.39769
505.28389	0.36437
503.35532	0.33458
501.42676	0.26861
499.49819	0.20521
