3997.91411	0.07021
3995.98555	0.07038
3994.05698	0.07077
3992.12842	0.07129
3990.19985	0.07171
3988.27129	0.07200
3986.34272	0.07193
3984.41416	0.07179
3982.48560	0.07191
3980.55703	0.07205
3978.62847	0.07216
3976.69990	0.07242
3974.77134	0.07299
3972.84277	0.07391
3970.91421	0.07473
3968.98564	0.07497
3967.05708	0.07453
3965.12852	0.07386
3963.19995	0.07377
3961.27139	0.07430
3959.34282	0.07470
3957.41426	0.07479
3955.48569	0.07490
3953.55713	0.07502
3951.62856	0.07514
3949.70000	0.07544
3947.77144	0.07576
3945.84287	0.07577
3943.91431	0.07575
3941.98574	0.07569
3940.05718	0.07503
3938.12861	0.07431
3936.20005	0.07425
3934.27148	0.07482
3932.34292	0.07559
3930.41436	0.07590
3928.48579	0.07539
3926.55723	0.07479
3924.62866	0.07486
3922.70010	0.07529
3920.77153	0.07556
3918.84297	0.07577
3916.91440	0.07580
3914.98584	0.07531
3913.05728	0.07428
3911.12871	0.07342
3909.20015	0.07346
3907.27158	0.07422
3905.34302	0.07551
3903.41445	0.07720
3901.48589	0.07819
3899.55732	0.07813
3897.62876	0.07721
3895.70020	0.07587
3893.77163	0.07530
3891.84307	0.07571
3889.91450	0.07588
3887.98594	0.07541
3886.05737	0.07591
3884.12881	0.07709
3882.20024	0.07733
3880.27168	0.07738
3878.34312	0.07725
3876.41455	0.07672
3874.48599	0.07728
3872.55742	0.07860
3870.62886	0.07942
3868.70029	0.07999
3866.77173	0.07986
3864.84316	0.07979
3862.91460	0.08053
3860.98604	0.08052
3859.05747	0.07987
3857.12891	0.07995
3855.20034	0.08110
3853.27178	0.08340
3851.34321	0.08485
3849.41465	0.08331
3847.48608	0.08157
3845.55752	0.08132
3843.62896	0.08272
3841.70039	0.08498
3839.77183	0.08718
3837.84326	0.08881
3835.91470	0.08930
3833.98613	0.08903
3832.05757	0.08845
3830.12900	0.08783
3828.20044	0.08790
3826.27187	0.08908
3824.34331	0.09067
3822.41475	0.09239
3820.48618	0.09482
3818.55762	0.09601
3816.62905	0.09565
3814.70049	0.09525
3812.77192	0.09457
3810.84336	0.09418
3808.91479	0.09495
3806.98623	0.09728
3805.05767	0.09996
3803.12910	0.10179
3801.20054	0.10383
3799.27197	0.10509
3797.34341	0.10487
3795.41484	0.10473
3793.48628	0.10472
3791.55771	0.10497
3789.62915	0.10585
3787.70059	0.10728
3785.77202	0.10906
3783.84346	0.11075
3781.91489	0.11231
3779.98633	0.11445
3778.05776	0.11666
3776.12920	0.11757
3774.20063	0.11825
3772.27207	0.12007
3770.34351	0.12282
3768.41494	0.12533
3766.48638	0.12708
3764.55781	0.12905
3762.62925	0.13126
3760.70068	0.13378
3758.77212	0.13703
3756.84355	0.13982
3754.91499	0.14164
3752.98643	0.14420
3751.05786	0.14934
3749.12930	0.15560
3747.20073	0.15845
3745.27217	0.15987
3743.34360	0.16304
3741.41504	0.16675
3739.48647	0.17012
3737.55791	0.17521
3735.62935	0.18320
3733.70078	0.19133
3731.77222	0.19593
3729.84365	0.19911
3727.91509	0.20305
3725.98652	0.20874
3724.05796	0.21538
3722.12939	0.22140
3720.20083	0.22702
3718.27227	0.23233
3716.34370	0.23751
3714.41514	0.24380
3712.48657	0.25412
3710.55801	0.27063
3708.62944	0.28680
3706.70088	0.29783
3704.77231	0.30828
3702.84375	0.32152
3700.91519	0.33899
3698.98662	0.35777
3697.05806	0.37523
3695.12949	0.39381
3693.20093	0.41373
3691.27236	0.43548
3689.34380	0.46367
3687.41523	0.49793
3685.48667	0.52741
3683.55811	0.55257
3681.62954	0.58025
3679.70098	0.61249
3677.77241	0.64706
3675.84385	0.68786
3673.91528	0.74120
3671.98672	0.78376
3670.05815	0.82166
3668.12959	0.87438
3666.20103	0.92297
3664.27246	0.96404
3662.34390	1.00820
3660.41533	1.05555
3658.48677	1.10209
3656.55820	1.15214
3654.62964	1.20844
3652.70107	1.25583
3650.77251	1.29696
3648.84395	1.35314
3646.91538	1.42212
3644.98682	1.47364
3643.05825	1.51328
3641.12969	1.55376
3639.20112	1.59880
3637.27256	1.64442
3635.34399	1.68882
3633.41543	1.73342
3631.48687	1.77532
3629.55830	1.81808
3627.62974	1.87389
3625.70117	1.92469
3623.77261	1.95839
3621.84404	1.99083
3619.91548	2.02793
3617.98691	2.07251
3616.05835	2.11532
3614.12979	2.15122
3612.20122	2.18987
3610.27266	2.23017
3608.34409	2.27162
3606.41553	2.31457
3604.48696	2.35339
3602.55840	2.38955
3600.62983	2.42940
3598.70127	2.47102
3596.77271	2.51106
3594.84414	2.55201
3592.91558	2.59397
3590.98701	2.63273
3589.05845	2.66766
3587.12988	2.70852
3585.20132	2.75467
3583.27275	2.79524
3581.34419	2.83346
3579.41562	2.87508
3577.48706	2.91861
3575.55850	2.96033
3573.62993	3.00157
3571.70137	3.04219
3569.77280	3.08169
3567.84424	3.12432
3565.91567	3.17767
3563.98711	3.22914
3562.05854	3.26932
3560.12998	3.30997
3558.20142	3.35561
3556.27285	3.40182
3554.34429	3.44496
3552.41572	3.48965
3550.48716	3.53790
3548.55859	3.58507
3546.63003	3.63103
3544.70146	3.67984
3542.77290	3.72765
3540.84434	3.77119
3538.91577	3.81472
3536.98721	3.86072
3535.05864	3.90892
3533.13008	3.95508
3531.20151	3.99950
3529.27295	4.04696
3527.34438	4.10033
3525.41582	4.15233
3523.48726	4.19820
3521.55869	4.24436
3519.63013	4.29193
3517.70156	4.34201
3515.77300	4.39032
3513.84443	4.43191
3511.91587	4.47658
3509.98730	4.53096
3508.05874	4.58421
3506.13018	4.62880
3504.20161	4.67106
3502.27305	4.71626
3500.34448	4.76350
3498.41592	4.81199
3496.48735	4.86298
3494.55879	4.91318
3492.63022	4.96277
3490.70166	5.01315
3488.77310	5.06026
3486.84453	5.10649
3484.91597	5.15479
3482.98740	5.20220
3481.05884	5.24963
3479.13027	5.29848
3477.20171	5.34710
3475.27314	5.39504
3473.34458	5.44586
3471.41602	5.49586
3469.48745	5.53536
3467.55889	5.57109
3465.63032	5.61359
3463.70176	5.66418
3461.77319	5.71839
3459.84463	5.77138
3457.91606	5.82416
3455.98750	5.87861
3454.05894	5.92764
3452.13037	5.97277
3450.20181	6.03175
3448.27324	6.09890
3446.34468	6.14925
3444.41611	6.18139
3442.48755	6.21857
3440.55898	6.26542
3438.63042	6.31544
3436.70186	6.36552
3434.77329	6.41078
3432.84473	6.45989
3430.91616	6.51809
3428.98760	6.57232
3427.05903	6.61959
3425.13047	6.67892
3423.20190	6.75058
3421.27334	6.81978
3419.34478	6.87125
3417.41621	6.90803
3415.48765	6.94849
3413.55908	6.98518
3411.63052	7.00963
3409.70195	7.03683
3407.77339	7.08020
3405.84482	7.13143
3403.91626	7.20507
3401.98770	7.29429
3400.05913	7.35471
3398.13057	7.36761
3396.20200	7.35889
3394.27344	7.36289
3392.34487	7.36584
3390.41631	7.37724
3388.48774	7.43099
3386.55918	7.51729
3384.63062	7.57039
3382.70205	7.59293
3380.77349	7.63261
3378.84492	7.66686
3376.91636	7.68002
3374.98779	7.69662
3373.05923	7.75026
3371.13066	7.81409
3369.20210	7.84137
3367.27354	7.81630
3365.34497	7.81817
3363.41641	7.89839
3361.48784	7.96431
3359.55928	7.97068
3357.63071	7.98226
3355.70215	8.02952
3353.77358	8.05281
3351.84502	8.06487
3349.91646	8.05781
3347.98789	7.99958
3346.05933	7.97096
3344.13076	8.01805
3342.20220	8.09983
3340.27363	8.15940
3338.34507	8.16044
3336.41650	8.07117
3334.48794	7.96863
3332.55937	7.92002
3330.63081	7.93894
3328.70225	7.99810
3326.77368	8.00363
3324.84512	7.98828
3322.91655	8.07066
3320.98799	8.20987
3319.05942	8.22184
3317.13086	8.11227
3315.20229	8.02628
3313.27373	8.03038
3311.34517	8.10797
3309.41660	8.21464
3307.48804	8.32733
3305.55947	8.41950
3303.63091	8.46327
3301.70234	8.43058
3299.77378	8.28898
3297.84521	8.10854
3295.91665	8.05716
3293.98809	8.09909
3292.05952	8.14044
3290.13096	8.23600
3288.20239	8.34201
3286.27383	8.34444
3284.34526	8.25082
3282.41670	8.19653
3280.48813	8.23556
3278.55957	8.24244
3276.63101	8.15513
3274.70244	8.11829
3272.77388	8.18094
3270.84531	8.24411
3268.91675	8.30807
3266.98818	8.39393
3265.05962	8.41180
3263.13105	8.31246
3261.20249	8.17391
3259.27393	8.06372
3257.34536	8.04862
3255.41680	8.14763
3253.48823	8.23503
3251.55967	8.20386
3249.63110	8.13535
3247.70254	8.12564
3245.77397	8.15607
3243.84541	8.17453
3241.91685	8.15506
3239.98828	8.14679
3238.05972	8.20513
3236.13115	8.29431
3234.20259	8.33278
3232.27402	8.30923
3230.34546	8.28124
3228.41689	8.23586
3226.48833	8.18696
3224.55977	8.15183
3222.63120	8.07069
3220.70264	8.00423
3218.77407	8.01220
3216.84551	7.97776
3214.91694	7.88526
3212.98838	7.84321
3211.05981	7.83675
3209.13125	7.80581
3207.20269	7.75795
3205.27412	7.74047
3203.34556	7.77518
3201.41699	7.80990
3199.48843	7.77062
3197.55986	7.66573
3195.63130	7.57670
3193.70273	7.55000
3191.77417	7.54227
3189.84561	7.51237
3187.91704	7.47188
3185.98848	7.42347
3184.05991	7.37906
3182.13135	7.34151
3180.20278	7.29095
3178.27422	7.23666
3176.34565	7.18218
3174.41709	7.11740
3172.48853	7.05174
3170.55996	6.98598
3168.63140	6.91838
3166.70283	6.85661
3164.77427	6.79052
3162.84570	6.69847
3160.91714	6.60381
3158.98857	6.54116
3157.06001	6.48476
3155.13145	6.41500
3153.20288	6.34034
3151.27432	6.26407
3149.34575	6.19635
3147.41719	6.13831
3145.48862	6.08383
3143.56006	6.02928
3141.63149	5.97065
3139.70293	5.90344
3137.77437	5.83059
3135.84580	5.75967
3133.91724	5.68672
3131.98867	5.60367
3130.06011	5.51877
3128.13154	5.45003
3126.20298	5.39628
3124.27441	5.33815
3122.34585	5.26690
3120.41729	5.19149
3118.48872	5.11902
3116.56016	5.04791
3114.63159	4.97745
3112.70303	4.91036
3110.77446	4.84620
3108.84590	4.78065
3106.91733	4.71115
3104.98877	4.64039
3103.06021	4.57317
3101.13164	4.50734
3099.20308	4.44013
3097.27451	4.37324
3095.34595	4.30714
3093.41738	4.24222
3091.48882	4.17878
3089.56025	4.11629
3087.63169	4.05369
3085.70312	3.99112
3083.77456	3.93012
3081.84600	3.87023
3079.91743	3.81025
3077.98887	3.75035
3076.06030	3.69111
3074.13174	3.63329
3072.20317	3.57589
3070.27461	3.51820
3068.34604	3.46263
3066.41748	3.40910
3064.48892	3.35471
3062.56035	3.29912
3060.63179	3.24438
3058.70322	3.19111
3056.77466	3.13845
3054.84609	3.08706
3052.91753	3.03739
3050.98896	2.98738
3049.06040	2.93584
3047.13184	2.88521
3045.20327	2.83710
3043.27471	2.78998
3041.34614	2.74303
3039.41758	2.69682
3037.48901	2.65144
3035.56045	2.60655
3033.63188	2.56176
3031.70332	2.51678
3029.77476	2.47229
3027.84619	2.42916
3025.91763	2.38715
3023.98906	2.34589
3022.06050	2.30532
3020.13193	2.26558
3018.20337	2.22701
3016.27480	2.18887
3014.34624	2.15022
3012.41768	2.11166
3010.48911	2.07390
3008.56055	2.03712
3006.63198	2.00135
3004.70342	1.96638
3002.77485	1.93200
3000.84629	1.89812
2998.91772	1.86490
2996.98916	1.83259
2995.06060	1.80097
2993.13203	1.76981
2991.20347	1.73914
2989.27490	1.70879
2987.34634	1.67883
2985.41777	1.64982
2983.48921	1.62170
2981.56064	1.59379
2979.63208	1.56627
2977.70352	1.53960
2975.77495	1.51336
2973.84639	1.48711
2971.91782	1.46106
2969.98926	1.43573
2968.06069	1.41116
2966.13213	1.38664
2964.20356	1.36222
2962.27500	1.33855
2960.34644	1.31532
2958.41787	1.29212
2956.48931	1.26918
2954.56074	1.24664
2952.63218	1.22465
2950.70361	1.20324
2948.77505	1.18207
2946.84648	1.16091
2944.91792	1.13972
2942.98936	1.11854
2941.06079	1.09803
2939.13223	1.07846
2937.20366	1.05891
2935.27510	1.03907
2933.34653	1.01982
2931.41797	1.00137
2929.48940	0.98336
2927.56084	0.96567
2925.63228	0.94813
2923.70371	0.93114
2921.77515	0.91507
2919.84658	0.89958
2917.91802	0.88408
2915.98945	0.86805
2914.06089	0.85172
2912.13232	0.83599
2910.20376	0.82119
2908.27520	0.80694
2906.34663	0.79321
2904.41807	0.77990
2902.48950	0.76647
2900.56094	0.75311
2898.63237	0.74051
2896.70381	0.72852
2894.77524	0.71645
2892.84668	0.70430
2890.91812	0.69272
2888.98955	0.68167
2887.06099	0.67072
2885.13242	0.66006
2883.20386	0.64980
2881.27529	0.63962
2879.34673	0.62950
2877.41816	0.61949
2875.48960	0.60956
2873.56104	0.59974
2871.63247	0.58972
2869.70391	0.57931
2867.77534	0.56891
2865.84678	0.55864
2863.91821	0.54833
2861.98965	0.53805
2860.06108	0.52811
2858.13252	0.51868
2856.20396	0.50960
2854.27539	0.50095
2852.34683	0.49291
2850.41826	0.48517
2848.48970	0.47745
2846.56113	0.46963
2844.63257	0.46186
2842.70400	0.45472
2840.77544	0.44848
2838.84687	0.44270
2836.91831	0.43671
2834.98975	0.43057
2833.06118	0.42468
2831.13262	0.41898
2829.20405	0.41326
2827.27549	0.40744
2825.34692	0.40147
2823.41836	0.39566
2821.48979	0.39009
2819.56123	0.38442
2817.63267	0.37866
2815.70410	0.37296
2813.77554	0.36737
2811.84697	0.36207
2809.91841	0.35705
2807.98984	0.35205
2806.06128	0.34690
2804.13271	0.34173
2802.20415	0.33673
2800.27559	0.33209
2798.34702	0.32770
2796.41846	0.32326
2794.48989	0.31879
2792.56133	0.31444
2790.63276	0.31009
2788.70420	0.30569
2786.77563	0.30138
2784.84707	0.29718
2782.91851	0.29308
2780.98994	0.28906
2779.06138	0.28514
2777.13281	0.28137
2775.20425	0.27782
2773.27568	0.27448
2771.34712	0.27117
2769.41855	0.26785
2767.48999	0.26453
2765.56143	0.26110
2763.63286	0.25769
2761.70430	0.25441
2759.77573	0.25122
2757.84717	0.24810
2755.91860	0.24502
2753.99004	0.24196
2752.06147	0.23902
2750.13291	0.23628
2748.20435	0.23370
2746.27578	0.23117
2744.34722	0.22873
2742.41865	0.22622
2740.49009	0.22357
2738.56152	0.22104
2736.63296	0.21869
2734.70439	0.21641
2732.77583	0.21409
2730.84727	0.21169
2728.91870	0.20941
2726.99014	0.20738
2725.06157	0.20537
2723.13301	0.20317
2721.20444	0.20092
2719.27588	0.19897
2717.34731	0.19735
2715.41875	0.19566
2713.49019	0.19378
2711.56162	0.19197
2709.63306	0.19037
2707.70449	0.18881
2705.77593	0.18715
2703.84736	0.18550
2701.91880	0.18386
2699.99023	0.18224
2698.06167	0.18081
2696.13311	0.17950
2694.20454	0.17813
2692.27598	0.17683
2690.34741	0.17562
2688.41885	0.17434
2686.49028	0.17302
2684.56172	0.17181
2682.63315	0.17071
2680.70459	0.16965
2678.77603	0.16859
2676.84746	0.16751
2674.91890	0.16638
2672.99033	0.16520
2671.06177	0.16402
2669.13320	0.16295
2667.20464	0.16203
2665.27607	0.16113
2663.34751	0.16023
2661.41895	0.15945
2659.49038	0.15868
2657.56182	0.15789
2655.63325	0.15722
2653.70469	0.15654
2651.77612	0.15584
2649.84756	0.15518
2647.91899	0.15456
2645.99043	0.15397
2644.06187	0.15349
2642.13330	0.15303
2640.20474	0.15238
2638.27617	0.15170
2636.34761	0.15126
2634.41904	0.15099
2632.49048	0.15066
2630.56191	0.15017
2628.63335	0.14968
2626.70479	0.14935
2624.77622	0.14907
2622.84766	0.14868
2620.91909	0.14830
2618.99053	0.14811
2617.06196	0.14808
2615.13340	0.14799
2613.20483	0.14774
2611.27627	0.14752
2609.34771	0.14744
2607.41914	0.14737
2605.49058	0.14724
2603.56201	0.14712
2601.63345	0.14704
2599.70488	0.14700
2597.77632	0.14697
2595.84775	0.14702
2593.91919	0.14725
2591.99062	0.14753
2590.06206	0.14775
2588.13350	0.14791
2586.20493	0.14798
2584.27637	0.14805
2582.34780	0.14821
2580.41924	0.14850
2578.49067	0.14891
2576.56211	0.14928
2574.63354	0.14950
2572.70498	0.14975
2570.77642	0.15011
2568.84785	0.15045
2566.91929	0.15074
2564.99072	0.15109
2563.06216	0.15161
2561.13359	0.15218
2559.20503	0.15259
2557.27646	0.15295
2555.34790	0.15346
2553.41934	0.15399
2551.49077	0.15445
2549.56221	0.15493
2547.63364	0.15552
2545.70508	0.15618
2543.77651	0.15680
2541.84795	0.15734
2539.91938	0.15797
2537.99082	0.15862
2536.06226	0.15915
2534.13369	0.15979
2532.20513	0.16056
2530.27656	0.16120
2528.34800	0.16182
2526.41943	0.16258
2524.49087	0.16333
2522.56230	0.16395
2520.63374	0.16455
2518.70518	0.16530
2516.77661	0.16614
2514.84805	0.16691
2512.91948	0.16772
2510.99092	0.16857
2509.06235	0.16923
2507.13379	0.16982
2505.20522	0.17059
2503.27666	0.17144
2501.34810	0.17227
2499.41953	0.17305
2497.49097	0.17374
2495.56240	0.17455
2493.63384	0.17558
2491.70527	0.17669
2489.77671	0.17764
2487.84814	0.17839
2485.91958	0.17913
2483.99102	0.17991
2482.06245	0.18081
2480.13389	0.18182
2478.20532	0.18277
2476.27676	0.18356
2474.34819	0.18426
2472.41963	0.18499
2470.49106	0.18586
2468.56250	0.18690
2466.63394	0.18795
2464.70537	0.18885
2462.77681	0.18959
2460.84824	0.19026
2458.91968	0.19100
2456.99111	0.19195
2455.06255	0.19308
2453.13398	0.19422
2451.20542	0.19533
2449.27686	0.19637
2447.34829	0.19735
2445.41973	0.19833
2443.49116	0.19928
2441.56260	0.20020
2439.63403	0.20121
2437.70547	0.20228
2435.77690	0.20332
2433.84834	0.20430
2431.91978	0.20524
2429.99121	0.20615
2428.06265	0.20714
2426.13408	0.20824
2424.20552	0.20936
2422.27695	0.21039
2420.34839	0.21139
2418.41982	0.21249
2416.49126	0.21377
2414.56270	0.21516
2412.63413	0.21639
2410.70557	0.21739
2408.77700	0.21839
2406.84844	0.21942
2404.91987	0.22046
2402.99131	0.22159
2401.06274	0.22276
2399.13418	0.22397
2397.20562	0.22529
2395.27705	0.22659
2393.34849	0.22777
2391.41992	0.22902
2389.49136	0.23047
2387.56279	0.23239
2385.63423	0.23537
2383.70566	0.23988
2381.77710	0.24595
2379.84854	0.25337
2377.91997	0.26188
2375.99141	0.27156
2374.06284	0.28271
2372.13428	0.29533
2370.20571	0.30884
2368.27715	0.32205
2366.34858	0.33425
2364.42002	0.34529
2362.49146	0.35408
2360.56289	0.35950
2358.63433	0.36101
2356.70576	0.35759
2354.77720	0.34899
2352.84863	0.33695
2350.92007	0.32414
2348.99150	0.31613
2347.06294	0.31701
2345.13437	0.32696
2343.20581	0.33937
2341.27725	0.34531
2339.34868	0.34573
2337.42012	0.34525
2335.49155	0.34523
2333.56299	0.34500
2331.63442	0.34474
2329.70586	0.34441
2327.77729	0.34326
2325.84873	0.34090
2323.92017	0.33790
2321.99160	0.33461
2320.06304	0.33082
2318.13447	0.32697
2316.20591	0.32380
2314.27734	0.32188
2312.34878	0.32110
2310.42021	0.32041
2308.49165	0.31908
2306.56309	0.31734
2304.63452	0.31583
2302.70596	0.31513
2300.77739	0.31520
2298.84883	0.31551
2296.92026	0.31586
2294.99170	0.31624
2293.06313	0.31656
2291.13457	0.31685
2289.20601	0.31731
2287.27744	0.31794
2285.34888	0.31860
2283.42031	0.31952
2281.49175	0.32109
2279.56318	0.32329
2277.63462	0.32580
2275.70605	0.32833
2273.77749	0.33065
2271.84893	0.33280
2269.92036	0.33481
2267.99180	0.33665
2266.06323	0.33847
2264.13467	0.34034
2262.20610	0.34223
2260.27754	0.34412
2258.34897	0.34600
2256.42041	0.34788
2254.49185	0.34979
2252.56328	0.35171
2250.63472	0.35362
2248.70615	0.35558
2246.77759	0.35760
2244.84902	0.35964
2242.92046	0.36163
2240.99189	0.36369
2239.06333	0.36584
2237.13477	0.36799
2235.20620	0.37013
2233.27764	0.37227
2231.34907	0.37449
2229.42051	0.37684
2227.49194	0.37910
2225.56338	0.38114
2223.63481	0.38316
2221.70625	0.38526
2219.77769	0.38741
2217.84912	0.38959
2215.92056	0.39174
2213.99199	0.39391
2212.06343	0.39614
2210.13486	0.39833
2208.20630	0.40039
2206.27773	0.40243
2204.34917	0.40441
2202.42061	0.40632
2200.49204	0.40829
2198.56348	0.41034
2196.63491	0.41235
2194.70635	0.41430
2192.77778	0.41626
2190.84922	0.41826
2188.92065	0.42014
2186.99209	0.42183
2185.06353	0.42351
2183.13496	0.42527
2181.20640	0.42701
2179.27783	0.42866
2177.34927	0.43021
2175.42070	0.43174
2173.49214	0.43332
2171.56357	0.43492
2169.63501	0.43648
2167.70645	0.43794
2165.77788	0.43922
2163.84932	0.44031
2161.92075	0.44136
2159.99219	0.44251
2158.06362	0.44356
2156.13506	0.44435
2154.20649	0.44518
2152.27793	0.44614
2150.34937	0.44701
2148.42080	0.44772
2146.49224	0.44830
2144.56367	0.44886
2142.63511	0.44945
2140.70654	0.44996
2138.77798	0.45030
2136.84941	0.45051
2134.92085	0.45068
2132.99229	0.45081
2131.06372	0.45082
2129.13516	0.45069
2127.20659	0.45054
2125.27803	0.45043
2123.34946	0.45019
2121.42090	0.44980
2119.49233	0.44928
2117.56377	0.44873
2115.63521	0.44822
2113.70664	0.44757
2111.77808	0.44671
2109.84951	0.44586
2107.92095	0.44502
2105.99238	0.44402
2104.06382	0.44295
2102.13525	0.44186
2100.20669	0.44066
2098.27812	0.43929
2096.34956	0.43784
2094.42100	0.43636
2092.49243	0.43494
2090.56387	0.43353
2088.63530	0.43197
2086.70674	0.43023
2084.77817	0.42837
2082.84961	0.42652
2080.92104	0.42471
2078.99248	0.42288
2077.06392	0.42090
2075.13535	0.41877
2073.20679	0.41664
2071.27822	0.41456
2069.34966	0.41249
2067.42109	0.41032
2065.49253	0.40809
2063.56396	0.40585
2061.63540	0.40351
2059.70684	0.40112
2057.77827	0.39876
2055.84971	0.39632
2053.92114	0.39376
2051.99258	0.39123
2050.06401	0.38882
2048.13545	0.38645
2046.20688	0.38396
2044.27832	0.38135
2042.34976	0.37866
2040.42119	0.37597
2038.49263	0.37335
2036.56406	0.37069
2034.63550	0.36789
2032.70693	0.36507
2030.77837	0.36235
2028.84980	0.35963
2026.92124	0.35696
2024.99268	0.35435
2023.06411	0.35171
2021.13555	0.34911
2019.20698	0.34665
2017.27842	0.34414
2015.34985	0.34137
2013.42129	0.33844
2011.49272	0.33556
2009.56416	0.33283
2007.63560	0.33018
2005.70703	0.32752
2003.77847	0.32485
2001.84990	0.32220
1999.92134	0.31958
1997.99277	0.31694
1996.06421	0.31444
1994.13564	0.31216
1992.20708	0.30988
1990.27852	0.30735
1988.34995	0.30473
1986.42139	0.30220
1984.49282	0.29977
1982.56426	0.29740
1980.63569	0.29504
1978.70713	0.29276
1976.77856	0.29057
1974.85000	0.28835
1972.92144	0.28611
1970.99287	0.28403
1969.06431	0.28214
1967.13574	0.28019
1965.20718	0.27802
1963.27861	0.27592
1961.35005	0.27402
1959.42148	0.27217
1957.49292	0.27031
1955.56436	0.26848
1953.63579	0.26670
1951.70723	0.26497
1949.77866	0.26332
1947.85010	0.26180
1945.92153	0.26039
1943.99297	0.25901
1942.06440	0.25752
1940.13584	0.25583
1938.20728	0.25419
1936.27871	0.25274
1934.35015	0.25145
1932.42158	0.25028
1930.49302	0.24909
1928.56445	0.24789
1926.63589	0.24679
1924.70732	0.24585
1922.77876	0.24493
1920.85020	0.24397
1918.92163	0.24317
1916.99307	0.24237
1915.06450	0.24134
1913.13594	0.24031
1911.20737	0.23951
1909.27881	0.23878
1907.35024	0.23803
1905.42168	0.23726
1903.49312	0.23658
1901.56455	0.23602
1899.63599	0.23551
1897.70742	0.23506
1895.77886	0.23469
1893.85029	0.23434
1891.92173	0.23401
1889.99316	0.23384
1888.06460	0.23356
1886.13604	0.23313
1884.20747	0.23278
1882.27891	0.23253
1880.35034	0.23237
1878.42178	0.23226
1876.49321	0.23217
1874.56465	0.23214
1872.63608	0.23233
1870.70752	0.23286
1868.77896	0.23372
1866.85039	0.23407
1864.92183	0.23371
1862.99326	0.23347
1861.06470	0.23355
1859.13613	0.23383
1857.20757	0.23409
1855.27900	0.23441
1853.35044	0.23482
1851.42187	0.23537
1849.49331	0.23606
1847.56475	0.23688
1845.63618	0.23785
1843.70762	0.23888
1841.77905	0.23947
1839.85049	0.23975
1837.92192	0.24048
1835.99336	0.24144
1834.06479	0.24236
1832.13623	0.24345
1830.20767	0.24514
1828.27910	0.24673
1826.35054	0.24758
1824.42197	0.24861
1822.49341	0.24970
1820.56484	0.25075
1818.63628	0.25202
1816.70771	0.25363
1814.77915	0.25530
1812.85059	0.25712
1810.92202	0.25928
1808.99346	0.26132
1807.06489	0.26305
1805.13633	0.26480
1803.20776	0.26699
1801.27920	0.26963
1799.35063	0.27255
1797.42207	0.27510
1795.49351	0.27752
1793.56494	0.28042
1791.63638	0.28405
1789.70781	0.28720
1787.77925	0.28948
1785.85068	0.29241
1783.92212	0.29612
1781.99355	0.30022
1780.06499	0.30444
1778.13643	0.30856
1776.20786	0.31255
1774.27930	0.31710
1772.35073	0.32319
1770.42217	0.32938
1768.49360	0.33428
1766.56504	0.33908
1764.63647	0.34418
1762.70791	0.34995
1760.77935	0.35734
1758.85078	0.36430
1756.92222	0.37129
1754.99365	0.37899
1753.06509	0.38610
1751.13652	0.39458
1749.20796	0.40521
1747.27939	0.41555
1745.35083	0.42448
1743.42227	0.43388
1741.49370	0.44431
1739.56514	0.45659
1737.63657	0.46885
1735.70801	0.47981
1733.77944	0.49645
1731.85088	0.51597
1729.92231	0.53100
1727.99375	0.54615
1726.06519	0.56270
1724.13662	0.58107
1722.20806	0.60093
1720.27949	0.61926
1718.35093	0.64101
1716.42236	0.67319
1714.49380	0.70323
1712.56523	0.72702
1710.63667	0.75028
1708.70811	0.77577
1706.77954	0.80495
1704.85098	0.83977
1702.92241	0.87085
1700.99385	0.90162
1699.06528	0.94747
1697.13672	0.98929
1695.20815	1.03147
1693.27959	1.07258
1691.35103	1.10617
1689.42246	1.14535
1687.49390	1.18657
1685.56533	1.22592
1683.63677	1.28625
1681.70820	1.34895
1679.77964	1.38935
1677.85107	1.42826
1675.92251	1.47303
1673.99395	1.52751
1672.06538	1.57598
1670.13682	1.62411
1668.20825	1.68607
1666.27969	1.73628
1664.35112	1.77938
1662.42256	1.83335
1660.49399	1.89345
1658.56543	1.93995
1656.63687	1.97803
1654.70830	2.01522
1652.77974	2.07514
1650.85117	2.12875
1648.92261	2.14715
1646.99404	2.17351
1645.06548	2.20463
1643.13691	2.22425
1641.20835	2.23544
1639.27979	2.24650
1637.35122	2.25511
1635.42266	2.25671
1633.49409	2.24907
1631.56553	2.23643
1629.63696	2.22144
1627.70840	2.19536
1625.77983	2.16412
1623.85127	2.12410
1621.92271	2.07397
1619.99414	2.03001
1618.06558	1.98797
1616.13701	1.92620
1614.20845	1.86152
1612.27988	1.81291
1610.35132	1.76338
1608.42275	1.70878
1606.49419	1.65385
1604.56562	1.60376
1602.63706	1.55572
1600.70850	1.50800
1598.77993	1.46377
1596.85137	1.42239
1594.92280	1.38233
1592.99424	1.34398
1591.06567	1.30921
1589.13711	1.27678
1587.20854	1.24650
1585.27998	1.21829
1583.35142	1.19160
1581.42285	1.16703
1579.49429	1.14600
1577.56572	1.12723
1575.63716	1.10456
1573.70859	1.08415
1571.78003	1.07047
1569.85146	1.05628
1567.92290	1.04039
1565.99434	1.02801
1564.06577	1.01818
1562.13721	1.01050
1560.20864	1.00515
1558.28008	0.99734
1556.35151	0.98920
1554.42295	0.98392
1552.49438	0.97898
1550.56582	0.97354
1548.63726	0.96683
1546.70869	0.95942
1544.78013	0.95108
1542.85156	0.94124
1540.92300	0.92799
1538.99443	0.90699
1537.06587	0.89052
1535.13730	0.87956
1533.20874	0.86595
1531.28018	0.85106
1529.35161	0.83992
1527.42305	0.82987
1525.49448	0.81992
1523.56592	0.81151
1521.63735	0.80318
1519.70879	0.79397
1517.78022	0.78585
1515.85166	0.77681
1513.92310	0.76748
1511.99453	0.75959
1510.06597	0.75292
1508.13740	0.74693
1506.20884	0.73682
1504.28027	0.72668
1502.35171	0.72072
1500.42314	0.71598
1498.49458	0.71141
1496.56602	0.70587
1494.63745	0.69988
1492.70889	0.69530
1490.78032	0.69168
1488.85176	0.68754
1486.92319	0.68290
1484.99463	0.67858
1483.06606	0.67513
1481.13750	0.67253
1479.20894	0.67045
1477.28037	0.66887
1475.35181	0.66796
1473.42324	0.66753
1471.49468	0.66584
1469.56611	0.66285
1467.63755	0.66031
1465.70898	0.65849
1463.78042	0.65698
1461.85186	0.65570
1459.92329	0.65506
1457.99473	0.65528
1456.06616	0.65488
1454.13760	0.65234
1452.20903	0.64951
1450.28047	0.64707
1448.35190	0.64497
1446.42334	0.64278
1444.49478	0.64059
1442.56621	0.63856
1440.63765	0.63658
1438.70908	0.63493
1436.78052	0.63321
1434.85195	0.63074
1432.92339	0.62840
1430.99482	0.62690
1429.06626	0.62584
1427.13770	0.62496
1425.20913	0.62457
1423.28057	0.62455
1421.35200	0.62445
1419.42344	0.62432
1417.49487	0.62366
1415.56631	0.62200
1413.63774	0.62041
1411.70918	0.61948
1409.78062	0.61915
1407.85205	0.61905
1405.92349	0.61908
1403.99492	0.61898
1402.06636	0.61847
1400.13779	0.61767
1398.20923	0.61641
1396.28066	0.61463
1394.35210	0.61209
1392.42354	0.60890
1390.49497	0.60601
1388.56641	0.60361
1386.63784	0.60094
1384.70928	0.59774
1382.78071	0.59466
1380.85215	0.59207
1378.92358	0.59003
1376.99502	0.58844
1375.06646	0.58729
1373.13789	0.58628
1371.20933	0.58529
1369.28076	0.58456
1367.35220	0.58385
1365.42363	0.58286
1363.49507	0.58165
1361.56650	0.58030
1359.63794	0.57899
1357.70937	0.57790
1355.78081	0.57684
1353.85225	0.57569
1351.92368	0.57458
1349.99512	0.57358
1348.06655	0.57264
1346.13799	0.57174
1344.20942	0.57094
1342.28086	0.57034
1340.35229	0.56992
1338.42373	0.56922
1336.49517	0.56815
1334.56660	0.56718
1332.63804	0.56652
1330.70947	0.56612
1328.78091	0.56588
1326.85234	0.56587
1324.92378	0.56604
1322.99521	0.56617
1321.06665	0.56630
1319.13809	0.56649
1317.20952	0.56643
1315.28096	0.56598
1313.35239	0.56526
1311.42383	0.56440
1309.49526	0.56355
1307.56670	0.56272
1305.63813	0.56191
1303.70957	0.56120
1301.78101	0.56042
1299.85244	0.55935
1297.92388	0.55818
1295.99531	0.55708
1294.06675	0.55597
1292.13818	0.55493
1290.20962	0.55408
1288.28105	0.55330
1286.35249	0.55249
1284.42393	0.55170
1282.49536	0.55085
1280.56680	0.54985
1278.63823	0.54888
1276.70967	0.54816
1274.78110	0.54750
1272.85254	0.54672
1270.92397	0.54591
1268.99541	0.54523
1267.06685	0.54467
1265.13828	0.54406
1263.20972	0.54336
1261.28115	0.54276
1259.35259	0.54233
1257.42402	0.54190
1255.49546	0.54155
1253.56689	0.54143
1251.63833	0.54138
1249.70977	0.54129
1247.78120	0.54125
1245.85264	0.54112
1243.92407	0.54066
1241.99551	0.53991
1240.06694	0.53904
1238.13838	0.53800
1236.20981	0.53670
1234.28125	0.53528
1232.35269	0.53388
1230.42412	0.53249
1228.49556	0.53115
1226.56699	0.52987
1224.63843	0.52861
1222.70986	0.52728
1220.78130	0.52591
1218.85273	0.52472
1216.92417	0.52375
1214.99561	0.52290
1213.06704	0.52212
1211.13848	0.52159
1209.20991	0.52125
1207.28135	0.52073
1205.35278	0.51994
1203.42422	0.51918
1201.49565	0.51859
1199.56709	0.51798
1197.63853	0.51721
1195.70996	0.51640
1193.78140	0.51563
1191.85283	0.51500
1189.92427	0.51458
1187.99570	0.51427
1186.06714	0.51400
1184.13857	0.51381
1182.21001	0.51400
1180.28145	0.51467
1178.35288	0.51546
1176.42432	0.51616
1174.49575	0.51691
1172.56719	0.51769
1170.63862	0.51837
1168.71006	0.51893
1166.78149	0.51942
1164.85293	0.51993
1162.92437	0.52033
1160.99580	0.52058
1159.06724	0.52068
1157.13867	0.52047
1155.21011	0.51981
1153.28154	0.51864
1151.35298	0.51703
1149.42441	0.51515
1147.49585	0.51306
1145.56729	0.51069
1143.63872	0.50808
1141.71016	0.50556
1139.78159	0.50356
1137.85303	0.50215
1135.92446	0.50127
1133.99590	0.50079
1132.06733	0.50048
1130.13877	0.50032
1128.21021	0.50024
1126.28164	0.49989
1124.35308	0.49919
1122.42451	0.49856
1120.49595	0.49820
1118.56738	0.49817
1116.63882	0.49854
1114.71025	0.49908
1112.78169	0.49965
1110.85312	0.50044
1108.92456	0.50142
1106.99600	0.50232
1105.06743	0.50317
1103.13887	0.50404
1101.21030	0.50503
1099.28174	0.50644
1097.35317	0.50847
1095.42461	0.51132
1093.49604	0.51502
1091.56748	0.51955
1089.63892	0.52535
1087.71035	0.53265
1085.78179	0.54080
1083.85322	0.54905
1081.92466	0.55669
1079.99609	0.56268
1078.06753	0.56591
1076.13896	0.56569
1074.21040	0.56226
1072.28184	0.55669
1070.35327	0.55012
1068.42471	0.54333
1066.49614	0.53663
1064.56758	0.53025
1062.63901	0.52467
1060.71045	0.52001
1058.78188	0.51601
1056.85332	0.51243
1054.92476	0.50913
1052.99619	0.50631
1051.06763	0.50423
1049.13906	0.50282
1047.21050	0.50207
1045.28193	0.50190
1043.35337	0.50199
1041.42480	0.50217
1039.49624	0.50220
1037.56768	0.50202
1035.63911	0.50184
1033.71055	0.50152
1031.78198	0.50083
1029.85342	0.49960
1027.92485	0.49794
1025.99629	0.49640
1024.06772	0.49537
1022.13916	0.49484
1020.21060	0.49455
1018.28203	0.49434
1016.35347	0.49425
1014.42490	0.49420
1012.49634	0.49416
1010.56777	0.49423
1008.63921	0.49431
1006.71064	0.49470
1004.78208	0.49589
1002.85352	0.49775
1000.92495	0.50004
998.99639	0.50302
997.06782	0.50688
995.13926	0.51120
993.21069	0.51534
991.28213	0.51871
989.35356	0.52065
987.42500	0.52106
985.49644	0.52078
983.56787	0.52062
981.63931	0.52104
979.71074	0.52213
977.78218	0.52359
975.85361	0.52539
973.92505	0.52771
971.99648	0.53057
970.06792	0.53402
968.13936	0.53777
966.21079	0.54149
964.28223	0.54558
962.35366	0.55021
960.42510	0.55506
958.49653	0.56013
956.56797	0.56555
954.63940	0.57138
952.71084	0.57746
950.78228	0.58364
948.85371	0.58993
946.92515	0.59615
944.99658	0.60212
943.06802	0.60819
941.13945	0.61440
939.21089	0.62017
937.28232	0.62561
935.35376	0.63160
933.42520	0.63791
931.49663	0.64380
929.56807	0.64937
927.63950	0.65503
925.71094	0.66079
923.78237	0.66638
921.85381	0.67204
919.92524	0.67822
917.99668	0.68475
916.06812	0.69187
914.13955	0.69949
912.21099	0.70642
910.28242	0.71329
908.35386	0.72149
906.42529	0.73037
904.49673	0.73961
902.56816	0.74935
900.63960	0.75890
898.71104	0.76832
896.78247	0.77850
894.85391	0.78917
892.92534	0.79878
890.99678	0.80785
889.06821	0.81812
887.13965	0.82928
885.21108	0.84039
883.28252	0.85115
881.35396	0.86170
879.42539	0.87240
877.49683	0.88337
875.56826	0.89456
873.63970	0.90578
871.71113	0.91719
869.78257	0.92853
867.85400	0.93979
865.92544	0.95173
863.99687	0.96367
862.06831	0.97519
860.13975	0.98637
858.21118	0.99733
856.28262	1.00858
854.35405	1.01998
852.42549	1.03176
850.49692	1.04400
848.56836	1.05562
846.63979	1.06513
844.71123	1.07290
842.78267	1.08090
840.85410	1.09107
838.92554	1.10464
836.99697	1.11907
835.06841	1.13152
833.13984	1.14392
831.21128	1.15708
829.28271	1.16811
827.35415	1.17774
825.42559	1.19077
823.49702	1.20688
821.56846	1.21737
819.63989	1.21941
817.71133	1.22463
815.78276	1.23954
813.85420	1.25568
811.92563	1.27154
809.99707	1.28906
808.06851	1.29832
806.13994	1.30045
804.21138	1.30513
802.28281	1.31499
800.35425	1.31885
798.42568	1.31589
796.49712	1.32226
794.56855	1.32536
792.63999	1.32860
790.71143	1.36666
788.78286	1.42577
786.85430	1.43719
784.92573	1.39860
782.99717	1.35370
781.06860	1.32695
779.14004	1.32871
777.21147	1.31114
775.28291	1.28743
773.35435	1.33109
771.42578	1.43222
769.49722	1.51863
767.56865	1.63069
765.64009	1.82388
763.71152	1.79761
761.78296	1.62177
759.85439	1.44657
757.92583	1.28819
755.99727	1.22256
754.06870	1.21537
752.14014	1.19929
750.21157	1.22777
748.28301	1.25002
746.35444	1.18244
744.42588	1.13523
742.49731	1.06608
740.56875	0.94690
738.64019	0.88720
736.71162	0.82430
734.78306	0.72386
732.85449	0.67072
730.92593	0.62827
728.99736	0.59805
727.06880	0.59821
725.14023	0.51574
723.21167	0.39414
721.28311	0.24048
719.35454	-0.00215
717.42598	-0.08210
715.49741	0.03851
713.56885	0.15663
711.64028	0.14593
709.71172	0.13962
707.78315	0.24938
705.85459	0.35267
703.92603	0.44982
701.99746	0.43721
700.06890	0.30549
698.14033	0.18240
696.21177	0.14610
694.28320	0.17486
692.35464	0.24874
690.42607	0.51483
688.49751	1.49338
686.56895	0.95933
684.64038	0.52607
682.71182	0.39249
680.78325	0.40184
678.85469	0.48489
676.92612	0.50349
674.99756	0.40395
673.06899	0.36841
671.14043	0.33933
669.21187	0.25119
667.28330	0.19177
665.35474	0.25343
663.42617	0.46693
661.49761	0.58315
659.56904	0.45841
657.64048	0.42463
655.71191	0.41220
653.78335	0.32881
651.85479	0.27840
649.92622	0.31123
647.99766	0.40408
646.06909	0.44085
644.14053	0.41100
642.21196	0.46298
640.28340	0.56266
638.35483	0.55847
636.42627	0.45688
634.49771	0.34647
632.56914	0.23444
630.64058	0.15736
628.71201	0.14024
626.78345	0.18010
624.85488	0.33074
622.92632	0.48202
620.99775	0.43783
619.06919	0.42337
617.14062	0.46040
615.21206	0.38607
613.28350	0.24880
611.35493	0.19758
609.42637	0.22922
607.49780	0.27244
605.56924	0.29043
603.64067	0.21400
601.71211	0.13250
599.78354	0.12831
597.85498	0.18698
595.92642	0.28976
593.99785	0.37061
592.06929	0.37515
590.14072	0.34738
588.21216	0.24818
586.28359	0.14575
584.35503	0.12053
582.42646	0.15840
580.49790	0.21729
578.56934	0.24154
576.64077	0.24474
574.71221	0.29429
572.78364	0.32059
570.85508	0.28300
568.92651	0.29577
566.99795	0.44988
565.06938	0.52883
563.14082	0.35430
561.21226	0.28516
559.28369	0.22489
557.35513	0.14238
555.42656	0.13622
553.49800	0.19789
551.56943	0.22701
549.64087	0.19395
547.71230	0.20643
545.78374	0.28974
543.85518	0.35936
541.92661	0.36008
539.99805	0.35042
538.06948	0.35352
536.14092	0.39145
534.21235	0.37750
532.28379	0.28153
530.35522	0.20539
528.42666	0.21661
526.49810	0.29317
524.56953	0.29812
522.64097	0.21899
520.71240	0.15848
518.78384	0.13537
516.85527	0.11816
514.92671	0.13367
512.99814	0.24284
511.06958	0.36241
509.14102	0.35949
507.21245	0.32799
505.28389	0.31612
503.35532	0.29010
501.42676	0.30032
499.49819	0.31743
