3997.91411	0.07258
3995.98555	0.07264
3994.05698	0.07288
3992.12842	0.07331
3990.19985	0.07367
3988.27129	0.07400
3986.34272	0.07430
3984.41416	0.07439
3982.48560	0.07443
3980.55703	0.07452
3978.62847	0.07450
3976.69990	0.07464
3974.77134	0.07493
3972.84277	0.07502
3970.91421	0.07512
3968.98564	0.07535
3967.05708	0.07563
3965.12852	0.07595
3963.19995	0.07613
3961.27139	0.07623
3959.34282	0.07643
3957.41426	0.07631
3955.48569	0.07577
3953.55713	0.07548
3951.62856	0.07575
3949.70000	0.07607
3947.77144	0.07601
3945.84287	0.07600
3943.91431	0.07623
3941.98574	0.07623
3940.05718	0.07594
3938.12861	0.07582
3936.20005	0.07601
3934.27148	0.07605
3932.34292	0.07547
3930.41436	0.07501
3928.48579	0.07544
3926.55723	0.07597
3924.62866	0.07606
3922.70010	0.07598
3920.77153	0.07598
3918.84297	0.07598
3916.91440	0.07579
3914.98584	0.07565
3913.05728	0.07560
3911.12871	0.07550
3909.20015	0.07547
3907.27158	0.07526
3905.34302	0.07479
3903.41445	0.07461
3901.48589	0.07468
3899.55732	0.07465
3897.62876	0.07498
3895.70020	0.07542
3893.77163	0.07540
3891.84307	0.07534
3889.91450	0.07574
3887.98594	0.07599
3886.05737	0.07585
3884.12881	0.07567
3882.20024	0.07555
3880.27168	0.07580
3878.34312	0.07662
3876.41455	0.07707
3874.48599	0.07674
3872.55742	0.07619
3870.62886	0.07585
3868.70029	0.07606
3866.77173	0.07674
3864.84316	0.07741
3862.91460	0.07784
3860.98604	0.07810
3859.05747	0.07844
3857.12891	0.07859
3855.20034	0.07844
3853.27178	0.07871
3851.34321	0.08010
3849.41465	0.08102
3847.48608	0.08129
3845.55752	0.08163
3843.62896	0.08223
3841.70039	0.08299
3839.77183	0.08345
3837.84326	0.08370
3835.91470	0.08436
3833.98613	0.08521
3832.05757	0.08599
3830.12900	0.08676
3828.20044	0.08730
3826.27187	0.08783
3824.34331	0.08854
3822.41475	0.08907
3820.48618	0.09001
3818.55762	0.09151
3816.62905	0.09254
3814.70049	0.09375
3812.77192	0.09523
3810.84336	0.09624
3808.91479	0.09685
3806.98623	0.09751
3805.05767	0.09846
3803.12910	0.09917
3801.20054	0.10002
3799.27197	0.10181
3797.34341	0.10351
3795.41484	0.10501
3793.48628	0.10662
3791.55771	0.10798
3789.62915	0.10897
3787.70059	0.10959
3785.77202	0.11035
3783.84346	0.11180
3781.91489	0.11364
3779.98633	0.11538
3778.05776	0.11724
3776.12920	0.11901
3774.20063	0.12066
3772.27207	0.12254
3770.34351	0.12455
3768.41494	0.12639
3766.48638	0.12808
3764.55781	0.13024
3762.62925	0.13239
3760.70068	0.13385
3758.77212	0.13575
3756.84355	0.13857
3754.91499	0.14089
3752.98643	0.14255
3751.05786	0.14477
3749.12930	0.14812
3747.20073	0.15062
3745.27217	0.15223
3743.34360	0.15512
3741.41504	0.15884
3739.48647	0.16151
3737.55791	0.16341
3735.62935	0.16558
3733.70078	0.16954
3731.77222	0.17461
3729.84365	0.17910
3727.91509	0.18310
3725.98652	0.18783
3724.05796	0.19426
3722.12939	0.20225
3720.20083	0.21149
3718.27227	0.22136
3716.34370	0.23127
3714.41514	0.24030
3712.48657	0.24886
3710.55801	0.25978
3708.62944	0.27336
3706.70088	0.28628
3704.77231	0.29828
3702.84375	0.31134
3700.91519	0.32825
3698.98662	0.34741
3697.05806	0.36592
3695.12949	0.38546
3693.20093	0.40583
3691.27236	0.42735
3689.34380	0.45546
3687.41523	0.49150
3685.48667	0.52425
3683.55811	0.55260
3681.62954	0.58212
3679.70098	0.61408
3677.77241	0.64680
3675.84385	0.68541
3673.91528	0.73955
3671.98672	0.78511
3670.05815	0.82450
3668.12959	0.87940
3666.20103	0.93108
3664.27246	0.97348
3662.34390	1.01767
3660.41533	1.06536
3658.48677	1.11242
3656.55820	1.16207
3654.62964	1.21808
3652.70107	1.26518
3650.77251	1.30430
3648.84395	1.35854
3646.91538	1.42899
3644.98682	1.48211
3643.05825	1.52235
3641.12969	1.56262
3639.20112	1.60651
3637.27256	1.65065
3635.34399	1.69355
3633.41543	1.73627
3631.48687	1.77580
3629.55830	1.81481
3627.62974	1.86688
3625.70117	1.91892
3623.77261	1.95533
3621.84404	1.98889
3619.91548	2.02612
3617.98691	2.07155
3616.05835	2.11649
3614.12979	2.15454
3612.20122	2.19469
3610.27266	2.23491
3608.34409	2.27470
3606.41553	2.31718
3604.48696	2.35712
3602.55840	2.39227
3600.62983	2.42920
3598.70127	2.46920
3596.77271	2.50888
3594.84414	2.54957
3592.91558	2.59112
3590.98701	2.62994
3589.05845	2.66682
3587.12988	2.71216
3585.20132	2.76259
3583.27275	2.80339
3581.34419	2.83961
3579.41562	2.88016
3577.48706	2.92504
3575.55850	2.96914
3573.62993	3.01115
3571.70137	3.05113
3569.77280	3.09065
3567.84424	3.13272
3565.91567	3.18279
3563.98711	3.23254
3562.05854	3.27551
3560.12998	3.31887
3558.20142	3.36289
3556.27285	3.40499
3554.34429	3.44725
3552.41572	3.49494
3550.48716	3.54414
3548.55859	3.58950
3546.63003	3.63385
3544.70146	3.68028
3542.77290	3.72674
3540.84434	3.77261
3538.91577	3.82069
3536.98721	3.87084
3535.05864	3.92115
3533.13008	3.96778
3531.20151	4.01441
3529.27295	4.06518
3527.34438	4.11535
3525.41582	4.15881
3523.48726	4.20081
3521.55869	4.25017
3519.63013	4.30110
3517.70156	4.34820
3515.77300	4.39418
3513.84443	4.44137
3511.91587	4.49086
3509.98730	4.54228
3508.05874	4.59073
3506.13018	4.63415
3504.20161	4.67602
3502.27305	4.72226
3500.34448	4.77421
3498.41592	4.82547
3496.48735	4.87566
3494.55879	4.92172
3492.63022	4.96463
3490.70166	5.01593
3488.77310	5.07023
3486.84453	5.11608
3484.91597	5.16028
3482.98740	5.20663
3481.05884	5.25275
3479.13027	5.30106
3477.20171	5.35154
3475.27314	5.40278
3473.34458	5.44826
3471.41602	5.48347
3469.48745	5.52523
3467.55889	5.59101
3465.63032	5.66028
3463.70176	5.70033
3461.77319	5.72510
3459.84463	5.76869
3457.91606	5.83016
3455.98750	5.89563
3454.05894	5.95315
3452.13037	5.99138
3450.20181	6.02729
3448.27324	6.08283
3446.34468	6.14953
3444.41611	6.20243
3442.48755	6.24466
3440.55898	6.28590
3438.63042	6.32228
3436.70186	6.35517
3434.77329	6.39383
3432.84473	6.44859
3430.91616	6.51185
3428.98760	6.57643
3427.05903	6.65320
3425.13047	6.73431
3423.20190	6.78684
3421.27334	6.82222
3419.34478	6.86499
3417.41621	6.90118
3415.48765	6.91308
3413.55908	6.93979
3411.63052	7.03421
3409.70195	7.13550
3407.77339	7.16747
3405.84482	7.16836
3403.91626	7.19247
3401.98770	7.21950
3400.05913	7.23599
3398.13057	7.25503
3396.20200	7.28082
3394.27344	7.31904
3392.34487	7.34101
3390.41631	7.37793
3388.48774	7.47090
3386.55918	7.57858
3384.63062	7.64555
3382.70205	7.66744
3380.77349	7.66684
3378.84492	7.66459
3376.91636	7.65296
3374.98779	7.61596
3373.05923	7.60961
3371.13066	7.63713
3369.20210	7.67254
3367.27354	7.73020
3365.34497	7.81727
3363.41641	7.91449
3361.48784	7.98745
3359.55928	8.00894
3357.63071	7.96383
3355.70215	7.88161
3353.77358	7.80762
3351.84502	7.79853
3349.91646	7.85628
3347.98789	7.95980
3346.05933	8.03339
3344.13076	8.02847
3342.20220	8.06938
3340.27363	8.16201
3338.34507	8.16252
3336.41650	8.07050
3334.48794	8.01293
3332.55937	7.99352
3330.63081	7.98500
3328.70225	7.99854
3326.77368	8.05053
3324.84512	8.13030
3322.91655	8.15974
3320.98799	8.14789
3319.05942	8.12629
3317.13086	8.10897
3315.20229	8.10868
3313.27373	8.09799
3311.34517	8.09772
3309.41660	8.14667
3307.48804	8.17712
3305.55947	8.16951
3303.63091	8.14455
3301.70234	8.09360
3299.77378	8.12416
3297.84521	8.20522
3295.91665	8.17769
3293.98809	8.07084
3292.05952	8.03925
3290.13096	8.08232
3288.20239	8.08584
3286.27383	8.03750
3284.34526	7.97597
3282.41670	8.00230
3280.48813	8.13977
3278.55957	8.25681
3276.63101	8.20898
3274.70244	8.07195
3272.77388	8.02585
3270.84531	8.03339
3268.91675	7.99261
3266.98818	7.97565
3265.05962	8.08678
3263.13105	8.21239
3261.20249	8.18350
3259.27393	8.15894
3257.34536	8.22546
3255.41680	8.15214
3253.48823	8.01340
3251.55967	8.06396
3249.63110	8.21192
3247.70254	8.24580
3245.77397	8.17064
3243.84541	8.11889
3241.91685	8.13663
3239.98828	8.17721
3238.05972	8.16660
3236.13115	8.12093
3234.20259	8.10757
3232.27402	8.09577
3230.34546	8.07868
3228.41689	8.03312
3226.48833	7.92526
3224.55977	7.85802
3222.63120	7.87132
3220.70264	7.87355
3218.77407	7.81764
3216.84551	7.75166
3214.91694	7.76068
3212.98838	7.83942
3211.05981	7.88534
3209.13125	7.86950
3207.20269	7.81803
3205.27412	7.76284
3203.34556	7.71472
3201.41699	7.64786
3199.48843	7.59456
3197.55986	7.60866
3195.63130	7.66358
3193.70273	7.67424
3191.77417	7.60281
3189.84561	7.49313
3187.91704	7.40976
3185.98848	7.36156
3184.05991	7.30269
3182.13135	7.24210
3180.20278	7.20699
3178.27422	7.17311
3176.34565	7.13984
3174.41709	7.08590
3172.48853	6.98798
3170.55996	6.89553
3168.63140	6.84412
3166.70283	6.81955
3164.77427	6.80422
3162.84570	6.78408
3160.91714	6.70917
3158.98857	6.58978
3157.06001	6.50806
3155.13145	6.46964
3153.20288	6.42435
3151.27432	6.35808
3149.34575	6.28901
3147.41719	6.21927
3145.48862	6.13614
3143.56006	6.04476
3141.63149	5.95767
3139.70293	5.88761
3137.77437	5.83597
3135.84580	5.78109
3133.91724	5.71156
3131.98867	5.63144
3130.06011	5.55173
3128.13154	5.48383
3126.20298	5.42438
3124.27441	5.36190
3122.34585	5.28435
3120.41729	5.19785
3118.48872	5.12083
3116.56016	5.05293
3114.63159	4.98358
3112.70303	4.91317
3110.77446	4.84466
3108.84590	4.77704
3106.91733	4.71179
3104.98877	4.64787
3103.06021	4.57993
3101.13164	4.50656
3099.20308	4.43561
3097.27451	4.37324
3095.34595	4.31203
3093.41738	4.24401
3091.48882	4.17410
3089.56025	4.11021
3087.63169	4.05120
3085.70312	3.99083
3083.77456	3.92771
3081.84600	3.86349
3079.91743	3.79829
3077.98887	3.73544
3076.06030	3.67617
3074.13174	3.61737
3072.20317	3.55961
3070.27461	3.50364
3068.34604	3.44735
3066.41748	3.39021
3064.48892	3.33297
3062.56035	3.27591
3060.63179	3.22094
3058.70322	3.16846
3056.77466	3.11557
3054.84609	3.06218
3052.91753	3.01056
3050.98896	2.96061
3049.06040	2.91068
3047.13184	2.86084
3045.20327	2.81249
3043.27471	2.76536
3041.34614	2.71831
3039.41758	2.67120
3037.48901	2.62445
3035.56045	2.57902
3033.63188	2.53528
3031.70332	2.49150
3029.77476	2.44683
3027.84619	2.40327
3025.91763	2.36161
3023.98906	2.32048
3022.06050	2.27954
3020.13193	2.23936
3018.20337	2.19979
3016.27480	2.16060
3014.34624	2.12220
3012.41768	2.08493
3010.48911	2.04855
3008.56055	2.01256
3006.63198	1.97659
3004.70342	1.94072
3002.77485	1.90520
3000.84629	1.87055
2998.91772	1.83726
2996.98916	1.80477
2995.06060	1.77225
2993.13203	1.73967
2991.20347	1.70767
2989.27490	1.67667
2987.34634	1.64656
2985.41777	1.61709
2983.48921	1.58768
2981.56064	1.55825
2979.63208	1.52914
2977.70352	1.50026
2975.77495	1.47207
2973.84639	1.44484
2971.91782	1.41782
2969.98926	1.39095
2968.06069	1.36457
2966.13213	1.33844
2964.20356	1.31277
2962.27500	1.28826
2960.34644	1.26467
2958.41787	1.24117
2956.48931	1.21784
2954.56074	1.19517
2952.63218	1.17320
2950.70361	1.15174
2948.77505	1.13047
2946.84648	1.10917
2944.91792	1.08793
2942.98936	1.06703
2941.06079	1.04688
2939.13223	1.02737
2937.20366	1.00795
2935.27510	0.98860
2933.34653	0.96970
2931.41797	0.95152
2929.48940	0.93404
2927.56084	0.91702
2925.63228	0.90015
2923.70371	0.88338
2921.77515	0.86709
2919.84658	0.85139
2917.91802	0.83595
2915.98945	0.82063
2914.06089	0.80562
2912.13232	0.79112
2910.20376	0.77714
2908.27520	0.76344
2906.34663	0.75002
2904.41807	0.73705
2902.48950	0.72457
2900.56094	0.71241
2898.63237	0.70029
2896.70381	0.68846
2894.77524	0.67680
2892.84668	0.66486
2890.91812	0.65290
2888.98955	0.64154
2887.06099	0.63079
2885.13242	0.62012
2883.20386	0.60929
2881.27529	0.59862
2879.34673	0.58825
2877.41816	0.57795
2875.48960	0.56779
2873.56104	0.55794
2871.63247	0.54821
2869.70391	0.53860
2867.77534	0.52940
2865.84678	0.52042
2863.91821	0.51132
2861.98965	0.50224
2860.06108	0.49338
2858.13252	0.48479
2856.20396	0.47656
2854.27539	0.46869
2852.34683	0.46123
2850.41826	0.45395
2848.48970	0.44653
2846.56113	0.43902
2844.63257	0.43185
2842.70400	0.42541
2840.77544	0.41955
2838.84687	0.41391
2836.91831	0.40832
2834.98975	0.40273
2833.06118	0.39713
2831.13262	0.39158
2829.20405	0.38620
2827.27549	0.38090
2825.34692	0.37543
2823.41836	0.36981
2821.48979	0.36422
2819.56123	0.35869
2817.63267	0.35323
2815.70410	0.34789
2813.77554	0.34271
2811.84697	0.33759
2809.91841	0.33255
2807.98984	0.32770
2806.06128	0.32296
2804.13271	0.31828
2802.20415	0.31372
2800.27559	0.30925
2798.34702	0.30482
2796.41846	0.30043
2794.48989	0.29602
2792.56133	0.29177
2790.63276	0.28786
2788.70420	0.28406
2786.77563	0.28030
2784.84707	0.27667
2782.91851	0.27302
2780.98994	0.26937
2779.06138	0.26575
2777.13281	0.26215
2775.20425	0.25867
2773.27568	0.25533
2771.34712	0.25200
2769.41855	0.24871
2767.48999	0.24545
2765.56143	0.24228
2763.63286	0.23922
2761.70430	0.23632
2759.77573	0.23355
2757.84717	0.23075
2755.91860	0.22791
2753.99004	0.22513
2752.06147	0.22241
2750.13291	0.21980
2748.20435	0.21728
2746.27578	0.21471
2744.34722	0.21222
2742.41865	0.20996
2740.49009	0.20773
2738.56152	0.20538
2736.63296	0.20300
2734.70439	0.20072
2732.77583	0.19856
2730.84727	0.19653
2728.91870	0.19453
2726.99014	0.19259
2725.06157	0.19072
2723.13301	0.18879
2721.20444	0.18684
2719.27588	0.18498
2717.34731	0.18322
2715.41875	0.18156
2713.49019	0.17997
2711.56162	0.17841
2709.63306	0.17689
2707.70449	0.17540
2705.77593	0.17386
2703.84736	0.17241
2701.91880	0.17113
2699.99023	0.16981
2698.06167	0.16846
2696.13311	0.16720
2694.20454	0.16592
2692.27598	0.16469
2690.34741	0.16354
2688.41885	0.16241
2686.49028	0.16130
2684.56172	0.16021
2682.63315	0.15911
2680.70459	0.15801
2678.77603	0.15705
2676.84746	0.15622
2674.91890	0.15528
2672.99033	0.15422
2671.06177	0.15325
2669.13320	0.15238
2667.20464	0.15148
2665.27607	0.15065
2663.34751	0.14996
2661.41895	0.14931
2659.49038	0.14865
2657.56182	0.14798
2655.63325	0.14727
2653.70469	0.14664
2651.77612	0.14620
2649.84756	0.14579
2647.91899	0.14527
2645.99043	0.14470
2644.06187	0.14417
2642.13330	0.14369
2640.20474	0.14331
2638.27617	0.14304
2636.34761	0.14280
2634.41904	0.14254
2632.49048	0.14209
2630.56191	0.14157
2628.63335	0.14122
2626.70479	0.14105
2624.77622	0.14100
2622.84766	0.14099
2620.91909	0.14093
2618.99053	0.14079
2617.06196	0.14065
2615.13340	0.14060
2613.20483	0.14053
2611.27627	0.14037
2609.34771	0.14024
2607.41914	0.14019
2605.49058	0.14020
2603.56201	0.14024
2601.63345	0.14037
2599.70488	0.14057
2597.77632	0.14073
2595.84775	0.14081
2593.91919	0.14096
2591.99062	0.14126
2590.06206	0.14157
2588.13350	0.14180
2586.20493	0.14203
2584.27637	0.14227
2582.34780	0.14251
2580.41924	0.14281
2578.49067	0.14314
2576.56211	0.14356
2574.63354	0.14402
2572.70498	0.14446
2570.77642	0.14493
2568.84785	0.14543
2566.91929	0.14588
2564.99072	0.14624
2563.06216	0.14659
2561.13359	0.14706
2559.20503	0.14763
2557.27646	0.14819
2555.34790	0.14874
2553.41934	0.14926
2551.49077	0.14983
2549.56221	0.15062
2547.63364	0.15141
2545.70508	0.15200
2543.77651	0.15253
2541.84795	0.15310
2539.91938	0.15363
2537.99082	0.15419
2536.06226	0.15488
2534.13369	0.15569
2532.20513	0.15651
2530.27656	0.15729
2528.34800	0.15809
2526.41943	0.15893
2524.49087	0.15969
2522.56230	0.16038
2520.63374	0.16115
2518.70518	0.16198
2516.77661	0.16283
2514.84805	0.16374
2512.91948	0.16467
2510.99092	0.16547
2509.06235	0.16621
2507.13379	0.16703
2505.20522	0.16799
2503.27666	0.16891
2501.34810	0.16957
2499.41953	0.17021
2497.49097	0.17104
2495.56240	0.17203
2493.63384	0.17302
2491.70527	0.17396
2489.77671	0.17486
2487.84814	0.17572
2485.91958	0.17659
2483.99102	0.17755
2482.06245	0.17860
2480.13389	0.17963
2478.20532	0.18058
2476.27676	0.18143
2474.34819	0.18229
2472.41963	0.18330
2470.49106	0.18438
2468.56250	0.18533
2466.63394	0.18618
2464.70537	0.18710
2462.77681	0.18810
2460.84824	0.18917
2458.91968	0.19018
2456.99111	0.19108
2455.06255	0.19200
2453.13398	0.19307
2451.20542	0.19421
2449.27686	0.19525
2447.34829	0.19623
2445.41973	0.19725
2443.49116	0.19831
2441.56260	0.19934
2439.63403	0.20041
2437.70547	0.20148
2435.77690	0.20243
2433.84834	0.20341
2431.91978	0.20443
2429.99121	0.20546
2428.06265	0.20663
2426.13408	0.20787
2424.20552	0.20904
2422.27695	0.21020
2420.34839	0.21138
2418.41982	0.21253
2416.49126	0.21365
2414.56270	0.21469
2412.63413	0.21573
2410.70557	0.21693
2408.77700	0.21836
2406.84844	0.21970
2404.91987	0.22080
2402.99131	0.22190
2401.06274	0.22311
2399.13418	0.22428
2397.20562	0.22542
2395.27705	0.22664
2393.34849	0.22787
2391.41992	0.22901
2389.49136	0.22994
2387.56279	0.23050
2385.63423	0.23017
2383.70566	0.22832
2381.77710	0.22503
2379.84854	0.22078
2377.91997	0.21556
2375.99141	0.20909
2374.06284	0.20145
2372.13428	0.19283
2370.20571	0.18320
2368.27715	0.17281
2366.34858	0.16335
2364.42002	0.15627
2362.49146	0.15148
2360.56289	0.14862
2358.63433	0.14923
2356.70576	0.15611
2354.77720	0.16870
2352.84863	0.18384
2350.92007	0.19851
2348.99150	0.20788
2347.06294	0.20900
2345.13437	0.20273
2343.20581	0.19496
2341.27725	0.19237
2339.34868	0.19437
2337.42012	0.19800
2335.49155	0.20163
2333.56299	0.20505
2331.63442	0.20837
2329.70586	0.21197
2327.77729	0.21625
2325.84873	0.22145
2323.92017	0.22745
2321.99160	0.23374
2320.06304	0.24020
2318.13447	0.24697
2316.20591	0.25328
2314.27734	0.25833
2312.34878	0.26244
2310.42021	0.26661
2308.49165	0.27135
2306.56309	0.27636
2304.63452	0.28109
2302.70596	0.28513
2300.77739	0.28863
2298.84883	0.29197
2296.92026	0.29528
2294.99170	0.29856
2293.06313	0.30186
2291.13457	0.30511
2289.20601	0.30829
2287.27744	0.31150
2285.34888	0.31465
2283.42031	0.31743
2281.49175	0.31969
2279.56318	0.32155
2277.63462	0.32326
2275.70605	0.32499
2273.77749	0.32680
2271.84893	0.32875
2269.92036	0.33080
2267.99180	0.33290
2266.06323	0.33507
2264.13467	0.33731
2262.20610	0.33964
2260.27754	0.34207
2258.34897	0.34452
2256.42041	0.34693
2254.49185	0.34928
2252.56328	0.35167
2250.63472	0.35407
2248.70615	0.35638
2246.77759	0.35872
2244.84902	0.36115
2242.92046	0.36354
2240.99189	0.36580
2239.06333	0.36789
2237.13477	0.36999
2235.20620	0.37227
2233.27764	0.37463
2231.34907	0.37693
2229.42051	0.37924
2227.49194	0.38148
2225.56338	0.38364
2223.63481	0.38589
2221.70625	0.38813
2219.77769	0.39023
2217.84912	0.39234
2215.92056	0.39463
2213.99199	0.39692
2212.06343	0.39904
2210.13486	0.40106
2208.20630	0.40301
2206.27773	0.40501
2204.34917	0.40717
2202.42061	0.40936
2200.49204	0.41143
2198.56348	0.41339
2196.63491	0.41534
2194.70635	0.41729
2192.77778	0.41929
2190.84922	0.42138
2188.92065	0.42333
2186.99209	0.42504
2185.06353	0.42673
2183.13496	0.42847
2181.20640	0.43014
2179.27783	0.43181
2177.34927	0.43355
2175.42070	0.43517
2173.49214	0.43666
2171.56357	0.43816
2169.63501	0.43955
2167.70645	0.44080
2165.77788	0.44201
2163.84932	0.44323
2161.92075	0.44444
2159.99219	0.44566
2158.06362	0.44680
2156.13506	0.44782
2154.20649	0.44879
2152.27793	0.44972
2150.34937	0.45054
2148.42080	0.45135
2146.49224	0.45220
2144.56367	0.45284
2142.63511	0.45325
2140.70654	0.45359
2138.77798	0.45387
2136.84941	0.45413
2134.92085	0.45439
2132.99229	0.45454
2131.06372	0.45456
2129.13516	0.45448
2127.20659	0.45425
2125.27803	0.45389
2123.34946	0.45344
2121.42090	0.45291
2119.49233	0.45240
2117.56377	0.45201
2115.63521	0.45150
2113.70664	0.45078
2111.77808	0.45002
2109.84951	0.44922
2107.92095	0.44839
2105.99238	0.44746
2104.06382	0.44631
2102.13525	0.44503
2100.20669	0.44373
2098.27812	0.44242
2096.34956	0.44118
2094.42100	0.43994
2092.49243	0.43847
2090.56387	0.43677
2088.63530	0.43503
2086.70674	0.43338
2084.77817	0.43168
2082.84961	0.42993
2080.92104	0.42812
2078.99248	0.42617
2077.06392	0.42418
2075.13535	0.42222
2073.20679	0.42023
2071.27822	0.41814
2069.34966	0.41595
2067.42109	0.41372
2065.49253	0.41154
2063.56396	0.40931
2061.63540	0.40692
2059.70684	0.40448
2057.77827	0.40212
2055.84971	0.39976
2053.92114	0.39731
2051.99258	0.39480
2050.06401	0.39222
2048.13545	0.38961
2046.20688	0.38703
2044.27832	0.38446
2042.34976	0.38188
2040.42119	0.37934
2038.49263	0.37679
2036.56406	0.37408
2034.63550	0.37129
2032.70693	0.36852
2030.77837	0.36572
2028.84980	0.36288
2026.92124	0.36011
2024.99268	0.35752
2023.06411	0.35505
2021.13555	0.35241
2019.20698	0.34956
2017.27842	0.34674
2015.34985	0.34407
2013.42129	0.34145
2011.49272	0.33880
2009.56416	0.33613
2007.63560	0.33349
2005.70703	0.33089
2003.77847	0.32829
2001.84990	0.32567
1999.92134	0.32309
1997.99277	0.32051
1996.06421	0.31790
1994.13564	0.31531
1992.20708	0.31274
1990.27852	0.31015
1988.34995	0.30756
1986.42139	0.30505
1984.49282	0.30268
1982.56426	0.30037
1980.63569	0.29800
1978.70713	0.29568
1976.77856	0.29345
1974.85000	0.29126
1972.92144	0.28905
1970.99287	0.28687
1969.06431	0.28477
1967.13574	0.28278
1965.20718	0.28086
1963.27861	0.27889
1961.35005	0.27684
1959.42148	0.27483
1957.49292	0.27301
1955.56436	0.27122
1953.63579	0.26938
1951.70723	0.26761
1949.77866	0.26603
1947.85010	0.26445
1945.92153	0.26279
1943.99297	0.26114
1942.06440	0.25960
1940.13584	0.25822
1938.20728	0.25692
1936.27871	0.25555
1934.35015	0.25412
1932.42158	0.25278
1930.49302	0.25155
1928.56445	0.25042
1926.63589	0.24934
1924.70732	0.24826
1922.77876	0.24720
1920.85020	0.24625
1918.92163	0.24534
1916.99307	0.24437
1915.06450	0.24344
1913.13594	0.24252
1911.20737	0.24167
1909.27881	0.24096
1907.35024	0.24032
1905.42168	0.23968
1903.49312	0.23915
1901.56455	0.23868
1899.63599	0.23813
1897.70742	0.23756
1895.77886	0.23706
1893.85029	0.23665
1891.92173	0.23624
1889.99316	0.23592
1888.06460	0.23572
1886.13604	0.23555
1884.20747	0.23530
1882.27891	0.23507
1880.35034	0.23493
1878.42178	0.23481
1876.49321	0.23474
1874.56465	0.23472
1872.63608	0.23473
1870.70752	0.23467
1868.77896	0.23476
1866.85039	0.23509
1864.92183	0.23541
1862.99326	0.23569
1861.06470	0.23593
1859.13613	0.23624
1857.20757	0.23659
1855.27900	0.23706
1853.35044	0.23752
1851.42187	0.23798
1849.49331	0.23841
1847.56475	0.23885
1845.63618	0.23939
1843.70762	0.24028
1841.77905	0.24139
1839.85049	0.24217
1837.92192	0.24295
1835.99336	0.24382
1834.06479	0.24470
1832.13623	0.24546
1830.20767	0.24648
1828.27910	0.24793
1826.35054	0.24924
1824.42197	0.25060
1822.49341	0.25196
1820.56484	0.25327
1818.63628	0.25464
1816.70771	0.25627
1814.77915	0.25789
1812.85059	0.25947
1810.92202	0.26125
1808.99346	0.26333
1807.06489	0.26550
1805.13633	0.26748
1803.20776	0.26947
1801.27920	0.27172
1799.35063	0.27448
1797.42207	0.27710
1795.49351	0.27938
1793.56494	0.28181
1791.63638	0.28521
1789.70781	0.28897
1787.77925	0.29193
1785.85068	0.29506
1783.92212	0.29863
1781.99355	0.30246
1780.06499	0.30660
1778.13643	0.31101
1776.20786	0.31502
1774.27930	0.31893
1772.35073	0.32421
1770.42217	0.33052
1768.49360	0.33627
1766.56504	0.34177
1764.63647	0.34723
1762.70791	0.35297
1760.77935	0.36034
1758.85078	0.36753
1756.92222	0.37473
1754.99365	0.38252
1753.06509	0.38927
1751.13652	0.39691
1749.20796	0.40697
1747.27939	0.41759
1745.35083	0.42706
1743.42227	0.43685
1741.49370	0.44745
1739.56514	0.45978
1737.63657	0.47223
1735.70801	0.48294
1733.77944	0.49872
1731.85088	0.51838
1729.92231	0.53460
1727.99375	0.55099
1726.06519	0.56807
1724.13662	0.58626
1722.20806	0.60600
1720.27949	0.62404
1718.35093	0.64451
1716.42236	0.67550
1714.49380	0.70636
1712.56523	0.73164
1710.63667	0.75568
1708.70811	0.78094
1706.77954	0.80923
1704.85098	0.84320
1702.92241	0.87375
1700.99385	0.90321
1699.06528	0.94679
1697.13672	0.98767
1695.20815	1.03031
1693.27959	1.07153
1691.35103	1.10369
1689.42246	1.14001
1687.49390	1.17803
1685.56533	1.21379
1683.63677	1.26883
1681.70820	1.32793
1679.77964	1.36698
1677.85107	1.40369
1675.92251	1.44445
1673.99395	1.49445
1672.06538	1.53928
1670.13682	1.58249
1668.20825	1.63832
1666.27969	1.68313
1664.35112	1.71917
1662.42256	1.76288
1660.49399	1.81252
1658.56543	1.85166
1656.63687	1.88366
1654.70830	1.91388
1652.77974	1.96662
1650.85117	2.02215
1648.92261	2.04487
1646.99404	2.07422
1645.06548	2.11148
1643.13691	2.13699
1641.20835	2.15211
1639.27979	2.16508
1637.35122	2.17358
1635.42266	2.17759
1633.49409	2.17794
1631.56553	2.16983
1629.63696	2.15644
1627.70840	2.13430
1625.77983	2.10829
1623.85127	2.07326
1621.92271	2.02947
1619.99414	1.99009
1618.06558	1.95046
1616.13701	1.89317
1614.20845	1.83381
1612.27988	1.78777
1610.35132	1.73963
1608.42275	1.68768
1606.49419	1.63615
1604.56562	1.58797
1602.63706	1.54090
1600.70850	1.49470
1598.77993	1.45211
1596.85137	1.41179
1594.92280	1.37222
1592.99424	1.33355
1591.06567	1.29798
1589.13711	1.26446
1587.20854	1.23237
1585.27998	1.20157
1583.35142	1.17199
1581.42285	1.14454
1579.49429	1.12055
1577.56572	1.09799
1575.63716	1.06957
1573.70859	1.04475
1571.78003	1.02844
1569.85146	1.01002
1567.92290	0.98861
1565.99434	0.97155
1564.06577	0.95653
1562.13721	0.94339
1560.20864	0.93110
1558.28008	0.90906
1556.35151	0.89070
1554.42295	0.88046
1552.49438	0.86990
1550.56582	0.85907
1548.63726	0.84788
1546.70869	0.83803
1544.78013	0.82894
1542.85156	0.81928
1540.92300	0.80869
1538.99443	0.79679
1537.06587	0.78907
1535.13730	0.78347
1533.20874	0.77610
1531.28018	0.76824
1529.35161	0.76215
1527.42305	0.75602
1525.49448	0.74946
1523.56592	0.74338
1521.63735	0.73693
1519.70879	0.73046
1517.78022	0.72555
1515.85166	0.72051
1513.92310	0.71537
1511.99453	0.71091
1510.06597	0.70671
1508.13740	0.70246
1506.20884	0.69681
1504.28027	0.69248
1502.35171	0.68970
1500.42314	0.68684
1498.49458	0.68367
1496.56602	0.68023
1494.63745	0.67717
1492.70889	0.67453
1490.78032	0.67175
1488.85176	0.66874
1486.92319	0.66635
1484.99463	0.66427
1483.06606	0.66205
1481.13750	0.65965
1479.20894	0.65738
1477.28037	0.65527
1475.35181	0.65290
1473.42324	0.65025
1471.49468	0.64731
1469.56611	0.64471
1467.63755	0.64238
1465.70898	0.64000
1463.78042	0.63764
1461.85186	0.63548
1459.92329	0.63328
1457.99473	0.63051
1456.06616	0.62727
1454.13760	0.62475
1452.20903	0.62262
1450.28047	0.62035
1448.35190	0.61800
1446.42334	0.61577
1444.49478	0.61377
1442.56621	0.61192
1440.63765	0.61022
1438.70908	0.60868
1436.78052	0.60709
1434.85195	0.60542
1432.92339	0.60390
1430.99482	0.60256
1429.06626	0.60135
1427.13770	0.60021
1425.20913	0.59896
1423.28057	0.59755
1421.35200	0.59613
1419.42344	0.59469
1417.49487	0.59344
1415.56631	0.59232
1413.63774	0.59102
1411.70918	0.58955
1409.78062	0.58795
1407.85205	0.58626
1405.92349	0.58460
1403.99492	0.58307
1402.06636	0.58154
1400.13779	0.58001
1398.20923	0.57853
1396.28066	0.57724
1394.35210	0.57604
1392.42354	0.57470
1390.49497	0.57317
1388.56641	0.57161
1386.63784	0.57029
1384.70928	0.56926
1382.78071	0.56831
1380.85215	0.56730
1378.92358	0.56629
1376.99502	0.56528
1375.06646	0.56433
1373.13789	0.56350
1371.20933	0.56273
1369.28076	0.56195
1367.35220	0.56113
1365.42363	0.56022
1363.49507	0.55925
1361.56650	0.55835
1359.63794	0.55762
1357.70937	0.55692
1355.78081	0.55609
1353.85225	0.55517
1351.92368	0.55427
1349.99512	0.55337
1348.06655	0.55246
1346.13799	0.55153
1344.20942	0.55060
1342.28086	0.54966
1340.35229	0.54877
1338.42373	0.54799
1336.49517	0.54724
1334.56660	0.54644
1332.63804	0.54562
1330.70947	0.54482
1328.78091	0.54409
1326.85234	0.54340
1324.92378	0.54270
1322.99521	0.54206
1321.06665	0.54134
1319.13809	0.54054
1317.20952	0.53981
1315.28096	0.53923
1313.35239	0.53873
1311.42383	0.53819
1309.49526	0.53745
1307.56670	0.53653
1305.63813	0.53563
1303.70957	0.53472
1301.78101	0.53379
1299.85244	0.53301
1297.92388	0.53237
1295.99531	0.53164
1294.06675	0.53072
1292.13818	0.52979
1290.20962	0.52905
1288.28105	0.52842
1286.35249	0.52784
1284.42393	0.52747
1282.49536	0.52717
1280.56680	0.52675
1278.63823	0.52628
1276.70967	0.52579
1274.78110	0.52532
1272.85254	0.52483
1270.92397	0.52436
1268.99541	0.52406
1267.06685	0.52382
1265.13828	0.52352
1263.20972	0.52317
1261.28115	0.52271
1259.35259	0.52222
1257.42402	0.52184
1255.49546	0.52154
1253.56689	0.52128
1251.63833	0.52109
1249.70977	0.52096
1247.78120	0.52077
1245.85264	0.52046
1243.92407	0.52007
1241.99551	0.51967
1240.06694	0.51935
1238.13838	0.51907
1236.20981	0.51871
1234.28125	0.51821
1232.35269	0.51763
1230.42412	0.51703
1228.49556	0.51638
1226.56699	0.51569
1224.63843	0.51513
1222.70986	0.51473
1220.78130	0.51424
1218.85273	0.51358
1216.92417	0.51282
1214.99561	0.51205
1213.06704	0.51140
1211.13848	0.51096
1209.20991	0.51057
1207.28135	0.50998
1205.35278	0.50928
1203.42422	0.50874
1201.49565	0.50826
1199.56709	0.50777
1197.63853	0.50734
1195.70996	0.50688
1193.78140	0.50642
1191.85283	0.50603
1189.92427	0.50568
1187.99570	0.50545
1186.06714	0.50537
1184.13857	0.50521
1182.21001	0.50504
1180.28145	0.50511
1178.35288	0.50540
1176.42432	0.50580
1174.49575	0.50626
1172.56719	0.50680
1170.63862	0.50736
1168.71006	0.50787
1166.78149	0.50824
1164.85293	0.50841
1162.92437	0.50838
1160.99580	0.50822
1159.06724	0.50788
1157.13867	0.50727
1155.21011	0.50640
1153.28154	0.50534
1151.35298	0.50407
1149.42441	0.50243
1147.49585	0.50037
1145.56729	0.49802
1143.63872	0.49557
1141.71016	0.49315
1139.78159	0.49088
1137.85303	0.48882
1135.92446	0.48687
1133.99590	0.48510
1132.06733	0.48374
1130.13877	0.48268
1128.21021	0.48150
1126.28164	0.48017
1124.35308	0.47892
1122.42451	0.47775
1120.49595	0.47675
1118.56738	0.47606
1116.63882	0.47554
1114.71025	0.47520
1112.78169	0.47533
1110.85312	0.47584
1108.92456	0.47648
1106.99600	0.47718
1105.06743	0.47801
1103.13887	0.47915
1101.21030	0.48069
1099.28174	0.48267
1097.35317	0.48518
1095.42461	0.48808
1093.49604	0.49141
1091.56748	0.49549
1089.63892	0.50038
1087.71035	0.50591
1085.78179	0.51182
1083.85322	0.51782
1081.92466	0.52377
1079.99609	0.52934
1078.06753	0.53339
1076.13896	0.53474
1074.21040	0.53317
1072.28184	0.52919
1070.35327	0.52349
1068.42471	0.51694
1066.49614	0.51060
1064.56758	0.50489
1062.63901	0.49944
1060.71045	0.49432
1058.78188	0.48983
1056.85332	0.48590
1054.92476	0.48262
1052.99619	0.48000
1051.06763	0.47773
1049.13906	0.47579
1047.21050	0.47432
1045.28193	0.47322
1043.35337	0.47223
1041.42480	0.47120
1039.49624	0.47021
1037.56768	0.46962
1035.63911	0.46950
1033.71055	0.46954
1031.78198	0.46961
1029.85342	0.46975
1027.92485	0.47008
1025.99629	0.47052
1024.06772	0.47097
1022.13916	0.47150
1020.21060	0.47212
1018.28203	0.47292
1016.35347	0.47399
1014.42490	0.47517
1012.49634	0.47640
1010.56777	0.47776
1008.63921	0.47936
1006.71064	0.48121
1004.78208	0.48326
1002.85352	0.48558
1000.92495	0.48828
998.99639	0.49126
997.06782	0.49444
995.13926	0.49787
993.21069	0.50143
991.28213	0.50482
989.35356	0.50770
987.42500	0.50970
985.49644	0.51097
983.56787	0.51200
981.63931	0.51316
979.71074	0.51476
977.78218	0.51682
975.85361	0.51913
973.92505	0.52172
971.99648	0.52486
970.06792	0.52841
968.13936	0.53217
966.21079	0.53631
964.28223	0.54088
962.35366	0.54560
960.42510	0.55028
958.49653	0.55519
956.56797	0.56065
954.63940	0.56669
952.71084	0.57306
950.78228	0.57939
948.85371	0.58553
946.92515	0.59176
944.99658	0.59802
943.06802	0.60399
941.13945	0.60974
939.21089	0.61537
937.28232	0.62116
935.35376	0.62698
933.42520	0.63251
931.49663	0.63796
929.56807	0.64354
927.63950	0.64941
925.71094	0.65563
923.78237	0.66192
921.85381	0.66777
919.92524	0.67344
917.99668	0.67962
916.06812	0.68628
914.13955	0.69340
912.21099	0.70083
910.28242	0.70809
908.35386	0.71589
906.42529	0.72461
904.49673	0.73344
902.56816	0.74252
900.63960	0.75214
898.71104	0.76173
896.78247	0.77116
894.85391	0.78074
892.92534	0.79039
890.99678	0.79997
889.06821	0.81001
887.13965	0.82031
885.21108	0.83087
883.28252	0.84194
881.35396	0.85356
879.42539	0.86648
877.49683	0.87853
875.56826	0.88830
873.63970	0.89866
871.71113	0.91043
869.78257	0.92185
867.85400	0.93258
865.92544	0.94313
863.99687	0.95388
862.06831	0.96559
860.13975	0.97747
858.21118	0.98884
856.28262	1.00133
854.35405	1.01501
852.42549	1.02748
850.49692	1.03878
848.56836	1.05098
846.63979	1.06291
844.71123	1.07231
842.78267	1.08026
840.85410	1.08935
838.92554	1.10078
836.99697	1.11326
835.06841	1.12365
833.13984	1.13030
831.21128	1.13621
829.28271	1.14617
827.35415	1.15894
825.42559	1.17087
823.49702	1.18449
821.56846	1.19749
819.63989	1.20327
817.71133	1.20573
815.78276	1.21174
813.85420	1.22055
811.92563	1.23424
809.99707	1.25522
808.06851	1.27083
806.13994	1.27766
804.21138	1.28953
802.28281	1.30904
800.35425	1.32536
798.42568	1.33223
796.49712	1.33671
794.56855	1.33593
792.63999	1.32153
790.71143	1.31903
788.78286	1.33912
786.85430	1.33934
784.92573	1.32772
782.99717	1.34271
781.06860	1.32971
779.14004	1.27031
777.21147	1.25622
775.28291	1.29222
773.35435	1.32060
771.42578	1.35545
769.49722	1.37646
767.56865	1.33396
765.64009	1.26966
763.71152	1.22151
761.78296	1.22831
759.85439	1.28594
757.92583	1.27117
755.99727	1.22540
754.06870	1.28471
752.14014	1.30884
750.21157	1.17194
748.28301	1.03156
746.35444	0.92822
744.42588	0.88368
742.49731	0.87543
740.56875	0.85856
738.64019	0.85871
736.71162	0.82220
734.78306	0.71703
732.85449	0.63683
730.92593	0.58191
728.99736	0.50394
727.06880	0.39306
725.14023	0.30929
723.21167	0.28627
721.28311	0.28136
719.35454	0.25645
717.42598	0.16511
715.49741	0.07100
713.56885	0.09290
711.64028	0.13413
709.71172	0.08674
707.78315	0.04497
705.85459	0.01885
703.92603	-0.00854
701.99746	0.04354
700.06890	0.14710
698.14033	0.20592
696.21177	0.21009
694.28320	0.20276
692.35464	0.20948
690.42607	0.20612
688.49751	0.17616
686.56895	0.14969
684.64038	0.14193
682.71182	0.15126
680.78325	0.16420
678.85469	0.17777
676.92612	0.20441
674.99756	0.20244
673.06899	0.23095
671.14043	0.35410
669.21187	0.46067
667.28330	0.42356
665.35474	0.35711
663.42617	0.27454
661.49761	0.17250
659.56904	0.12702
657.64048	0.15475
655.71191	0.19295
653.78335	0.17619
651.85479	0.13430
649.92622	0.09731
647.99766	0.05060
646.06909	0.02398
644.14053	0.04893
642.21196	0.08745
640.28340	0.11376
638.35483	0.19355
636.42627	0.29749
634.49771	0.29736
632.56914	0.24968
630.64058	0.27474
628.71201	0.32305
626.78345	0.33192
624.85488	0.40506
622.92632	0.45646
620.99775	0.33533
619.06919	0.25287
617.14062	0.26860
615.21206	0.28118
613.28350	0.25215
611.35493	0.26588
609.42637	0.33512
607.49780	0.34302
605.56924	0.31403
603.64067	0.33398
601.71211	0.30309
599.78354	0.24586
597.85498	0.29673
595.92642	0.45839
593.99785	0.48961
592.06929	0.38835
590.14072	0.32081
588.21216	0.25131
586.28359	0.22345
584.35503	0.28134
582.42646	0.36433
580.49790	0.43617
578.56934	0.44631
576.64077	0.37059
574.71221	0.29398
572.78364	0.24148
570.85508	0.24034
568.92651	0.27121
566.99795	0.29270
565.06938	0.32907
563.14082	0.39224
561.21226	0.39150
559.28369	0.30231
557.35513	0.20658
555.42656	0.13119
553.49800	0.13112
551.56943	0.18153
549.64087	0.21975
547.71230	0.24260
545.78374	0.18652
543.85518	0.09412
541.92661	0.14393
539.99805	0.27192
538.06948	0.29364
536.14092	0.24757
534.21235	0.24564
532.28379	0.24633
530.35522	0.20518
528.42666	0.18897
526.49810	0.21707
524.56953	0.23885
522.64097	0.22420
520.71240	0.19797
518.78384	0.17619
516.85527	0.15733
514.92671	0.18728
512.99814	0.27518
511.06958	0.30375
509.14102	0.25087
507.21245	0.19871
505.28389	0.17821
503.35532	0.20452
501.42676	0.32275
499.49819	0.48951
