3997.91411	0.07017
3995.98555	0.07063
3994.05698	0.07090
3992.12842	0.07091
3990.19985	0.07111
3988.27129	0.07124
3986.34272	0.07083
3984.41416	0.07057
3982.48560	0.07116
3980.55703	0.07210
3978.62847	0.07248
3976.69990	0.07252
3974.77134	0.07299
3972.84277	0.07369
3970.91421	0.07408
3968.98564	0.07419
3967.05708	0.07414
3965.12852	0.07411
3963.19995	0.07425
3961.27139	0.07435
3959.34282	0.07415
3957.41426	0.07392
3955.48569	0.07411
3953.55713	0.07460
3951.62856	0.07531
3949.70000	0.07630
3947.77144	0.07681
3945.84287	0.07642
3943.91431	0.07625
3941.98574	0.07659
3940.05718	0.07612
3938.12861	0.07498
3936.20005	0.07447
3934.27148	0.07504
3932.34292	0.07642
3930.41436	0.07746
3928.48579	0.07699
3926.55723	0.07624
3924.62866	0.07671
3922.70010	0.07721
3920.77153	0.07681
3918.84297	0.07685
3916.91440	0.07729
3914.98584	0.07663
3913.05728	0.07506
3911.12871	0.07412
3909.20015	0.07409
3907.27158	0.07487
3905.34302	0.07709
3903.41445	0.08050
3901.48589	0.08269
3899.55732	0.08199
3897.62876	0.07944
3895.70020	0.07703
3893.77163	0.07640
3891.84307	0.07782
3889.91450	0.07895
3887.98594	0.07811
3886.05737	0.07797
3884.12881	0.07943
3882.20024	0.08049
3880.27168	0.08091
3878.34312	0.08000
3876.41455	0.07819
3874.48599	0.07826
3872.55742	0.08040
3870.62886	0.08280
3868.70029	0.08385
3866.77173	0.08323
3864.84316	0.08358
3862.91460	0.08460
3860.98604	0.08341
3859.05747	0.08170
3857.12891	0.08204
3855.20034	0.08512
3853.27178	0.09087
3851.34321	0.09270
3849.41465	0.08770
3847.48608	0.08350
3845.55752	0.08228
3843.62896	0.08387
3841.70039	0.08728
3839.77183	0.09120
3837.84326	0.09430
3835.91470	0.09439
3833.98613	0.09239
3832.05757	0.09075
3830.12900	0.08994
3828.20044	0.09003
3826.27187	0.09094
3824.34331	0.09217
3822.41475	0.09450
3820.48618	0.09852
3818.55762	0.10012
3816.62905	0.09942
3814.70049	0.09884
3812.77192	0.09700
3810.84336	0.09538
3808.91479	0.09603
3806.98623	0.09901
3805.05767	0.10208
3803.12910	0.10430
3801.20054	0.10749
3799.27197	0.10933
3797.34341	0.10858
3795.41484	0.10771
3793.48628	0.10667
3791.55771	0.10605
3789.62915	0.10654
3787.70059	0.10776
3785.77202	0.10986
3783.84346	0.11245
3781.91489	0.11436
3779.98633	0.11638
3778.05776	0.11869
3776.12920	0.11920
3774.20063	0.11890
3772.27207	0.12025
3770.34351	0.12372
3768.41494	0.12740
3766.48638	0.12938
3764.55781	0.13098
3762.62925	0.13280
3760.70068	0.13527
3758.77212	0.13920
3756.84355	0.14290
3754.91499	0.14533
3752.98643	0.14905
3751.05786	0.15579
3749.12930	0.16206
3747.20073	0.16380
3745.27217	0.16527
3743.34360	0.16895
3741.41504	0.17185
3739.48647	0.17406
3737.55791	0.17857
3735.62935	0.18689
3733.70078	0.19608
3731.77222	0.20028
3729.84365	0.20147
3727.91509	0.20397
3725.98652	0.20953
3724.05796	0.21688
3722.12939	0.22327
3720.20083	0.22808
3718.27227	0.23244
3716.34370	0.23780
3714.41514	0.24478
3712.48657	0.25565
3710.55801	0.27232
3708.62944	0.28781
3706.70088	0.29779
3704.77231	0.30755
3702.84375	0.32068
3700.91519	0.33793
3698.98662	0.35605
3697.05806	0.37325
3695.12949	0.39181
3693.20093	0.41205
3691.27236	0.43536
3689.34380	0.46544
3687.41523	0.49909
3685.48667	0.52643
3683.55811	0.55059
3681.62954	0.57809
3679.70098	0.61036
3677.77241	0.64563
3675.84385	0.68807
3673.91528	0.74257
3671.98672	0.78504
3670.05815	0.82353
3668.12959	0.87657
3666.20103	0.92335
3664.27246	0.96225
3662.34390	1.00526
3660.41533	1.05276
3658.48677	1.10036
3656.55820	1.15124
3654.62964	1.20740
3652.70107	1.25483
3650.77251	1.29832
3648.84395	1.35945
3646.91538	1.42908
3644.98682	1.47547
3643.05825	1.51179
3641.12969	1.55172
3639.20112	1.59703
3637.27256	1.64253
3635.34399	1.68589
3633.41543	1.72943
3631.48687	1.77186
3629.55830	1.81617
3627.62974	1.87333
3625.70117	1.92424
3623.77261	1.95715
3621.84404	1.98955
3619.91548	2.02765
3617.98691	2.07268
3616.05835	2.11575
3614.12979	2.15375
3612.20122	2.19491
3610.27266	2.23482
3608.34409	2.27362
3606.41553	2.31609
3604.48696	2.35634
3602.55840	2.39198
3600.62983	2.43110
3598.70127	2.47346
3596.77271	2.51312
3594.84414	2.55279
3592.91558	2.59378
3590.98701	2.63221
3589.05845	2.66878
3587.12988	2.71376
3585.20132	2.76400
3583.27275	2.80518
3581.34419	2.84117
3579.41562	2.87991
3577.48706	2.92199
3575.55850	2.96443
3573.62993	3.00792
3571.70137	3.05010
3569.77280	3.09064
3567.84424	3.13622
3565.91567	3.19180
3563.98711	3.24254
3562.05854	3.28330
3560.12998	3.32315
3558.20142	3.36399
3556.27285	3.40672
3554.34429	3.45048
3552.41572	3.49723
3550.48716	3.54625
3548.55859	3.59281
3546.63003	3.63794
3544.70146	3.68604
3542.77290	3.73544
3540.84434	3.78163
3538.91577	3.82502
3536.98721	3.86882
3535.05864	3.91737
3533.13008	3.96777
3531.20151	4.01467
3529.27295	4.05886
3527.34438	4.10638
3525.41582	4.15880
3523.48726	4.21254
3521.55869	4.26377
3519.63013	4.31071
3517.70156	4.35663
3515.77300	4.39945
3513.84443	4.44012
3511.91587	4.48675
3509.98730	4.54239
3508.05874	4.59785
3506.13018	4.64123
3504.20161	4.67905
3502.27305	4.72734
3500.34448	4.78525
3498.41592	4.83854
3496.48735	4.88513
3494.55879	4.93060
3492.63022	4.97564
3490.70166	5.01872
3488.77310	5.06528
3486.84453	5.11625
3484.91597	5.16364
3482.98740	5.20998
3481.05884	5.26028
3479.13027	5.30785
3477.20171	5.35066
3475.27314	5.39666
3473.34458	5.45270
3471.41602	5.51566
3469.48745	5.56951
3467.55889	5.60615
3465.63032	5.64038
3463.70176	5.68575
3461.77319	5.73698
3459.84463	5.78732
3457.91606	5.83105
3455.98750	5.87441
3454.05894	5.92746
3452.13037	5.98325
3450.20181	6.03272
3448.27324	6.07660
3446.34468	6.13005
3444.41611	6.18878
3442.48755	6.23720
3440.55898	6.28231
3438.63042	6.33019
3436.70186	6.37054
3434.77329	6.41340
3432.84473	6.48818
3430.91616	6.56797
3428.98760	6.60927
3427.05903	6.63249
3425.13047	6.66978
3423.20190	6.71892
3421.27334	6.78264
3419.34478	6.84744
3417.41621	6.87887
3415.48765	6.89280
3413.55908	6.91865
3411.63052	6.95074
3409.70195	6.99184
3407.77339	7.06719
3405.84482	7.15578
3403.91626	7.21869
3401.98770	7.24264
3400.05913	7.25042
3398.13057	7.27561
3396.20200	7.31863
3394.27344	7.36040
3392.34487	7.38820
3390.41631	7.42622
3388.48774	7.47046
3386.55918	7.50013
3384.63062	7.52250
3382.70205	7.57572
3380.77349	7.63157
3378.84492	7.60868
3376.91636	7.55951
3374.98779	7.56120
3373.05923	7.62091
3371.13066	7.70416
3369.20210	7.76565
3367.27354	7.76876
3365.34497	7.74046
3363.41641	7.74526
3361.48784	7.80798
3359.55928	7.87637
3357.63071	7.89552
3355.70215	7.92324
3353.77358	7.95351
3351.84502	7.93354
3349.91646	7.88798
3347.98789	7.88594
3346.05933	7.94501
3344.13076	7.99931
3342.20220	8.00635
3340.27363	8.00289
3338.34507	8.00821
3336.41650	7.98236
3334.48794	7.95914
3332.55937	7.94512
3330.63081	7.92498
3328.70225	7.92403
3326.77368	7.95363
3324.84512	8.01687
3322.91655	8.09961
3320.98799	8.18504
3319.05942	8.20834
3317.13086	8.13022
3315.20229	8.02548
3313.27373	8.01381
3311.34517	8.09793
3309.41660	8.16895
3307.48804	8.14790
3305.55947	8.08417
3303.63091	8.05134
3301.70234	8.03151
3299.77378	8.05303
3297.84521	8.06731
3295.91665	8.02865
3293.98809	8.03543
3292.05952	8.07222
3290.13096	8.06630
3288.20239	8.05888
3286.27383	8.08152
3284.34526	8.08252
3282.41670	8.06429
3280.48813	8.09328
3278.55957	8.17338
3276.63101	8.23514
3274.70244	8.24090
3272.77388	8.16912
3270.84531	8.10150
3268.91675	8.15858
3266.98818	8.29131
3265.05962	8.34937
3263.13105	8.23831
3261.20249	8.11218
3259.27393	8.08061
3257.34536	8.04873
3255.41680	8.01579
3253.48823	8.03941
3251.55967	8.05698
3249.63110	8.05311
3247.70254	8.09291
3245.77397	8.13793
3243.84541	8.15201
3241.91685	8.20916
3239.98828	8.28905
3238.05972	8.23840
3236.13115	8.13820
3234.20259	8.09770
3232.27402	8.00873
3230.34546	7.91287
3228.41689	7.93217
3226.48833	8.04806
3224.55977	8.11693
3222.63120	8.01914
3220.70264	7.89873
3218.77407	7.92817
3216.84551	8.03828
3214.91694	8.03604
3212.98838	7.89922
3211.05981	7.75692
3209.13125	7.70935
3207.20269	7.74082
3205.27412	7.74163
3203.34556	7.68029
3201.41699	7.63815
3199.48843	7.65777
3197.55986	7.69470
3195.63130	7.68474
3193.70273	7.60390
3191.77417	7.51484
3189.84561	7.48545
3187.91704	7.45700
3185.98848	7.37445
3184.05991	7.28661
3182.13135	7.22607
3180.20278	7.19115
3178.27422	7.15995
3176.34565	7.11161
3174.41709	7.04992
3172.48853	6.98424
3170.55996	6.92698
3168.63140	6.87761
3166.70283	6.81757
3164.77427	6.74685
3162.84570	6.68693
3160.91714	6.65211
3158.98857	6.62547
3157.06001	6.56482
3155.13145	6.46601
3153.20288	6.36461
3151.27432	6.28173
3149.34575	6.21481
3147.41719	6.15707
3145.48862	6.10010
3143.56006	6.03802
3141.63149	5.97261
3139.70293	5.90237
3137.77437	5.83306
3135.84580	5.76622
3133.91724	5.69683
3131.98867	5.62463
3130.06011	5.54901
3128.13154	5.47724
3126.20298	5.41256
3124.27441	5.34658
3122.34585	5.27693
3120.41729	5.20871
3118.48872	5.14038
3116.56016	5.06869
3114.63159	4.99685
3112.70303	4.92787
3110.77446	4.85930
3108.84590	4.78847
3106.91733	4.72010
3104.98877	4.65821
3103.06021	4.59753
3101.13164	4.53287
3099.20308	4.46852
3097.27451	4.40654
3095.34595	4.34184
3093.41738	4.27431
3091.48882	4.20849
3089.56025	4.14663
3087.63169	4.08540
3085.70312	4.02199
3083.77456	3.96020
3081.84600	3.90064
3079.91743	3.84090
3077.98887	3.78360
3076.06030	3.72920
3074.13174	3.67468
3072.20317	3.61847
3070.27461	3.56097
3068.34604	3.50472
3066.41748	3.44993
3064.48892	3.39512
3062.56035	3.34086
3060.63179	3.28687
3058.70322	3.23262
3056.77466	3.17986
3054.84609	3.12897
3052.91753	3.07921
3050.98896	3.03074
3049.06040	2.98152
3047.13184	2.92994
3045.20327	2.87896
3043.27471	2.83165
3041.34614	2.78584
3039.41758	2.73905
3037.48901	2.69314
3035.56045	2.64910
3033.63188	2.60485
3031.70332	2.55982
3029.77476	2.51563
3027.84619	2.47282
3025.91763	2.43068
3023.98906	2.38857
3022.06050	2.34714
3020.13193	2.30682
3018.20337	2.26680
3016.27480	2.22703
3014.34624	2.18808
3012.41768	2.15054
3010.48911	2.11412
3008.56055	2.07763
3006.63198	2.04105
3004.70342	2.00528
3002.77485	1.97072
3000.84629	1.93704
2998.91772	1.90376
2996.98916	1.87145
2995.06060	1.84054
2993.13203	1.81014
2991.20347	1.77988
2989.27490	1.75059
2987.34634	1.72239
2985.41777	1.69450
2983.48921	1.66663
2981.56064	1.63904
2979.63208	1.61201
2977.70352	1.58598
2975.77495	1.56114
2973.84639	1.53658
2971.91782	1.51175
2969.98926	1.48747
2968.06069	1.46384
2966.13213	1.44018
2964.20356	1.41618
2962.27500	1.39192
2960.34644	1.36780
2958.41787	1.34380
2956.48931	1.32001
2954.56074	1.29662
2952.63218	1.27331
2950.70361	1.25057
2948.77505	1.22869
2946.84648	1.20698
2944.91792	1.18526
2942.98936	1.16393
2941.06079	1.14334
2939.13223	1.12301
2937.20366	1.10240
2935.27510	1.08172
2933.34653	1.06112
2931.41797	1.04055
2929.48940	1.01972
2927.56084	0.99855
2925.63228	0.97794
2923.70371	0.95887
2921.77515	0.94117
2919.84658	0.92468
2917.91802	0.90981
2915.98945	0.89594
2914.06089	0.88181
2912.13232	0.86743
2910.20376	0.85349
2908.27520	0.83968
2906.34663	0.82551
2904.41807	0.81141
2902.48950	0.79784
2900.56094	0.78475
2898.63237	0.77211
2896.70381	0.75989
2894.77524	0.74784
2892.84668	0.73593
2890.91812	0.72443
2888.98955	0.71338
2887.06099	0.70280
2885.13242	0.69278
2883.20386	0.68287
2881.27529	0.67299
2879.34673	0.66357
2877.41816	0.65428
2875.48960	0.64456
2873.56104	0.63434
2871.63247	0.62355
2869.70391	0.61206
2867.77534	0.60014
2865.84678	0.58810
2863.91821	0.57597
2861.98965	0.56377
2860.06108	0.55174
2858.13252	0.54014
2856.20396	0.52894
2854.27539	0.51829
2852.34683	0.50876
2850.41826	0.50074
2848.48970	0.49381
2846.56113	0.48731
2844.63257	0.48129
2842.70400	0.47585
2840.77544	0.47051
2838.84687	0.46496
2836.91831	0.45936
2834.98975	0.45370
2833.06118	0.44786
2831.13262	0.44209
2829.20405	0.43655
2827.27549	0.43092
2825.34692	0.42516
2823.41836	0.41936
2821.48979	0.41347
2819.56123	0.40755
2817.63267	0.40173
2815.70410	0.39605
2813.77554	0.39043
2811.84697	0.38488
2809.91841	0.37949
2807.98984	0.37421
2806.06128	0.36896
2804.13271	0.36375
2802.20415	0.35859
2800.27559	0.35350
2798.34702	0.34858
2796.41846	0.34390
2794.48989	0.33936
2792.56133	0.33470
2790.63276	0.32997
2788.70420	0.32548
2786.77563	0.32124
2784.84707	0.31707
2782.91851	0.31289
2780.98994	0.30869
2779.06138	0.30449
2777.13281	0.30033
2775.20425	0.29630
2773.27568	0.29242
2771.34712	0.28859
2769.41855	0.28479
2767.48999	0.28122
2765.56143	0.27790
2763.63286	0.27456
2761.70430	0.27108
2759.77573	0.26769
2757.84717	0.26458
2755.91860	0.26159
2753.99004	0.25851
2752.06147	0.25530
2750.13291	0.25204
2748.20435	0.24889
2746.27578	0.24601
2744.34722	0.24339
2742.41865	0.24075
2740.49009	0.23785
2738.56152	0.23491
2736.63296	0.23237
2734.70439	0.23013
2732.77583	0.22780
2730.84727	0.22538
2728.91870	0.22308
2726.99014	0.22081
2725.06157	0.21846
2723.13301	0.21614
2721.20444	0.21399
2719.27588	0.21195
2717.34731	0.20990
2715.41875	0.20782
2713.49019	0.20578
2711.56162	0.20399
2709.63306	0.20245
2707.70449	0.20080
2705.77593	0.19898
2703.84736	0.19726
2701.91880	0.19569
2699.99023	0.19409
2698.06167	0.19243
2696.13311	0.19091
2694.20454	0.18959
2692.27598	0.18832
2690.34741	0.18701
2688.41885	0.18575
2686.49028	0.18454
2684.56172	0.18327
2682.63315	0.18200
2680.70459	0.18077
2678.77603	0.17946
2676.84746	0.17816
2674.91890	0.17701
2672.99033	0.17594
2671.06177	0.17489
2669.13320	0.17376
2667.20464	0.17258
2665.27607	0.17155
2663.34751	0.17069
2661.41895	0.16998
2659.49038	0.16926
2657.56182	0.16835
2655.63325	0.16732
2653.70469	0.16641
2651.77612	0.16571
2649.84756	0.16501
2647.91899	0.16418
2645.99043	0.16347
2644.06187	0.16294
2642.13330	0.16234
2640.20474	0.16174
2638.27617	0.16121
2636.34761	0.16065
2634.41904	0.16017
2632.49048	0.15978
2630.56191	0.15938
2628.63335	0.15899
2626.70479	0.15850
2624.77622	0.15787
2622.84766	0.15735
2620.91909	0.15706
2618.99053	0.15685
2617.06196	0.15653
2615.13340	0.15629
2613.20483	0.15622
2611.27627	0.15598
2609.34771	0.15551
2607.41914	0.15518
2605.49058	0.15513
2603.56201	0.15510
2601.63345	0.15507
2599.70488	0.15515
2597.77632	0.15526
2595.84775	0.15524
2593.91919	0.15511
2591.99062	0.15505
2590.06206	0.15517
2588.13350	0.15538
2586.20493	0.15557
2584.27637	0.15580
2582.34780	0.15598
2580.41924	0.15607
2578.49067	0.15614
2576.56211	0.15627
2574.63354	0.15641
2572.70498	0.15664
2570.77642	0.15696
2568.84785	0.15733
2566.91929	0.15771
2564.99072	0.15806
2563.06216	0.15835
2561.13359	0.15865
2559.20503	0.15904
2557.27646	0.15944
2555.34790	0.15981
2553.41934	0.16028
2551.49077	0.16085
2549.56221	0.16134
2547.63364	0.16169
2545.70508	0.16199
2543.77651	0.16252
2541.84795	0.16328
2539.91938	0.16401
2537.99082	0.16465
2536.06226	0.16523
2534.13369	0.16578
2532.20513	0.16642
2530.27656	0.16709
2528.34800	0.16761
2526.41943	0.16811
2524.49087	0.16879
2522.56230	0.16954
2520.63374	0.17018
2518.70518	0.17084
2516.77661	0.17157
2514.84805	0.17228
2512.91948	0.17294
2510.99092	0.17361
2509.06235	0.17433
2507.13379	0.17511
2505.20522	0.17584
2503.27666	0.17647
2501.34810	0.17716
2499.41953	0.17805
2497.49097	0.17897
2495.56240	0.17977
2493.63384	0.18046
2491.70527	0.18117
2489.77671	0.18195
2487.84814	0.18274
2485.91958	0.18356
2483.99102	0.18439
2482.06245	0.18518
2480.13389	0.18596
2478.20532	0.18678
2476.27676	0.18759
2474.34819	0.18840
2472.41963	0.18923
2470.49106	0.19009
2468.56250	0.19092
2466.63394	0.19172
2464.70537	0.19257
2462.77681	0.19346
2460.84824	0.19433
2458.91968	0.19521
2456.99111	0.19617
2455.06255	0.19716
2453.13398	0.19812
2451.20542	0.19904
2449.27686	0.19987
2447.34829	0.20074
2445.41973	0.20163
2443.49116	0.20249
2441.56260	0.20345
2439.63403	0.20450
2437.70547	0.20557
2435.77690	0.20659
2433.84834	0.20748
2431.91978	0.20838
2429.99121	0.20943
2428.06265	0.21055
2426.13408	0.21167
2424.20552	0.21271
2422.27695	0.21371
2420.34839	0.21474
2418.41982	0.21579
2416.49126	0.21689
2414.56270	0.21803
2412.63413	0.21906
2410.70557	0.22010
2408.77700	0.22126
2406.84844	0.22239
2404.91987	0.22345
2402.99131	0.22447
2401.06274	0.22560
2399.13418	0.22691
2397.20562	0.22818
2395.27705	0.22933
2393.34849	0.23051
2391.41992	0.23185
2389.49136	0.23339
2387.56279	0.23531
2385.63423	0.23798
2383.70566	0.24190
2381.77710	0.24728
2379.84854	0.25379
2377.91997	0.26115
2375.99141	0.26941
2374.06284	0.27885
2372.13428	0.28938
2370.20571	0.30052
2368.27715	0.31186
2366.34858	0.32281
2364.42002	0.33226
2362.49146	0.33983
2360.56289	0.34542
2358.63433	0.34794
2356.70576	0.34572
2354.77720	0.33842
2352.84863	0.32794
2350.92007	0.31703
2348.99150	0.31018
2347.06294	0.31053
2345.13437	0.31856
2343.20581	0.32962
2341.27725	0.33611
2339.34868	0.33776
2337.42012	0.33772
2335.49155	0.33722
2333.56299	0.33646
2331.63442	0.33626
2329.70586	0.33641
2327.77729	0.33583
2325.84873	0.33422
2323.92017	0.33214
2321.99160	0.32997
2320.06304	0.32736
2318.13447	0.32406
2316.20591	0.32106
2314.27734	0.31954
2312.34878	0.31937
2310.42021	0.31937
2308.49165	0.31862
2306.56309	0.31733
2304.63452	0.31631
2302.70596	0.31604
2300.77739	0.31633
2298.84883	0.31671
2296.92026	0.31715
2294.99170	0.31768
2293.06313	0.31823
2291.13457	0.31881
2289.20601	0.31948
2287.27744	0.32012
2285.34888	0.32070
2283.42031	0.32166
2281.49175	0.32337
2279.56318	0.32557
2277.63462	0.32796
2275.70605	0.33035
2273.77749	0.33248
2271.84893	0.33434
2269.92036	0.33627
2267.99180	0.33839
2266.06323	0.34050
2264.13467	0.34242
2262.20610	0.34425
2260.27754	0.34610
2258.34897	0.34796
2256.42041	0.34984
2254.49185	0.35172
2252.56328	0.35364
2250.63472	0.35566
2248.70615	0.35776
2246.77759	0.35982
2244.84902	0.36170
2242.92046	0.36356
2240.99189	0.36562
2239.06333	0.36783
2237.13477	0.37008
2235.20620	0.37226
2233.27764	0.37431
2231.34907	0.37640
2229.42051	0.37863
2227.49194	0.38082
2225.56338	0.38293
2223.63481	0.38508
2221.70625	0.38732
2219.77769	0.38955
2217.84912	0.39169
2215.92056	0.39374
2213.99199	0.39586
2212.06343	0.39807
2210.13486	0.40026
2208.20630	0.40235
2206.27773	0.40438
2204.34917	0.40631
2202.42061	0.40816
2200.49204	0.41007
2198.56348	0.41214
2196.63491	0.41429
2194.70635	0.41631
2192.77778	0.41816
2190.84922	0.41996
2188.92065	0.42178
2186.99209	0.42366
2185.06353	0.42556
2183.13496	0.42731
2181.20640	0.42887
2179.27783	0.43040
2177.34927	0.43209
2175.42070	0.43384
2173.49214	0.43536
2171.56357	0.43662
2169.63501	0.43793
2167.70645	0.43941
2165.77788	0.44090
2163.84932	0.44214
2161.92075	0.44318
2159.99219	0.44421
2158.06362	0.44523
2156.13506	0.44616
2154.20649	0.44696
2152.27793	0.44769
2150.34937	0.44845
2148.42080	0.44920
2146.49224	0.44993
2144.56367	0.45053
2142.63511	0.45097
2140.70654	0.45136
2138.77798	0.45181
2136.84941	0.45216
2134.92085	0.45222
2132.99229	0.45209
2131.06372	0.45203
2129.13516	0.45197
2127.20659	0.45174
2125.27803	0.45150
2123.34946	0.45129
2121.42090	0.45097
2119.49233	0.45043
2117.56377	0.44982
2115.63521	0.44922
2113.70664	0.44859
2111.77808	0.44784
2109.84951	0.44692
2107.92095	0.44592
2105.99238	0.44489
2104.06382	0.44382
2102.13525	0.44272
2100.20669	0.44152
2098.27812	0.44011
2096.34956	0.43862
2094.42100	0.43719
2092.49243	0.43583
2090.56387	0.43440
2088.63530	0.43271
2086.70674	0.43083
2084.77817	0.42891
2082.84961	0.42706
2080.92104	0.42526
2078.99248	0.42349
2077.06392	0.42167
2075.13535	0.41963
2073.20679	0.41738
2071.27822	0.41518
2069.34966	0.41317
2067.42109	0.41111
2065.49253	0.40886
2063.56396	0.40646
2061.63540	0.40399
2059.70684	0.40150
2057.77827	0.39902
2055.84971	0.39664
2053.92114	0.39426
2051.99258	0.39174
2050.06401	0.38911
2048.13545	0.38647
2046.20688	0.38392
2044.27832	0.38150
2042.34976	0.37909
2040.42119	0.37656
2038.49263	0.37382
2036.56406	0.37097
2034.63550	0.36819
2032.70693	0.36544
2030.77837	0.36267
2028.84980	0.35990
2026.92124	0.35726
2024.99268	0.35462
2023.06411	0.35190
2021.13555	0.34923
2019.20698	0.34672
2017.27842	0.34420
2015.34985	0.34138
2013.42129	0.33839
2011.49272	0.33553
2009.56416	0.33290
2007.63560	0.33033
2005.70703	0.32768
2003.77847	0.32500
2001.84990	0.32238
1999.92134	0.31975
1997.99277	0.31712
1996.06421	0.31468
1994.13564	0.31253
1992.20708	0.31037
1990.27852	0.30783
1988.34995	0.30509
1986.42139	0.30242
1984.49282	0.29985
1982.56426	0.29738
1980.63569	0.29496
1978.70713	0.29259
1976.77856	0.29035
1974.85000	0.28819
1972.92144	0.28607
1970.99287	0.28407
1969.06431	0.28230
1967.13574	0.28060
1965.20718	0.27851
1963.27861	0.27621
1961.35005	0.27411
1959.42148	0.27223
1957.49292	0.27048
1955.56436	0.26877
1953.63579	0.26703
1951.70723	0.26525
1949.77866	0.26356
1947.85010	0.26203
1945.92153	0.26072
1943.99297	0.25963
1942.06440	0.25838
1940.13584	0.25658
1938.20728	0.25467
1936.27871	0.25304
1934.35015	0.25167
1932.42158	0.25046
1930.49302	0.24928
1928.56445	0.24811
1926.63589	0.24705
1924.70732	0.24633
1922.77876	0.24576
1920.85020	0.24486
1918.92163	0.24385
1916.99307	0.24281
1915.06450	0.24152
1913.13594	0.24043
1911.20737	0.23993
1909.27881	0.23956
1907.35024	0.23883
1905.42168	0.23790
1903.49312	0.23719
1901.56455	0.23660
1899.63599	0.23597
1897.70742	0.23543
1895.77886	0.23512
1893.85029	0.23491
1891.92173	0.23470
1889.99316	0.23471
1888.06460	0.23443
1886.13604	0.23375
1884.20747	0.23324
1882.27891	0.23303
1880.35034	0.23294
1878.42178	0.23283
1876.49321	0.23268
1874.56465	0.23260
1872.63608	0.23284
1870.70752	0.23376
1868.77896	0.23530
1866.85039	0.23574
1864.92183	0.23476
1862.99326	0.23395
1861.06470	0.23381
1859.13613	0.23413
1857.20757	0.23451
1855.27900	0.23493
1853.35044	0.23533
1851.42187	0.23578
1849.49331	0.23645
1847.56475	0.23757
1845.63618	0.23913
1843.70762	0.24056
1841.77905	0.24086
1839.85049	0.24062
1837.92192	0.24106
1835.99336	0.24191
1834.06479	0.24282
1832.13623	0.24419
1830.20767	0.24642
1828.27910	0.24827
1826.35054	0.24904
1824.42197	0.24993
1822.49341	0.25075
1820.56484	0.25155
1818.63628	0.25276
1816.70771	0.25437
1814.77915	0.25601
1812.85059	0.25798
1810.92202	0.26040
1808.99346	0.26251
1807.06489	0.26406
1805.13633	0.26567
1803.20776	0.26802
1801.27920	0.27103
1799.35063	0.27414
1797.42207	0.27663
1795.49351	0.27904
1793.56494	0.28218
1791.63638	0.28590
1789.70781	0.28857
1787.77925	0.29038
1785.85068	0.29327
1783.92212	0.29705
1781.99355	0.30112
1780.06499	0.30536
1778.13643	0.30948
1776.20786	0.31349
1774.27930	0.31844
1772.35073	0.32518
1770.42217	0.33138
1768.49360	0.33575
1766.56504	0.34002
1764.63647	0.34480
1762.70791	0.35069
1760.77935	0.35826
1758.85078	0.36502
1756.92222	0.37176
1754.99365	0.37904
1753.06509	0.38574
1751.13652	0.39447
1749.20796	0.40563
1747.27939	0.41581
1745.35083	0.42423
1743.42227	0.43330
1741.49370	0.44363
1739.56514	0.45592
1737.63657	0.46818
1735.70801	0.47935
1733.77944	0.49646
1731.85088	0.51580
1729.92231	0.53035
1727.99375	0.54523
1726.06519	0.56152
1724.13662	0.57978
1722.20806	0.59983
1720.27949	0.61882
1718.35093	0.64177
1716.42236	0.67465
1714.49380	0.70412
1712.56523	0.72753
1710.63667	0.75086
1708.70811	0.77666
1706.77954	0.80646
1704.85098	0.84207
1702.92241	0.87376
1700.99385	0.90559
1699.06528	0.95332
1697.13672	0.99683
1695.20815	1.04063
1693.27959	1.08318
1691.35103	1.11851
1689.42246	1.16053
1687.49390	1.20525
1685.56533	1.24873
1683.63677	1.31561
1681.70820	1.38400
1679.77964	1.42716
1677.85107	1.46874
1675.92251	1.51751
1673.99395	1.57821
1672.06538	1.63233
1670.13682	1.68588
1668.20825	1.75590
1666.27969	1.81398
1664.35112	1.86534
1662.42256	1.93160
1660.49399	2.00610
1658.56543	2.06265
1656.63687	2.10780
1654.70830	2.15077
1652.77974	2.21681
1650.85117	2.27514
1648.92261	2.29383
1646.99404	2.31725
1645.06548	2.34216
1643.13691	2.35836
1641.20835	2.36585
1639.27979	2.37182
1637.35122	2.37534
1635.42266	2.37322
1633.49409	2.36204
1631.56553	2.34448
1629.63696	2.32472
1627.70840	2.29399
1625.77983	2.25733
1623.85127	2.21165
1621.92271	2.15771
1619.99414	2.10996
1618.06558	2.06334
1616.13701	1.99680
1614.20845	1.92782
1612.27988	1.87473
1610.35132	1.82020
1608.42275	1.76170
1606.49419	1.70388
1604.56562	1.65074
1602.63706	1.60042
1600.70850	1.55213
1598.77993	1.50757
1596.85137	1.46530
1594.92280	1.42430
1592.99424	1.38511
1591.06567	1.34997
1589.13711	1.31804
1587.20854	1.28882
1585.27998	1.26206
1583.35142	1.23736
1581.42285	1.21511
1579.49429	1.19680
1577.56572	1.18158
1575.63716	1.16338
1573.70859	1.14661
1571.78003	1.13637
1569.85146	1.12767
1567.92290	1.11799
1565.99434	1.11073
1564.06577	1.10682
1562.13721	1.10505
1560.20864	1.10619
1558.28008	1.11340
1556.35151	1.11946
1554.42295	1.12210
1552.49438	1.12551
1550.56582	1.12756
1548.63726	1.12646
1546.70869	1.12239
1544.78013	1.11542
1542.85156	1.10525
1540.92300	1.08797
1538.99443	1.05608
1537.06587	1.03060
1535.13730	1.01391
1533.20874	0.99243
1531.28018	0.96878
1529.35161	0.95156
1527.42305	0.93618
1525.49448	0.92058
1523.56592	0.90749
1521.63735	0.89536
1519.70879	0.88238
1517.78022	0.87089
1515.85166	0.85749
1513.92310	0.84296
1511.99453	0.83059
1510.06597	0.82031
1508.13740	0.81106
1506.20884	0.79511
1504.28027	0.77895
1502.35171	0.76975
1500.42314	0.76274
1498.49458	0.75594
1496.56602	0.74745
1494.63745	0.73806
1492.70889	0.73110
1490.78032	0.72598
1488.85176	0.71980
1486.92319	0.71288
1484.99463	0.70726
1483.06606	0.70319
1481.13750	0.70024
1479.20894	0.69827
1477.28037	0.69767
1475.35181	0.69841
1473.42324	0.69952
1471.49468	0.69865
1469.56611	0.69574
1467.63755	0.69327
1465.70898	0.69204
1463.78042	0.69119
1461.85186	0.69050
1459.92329	0.69118
1457.99473	0.69359
1456.06616	0.69464
1454.13760	0.69203
1452.20903	0.68907
1450.28047	0.68647
1448.35190	0.68402
1446.42334	0.68125
1444.49478	0.67833
1442.56621	0.67558
1440.63765	0.67292
1438.70908	0.67054
1436.78052	0.66767
1434.85195	0.66365
1432.92339	0.66029
1430.99482	0.65847
1429.06626	0.65774
1427.13770	0.65757
1425.20913	0.65822
1423.28057	0.65959
1421.35200	0.66088
1419.42344	0.66222
1417.49487	0.66267
1415.56631	0.66116
1413.63774	0.65971
1411.70918	0.65956
1409.78062	0.66062
1407.85205	0.66236
1405.92349	0.66464
1403.99492	0.66682
1402.06636	0.66774
1400.13779	0.66763
1398.20923	0.66664
1396.28066	0.66437
1394.35210	0.66037
1392.42354	0.65523
1390.49497	0.65047
1388.56641	0.64600
1386.63784	0.64068
1384.70928	0.63467
1382.78071	0.62902
1380.85215	0.62408
1378.92358	0.62002
1376.99502	0.61704
1375.06646	0.61509
1373.13789	0.61357
1371.20933	0.61238
1369.28076	0.61164
1367.35220	0.61060
1365.42363	0.60915
1363.49507	0.60794
1361.56650	0.60660
1359.63794	0.60472
1357.70937	0.60298
1355.78081	0.60158
1353.85225	0.60033
1351.92368	0.59927
1349.99512	0.59849
1348.06655	0.59777
1346.13799	0.59690
1344.20942	0.59607
1342.28086	0.59559
1340.35229	0.59549
1338.42373	0.59505
1336.49517	0.59414
1334.56660	0.59348
1332.63804	0.59338
1330.70947	0.59364
1328.78091	0.59406
1326.85234	0.59469
1324.92378	0.59568
1322.99521	0.59692
1321.06665	0.59812
1319.13809	0.59912
1317.20952	0.59970
1315.28096	0.59982
1313.35239	0.59954
1311.42383	0.59884
1309.49526	0.59803
1307.56670	0.59740
1305.63813	0.59699
1303.70957	0.59664
1301.78101	0.59602
1299.85244	0.59493
1297.92388	0.59372
1295.99531	0.59259
1294.06675	0.59132
1292.13818	0.58991
1290.20962	0.58848
1288.28105	0.58707
1286.35249	0.58579
1284.42393	0.58455
1282.49536	0.58306
1280.56680	0.58145
1278.63823	0.57987
1276.70967	0.57839
1274.78110	0.57712
1272.85254	0.57609
1270.92397	0.57525
1268.99541	0.57453
1267.06685	0.57387
1265.13828	0.57312
1263.20972	0.57220
1261.28115	0.57120
1259.35259	0.57025
1257.42402	0.56942
1255.49546	0.56902
1253.56689	0.56913
1251.63833	0.56927
1249.70977	0.56922
1247.78120	0.56917
1245.85264	0.56911
1243.92407	0.56870
1241.99551	0.56782
1240.06694	0.56654
1238.13838	0.56474
1236.20981	0.56240
1234.28125	0.55983
1232.35269	0.55738
1230.42412	0.55508
1228.49556	0.55282
1226.56699	0.55064
1224.63843	0.54855
1222.70986	0.54659
1220.78130	0.54478
1218.85273	0.54309
1216.92417	0.54158
1214.99561	0.54030
1213.06704	0.53930
1211.13848	0.53857
1209.20991	0.53798
1207.28135	0.53732
1205.35278	0.53652
1203.42422	0.53564
1201.49565	0.53461
1199.56709	0.53355
1197.63853	0.53260
1195.70996	0.53179
1193.78140	0.53118
1191.85283	0.53073
1189.92427	0.53026
1187.99570	0.52970
1186.06714	0.52931
1184.13857	0.52933
1182.21001	0.52984
1180.28145	0.53080
1178.35288	0.53211
1176.42432	0.53361
1174.49575	0.53514
1172.56719	0.53633
1170.63862	0.53689
1168.71006	0.53699
1166.78149	0.53708
1164.85293	0.53736
1162.92437	0.53757
1160.99580	0.53740
1159.06724	0.53693
1157.13867	0.53646
1155.21011	0.53593
1153.28154	0.53491
1151.35298	0.53325
1149.42441	0.53098
1147.49585	0.52825
1145.56729	0.52542
1143.63872	0.52278
1141.71016	0.52036
1139.78159	0.51838
1137.85303	0.51715
1135.92446	0.51660
1133.99590	0.51643
1132.06733	0.51653
1130.13877	0.51690
1128.21021	0.51727
1126.28164	0.51722
1124.35308	0.51684
1122.42451	0.51660
1120.49595	0.51671
1118.56738	0.51702
1116.63882	0.51731
1114.71025	0.51782
1112.78169	0.51869
1110.85312	0.51951
1108.92456	0.52024
1106.99600	0.52116
1105.06743	0.52233
1103.13887	0.52346
1101.21030	0.52444
1099.28174	0.52574
1097.35317	0.52776
1095.42461	0.53056
1093.49604	0.53421
1091.56748	0.53879
1089.63892	0.54456
1087.71035	0.55179
1085.78179	0.56011
1083.85322	0.56864
1081.92466	0.57632
1079.99609	0.58185
1078.06753	0.58432
1076.13896	0.58366
1074.21040	0.58029
1072.28184	0.57500
1070.35327	0.56854
1068.42471	0.56151
1066.49614	0.55453
1064.56758	0.54789
1062.63901	0.54191
1060.71045	0.53688
1058.78188	0.53256
1056.85332	0.52844
1054.92476	0.52452
1052.99619	0.52118
1051.06763	0.51876
1049.13906	0.51731
1047.21050	0.51636
1045.28193	0.51551
1043.35337	0.51489
1041.42480	0.51472
1039.49624	0.51479
1037.56768	0.51469
1035.63911	0.51439
1033.71055	0.51385
1031.78198	0.51280
1029.85342	0.51120
1027.92485	0.50926
1025.99629	0.50733
1024.06772	0.50575
1022.13916	0.50469
1020.21060	0.50412
1018.28203	0.50379
1016.35347	0.50343
1014.42490	0.50305
1012.49634	0.50279
1010.56777	0.50282
1008.63921	0.50310
1006.71064	0.50359
1004.78208	0.50458
1002.85352	0.50636
1000.92495	0.50888
998.99639	0.51213
997.06782	0.51618
995.13926	0.52072
993.21069	0.52495
991.28213	0.52806
989.35356	0.52978
987.42500	0.53043
985.49644	0.53042
983.56787	0.53014
981.63931	0.53014
979.71074	0.53082
977.78218	0.53200
975.85361	0.53350
973.92505	0.53553
971.99648	0.53814
970.06792	0.54111
968.13936	0.54454
966.21079	0.54850
964.28223	0.55290
962.35366	0.55776
960.42510	0.56281
958.49653	0.56789
956.56797	0.57327
954.63940	0.57893
952.71084	0.58469
950.78228	0.59084
948.85371	0.59751
946.92515	0.60417
944.99658	0.61038
943.06802	0.61599
941.13945	0.62122
939.21089	0.62695
937.28232	0.63335
935.35376	0.63943
933.42520	0.64512
931.49663	0.65104
929.56807	0.65677
927.63950	0.66201
925.71094	0.66717
923.78237	0.67278
921.85381	0.67896
919.92524	0.68552
917.99668	0.69238
916.06812	0.69974
914.13955	0.70755
912.21099	0.71535
910.28242	0.72321
908.35386	0.73110
906.42529	0.73901
904.49673	0.74743
902.56816	0.75616
900.63960	0.76548
898.71104	0.77532
896.78247	0.78428
894.85391	0.79308
892.92534	0.80311
890.99678	0.81333
889.06821	0.82342
887.13965	0.83431
885.21108	0.84585
883.28252	0.85715
881.35396	0.86796
879.42539	0.87937
877.49683	0.89126
875.56826	0.90256
873.63970	0.91320
871.71113	0.92315
869.78257	0.93346
867.85400	0.94470
865.92544	0.95595
863.99687	0.96839
862.06831	0.98255
860.13975	0.99556
858.21118	1.00614
856.28262	1.01538
854.35405	1.02483
852.42549	1.03538
850.49692	1.04823
848.56836	1.06407
846.63979	1.07747
844.71123	1.08520
842.78267	1.09359
840.85410	1.10679
838.92554	1.12219
836.99697	1.13638
835.06841	1.14538
833.13984	1.14881
831.21128	1.15380
829.28271	1.16415
827.35415	1.17735
825.42559	1.19324
823.49702	1.21097
821.56846	1.22502
819.63989	1.23563
817.71133	1.24475
815.78276	1.25200
813.85420	1.26032
811.92563	1.26900
809.99707	1.27416
808.06851	1.27777
806.13994	1.28905
804.21138	1.30508
802.28281	1.32058
800.35425	1.34656
798.42568	1.38021
796.49712	1.39344
794.56855	1.37552
792.63999	1.35838
790.71143	1.35772
788.78286	1.36057
786.85430	1.36004
784.92573	1.35288
782.99717	1.34626
781.06860	1.36600
779.14004	1.41374
777.21147	1.39464
775.28291	1.30040
773.35435	1.26135
771.42578	1.28155
769.49722	1.31249
767.56865	1.34258
765.64009	1.35849
763.71152	1.32367
761.78296	1.21259
759.85439	1.14254
757.92583	1.19836
755.99727	1.35404
754.06870	1.34474
752.14014	1.13894
750.21157	1.00325
748.28301	0.94117
746.35444	0.94076
744.42588	1.01796
742.49731	1.15081
740.56875	1.19347
738.64019	1.11321
736.71162	0.98208
734.78306	0.81593
732.85449	0.67962
730.92593	0.58428
728.99736	0.49069
727.06880	0.40351
725.14023	0.33181
723.21167	0.32215
721.28311	0.37270
719.35454	0.28207
717.42598	0.13385
715.49741	0.10433
713.56885	0.15217
711.64028	0.14252
709.71172	0.03635
707.78315	-0.05961
705.85459	-0.04169
703.92603	0.06111
701.99746	0.14483
700.06890	0.15438
698.14033	0.15328
696.21177	0.19135
694.28320	0.23646
692.35464	0.22953
690.42607	0.15002
688.49751	0.13421
686.56895	0.23323
684.64038	0.24064
682.71182	0.14532
680.78325	0.11324
678.85469	0.15242
676.92612	0.19363
674.99756	0.25436
673.06899	0.31623
671.14043	0.27119
669.21187	0.21127
667.28330	0.18709
665.35474	0.20170
663.42617	0.29387
661.49761	0.32522
659.56904	0.26577
657.64048	0.20801
655.71191	0.15068
653.78335	0.14347
651.85479	0.24179
649.92622	0.37102
647.99766	0.34173
646.06909	0.22065
644.14053	0.13095
642.21196	0.12161
640.28340	0.17968
638.35483	0.22744
636.42627	0.18275
634.49771	0.10403
632.56914	0.08323
630.64058	0.09218
628.71201	0.08880
626.78345	0.09429
624.85488	0.12841
622.92632	0.20011
620.99775	0.23532
619.06919	0.14414
617.14062	0.06081
615.21206	0.06318
613.28350	0.11499
611.35493	0.14009
609.42637	0.11418
607.49780	0.06052
605.56924	0.07165
603.64067	0.12668
601.71211	0.16934
599.78354	0.18566
597.85498	0.15934
595.92642	0.13069
593.99785	0.14280
592.06929	0.16646
590.14072	0.17020
588.21216	0.12195
586.28359	0.05492
584.35503	0.04301
582.42646	0.06633
580.49790	0.06170
578.56934	0.07615
576.64077	0.11067
574.71221	0.12532
572.78364	0.14119
570.85508	0.16074
568.92651	0.14578
566.99795	0.11187
565.06938	0.09931
563.14082	0.08876
561.21226	0.10421
559.28369	0.18156
557.35513	0.25828
555.42656	0.23715
553.49800	0.17196
551.56943	0.13668
549.64087	0.15180
547.71230	0.18124
545.78374	0.17668
543.85518	0.15290
541.92661	0.12193
539.99805	0.08985
538.06948	0.06542
536.14092	0.05892
534.21235	0.07474
532.28379	0.10157
530.35522	0.14522
528.42666	0.18534
526.49810	0.17184
524.56953	0.14902
522.64097	0.16889
520.71240	0.21880
518.78384	0.23084
516.85527	0.18858
514.92671	0.15622
512.99814	0.18273
511.06958	0.24260
509.14102	0.25203
507.21245	0.25954
505.28389	0.28058
503.35532	0.25208
501.42676	0.22321
499.49819	0.23949
