3997.91411	0.07389
3995.98555	0.07386
3994.05698	0.07428
3992.12842	0.07502
3990.19985	0.07568
3988.27129	0.07604
3986.34272	0.07588
3984.41416	0.07548
3982.48560	0.07539
3980.55703	0.07575
3978.62847	0.07615
3976.69990	0.07634
3974.77134	0.07629
3972.84277	0.07616
3970.91421	0.07630
3968.98564	0.07670
3967.05708	0.07712
3965.12852	0.07749
3963.19995	0.07772
3961.27139	0.07782
3959.34282	0.07805
3957.41426	0.07810
3955.48569	0.07773
3953.55713	0.07743
3951.62856	0.07748
3949.70000	0.07749
3947.77144	0.07742
3945.84287	0.07751
3943.91431	0.07757
3941.98574	0.07747
3940.05718	0.07752
3938.12861	0.07772
3936.20005	0.07773
3934.27148	0.07764
3932.34292	0.07763
3930.41436	0.07750
3928.48579	0.07734
3926.55723	0.07731
3924.62866	0.07746
3922.70010	0.07776
3920.77153	0.07791
3918.84297	0.07763
3916.91440	0.07727
3914.98584	0.07718
3913.05728	0.07695
3911.12871	0.07667
3909.20015	0.07672
3907.27158	0.07690
3905.34302	0.07677
3903.41445	0.07640
3901.48589	0.07606
3899.55732	0.07599
3897.62876	0.07644
3895.70020	0.07688
3893.77163	0.07684
3891.84307	0.07684
3889.91450	0.07760
3887.98594	0.07830
3886.05737	0.07820
3884.12881	0.07787
3882.20024	0.07756
3880.27168	0.07735
3878.34312	0.07769
3876.41455	0.07806
3874.48599	0.07817
3872.55742	0.07824
3870.62886	0.07819
3868.70029	0.07858
3866.77173	0.07916
3864.84316	0.07925
3862.91460	0.07928
3860.98604	0.07955
3859.05747	0.07984
3857.12891	0.07978
3855.20034	0.07941
3853.27178	0.07962
3851.34321	0.08115
3849.41465	0.08231
3847.48608	0.08282
3845.55752	0.08324
3843.62896	0.08369
3841.70039	0.08408
3839.77183	0.08437
3837.84326	0.08487
3835.91470	0.08557
3833.98613	0.08630
3832.05757	0.08746
3830.12900	0.08889
3828.20044	0.08981
3826.27187	0.09042
3824.34331	0.09112
3822.41475	0.09152
3820.48618	0.09199
3818.55762	0.09276
3816.62905	0.09343
3814.70049	0.09477
3812.77192	0.09634
3810.84336	0.09727
3808.91479	0.09797
3806.98623	0.09882
3805.05767	0.09992
3803.12910	0.10074
3801.20054	0.10175
3799.27197	0.10367
3797.34341	0.10527
3795.41484	0.10658
3793.48628	0.10795
3791.55771	0.10903
3789.62915	0.11002
3787.70059	0.11111
3785.77202	0.11233
3783.84346	0.11387
3781.91489	0.11559
3779.98633	0.11728
3778.05776	0.11907
3776.12920	0.12070
3774.20063	0.12219
3772.27207	0.12380
3770.34351	0.12547
3768.41494	0.12716
3766.48638	0.12899
3764.55781	0.13141
3762.62925	0.13376
3760.70068	0.13528
3758.77212	0.13694
3756.84355	0.13964
3754.91499	0.14227
3752.98643	0.14411
3751.05786	0.14609
3749.12930	0.14947
3747.20073	0.15264
3745.27217	0.15497
3743.34360	0.15803
3741.41504	0.16105
3739.48647	0.16281
3737.55791	0.16398
3735.62935	0.16574
3733.70078	0.16958
3731.77222	0.17445
3729.84365	0.17846
3727.91509	0.18196
3725.98652	0.18659
3724.05796	0.19338
3722.12939	0.20195
3720.20083	0.21159
3718.27227	0.22158
3716.34370	0.23161
3714.41514	0.24076
3712.48657	0.24917
3710.55801	0.25958
3708.62944	0.27269
3706.70088	0.28533
3704.77231	0.29709
3702.84375	0.31025
3700.91519	0.32770
3698.98662	0.34718
3697.05806	0.36558
3695.12949	0.38499
3693.20093	0.40541
3691.27236	0.42728
3689.34380	0.45592
3687.41523	0.49228
3685.48667	0.52483
3683.55811	0.55286
3681.62954	0.58232
3679.70098	0.61438
3677.77241	0.64706
3675.84385	0.68564
3673.91528	0.73994
3671.98672	0.78573
3670.05815	0.82544
3668.12959	0.88043
3666.20103	0.93190
3664.27246	0.97429
3662.34390	1.01847
3660.41533	1.06581
3658.48677	1.11248
3656.55820	1.16208
3654.62964	1.21784
3652.70107	1.26446
3650.77251	1.30345
3648.84395	1.35793
3646.91538	1.42864
3644.98682	1.48164
3643.05825	1.52131
3641.12969	1.56114
3639.20112	1.60504
3637.27256	1.64912
3635.34399	1.69155
3633.41543	1.73360
3631.48687	1.77284
3629.55830	1.81240
3627.62974	1.86553
3625.70117	1.91754
3623.77261	1.95260
3621.84404	1.98512
3619.91548	2.02321
3617.98691	2.07112
3616.05835	2.11745
3614.12979	2.15494
3612.20122	2.19426
3610.27266	2.23383
3608.34409	2.27209
3606.41553	2.31296
3604.48696	2.35257
3602.55840	2.38765
3600.62983	2.42468
3598.70127	2.46568
3596.77271	2.50601
3594.84414	2.54662
3592.91558	2.58843
3590.98701	2.62646
3589.05845	2.66079
3587.12988	2.70426
3585.20132	2.75576
3583.27275	2.79954
3581.34419	2.83807
3579.41562	2.87815
3577.48706	2.92062
3575.55850	2.96348
3573.62993	3.00615
3571.70137	3.04645
3569.77280	3.08522
3567.84424	3.12682
3565.91567	3.17755
3563.98711	3.22897
3562.05854	3.27185
3560.12998	3.31391
3558.20142	3.36038
3556.27285	3.40801
3554.34429	3.45249
3552.41572	3.49754
3550.48716	3.54452
3548.55859	3.59051
3546.63003	3.63580
3544.70146	3.68287
3542.77290	3.72953
3540.84434	3.77568
3538.91577	3.82360
3536.98721	3.87106
3535.05864	3.91942
3533.13008	3.96772
3531.20151	4.01343
3529.27295	4.05734
3527.34438	4.10303
3525.41582	4.15047
3523.48726	4.19715
3521.55869	4.24651
3519.63013	4.29821
3517.70156	4.34815
3515.77300	4.39462
3513.84443	4.43997
3511.91587	4.48735
3509.98730	4.53819
3508.05874	4.58762
3506.13018	4.63011
3504.20161	4.67225
3502.27305	4.72354
3500.34448	4.77941
3498.41592	4.82722
3496.48735	4.87151
3494.55879	4.92057
3492.63022	4.96978
3490.70166	5.01384
3488.77310	5.05389
3486.84453	5.09684
3484.91597	5.14774
3482.98740	5.20311
3481.05884	5.25635
3479.13027	5.30178
3477.20171	5.34824
3475.27314	5.40428
3473.34458	5.45953
3471.41602	5.50764
3469.48745	5.55218
3467.55889	5.59387
3465.63032	5.63328
3463.70176	5.67713
3461.77319	5.73179
3459.84463	5.79243
3457.91606	5.84794
3455.98750	5.90107
3454.05894	5.95097
3452.13037	5.98998
3450.20181	6.02741
3448.27324	6.07141
3446.34468	6.12342
3444.41611	6.17921
3442.48755	6.23659
3440.55898	6.28790
3438.63042	6.32599
3436.70186	6.36636
3434.77329	6.42455
3432.84473	6.49253
3430.91616	6.54644
3428.98760	6.58019
3427.05903	6.61647
3425.13047	6.67989
3423.20190	6.74990
3421.27334	6.79568
3419.34478	6.81950
3417.41621	6.85155
3415.48765	6.91293
3413.55908	6.98755
3411.63052	7.05022
3409.70195	7.07629
3407.77339	7.07869
3405.84482	7.08921
3403.91626	7.12380
3401.98770	7.17673
3400.05913	7.23892
3398.13057	7.29940
3396.20200	7.34435
3394.27344	7.36280
3392.34487	7.37389
3390.41631	7.42950
3388.48774	7.47069
3386.55918	7.45178
3384.63062	7.45119
3382.70205	7.52658
3380.77349	7.62338
3378.84492	7.67165
3376.91636	7.68906
3374.98779	7.69549
3373.05923	7.72405
3371.13066	7.75040
3369.20210	7.78434
3367.27354	7.88106
3365.34497	7.97836
3363.41641	7.98124
3361.48784	7.91846
3359.55928	7.87710
3357.63071	7.88526
3355.70215	7.95382
3353.77358	8.03422
3351.84502	8.08427
3349.91646	8.11727
3347.98789	8.13436
3346.05933	8.11207
3344.13076	8.05791
3342.20220	8.03379
3340.27363	8.06151
3338.34507	8.09459
3336.41650	8.09072
3334.48794	8.11203
3332.55937	8.11756
3330.63081	8.06177
3328.70225	8.05852
3326.77368	8.12268
3324.84512	8.16574
3322.91655	8.15759
3320.98799	8.14903
3319.05942	8.17211
3317.13086	8.19178
3315.20229	8.17411
3313.27373	8.18644
3311.34517	8.20093
3309.41660	8.16572
3307.48804	8.18013
3305.55947	8.27778
3303.63091	8.35849
3301.70234	8.31356
3299.77378	8.23919
3297.84521	8.24392
3295.91665	8.26082
3293.98809	8.18119
3292.05952	8.08076
3290.13096	8.05298
3288.20239	8.04774
3286.27383	8.08943
3284.34526	8.25046
3282.41670	8.42585
3280.48813	8.38378
3278.55957	8.20400
3276.63101	8.09231
3274.70244	8.08229
3272.77388	8.15494
3270.84531	8.28367
3268.91675	8.36203
3266.98818	8.30016
3265.05962	8.18888
3263.13105	8.11385
3261.20249	8.13525
3259.27393	8.24011
3257.34536	8.27028
3255.41680	8.15335
3253.48823	8.04653
3251.55967	8.07871
3249.63110	8.19387
3247.70254	8.30724
3245.77397	8.41101
3243.84541	8.43553
3241.91685	8.32615
3239.98828	8.22335
3238.05972	8.16568
3236.13115	8.12309
3234.20259	8.15949
3232.27402	8.19137
3230.34546	8.11481
3228.41689	8.03145
3226.48833	8.01373
3224.55977	8.01553
3222.63120	7.97683
3220.70264	7.92469
3218.77407	7.90062
3216.84551	7.91083
3214.91694	7.99289
3212.98838	8.09628
3211.05981	8.11130
3209.13125	8.06559
3207.20269	7.97373
3205.27412	7.87241
3203.34556	7.85108
3201.41699	7.85468
3199.48843	7.80286
3197.55986	7.74465
3195.63130	7.68734
3193.70273	7.59682
3191.77417	7.52589
3189.84561	7.51756
3187.91704	7.50749
3185.98848	7.46760
3184.05991	7.42947
3182.13135	7.35821
3180.20278	7.25937
3178.27422	7.19267
3176.34565	7.18592
3174.41709	7.21112
3172.48853	7.18751
3170.55996	7.09812
3168.63140	7.00384
3166.70283	6.91428
3164.77427	6.83332
3162.84570	6.77727
3160.91714	6.70891
3158.98857	6.63252
3157.06001	6.57135
3155.13145	6.49783
3153.20288	6.41901
3151.27432	6.36114
3149.34575	6.31034
3147.41719	6.25014
3145.48862	6.17487
3143.56006	6.08365
3141.63149	6.00346
3139.70293	5.94801
3137.77437	5.88920
3135.84580	5.80635
3133.91724	5.72047
3131.98867	5.65139
3130.06011	5.58258
3128.13154	5.50057
3126.20298	5.42249
3124.27441	5.36149
3122.34585	5.30183
3120.41729	5.23262
3118.48872	5.15945
3116.56016	5.08301
3114.63159	5.00526
3112.70303	4.93283
3110.77446	4.86708
3108.84590	4.80075
3106.91733	4.73061
3104.98877	4.66146
3103.06021	4.59296
3101.13164	4.52093
3099.20308	4.44892
3097.27451	4.38356
3095.34595	4.32181
3093.41738	4.25616
3091.48882	4.18709
3089.56025	4.11904
3087.63169	4.05471
3085.70312	3.99452
3083.77456	3.93494
3081.84600	3.87377
3079.91743	3.81105
3077.98887	3.74872
3076.06030	3.69030
3074.13174	3.63429
3072.20317	3.57596
3070.27461	3.51496
3068.34604	3.45520
3066.41748	3.39811
3064.48892	3.34187
3062.56035	3.28618
3060.63179	3.23205
3058.70322	3.17853
3056.77466	3.12405
3054.84609	3.07014
3052.91753	3.01843
3050.98896	2.96754
3049.06040	2.91766
3047.13184	2.86971
3045.20327	2.82175
3043.27471	2.77286
3041.34614	2.72450
3039.41758	2.67762
3037.48901	2.63145
3035.56045	2.58493
3033.63188	2.53932
3031.70332	2.49572
3029.77476	2.45262
3027.84619	2.40932
3025.91763	2.36697
3023.98906	2.32562
3022.06050	2.28443
3020.13193	2.24375
3018.20337	2.20415
3016.27480	2.16544
3014.34624	2.12739
3012.41768	2.08954
3010.48911	2.05198
3008.56055	2.01546
3006.63198	1.97944
3004.70342	1.94311
3002.77485	1.90740
3000.84629	1.87335
2998.91772	1.84063
2996.98916	1.80820
2995.06060	1.77550
2993.13203	1.74290
2991.20347	1.71111
2989.27490	1.68006
2987.34634	1.64918
2985.41777	1.61825
2983.48921	1.58809
2981.56064	1.55926
2979.63208	1.53085
2977.70352	1.50240
2975.77495	1.47465
2973.84639	1.44767
2971.91782	1.42095
2969.98926	1.39449
2968.06069	1.36835
2966.13213	1.34260
2964.20356	1.31768
2962.27500	1.29347
2960.34644	1.26935
2958.41787	1.24567
2956.48931	1.22282
2954.56074	1.20030
2952.63218	1.17791
2950.70361	1.15579
2948.77505	1.13389
2946.84648	1.11233
2944.91792	1.09141
2942.98936	1.07124
2941.06079	1.05157
2939.13223	1.03209
2937.20366	1.01277
2935.27510	0.99348
2933.34653	0.97439
2931.41797	0.95640
2929.48940	0.93981
2927.56084	0.92334
2925.63228	0.90607
2923.70371	0.88899
2921.77515	0.87327
2919.84658	0.85811
2917.91802	0.84229
2915.98945	0.82640
2914.06089	0.81108
2912.13232	0.79610
2910.20376	0.78154
2908.27520	0.76738
2906.34663	0.75358
2904.41807	0.74033
2902.48950	0.72770
2900.56094	0.71533
2898.63237	0.70285
2896.70381	0.69058
2894.77524	0.67867
2892.84668	0.66680
2890.91812	0.65507
2888.98955	0.64363
2887.06099	0.63232
2885.13242	0.62128
2883.20386	0.61062
2881.27529	0.60015
2879.34673	0.58979
2877.41816	0.57969
2875.48960	0.57000
2873.56104	0.56044
2871.63247	0.55074
2869.70391	0.54117
2867.77534	0.53199
2865.84678	0.52295
2863.91821	0.51393
2861.98965	0.50505
2860.06108	0.49648
2858.13252	0.48835
2856.20396	0.48048
2854.27539	0.47250
2852.34683	0.46460
2850.41826	0.45708
2848.48970	0.44949
2846.56113	0.44156
2844.63257	0.43398
2842.70400	0.42728
2840.77544	0.42125
2838.84687	0.41550
2836.91831	0.40978
2834.98975	0.40391
2833.06118	0.39800
2831.13262	0.39236
2829.20405	0.38687
2827.27549	0.38141
2825.34692	0.37595
2823.41836	0.37031
2821.48979	0.36459
2819.56123	0.35923
2817.63267	0.35406
2815.70410	0.34870
2813.77554	0.34335
2811.84697	0.33824
2809.91841	0.33324
2807.98984	0.32831
2806.06128	0.32350
2804.13271	0.31897
2802.20415	0.31467
2800.27559	0.31021
2798.34702	0.30556
2796.41846	0.30102
2794.48989	0.29661
2792.56133	0.29234
2790.63276	0.28843
2788.70420	0.28477
2786.77563	0.28106
2784.84707	0.27723
2782.91851	0.27342
2780.98994	0.26975
2779.06138	0.26619
2777.13281	0.26262
2775.20425	0.25907
2773.27568	0.25570
2771.34712	0.25246
2769.41855	0.24927
2767.48999	0.24607
2765.56143	0.24285
2763.63286	0.23977
2761.70430	0.23700
2759.77573	0.23437
2757.84717	0.23153
2755.91860	0.22852
2753.99004	0.22564
2752.06147	0.22300
2750.13291	0.22055
2748.20435	0.21810
2746.27578	0.21558
2744.34722	0.21316
2742.41865	0.21081
2740.49009	0.20842
2738.56152	0.20615
2736.63296	0.20393
2734.70439	0.20167
2732.77583	0.19948
2730.84727	0.19744
2728.91870	0.19534
2726.99014	0.19318
2725.06157	0.19121
2723.13301	0.18942
2721.20444	0.18759
2719.27588	0.18569
2717.34731	0.18393
2715.41875	0.18234
2713.49019	0.18076
2711.56162	0.17919
2709.63306	0.17768
2707.70449	0.17614
2705.77593	0.17458
2703.84736	0.17316
2701.91880	0.17191
2699.99023	0.17065
2698.06167	0.16935
2696.13311	0.16805
2694.20454	0.16683
2692.27598	0.16570
2690.34741	0.16449
2688.41885	0.16315
2686.49028	0.16187
2684.56172	0.16078
2682.63315	0.15984
2680.70459	0.15890
2678.77603	0.15803
2676.84746	0.15722
2674.91890	0.15619
2672.99033	0.15510
2671.06177	0.15425
2669.13320	0.15343
2667.20464	0.15247
2665.27607	0.15158
2663.34751	0.15077
2661.41895	0.14996
2659.49038	0.14930
2657.56182	0.14880
2655.63325	0.14829
2653.70469	0.14782
2651.77612	0.14741
2649.84756	0.14685
2647.91899	0.14611
2645.99043	0.14539
2644.06187	0.14484
2642.13330	0.14449
2640.20474	0.14427
2638.27617	0.14398
2636.34761	0.14360
2634.41904	0.14327
2632.49048	0.14298
2630.56191	0.14262
2628.63335	0.14228
2626.70479	0.14211
2624.77622	0.14204
2622.84766	0.14190
2620.91909	0.14165
2618.99053	0.14150
2617.06196	0.14157
2615.13340	0.14171
2613.20483	0.14173
2611.27627	0.14161
2609.34771	0.14149
2607.41914	0.14145
2605.49058	0.14138
2603.56201	0.14132
2601.63345	0.14139
2599.70488	0.14154
2597.77632	0.14177
2595.84775	0.14201
2593.91919	0.14220
2591.99062	0.14246
2590.06206	0.14272
2588.13350	0.14281
2586.20493	0.14281
2584.27637	0.14302
2582.34780	0.14349
2580.41924	0.14396
2578.49067	0.14437
2576.56211	0.14482
2574.63354	0.14526
2572.70498	0.14572
2570.77642	0.14623
2568.84785	0.14666
2566.91929	0.14698
2564.99072	0.14730
2563.06216	0.14768
2561.13359	0.14821
2559.20503	0.14884
2557.27646	0.14946
2555.34790	0.15003
2553.41934	0.15059
2551.49077	0.15114
2549.56221	0.15171
2547.63364	0.15236
2545.70508	0.15311
2543.77651	0.15385
2541.84795	0.15449
2539.91938	0.15509
2537.99082	0.15577
2536.06226	0.15647
2534.13369	0.15716
2532.20513	0.15792
2530.27656	0.15866
2528.34800	0.15932
2526.41943	0.15998
2524.49087	0.16069
2522.56230	0.16146
2520.63374	0.16233
2518.70518	0.16326
2516.77661	0.16416
2514.84805	0.16506
2512.91948	0.16597
2510.99092	0.16675
2509.06235	0.16751
2507.13379	0.16836
2505.20522	0.16924
2503.27666	0.17014
2501.34810	0.17107
2499.41953	0.17193
2497.49097	0.17277
2495.56240	0.17368
2493.63384	0.17454
2491.70527	0.17530
2489.77671	0.17613
2487.84814	0.17703
2485.91958	0.17792
2483.99102	0.17884
2482.06245	0.17986
2480.13389	0.18085
2478.20532	0.18178
2476.27676	0.18271
2474.34819	0.18367
2472.41963	0.18468
2470.49106	0.18571
2468.56250	0.18671
2466.63394	0.18764
2464.70537	0.18853
2462.77681	0.18946
2460.84824	0.19056
2458.91968	0.19169
2456.99111	0.19268
2455.06255	0.19361
2453.13398	0.19462
2451.20542	0.19573
2449.27686	0.19682
2447.34829	0.19780
2445.41973	0.19876
2443.49116	0.19973
2441.56260	0.20070
2439.63403	0.20174
2437.70547	0.20286
2435.77690	0.20393
2433.84834	0.20495
2431.91978	0.20595
2429.99121	0.20700
2428.06265	0.20813
2426.13408	0.20926
2424.20552	0.21045
2422.27695	0.21172
2420.34839	0.21289
2418.41982	0.21397
2416.49126	0.21515
2414.56270	0.21639
2412.63413	0.21752
2410.70557	0.21862
2408.77700	0.21981
2406.84844	0.22099
2404.91987	0.22216
2402.99131	0.22340
2401.06274	0.22459
2399.13418	0.22573
2397.20562	0.22694
2395.27705	0.22819
2393.34849	0.22944
2391.41992	0.23061
2389.49136	0.23144
2387.56279	0.23171
2385.63423	0.23102
2383.70566	0.22863
2381.77710	0.22431
2379.84854	0.21858
2377.91997	0.21182
2375.99141	0.20385
2374.06284	0.19448
2372.13428	0.18387
2370.20571	0.17227
2368.27715	0.15999
2366.34858	0.14801
2364.42002	0.13788
2362.49146	0.13115
2360.56289	0.12837
2358.63433	0.12998
2356.70576	0.13757
2354.77720	0.15142
2352.84863	0.16921
2350.92007	0.18676
2348.99150	0.19779
2347.06294	0.19890
2345.13437	0.19105
2343.20581	0.18133
2341.27725	0.17828
2339.34868	0.18098
2337.42012	0.18503
2335.49155	0.18878
2333.56299	0.19255
2331.63442	0.19625
2329.70586	0.20018
2327.77729	0.20509
2325.84873	0.21095
2323.92017	0.21742
2321.99160	0.22430
2320.06304	0.23154
2318.13447	0.23924
2316.20591	0.24673
2314.27734	0.25282
2312.34878	0.25748
2310.42021	0.26207
2308.49165	0.26736
2306.56309	0.27304
2304.63452	0.27852
2302.70596	0.28308
2300.77739	0.28674
2298.84883	0.29031
2296.92026	0.29423
2294.99170	0.29819
2293.06313	0.30195
2291.13457	0.30547
2289.20601	0.30881
2287.27744	0.31220
2285.34888	0.31564
2283.42031	0.31868
2281.49175	0.32097
2279.56318	0.32268
2277.63462	0.32424
2275.70605	0.32594
2273.77749	0.32779
2271.84893	0.32974
2269.92036	0.33176
2267.99180	0.33394
2266.06323	0.33629
2264.13467	0.33867
2262.20610	0.34103
2260.27754	0.34340
2258.34897	0.34583
2256.42041	0.34829
2254.49185	0.35072
2252.56328	0.35306
2250.63472	0.35532
2248.70615	0.35761
2246.77759	0.35997
2244.84902	0.36240
2242.92046	0.36486
2240.99189	0.36723
2239.06333	0.36947
2237.13477	0.37166
2235.20620	0.37386
2233.27764	0.37621
2231.34907	0.37864
2229.42051	0.38101
2227.49194	0.38331
2225.56338	0.38552
2223.63481	0.38763
2221.70625	0.38969
2219.77769	0.39180
2217.84912	0.39402
2215.92056	0.39632
2213.99199	0.39858
2212.06343	0.40079
2210.13486	0.40290
2208.20630	0.40491
2206.27773	0.40693
2204.34917	0.40906
2202.42061	0.41122
2200.49204	0.41334
2198.56348	0.41538
2196.63491	0.41738
2194.70635	0.41937
2192.77778	0.42122
2190.84922	0.42300
2188.92065	0.42483
2186.99209	0.42664
2185.06353	0.42841
2183.13496	0.43023
2181.20640	0.43203
2179.27783	0.43371
2177.34927	0.43525
2175.42070	0.43676
2173.49214	0.43838
2171.56357	0.44000
2169.63501	0.44145
2167.70645	0.44278
2165.77788	0.44407
2163.84932	0.44536
2161.92075	0.44656
2159.99219	0.44761
2158.06362	0.44864
2156.13506	0.44965
2154.20649	0.45055
2152.27793	0.45143
2150.34937	0.45231
2148.42080	0.45307
2146.49224	0.45374
2144.56367	0.45431
2142.63511	0.45471
2140.70654	0.45505
2138.77798	0.45542
2136.84941	0.45576
2134.92085	0.45599
2132.99229	0.45606
2131.06372	0.45605
2129.13516	0.45611
2127.20659	0.45613
2125.27803	0.45591
2123.34946	0.45551
2121.42090	0.45508
2119.49233	0.45454
2117.56377	0.45392
2115.63521	0.45331
2113.70664	0.45262
2111.77808	0.45181
2109.84951	0.45095
2107.92095	0.45007
2105.99238	0.44905
2104.06382	0.44790
2102.13525	0.44663
2100.20669	0.44531
2098.27812	0.44402
2096.34956	0.44276
2094.42100	0.44144
2092.49243	0.43999
2090.56387	0.43838
2088.63530	0.43666
2086.70674	0.43504
2084.77817	0.43345
2082.84961	0.43168
2080.92104	0.42966
2078.99248	0.42765
2077.06392	0.42576
2075.13535	0.42387
2073.20679	0.42188
2071.27822	0.41984
2069.34966	0.41766
2067.42109	0.41532
2065.49253	0.41297
2063.56396	0.41068
2061.63540	0.40839
2059.70684	0.40597
2057.77827	0.40346
2055.84971	0.40098
2053.92114	0.39851
2051.99258	0.39606
2050.06401	0.39356
2048.13545	0.39101
2046.20688	0.38850
2044.27832	0.38599
2042.34976	0.38343
2040.42119	0.38089
2038.49263	0.37829
2036.56406	0.37552
2034.63550	0.37271
2032.70693	0.36996
2030.77837	0.36722
2028.84980	0.36440
2026.92124	0.36156
2024.99268	0.35885
2023.06411	0.35628
2021.13555	0.35361
2019.20698	0.35080
2017.27842	0.34801
2015.34985	0.34521
2013.42129	0.34247
2011.49272	0.33984
2009.56416	0.33718
2007.63560	0.33450
2005.70703	0.33190
2003.77847	0.32934
2001.84990	0.32673
1999.92134	0.32415
1997.99277	0.32160
1996.06421	0.31901
1994.13564	0.31642
1992.20708	0.31389
1990.27852	0.31130
1988.34995	0.30872
1986.42139	0.30626
1984.49282	0.30390
1982.56426	0.30156
1980.63569	0.29918
1978.70713	0.29685
1976.77856	0.29464
1974.85000	0.29249
1972.92144	0.29027
1970.99287	0.28805
1969.06431	0.28592
1967.13574	0.28385
1965.20718	0.28185
1963.27861	0.27988
1961.35005	0.27783
1959.42148	0.27581
1957.49292	0.27400
1955.56436	0.27231
1953.63579	0.27056
1951.70723	0.26878
1949.77866	0.26709
1947.85010	0.26543
1945.92153	0.26378
1943.99297	0.26220
1942.06440	0.26074
1940.13584	0.25940
1938.20728	0.25803
1936.27871	0.25656
1934.35015	0.25517
1932.42158	0.25400
1930.49302	0.25286
1928.56445	0.25167
1926.63589	0.25048
1924.70732	0.24933
1922.77876	0.24826
1920.85020	0.24732
1918.92163	0.24645
1916.99307	0.24562
1915.06450	0.24483
1913.13594	0.24394
1911.20737	0.24302
1909.27881	0.24216
1907.35024	0.24147
1905.42168	0.24088
1903.49312	0.24037
1901.56455	0.23984
1899.63599	0.23924
1897.70742	0.23871
1895.77886	0.23824
1893.85029	0.23780
1891.92173	0.23734
1889.99316	0.23703
1888.06460	0.23688
1886.13604	0.23671
1884.20747	0.23644
1882.27891	0.23617
1880.35034	0.23603
1878.42178	0.23597
1876.49321	0.23598
1874.56465	0.23596
1872.63608	0.23596
1870.70752	0.23596
1868.77896	0.23606
1866.85039	0.23633
1864.92183	0.23658
1862.99326	0.23682
1861.06470	0.23707
1859.13613	0.23741
1857.20757	0.23784
1855.27900	0.23835
1853.35044	0.23879
1851.42187	0.23925
1849.49331	0.23972
1847.56475	0.24013
1845.63618	0.24055
1843.70762	0.24134
1841.77905	0.24247
1839.85049	0.24333
1837.92192	0.24411
1835.99336	0.24492
1834.06479	0.24583
1832.13623	0.24661
1830.20767	0.24759
1828.27910	0.24901
1826.35054	0.25030
1824.42197	0.25166
1822.49341	0.25308
1820.56484	0.25444
1818.63628	0.25586
1816.70771	0.25755
1814.77915	0.25919
1812.85059	0.26071
1810.92202	0.26249
1808.99346	0.26458
1807.06489	0.26671
1805.13633	0.26869
1803.20776	0.27075
1801.27920	0.27295
1799.35063	0.27557
1797.42207	0.27815
1795.49351	0.28051
1793.56494	0.28300
1791.63638	0.28639
1789.70781	0.29023
1787.77925	0.29329
1785.85068	0.29651
1783.92212	0.30018
1781.99355	0.30406
1780.06499	0.30817
1778.13643	0.31252
1776.20786	0.31646
1774.27930	0.32021
1772.35073	0.32533
1770.42217	0.33169
1768.49360	0.33762
1766.56504	0.34326
1764.63647	0.34871
1762.70791	0.35437
1760.77935	0.36174
1758.85078	0.36890
1756.92222	0.37593
1754.99365	0.38357
1753.06509	0.39038
1751.13652	0.39814
1749.20796	0.40830
1747.27939	0.41905
1745.35083	0.42866
1743.42227	0.43852
1741.49370	0.44914
1739.56514	0.46161
1737.63657	0.47422
1735.70801	0.48504
1733.77944	0.50105
1731.85088	0.52089
1729.92231	0.53691
1727.99375	0.55294
1726.06519	0.56982
1724.13662	0.58802
1722.20806	0.60771
1720.27949	0.62569
1718.35093	0.64631
1716.42236	0.67754
1714.49380	0.70837
1712.56523	0.73350
1710.63667	0.75753
1708.70811	0.78300
1706.77954	0.81152
1704.85098	0.84539
1702.92241	0.87565
1700.99385	0.90517
1699.06528	0.94901
1697.13672	0.98947
1695.20815	1.03101
1693.27959	1.07136
1691.35103	1.10321
1689.42246	1.13925
1687.49390	1.17694
1685.56533	1.21266
1683.63677	1.26786
1681.70820	1.32625
1679.77964	1.36393
1677.85107	1.39962
1675.92251	1.44014
1673.99395	1.48959
1672.06538	1.53297
1670.13682	1.57508
1668.20825	1.63042
1666.27969	1.67490
1664.35112	1.71085
1662.42256	1.75472
1660.49399	1.80454
1658.56543	1.84362
1656.63687	1.87499
1654.70830	1.90438
1652.77974	1.95751
1650.85117	2.01406
1648.92261	2.03718
1646.99404	2.06672
1645.06548	2.10206
1643.13691	2.12512
1641.20835	2.13932
1639.27979	2.15269
1637.35122	2.16341
1635.42266	2.16908
1633.49409	2.16656
1631.56553	2.15651
1629.63696	2.14252
1627.70840	2.11881
1625.77983	2.09170
1623.85127	2.05675
1621.92271	2.01267
1619.99414	1.97330
1618.06558	1.93359
1616.13701	1.87554
1614.20845	1.81685
1612.27988	1.77230
1610.35132	1.72455
1608.42275	1.67199
1606.49419	1.61986
1604.56562	1.57095
1602.63706	1.52303
1600.70850	1.47615
1598.77993	1.43288
1596.85137	1.39183
1594.92280	1.35173
1592.99424	1.31291
1591.06567	1.27729
1589.13711	1.24357
1587.20854	1.21155
1585.27998	1.18149
1583.35142	1.15297
1581.42285	1.12621
1579.49429	1.10245
1577.56572	1.08025
1575.63716	1.05292
1573.70859	1.02898
1571.78003	1.01292
1569.85146	0.99487
1567.92290	0.97409
1565.99434	0.95750
1564.06577	0.94296
1562.13721	0.93047
1560.20864	0.91939
1558.28008	0.89978
1556.35151	0.88214
1554.42295	0.87166
1552.49438	0.86135
1550.56582	0.85117
1548.63726	0.84082
1546.70869	0.83160
1544.78013	0.82297
1542.85156	0.81388
1540.92300	0.80383
1538.99443	0.79223
1537.06587	0.78470
1535.13730	0.77920
1533.20874	0.77184
1531.28018	0.76405
1529.35161	0.75810
1527.42305	0.75203
1525.49448	0.74570
1523.56592	0.74020
1521.63735	0.73444
1519.70879	0.72796
1517.78022	0.72234
1515.85166	0.71709
1513.92310	0.71244
1511.99453	0.70843
1510.06597	0.70441
1508.13740	0.70021
1506.20884	0.69456
1504.28027	0.69021
1502.35171	0.68730
1500.42314	0.68418
1498.49458	0.68082
1496.56602	0.67746
1494.63745	0.67442
1492.70889	0.67160
1490.78032	0.66849
1488.85176	0.66487
1486.92319	0.66189
1484.99463	0.65952
1483.06606	0.65707
1481.13750	0.65423
1479.20894	0.65131
1477.28037	0.64860
1475.35181	0.64588
1473.42324	0.64301
1471.49468	0.63983
1469.56611	0.63702
1467.63755	0.63445
1465.70898	0.63182
1463.78042	0.62939
1461.85186	0.62735
1459.92329	0.62534
1457.99473	0.62288
1456.06616	0.62027
1454.13760	0.61837
1452.20903	0.61675
1450.28047	0.61505
1448.35190	0.61339
1446.42334	0.61183
1444.49478	0.61025
1442.56621	0.60863
1440.63765	0.60721
1438.70908	0.60603
1436.78052	0.60463
1434.85195	0.60304
1432.92339	0.60162
1430.99482	0.60021
1429.06626	0.59856
1427.13770	0.59697
1425.20913	0.59558
1423.28057	0.59412
1421.35200	0.59257
1419.42344	0.59107
1417.49487	0.58974
1415.56631	0.58838
1413.63774	0.58694
1411.70918	0.58554
1409.78062	0.58427
1407.85205	0.58292
1405.92349	0.58144
1403.99492	0.58003
1402.06636	0.57870
1400.13779	0.57738
1398.20923	0.57616
1396.28066	0.57500
1394.35210	0.57372
1392.42354	0.57246
1390.49497	0.57125
1388.56641	0.57001
1386.63784	0.56878
1384.70928	0.56773
1382.78071	0.56685
1380.85215	0.56591
1378.92358	0.56486
1376.99502	0.56384
1375.06646	0.56291
1373.13789	0.56195
1371.20933	0.56098
1369.28076	0.56002
1367.35220	0.55911
1365.42363	0.55827
1363.49507	0.55731
1361.56650	0.55631
1359.63794	0.55548
1357.70937	0.55468
1355.78081	0.55378
1353.85225	0.55293
1351.92368	0.55227
1349.99512	0.55168
1348.06655	0.55092
1346.13799	0.54997
1344.20942	0.54897
1342.28086	0.54798
1340.35229	0.54706
1338.42373	0.54627
1336.49517	0.54547
1334.56660	0.54465
1332.63804	0.54387
1330.70947	0.54310
1328.78091	0.54238
1326.85234	0.54165
1324.92378	0.54091
1322.99521	0.54019
1321.06665	0.53946
1319.13809	0.53866
1317.20952	0.53780
1315.28096	0.53698
1313.35239	0.53628
1311.42383	0.53563
1309.49526	0.53490
1307.56670	0.53414
1305.63813	0.53346
1303.70957	0.53281
1301.78101	0.53213
1299.85244	0.53155
1297.92388	0.53099
1295.99531	0.53029
1294.06675	0.52954
1292.13818	0.52886
1290.20962	0.52827
1288.28105	0.52779
1286.35249	0.52733
1284.42393	0.52684
1282.49536	0.52640
1280.56680	0.52600
1278.63823	0.52554
1276.70967	0.52503
1274.78110	0.52451
1272.85254	0.52402
1270.92397	0.52366
1268.99541	0.52334
1267.06685	0.52295
1265.13828	0.52260
1263.20972	0.52235
1261.28115	0.52200
1259.35259	0.52158
1257.42402	0.52117
1255.49546	0.52083
1253.56689	0.52063
1251.63833	0.52057
1249.70977	0.52051
1247.78120	0.52030
1245.85264	0.51992
1243.92407	0.51944
1241.99551	0.51897
1240.06694	0.51852
1238.13838	0.51814
1236.20981	0.51789
1234.28125	0.51760
1232.35269	0.51706
1230.42412	0.51634
1228.49556	0.51572
1226.56699	0.51526
1224.63843	0.51485
1222.70986	0.51438
1220.78130	0.51381
1218.85273	0.51315
1216.92417	0.51252
1214.99561	0.51197
1213.06704	0.51149
1211.13848	0.51092
1209.20991	0.51018
1207.28135	0.50941
1205.35278	0.50880
1203.42422	0.50834
1201.49565	0.50794
1199.56709	0.50750
1197.63853	0.50706
1195.70996	0.50670
1193.78140	0.50630
1191.85283	0.50580
1189.92427	0.50527
1187.99570	0.50488
1186.06714	0.50474
1184.13857	0.50461
1182.21001	0.50434
1180.28145	0.50419
1178.35288	0.50439
1176.42432	0.50480
1174.49575	0.50518
1172.56719	0.50549
1170.63862	0.50583
1168.71006	0.50612
1166.78149	0.50636
1164.85293	0.50658
1162.92437	0.50665
1160.99580	0.50648
1159.06724	0.50616
1157.13867	0.50564
1155.21011	0.50477
1153.28154	0.50360
1151.35298	0.50218
1149.42441	0.50049
1147.49585	0.49858
1145.56729	0.49656
1143.63872	0.49439
1141.71016	0.49194
1139.78159	0.48944
1137.85303	0.48719
1135.92446	0.48514
1133.99590	0.48321
1132.06733	0.48134
1130.13877	0.47954
1128.21021	0.47792
1126.28164	0.47650
1124.35308	0.47525
1122.42451	0.47426
1120.49595	0.47365
1118.56738	0.47322
1116.63882	0.47280
1114.71025	0.47272
1112.78169	0.47307
1110.85312	0.47351
1108.92456	0.47411
1106.99600	0.47508
1105.06743	0.47633
1103.13887	0.47793
1101.21030	0.47995
1099.28174	0.48223
1097.35317	0.48464
1095.42461	0.48750
1093.49604	0.49103
1091.56748	0.49503
1089.63892	0.49975
1087.71035	0.50526
1085.78179	0.51107
1083.85322	0.51698
1081.92466	0.52304
1079.99609	0.52872
1078.06753	0.53272
1076.13896	0.53403
1074.21040	0.53261
1072.28184	0.52889
1070.35327	0.52332
1068.42471	0.51684
1066.49614	0.51038
1064.56758	0.50412
1062.63901	0.49828
1060.71045	0.49329
1058.78188	0.48908
1056.85332	0.48525
1054.92476	0.48174
1052.99619	0.47881
1051.06763	0.47653
1049.13906	0.47461
1047.21050	0.47292
1045.28193	0.47141
1043.35337	0.47001
1041.42480	0.46901
1039.49624	0.46850
1037.56768	0.46807
1035.63911	0.46786
1033.71055	0.46814
1031.78198	0.46860
1029.85342	0.46879
1027.92485	0.46893
1025.99629	0.46945
1024.06772	0.47020
1022.13916	0.47092
1020.21060	0.47169
1018.28203	0.47264
1016.35347	0.47368
1014.42490	0.47481
1012.49634	0.47618
1010.56777	0.47765
1008.63921	0.47906
1006.71064	0.48071
1004.78208	0.48279
1002.85352	0.48514
1000.92495	0.48776
998.99639	0.49085
997.06782	0.49434
995.13926	0.49805
993.21069	0.50176
991.28213	0.50517
989.35356	0.50794
987.42500	0.50988
985.49644	0.51100
983.56787	0.51178
981.63931	0.51285
979.71074	0.51444
977.78218	0.51653
975.85361	0.51902
973.92505	0.52177
971.99648	0.52486
970.06792	0.52835
968.13936	0.53219
966.21079	0.53627
964.28223	0.54069
962.35366	0.54550
960.42510	0.55043
958.49653	0.55552
956.56797	0.56120
954.63940	0.56762
952.71084	0.57443
950.78228	0.58091
948.85371	0.58700
946.92515	0.59325
944.99658	0.59949
943.06802	0.60535
941.13945	0.61112
939.21089	0.61705
937.28232	0.62281
935.35376	0.62811
933.42520	0.63318
931.49663	0.63851
929.56807	0.64437
927.63950	0.65019
925.71094	0.65556
923.78237	0.66115
921.85381	0.66716
919.92524	0.67361
917.99668	0.68065
916.06812	0.68781
914.13955	0.69519
912.21099	0.70291
910.28242	0.71079
908.35386	0.71939
906.42529	0.72852
904.49673	0.73744
902.56816	0.74628
900.63960	0.75515
898.71104	0.76412
896.78247	0.77357
894.85391	0.78293
892.92534	0.79165
890.99678	0.80116
889.06821	0.81209
887.13965	0.82257
885.21108	0.83220
883.28252	0.84338
881.35396	0.85666
879.42539	0.86938
877.49683	0.88019
875.56826	0.89046
873.63970	0.90114
871.71113	0.91267
869.78257	0.92477
867.85400	0.93582
865.92544	0.94608
863.99687	0.95739
862.06831	0.96931
860.13975	0.98007
858.21118	0.99052
856.28262	1.00265
854.35405	1.01680
852.42549	1.03040
850.49692	1.04014
848.56836	1.04781
846.63979	1.05770
844.71123	1.07099
842.78267	1.08604
840.85410	1.09915
838.92554	1.10723
836.99697	1.11428
835.06841	1.12568
833.13984	1.13894
831.21128	1.15211
829.28271	1.16861
827.35415	1.18614
825.42559	1.19682
823.49702	1.20245
821.56846	1.20943
819.63989	1.21933
817.71133	1.23268
815.78276	1.24267
813.85420	1.24523
811.92563	1.25669
809.99707	1.28486
808.06851	1.31215
806.13994	1.32295
804.21138	1.31392
802.28281	1.30863
800.35425	1.33667
798.42568	1.37370
796.49712	1.38273
794.56855	1.39220
792.63999	1.41255
790.71143	1.42458
788.78286	1.46352
786.85430	1.53242
784.92573	1.53701
782.99717	1.49061
781.06860	1.45546
779.14004	1.40935
777.21147	1.38301
775.28291	1.37569
773.35435	1.38319
771.42578	1.43652
769.49722	1.45178
767.56865	1.42500
765.64009	1.43423
763.71152	1.41733
761.78296	1.32560
759.85439	1.27386
757.92583	1.29353
755.99727	1.27441
754.06870	1.18392
752.14014	1.13884
750.21157	1.18811
748.28301	1.20113
746.35444	1.10407
744.42588	1.07159
742.49731	1.11250
740.56875	1.04619
738.64019	0.93353
736.71162	0.91478
734.78306	0.98373
732.85449	1.01710
730.92593	0.85779
728.99736	0.65118
727.06880	0.52892
725.14023	0.47631
723.21167	0.44476
721.28311	0.37681
719.35454	0.30568
717.42598	0.37212
715.49741	0.49250
713.56885	0.17201
711.64028	0.03825
709.71172	0.03555
707.78315	0.05319
705.85459	0.10310
703.92603	0.17156
701.99746	0.18410
700.06890	0.16751
698.14033	0.15512
696.21177	0.17860
694.28320	0.27186
692.35464	0.44262
690.42607	0.47939
688.49751	0.33439
686.56895	0.20899
684.64038	0.18495
682.71182	0.25477
680.78325	0.37608
678.85469	0.42652
676.92612	0.36859
674.99756	0.39372
673.06899	0.47342
671.14043	0.41422
669.21187	0.30700
667.28330	0.25805
665.35474	0.21970
663.42617	0.15489
661.49761	0.13288
659.56904	0.20710
657.64048	0.27396
655.71191	0.28285
653.78335	0.31808
651.85479	0.29717
649.92622	0.21826
647.99766	0.19508
646.06909	0.19590
644.14053	0.11750
642.21196	0.04811
640.28340	0.09431
638.35483	0.24536
636.42627	0.39447
634.49771	0.40267
632.56914	0.33875
630.64058	0.27224
628.71201	0.24947
626.78345	0.26873
624.85488	0.28025
622.92632	0.26749
620.99775	0.21019
619.06919	0.14556
617.14062	0.16153
615.21206	0.21821
613.28350	0.22545
611.35493	0.21839
609.42637	0.26450
607.49780	0.40532
605.56924	0.51302
603.64067	0.39406
601.71211	0.31376
599.78354	0.31030
597.85498	0.29982
595.92642	0.25374
593.99785	0.18717
592.06929	0.18972
590.14072	0.29849
588.21216	0.43546
586.28359	0.44023
584.35503	0.30011
582.42646	0.19805
580.49790	0.16320
578.56934	0.18800
576.64077	0.23477
574.71221	0.22541
572.78364	0.16472
570.85508	0.11545
568.92651	0.11576
566.99795	0.15698
565.06938	0.21829
563.14082	0.27284
561.21226	0.33450
559.28369	0.40221
557.35513	0.36035
555.42656	0.27453
553.49800	0.31305
551.56943	0.45652
549.64087	0.57486
547.71230	0.50600
545.78374	0.30752
543.85518	0.15879
541.92661	0.13679
539.99805	0.17475
538.06948	0.20590
536.14092	0.21222
534.21235	0.19296
532.28379	0.18303
530.35522	0.18552
528.42666	0.17767
526.49810	0.19264
524.56953	0.22825
522.64097	0.24951
520.71240	0.25763
518.78384	0.24376
516.85527	0.20635
514.92671	0.21226
512.99814	0.27163
511.06958	0.26654
509.14102	0.21667
507.21245	0.22170
505.28389	0.23488
503.35532	0.21285
501.42676	0.22317
499.49819	0.25991
