3997.91411	0.06564
3995.98555	0.06616
3994.05698	0.06709
3992.12842	0.06768
3990.19985	0.06765
3988.27129	0.06760
3986.34272	0.06782
3984.41416	0.06818
3982.48560	0.06847
3980.55703	0.06839
3978.62847	0.06820
3976.69990	0.06834
3974.77134	0.06898
3972.84277	0.07007
3970.91421	0.07088
3968.98564	0.07087
3967.05708	0.07039
3965.12852	0.06989
3963.19995	0.06982
3961.27139	0.07026
3959.34282	0.07071
3957.41426	0.07080
3955.48569	0.07068
3953.55713	0.07046
3951.62856	0.07014
3949.70000	0.07026
3947.77144	0.07080
3945.84287	0.07084
3943.91431	0.07060
3941.98574	0.07081
3940.05718	0.07098
3938.12861	0.07072
3936.20005	0.07070
3934.27148	0.07112
3932.34292	0.07133
3930.41436	0.07125
3928.48579	0.07108
3926.55723	0.07059
3924.62866	0.07038
3922.70010	0.07076
3920.77153	0.07089
3918.84297	0.07062
3916.91440	0.07047
3914.98584	0.07049
3913.05728	0.07032
3911.12871	0.07016
3909.20015	0.07031
3907.27158	0.07042
3905.34302	0.07026
3903.41445	0.06995
3901.48589	0.06952
3899.55732	0.06938
3897.62876	0.06960
3895.70020	0.06990
3893.77163	0.07028
3891.84307	0.07062
3889.91450	0.07034
3887.98594	0.06936
3886.05737	0.06879
3884.12881	0.06923
3882.20024	0.07009
3880.27168	0.07091
3878.34312	0.07144
3876.41455	0.07146
3874.48599	0.07145
3872.55742	0.07146
3870.62886	0.07128
3868.70029	0.07129
3866.77173	0.07162
3864.84316	0.07241
3862.91460	0.07358
3860.98604	0.07406
3859.05747	0.07376
3857.12891	0.07324
3855.20034	0.07291
3853.27178	0.07375
3851.34321	0.07577
3849.41465	0.07645
3847.48608	0.07645
3845.55752	0.07651
3843.62896	0.07674
3841.70039	0.07716
3839.77183	0.07774
3837.84326	0.07883
3835.91470	0.07972
3833.98613	0.07997
3832.05757	0.08050
3830.12900	0.08131
3828.20044	0.08207
3826.27187	0.08296
3824.34331	0.08368
3822.41475	0.08416
3820.48618	0.08525
3818.55762	0.08647
3816.62905	0.08764
3814.70049	0.08937
3812.77192	0.09026
3810.84336	0.09015
3808.91479	0.09008
3806.98623	0.09068
3805.05767	0.09203
3803.12910	0.09339
3801.20054	0.09461
3799.27197	0.09586
3797.34341	0.09722
3795.41484	0.09901
3793.48628	0.10038
3791.55771	0.10108
3789.62915	0.10204
3787.70059	0.10332
3785.77202	0.10452
3783.84346	0.10581
3781.91489	0.10732
3779.98633	0.10898
3778.05776	0.11105
3776.12920	0.11292
3774.20063	0.11416
3772.27207	0.11537
3770.34351	0.11729
3768.41494	0.12002
3766.48638	0.12236
3764.55781	0.12403
3762.62925	0.12547
3760.70068	0.12714
3758.77212	0.12959
3756.84355	0.13221
3754.91499	0.13428
3752.98643	0.13633
3751.05786	0.13911
3749.12930	0.14300
3747.20073	0.14620
3745.27217	0.14919
3743.34360	0.15450
3741.41504	0.15997
3739.48647	0.16366
3737.55791	0.16739
3735.62935	0.17250
3733.70078	0.17960
3731.77222	0.18675
3729.84365	0.19216
3727.91509	0.19657
3725.98652	0.20188
3724.05796	0.20828
3722.12939	0.21457
3720.20083	0.22053
3718.27227	0.22600
3716.34370	0.23153
3714.41514	0.23792
3712.48657	0.24705
3710.55801	0.26196
3708.62944	0.27874
3706.70088	0.29139
3704.77231	0.30262
3702.84375	0.31579
3700.91519	0.33293
3698.98662	0.35183
3697.05806	0.36952
3695.12949	0.38776
3693.20093	0.40707
3691.27236	0.42767
3689.34380	0.45349
3687.41523	0.48681
3685.48667	0.51868
3683.55811	0.54631
3681.62954	0.57464
3679.70098	0.60588
3677.77241	0.63859
3675.84385	0.67721
3673.91528	0.72989
3671.98672	0.77310
3670.05815	0.81117
3668.12959	0.86530
3666.20103	0.91608
3664.27246	0.95780
3662.34390	1.00172
3660.41533	1.04949
3658.48677	1.09680
3656.55820	1.14659
3654.62964	1.20180
3652.70107	1.24773
3650.77251	1.28707
3648.84395	1.34236
3646.91538	1.41250
3644.98682	1.46498
3643.05825	1.50498
3641.12969	1.54533
3639.20112	1.59023
3637.27256	1.63647
3635.34399	1.68191
3633.41543	1.72661
3631.48687	1.76750
3629.55830	1.80839
3627.62974	1.86229
3625.70117	1.91334
3623.77261	1.94752
3621.84404	1.97956
3619.91548	2.01608
3617.98691	2.06093
3616.05835	2.10483
3614.12979	2.14162
3612.20122	2.18087
3610.27266	2.22045
3608.34409	2.26012
3606.41553	2.30392
3604.48696	2.34529
3602.55840	2.38062
3600.62983	2.41841
3598.70127	2.46077
3596.77271	2.50134
3594.84414	2.54111
3592.91558	2.58270
3590.98701	2.62205
3589.05845	2.65750
3587.12988	2.70008
3585.20132	2.74966
3583.27275	2.79167
3581.34419	2.82807
3579.41562	2.86640
3577.48706	2.90863
3575.55850	2.95218
3573.62993	2.99609
3571.70137	3.03865
3569.77280	3.07874
3567.84424	3.11979
3565.91567	3.17139
3563.98711	3.22340
3562.05854	3.26359
3560.12998	3.30250
3558.20142	3.34632
3556.27285	3.39302
3554.34429	3.43820
3552.41572	3.48339
3550.48716	3.52960
3548.55859	3.57403
3546.63003	3.61900
3544.70146	3.66911
3542.77290	3.71988
3540.84434	3.76741
3538.91577	3.81410
3536.98721	3.85987
3535.05864	3.90632
3533.13008	3.95302
3531.20151	3.99994
3529.27295	4.04896
3527.34438	4.09993
3525.41582	4.14692
3523.48726	4.19068
3521.55869	4.24086
3519.63013	4.29222
3517.70156	4.33781
3515.77300	4.38203
3513.84443	4.42866
3511.91587	4.47535
3509.98730	4.52011
3508.05874	4.56627
3506.13018	4.61654
3504.20161	4.66707
3502.27305	4.71335
3500.34448	4.75833
3498.41592	4.80831
3496.48735	4.86086
3494.55879	4.90894
3492.63022	4.95599
3490.70166	5.00623
3488.77310	5.05459
3486.84453	5.10261
3484.91597	5.15495
3482.98740	5.20505
3481.05884	5.25126
3479.13027	5.29940
3477.20171	5.34955
3475.27314	5.39736
3473.34458	5.44272
3471.41602	5.49123
3469.48745	5.54288
3467.55889	5.58991
3465.63032	5.63452
3463.70176	5.69214
3461.77319	5.75498
3459.84463	5.80118
3457.91606	5.83725
3455.98750	5.88486
3454.05894	5.94227
3452.13037	5.99679
3450.20181	6.04817
3448.27324	6.09301
3446.34468	6.12887
3444.41611	6.16338
3442.48755	6.21273
3440.55898	6.27626
3438.63042	6.33771
3436.70186	6.38068
3434.77329	6.41508
3432.84473	6.47634
3430.91616	6.54797
3428.98760	6.58064
3427.05903	6.59646
3425.13047	6.65293
3423.20190	6.72432
3421.27334	6.77888
3419.34478	6.83398
3417.41621	6.89329
3415.48765	6.95378
3413.55908	7.00565
3411.63052	7.04892
3409.70195	7.08342
3407.77339	7.11057
3405.84482	7.14718
3403.91626	7.21143
3401.98770	7.27574
3400.05913	7.33150
3398.13057	7.38331
3396.20200	7.39677
3394.27344	7.41517
3392.34487	7.46375
3390.41631	7.50811
3388.48774	7.54421
3386.55918	7.58098
3384.63062	7.61109
3382.70205	7.67231
3380.77349	7.75711
3378.84492	7.79875
3376.91636	7.80495
3374.98779	7.78808
3373.05923	7.81519
3371.13066	7.90201
3369.20210	7.95425
3367.27354	7.91929
3365.34497	7.85492
3363.41641	7.85471
3361.48784	7.92484
3359.55928	7.97414
3357.63071	7.95049
3355.70215	7.93214
3353.77358	7.94476
3351.84502	7.94310
3349.91646	7.88509
3347.98789	7.84912
3346.05933	7.91974
3344.13076	8.01933
3342.20220	8.06656
3340.27363	8.08213
3338.34507	8.11838
3336.41650	8.12835
3334.48794	8.09186
3332.55937	8.08094
3330.63081	8.10576
3328.70225	8.11873
3326.77368	8.08880
3324.84512	8.02239
3322.91655	7.97634
3320.98799	8.00695
3319.05942	8.08586
3317.13086	8.16705
3315.20229	8.20828
3313.27373	8.24053
3311.34517	8.29903
3309.41660	8.35097
3307.48804	8.34472
3305.55947	8.27991
3303.63091	8.26856
3301.70234	8.28634
3299.77378	8.29653
3297.84521	8.36325
3295.91665	8.41870
3293.98809	8.35496
3292.05952	8.26974
3290.13096	8.24666
3288.20239	8.18811
3286.27383	8.09632
3284.34526	8.11708
3282.41670	8.22088
3280.48813	8.26716
3278.55957	8.32644
3276.63101	8.40175
3274.70244	8.41616
3272.77388	8.38620
3270.84531	8.32123
3268.91675	8.33423
3266.98818	8.39890
3265.05962	8.34539
3263.13105	8.25056
3261.20249	8.22777
3259.27393	8.18522
3257.34536	8.17242
3255.41680	8.34082
3253.48823	8.53793
3251.55967	8.45001
3249.63110	8.21630
3247.70254	8.16194
3245.77397	8.28803
3243.84541	8.32804
3241.91685	8.19045
3239.98828	8.09261
3238.05972	8.08312
3236.13115	8.05010
3234.20259	8.03888
3232.27402	8.11386
3230.34546	8.18344
3228.41689	8.19320
3226.48833	8.18936
3224.55977	8.16861
3222.63120	8.16243
3220.70264	8.17923
3218.77407	8.14703
3216.84551	8.14802
3214.91694	8.18906
3212.98838	8.10348
3211.05981	7.94203
3209.13125	7.82739
3207.20269	7.76844
3205.27412	7.76270
3203.34556	7.82328
3201.41699	7.89883
3199.48843	7.90815
3197.55986	7.85449
3195.63130	7.75601
3193.70273	7.67362
3191.77417	7.64209
3189.84561	7.60896
3187.91704	7.54359
3185.98848	7.44073
3184.05991	7.32829
3182.13135	7.26290
3180.20278	7.24749
3178.27422	7.22929
3176.34565	7.17439
3174.41709	7.10832
3172.48853	7.06775
3170.55996	7.01762
3168.63140	6.92579
3166.70283	6.84030
3164.77427	6.78637
3162.84570	6.74489
3160.91714	6.70569
3158.98857	6.65264
3157.06001	6.56322
3155.13145	6.46711
3153.20288	6.38649
3151.27432	6.30868
3149.34575	6.24861
3147.41719	6.20032
3145.48862	6.13259
3143.56006	6.05157
3141.63149	5.96939
3139.70293	5.88587
3137.77437	5.81152
3135.84580	5.74888
3133.91724	5.68781
3131.98867	5.62256
3130.06011	5.55968
3128.13154	5.49573
3126.20298	5.41850
3124.27441	5.34162
3122.34585	5.27113
3120.41729	5.19880
3118.48872	5.12986
3116.56016	5.06423
3114.63159	4.99485
3112.70303	4.92253
3110.77446	4.85205
3108.84590	4.78406
3106.91733	4.71676
3104.98877	4.64863
3103.06021	4.57934
3101.13164	4.51023
3099.20308	4.44201
3097.27451	4.37525
3095.34595	4.31198
3093.41738	4.25161
3091.48882	4.19030
3089.56025	4.12680
3087.63169	4.06385
3085.70312	4.00364
3083.77456	3.94319
3081.84600	3.88088
3079.91743	3.81960
3077.98887	3.76006
3076.06030	3.70132
3074.13174	3.64337
3072.20317	3.58520
3070.27461	3.52638
3068.34604	3.46976
3066.41748	3.41670
3064.48892	3.36330
3062.56035	3.30806
3060.63179	3.25441
3058.70322	3.20204
3056.77466	3.14894
3054.84609	3.09713
3052.91753	3.04737
3050.98896	2.99699
3049.06040	2.94611
3047.13184	2.89715
3045.20327	2.84884
3043.27471	2.80019
3041.34614	2.75268
3039.41758	2.70599
3037.48901	2.65955
3035.56045	2.61439
3033.63188	2.57056
3031.70332	2.52650
3029.77476	2.48260
3027.84619	2.44028
3025.91763	2.39866
3023.98906	2.35699
3022.06050	2.31581
3020.13193	2.27556
3018.20337	2.23614
3016.27480	2.19679
3014.34624	2.15754
3012.41768	2.11936
3010.48911	2.08210
3008.56055	2.04520
3006.63198	2.00924
3004.70342	1.97474
3002.77485	1.94102
3000.84629	1.90765
2998.91772	1.87474
2996.98916	1.84210
2995.06060	1.80963
2993.13203	1.77784
2991.20347	1.74749
2989.27490	1.71840
2987.34634	1.68972
2985.41777	1.66119
2983.48921	1.63283
2981.56064	1.60491
2979.63208	1.57773
2977.70352	1.55118
2975.77495	1.52506
2973.84639	1.49922
2971.91782	1.47382
2969.98926	1.44887
2968.06069	1.42436
2966.13213	1.40057
2964.20356	1.37728
2962.27500	1.35419
2960.34644	1.33119
2958.41787	1.30788
2956.48931	1.28426
2954.56074	1.26111
2952.63218	1.23845
2950.70361	1.21566
2948.77505	1.19320
2946.84648	1.17169
2944.91792	1.15087
2942.98936	1.13019
2941.06079	1.10981
2939.13223	1.08991
2937.20366	1.07027
2935.27510	1.05088
2933.34653	1.03151
2931.41797	1.01230
2929.48940	0.99378
2927.56084	0.97573
2925.63228	0.95803
2923.70371	0.94066
2921.77515	0.92340
2919.84658	0.90663
2917.91802	0.89047
2915.98945	0.87445
2914.06089	0.85835
2912.13232	0.84230
2910.20376	0.82654
2908.27520	0.81140
2906.34663	0.79712
2904.41807	0.78348
2902.48950	0.77000
2900.56094	0.75649
2898.63237	0.74327
2896.70381	0.73054
2894.77524	0.71813
2892.84668	0.70582
2890.91812	0.69386
2888.98955	0.68262
2887.06099	0.67194
2885.13242	0.66147
2883.20386	0.65113
2881.27529	0.64101
2879.34673	0.63119
2877.41816	0.62159
2875.48960	0.61203
2873.56104	0.60230
2871.63247	0.59226
2869.70391	0.58205
2867.77534	0.57171
2865.84678	0.56083
2863.91821	0.54964
2861.98965	0.53893
2860.06108	0.52892
2858.13252	0.51938
2856.20396	0.51032
2854.27539	0.50175
2852.34683	0.49343
2850.41826	0.48526
2848.48970	0.47726
2846.56113	0.46934
2844.63257	0.46173
2842.70400	0.45486
2840.77544	0.44853
2838.84687	0.44232
2836.91831	0.43606
2834.98975	0.43002
2833.06118	0.42435
2831.13262	0.41866
2829.20405	0.41287
2827.27549	0.40704
2825.34692	0.40118
2823.41836	0.39548
2821.48979	0.38986
2819.56123	0.38412
2817.63267	0.37836
2815.70410	0.37271
2813.77554	0.36713
2811.84697	0.36177
2809.91841	0.35678
2807.98984	0.35192
2806.06128	0.34689
2804.13271	0.34182
2802.20415	0.33697
2800.27559	0.33224
2798.34702	0.32749
2796.41846	0.32280
2794.48989	0.31830
2792.56133	0.31401
2790.63276	0.30974
2788.70420	0.30548
2786.77563	0.30129
2784.84707	0.29711
2782.91851	0.29304
2780.98994	0.28912
2779.06138	0.28519
2777.13281	0.28130
2775.20425	0.27766
2773.27568	0.27411
2771.34712	0.27041
2769.41855	0.26670
2767.48999	0.26313
2765.56143	0.25969
2763.63286	0.25647
2761.70430	0.25349
2759.77573	0.25056
2757.84717	0.24756
2755.91860	0.24448
2753.99004	0.24138
2752.06147	0.23837
2750.13291	0.23552
2748.20435	0.23282
2746.27578	0.23017
2744.34722	0.22745
2742.41865	0.22465
2740.49009	0.22197
2738.56152	0.21949
2736.63296	0.21712
2734.70439	0.21480
2732.77583	0.21243
2730.84727	0.21007
2728.91870	0.20794
2726.99014	0.20602
2725.06157	0.20395
2723.13301	0.20168
2721.20444	0.19947
2719.27588	0.19740
2717.34731	0.19551
2715.41875	0.19385
2713.49019	0.19214
2711.56162	0.19035
2709.63306	0.18871
2707.70449	0.18722
2705.77593	0.18566
2703.84736	0.18402
2701.91880	0.18249
2699.99023	0.18108
2698.06167	0.17969
2696.13311	0.17835
2694.20454	0.17704
2692.27598	0.17567
2690.34741	0.17423
2688.41885	0.17288
2686.49028	0.17163
2684.56172	0.17034
2682.63315	0.16909
2680.70459	0.16804
2678.77603	0.16720
2676.84746	0.16638
2674.91890	0.16543
2672.99033	0.16444
2671.06177	0.16348
2669.13320	0.16241
2667.20464	0.16136
2665.27607	0.16043
2663.34751	0.15949
2661.41895	0.15861
2659.49038	0.15784
2657.56182	0.15706
2655.63325	0.15632
2653.70469	0.15567
2651.77612	0.15498
2649.84756	0.15431
2647.91899	0.15380
2645.99043	0.15333
2644.06187	0.15283
2642.13330	0.15228
2640.20474	0.15174
2638.27617	0.15130
2636.34761	0.15087
2634.41904	0.15044
2632.49048	0.14997
2630.56191	0.14944
2628.63335	0.14905
2626.70479	0.14878
2624.77622	0.14846
2622.84766	0.14815
2620.91909	0.14792
2618.99053	0.14777
2617.06196	0.14756
2615.13340	0.14728
2613.20483	0.14711
2611.27627	0.14707
2609.34771	0.14697
2607.41914	0.14680
2605.49058	0.14668
2603.56201	0.14671
2601.63345	0.14681
2599.70488	0.14679
2597.77632	0.14671
2595.84775	0.14675
2593.91919	0.14696
2591.99062	0.14717
2590.06206	0.14723
2588.13350	0.14716
2586.20493	0.14722
2584.27637	0.14754
2582.34780	0.14790
2580.41924	0.14811
2578.49067	0.14831
2576.56211	0.14856
2574.63354	0.14889
2572.70498	0.14933
2570.77642	0.14969
2568.84785	0.14994
2566.91929	0.15025
2564.99072	0.15058
2563.06216	0.15101
2561.13359	0.15163
2559.20503	0.15224
2557.27646	0.15269
2555.34790	0.15305
2553.41934	0.15350
2551.49077	0.15401
2549.56221	0.15455
2547.63364	0.15514
2545.70508	0.15576
2543.77651	0.15636
2541.84795	0.15696
2539.91938	0.15746
2537.99082	0.15790
2536.06226	0.15846
2534.13369	0.15902
2532.20513	0.15955
2530.27656	0.16028
2528.34800	0.16107
2526.41943	0.16171
2524.49087	0.16233
2522.56230	0.16313
2520.63374	0.16407
2518.70518	0.16488
2516.77661	0.16562
2514.84805	0.16647
2512.91948	0.16729
2510.99092	0.16801
2509.06235	0.16873
2507.13379	0.16945
2505.20522	0.17017
2503.27666	0.17103
2501.34810	0.17190
2499.41953	0.17270
2497.49097	0.17352
2495.56240	0.17435
2493.63384	0.17510
2491.70527	0.17581
2489.77671	0.17659
2487.84814	0.17751
2485.91958	0.17848
2483.99102	0.17939
2482.06245	0.18020
2480.13389	0.18096
2478.20532	0.18176
2476.27676	0.18257
2474.34819	0.18344
2472.41963	0.18431
2470.49106	0.18512
2468.56250	0.18607
2466.63394	0.18722
2464.70537	0.18819
2462.77681	0.18884
2460.84824	0.18958
2458.91968	0.19054
2456.99111	0.19151
2455.06255	0.19248
2453.13398	0.19356
2451.20542	0.19463
2449.27686	0.19559
2447.34829	0.19654
2445.41973	0.19758
2443.49116	0.19868
2441.56260	0.19973
2439.63403	0.20059
2437.70547	0.20136
2435.77690	0.20228
2433.84834	0.20331
2431.91978	0.20438
2429.99121	0.20550
2428.06265	0.20657
2426.13408	0.20764
2424.20552	0.20876
2422.27695	0.20994
2420.34839	0.21118
2418.41982	0.21228
2416.49126	0.21318
2414.56270	0.21422
2412.63413	0.21550
2410.70557	0.21673
2408.77700	0.21782
2406.84844	0.21892
2404.91987	0.22010
2402.99131	0.22128
2401.06274	0.22244
2399.13418	0.22353
2397.20562	0.22456
2395.27705	0.22574
2393.34849	0.22713
2391.41992	0.22859
2389.49136	0.23019
2387.56279	0.23233
2385.63423	0.23545
2383.70566	0.23992
2381.77710	0.24586
2379.84854	0.25320
2377.91997	0.26168
2375.99141	0.27100
2374.06284	0.28135
2372.13428	0.29311
2370.20571	0.30589
2368.27715	0.31904
2366.34858	0.33208
2364.42002	0.34407
2362.49146	0.35305
2360.56289	0.35695
2358.63433	0.35633
2356.70576	0.35274
2354.77720	0.34545
2352.84863	0.33485
2350.92007	0.32330
2348.99150	0.31579
2347.06294	0.31616
2345.13437	0.32501
2343.20581	0.33708
2341.27725	0.34376
2339.34868	0.34466
2337.42012	0.34380
2335.49155	0.34327
2333.56299	0.34299
2331.63442	0.34300
2329.70586	0.34264
2327.77729	0.34127
2325.84873	0.33912
2323.92017	0.33678
2321.99160	0.33434
2320.06304	0.33119
2318.13447	0.32732
2316.20591	0.32379
2314.27734	0.32156
2312.34878	0.32064
2310.42021	0.32021
2308.49165	0.31934
2306.56309	0.31783
2304.63452	0.31628
2302.70596	0.31544
2300.77739	0.31537
2298.84883	0.31566
2296.92026	0.31603
2294.99170	0.31638
2293.06313	0.31675
2291.13457	0.31716
2289.20601	0.31760
2287.27744	0.31807
2285.34888	0.31869
2283.42031	0.31975
2281.49175	0.32144
2279.56318	0.32365
2277.63462	0.32601
2275.70605	0.32834
2273.77749	0.33059
2271.84893	0.33253
2269.92036	0.33430
2267.99180	0.33629
2266.06323	0.33846
2264.13467	0.34054
2262.20610	0.34243
2260.27754	0.34421
2258.34897	0.34600
2256.42041	0.34781
2254.49185	0.34968
2252.56328	0.35163
2250.63472	0.35357
2248.70615	0.35556
2246.77759	0.35764
2244.84902	0.35960
2242.92046	0.36149
2240.99189	0.36350
2239.06333	0.36564
2237.13477	0.36785
2235.20620	0.37005
2233.27764	0.37206
2231.34907	0.37399
2229.42051	0.37613
2227.49194	0.37842
2225.56338	0.38063
2223.63481	0.38280
2221.70625	0.38496
2219.77769	0.38723
2217.84912	0.38960
2215.92056	0.39186
2213.99199	0.39387
2212.06343	0.39576
2210.13486	0.39769
2208.20630	0.39979
2206.27773	0.40200
2204.34917	0.40417
2202.42061	0.40626
2200.49204	0.40839
2198.56348	0.41046
2196.63491	0.41233
2194.70635	0.41420
2192.77778	0.41614
2190.84922	0.41794
2188.92065	0.41961
2186.99209	0.42138
2185.06353	0.42330
2183.13496	0.42519
2181.20640	0.42698
2179.27783	0.42870
2177.34927	0.43033
2175.42070	0.43189
2173.49214	0.43338
2171.56357	0.43470
2169.63501	0.43595
2167.70645	0.43733
2165.77788	0.43875
2163.84932	0.44008
2161.92075	0.44125
2159.99219	0.44232
2158.06362	0.44335
2156.13506	0.44432
2154.20649	0.44520
2152.27793	0.44606
2150.34937	0.44694
2148.42080	0.44776
2146.49224	0.44843
2144.56367	0.44887
2142.63511	0.44920
2140.70654	0.44954
2138.77798	0.44986
2136.84941	0.45013
2134.92085	0.45033
2132.99229	0.45040
2131.06372	0.45044
2129.13516	0.45042
2127.20659	0.45020
2125.27803	0.44995
2123.34946	0.44960
2121.42090	0.44903
2119.49233	0.44846
2117.56377	0.44799
2115.63521	0.44746
2113.70664	0.44685
2111.77808	0.44614
2109.84951	0.44521
2107.92095	0.44412
2105.99238	0.44310
2104.06382	0.44216
2102.13525	0.44108
2100.20669	0.43981
2098.27812	0.43846
2096.34956	0.43706
2094.42100	0.43565
2092.49243	0.43424
2090.56387	0.43273
2088.63530	0.43102
2086.70674	0.42923
2084.77817	0.42742
2082.84961	0.42556
2080.92104	0.42370
2078.99248	0.42197
2077.06392	0.42012
2075.13535	0.41800
2073.20679	0.41587
2071.27822	0.41384
2069.34966	0.41177
2067.42109	0.40961
2065.49253	0.40739
2063.56396	0.40499
2061.63540	0.40248
2059.70684	0.39997
2057.77827	0.39747
2055.84971	0.39502
2053.92114	0.39267
2051.99258	0.39035
2050.06401	0.38787
2048.13545	0.38524
2046.20688	0.38265
2044.27832	0.38012
2042.34976	0.37747
2040.42119	0.37471
2038.49263	0.37195
2036.56406	0.36936
2034.63550	0.36690
2032.70693	0.36430
2030.77837	0.36154
2028.84980	0.35876
2026.92124	0.35600
2024.99268	0.35324
2023.06411	0.35045
2021.13555	0.34770
2019.20698	0.34508
2017.27842	0.34249
2015.34985	0.33975
2013.42129	0.33699
2011.49272	0.33427
2009.56416	0.33155
2007.63560	0.32882
2005.70703	0.32613
2003.77847	0.32347
2001.84990	0.32085
1999.92134	0.31826
1997.99277	0.31571
1996.06421	0.31331
1994.13564	0.31098
1992.20708	0.30850
1990.27852	0.30592
1988.34995	0.30342
1986.42139	0.30092
1984.49282	0.29840
1982.56426	0.29593
1980.63569	0.29358
1978.70713	0.29140
1976.77856	0.28931
1974.85000	0.28715
1972.92144	0.28492
1970.99287	0.28276
1969.06431	0.28067
1967.13574	0.27855
1965.20718	0.27644
1963.27861	0.27454
1961.35005	0.27273
1959.42148	0.27086
1957.49292	0.26901
1955.56436	0.26723
1953.63579	0.26547
1951.70723	0.26371
1949.77866	0.26199
1947.85010	0.26035
1945.92153	0.25884
1943.99297	0.25739
1942.06440	0.25589
1940.13584	0.25438
1938.20728	0.25301
1936.27871	0.25171
1934.35015	0.25038
1932.42158	0.24903
1930.49302	0.24774
1928.56445	0.24656
1926.63589	0.24537
1924.70732	0.24425
1922.77876	0.24332
1920.85020	0.24248
1918.92163	0.24165
1916.99307	0.24074
1915.06450	0.23978
1913.13594	0.23887
1911.20737	0.23808
1909.27881	0.23736
1907.35024	0.23671
1905.42168	0.23607
1903.49312	0.23548
1901.56455	0.23495
1899.63599	0.23445
1897.70742	0.23396
1895.77886	0.23352
1893.85029	0.23313
1891.92173	0.23275
1889.99316	0.23253
1888.06460	0.23233
1886.13604	0.23201
1884.20747	0.23165
1882.27891	0.23140
1880.35034	0.23130
1878.42178	0.23120
1876.49321	0.23112
1874.56465	0.23113
1872.63608	0.23128
1870.70752	0.23141
1868.77896	0.23168
1866.85039	0.23199
1864.92183	0.23206
1862.99326	0.23205
1861.06470	0.23218
1859.13613	0.23254
1857.20757	0.23300
1855.27900	0.23351
1853.35044	0.23394
1851.42187	0.23437
1849.49331	0.23487
1847.56475	0.23551
1845.63618	0.23626
1843.70762	0.23721
1841.77905	0.23809
1839.85049	0.23858
1837.92192	0.23922
1835.99336	0.24013
1834.06479	0.24113
1832.13623	0.24199
1830.20767	0.24311
1828.27910	0.24455
1826.35054	0.24574
1824.42197	0.24703
1822.49341	0.24831
1820.56484	0.24953
1818.63628	0.25095
1816.70771	0.25263
1814.77915	0.25417
1812.85059	0.25572
1810.92202	0.25764
1808.99346	0.25979
1807.06489	0.26183
1805.13633	0.26369
1803.20776	0.26579
1801.27920	0.26819
1799.35063	0.27090
1797.42207	0.27340
1795.49351	0.27574
1793.56494	0.27831
1791.63638	0.28179
1789.70781	0.28545
1787.77925	0.28822
1785.85068	0.29122
1783.92212	0.29470
1781.99355	0.29852
1780.06499	0.30271
1778.13643	0.30704
1776.20786	0.31089
1774.27930	0.31480
1772.35073	0.32026
1770.42217	0.32673
1768.49360	0.33234
1766.56504	0.33763
1764.63647	0.34297
1762.70791	0.34872
1760.77935	0.35608
1758.85078	0.36315
1756.92222	0.37016
1754.99365	0.37779
1753.06509	0.38456
1751.13652	0.39236
1749.20796	0.40246
1747.27939	0.41292
1745.35083	0.42223
1743.42227	0.43188
1741.49370	0.44241
1739.56514	0.45490
1737.63657	0.46748
1735.70801	0.47816
1733.77944	0.49402
1731.85088	0.51373
1729.92231	0.52950
1727.99375	0.54517
1726.06519	0.56182
1724.13662	0.57993
1722.20806	0.59957
1720.27949	0.61765
1718.35093	0.63846
1716.42236	0.66958
1714.49380	0.70017
1712.56523	0.72529
1710.63667	0.74930
1708.70811	0.77471
1706.77954	0.80329
1704.85098	0.83763
1702.92241	0.86859
1700.99385	0.89893
1699.06528	0.94445
1697.13672	0.98738
1695.20815	1.03175
1693.27959	1.07457
1691.35103	1.10883
1689.42246	1.14827
1687.49390	1.18973
1685.56533	1.22910
1683.63677	1.29138
1681.70820	1.35873
1679.77964	1.40210
1677.85107	1.44230
1675.92251	1.48765
1673.99395	1.54423
1672.06538	1.59501
1670.13682	1.64444
1668.20825	1.71037
1666.27969	1.76593
1664.35112	1.81307
1662.42256	1.87158
1660.49399	1.93823
1658.56543	1.99022
1656.63687	2.03127
1654.70830	2.06836
1652.77974	2.12721
1650.85117	2.18396
1648.92261	2.20473
1646.99404	2.23185
1645.06548	2.26233
1643.13691	2.28137
1641.20835	2.29096
1639.27979	2.29921
1637.35122	2.30402
1635.42266	2.30319
1633.49409	2.29684
1631.56553	2.28406
1629.63696	2.26629
1627.70840	2.23636
1625.77983	2.20198
1623.85127	2.15937
1621.92271	2.10842
1619.99414	2.06469
1618.06558	2.02085
1616.13701	1.95569
1614.20845	1.89044
1612.27988	1.84187
1610.35132	1.79025
1608.42275	1.73357
1606.49419	1.67789
1604.56562	1.62679
1602.63706	1.57747
1600.70850	1.52941
1598.77993	1.48529
1596.85137	1.44395
1594.92280	1.40384
1592.99424	1.36495
1591.06567	1.32935
1589.13711	1.29646
1587.20854	1.26611
1585.27998	1.23807
1583.35142	1.21211
1581.42285	1.18864
1579.49429	1.16854
1577.56572	1.15029
1575.63716	1.12820
1573.70859	1.10933
1571.78003	1.09742
1569.85146	1.08510
1567.92290	1.07160
1565.99434	1.06164
1564.06577	1.05415
1562.13721	1.04851
1560.20864	1.04491
1558.28008	1.04193
1556.35151	1.04030
1554.42295	1.03926
1552.49438	1.03824
1550.56582	1.03602
1548.63726	1.03167
1546.70869	1.02551
1544.78013	1.01659
1542.85156	1.00415
1540.92300	0.98672
1538.99443	0.96185
1537.06587	0.94427
1535.13730	0.93183
1533.20874	0.91489
1531.28018	0.89687
1529.35161	0.88356
1527.42305	0.87053
1525.49448	0.85715
1523.56592	0.84623
1521.63735	0.83577
1519.70879	0.82473
1517.78022	0.81559
1515.85166	0.80559
1513.92310	0.79512
1511.99453	0.78575
1510.06597	0.77678
1508.13740	0.76742
1506.20884	0.75396
1504.28027	0.74369
1502.35171	0.73806
1500.42314	0.73265
1498.49458	0.72663
1496.56602	0.71979
1494.63745	0.71309
1492.70889	0.70785
1490.78032	0.70316
1488.85176	0.69768
1486.92319	0.69247
1484.99463	0.68841
1483.06606	0.68514
1481.13750	0.68223
1479.20894	0.67976
1477.28037	0.67813
1475.35181	0.67721
1473.42324	0.67651
1471.49468	0.67521
1469.56611	0.67339
1467.63755	0.67139
1465.70898	0.66943
1463.78042	0.66785
1461.85186	0.66677
1459.92329	0.66592
1457.99473	0.66531
1456.06616	0.66473
1454.13760	0.66308
1452.20903	0.66073
1450.28047	0.65824
1448.35190	0.65589
1446.42334	0.65345
1444.49478	0.65098
1442.56621	0.64867
1440.63765	0.64639
1438.70908	0.64399
1436.78052	0.64100
1434.85195	0.63782
1432.92339	0.63544
1430.99482	0.63369
1429.06626	0.63244
1427.13770	0.63186
1425.20913	0.63191
1423.28057	0.63236
1421.35200	0.63274
1419.42344	0.63294
1417.49487	0.63283
1415.56631	0.63208
1413.63774	0.63129
1411.70918	0.63088
1409.78062	0.63108
1407.85205	0.63170
1405.92349	0.63253
1403.99492	0.63337
1402.06636	0.63349
1400.13779	0.63272
1398.20923	0.63120
1396.28066	0.62907
1394.35210	0.62622
1392.42354	0.62285
1390.49497	0.61951
1388.56641	0.61588
1386.63784	0.61152
1384.70928	0.60715
1382.78071	0.60327
1380.85215	0.59965
1378.92358	0.59640
1376.99502	0.59376
1375.06646	0.59179
1373.13789	0.59043
1371.20933	0.58950
1369.28076	0.58859
1367.35220	0.58740
1365.42363	0.58590
1363.49507	0.58427
1361.56650	0.58282
1359.63794	0.58164
1357.70937	0.58058
1355.78081	0.57964
1353.85225	0.57886
1351.92368	0.57810
1349.99512	0.57737
1348.06655	0.57673
1346.13799	0.57596
1344.20942	0.57506
1342.28086	0.57425
1340.35229	0.57353
1338.42373	0.57283
1336.49517	0.57227
1334.56660	0.57186
1332.63804	0.57167
1330.70947	0.57179
1328.78091	0.57204
1326.85234	0.57225
1324.92378	0.57260
1322.99521	0.57322
1321.06665	0.57383
1319.13809	0.57421
1317.20952	0.57432
1315.28096	0.57425
1313.35239	0.57398
1311.42383	0.57344
1309.49526	0.57278
1307.56670	0.57221
1305.63813	0.57174
1303.70957	0.57113
1301.78101	0.57034
1299.85244	0.56950
1297.92388	0.56857
1295.99531	0.56744
1294.06675	0.56623
1292.13818	0.56506
1290.20962	0.56387
1288.28105	0.56286
1286.35249	0.56199
1284.42393	0.56103
1282.49536	0.55997
1280.56680	0.55896
1278.63823	0.55788
1276.70967	0.55670
1274.78110	0.55571
1272.85254	0.55505
1270.92397	0.55440
1268.99541	0.55363
1267.06685	0.55281
1265.13828	0.55196
1263.20972	0.55116
1261.28115	0.55046
1259.35259	0.54985
1257.42402	0.54939
1255.49546	0.54915
1253.56689	0.54909
1251.63833	0.54918
1249.70977	0.54933
1247.78120	0.54929
1245.85264	0.54908
1243.92407	0.54870
1241.99551	0.54807
1240.06694	0.54709
1238.13838	0.54560
1236.20981	0.54370
1234.28125	0.54183
1232.35269	0.54017
1230.42412	0.53855
1228.49556	0.53689
1226.56699	0.53528
1224.63843	0.53376
1222.70986	0.53240
1220.78130	0.53121
1218.85273	0.53007
1216.92417	0.52904
1214.99561	0.52810
1213.06704	0.52718
1211.13848	0.52639
1209.20991	0.52571
1207.28135	0.52501
1205.35278	0.52424
1203.42422	0.52345
1201.49565	0.52262
1199.56709	0.52177
1197.63853	0.52107
1195.70996	0.52063
1193.78140	0.52028
1191.85283	0.51986
1189.92427	0.51942
1187.99570	0.51910
1186.06714	0.51902
1184.13857	0.51919
1182.21001	0.51952
1180.28145	0.52010
1178.35288	0.52102
1176.42432	0.52215
1174.49575	0.52316
1172.56719	0.52377
1170.63862	0.52398
1168.71006	0.52398
1166.78149	0.52387
1164.85293	0.52368
1162.92437	0.52333
1160.99580	0.52275
1159.06724	0.52197
1157.13867	0.52104
1155.21011	0.51991
1153.28154	0.51858
1151.35298	0.51705
1149.42441	0.51515
1147.49585	0.51287
1145.56729	0.51047
1143.63872	0.50824
1141.71016	0.50627
1139.78159	0.50448
1137.85303	0.50283
1135.92446	0.50144
1133.99590	0.50050
1132.06733	0.49988
1130.13877	0.49930
1128.21021	0.49862
1126.28164	0.49769
1124.35308	0.49646
1122.42451	0.49536
1120.49595	0.49488
1118.56738	0.49491
1116.63882	0.49499
1114.71025	0.49483
1112.78169	0.49456
1110.85312	0.49448
1108.92456	0.49480
1106.99600	0.49560
1105.06743	0.49677
1103.13887	0.49822
1101.21030	0.49998
1099.28174	0.50211
1097.35317	0.50460
1095.42461	0.50751
1093.49604	0.51110
1091.56748	0.51546
1089.63892	0.52031
1087.71035	0.52571
1085.78179	0.53190
1083.85322	0.53863
1081.92466	0.54514
1079.99609	0.55031
1078.06753	0.55332
1076.13896	0.55391
1074.21040	0.55188
1072.28184	0.54733
1070.35327	0.54133
1068.42471	0.53486
1066.49614	0.52812
1064.56758	0.52153
1062.63901	0.51549
1060.71045	0.51016
1058.78188	0.50571
1056.85332	0.50196
1054.92476	0.49852
1052.99619	0.49528
1051.06763	0.49269
1049.13906	0.49090
1047.21050	0.48928
1045.28193	0.48762
1043.35337	0.48622
1041.42480	0.48514
1039.49624	0.48420
1037.56768	0.48333
1035.63911	0.48267
1033.71055	0.48217
1031.78198	0.48165
1029.85342	0.48111
1027.92485	0.48076
1025.99629	0.48056
1024.06772	0.48050
1022.13916	0.48074
1020.21060	0.48123
1018.28203	0.48194
1016.35347	0.48287
1014.42490	0.48376
1012.49634	0.48458
1010.56777	0.48574
1008.63921	0.48723
1006.71064	0.48872
1004.78208	0.49031
1002.85352	0.49235
1000.92495	0.49490
998.99639	0.49804
997.06782	0.50187
995.13926	0.50613
993.21069	0.51019
991.28213	0.51352
989.35356	0.51600
987.42500	0.51771
985.49644	0.51864
983.56787	0.51904
981.63931	0.51969
979.71074	0.52103
977.78218	0.52286
975.85361	0.52505
973.92505	0.52782
971.99648	0.53086
970.06792	0.53382
968.13936	0.53720
966.21079	0.54138
964.28223	0.54593
962.35366	0.55046
960.42510	0.55523
958.49653	0.56064
956.56797	0.56659
954.63940	0.57274
952.71084	0.57885
950.78228	0.58489
948.85371	0.59114
946.92515	0.59768
944.99658	0.60398
943.06802	0.60979
941.13945	0.61574
939.21089	0.62189
937.28232	0.62765
935.35376	0.63313
933.42520	0.63862
931.49663	0.64394
929.56807	0.64928
927.63950	0.65491
925.71094	0.66084
923.78237	0.66694
921.85381	0.67289
919.92524	0.67893
917.99668	0.68556
916.06812	0.69281
914.13955	0.70040
912.21099	0.70823
910.28242	0.71636
908.35386	0.72466
906.42529	0.73299
904.49673	0.74175
902.56816	0.75134
900.63960	0.76115
898.71104	0.77034
896.78247	0.77899
894.85391	0.78789
892.92534	0.79747
890.99678	0.80729
889.06821	0.81747
887.13965	0.82869
885.21108	0.84035
883.28252	0.85158
881.35396	0.86262
879.42539	0.87366
877.49683	0.88505
875.56826	0.89727
873.63970	0.90940
871.71113	0.92110
869.78257	0.93233
867.85400	0.94223
865.92544	0.95187
863.99687	0.96313
862.06831	0.97618
860.13975	0.98943
858.21118	1.00146
856.28262	1.01265
854.35405	1.02381
852.42549	1.03504
850.49692	1.04678
848.56836	1.05900
846.63979	1.07086
844.71123	1.08240
842.78267	1.09378
840.85410	1.10459
838.92554	1.11442
836.99697	1.12487
835.06841	1.13666
833.13984	1.14708
831.21128	1.15589
829.28271	1.16606
827.35415	1.17815
825.42559	1.19027
823.49702	1.20168
821.56846	1.21104
819.63989	1.21899
817.71133	1.22887
815.78276	1.24222
813.85420	1.25732
811.92563	1.27409
809.99707	1.29176
808.06851	1.30154
806.13994	1.31370
804.21138	1.33274
802.28281	1.33278
800.35425	1.32385
798.42568	1.32948
796.49712	1.34179
794.56855	1.35641
792.63999	1.38126
790.71143	1.42579
788.78286	1.48001
786.85430	1.50086
784.92573	1.46287
782.99717	1.42688
781.06860	1.45939
779.14004	1.50961
777.21147	1.54012
775.28291	1.58554
773.35435	1.54572
771.42578	1.50569
769.49722	1.59028
767.56865	1.68522
765.64009	1.62839
763.71152	1.68520
761.78296	2.22804
759.85439	4.55913
757.92583	1.87221
755.99727	1.74525
754.06870	2.23168
752.14014	4.51284
750.21157	2.03438
748.28301	1.41611
746.35444	1.21493
744.42588	1.02007
742.49731	0.85914
740.56875	0.85868
738.64019	1.06165
736.71162	1.19640
734.78306	1.03868
732.85449	0.96266
730.92593	0.84687
728.99736	0.75007
727.06880	0.65597
725.14023	0.36617
723.21167	0.06997
721.28311	-0.05012
719.35454	-0.02578
717.42598	0.26047
715.49741	0.57095
713.56885	0.36191
711.64028	0.21593
709.71172	0.13296
707.78315	0.19750
705.85459	0.41947
703.92603	0.56361
701.99746	0.49506
700.06890	0.47668
698.14033	0.55657
696.21177	0.60597
694.28320	0.56855
692.35464	0.53295
690.42607	0.49847
688.49751	0.44951
686.56895	0.47979
684.64038	0.57287
682.71182	0.55082
680.78325	0.43450
678.85469	0.34002
676.92612	0.29620
674.99756	0.30663
673.06899	0.34375
671.14043	0.36252
669.21187	0.35941
667.28330	0.39043
665.35474	0.41912
663.42617	0.37322
661.49761	0.37974
659.56904	0.49223
657.64048	0.62227
655.71191	0.73625
653.78335	0.68972
651.85479	0.55082
649.92622	0.48839
647.99766	0.51728
646.06909	0.58516
644.14053	0.51353
642.21196	0.41301
640.28340	0.38448
638.35483	0.40654
636.42627	0.45573
634.49771	0.46714
632.56914	0.44723
630.64058	0.43863
628.71201	0.42274
626.78345	0.46104
624.85488	0.58677
622.92632	0.63399
620.99775	0.54633
619.06919	0.46210
617.14062	0.36480
615.21206	0.30943
613.28350	0.33811
611.35493	0.40786
609.42637	0.48864
607.49780	0.55318
605.56924	0.45289
603.64067	0.37999
601.71211	0.42494
599.78354	0.56645
597.85498	0.54695
595.92642	0.39565
593.99785	0.32454
592.06929	0.31970
590.14072	0.34715
588.21216	0.35418
586.28359	0.36218
584.35503	0.41759
582.42646	0.43329
580.49790	0.37711
578.56934	0.35203
576.64077	0.37266
574.71221	0.43805
572.78364	0.60525
570.85508	0.90393
568.92651	0.85994
566.99795	0.69999
565.06938	0.68881
563.14082	0.83052
561.21226	0.72843
559.28369	0.41953
557.35513	0.28189
555.42656	0.25999
553.49800	0.27983
551.56943	0.29671
549.64087	0.31433
547.71230	0.32136
545.78374	0.27608
543.85518	0.25446
541.92661	0.28627
539.99805	0.32299
538.06948	0.35151
536.14092	0.47265
534.21235	0.63406
532.28379	0.54845
530.35522	0.44362
528.42666	0.38550
526.49810	0.29950
524.56953	0.24754
522.64097	0.27714
520.71240	0.30908
518.78384	0.30703
516.85527	0.33520
514.92671	0.38945
512.99814	0.43792
511.06958	0.45192
509.14102	0.39144
507.21245	0.32468
505.28389	0.34027
503.35532	0.46219
501.42676	0.51685
499.49819	0.38205
