3997.91411	0.07031
3995.98555	0.07110
3994.05698	0.07166
3992.12842	0.07169
3990.19985	0.07187
3988.27129	0.07229
3986.34272	0.07242
3984.41416	0.07236
3982.48560	0.07259
3980.55703	0.07303
3978.62847	0.07321
3976.69990	0.07340
3974.77134	0.07402
3972.84277	0.07467
3970.91421	0.07477
3968.98564	0.07453
3967.05708	0.07446
3965.12852	0.07478
3963.19995	0.07543
3961.27139	0.07592
3959.34282	0.07587
3957.41426	0.07553
3955.48569	0.07534
3953.55713	0.07562
3951.62856	0.07650
3949.70000	0.07759
3947.77144	0.07813
3945.84287	0.07796
3943.91431	0.07784
3941.98574	0.07774
3940.05718	0.07701
3938.12861	0.07630
3936.20005	0.07617
3934.27148	0.07631
3932.34292	0.07695
3930.41436	0.07793
3928.48579	0.07788
3926.55723	0.07732
3924.62866	0.07752
3922.70010	0.07759
3920.77153	0.07705
3918.84297	0.07716
3916.91440	0.07769
3914.98584	0.07708
3913.05728	0.07578
3911.12871	0.07509
3909.20015	0.07490
3907.27158	0.07537
3905.34302	0.07731
3903.41445	0.08018
3901.48589	0.08180
3899.55732	0.08127
3897.62876	0.07929
3895.70020	0.07719
3893.77163	0.07650
3891.84307	0.07772
3889.91450	0.07892
3887.98594	0.07865
3886.05737	0.07910
3884.12881	0.08040
3882.20024	0.08078
3880.27168	0.08091
3878.34312	0.08022
3876.41455	0.07865
3874.48599	0.07857
3872.55742	0.08046
3870.62886	0.08287
3868.70029	0.08384
3866.77173	0.08277
3864.84316	0.08243
3862.91460	0.08312
3860.98604	0.08246
3859.05747	0.08114
3857.12891	0.08132
3855.20034	0.08429
3853.27178	0.09027
3851.34321	0.09258
3849.41465	0.08805
3847.48608	0.08417
3845.55752	0.08312
3843.62896	0.08445
3841.70039	0.08701
3839.77183	0.09001
3837.84326	0.09266
3835.91470	0.09291
3833.98613	0.09147
3832.05757	0.09051
3830.12900	0.09026
3828.20044	0.09045
3826.27187	0.09102
3824.34331	0.09168
3822.41475	0.09317
3820.48618	0.09654
3818.55762	0.09854
3816.62905	0.09821
3814.70049	0.09776
3812.77192	0.09681
3810.84336	0.09612
3808.91479	0.09678
3806.98623	0.09904
3805.05767	0.10180
3803.12910	0.10429
3801.20054	0.10758
3799.27197	0.10919
3797.34341	0.10810
3795.41484	0.10720
3793.48628	0.10651
3791.55771	0.10622
3789.62915	0.10693
3787.70059	0.10832
3785.77202	0.11036
3783.84346	0.11257
3781.91489	0.11402
3779.98633	0.11551
3778.05776	0.11762
3776.12920	0.11869
3774.20063	0.11899
3772.27207	0.12054
3770.34351	0.12412
3768.41494	0.12800
3766.48638	0.13002
3764.55781	0.13144
3762.62925	0.13298
3760.70068	0.13505
3758.77212	0.13862
3756.84355	0.14219
3754.91499	0.14456
3752.98643	0.14786
3751.05786	0.15377
3749.12930	0.15949
3747.20073	0.16135
3745.27217	0.16286
3743.34360	0.16645
3741.41504	0.16940
3739.48647	0.17155
3737.55791	0.17568
3735.62935	0.18325
3733.70078	0.19173
3731.77222	0.19579
3729.84365	0.19711
3727.91509	0.19962
3725.98652	0.20505
3724.05796	0.21241
3722.12939	0.21937
3720.20083	0.22530
3718.27227	0.23066
3716.34370	0.23651
3714.41514	0.24353
3712.48657	0.25394
3710.55801	0.26990
3708.62944	0.28518
3706.70088	0.29531
3704.77231	0.30501
3702.84375	0.31792
3700.91519	0.33518
3698.98662	0.35350
3697.05806	0.37075
3695.12949	0.38959
3693.20093	0.41031
3691.27236	0.43342
3689.34380	0.46286
3687.41523	0.49712
3685.48667	0.52581
3683.55811	0.55053
3681.62954	0.57818
3679.70098	0.61069
3677.77241	0.64581
3675.84385	0.68743
3673.91528	0.74135
3671.98672	0.78391
3670.05815	0.82236
3668.12959	0.87523
3666.20103	0.92204
3664.27246	0.96120
3662.34390	1.00480
3660.41533	1.05281
3658.48677	1.10035
3656.55820	1.15089
3654.62964	1.20679
3652.70107	1.25374
3650.77251	1.29604
3648.84395	1.35563
3646.91538	1.42537
3644.98682	1.47280
3643.05825	1.50945
3641.12969	1.54971
3639.20112	1.59551
3637.27256	1.64125
3635.34399	1.68535
3633.41543	1.72936
3631.48687	1.77046
3629.55830	1.81279
3627.62974	1.86865
3625.70117	1.91917
3623.77261	1.95208
3621.84404	1.98446
3619.91548	2.02304
3617.98691	2.06993
3616.05835	2.11452
3614.12979	2.15148
3612.20122	2.19029
3610.27266	2.22949
3608.34409	2.26969
3606.41553	2.31308
3604.48696	2.35287
3602.55840	2.38838
3600.62983	2.42756
3598.70127	2.46979
3596.77271	2.51015
3594.84414	2.55102
3592.91558	2.59246
3590.98701	2.62986
3589.05845	2.66458
3587.12988	2.70847
3585.20132	2.75878
3583.27275	2.80086
3581.34419	2.83840
3579.41562	2.87807
3577.48706	2.91981
3575.55850	2.96158
3573.62993	3.00486
3571.70137	3.04782
3569.77280	3.08904
3567.84424	3.13319
3565.91567	3.18624
3563.98711	3.23689
3562.05854	3.27839
3560.12998	3.31893
3558.20142	3.36158
3556.27285	3.40576
3554.34429	3.44945
3552.41572	3.49474
3550.48716	3.54106
3548.55859	3.58591
3546.63003	3.63113
3544.70146	3.67796
3542.77290	3.72465
3540.84434	3.77155
3538.91577	3.81990
3536.98721	3.86902
3535.05864	3.91796
3533.13008	3.96348
3531.20151	4.00802
3529.27295	4.05515
3527.34438	4.10297
3525.41582	4.14777
3523.48726	4.19331
3521.55869	4.24551
3519.63013	4.29860
3517.70156	4.34696
3515.77300	4.39129
3513.84443	4.43506
3511.91587	4.48110
3509.98730	4.53093
3508.05874	4.58356
3506.13018	4.63355
3504.20161	4.67912
3502.27305	4.72567
3500.34448	4.77278
3498.41592	4.81593
3496.48735	4.85962
3494.55879	4.90815
3492.63022	4.96171
3490.70166	5.01590
3488.77310	5.06497
3486.84453	5.10878
3484.91597	5.15057
3482.98740	5.19473
3481.05884	5.24167
3479.13027	5.28811
3477.20171	5.33952
3475.27314	5.39806
3473.34458	5.45159
3471.41602	5.49237
3469.48745	5.52880
3467.55889	5.57464
3465.63032	5.62933
3463.70176	5.68558
3461.77319	5.74170
3459.84463	5.79392
3457.91606	5.83997
3455.98750	5.88937
3454.05894	5.94298
3452.13037	5.99127
3450.20181	6.03712
3448.27324	6.08471
3446.34468	6.13758
3444.41611	6.19081
3442.48755	6.22505
3440.55898	6.24451
3438.63042	6.29292
3436.70186	6.36919
3434.77329	6.42530
3432.84473	6.46207
3430.91616	6.50096
3428.98760	6.54522
3427.05903	6.59297
3425.13047	6.64982
3423.20190	6.71363
3421.27334	6.77208
3419.34478	6.82017
3417.41621	6.85969
3415.48765	6.89671
3413.55908	6.94325
3411.63052	7.00361
3409.70195	7.05424
3407.77339	7.08438
3405.84482	7.11213
3403.91626	7.16308
3401.98770	7.21453
3400.05913	7.24383
3398.13057	7.27411
3396.20200	7.31931
3394.27344	7.37321
3392.34487	7.40051
3390.41631	7.41058
3388.48774	7.42653
3386.55918	7.44867
3384.63062	7.49899
3382.70205	7.59965
3380.77349	7.68341
3378.84492	7.67631
3376.91636	7.65336
3374.98779	7.66248
3373.05923	7.67767
3371.13066	7.69010
3369.20210	7.70301
3367.27354	7.70556
3365.34497	7.72773
3363.41641	7.77602
3361.48784	7.79676
3359.55928	7.80551
3357.63071	7.83507
3355.70215	7.86255
3353.77358	7.87831
3351.84502	7.90668
3349.91646	7.89456
3347.98789	7.84511
3346.05933	7.85796
3344.13076	7.95003
3342.20220	8.02472
3340.27363	7.99929
3338.34507	7.91638
3336.41650	7.83284
3334.48794	7.81097
3332.55937	7.88447
3330.63081	8.00263
3328.70225	8.00929
3326.77368	7.92387
3324.84512	7.95578
3322.91655	8.10128
3320.98799	8.19404
3319.05942	8.15921
3317.13086	8.09501
3315.20229	8.06673
3313.27373	8.07873
3311.34517	8.14036
3309.41660	8.22403
3307.48804	8.25770
3305.55947	8.20322
3303.63091	8.10950
3301.70234	8.03924
3299.77378	8.04555
3297.84521	8.11392
3295.91665	8.19968
3293.98809	8.23768
3292.05952	8.22074
3290.13096	8.22352
3288.20239	8.24314
3286.27383	8.27930
3284.34526	8.33299
3282.41670	8.30325
3280.48813	8.19522
3278.55957	8.17621
3276.63101	8.22644
3274.70244	8.22646
3272.77388	8.18031
3270.84531	8.12476
3268.91675	8.09272
3266.98818	8.08621
3265.05962	8.09507
3263.13105	8.12013
3261.20249	8.17259
3259.27393	8.23093
3257.34536	8.24618
3255.41680	8.23814
3253.48823	8.28438
3251.55967	8.33141
3249.63110	8.28554
3247.70254	8.24225
3245.77397	8.28350
3243.84541	8.35626
3241.91685	8.35200
3239.98828	8.31463
3238.05972	8.30606
3236.13115	8.26973
3234.20259	8.20889
3232.27402	8.14809
3230.34546	8.06964
3228.41689	7.99359
3226.48833	7.94390
3224.55977	7.89216
3222.63120	7.88216
3220.70264	7.95623
3218.77407	8.02073
3216.84551	7.97528
3214.91694	7.86244
3212.98838	7.78902
3211.05981	7.77828
3209.13125	7.78235
3207.20269	7.76910
3205.27412	7.76110
3203.34556	7.77924
3201.41699	7.76309
3199.48843	7.67897
3197.55986	7.59778
3195.63130	7.53897
3193.70273	7.48623
3191.77417	7.45864
3189.84561	7.43350
3187.91704	7.38193
3185.98848	7.32528
3184.05991	7.28584
3182.13135	7.25883
3180.20278	7.22742
3178.27422	7.18454
3176.34565	7.11936
3174.41709	7.02534
3172.48853	6.94267
3170.55996	6.90386
3168.63140	6.87586
3166.70283	6.81208
3164.77427	6.72802
3162.84570	6.66460
3160.91714	6.60424
3158.98857	6.53182
3157.06001	6.47179
3155.13145	6.41123
3153.20288	6.33912
3151.27432	6.27496
3149.34575	6.21080
3147.41719	6.14447
3145.48862	6.08991
3143.56006	6.03406
3141.63149	5.96640
3139.70293	5.89183
3137.77437	5.81840
3135.84580	5.75496
3133.91724	5.68781
3131.98867	5.60273
3130.06011	5.51895
3128.13154	5.45161
3126.20298	5.39004
3124.27441	5.32160
3122.34585	5.24573
3120.41729	5.17269
3118.48872	5.11023
3116.56016	5.04933
3114.63159	4.97507
3112.70303	4.89691
3110.77446	4.82935
3108.84590	4.76327
3106.91733	4.69238
3104.98877	4.62406
3103.06021	4.56294
3101.13164	4.50576
3099.20308	4.44597
3097.27451	4.38084
3095.34595	4.31406
3093.41738	4.25048
3091.48882	4.18843
3089.56025	4.12375
3087.63169	4.05870
3085.70312	3.99662
3083.77456	3.93623
3081.84600	3.87732
3079.91743	3.81977
3077.98887	3.76201
3076.06030	3.70489
3074.13174	3.64971
3072.20317	3.59607
3070.27461	3.54203
3068.34604	3.48616
3066.41748	3.42902
3064.48892	3.37327
3062.56035	3.32101
3060.63179	3.27023
3058.70322	3.21750
3056.77466	3.16361
3054.84609	3.11139
3052.91753	3.06066
3050.98896	3.01048
3049.06040	2.96103
3047.13184	2.91211
3045.20327	2.86370
3043.27471	2.81659
3041.34614	2.77044
3039.41758	2.72384
3037.48901	2.67699
3035.56045	2.63117
3033.63188	2.58731
3031.70332	2.54438
3029.77476	2.50072
3027.84619	2.45740
3025.91763	2.41525
3023.98906	2.37339
3022.06050	2.33228
3020.13193	2.29263
3018.20337	2.25378
3016.27480	2.21486
3014.34624	2.17592
3012.41768	2.13761
3010.48911	2.09998
3008.56055	2.06307
3006.63198	2.02704
3004.70342	1.99192
3002.77485	1.95816
3000.84629	1.92537
2998.91772	1.89255
2996.98916	1.86022
2995.06060	1.82930
2993.13203	1.79953
2991.20347	1.77018
2989.27490	1.74110
2987.34634	1.71272
2985.41777	1.68513
2983.48921	1.65787
2981.56064	1.63095
2979.63208	1.60501
2977.70352	1.58002
2975.77495	1.55525
2973.84639	1.53062
2971.91782	1.50649
2969.98926	1.48302
2968.06069	1.46020
2966.13213	1.43765
2964.20356	1.41519
2962.27500	1.39276
2960.34644	1.36993
2958.41787	1.34682
2956.48931	1.32403
2954.56074	1.30105
2952.63218	1.27727
2950.70361	1.25355
2948.77505	1.23077
2946.84648	1.20897
2944.91792	1.18795
2942.98936	1.16745
2941.06079	1.14751
2939.13223	1.12830
2937.20366	1.10927
2935.27510	1.08974
2933.34653	1.06985
2931.41797	1.05025
2929.48940	1.03111
2927.56084	1.01227
2925.63228	0.99404
2923.70371	0.97642
2921.77515	0.95902
2919.84658	0.94196
2917.91802	0.92507
2915.98945	0.90832
2914.06089	0.89176
2912.13232	0.87537
2910.20376	0.85947
2908.27520	0.84391
2906.34663	0.82877
2904.41807	0.81441
2902.48950	0.80057
2900.56094	0.78680
2898.63237	0.77317
2896.70381	0.76004
2894.77524	0.74740
2892.84668	0.73497
2890.91812	0.72286
2888.98955	0.71144
2887.06099	0.70079
2885.13242	0.69058
2883.20386	0.68057
2881.27529	0.67083
2879.34673	0.66149
2877.41816	0.65236
2875.48960	0.64322
2873.56104	0.63385
2871.63247	0.62372
2869.70391	0.61264
2867.77534	0.60096
2865.84678	0.58904
2863.91821	0.57721
2861.98965	0.56585
2860.06108	0.55505
2858.13252	0.54465
2856.20396	0.53479
2854.27539	0.52573
2852.34683	0.51718
2850.41826	0.50887
2848.48970	0.50055
2846.56113	0.49213
2844.63257	0.48403
2842.70400	0.47652
2840.77544	0.46956
2838.84687	0.46318
2836.91831	0.45726
2834.98975	0.45143
2833.06118	0.44539
2831.13262	0.43925
2829.20405	0.43325
2827.27549	0.42729
2825.34692	0.42139
2823.41836	0.41572
2821.48979	0.41013
2819.56123	0.40438
2817.63267	0.39853
2815.70410	0.39279
2813.77554	0.38717
2811.84697	0.38172
2809.91841	0.37653
2807.98984	0.37123
2806.06128	0.36568
2804.13271	0.36022
2802.20415	0.35510
2800.27559	0.35015
2798.34702	0.34526
2796.41846	0.34054
2794.48989	0.33607
2792.56133	0.33170
2790.63276	0.32721
2788.70420	0.32265
2786.77563	0.31820
2784.84707	0.31385
2782.91851	0.30958
2780.98994	0.30558
2779.06138	0.30177
2777.13281	0.29790
2775.20425	0.29386
2773.27568	0.28984
2771.34712	0.28603
2769.41855	0.28247
2767.48999	0.27908
2765.56143	0.27571
2763.63286	0.27220
2761.70430	0.26861
2759.77573	0.26515
2757.84717	0.26199
2755.91860	0.25893
2753.99004	0.25577
2752.06147	0.25263
2750.13291	0.24967
2748.20435	0.24680
2746.27578	0.24398
2744.34722	0.24125
2742.41865	0.23850
2740.49009	0.23566
2738.56152	0.23294
2736.63296	0.23050
2734.70439	0.22809
2732.77583	0.22560
2730.84727	0.22317
2728.91870	0.22086
2726.99014	0.21866
2725.06157	0.21651
2723.13301	0.21428
2721.20444	0.21210
2719.27588	0.21007
2717.34731	0.20809
2715.41875	0.20609
2713.49019	0.20414
2711.56162	0.20236
2709.63306	0.20064
2707.70449	0.19887
2705.77593	0.19718
2703.84736	0.19559
2701.91880	0.19408
2699.99023	0.19252
2698.06167	0.19093
2696.13311	0.18948
2694.20454	0.18808
2692.27598	0.18670
2690.34741	0.18543
2688.41885	0.18422
2686.49028	0.18300
2684.56172	0.18172
2682.63315	0.18042
2680.70459	0.17912
2678.77603	0.17791
2676.84746	0.17689
2674.91890	0.17595
2672.99033	0.17486
2671.06177	0.17364
2669.13320	0.17250
2667.20464	0.17158
2665.27607	0.17073
2663.34751	0.16976
2661.41895	0.16886
2659.49038	0.16811
2657.56182	0.16725
2655.63325	0.16630
2653.70469	0.16549
2651.77612	0.16495
2649.84756	0.16440
2647.91899	0.16364
2645.99043	0.16298
2644.06187	0.16246
2642.13330	0.16182
2640.20474	0.16125
2638.27617	0.16077
2636.34761	0.16022
2634.41904	0.15972
2632.49048	0.15929
2630.56191	0.15880
2628.63335	0.15832
2626.70479	0.15790
2624.77622	0.15749
2622.84766	0.15712
2620.91909	0.15686
2618.99053	0.15663
2617.06196	0.15632
2615.13340	0.15596
2613.20483	0.15568
2611.27627	0.15550
2609.34771	0.15534
2607.41914	0.15519
2605.49058	0.15514
2603.56201	0.15515
2601.63345	0.15508
2599.70488	0.15497
2597.77632	0.15490
2595.84775	0.15491
2593.91919	0.15488
2591.99062	0.15473
2590.06206	0.15467
2588.13350	0.15488
2586.20493	0.15522
2584.27637	0.15545
2582.34780	0.15552
2580.41924	0.15552
2578.49067	0.15564
2576.56211	0.15598
2574.63354	0.15634
2572.70498	0.15657
2570.77642	0.15681
2568.84785	0.15719
2566.91929	0.15761
2564.99072	0.15785
2563.06216	0.15803
2561.13359	0.15826
2559.20503	0.15858
2557.27646	0.15902
2555.34790	0.15953
2553.41934	0.16013
2551.49077	0.16069
2549.56221	0.16109
2547.63364	0.16145
2545.70508	0.16184
2543.77651	0.16227
2541.84795	0.16281
2539.91938	0.16340
2537.99082	0.16397
2536.06226	0.16453
2534.13369	0.16514
2532.20513	0.16583
2530.27656	0.16644
2528.34800	0.16693
2526.41943	0.16754
2524.49087	0.16831
2522.56230	0.16906
2520.63374	0.16980
2518.70518	0.17054
2516.77661	0.17120
2514.84805	0.17175
2512.91948	0.17239
2510.99092	0.17312
2509.06235	0.17382
2507.13379	0.17455
2505.20522	0.17533
2503.27666	0.17611
2501.34810	0.17691
2499.41953	0.17772
2497.49097	0.17844
2495.56240	0.17913
2493.63384	0.17984
2491.70527	0.18062
2489.77671	0.18140
2487.84814	0.18214
2485.91958	0.18292
2483.99102	0.18379
2482.06245	0.18475
2480.13389	0.18568
2478.20532	0.18648
2476.27676	0.18727
2474.34819	0.18818
2472.41963	0.18910
2470.49106	0.18989
2468.56250	0.19060
2466.63394	0.19144
2464.70537	0.19238
2462.77681	0.19329
2460.84824	0.19417
2458.91968	0.19505
2456.99111	0.19594
2455.06255	0.19685
2453.13398	0.19784
2451.20542	0.19888
2449.27686	0.19978
2447.34829	0.20060
2445.41973	0.20150
2443.49116	0.20249
2441.56260	0.20350
2439.63403	0.20446
2437.70547	0.20537
2435.77690	0.20622
2433.84834	0.20709
2431.91978	0.20812
2429.99121	0.20926
2428.06265	0.21035
2426.13408	0.21137
2424.20552	0.21231
2422.27695	0.21332
2420.34839	0.21448
2418.41982	0.21556
2416.49126	0.21650
2414.56270	0.21749
2412.63413	0.21864
2410.70557	0.21984
2408.77700	0.22094
2406.84844	0.22195
2404.91987	0.22299
2402.99131	0.22401
2401.06274	0.22512
2399.13418	0.22642
2397.20562	0.22770
2395.27705	0.22893
2393.34849	0.23026
2391.41992	0.23162
2389.49136	0.23300
2387.56279	0.23460
2385.63423	0.23666
2383.70566	0.23942
2381.77710	0.24305
2379.84854	0.24760
2377.91997	0.25293
2375.99141	0.25883
2374.06284	0.26537
2372.13428	0.27251
2370.20571	0.27993
2368.27715	0.28770
2366.34858	0.29604
2364.42002	0.30410
2362.49146	0.31004
2360.56289	0.31289
2358.63433	0.31365
2356.70576	0.31257
2354.77720	0.30859
2352.84863	0.30268
2350.92007	0.29628
2348.99150	0.29198
2347.06294	0.29236
2345.13437	0.29840
2343.20581	0.30689
2341.27725	0.31196
2339.34868	0.31365
2337.42012	0.31443
2335.49155	0.31479
2333.56299	0.31463
2331.63442	0.31466
2329.70586	0.31518
2327.77729	0.31518
2325.84873	0.31414
2323.92017	0.31302
2321.99160	0.31213
2320.06304	0.31084
2318.13447	0.30933
2316.20591	0.30818
2314.27734	0.30786
2312.34878	0.30839
2310.42021	0.30896
2308.49165	0.30900
2306.56309	0.30884
2304.63452	0.30887
2302.70596	0.30937
2300.77739	0.31028
2298.84883	0.31125
2296.92026	0.31222
2294.99170	0.31333
2293.06313	0.31448
2291.13457	0.31548
2289.20601	0.31647
2287.27744	0.31753
2285.34888	0.31864
2283.42031	0.32009
2281.49175	0.32209
2279.56318	0.32434
2277.63462	0.32650
2275.70605	0.32855
2273.77749	0.33061
2271.84893	0.33280
2269.92036	0.33496
2267.99180	0.33693
2266.06323	0.33879
2264.13467	0.34071
2262.20610	0.34269
2260.27754	0.34466
2258.34897	0.34653
2256.42041	0.34833
2254.49185	0.35016
2252.56328	0.35208
2250.63472	0.35414
2248.70615	0.35634
2246.77759	0.35848
2244.84902	0.36043
2242.92046	0.36238
2240.99189	0.36451
2239.06333	0.36673
2237.13477	0.36894
2235.20620	0.37109
2233.27764	0.37316
2231.34907	0.37532
2229.42051	0.37771
2227.49194	0.38005
2225.56338	0.38217
2223.63481	0.38430
2221.70625	0.38651
2219.77769	0.38867
2217.84912	0.39073
2215.92056	0.39276
2213.99199	0.39480
2212.06343	0.39694
2210.13486	0.39914
2208.20630	0.40122
2206.27773	0.40323
2204.34917	0.40532
2202.42061	0.40743
2200.49204	0.40945
2198.56348	0.41142
2196.63491	0.41337
2194.70635	0.41533
2192.77778	0.41727
2190.84922	0.41910
2188.92065	0.42087
2186.99209	0.42262
2185.06353	0.42437
2183.13496	0.42612
2181.20640	0.42787
2179.27783	0.42959
2177.34927	0.43126
2175.42070	0.43282
2173.49214	0.43424
2171.56357	0.43556
2169.63501	0.43686
2167.70645	0.43827
2165.77788	0.43966
2163.84932	0.44083
2161.92075	0.44190
2159.99219	0.44300
2158.06362	0.44404
2156.13506	0.44498
2154.20649	0.44588
2152.27793	0.44683
2150.34937	0.44778
2148.42080	0.44853
2146.49224	0.44908
2144.56367	0.44957
2142.63511	0.45003
2140.70654	0.45037
2138.77798	0.45066
2136.84941	0.45096
2134.92085	0.45111
2132.99229	0.45106
2131.06372	0.45107
2129.13516	0.45109
2127.20659	0.45095
2125.27803	0.45074
2123.34946	0.45048
2121.42090	0.45009
2119.49233	0.44953
2117.56377	0.44884
2115.63521	0.44817
2113.70664	0.44764
2111.77808	0.44705
2109.84951	0.44616
2107.92095	0.44507
2105.99238	0.44401
2104.06382	0.44299
2102.13525	0.44181
2100.20669	0.44042
2098.27812	0.43898
2096.34956	0.43764
2094.42100	0.43637
2092.49243	0.43503
2090.56387	0.43353
2088.63530	0.43186
2086.70674	0.43016
2084.77817	0.42841
2082.84961	0.42663
2080.92104	0.42488
2078.99248	0.42312
2077.06392	0.42112
2075.13535	0.41884
2073.20679	0.41650
2071.27822	0.41429
2069.34966	0.41222
2067.42109	0.41016
2065.49253	0.40800
2063.56396	0.40563
2061.63540	0.40318
2059.70684	0.40082
2057.77827	0.39853
2055.84971	0.39622
2053.92114	0.39387
2051.99258	0.39138
2050.06401	0.38877
2048.13545	0.38615
2046.20688	0.38359
2044.27832	0.38109
2042.34976	0.37859
2040.42119	0.37603
2038.49263	0.37326
2036.56406	0.37039
2034.63550	0.36767
2032.70693	0.36504
2030.77837	0.36237
2028.84980	0.35971
2026.92124	0.35710
2024.99268	0.35437
2023.06411	0.35155
2021.13555	0.34885
2019.20698	0.34636
2017.27842	0.34386
2015.34985	0.34108
2013.42129	0.33817
2011.49272	0.33538
2009.56416	0.33276
2007.63560	0.33012
2005.70703	0.32743
2003.77847	0.32479
2001.84990	0.32216
1999.92134	0.31948
1997.99277	0.31684
1996.06421	0.31446
1994.13564	0.31238
1992.20708	0.31028
1990.27852	0.30772
1988.34995	0.30490
1986.42139	0.30216
1984.49282	0.29963
1982.56426	0.29733
1980.63569	0.29507
1978.70713	0.29277
1976.77856	0.29049
1974.85000	0.28826
1972.92144	0.28610
1970.99287	0.28413
1969.06431	0.28236
1967.13574	0.28054
1965.20718	0.27844
1963.27861	0.27621
1961.35005	0.27413
1959.42148	0.27220
1957.49292	0.27040
1955.56436	0.26869
1953.63579	0.26691
1951.70723	0.26508
1949.77866	0.26342
1947.85010	0.26195
1945.92153	0.26065
1943.99297	0.25950
1942.06440	0.25812
1940.13584	0.25623
1938.20728	0.25438
1936.27871	0.25286
1934.35015	0.25151
1932.42158	0.25027
1930.49302	0.24911
1928.56445	0.24801
1926.63589	0.24696
1924.70732	0.24617
1922.77876	0.24549
1920.85020	0.24454
1918.92163	0.24352
1916.99307	0.24252
1915.06450	0.24135
1913.13594	0.24036
1911.20737	0.23983
1909.27881	0.23941
1907.35024	0.23867
1905.42168	0.23773
1903.49312	0.23695
1901.56455	0.23636
1899.63599	0.23578
1897.70742	0.23528
1895.77886	0.23499
1893.85029	0.23480
1891.92173	0.23462
1889.99316	0.23457
1888.06460	0.23418
1886.13604	0.23347
1884.20747	0.23300
1882.27891	0.23279
1880.35034	0.23263
1878.42178	0.23251
1876.49321	0.23248
1874.56465	0.23252
1872.63608	0.23280
1870.70752	0.23357
1868.77896	0.23478
1866.85039	0.23508
1864.92183	0.23429
1862.99326	0.23374
1861.06470	0.23379
1859.13613	0.23414
1857.20757	0.23446
1855.27900	0.23480
1853.35044	0.23514
1851.42187	0.23556
1849.49331	0.23624
1847.56475	0.23736
1845.63618	0.23880
1843.70762	0.24003
1841.77905	0.24033
1839.85049	0.24025
1837.92192	0.24082
1835.99336	0.24170
1834.06479	0.24258
1832.13623	0.24383
1830.20767	0.24588
1828.27910	0.24769
1826.35054	0.24853
1824.42197	0.24946
1822.49341	0.25037
1820.56484	0.25128
1818.63628	0.25254
1816.70771	0.25415
1814.77915	0.25572
1812.85059	0.25754
1810.92202	0.25978
1808.99346	0.26184
1807.06489	0.26353
1805.13633	0.26527
1803.20776	0.26753
1801.27920	0.27032
1799.35063	0.27333
1797.42207	0.27579
1795.49351	0.27816
1793.56494	0.28125
1791.63638	0.28506
1789.70781	0.28797
1787.77925	0.28987
1785.85068	0.29266
1783.92212	0.29634
1781.99355	0.30041
1780.06499	0.30469
1778.13643	0.30888
1776.20786	0.31289
1774.27930	0.31767
1772.35073	0.32416
1770.42217	0.33037
1768.49360	0.33492
1766.56504	0.33935
1764.63647	0.34432
1762.70791	0.35026
1760.77935	0.35774
1758.85078	0.36451
1756.92222	0.37141
1754.99365	0.37903
1753.06509	0.38612
1751.13652	0.39499
1749.20796	0.40605
1747.27939	0.41618
1745.35083	0.42470
1743.42227	0.43392
1741.49370	0.44439
1739.56514	0.45666
1737.63657	0.46878
1735.70801	0.47973
1733.77944	0.49651
1731.85088	0.51570
1729.92231	0.53014
1727.99375	0.54491
1726.06519	0.56127
1724.13662	0.57958
1722.20806	0.59960
1720.27949	0.61848
1718.35093	0.64097
1716.42236	0.67327
1714.49380	0.70271
1712.56523	0.72619
1710.63667	0.74943
1708.70811	0.77512
1706.77954	0.80491
1704.85098	0.84061
1702.92241	0.87239
1700.99385	0.90418
1699.06528	0.95154
1697.13672	0.99472
1695.20815	1.03891
1693.27959	1.08226
1691.35103	1.11799
1689.42246	1.16015
1687.49390	1.20510
1685.56533	1.24875
1683.63677	1.31573
1681.70820	1.38459
1679.77964	1.42841
1677.85107	1.47055
1675.92251	1.51983
1673.99395	1.58137
1672.06538	1.63664
1670.13682	1.69147
1668.20825	1.76323
1666.27969	1.82237
1664.35112	1.87335
1662.42256	1.93883
1660.49399	2.01366
1658.56543	2.07177
1656.63687	2.11866
1654.70830	2.16174
1652.77974	2.22578
1650.85117	2.28388
1648.92261	2.30247
1646.99404	2.32568
1645.06548	2.35164
1643.13691	2.36826
1641.20835	2.37685
1639.27979	2.38552
1637.35122	2.39102
1635.42266	2.38934
1633.49409	2.37844
1631.56553	2.36146
1629.63696	2.34263
1627.70840	2.31230
1625.77983	2.27570
1623.85127	2.22986
1621.92271	2.17391
1619.99414	2.12374
1618.06558	2.07578
1616.13701	2.00789
1614.20845	1.93783
1612.27988	1.88402
1610.35132	1.82860
1608.42275	1.76957
1606.49419	1.71221
1604.56562	1.65989
1602.63706	1.60958
1600.70850	1.56049
1598.77993	1.51539
1596.85137	1.47317
1594.92280	1.43207
1592.99424	1.39226
1591.06567	1.35633
1589.13711	1.32350
1587.20854	1.29352
1585.27998	1.26629
1583.35142	1.24126
1581.42285	1.21898
1579.49429	1.20084
1577.56572	1.18585
1575.63716	1.16797
1573.70859	1.15126
1571.78003	1.14068
1569.85146	1.13162
1567.92290	1.12228
1565.99434	1.11561
1564.06577	1.11200
1562.13721	1.11065
1560.20864	1.11272
1558.28008	1.12144
1556.35151	1.12854
1554.42295	1.13205
1552.49438	1.13634
1550.56582	1.13921
1548.63726	1.13857
1546.70869	1.13417
1544.78013	1.12670
1542.85156	1.11630
1540.92300	1.09853
1538.99443	1.06576
1537.06587	1.03991
1535.13730	1.02275
1533.20874	1.00028
1531.28018	0.97592
1529.35161	0.95856
1527.42305	0.94283
1525.49448	0.92659
1523.56592	0.91314
1521.63735	0.90090
1519.70879	0.88783
1517.78022	0.87602
1515.85166	0.86214
1513.92310	0.84726
1511.99453	0.83449
1510.06597	0.82373
1508.13740	0.81400
1506.20884	0.79758
1504.28027	0.78132
1502.35171	0.77203
1500.42314	0.76471
1498.49458	0.75736
1496.56602	0.74857
1494.63745	0.73951
1492.70889	0.73273
1490.78032	0.72730
1488.85176	0.72100
1486.92319	0.71438
1484.99463	0.70883
1483.06606	0.70464
1481.13750	0.70159
1479.20894	0.69952
1477.28037	0.69891
1475.35181	0.69975
1473.42324	0.70109
1471.49468	0.70073
1469.56611	0.69829
1467.63755	0.69595
1465.70898	0.69460
1463.78042	0.69370
1461.85186	0.69321
1459.92329	0.69379
1457.99473	0.69551
1456.06616	0.69598
1454.13760	0.69329
1452.20903	0.69013
1450.28047	0.68717
1448.35190	0.68440
1446.42334	0.68163
1444.49478	0.67895
1442.56621	0.67633
1440.63765	0.67347
1438.70908	0.67048
1436.78052	0.66682
1434.85195	0.66246
1432.92339	0.65908
1430.99482	0.65701
1429.06626	0.65576
1427.13770	0.65533
1425.20913	0.65600
1423.28057	0.65746
1421.35200	0.65882
1419.42344	0.66005
1417.49487	0.66045
1415.56631	0.65927
1413.63774	0.65816
1411.70918	0.65821
1409.78062	0.65951
1407.85205	0.66166
1405.92349	0.66442
1403.99492	0.66698
1402.06636	0.66816
1400.13779	0.66823
1398.20923	0.66724
1396.28066	0.66469
1394.35210	0.66044
1392.42354	0.65524
1390.49497	0.65036
1388.56641	0.64572
1386.63784	0.64027
1384.70928	0.63410
1382.78071	0.62826
1380.85215	0.62299
1378.92358	0.61855
1376.99502	0.61525
1375.06646	0.61300
1373.13789	0.61120
1371.20933	0.60981
1369.28076	0.60888
1367.35220	0.60773
1365.42363	0.60610
1363.49507	0.60446
1361.56650	0.60288
1359.63794	0.60129
1357.70937	0.59983
1355.78081	0.59852
1353.85225	0.59745
1351.92368	0.59663
1349.99512	0.59596
1348.06655	0.59530
1346.13799	0.59452
1344.20942	0.59371
1342.28086	0.59310
1340.35229	0.59285
1338.42373	0.59246
1336.49517	0.59163
1334.56660	0.59099
1332.63804	0.59097
1330.70947	0.59135
1328.78091	0.59191
1326.85234	0.59273
1324.92378	0.59388
1322.99521	0.59514
1321.06665	0.59626
1319.13809	0.59719
1317.20952	0.59778
1315.28096	0.59797
1313.35239	0.59791
1311.42383	0.59757
1309.49526	0.59700
1307.56670	0.59651
1305.63813	0.59623
1303.70957	0.59591
1301.78101	0.59534
1299.85244	0.59451
1297.92388	0.59350
1295.99531	0.59227
1294.06675	0.59092
1292.13818	0.58966
1290.20962	0.58842
1288.28105	0.58698
1286.35249	0.58544
1284.42393	0.58397
1282.49536	0.58260
1280.56680	0.58134
1278.63823	0.58006
1276.70967	0.57869
1274.78110	0.57735
1272.85254	0.57622
1270.92397	0.57534
1268.99541	0.57458
1267.06685	0.57371
1265.13828	0.57268
1263.20972	0.57180
1261.28115	0.57108
1259.35259	0.57027
1257.42402	0.56949
1255.49546	0.56911
1253.56689	0.56918
1251.63833	0.56943
1249.70977	0.56963
1247.78120	0.56968
1245.85264	0.56951
1243.92407	0.56899
1241.99551	0.56799
1240.06694	0.56637
1238.13838	0.56428
1236.20981	0.56195
1234.28125	0.55953
1232.35269	0.55714
1230.42412	0.55484
1228.49556	0.55259
1226.56699	0.55041
1224.63843	0.54836
1222.70986	0.54643
1220.78130	0.54473
1218.85273	0.54325
1216.92417	0.54187
1214.99561	0.54058
1213.06704	0.53955
1211.13848	0.53880
1209.20991	0.53804
1207.28135	0.53720
1205.35278	0.53640
1203.42422	0.53564
1201.49565	0.53473
1199.56709	0.53371
1197.63853	0.53279
1195.70996	0.53206
1193.78140	0.53147
1191.85283	0.53092
1189.92427	0.53048
1187.99570	0.53020
1186.06714	0.53011
1184.13857	0.53035
1182.21001	0.53096
1180.28145	0.53192
1178.35288	0.53330
1176.42432	0.53503
1174.49575	0.53656
1172.56719	0.53745
1170.63862	0.53768
1168.71006	0.53740
1166.78149	0.53684
1164.85293	0.53641
1162.92437	0.53609
1160.99580	0.53557
1159.06724	0.53488
1157.13867	0.53412
1155.21011	0.53321
1153.28154	0.53207
1151.35298	0.53055
1149.42441	0.52852
1147.49585	0.52605
1145.56729	0.52333
1143.63872	0.52061
1141.71016	0.51826
1139.78159	0.51642
1137.85303	0.51501
1135.92446	0.51402
1133.99590	0.51348
1132.06733	0.51339
1130.13877	0.51326
1128.21021	0.51268
1126.28164	0.51186
1124.35308	0.51113
1122.42451	0.51072
1120.49595	0.51056
1118.56738	0.51039
1116.63882	0.51040
1114.71025	0.51078
1112.78169	0.51128
1110.85312	0.51183
1108.92456	0.51264
1106.99600	0.51363
1105.06743	0.51461
1103.13887	0.51568
1101.21030	0.51710
1099.28174	0.51897
1097.35317	0.52124
1095.42461	0.52404
1093.49604	0.52753
1091.56748	0.53189
1089.63892	0.53728
1087.71035	0.54346
1085.78179	0.55007
1083.85322	0.55693
1081.92466	0.56342
1079.99609	0.56852
1078.06753	0.57140
1076.13896	0.57161
1074.21040	0.56907
1072.28184	0.56413
1070.35327	0.55766
1068.42471	0.55070
1066.49614	0.54385
1064.56758	0.53751
1062.63901	0.53199
1060.71045	0.52714
1058.78188	0.52270
1056.85332	0.51865
1054.92476	0.51506
1052.99619	0.51201
1051.06763	0.50942
1049.13906	0.50719
1047.21050	0.50551
1045.28193	0.50420
1043.35337	0.50285
1041.42480	0.50158
1039.49624	0.50055
1037.56768	0.49975
1035.63911	0.49929
1033.71055	0.49887
1031.78198	0.49831
1029.85342	0.49782
1027.92485	0.49732
1025.99629	0.49670
1024.06772	0.49622
1022.13916	0.49610
1020.21060	0.49626
1018.28203	0.49661
1016.35347	0.49703
1014.42490	0.49711
1012.49634	0.49698
1010.56777	0.49718
1008.63921	0.49768
1006.71064	0.49839
1004.78208	0.49962
1002.85352	0.50157
1000.92495	0.50414
998.99639	0.50728
997.06782	0.51103
995.13926	0.51517
993.21069	0.51917
991.28213	0.52259
989.35356	0.52515
987.42500	0.52663
985.49644	0.52709
983.56787	0.52715
981.63931	0.52756
979.71074	0.52863
977.78218	0.53010
975.85361	0.53181
973.92505	0.53391
971.99648	0.53669
970.06792	0.54009
968.13936	0.54372
966.21079	0.54744
964.28223	0.55158
962.35366	0.55628
960.42510	0.56136
958.49653	0.56665
956.56797	0.57212
954.63940	0.57772
952.71084	0.58357
950.78228	0.58994
948.85371	0.59661
946.92515	0.60287
944.99658	0.60865
943.06802	0.61456
941.13945	0.62077
939.21089	0.62698
937.28232	0.63304
935.35376	0.63879
933.42520	0.64418
931.49663	0.64963
929.56807	0.65542
927.63950	0.66113
925.71094	0.66682
923.78237	0.67318
921.85381	0.67967
919.92524	0.68575
917.99668	0.69209
916.06812	0.69912
914.13955	0.70674
912.21099	0.71431
910.28242	0.72165
908.35386	0.72969
906.42529	0.73851
904.49673	0.74775
902.56816	0.75720
900.63960	0.76637
898.71104	0.77541
896.78247	0.78512
894.85391	0.79592
892.92534	0.80721
890.99678	0.81741
889.06821	0.82590
887.13965	0.83370
885.21108	0.84251
883.28252	0.85358
881.35396	0.86630
879.42539	0.87882
877.49683	0.89042
875.56826	0.90283
873.63970	0.91583
871.71113	0.92646
869.78257	0.93539
867.85400	0.94639
865.92544	0.95947
863.99687	0.97151
862.06831	0.98263
860.13975	0.99438
858.21118	1.00568
856.28262	1.01546
854.35405	1.02619
852.42549	1.03957
850.49692	1.05216
848.56836	1.06256
846.63979	1.07411
844.71123	1.08685
842.78267	1.09822
840.85410	1.10898
838.92554	1.12024
836.99697	1.13187
835.06841	1.14560
833.13984	1.16187
831.21128	1.17521
829.28271	1.18338
827.35415	1.19353
825.42559	1.20545
823.49702	1.21158
821.56846	1.21658
819.63989	1.22969
817.71133	1.24790
815.78276	1.26419
813.85420	1.27571
811.92563	1.28106
809.99707	1.28367
808.06851	1.29787
806.13994	1.33640
804.21138	1.37903
802.28281	1.38779
800.35425	1.36855
798.42568	1.36282
796.49712	1.38209
794.56855	1.40707
792.63999	1.42982
790.71143	1.44080
788.78286	1.43717
786.85430	1.46635
784.92573	1.56513
782.99717	1.66388
781.06860	1.69914
779.14004	1.71586
777.21147	1.65267
775.28291	1.55847
773.35435	1.54714
771.42578	1.64415
769.49722	1.74542
767.56865	1.77169
765.64009	1.92837
763.71152	4.58227
761.78296	4.57070
759.85439	2.34755
757.92583	1.90772
755.99727	2.13053
754.06870	1.80729
752.14014	1.46800
750.21157	1.50290
748.28301	4.48970
746.35444	4.47813
744.42588	4.46656
742.49731	4.45498
740.56875	4.44341
738.64019	4.43184
736.71162	1.26801
734.78306	0.98675
732.85449	1.06585
730.92593	1.52714
728.99736	1.39714
727.06880	0.84661
725.14023	0.62146
723.21167	0.48212
721.28311	0.31387
719.35454	0.11863
717.42598	-0.02490
715.49741	-0.01786
713.56885	0.22728
711.64028	0.58337
709.71172	0.61281
707.78315	0.38479
705.85459	0.20697
703.92603	0.20243
701.99746	0.25747
700.06890	0.27971
698.14033	0.30182
696.21177	0.40331
694.28320	0.59540
692.35464	0.97542
690.42607	1.02621
688.49751	0.44843
686.56895	0.26671
684.64038	0.28725
682.71182	0.42587
680.78325	0.44832
678.85469	0.37509
676.92612	0.43670
674.99756	0.65843
673.06899	0.67240
671.14043	0.46560
669.21187	0.42193
667.28330	0.53414
665.35474	0.58927
663.42617	0.50713
661.49761	0.44680
659.56904	0.33550
657.64048	0.19655
655.71191	0.15920
653.78335	0.27666
651.85479	0.61143
649.92622	0.68434
647.99766	0.56979
646.06909	0.54936
644.14053	0.38350
642.21196	0.24249
640.28340	0.25010
638.35483	0.30148
636.42627	0.32183
634.49771	0.39212
632.56914	0.39027
630.64058	0.26190
628.71201	0.24215
626.78345	0.28594
624.85488	0.27097
622.92632	0.23727
620.99775	0.24801
619.06919	0.27470
617.14062	0.22073
615.21206	0.13463
613.28350	0.15712
611.35493	0.21331
609.42637	0.19069
607.49780	0.17011
605.56924	0.31304
603.64067	0.51476
601.71211	0.46545
599.78354	0.35634
597.85498	0.31379
595.92642	0.31550
593.99785	0.30804
592.06929	0.28683
590.14072	0.28888
588.21216	0.33746
586.28359	0.44979
584.35503	0.51077
582.42646	0.32169
580.49790	0.18711
578.56934	0.16391
576.64077	0.21372
574.71221	0.25973
572.78364	0.27889
570.85508	0.34493
568.92651	0.44595
566.99795	0.33386
565.06938	0.25304
563.14082	0.28802
561.21226	0.38643
559.28369	0.36757
557.35513	0.30306
555.42656	0.31184
553.49800	0.35478
551.56943	0.38142
549.64087	0.38259
547.71230	0.30211
545.78374	0.23496
543.85518	0.21094
541.92661	0.14492
539.99805	0.07614
538.06948	0.08765
536.14092	0.19019
534.21235	0.31655
532.28379	0.34504
530.35522	0.32296
528.42666	0.28809
526.49810	0.23929
524.56953	0.22251
522.64097	0.25839
520.71240	0.28561
518.78384	0.22942
516.85527	0.18151
514.92671	0.16817
512.99814	0.12815
511.06958	0.07886
509.14102	0.09561
507.21245	0.18046
505.28389	0.23955
503.35532	0.25497
501.42676	0.27317
499.49819	0.29414
