3997.91411	0.06769
3995.98555	0.06793
3994.05698	0.06801
3992.12842	0.06840
3990.19985	0.06915
3988.27129	0.06974
3986.34272	0.06980
3984.41416	0.06977
3982.48560	0.07008
3980.55703	0.07055
3978.62847	0.07098
3976.69990	0.07139
3974.77134	0.07179
3972.84277	0.07200
3970.91421	0.07182
3968.98564	0.07142
3967.05708	0.07130
3965.12852	0.07161
3963.19995	0.07205
3961.27139	0.07227
3959.34282	0.07221
3957.41426	0.07219
3955.48569	0.07232
3953.55713	0.07237
3951.62856	0.07264
3949.70000	0.07331
3947.77144	0.07393
3945.84287	0.07423
3943.91431	0.07426
3941.98574	0.07397
3940.05718	0.07332
3938.12861	0.07275
3936.20005	0.07238
3934.27148	0.07234
3932.34292	0.07295
3930.41436	0.07366
3928.48579	0.07367
3926.55723	0.07324
3924.62866	0.07320
3922.70010	0.07372
3920.77153	0.07404
3918.84297	0.07375
3916.91440	0.07314
3914.98584	0.07242
3913.05728	0.07192
3911.12871	0.07186
3909.20015	0.07190
3907.27158	0.07213
3905.34302	0.07303
3903.41445	0.07423
3901.48589	0.07477
3899.55732	0.07442
3897.62876	0.07350
3895.70020	0.07256
3893.77163	0.07224
3891.84307	0.07263
3889.91450	0.07287
3887.98594	0.07268
3886.05737	0.07323
3884.12881	0.07435
3882.20024	0.07490
3880.27168	0.07513
3878.34312	0.07490
3876.41455	0.07444
3874.48599	0.07456
3872.55742	0.07513
3870.62886	0.07581
3868.70029	0.07624
3866.77173	0.07616
3864.84316	0.07633
3862.91460	0.07659
3860.98604	0.07635
3859.05747	0.07602
3857.12891	0.07627
3855.20034	0.07731
3853.27178	0.07916
3851.34321	0.08043
3849.41465	0.07950
3847.48608	0.07843
3845.55752	0.07818
3843.62896	0.07882
3841.70039	0.08030
3839.77183	0.08198
3837.84326	0.08350
3835.91470	0.08446
3833.98613	0.08449
3832.05757	0.08447
3830.12900	0.08493
3828.20044	0.08553
3826.27187	0.08620
3824.34331	0.08685
3822.41475	0.08771
3820.48618	0.08951
3818.55762	0.09102
3816.62905	0.09163
3814.70049	0.09215
3812.77192	0.09220
3810.84336	0.09211
3808.91479	0.09261
3806.98623	0.09405
3805.05767	0.09572
3803.12910	0.09701
3801.20054	0.09907
3799.27197	0.10136
3797.34341	0.10231
3795.41484	0.10281
3793.48628	0.10300
3791.55771	0.10331
3789.62915	0.10434
3787.70059	0.10582
3785.77202	0.10779
3783.84346	0.10991
3781.91489	0.11128
3779.98633	0.11266
3778.05776	0.11475
3776.12920	0.11617
3774.20063	0.11678
3772.27207	0.11770
3770.34351	0.11973
3768.41494	0.12262
3766.48638	0.12498
3764.55781	0.12679
3762.62925	0.12853
3760.70068	0.13065
3758.77212	0.13338
3756.84355	0.13585
3754.91499	0.13799
3752.98643	0.14104
3751.05786	0.14565
3749.12930	0.15010
3747.20073	0.15229
3745.27217	0.15466
3743.34360	0.15908
3741.41504	0.16293
3739.48647	0.16525
3737.55791	0.16819
3735.62935	0.17326
3733.70078	0.17989
3731.77222	0.18526
3729.84365	0.18929
3727.91509	0.19309
3725.98652	0.19820
3724.05796	0.20496
3722.12939	0.21178
3720.20083	0.21857
3718.27227	0.22575
3716.34370	0.23299
3714.41514	0.24015
3712.48657	0.24927
3710.55801	0.26343
3708.62944	0.27888
3706.70088	0.29055
3704.77231	0.30145
3702.84375	0.31478
3700.91519	0.33193
3698.98662	0.35039
3697.05806	0.36795
3695.12949	0.38660
3693.20093	0.40665
3691.27236	0.42884
3689.34380	0.45736
3687.41523	0.49176
3685.48667	0.52193
3683.55811	0.54832
3681.62954	0.57692
3679.70098	0.60936
3677.77241	0.64370
3675.84385	0.68382
3673.91528	0.73695
3671.98672	0.78036
3670.05815	0.81937
3668.12959	0.87397
3666.20103	0.92371
3664.27246	0.96429
3662.34390	1.00796
3660.41533	1.05604
3658.48677	1.10363
3656.55820	1.15349
3654.62964	1.20855
3652.70107	1.25488
3650.77251	1.29546
3648.84395	1.35241
3646.91538	1.42335
3644.98682	1.47477
3643.05825	1.51344
3641.12969	1.55383
3639.20112	1.59914
3637.27256	1.64432
3635.34399	1.68820
3633.41543	1.73261
3631.48687	1.77392
3629.55830	1.81495
3627.62974	1.86931
3625.70117	1.92119
3623.77261	1.95590
3621.84404	1.98896
3619.91548	2.02748
3617.98691	2.07367
3616.05835	2.11684
3614.12979	2.15236
3612.20122	2.19102
3610.27266	2.23164
3608.34409	2.27334
3606.41553	2.31720
3604.48696	2.35658
3602.55840	2.39129
3600.62983	2.42961
3598.70127	2.47153
3596.77271	2.51141
3594.84414	2.55108
3592.91558	2.59259
3590.98701	2.63182
3589.05845	2.66735
3587.12988	2.71009
3585.20132	2.75971
3583.27275	2.80163
3581.34419	2.83860
3579.41562	2.87854
3577.48706	2.92137
3575.55850	2.96383
3573.62993	3.00708
3571.70137	3.04942
3569.77280	3.08941
3567.84424	3.13244
3565.91567	3.18690
3563.98711	3.23961
3562.05854	3.28133
3560.12998	3.32331
3558.20142	3.36811
3556.27285	3.41137
3554.34429	3.45229
3552.41572	3.49612
3550.48716	3.54242
3548.55859	3.58882
3546.63003	3.63705
3544.70146	3.68606
3542.77290	3.73226
3540.84434	3.77766
3538.91577	3.82541
3536.98721	3.87462
3535.05864	3.92421
3533.13008	3.97192
3531.20151	4.01871
3529.27295	4.06547
3527.34438	4.11198
3525.41582	4.15670
3523.48726	4.20283
3521.55869	4.25490
3519.63013	4.30541
3517.70156	4.35296
3515.77300	4.40138
3513.84443	4.44906
3511.91587	4.49671
3509.98730	4.54784
3508.05874	4.59928
3506.13018	4.64378
3504.20161	4.68397
3502.27305	4.73072
3500.34448	4.78561
3498.41592	4.83737
3496.48735	4.88136
3494.55879	4.92278
3492.63022	4.96744
3490.70166	5.01431
3488.77310	5.06226
3486.84453	5.11046
3484.91597	5.15675
3482.98740	5.20432
3481.05884	5.24836
3479.13027	5.28636
3477.20171	5.33484
3475.27314	5.39650
3473.34458	5.45816
3471.41602	5.51157
3469.48745	5.55606
3467.55889	5.59734
3465.63032	5.64242
3463.70176	5.69878
3461.77319	5.75729
3459.84463	5.80359
3457.91606	5.84272
3455.98750	5.88801
3454.05894	5.94675
3452.13037	6.01038
3450.20181	6.05863
3448.27324	6.09218
3446.34468	6.13866
3444.41611	6.19637
3442.48755	6.24732
3440.55898	6.29734
3438.63042	6.35031
3436.70186	6.39739
3434.77329	6.44093
3432.84473	6.48604
3430.91616	6.53268
3428.98760	6.59438
3427.05903	6.66161
3425.13047	6.71730
3423.20190	6.76973
3421.27334	6.82935
3419.34478	6.88389
3417.41621	6.92395
3415.48765	6.95006
3413.55908	6.96011
3411.63052	6.97039
3409.70195	6.99168
3407.77339	7.04166
3405.84482	7.12246
3403.91626	7.20460
3401.98770	7.26144
3400.05913	7.30988
3398.13057	7.36512
3396.20200	7.40893
3394.27344	7.44082
3392.34487	7.45091
3390.41631	7.44414
3388.48774	7.43581
3386.55918	7.45731
3384.63062	7.51162
3382.70205	7.56382
3380.77349	7.59084
3378.84492	7.57811
3376.91636	7.59208
3374.98779	7.69275
3373.05923	7.79846
3371.13066	7.82740
3369.20210	7.84068
3367.27354	7.83611
3365.34497	7.80045
3363.41641	7.76599
3361.48784	7.74735
3359.55928	7.78528
3357.63071	7.85092
3355.70215	7.87885
3353.77358	7.87504
3351.84502	7.89075
3349.91646	7.92731
3347.98789	8.00612
3346.05933	8.09751
3344.13076	8.10339
3342.20220	8.07372
3340.27363	8.05224
3338.34507	8.01840
3336.41650	7.98267
3334.48794	7.96684
3332.55937	7.95506
3330.63081	7.94572
3328.70225	7.95335
3326.77368	8.00921
3324.84512	8.10923
3322.91655	8.17156
3320.98799	8.19267
3319.05942	8.20149
3317.13086	8.15956
3315.20229	8.05052
3313.27373	8.00575
3311.34517	8.05299
3309.41660	8.06801
3307.48804	8.06154
3305.55947	8.11623
3303.63091	8.22839
3301.70234	8.28812
3299.77378	8.22352
3297.84521	8.12218
3295.91665	8.09106
3293.98809	8.12166
3292.05952	8.16321
3290.13096	8.18094
3288.20239	8.21571
3286.27383	8.29431
3284.34526	8.29477
3282.41670	8.20542
3280.48813	8.12419
3278.55957	8.13397
3276.63101	8.22534
3274.70244	8.27393
3272.77388	8.21932
3270.84531	8.15831
3268.91675	8.14318
3266.98818	8.10199
3265.05962	8.09558
3263.13105	8.21423
3261.20249	8.42387
3259.27393	8.51118
3257.34536	8.31881
3255.41680	8.13906
3253.48823	8.13655
3251.55967	8.19490
3249.63110	8.25487
3247.70254	8.29243
3245.77397	8.25068
3243.84541	8.24863
3241.91685	8.29147
3239.98828	8.27142
3238.05972	8.26479
3236.13115	8.26845
3234.20259	8.20387
3232.27402	8.12532
3230.34546	8.10286
3228.41689	8.11907
3226.48833	8.09939
3224.55977	8.01178
3222.63120	7.92329
3220.70264	7.91856
3218.77407	8.01137
3216.84551	8.06592
3214.91694	7.96867
3212.98838	7.88014
3211.05981	7.87243
3209.13125	7.82042
3207.20269	7.71812
3205.27412	7.65084
3203.34556	7.65168
3201.41699	7.71006
3199.48843	7.76736
3197.55986	7.73347
3195.63130	7.62474
3193.70273	7.54093
3191.77417	7.45921
3189.84561	7.37277
3187.91704	7.33304
3185.98848	7.30983
3184.05991	7.27033
3182.13135	7.22177
3180.20278	7.17749
3178.27422	7.13287
3176.34565	7.07473
3174.41709	7.02584
3172.48853	6.99678
3170.55996	6.94952
3168.63140	6.87037
3166.70283	6.77646
3164.77427	6.68158
3162.84570	6.60266
3160.91714	6.54514
3158.98857	6.51286
3157.06001	6.48866
3155.13145	6.43794
3153.20288	6.36316
3151.27432	6.28879
3149.34575	6.22073
3147.41719	6.15695
3145.48862	6.08546
3143.56006	5.99203
3141.63149	5.90528
3139.70293	5.84283
3137.77437	5.78861
3135.84580	5.73638
3133.91724	5.67510
3131.98867	5.60168
3130.06011	5.53054
3128.13154	5.45985
3126.20298	5.38115
3124.27441	5.30184
3122.34585	5.22978
3120.41729	5.16015
3118.48872	5.08901
3116.56016	5.01951
3114.63159	4.95158
3112.70303	4.88528
3110.77446	4.82098
3108.84590	4.75534
3106.91733	4.68830
3104.98877	4.62120
3103.06021	4.55493
3101.13164	4.48980
3099.20308	4.42518
3097.27451	4.36107
3095.34595	4.29753
3093.41738	4.23536
3091.48882	4.17405
3089.56025	4.11133
3087.63169	4.04770
3085.70312	3.98640
3083.77456	3.92687
3081.84600	3.86743
3079.91743	3.80914
3077.98887	3.75188
3076.06030	3.69503
3074.13174	3.63860
3072.20317	3.58209
3070.27461	3.52495
3068.34604	3.46784
3066.41748	3.41199
3064.48892	3.35778
3062.56035	3.30467
3060.63179	3.25168
3058.70322	3.19913
3056.77466	3.14814
3054.84609	3.09843
3052.91753	3.04861
3050.98896	2.99775
3049.06040	2.94692
3047.13184	2.89789
3045.20327	2.85007
3043.27471	2.80249
3041.34614	2.75607
3039.41758	2.71132
3037.48901	2.66659
3035.56045	2.62076
3033.63188	2.57557
3031.70332	2.53177
3029.77476	2.48850
3027.84619	2.44637
3025.91763	2.40502
3023.98906	2.36328
3022.06050	2.32192
3020.13193	2.28143
3018.20337	2.24179
3016.27480	2.20299
3014.34624	2.16442
3012.41768	2.12633
3010.48911	2.08933
3008.56055	2.05326
3006.63198	2.01756
3004.70342	1.98238
3002.77485	1.94811
3000.84629	1.91440
2998.91772	1.88142
2996.98916	1.84969
2995.06060	1.81866
2993.13203	1.78789
2991.20347	1.75775
2989.27490	1.72858
2987.34634	1.70030
2985.41777	1.67277
2983.48921	1.64563
2981.56064	1.61861
2979.63208	1.59213
2977.70352	1.56654
2975.77495	1.54167
2973.84639	1.51708
2971.91782	1.49254
2969.98926	1.46828
2968.06069	1.44478
2966.13213	1.42223
2964.20356	1.40025
2962.27500	1.37791
2960.34644	1.35449
2958.41787	1.33072
2956.48931	1.30751
2954.56074	1.28444
2952.63218	1.26119
2950.70361	1.23822
2948.77505	1.21593
2946.84648	1.19405
2944.91792	1.17238
2942.98936	1.15123
2941.06079	1.13079
2939.13223	1.11129
2937.20366	1.09260
2935.27510	1.07374
2933.34653	1.05439
2931.41797	1.03529
2929.48940	1.01643
2927.56084	0.99742
2925.63228	0.97880
2923.70371	0.96118
2921.77515	0.94401
2919.84658	0.92673
2917.91802	0.90986
2915.98945	0.89338
2914.06089	0.87669
2912.13232	0.86044
2910.20376	0.84503
2908.27520	0.82989
2906.34663	0.81511
2904.41807	0.80076
2902.48950	0.78658
2900.56094	0.77280
2898.63237	0.75944
2896.70381	0.74647
2894.77524	0.73387
2892.84668	0.72153
2890.91812	0.70963
2888.98955	0.69834
2887.06099	0.68764
2885.13242	0.67752
2883.20386	0.66781
2881.27529	0.65830
2879.34673	0.64900
2877.41816	0.63969
2875.48960	0.63002
2873.56104	0.62004
2871.63247	0.60993
2869.70391	0.59945
2867.77534	0.58842
2865.84678	0.57685
2863.91821	0.56519
2861.98965	0.55410
2860.06108	0.54352
2858.13252	0.53326
2856.20396	0.52344
2854.27539	0.51432
2852.34683	0.50578
2850.41826	0.49737
2848.48970	0.48898
2846.56113	0.48081
2844.63257	0.47304
2842.70400	0.46596
2840.77544	0.45957
2838.84687	0.45351
2836.91831	0.44760
2834.98975	0.44179
2833.06118	0.43607
2831.13262	0.43034
2829.20405	0.42449
2827.27549	0.41847
2825.34692	0.41237
2823.41836	0.40656
2821.48979	0.40105
2819.56123	0.39541
2817.63267	0.38963
2815.70410	0.38408
2813.77554	0.37868
2811.84697	0.37317
2809.91841	0.36761
2807.98984	0.36227
2806.06128	0.35722
2804.13271	0.35229
2802.20415	0.34741
2800.27559	0.34264
2798.34702	0.33781
2796.41846	0.33298
2794.48989	0.32838
2792.56133	0.32391
2790.63276	0.31939
2788.70420	0.31491
2786.77563	0.31056
2784.84707	0.30637
2782.91851	0.30221
2780.98994	0.29805
2779.06138	0.29409
2777.13281	0.29036
2775.20425	0.28670
2773.27568	0.28307
2771.34712	0.27935
2769.41855	0.27557
2767.48999	0.27197
2765.56143	0.26855
2763.63286	0.26515
2761.70430	0.26180
2759.77573	0.25852
2757.84717	0.25528
2755.91860	0.25227
2753.99004	0.24944
2752.06147	0.24644
2750.13291	0.24335
2748.20435	0.24046
2746.27578	0.23766
2744.34722	0.23486
2742.41865	0.23216
2740.49009	0.22951
2738.56152	0.22689
2736.63296	0.22433
2734.70439	0.22183
2732.77583	0.21930
2730.84727	0.21678
2728.91870	0.21447
2726.99014	0.21232
2725.06157	0.21023
2723.13301	0.20818
2721.20444	0.20610
2719.27588	0.20406
2717.34731	0.20215
2715.41875	0.20020
2713.49019	0.19827
2711.56162	0.19654
2709.63306	0.19487
2707.70449	0.19312
2705.77593	0.19143
2703.84736	0.18987
2701.91880	0.18832
2699.99023	0.18670
2698.06167	0.18507
2696.13311	0.18358
2694.20454	0.18230
2692.27598	0.18113
2690.34741	0.18005
2688.41885	0.17895
2686.49028	0.17757
2684.56172	0.17607
2682.63315	0.17478
2680.70459	0.17376
2678.77603	0.17284
2676.84746	0.17179
2674.91890	0.17063
2672.99033	0.16952
2671.06177	0.16859
2669.13320	0.16769
2667.20464	0.16672
2665.27607	0.16580
2663.34751	0.16499
2661.41895	0.16417
2659.49038	0.16329
2657.56182	0.16246
2655.63325	0.16173
2653.70469	0.16096
2651.77612	0.16011
2649.84756	0.15929
2647.91899	0.15865
2645.99043	0.15818
2644.06187	0.15772
2642.13330	0.15723
2640.20474	0.15665
2638.27617	0.15605
2636.34761	0.15561
2634.41904	0.15519
2632.49048	0.15465
2630.56191	0.15413
2628.63335	0.15369
2626.70479	0.15329
2624.77622	0.15292
2622.84766	0.15264
2620.91909	0.15246
2618.99053	0.15235
2617.06196	0.15212
2615.13340	0.15174
2613.20483	0.15143
2611.27627	0.15120
2609.34771	0.15095
2607.41914	0.15076
2605.49058	0.15069
2603.56201	0.15067
2601.63345	0.15073
2599.70488	0.15077
2597.77632	0.15071
2595.84775	0.15065
2593.91919	0.15070
2591.99062	0.15073
2590.06206	0.15072
2588.13350	0.15082
2586.20493	0.15099
2584.27637	0.15116
2582.34780	0.15139
2580.41924	0.15164
2578.49067	0.15186
2576.56211	0.15211
2574.63354	0.15231
2572.70498	0.15249
2570.77642	0.15279
2568.84785	0.15319
2566.91929	0.15355
2564.99072	0.15392
2563.06216	0.15432
2561.13359	0.15474
2559.20503	0.15515
2557.27646	0.15557
2555.34790	0.15603
2553.41934	0.15648
2551.49077	0.15686
2549.56221	0.15726
2547.63364	0.15783
2545.70508	0.15847
2543.77651	0.15896
2541.84795	0.15943
2539.91938	0.16008
2537.99082	0.16074
2536.06226	0.16126
2534.13369	0.16174
2532.20513	0.16230
2530.27656	0.16295
2528.34800	0.16364
2526.41943	0.16427
2524.49087	0.16482
2522.56230	0.16541
2520.63374	0.16616
2518.70518	0.16698
2516.77661	0.16779
2514.84805	0.16849
2512.91948	0.16913
2510.99092	0.16980
2509.06235	0.17063
2507.13379	0.17148
2505.20522	0.17221
2503.27666	0.17301
2501.34810	0.17395
2499.41953	0.17475
2497.49097	0.17534
2495.56240	0.17601
2493.63384	0.17686
2491.70527	0.17771
2489.77671	0.17858
2487.84814	0.17951
2485.91958	0.18035
2483.99102	0.18104
2482.06245	0.18178
2480.13389	0.18268
2478.20532	0.18362
2476.27676	0.18441
2474.34819	0.18508
2472.41963	0.18582
2470.49106	0.18667
2468.56250	0.18757
2466.63394	0.18854
2464.70537	0.18950
2462.77681	0.19042
2460.84824	0.19133
2458.91968	0.19206
2456.99111	0.19274
2455.06255	0.19367
2453.13398	0.19483
2451.20542	0.19595
2449.27686	0.19691
2447.34829	0.19786
2445.41973	0.19887
2443.49116	0.19981
2441.56260	0.20066
2439.63403	0.20153
2437.70547	0.20241
2435.77690	0.20334
2433.84834	0.20438
2431.91978	0.20547
2429.99121	0.20652
2428.06265	0.20747
2426.13408	0.20831
2424.20552	0.20910
2422.27695	0.21005
2420.34839	0.21128
2418.41982	0.21261
2416.49126	0.21379
2414.56270	0.21490
2412.63413	0.21604
2410.70557	0.21713
2408.77700	0.21821
2406.84844	0.21932
2404.91987	0.22044
2402.99131	0.22157
2401.06274	0.22271
2399.13418	0.22380
2397.20562	0.22491
2395.27705	0.22615
2393.34849	0.22750
2391.41992	0.22885
2389.49136	0.23021
2387.56279	0.23166
2385.63423	0.23338
2383.70566	0.23567
2381.77710	0.23872
2379.84854	0.24229
2377.91997	0.24604
2375.99141	0.25016
2374.06284	0.25483
2372.13428	0.25973
2370.20571	0.26473
2368.27715	0.27020
2366.34858	0.27616
2364.42002	0.28125
2362.49146	0.28462
2360.56289	0.28736
2358.63433	0.28967
2356.70576	0.28973
2354.77720	0.28703
2352.84863	0.28359
2350.92007	0.28039
2348.99150	0.27855
2347.06294	0.27963
2345.13437	0.28399
2343.20581	0.28935
2341.27725	0.29280
2339.34868	0.29435
2337.42012	0.29514
2335.49155	0.29622
2333.56299	0.29739
2331.63442	0.29824
2329.70586	0.29881
2327.77729	0.29923
2325.84873	0.29944
2323.92017	0.29946
2321.99160	0.29940
2320.06304	0.29907
2318.13447	0.29862
2316.20591	0.29860
2314.27734	0.29926
2312.34878	0.30038
2310.42021	0.30136
2308.49165	0.30189
2306.56309	0.30230
2304.63452	0.30300
2302.70596	0.30415
2300.77739	0.30548
2298.84883	0.30658
2296.92026	0.30762
2294.99170	0.30891
2293.06313	0.31035
2291.13457	0.31179
2289.20601	0.31321
2287.27744	0.31462
2285.34888	0.31611
2283.42031	0.31775
2281.49175	0.31955
2279.56318	0.32151
2277.63462	0.32351
2275.70605	0.32551
2273.77749	0.32764
2271.84893	0.32988
2269.92036	0.33208
2267.99180	0.33411
2266.06323	0.33608
2264.13467	0.33808
2262.20610	0.34010
2260.27754	0.34207
2258.34897	0.34405
2256.42041	0.34609
2254.49185	0.34818
2252.56328	0.35021
2250.63472	0.35218
2248.70615	0.35420
2246.77759	0.35638
2244.84902	0.35854
2242.92046	0.36049
2240.99189	0.36239
2239.06333	0.36440
2237.13477	0.36655
2235.20620	0.36878
2233.27764	0.37104
2231.34907	0.37331
2229.42051	0.37554
2227.49194	0.37769
2225.56338	0.37978
2223.63481	0.38180
2221.70625	0.38383
2219.77769	0.38597
2217.84912	0.38829
2215.92056	0.39068
2213.99199	0.39289
2212.06343	0.39495
2210.13486	0.39695
2208.20630	0.39896
2206.27773	0.40099
2204.34917	0.40304
2202.42061	0.40512
2200.49204	0.40717
2198.56348	0.40914
2196.63491	0.41106
2194.70635	0.41299
2192.77778	0.41498
2190.84922	0.41698
2188.92065	0.41889
2186.99209	0.42066
2185.06353	0.42235
2183.13496	0.42401
2181.20640	0.42570
2179.27783	0.42742
2177.34927	0.42912
2175.42070	0.43073
2173.49214	0.43215
2171.56357	0.43342
2169.63501	0.43480
2167.70645	0.43627
2165.77788	0.43756
2163.84932	0.43862
2161.92075	0.43962
2159.99219	0.44074
2158.06362	0.44194
2156.13506	0.44304
2154.20649	0.44406
2152.27793	0.44501
2150.34937	0.44575
2148.42080	0.44630
2146.49224	0.44691
2144.56367	0.44759
2142.63511	0.44814
2140.70654	0.44852
2138.77798	0.44882
2136.84941	0.44904
2134.92085	0.44920
2132.99229	0.44931
2131.06372	0.44934
2129.13516	0.44930
2127.20659	0.44926
2125.27803	0.44908
2123.34946	0.44863
2121.42090	0.44815
2119.49233	0.44774
2117.56377	0.44729
2115.63521	0.44663
2113.70664	0.44589
2111.77808	0.44519
2109.84951	0.44440
2107.92095	0.44345
2105.99238	0.44238
2104.06382	0.44126
2102.13525	0.44008
2100.20669	0.43886
2098.27812	0.43754
2096.34956	0.43620
2094.42100	0.43492
2092.49243	0.43358
2090.56387	0.43208
2088.63530	0.43050
2086.70674	0.42886
2084.77817	0.42702
2082.84961	0.42508
2080.92104	0.42319
2078.99248	0.42132
2077.06392	0.41933
2075.13535	0.41725
2073.20679	0.41515
2071.27822	0.41304
2069.34966	0.41093
2067.42109	0.40881
2065.49253	0.40667
2063.56396	0.40443
2061.63540	0.40208
2059.70684	0.39972
2057.77827	0.39737
2055.84971	0.39494
2053.92114	0.39242
2051.99258	0.38988
2050.06401	0.38734
2048.13545	0.38479
2046.20688	0.38220
2044.27832	0.37964
2042.34976	0.37724
2040.42119	0.37480
2038.49263	0.37210
2036.56406	0.36928
2034.63550	0.36658
2032.70693	0.36393
2030.77837	0.36123
2028.84980	0.35847
2026.92124	0.35568
2024.99268	0.35287
2023.06411	0.35014
2021.13555	0.34753
2019.20698	0.34498
2017.27842	0.34236
2015.34985	0.33957
2013.42129	0.33674
2011.49272	0.33401
2009.56416	0.33131
2007.63560	0.32861
2005.70703	0.32603
2003.77847	0.32351
2001.84990	0.32098
1999.92134	0.31851
1997.99277	0.31598
1996.06421	0.31336
1994.13564	0.31082
1992.20708	0.30843
1990.27852	0.30596
1988.34995	0.30342
1986.42139	0.30093
1984.49282	0.29855
1982.56426	0.29622
1980.63569	0.29387
1978.70713	0.29158
1976.77856	0.28940
1974.85000	0.28723
1972.92144	0.28503
1970.99287	0.28293
1969.06431	0.28094
1967.13574	0.27895
1965.20718	0.27685
1963.27861	0.27480
1961.35005	0.27282
1959.42148	0.27084
1957.49292	0.26899
1955.56436	0.26731
1953.63579	0.26559
1951.70723	0.26382
1949.77866	0.26220
1947.85010	0.26068
1945.92153	0.25917
1943.99297	0.25769
1942.06440	0.25617
1940.13584	0.25453
1938.20728	0.25298
1936.27871	0.25165
1934.35015	0.25040
1932.42158	0.24910
1930.49302	0.24782
1928.56445	0.24669
1926.63589	0.24562
1924.70732	0.24462
1922.77876	0.24366
1920.85020	0.24265
1918.92163	0.24170
1916.99307	0.24081
1915.06450	0.23992
1913.13594	0.23908
1911.20737	0.23833
1909.27881	0.23759
1907.35024	0.23684
1905.42168	0.23616
1903.49312	0.23552
1901.56455	0.23490
1899.63599	0.23433
1897.70742	0.23391
1895.77886	0.23360
1893.85029	0.23323
1891.92173	0.23277
1889.99316	0.23253
1888.06460	0.23230
1886.13604	0.23189
1884.20747	0.23149
1882.27891	0.23119
1880.35034	0.23104
1878.42178	0.23100
1876.49321	0.23104
1874.56465	0.23108
1872.63608	0.23122
1870.70752	0.23156
1868.77896	0.23217
1866.85039	0.23242
1864.92183	0.23211
1862.99326	0.23189
1861.06470	0.23208
1859.13613	0.23252
1857.20757	0.23290
1855.27900	0.23328
1853.35044	0.23366
1851.42187	0.23410
1849.49331	0.23462
1847.56475	0.23533
1845.63618	0.23629
1843.70762	0.23741
1841.77905	0.23814
1839.85049	0.23850
1837.92192	0.23922
1835.99336	0.24012
1834.06479	0.24099
1832.13623	0.24200
1830.20767	0.24350
1828.27910	0.24496
1826.35054	0.24589
1824.42197	0.24700
1822.49341	0.24815
1820.56484	0.24936
1818.63628	0.25079
1816.70771	0.25244
1814.77915	0.25405
1812.85059	0.25573
1810.92202	0.25767
1808.99346	0.25969
1807.06489	0.26160
1805.13633	0.26344
1803.20776	0.26563
1801.27920	0.26819
1799.35063	0.27099
1797.42207	0.27349
1795.49351	0.27594
1793.56494	0.27884
1791.63638	0.28238
1789.70781	0.28555
1787.77925	0.28799
1785.85068	0.29106
1783.92212	0.29476
1781.99355	0.29866
1780.06499	0.30272
1778.13643	0.30688
1776.20786	0.31080
1774.27930	0.31501
1772.35073	0.32077
1770.42217	0.32695
1768.49360	0.33200
1766.56504	0.33699
1764.63647	0.34229
1762.70791	0.34811
1760.77935	0.35544
1758.85078	0.36238
1756.92222	0.36937
1754.99365	0.37697
1753.06509	0.38393
1751.13652	0.39234
1749.20796	0.40291
1747.27939	0.41312
1745.35083	0.42202
1743.42227	0.43156
1741.49370	0.44207
1739.56514	0.45429
1737.63657	0.46644
1735.70801	0.47701
1733.77944	0.49317
1731.85088	0.51292
1729.92231	0.52829
1727.99375	0.54347
1726.06519	0.55989
1724.13662	0.57809
1722.20806	0.59788
1720.27949	0.61614
1718.35093	0.63749
1716.42236	0.66911
1714.49380	0.69912
1712.56523	0.72334
1710.63667	0.74700
1708.70811	0.77269
1706.77954	0.80197
1704.85098	0.83710
1702.92241	0.86858
1700.99385	0.89979
1699.06528	0.94632
1697.13672	0.98944
1695.20815	1.03451
1693.27959	1.07869
1691.35103	1.11416
1689.42246	1.15529
1687.49390	1.19922
1685.56533	1.24171
1683.63677	1.30763
1681.70820	1.37706
1679.77964	1.42133
1677.85107	1.46301
1675.92251	1.51131
1673.99395	1.57216
1672.06538	1.62736
1670.13682	1.68151
1668.20825	1.75103
1666.27969	1.80765
1664.35112	1.85655
1662.42256	1.92006
1660.49399	1.99401
1658.56543	2.05223
1656.63687	2.09909
1654.70830	2.14159
1652.77974	2.20408
1650.85117	2.26181
1648.92261	2.28146
1646.99404	2.30436
1645.06548	2.32886
1643.13691	2.34679
1641.20835	2.35778
1639.27979	2.36766
1637.35122	2.37299
1635.42266	2.37023
1633.49409	2.35993
1631.56553	2.34394
1629.63696	2.32486
1627.70840	2.29434
1625.77983	2.25812
1623.85127	2.21202
1621.92271	2.15643
1619.99414	2.10848
1618.06558	2.06302
1616.13701	1.99746
1614.20845	1.92911
1612.27988	1.87639
1610.35132	1.82122
1608.42275	1.76155
1606.49419	1.70342
1604.56562	1.65080
1602.63706	1.60089
1600.70850	1.55239
1598.77993	1.50737
1596.85137	1.46472
1594.92280	1.42327
1592.99424	1.38339
1591.06567	1.34722
1589.13711	1.31421
1587.20854	1.28421
1585.27998	1.25666
1583.35142	1.23080
1581.42285	1.20744
1579.49429	1.18818
1577.56572	1.17144
1575.63716	1.15146
1573.70859	1.13433
1571.78003	1.12375
1569.85146	1.11362
1567.92290	1.10292
1565.99434	1.09551
1564.06577	1.09103
1562.13721	1.08835
1560.20864	1.08784
1558.28008	1.09182
1556.35151	1.09754
1554.42295	1.10137
1552.49438	1.10490
1550.56582	1.10623
1548.63726	1.10449
1546.70869	1.09993
1544.78013	1.09191
1542.85156	1.08038
1540.92300	1.06271
1538.99443	1.03284
1537.06587	1.01015
1535.13730	0.99489
1533.20874	0.97426
1531.28018	0.95186
1529.35161	0.93576
1527.42305	0.92073
1525.49448	0.90481
1523.56592	0.89125
1521.63735	0.87915
1519.70879	0.86719
1517.78022	0.85654
1515.85166	0.84384
1513.92310	0.83041
1511.99453	0.81872
1510.06597	0.80836
1508.13740	0.79831
1506.20884	0.78227
1504.28027	0.76832
1502.35171	0.76061
1500.42314	0.75386
1498.49458	0.74670
1496.56602	0.73834
1494.63745	0.72990
1492.70889	0.72345
1490.78032	0.71798
1488.85176	0.71185
1486.92319	0.70592
1484.99463	0.70104
1483.06606	0.69726
1481.13750	0.69433
1479.20894	0.69225
1477.28037	0.69118
1475.35181	0.69084
1473.42324	0.69108
1471.49468	0.69091
1469.56611	0.68939
1467.63755	0.68729
1465.70898	0.68531
1463.78042	0.68372
1461.85186	0.68279
1459.92329	0.68262
1457.99473	0.68335
1456.06616	0.68377
1454.13760	0.68175
1452.20903	0.67895
1450.28047	0.67625
1448.35190	0.67373
1446.42334	0.67119
1444.49478	0.66868
1442.56621	0.66609
1440.63765	0.66325
1438.70908	0.66037
1436.78052	0.65690
1434.85195	0.65275
1432.92339	0.64950
1430.99482	0.64748
1429.06626	0.64641
1427.13770	0.64608
1425.20913	0.64643
1423.28057	0.64720
1421.35200	0.64783
1419.42344	0.64849
1417.49487	0.64875
1415.56631	0.64786
1413.63774	0.64713
1411.70918	0.64736
1409.78062	0.64845
1407.85205	0.65008
1405.92349	0.65230
1403.99492	0.65453
1402.06636	0.65553
1400.13779	0.65537
1398.20923	0.65421
1396.28066	0.65176
1394.35210	0.64788
1392.42354	0.64330
1390.49497	0.63896
1388.56641	0.63453
1386.63784	0.62940
1384.70928	0.62395
1382.78071	0.61869
1380.85215	0.61375
1378.92358	0.60947
1376.99502	0.60614
1375.06646	0.60381
1373.13789	0.60217
1371.20933	0.60086
1369.28076	0.59973
1367.35220	0.59844
1365.42363	0.59698
1363.49507	0.59562
1361.56650	0.59422
1359.63794	0.59259
1357.70937	0.59104
1355.78081	0.58979
1353.85225	0.58883
1351.92368	0.58806
1349.99512	0.58743
1348.06655	0.58692
1346.13799	0.58636
1344.20942	0.58562
1342.28086	0.58490
1340.35229	0.58443
1338.42373	0.58397
1336.49517	0.58344
1334.56660	0.58307
1332.63804	0.58301
1330.70947	0.58331
1328.78091	0.58382
1326.85234	0.58446
1324.92378	0.58526
1322.99521	0.58616
1321.06665	0.58693
1319.13809	0.58759
1317.20952	0.58814
1315.28096	0.58842
1313.35239	0.58839
1311.42383	0.58807
1309.49526	0.58759
1307.56670	0.58711
1305.63813	0.58680
1303.70957	0.58654
1301.78101	0.58601
1299.85244	0.58518
1297.92388	0.58431
1295.99531	0.58338
1294.06675	0.58217
1292.13818	0.58071
1290.20962	0.57934
1288.28105	0.57817
1286.35249	0.57703
1284.42393	0.57582
1282.49536	0.57444
1280.56680	0.57304
1278.63823	0.57180
1276.70967	0.57054
1274.78110	0.56918
1272.85254	0.56804
1270.92397	0.56729
1268.99541	0.56666
1267.06685	0.56589
1265.13828	0.56508
1263.20972	0.56438
1261.28115	0.56367
1259.35259	0.56286
1257.42402	0.56222
1255.49546	0.56197
1253.56689	0.56200
1251.63833	0.56213
1249.70977	0.56232
1247.78120	0.56234
1245.85264	0.56209
1243.92407	0.56162
1241.99551	0.56077
1240.06694	0.55943
1238.13838	0.55768
1236.20981	0.55554
1234.28125	0.55317
1232.35269	0.55095
1230.42412	0.54895
1228.49556	0.54700
1226.56699	0.54497
1224.63843	0.54296
1222.70986	0.54128
1220.78130	0.53992
1218.85273	0.53848
1216.92417	0.53698
1214.99561	0.53580
1213.06704	0.53489
1211.13848	0.53406
1209.20991	0.53333
1207.28135	0.53267
1205.35278	0.53190
1203.42422	0.53094
1201.49565	0.52994
1199.56709	0.52915
1197.63853	0.52857
1195.70996	0.52796
1193.78140	0.52732
1191.85283	0.52685
1189.92427	0.52654
1187.99570	0.52635
1186.06714	0.52628
1184.13857	0.52635
1182.21001	0.52666
1180.28145	0.52735
1178.35288	0.52855
1176.42432	0.53018
1174.49575	0.53173
1172.56719	0.53262
1170.63862	0.53277
1168.71006	0.53255
1166.78149	0.53223
1164.85293	0.53176
1162.92437	0.53112
1160.99580	0.53036
1159.06724	0.52959
1157.13867	0.52881
1155.21011	0.52781
1153.28154	0.52651
1151.35298	0.52491
1149.42441	0.52282
1147.49585	0.52021
1145.56729	0.51737
1143.63872	0.51478
1141.71016	0.51261
1139.78159	0.51074
1137.85303	0.50923
1135.92446	0.50806
1133.99590	0.50726
1132.06733	0.50677
1130.13877	0.50618
1128.21021	0.50525
1126.28164	0.50425
1124.35308	0.50339
1122.42451	0.50268
1120.49595	0.50221
1118.56738	0.50206
1116.63882	0.50207
1114.71025	0.50206
1112.78169	0.50218
1110.85312	0.50260
1108.92456	0.50351
1106.99600	0.50489
1105.06743	0.50643
1103.13887	0.50777
1101.21030	0.50904
1099.28174	0.51063
1097.35317	0.51283
1095.42461	0.51579
1093.49604	0.51943
1091.56748	0.52351
1089.63892	0.52811
1087.71035	0.53356
1085.78179	0.54005
1083.85322	0.54701
1081.92466	0.55327
1079.99609	0.55810
1078.06753	0.56116
1076.13896	0.56184
1074.21040	0.55973
1072.28184	0.55507
1070.35327	0.54876
1068.42471	0.54186
1066.49614	0.53512
1064.56758	0.52878
1062.63901	0.52297
1060.71045	0.51778
1058.78188	0.51314
1056.85332	0.50896
1054.92476	0.50531
1052.99619	0.50220
1051.06763	0.49963
1049.13906	0.49750
1047.21050	0.49547
1045.28193	0.49349
1043.35337	0.49182
1041.42480	0.49057
1039.49624	0.48963
1037.56768	0.48887
1035.63911	0.48837
1033.71055	0.48809
1031.78198	0.48773
1029.85342	0.48729
1027.92485	0.48701
1025.99629	0.48690
1024.06772	0.48684
1022.13916	0.48699
1020.21060	0.48729
1018.28203	0.48761
1016.35347	0.48806
1014.42490	0.48859
1012.49634	0.48906
1010.56777	0.48962
1008.63921	0.49045
1006.71064	0.49173
1004.78208	0.49354
1002.85352	0.49582
1000.92495	0.49852
998.99639	0.50171
997.06782	0.50548
995.13926	0.50968
993.21069	0.51397
991.28213	0.51775
989.35356	0.52023
987.42500	0.52144
985.49644	0.52211
983.56787	0.52268
981.63931	0.52329
979.71074	0.52420
977.78218	0.52569
975.85361	0.52780
973.92505	0.53034
971.99648	0.53314
970.06792	0.53632
968.13936	0.54004
966.21079	0.54409
964.28223	0.54833
962.35366	0.55292
960.42510	0.55776
958.49653	0.56281
956.56797	0.56832
954.63940	0.57423
952.71084	0.58044
950.78228	0.58703
948.85371	0.59363
946.92515	0.59977
944.99658	0.60584
943.06802	0.61214
941.13945	0.61824
939.21089	0.62398
937.28232	0.62998
935.35376	0.63635
933.42520	0.64231
931.49663	0.64743
929.56807	0.65197
927.63950	0.65685
925.71094	0.66273
923.78237	0.66921
921.85381	0.67542
919.92524	0.68116
917.99668	0.68751
916.06812	0.69517
914.13955	0.70330
912.21099	0.71117
910.28242	0.71879
908.35386	0.72630
906.42529	0.73415
904.49673	0.74290
902.56816	0.75283
900.63960	0.76293
898.71104	0.77180
896.78247	0.77997
894.85391	0.78839
892.92534	0.79747
890.99678	0.80805
889.06821	0.82004
887.13965	0.83179
885.21108	0.84239
883.28252	0.85296
881.35396	0.86456
879.42539	0.87677
877.49683	0.88829
875.56826	0.89879
873.63970	0.91009
871.71113	0.92219
869.78257	0.93282
867.85400	0.94262
865.92544	0.95201
863.99687	0.96102
862.06831	0.97204
860.13975	0.98450
858.21118	0.99636
856.28262	1.00907
854.35405	1.02424
852.42549	1.03841
850.49692	1.04866
848.56836	1.05797
846.63979	1.06860
844.71123	1.08108
842.78267	1.09523
840.85410	1.10936
838.92554	1.12216
836.99697	1.13179
835.06841	1.13751
833.13984	1.14427
831.21128	1.15644
829.28271	1.17158
827.35415	1.18739
825.42559	1.20307
823.49702	1.21597
821.56846	1.22506
819.63989	1.23340
817.71133	1.24179
815.78276	1.25024
813.85420	1.26056
811.92563	1.27113
809.99707	1.27873
808.06851	1.28330
806.13994	1.29722
804.21138	1.32426
802.28281	1.34970
800.35425	1.37276
798.42568	1.39406
796.49712	1.40777
794.56855	1.44771
792.63999	1.52712
790.71143	1.55503
788.78286	1.51371
786.85430	1.46888
784.92573	1.41108
782.99717	1.35745
781.06860	1.34558
779.14004	1.36176
777.21147	1.39304
775.28291	1.46476
773.35435	1.48372
771.42578	1.38851
769.49722	1.34733
767.56865	1.39960
765.64009	1.48383
763.71152	1.52464
761.78296	1.52370
759.85439	1.60215
757.92583	1.79388
755.99727	1.60828
754.06870	1.38869
752.14014	1.33868
750.21157	1.34930
748.28301	1.29994
746.35444	1.10360
744.42588	0.92932
742.49731	0.87868
740.56875	0.89060
738.64019	0.86914
736.71162	0.82735
734.78306	0.82938
732.85449	0.89332
730.92593	0.97020
728.99736	0.80398
727.06880	0.54216
725.14023	0.49835
723.21167	0.97198
721.28311	4.32770
719.35454	0.80750
717.42598	0.59368
715.49741	0.69925
713.56885	0.30848
711.64028	0.06266
709.71172	-0.01995
707.78315	0.05207
705.85459	0.30247
703.92603	0.39406
701.99746	0.35889
700.06890	0.34888
698.14033	0.33694
696.21177	0.31537
694.28320	0.32557
692.35464	0.36101
690.42607	0.37146
688.49751	0.40166
686.56895	0.50199
684.64038	0.54308
682.71182	0.53451
680.78325	0.71277
678.85469	1.21124
676.92612	0.65753
674.99756	0.43159
673.06899	0.40811
671.14043	0.44297
669.21187	0.42738
667.28330	0.36675
665.35474	0.32999
663.42617	0.35029
661.49761	0.38030
659.56904	0.40639
657.64048	0.38827
655.71191	0.29182
653.78335	0.22999
651.85479	0.24814
649.92622	0.27281
647.99766	0.29570
646.06909	0.38750
644.14053	0.47189
642.21196	0.39803
640.28340	0.38692
638.35483	0.54942
636.42627	0.80057
634.49771	0.98004
632.56914	3.79541
630.64058	3.78384
628.71201	1.04778
626.78345	1.06708
624.85488	0.68780
622.92632	0.37704
620.99775	0.27507
619.06919	0.27933
617.14062	0.33137
615.21206	0.45506
613.28350	0.71577
611.35493	1.00440
609.42637	0.68944
607.49780	0.51163
605.56924	0.44489
603.64067	0.35680
601.71211	0.26985
599.78354	0.21694
597.85498	0.26173
595.92642	0.39631
593.99785	0.36790
592.06929	0.26633
590.14072	0.27697
588.21216	0.33972
586.28359	0.32177
584.35503	0.28024
582.42646	0.29979
580.49790	0.33007
578.56934	0.26433
576.64077	0.19526
574.71221	0.18735
572.78364	0.18266
570.85508	0.17151
568.92651	0.21100
566.99795	0.27876
565.06938	0.28130
563.14082	0.27081
561.21226	0.27115
559.28369	0.25409
557.35513	0.24176
555.42656	0.21247
553.49800	0.16920
551.56943	0.17475
549.64087	0.23521
547.71230	0.27355
545.78374	0.20042
543.85518	0.13220
541.92661	0.13981
539.99805	0.18364
538.06948	0.21200
536.14092	0.20870
534.21235	0.18914
532.28379	0.17556
530.35522	0.16676
528.42666	0.17088
526.49810	0.19029
524.56953	0.18722
522.64097	0.20529
520.71240	0.27177
518.78384	0.30495
516.85527	0.28042
514.92671	0.23593
512.99814	0.19023
511.06958	0.17604
509.14102	0.19376
507.21245	0.20260
505.28389	0.19507
503.35532	0.21258
501.42676	0.29435
499.49819	0.45616
