3997.91411	0.07389
3995.98555	0.07443
3994.05698	0.07531
3992.12842	0.07576
3990.19985	0.07584
3988.27129	0.07603
3986.34272	0.07612
3984.41416	0.07611
3982.48560	0.07638
3980.55703	0.07703
3978.62847	0.07775
3976.69990	0.07824
3974.77134	0.07833
3972.84277	0.07828
3970.91421	0.07853
3968.98564	0.07882
3967.05708	0.07864
3965.12852	0.07809
3963.19995	0.07817
3961.27139	0.07906
3959.34282	0.07949
3957.41426	0.07910
3955.48569	0.07862
3953.55713	0.07878
3951.62856	0.07997
3949.70000	0.08168
3947.77144	0.08257
3945.84287	0.08200
3943.91431	0.08149
3941.98574	0.08198
3940.05718	0.08181
3938.12861	0.08067
3936.20005	0.08018
3934.27148	0.08087
3932.34292	0.08223
3930.41436	0.08313
3928.48579	0.08272
3926.55723	0.08216
3924.62866	0.08279
3922.70010	0.08335
3920.77153	0.08261
3918.84297	0.08207
3916.91440	0.08243
3914.98584	0.08198
3913.05728	0.08015
3911.12871	0.07857
3909.20015	0.07831
3907.27158	0.07980
3905.34302	0.08333
3903.41445	0.08763
3901.48589	0.08965
3899.55732	0.08848
3897.62876	0.08522
3895.70020	0.08219
3893.77163	0.08199
3891.84307	0.08434
3889.91450	0.08528
3887.98594	0.08344
3886.05737	0.08304
3884.12881	0.08504
3882.20024	0.08665
3880.27168	0.08734
3878.34312	0.08609
3876.41455	0.08393
3874.48599	0.08440
3872.55742	0.08707
3870.62886	0.08970
3868.70029	0.09097
3866.77173	0.09015
3864.84316	0.09020
3862.91460	0.09102
3860.98604	0.08931
3859.05747	0.08728
3857.12891	0.08794
3855.20034	0.09136
3853.27178	0.09711
3851.34321	0.09913
3849.41465	0.09403
3847.48608	0.08942
3845.55752	0.08818
3843.62896	0.09022
3841.70039	0.09406
3839.77183	0.09806
3837.84326	0.10119
3835.91470	0.10121
3833.98613	0.09880
3832.05757	0.09705
3830.12900	0.09648
3828.20044	0.09661
3826.27187	0.09751
3824.34331	0.09878
3822.41475	0.10129
3820.48618	0.10591
3818.55762	0.10803
3816.62905	0.10730
3814.70049	0.10616
3812.77192	0.10340
3810.84336	0.10122
3808.91479	0.10179
3806.98623	0.10503
3805.05767	0.10839
3803.12910	0.11066
3801.20054	0.11412
3799.27197	0.11636
3797.34341	0.11524
3795.41484	0.11349
3793.48628	0.11188
3791.55771	0.11129
3789.62915	0.11219
3787.70059	0.11388
3785.77202	0.11616
3783.84346	0.11850
3781.91489	0.12016
3779.98633	0.12233
3778.05776	0.12454
3776.12920	0.12457
3774.20063	0.12439
3772.27207	0.12626
3770.34351	0.13020
3768.41494	0.13439
3766.48638	0.13667
3764.55781	0.13777
3762.62925	0.13870
3760.70068	0.14093
3758.77212	0.14530
3756.84355	0.14932
3754.91499	0.15173
3752.98643	0.15558
3751.05786	0.16309
3749.12930	0.17026
3747.20073	0.17219
3745.27217	0.17388
3743.34360	0.17736
3741.41504	0.17917
3739.48647	0.18038
3737.55791	0.18442
3735.62935	0.19281
3733.70078	0.20147
3731.77222	0.20396
3729.84365	0.20379
3727.91509	0.20570
3725.98652	0.21125
3724.05796	0.21903
3722.12939	0.22627
3720.20083	0.23229
3718.27227	0.23748
3716.34370	0.24319
3714.41514	0.25080
3712.48657	0.26274
3710.55801	0.28027
3708.62944	0.29522
3706.70088	0.30385
3704.77231	0.31268
3702.84375	0.32558
3700.91519	0.34325
3698.98662	0.36161
3697.05806	0.37866
3695.12949	0.39753
3693.20093	0.41861
3691.27236	0.44303
3689.34380	0.47485
3687.41523	0.50987
3685.48667	0.53697
3683.55811	0.56082
3681.62954	0.58911
3679.70098	0.62314
3677.77241	0.65995
3675.84385	0.70323
3673.91528	0.75880
3671.98672	0.80208
3670.05815	0.84091
3668.12959	0.89372
3666.20103	0.93886
3664.27246	0.97630
3662.34390	1.01944
3660.41533	1.06819
3658.48677	1.11680
3656.55820	1.16845
3654.62964	1.22558
3652.70107	1.27354
3650.77251	1.31661
3648.84395	1.37729
3646.91538	1.44853
3644.98682	1.49604
3643.05825	1.53153
3641.12969	1.57035
3639.20112	1.61533
3637.27256	1.66103
3635.34399	1.70505
3633.41543	1.74911
3631.48687	1.79111
3629.55830	1.83480
3627.62974	1.89121
3625.70117	1.94074
3623.77261	1.97236
3621.84404	2.00406
3619.91548	2.04323
3617.98691	2.09189
3616.05835	2.13811
3614.12979	2.17619
3612.20122	2.21520
3610.27266	2.25276
3608.34409	2.29082
3606.41553	2.33303
3604.48696	2.37228
3602.55840	2.40701
3600.62983	2.44449
3598.70127	2.48529
3596.77271	2.52568
3594.84414	2.56703
3592.91558	2.60937
3590.98701	2.64877
3589.05845	2.68517
3587.12988	2.72879
3585.20132	2.77793
3583.27275	2.81908
3581.34419	2.85571
3579.41562	2.89481
3577.48706	2.93724
3575.55850	2.98053
3573.62993	3.02253
3571.70137	3.06202
3569.77280	3.10230
3567.84424	3.14863
3565.91567	3.20444
3563.98711	3.25353
3562.05854	3.29076
3560.12998	3.32951
3558.20142	3.37242
3556.27285	3.41695
3554.34429	3.46173
3552.41572	3.50865
3550.48716	3.55642
3548.55859	3.60214
3546.63003	3.64694
3544.70146	3.69516
3542.77290	3.74547
3540.84434	3.79310
3538.91577	3.83837
3536.98721	3.88305
3535.05864	3.93141
3533.13008	3.97978
3531.20151	4.02511
3529.27295	4.07470
3527.34438	4.12868
3525.41582	4.17701
3523.48726	4.22176
3521.55869	4.27130
3519.63013	4.32209
3517.70156	4.36925
3515.77300	4.41521
3513.84443	4.46344
3511.91587	4.51099
3509.98730	4.55828
3508.05874	4.60798
3506.13018	4.65651
3504.20161	4.70080
3502.27305	4.74254
3500.34448	4.78706
3498.41592	4.83643
3496.48735	4.88929
3494.55879	4.94312
3492.63022	4.99507
3490.70166	5.04156
3488.77310	5.08470
3486.84453	5.13317
3484.91597	5.18786
3482.98740	5.24052
3481.05884	5.28585
3479.13027	5.33132
3477.20171	5.38756
3475.27314	5.44831
3473.34458	5.50426
3471.41602	5.54858
3469.48745	5.57912
3467.55889	5.61299
3465.63032	5.66231
3463.70176	5.72044
3461.77319	5.77715
3459.84463	5.82801
3457.91606	5.87255
3455.98750	5.91828
3454.05894	5.97020
3452.13037	6.02875
3450.20181	6.08901
3448.27324	6.13597
3446.34468	6.17794
3444.41611	6.22677
3442.48755	6.28605
3440.55898	6.35263
3438.63042	6.40593
3436.70186	6.43673
3434.77329	6.46830
3432.84473	6.52654
3430.91616	6.59916
3428.98760	6.66605
3427.05903	6.71356
3425.13047	6.73326
3423.20190	6.74319
3421.27334	6.78446
3419.34478	6.86390
3417.41621	6.93691
3415.48765	6.97118
3413.55908	7.00036
3411.63052	7.06615
3409.70195	7.12637
3407.77339	7.13565
3405.84482	7.12282
3403.91626	7.14913
3401.98770	7.20823
3400.05913	7.26652
3398.13057	7.33607
3396.20200	7.40754
3394.27344	7.45252
3392.34487	7.47007
3390.41631	7.49998
3388.48774	7.55008
3386.55918	7.61389
3384.63062	7.68341
3382.70205	7.74883
3380.77349	7.78266
3378.84492	7.77879
3376.91636	7.78485
3374.98779	7.78439
3373.05923	7.77330
3371.13066	7.76480
3369.20210	7.77960
3367.27354	7.81984
3365.34497	7.86124
3363.41641	7.90338
3361.48784	7.95234
3359.55928	8.01227
3357.63071	8.05889
3355.70215	8.07097
3353.77358	8.05074
3351.84502	8.05166
3349.91646	8.05249
3347.98789	8.02462
3346.05933	8.03453
3344.13076	8.11140
3342.20220	8.17997
3340.27363	8.16876
3338.34507	8.15120
3336.41650	8.14390
3334.48794	8.09405
3332.55937	8.01970
3330.63081	8.03684
3328.70225	8.13707
3326.77368	8.16415
3324.84512	8.13407
3322.91655	8.13341
3320.98799	8.14878
3319.05942	8.16664
3317.13086	8.21779
3315.20229	8.23618
3313.27373	8.18502
3311.34517	8.11308
3309.41660	8.06601
3307.48804	8.10363
3305.55947	8.16520
3303.63091	8.16345
3301.70234	8.13973
3299.77378	8.15212
3297.84521	8.16600
3295.91665	8.17637
3293.98809	8.21819
3292.05952	8.29782
3290.13096	8.35460
3288.20239	8.28825
3286.27383	8.18028
3284.34526	8.11421
3282.41670	8.08422
3280.48813	8.11562
3278.55957	8.20381
3276.63101	8.27466
3274.70244	8.27076
3272.77388	8.18105
3270.84531	8.09053
3268.91675	8.07796
3266.98818	8.11672
3265.05962	8.20175
3263.13105	8.35727
3261.20249	8.54227
3259.27393	8.59607
3257.34536	8.46922
3255.41680	8.30914
3253.48823	8.25201
3251.55967	8.31769
3249.63110	8.39376
3247.70254	8.41932
3245.77397	8.39010
3243.84541	8.31902
3241.91685	8.20768
3239.98828	8.06694
3238.05972	8.04963
3236.13115	8.20324
3234.20259	8.30964
3232.27402	8.29132
3230.34546	8.28925
3228.41689	8.26507
3226.48833	8.18791
3224.55977	8.14402
3222.63120	8.11296
3220.70264	8.04487
3218.77407	8.02065
3216.84551	8.02968
3214.91694	8.00192
3212.98838	8.02487
3211.05981	8.08962
3209.13125	8.04477
3207.20269	7.89745
3205.27412	7.77760
3203.34556	7.73862
3201.41699	7.71850
3199.48843	7.67657
3197.55986	7.67465
3195.63130	7.71262
3193.70273	7.70782
3191.77417	7.64397
3189.84561	7.56921
3187.91704	7.50165
3185.98848	7.43361
3184.05991	7.38838
3182.13135	7.36339
3180.20278	7.30088
3178.27422	7.19345
3176.34565	7.10650
3174.41709	7.08494
3172.48853	7.08673
3170.55996	7.03674
3168.63140	6.95683
3166.70283	6.87993
3164.77427	6.79856
3162.84570	6.74201
3160.91714	6.70793
3158.98857	6.66679
3157.06001	6.61500
3155.13145	6.53970
3153.20288	6.43707
3151.27432	6.34385
3149.34575	6.27680
3147.41719	6.21293
3145.48862	6.14831
3143.56006	6.08270
3141.63149	6.00665
3139.70293	5.93855
3137.77437	5.88571
3135.84580	5.81699
3133.91724	5.72751
3131.98867	5.63966
3130.06011	5.55822
3128.13154	5.48484
3126.20298	5.42309
3124.27441	5.36692
3122.34585	5.30253
3120.41729	5.22526
3118.48872	5.14509
3116.56016	5.06995
3114.63159	5.00364
3112.70303	4.94397
3110.77446	4.87923
3108.84590	4.80779
3106.91733	4.73578
3104.98877	4.66117
3103.06021	4.58703
3101.13164	4.52167
3099.20308	4.46431
3097.27451	4.40403
3095.34595	4.33517
3093.41738	4.26448
3091.48882	4.19733
3089.56025	4.13217
3087.63169	4.06692
3085.70312	4.00304
3083.77456	3.94152
3081.84600	3.87989
3079.91743	3.81701
3077.98887	3.75534
3076.06030	3.69458
3074.13174	3.63352
3072.20317	3.57561
3070.27461	3.52070
3068.34604	3.46453
3066.41748	3.40684
3064.48892	3.34916
3062.56035	3.29208
3060.63179	3.23720
3058.70322	3.18460
3056.77466	3.13173
3054.84609	3.07793
3052.91753	3.02500
3050.98896	2.97410
3049.06040	2.92400
3047.13184	2.87405
3045.20327	2.82530
3043.27471	2.77749
3041.34614	2.72994
3039.41758	2.68307
3037.48901	2.63718
3035.56045	2.59193
3033.63188	2.54734
3031.70332	2.50363
3029.77476	2.46033
3027.84619	2.41735
3025.91763	2.37481
3023.98906	2.33282
3022.06050	2.29179
3020.13193	2.25171
3018.20337	2.21235
3016.27480	2.17351
3014.34624	2.13517
3012.41768	2.09778
3010.48911	2.06126
3008.56055	2.02494
3006.63198	1.98878
3004.70342	1.95321
3002.77485	1.91841
3000.84629	1.88430
2998.91772	1.85069
2996.98916	1.81739
2995.06060	1.78441
2993.13203	1.75202
2991.20347	1.72029
2989.27490	1.68920
2987.34634	1.65895
2985.41777	1.62916
2983.48921	1.59966
2981.56064	1.57064
2979.63208	1.54174
2977.70352	1.51308
2975.77495	1.48540
2973.84639	1.45840
2971.91782	1.43100
2969.98926	1.40335
2968.06069	1.37647
2966.13213	1.35085
2964.20356	1.32613
2962.27500	1.30166
2960.34644	1.27715
2958.41787	1.25306
2956.48931	1.22990
2954.56074	1.20763
2952.63218	1.18582
2950.70361	1.16419
2948.77505	1.14296
2946.84648	1.12219
2944.91792	1.10147
2942.98936	1.08055
2941.06079	1.06008
2939.13223	1.04064
2937.20366	1.02135
2935.27510	1.00157
2933.34653	0.98201
2931.41797	0.96313
2929.48940	0.94483
2927.56084	0.92695
2925.63228	0.90964
2923.70371	0.89363
2921.77515	0.87878
2919.84658	0.86421
2917.91802	0.84984
2915.98945	0.83527
2914.06089	0.82027
2912.13232	0.80582
2910.20376	0.79226
2908.27520	0.77889
2906.34663	0.76544
2904.41807	0.75246
2902.48950	0.74021
2900.56094	0.72820
2898.63237	0.71615
2896.70381	0.70419
2894.77524	0.69228
2892.84668	0.68034
2890.91812	0.66864
2888.98955	0.65742
2887.06099	0.64651
2885.13242	0.63576
2883.20386	0.62520
2881.27529	0.61474
2879.34673	0.60425
2877.41816	0.59391
2875.48960	0.58392
2873.56104	0.57417
2871.63247	0.56442
2869.70391	0.55462
2867.77534	0.54489
2865.84678	0.53547
2863.91821	0.52623
2861.98965	0.51664
2860.06108	0.50705
2858.13252	0.49805
2856.20396	0.48945
2854.27539	0.48121
2852.34683	0.47358
2850.41826	0.46639
2848.48970	0.45935
2846.56113	0.45247
2844.63257	0.44584
2842.70400	0.43936
2840.77544	0.43319
2838.84687	0.42756
2836.91831	0.42219
2834.98975	0.41664
2833.06118	0.41082
2831.13262	0.40508
2829.20405	0.39959
2827.27549	0.39399
2825.34692	0.38815
2823.41836	0.38236
2821.48979	0.37679
2819.56123	0.37131
2817.63267	0.36589
2815.70410	0.36068
2813.77554	0.35554
2811.84697	0.35024
2809.91841	0.34486
2807.98984	0.33967
2806.06128	0.33486
2804.13271	0.33029
2802.20415	0.32570
2800.27559	0.32113
2798.34702	0.31664
2796.41846	0.31220
2794.48989	0.30780
2792.56133	0.30345
2790.63276	0.29924
2788.70420	0.29523
2786.77563	0.29137
2784.84707	0.28747
2782.91851	0.28359
2780.98994	0.27995
2779.06138	0.27639
2777.13281	0.27280
2775.20425	0.26923
2773.27568	0.26570
2771.34712	0.26228
2769.41855	0.25903
2767.48999	0.25588
2765.56143	0.25273
2763.63286	0.24954
2761.70430	0.24639
2759.77573	0.24341
2757.84717	0.24061
2755.91860	0.23783
2753.99004	0.23498
2752.06147	0.23229
2750.13291	0.22980
2748.20435	0.22724
2746.27578	0.22458
2744.34722	0.22199
2742.41865	0.21945
2740.49009	0.21700
2738.56152	0.21467
2736.63296	0.21241
2734.70439	0.21022
2732.77583	0.20806
2730.84727	0.20598
2728.91870	0.20409
2726.99014	0.20224
2725.06157	0.20026
2723.13301	0.19813
2721.20444	0.19610
2719.27588	0.19430
2717.34731	0.19256
2715.41875	0.19083
2713.49019	0.18923
2711.56162	0.18772
2709.63306	0.18610
2707.70449	0.18443
2705.77593	0.18288
2703.84736	0.18142
2701.91880	0.17987
2699.99023	0.17820
2698.06167	0.17661
2696.13311	0.17521
2694.20454	0.17395
2692.27598	0.17272
2690.34741	0.17150
2688.41885	0.17040
2686.49028	0.16933
2684.56172	0.16809
2682.63315	0.16683
2680.70459	0.16568
2678.77603	0.16460
2676.84746	0.16359
2674.91890	0.16259
2672.99033	0.16153
2671.06177	0.16056
2669.13320	0.15975
2667.20464	0.15901
2665.27607	0.15809
2663.34751	0.15720
2661.41895	0.15658
2659.49038	0.15591
2657.56182	0.15508
2655.63325	0.15436
2653.70469	0.15387
2651.77612	0.15338
2649.84756	0.15272
2647.91899	0.15200
2645.99043	0.15134
2644.06187	0.15071
2642.13330	0.15009
2640.20474	0.14957
2638.27617	0.14911
2636.34761	0.14873
2634.41904	0.14838
2632.49048	0.14796
2630.56191	0.14757
2628.63335	0.14734
2626.70479	0.14712
2624.77622	0.14689
2622.84766	0.14671
2620.91909	0.14650
2618.99053	0.14630
2617.06196	0.14620
2615.13340	0.14613
2613.20483	0.14601
2611.27627	0.14584
2609.34771	0.14568
2607.41914	0.14561
2605.49058	0.14571
2603.56201	0.14588
2601.63345	0.14600
2599.70488	0.14604
2597.77632	0.14610
2595.84775	0.14615
2593.91919	0.14612
2591.99062	0.14617
2590.06206	0.14653
2588.13350	0.14696
2586.20493	0.14717
2584.27637	0.14730
2582.34780	0.14750
2580.41924	0.14775
2578.49067	0.14802
2576.56211	0.14840
2574.63354	0.14884
2572.70498	0.14927
2570.77642	0.14971
2568.84785	0.15011
2566.91929	0.15050
2564.99072	0.15100
2563.06216	0.15160
2561.13359	0.15210
2559.20503	0.15249
2557.27646	0.15285
2555.34790	0.15337
2553.41934	0.15412
2551.49077	0.15485
2549.56221	0.15541
2547.63364	0.15593
2545.70508	0.15655
2543.77651	0.15724
2541.84795	0.15789
2539.91938	0.15850
2537.99082	0.15915
2536.06226	0.15978
2534.13369	0.16047
2532.20513	0.16119
2530.27656	0.16184
2528.34800	0.16254
2526.41943	0.16334
2524.49087	0.16416
2522.56230	0.16498
2520.63374	0.16578
2518.70518	0.16651
2516.77661	0.16723
2514.84805	0.16808
2512.91948	0.16899
2510.99092	0.16984
2509.06235	0.17062
2507.13379	0.17142
2505.20522	0.17226
2503.27666	0.17316
2501.34810	0.17401
2499.41953	0.17482
2497.49097	0.17566
2495.56240	0.17650
2493.63384	0.17748
2491.70527	0.17850
2489.77671	0.17940
2487.84814	0.18027
2485.91958	0.18119
2483.99102	0.18211
2482.06245	0.18302
2480.13389	0.18388
2478.20532	0.18481
2476.27676	0.18580
2474.34819	0.18671
2472.41963	0.18759
2470.49106	0.18850
2468.56250	0.18941
2466.63394	0.19038
2464.70537	0.19132
2462.77681	0.19219
2460.84824	0.19312
2458.91968	0.19413
2456.99111	0.19515
2455.06255	0.19617
2453.13398	0.19725
2451.20542	0.19832
2449.27686	0.19929
2447.34829	0.20014
2445.41973	0.20097
2443.49116	0.20194
2441.56260	0.20304
2439.63403	0.20412
2437.70547	0.20513
2435.77690	0.20617
2433.84834	0.20725
2431.91978	0.20827
2429.99121	0.20935
2428.06265	0.21063
2426.13408	0.21195
2424.20552	0.21308
2422.27695	0.21408
2420.34839	0.21513
2418.41982	0.21635
2416.49126	0.21758
2414.56270	0.21862
2412.63413	0.21963
2410.70557	0.22073
2408.77700	0.22186
2406.84844	0.22303
2404.91987	0.22427
2402.99131	0.22547
2401.06274	0.22662
2399.13418	0.22777
2397.20562	0.22896
2395.27705	0.23023
2393.34849	0.23150
2391.41992	0.23285
2389.49136	0.23437
2387.56279	0.23604
2385.63423	0.23800
2383.70566	0.24056
2381.77710	0.24385
2379.84854	0.24774
2377.91997	0.25207
2375.99141	0.25681
2374.06284	0.26197
2372.13428	0.26750
2370.20571	0.27351
2368.27715	0.27992
2366.34858	0.28648
2364.42002	0.29275
2362.49146	0.29727
2360.56289	0.29902
2358.63433	0.29923
2356.70576	0.29845
2354.77720	0.29633
2352.84863	0.29323
2350.92007	0.28944
2348.99150	0.28687
2347.06294	0.28747
2345.13437	0.29179
2343.20581	0.29782
2341.27725	0.30149
2339.34868	0.30224
2337.42012	0.30252
2335.49155	0.30367
2333.56299	0.30504
2331.63442	0.30638
2329.70586	0.30746
2327.77729	0.30787
2325.84873	0.30787
2323.92017	0.30802
2321.99160	0.30825
2320.06304	0.30807
2318.13447	0.30761
2316.20591	0.30734
2314.27734	0.30774
2312.34878	0.30866
2310.42021	0.30941
2308.49165	0.30983
2306.56309	0.31011
2304.63452	0.31028
2302.70596	0.31064
2300.77739	0.31148
2298.84883	0.31261
2296.92026	0.31392
2294.99170	0.31534
2293.06313	0.31659
2291.13457	0.31763
2289.20601	0.31879
2287.27744	0.32022
2285.34888	0.32179
2283.42031	0.32342
2281.49175	0.32519
2279.56318	0.32717
2277.63462	0.32931
2275.70605	0.33144
2273.77749	0.33342
2271.84893	0.33538
2269.92036	0.33754
2267.99180	0.33978
2266.06323	0.34195
2264.13467	0.34402
2262.20610	0.34604
2260.27754	0.34799
2258.34897	0.34993
2256.42041	0.35195
2254.49185	0.35410
2252.56328	0.35621
2250.63472	0.35820
2248.70615	0.36020
2246.77759	0.36236
2244.84902	0.36456
2242.92046	0.36663
2240.99189	0.36865
2239.06333	0.37078
2237.13477	0.37298
2235.20620	0.37506
2233.27764	0.37708
2231.34907	0.37927
2229.42051	0.38170
2227.49194	0.38422
2225.56338	0.38662
2223.63481	0.38879
2221.70625	0.39088
2219.77769	0.39306
2217.84912	0.39519
2215.92056	0.39720
2213.99199	0.39921
2212.06343	0.40140
2210.13486	0.40369
2208.20630	0.40581
2206.27773	0.40778
2204.34917	0.40976
2202.42061	0.41176
2200.49204	0.41382
2198.56348	0.41605
2196.63491	0.41823
2194.70635	0.42010
2192.77778	0.42177
2190.84922	0.42349
2188.92065	0.42534
2186.99209	0.42728
2185.06353	0.42916
2183.13496	0.43090
2181.20640	0.43249
2179.27783	0.43407
2177.34927	0.43568
2175.42070	0.43729
2173.49214	0.43889
2171.56357	0.44044
2169.63501	0.44189
2167.70645	0.44321
2165.77788	0.44448
2163.84932	0.44579
2161.92075	0.44699
2159.99219	0.44808
2158.06362	0.44917
2156.13506	0.45030
2154.20649	0.45140
2152.27793	0.45239
2150.34937	0.45312
2148.42080	0.45363
2146.49224	0.45414
2144.56367	0.45472
2142.63511	0.45521
2140.70654	0.45559
2138.77798	0.45604
2136.84941	0.45647
2134.92085	0.45662
2132.99229	0.45654
2131.06372	0.45644
2129.13516	0.45636
2127.20659	0.45624
2125.27803	0.45606
2123.34946	0.45579
2121.42090	0.45545
2119.49233	0.45495
2117.56377	0.45443
2115.63521	0.45389
2113.70664	0.45313
2111.77808	0.45232
2109.84951	0.45161
2107.92095	0.45087
2105.99238	0.45005
2104.06382	0.44915
2102.13525	0.44797
2100.20669	0.44651
2098.27812	0.44500
2096.34956	0.44361
2094.42100	0.44232
2092.49243	0.44103
2090.56387	0.43960
2088.63530	0.43793
2086.70674	0.43614
2084.77817	0.43432
2082.84961	0.43251
2080.92104	0.43071
2078.99248	0.42881
2077.06392	0.42682
2075.13535	0.42483
2073.20679	0.42281
2071.27822	0.42065
2069.34966	0.41841
2067.42109	0.41621
2065.49253	0.41409
2063.56396	0.41183
2061.63540	0.40942
2059.70684	0.40706
2057.77827	0.40474
2055.84971	0.40229
2053.92114	0.39965
2051.99258	0.39705
2050.06401	0.39456
2048.13545	0.39197
2046.20688	0.38930
2044.27832	0.38679
2042.34976	0.38440
2040.42119	0.38188
2038.49263	0.37916
2036.56406	0.37642
2034.63550	0.37379
2032.70693	0.37116
2030.77837	0.36842
2028.84980	0.36566
2026.92124	0.36291
2024.99268	0.36018
2023.06411	0.35755
2021.13555	0.35498
2019.20698	0.35245
2017.27842	0.34994
2015.34985	0.34715
2013.42129	0.34413
2011.49272	0.34124
2009.56416	0.33857
2007.63560	0.33597
2005.70703	0.33329
2003.77847	0.33054
2001.84990	0.32787
1999.92134	0.32533
1997.99277	0.32277
1996.06421	0.32030
1994.13564	0.31815
1992.20708	0.31612
1990.27852	0.31368
1988.34995	0.31089
1986.42139	0.30804
1984.49282	0.30529
1982.56426	0.30279
1980.63569	0.30055
1978.70713	0.29838
1976.77856	0.29618
1974.85000	0.29396
1972.92144	0.29178
1970.99287	0.28968
1969.06431	0.28784
1967.13574	0.28608
1965.20718	0.28393
1963.27861	0.28162
1961.35005	0.27959
1959.42148	0.27763
1957.49292	0.27566
1955.56436	0.27378
1953.63579	0.27196
1951.70723	0.27018
1949.77866	0.26856
1947.85010	0.26712
1945.92153	0.26584
1943.99297	0.26477
1942.06440	0.26360
1940.13584	0.26178
1938.20728	0.25967
1936.27871	0.25796
1934.35015	0.25666
1932.42158	0.25547
1930.49302	0.25422
1928.56445	0.25300
1926.63589	0.25202
1924.70732	0.25154
1922.77876	0.25116
1920.85020	0.25026
1918.92163	0.24927
1916.99307	0.24822
1915.06450	0.24672
1913.13594	0.24543
1911.20737	0.24485
1909.27881	0.24449
1907.35024	0.24371
1905.42168	0.24265
1903.49312	0.24177
1901.56455	0.24105
1899.63599	0.24045
1897.70742	0.24018
1895.77886	0.24018
1893.85029	0.24001
1891.92173	0.23964
1889.99316	0.23951
1888.06460	0.23914
1886.13604	0.23840
1884.20747	0.23791
1882.27891	0.23767
1880.35034	0.23749
1878.42178	0.23737
1876.49321	0.23732
1874.56465	0.23734
1872.63608	0.23767
1870.70752	0.23872
1868.77896	0.24026
1866.85039	0.24054
1864.92183	0.23944
1862.99326	0.23866
1861.06470	0.23862
1859.13613	0.23893
1857.20757	0.23919
1855.27900	0.23953
1853.35044	0.23999
1851.42187	0.24062
1849.49331	0.24148
1847.56475	0.24273
1845.63618	0.24435
1843.70762	0.24577
1841.77905	0.24587
1839.85049	0.24545
1837.92192	0.24590
1835.99336	0.24682
1834.06479	0.24767
1832.13623	0.24895
1830.20767	0.25125
1828.27910	0.25325
1826.35054	0.25410
1824.42197	0.25493
1822.49341	0.25555
1820.56484	0.25618
1818.63628	0.25730
1816.70771	0.25886
1814.77915	0.26051
1812.85059	0.26255
1810.92202	0.26504
1808.99346	0.26716
1807.06489	0.26876
1805.13633	0.27051
1803.20776	0.27304
1801.27920	0.27610
1799.35063	0.27906
1797.42207	0.28145
1795.49351	0.28403
1793.56494	0.28754
1791.63638	0.29164
1789.70781	0.29417
1787.77925	0.29560
1785.85068	0.29836
1783.92212	0.30219
1781.99355	0.30632
1780.06499	0.31066
1778.13643	0.31488
1776.20786	0.31901
1774.27930	0.32421
1772.35073	0.33135
1770.42217	0.33780
1768.49360	0.34197
1766.56504	0.34593
1764.63647	0.35068
1762.70791	0.35682
1760.77935	0.36463
1758.85078	0.37150
1756.92222	0.37838
1754.99365	0.38589
1753.06509	0.39301
1751.13652	0.40238
1749.20796	0.41422
1747.27939	0.42473
1745.35083	0.43317
1743.42227	0.44218
1741.49370	0.45249
1739.56514	0.46493
1737.63657	0.47743
1735.70801	0.48881
1733.77944	0.50629
1731.85088	0.52579
1729.92231	0.54003
1727.99375	0.55457
1726.06519	0.57074
1724.13662	0.58908
1722.20806	0.60912
1720.27949	0.62810
1718.35093	0.65136
1716.42236	0.68483
1714.49380	0.71415
1712.56523	0.73690
1710.63667	0.75968
1708.70811	0.78516
1706.77954	0.81483
1704.85098	0.85010
1702.92241	0.88107
1700.99385	0.91181
1699.06528	0.95772
1697.13672	0.99909
1695.20815	1.03970
1693.27959	1.07804
1691.35103	1.10930
1689.42246	1.14648
1687.49390	1.18560
1685.56533	1.22309
1683.63677	1.28078
1681.70820	1.33938
1679.77964	1.37601
1677.85107	1.41136
1675.92251	1.45288
1673.99395	1.50433
1672.06538	1.54954
1670.13682	1.59359
1668.20825	1.64929
1666.27969	1.69233
1664.35112	1.72831
1662.42256	1.77340
1660.49399	1.82332
1658.56543	1.86194
1656.63687	1.89410
1654.70830	1.92613
1652.77974	1.98180
1650.85117	2.03572
1648.92261	2.05732
1646.99404	2.08824
1645.06548	2.12354
1643.13691	2.14511
1641.20835	2.15875
1639.27979	2.17245
1637.35122	2.18518
1635.42266	2.19381
1633.49409	2.19066
1631.56553	2.17869
1629.63696	2.16473
1627.70840	2.14294
1625.77983	2.11793
1623.85127	2.08414
1621.92271	2.03920
1619.99414	1.99781
1618.06558	1.95814
1616.13701	1.90077
1614.20845	1.83943
1612.27988	1.79220
1610.35132	1.74391
1608.42275	1.69202
1606.49419	1.64032
1604.56562	1.59205
1602.63706	1.54534
1600.70850	1.49918
1598.77993	1.45583
1596.85137	1.41450
1594.92280	1.37408
1592.99424	1.33460
1591.06567	1.29801
1589.13711	1.26352
1587.20854	1.23095
1585.27998	1.20009
1583.35142	1.17044
1581.42285	1.14281
1579.49429	1.11926
1577.56572	1.09837
1575.63716	1.07123
1573.70859	1.04512
1571.78003	1.02792
1569.85146	1.01037
1567.92290	0.98930
1565.99434	0.97146
1564.06577	0.95629
1562.13721	0.94400
1560.20864	0.93477
1558.28008	0.91767
1556.35151	0.89805
1554.42295	0.88508
1552.49438	0.87296
1550.56582	0.86149
1548.63726	0.85042
1546.70869	0.84140
1544.78013	0.83446
1542.85156	0.82840
1540.92300	0.82119
1538.99443	0.80767
1537.06587	0.79599
1535.13730	0.78924
1533.20874	0.78202
1531.28018	0.77349
1529.35161	0.76699
1527.42305	0.76167
1525.49448	0.75646
1523.56592	0.75196
1521.63735	0.74726
1519.70879	0.74079
1517.78022	0.73478
1515.85166	0.72848
1513.92310	0.72191
1511.99453	0.71725
1510.06597	0.71474
1508.13740	0.71374
1506.20884	0.70887
1504.28027	0.70037
1502.35171	0.69521
1500.42314	0.69219
1498.49458	0.69011
1496.56602	0.68733
1494.63745	0.68325
1492.70889	0.68009
1490.78032	0.67889
1488.85176	0.67763
1486.92319	0.67398
1484.99463	0.66976
1483.06606	0.66671
1481.13750	0.66458
1479.20894	0.66269
1477.28037	0.66127
1475.35181	0.66059
1473.42324	0.65988
1471.49468	0.65685
1469.56611	0.65238
1467.63755	0.64918
1465.70898	0.64717
1463.78042	0.64491
1461.85186	0.64254
1459.92329	0.64159
1457.99473	0.64182
1456.06616	0.63969
1454.13760	0.63472
1452.20903	0.63077
1450.28047	0.62823
1448.35190	0.62651
1446.42334	0.62436
1444.49478	0.62174
1442.56621	0.61947
1440.63765	0.61780
1438.70908	0.61689
1436.78052	0.61625
1434.85195	0.61458
1432.92339	0.61247
1430.99482	0.61090
1429.06626	0.60931
1427.13770	0.60753
1425.20913	0.60631
1423.28057	0.60549
1421.35200	0.60458
1419.42344	0.60366
1417.49487	0.60179
1415.56631	0.59895
1413.63774	0.59661
1411.70918	0.59478
1409.78062	0.59310
1407.85205	0.59163
1405.92349	0.59041
1403.99492	0.58894
1402.06636	0.58732
1400.13779	0.58628
1398.20923	0.58558
1396.28066	0.58468
1394.35210	0.58326
1392.42354	0.58119
1390.49497	0.57949
1388.56641	0.57864
1386.63784	0.57782
1384.70928	0.57628
1382.78071	0.57476
1380.85215	0.57376
1378.92358	0.57317
1376.99502	0.57288
1375.06646	0.57276
1373.13789	0.57214
1371.20933	0.57093
1369.28076	0.56986
1367.35220	0.56890
1365.42363	0.56806
1363.49507	0.56771
1361.56650	0.56707
1359.63794	0.56549
1357.70937	0.56393
1355.78081	0.56281
1353.85225	0.56177
1351.92368	0.56077
1349.99512	0.55993
1348.06655	0.55907
1346.13799	0.55805
1344.20942	0.55711
1342.28086	0.55664
1340.35229	0.55663
1338.42373	0.55613
1336.49517	0.55456
1334.56660	0.55282
1332.63804	0.55159
1330.70947	0.55072
1328.78091	0.54993
1326.85234	0.54912
1324.92378	0.54827
1322.99521	0.54748
1321.06665	0.54694
1319.13809	0.54656
1317.20952	0.54598
1315.28096	0.54523
1313.35239	0.54443
1311.42383	0.54341
1309.49526	0.54223
1307.56670	0.54115
1305.63813	0.54019
1303.70957	0.53943
1301.78101	0.53878
1299.85244	0.53805
1297.92388	0.53729
1295.99531	0.53654
1294.06675	0.53572
1292.13818	0.53491
1290.20962	0.53426
1288.28105	0.53376
1286.35249	0.53329
1284.42393	0.53276
1282.49536	0.53223
1280.56680	0.53181
1278.63823	0.53137
1276.70967	0.53087
1274.78110	0.53040
1272.85254	0.53005
1270.92397	0.52973
1268.99541	0.52939
1267.06685	0.52906
1265.13828	0.52869
1263.20972	0.52831
1261.28115	0.52806
1259.35259	0.52781
1257.42402	0.52739
1255.49546	0.52697
1253.56689	0.52668
1251.63833	0.52638
1249.70977	0.52604
1247.78120	0.52584
1245.85264	0.52569
1243.92407	0.52527
1241.99551	0.52469
1240.06694	0.52417
1238.13838	0.52370
1236.20981	0.52328
1234.28125	0.52294
1232.35269	0.52253
1230.42412	0.52197
1228.49556	0.52130
1226.56699	0.52057
1224.63843	0.51983
1222.70986	0.51904
1220.78130	0.51824
1218.85273	0.51747
1216.92417	0.51675
1214.99561	0.51614
1213.06704	0.51557
1211.13848	0.51499
1209.20991	0.51438
1207.28135	0.51391
1205.35278	0.51354
1203.42422	0.51312
1201.49565	0.51263
1199.56709	0.51203
1197.63853	0.51140
1195.70996	0.51095
1193.78140	0.51056
1191.85283	0.51000
1189.92427	0.50945
1187.99570	0.50921
1186.06714	0.50908
1184.13857	0.50887
1182.21001	0.50890
1180.28145	0.50934
1178.35288	0.50997
1176.42432	0.51055
1174.49575	0.51109
1172.56719	0.51169
1170.63862	0.51240
1168.71006	0.51319
1166.78149	0.51396
1164.85293	0.51481
1162.92437	0.51574
1160.99580	0.51640
1159.06724	0.51661
1157.13867	0.51650
1155.21011	0.51616
1153.28154	0.51533
1151.35298	0.51383
1149.42441	0.51183
1147.49585	0.50966
1145.56729	0.50744
1143.63872	0.50501
1141.71016	0.50237
1139.78159	0.49990
1137.85303	0.49796
1135.92446	0.49636
1133.99590	0.49494
1132.06733	0.49374
1130.13877	0.49253
1128.21021	0.49124
1126.28164	0.49018
1124.35308	0.48944
1122.42451	0.48883
1120.49595	0.48846
1118.56738	0.48854
1116.63882	0.48895
1114.71025	0.48940
1112.78169	0.48987
1110.85312	0.49054
1108.92456	0.49153
1106.99600	0.49263
1105.06743	0.49367
1103.13887	0.49492
1101.21030	0.49660
1099.28174	0.49833
1097.35317	0.50017
1095.42461	0.50277
1093.49604	0.50644
1091.56748	0.51112
1089.63892	0.51698
1087.71035	0.52401
1085.78179	0.53200
1083.85322	0.54038
1081.92466	0.54800
1079.99609	0.55378
1078.06753	0.55716
1076.13896	0.55778
1074.21040	0.55537
1072.28184	0.55028
1070.35327	0.54368
1068.42471	0.53678
1066.49614	0.52996
1064.56758	0.52356
1062.63901	0.51816
1060.71045	0.51363
1058.78188	0.50952
1056.85332	0.50576
1054.92476	0.50249
1052.99619	0.49975
1051.06763	0.49755
1049.13906	0.49609
1047.21050	0.49541
1045.28193	0.49523
1043.35337	0.49512
1041.42480	0.49504
1039.49624	0.49524
1037.56768	0.49566
1035.63911	0.49592
1033.71055	0.49577
1031.78198	0.49517
1029.85342	0.49421
1027.92485	0.49310
1025.99629	0.49204
1024.06772	0.49122
1022.13916	0.49083
1020.21060	0.49080
1018.28203	0.49087
1016.35347	0.49101
1014.42490	0.49129
1012.49634	0.49169
1010.56777	0.49199
1008.63921	0.49230
1006.71064	0.49317
1004.78208	0.49463
1002.85352	0.49637
1000.92495	0.49847
998.99639	0.50137
997.06782	0.50506
995.13926	0.50920
993.21069	0.51333
991.28213	0.51673
989.35356	0.51876
987.42500	0.51951
985.49644	0.51979
983.56787	0.52011
981.63931	0.52068
979.71074	0.52168
977.78218	0.52320
975.85361	0.52533
973.92505	0.52789
971.99648	0.53056
970.06792	0.53358
968.13936	0.53709
966.21079	0.54090
964.28223	0.54522
962.35366	0.55004
960.42510	0.55504
958.49653	0.56032
956.56797	0.56592
954.63940	0.57175
952.71084	0.57786
950.78228	0.58414
948.85371	0.59051
946.92515	0.59692
944.99658	0.60320
943.06802	0.60938
941.13945	0.61541
939.21089	0.62105
937.28232	0.62640
935.35376	0.63180
933.42520	0.63729
931.49663	0.64270
929.56807	0.64779
927.63950	0.65302
925.71094	0.65933
923.78237	0.66611
921.85381	0.67219
919.92524	0.67819
917.99668	0.68508
916.06812	0.69267
914.13955	0.70000
912.21099	0.70732
910.28242	0.71571
908.35386	0.72461
906.42529	0.73323
904.49673	0.74191
902.56816	0.75092
900.63960	0.76003
898.71104	0.76926
896.78247	0.77877
894.85391	0.78834
892.92534	0.79799
890.99678	0.80811
889.06821	0.81839
887.13965	0.82795
885.21108	0.83752
883.28252	0.84884
881.35396	0.86136
879.42539	0.87293
877.49683	0.88298
875.56826	0.89316
873.63970	0.90483
871.71113	0.91750
869.78257	0.93002
867.85400	0.94193
865.92544	0.95361
863.99687	0.96529
862.06831	0.97719
860.13975	0.98934
858.21118	1.00014
856.28262	1.00834
854.35405	1.01725
852.42549	1.02934
850.49692	1.04095
848.56836	1.05041
846.63979	1.06123
844.71123	1.07410
842.78267	1.08712
840.85410	1.09960
838.92554	1.11037
836.99697	1.12068
835.06841	1.13418
833.13984	1.15090
831.21128	1.16595
829.28271	1.17550
827.35415	1.18165
825.42559	1.18985
823.49702	1.20318
821.56846	1.21611
819.63989	1.22562
817.71133	1.23624
815.78276	1.24428
813.85420	1.24616
811.92563	1.25533
809.99707	1.27646
808.06851	1.29148
806.13994	1.29694
804.21138	1.30806
802.28281	1.34059
800.35425	1.39519
798.42568	1.42621
796.49712	1.41036
794.56855	1.40621
792.63999	1.41157
790.71143	1.38203
788.78286	1.37192
786.85430	1.43668
784.92573	1.52370
782.99717	1.50188
781.06860	1.43426
779.14004	1.40956
777.21147	1.44109
775.28291	1.57574
773.35435	1.73701
771.42578	1.64060
769.49722	1.46780
767.56865	1.39024
765.64009	1.36110
763.71152	1.38484
761.78296	1.44188
759.85439	1.50286
757.92583	1.41339
755.99727	1.17972
754.06870	1.08442
752.14014	1.10208
750.21157	1.14748
748.28301	1.24115
746.35444	1.33948
744.42588	1.25437
742.49731	1.10610
740.56875	0.96890
738.64019	0.83170
736.71162	0.74382
734.78306	0.74306
732.85449	0.79282
730.92593	0.79531
728.99736	0.75761
727.06880	0.71178
725.14023	0.54855
723.21167	0.38259
721.28311	0.28216
719.35454	0.20094
717.42598	0.13213
715.49741	0.11418
713.56885	0.09785
711.64028	-0.02892
709.71172	-0.18622
707.78315	-0.14829
705.85459	0.03874
703.92603	0.23450
701.99746	0.36716
700.06890	0.44406
698.14033	0.38652
696.21177	0.24886
694.28320	0.13441
692.35464	0.07908
690.42607	0.07645
688.49751	0.08807
686.56895	0.10713
684.64038	0.14584
682.71182	0.19117
680.78325	0.22149
678.85469	0.27383
676.92612	0.32869
674.99756	0.21015
673.06899	0.12136
671.14043	0.19736
669.21187	0.31178
667.28330	0.31425
665.35474	0.27493
663.42617	0.34686
661.49761	0.59054
659.56904	0.75182
657.64048	0.46857
655.71191	0.29684
653.78335	0.20935
651.85479	0.16639
649.92622	0.15697
647.99766	0.18039
646.06909	0.18616
644.14053	0.21205
642.21196	0.29944
640.28340	0.28967
638.35483	0.21410
636.42627	0.20416
634.49771	0.25127
632.56914	0.27698
630.64058	0.21899
628.71201	0.13161
626.78345	0.08020
624.85488	0.10321
622.92632	0.18456
620.99775	0.19677
619.06919	0.12299
617.14062	0.07777
615.21206	0.09607
613.28350	0.17147
611.35493	0.32099
609.42637	0.35334
607.49780	0.28003
605.56924	0.26125
603.64067	0.28859
601.71211	0.33034
599.78354	0.32595
597.85498	0.23811
595.92642	0.16602
593.99785	0.13230
592.06929	0.13066
590.14072	0.19637
588.21216	0.33557
586.28359	0.36644
584.35503	0.21820
582.42646	0.11340
580.49790	0.11865
578.56934	0.17909
576.64077	0.19993
574.71221	0.21642
572.78364	0.25116
570.85508	0.23048
568.92651	0.19690
566.99795	0.20890
565.06938	0.24735
563.14082	0.26819
561.21226	0.20877
559.28369	0.12210
557.35513	0.09766
555.42656	0.13941
553.49800	0.23716
551.56943	0.35498
549.64087	0.35638
547.71230	0.23207
545.78374	0.15881
543.85518	0.15644
541.92661	0.17200
539.99805	0.16704
538.06948	0.17145
536.14092	0.20232
534.21235	0.16218
532.28379	0.10215
530.35522	0.09598
528.42666	0.11909
526.49810	0.14621
524.56953	0.16557
522.64097	0.17128
520.71240	0.16153
518.78384	0.14824
516.85527	0.15106
514.92671	0.17364
512.99814	0.20348
511.06958	0.21089
509.14102	0.19708
507.21245	0.19722
505.28389	0.19746
503.35532	0.16385
501.42676	0.13147
499.49819	0.11408
