3997.91411	0.06856
3995.98555	0.06889
3994.05698	0.06936
3992.12842	0.06968
3990.19985	0.06966
3988.27129	0.06965
3986.34272	0.06991
3984.41416	0.07041
3982.48560	0.07079
3980.55703	0.07077
3978.62847	0.07060
3976.69990	0.07079
3974.77134	0.07136
3972.84277	0.07192
3970.91421	0.07227
3968.98564	0.07255
3967.05708	0.07277
3965.12852	0.07286
3963.19995	0.07297
3961.27139	0.07319
3959.34282	0.07335
3957.41426	0.07338
3955.48569	0.07336
3953.55713	0.07311
3951.62856	0.07296
3949.70000	0.07344
3947.77144	0.07426
3945.84287	0.07457
3943.91431	0.07462
3941.98574	0.07465
3940.05718	0.07387
3938.12861	0.07286
3936.20005	0.07279
3934.27148	0.07364
3932.34292	0.07478
3930.41436	0.07518
3928.48579	0.07480
3926.55723	0.07480
3924.62866	0.07519
3922.70010	0.07491
3920.77153	0.07415
3918.84297	0.07414
3916.91440	0.07475
3914.98584	0.07442
3913.05728	0.07317
3911.12871	0.07251
3909.20015	0.07262
3907.27158	0.07306
3905.34302	0.07447
3903.41445	0.07694
3901.48589	0.07844
3899.55732	0.07816
3897.62876	0.07679
3895.70020	0.07507
3893.77163	0.07444
3891.84307	0.07528
3889.91450	0.07568
3887.98594	0.07459
3886.05737	0.07443
3884.12881	0.07593
3882.20024	0.07697
3880.27168	0.07703
3878.34312	0.07601
3876.41455	0.07471
3874.48599	0.07504
3872.55742	0.07676
3870.62886	0.07852
3868.70029	0.07945
3866.77173	0.07899
3864.84316	0.07884
3862.91460	0.07940
3860.98604	0.07888
3859.05747	0.07798
3857.12891	0.07835
3855.20034	0.08022
3853.27178	0.08334
3851.34321	0.08461
3849.41465	0.08237
3847.48608	0.08042
3845.55752	0.08009
3843.62896	0.08130
3841.70039	0.08335
3839.77183	0.08556
3837.84326	0.08748
3835.91470	0.08784
3833.98613	0.08722
3832.05757	0.08699
3830.12900	0.08708
3828.20044	0.08740
3826.27187	0.08838
3824.34331	0.08959
3822.41475	0.09094
3820.48618	0.09321
3818.55762	0.09444
3816.62905	0.09445
3814.70049	0.09450
3812.77192	0.09350
3810.84336	0.09266
3808.91479	0.09343
3806.98623	0.09563
3805.05767	0.09792
3803.12910	0.09996
3801.20054	0.10257
3799.27197	0.10394
3797.34341	0.10376
3795.41484	0.10370
3793.48628	0.10359
3791.55771	0.10408
3789.62915	0.10545
3787.70059	0.10698
3785.77202	0.10877
3783.84346	0.11079
3781.91489	0.11242
3779.98633	0.11403
3778.05776	0.11575
3776.12920	0.11688
3774.20063	0.11786
3772.27207	0.11943
3770.34351	0.12197
3768.41494	0.12481
3766.48638	0.12670
3764.55781	0.12840
3762.62925	0.13034
3760.70068	0.13245
3758.77212	0.13521
3756.84355	0.13813
3754.91499	0.14057
3752.98643	0.14353
3751.05786	0.14839
3749.12930	0.15402
3747.20073	0.15702
3745.27217	0.15914
3743.34360	0.16250
3741.41504	0.16561
3739.48647	0.16822
3737.55791	0.17185
3735.62935	0.17766
3733.70078	0.18456
3731.77222	0.18881
3729.84365	0.19132
3727.91509	0.19465
3725.98652	0.20021
3724.05796	0.20752
3722.12939	0.21463
3720.20083	0.22124
3718.27227	0.22785
3716.34370	0.23458
3714.41514	0.24172
3712.48657	0.25154
3710.55801	0.26646
3708.62944	0.28132
3706.70088	0.29198
3704.77231	0.30240
3702.84375	0.31576
3700.91519	0.33333
3698.98662	0.35194
3697.05806	0.36941
3695.12949	0.38836
3693.20093	0.40892
3691.27236	0.43175
3689.34380	0.46136
3687.41523	0.49646
3685.48667	0.52614
3683.55811	0.55169
3681.62954	0.57959
3679.70098	0.61176
3677.77241	0.64660
3675.84385	0.68822
3673.91528	0.74310
3671.98672	0.78711
3670.05815	0.82595
3668.12959	0.87923
3666.20103	0.92746
3664.27246	0.96748
3662.34390	1.01071
3660.41533	1.05807
3658.48677	1.10525
3656.55820	1.15567
3654.62964	1.21210
3652.70107	1.25976
3650.77251	1.30172
3648.84395	1.36000
3646.91538	1.42965
3644.98682	1.47874
3643.05825	1.51700
3641.12969	1.55780
3639.20112	1.60307
3637.27256	1.64819
3635.34399	1.69185
3633.41543	1.73557
3631.48687	1.77692
3629.55830	1.81902
3627.62974	1.87347
3625.70117	1.92344
3623.77261	1.95643
3621.84404	1.98882
3619.91548	2.02792
3617.98691	2.07566
3616.05835	2.12046
3614.12979	2.15703
3612.20122	2.19549
3610.27266	2.23416
3608.34409	2.27362
3606.41553	2.31665
3604.48696	2.35625
3602.55840	2.39085
3600.62983	2.42792
3598.70127	2.46768
3596.77271	2.50685
3594.84414	2.54927
3592.91558	2.59429
3590.98701	2.63361
3589.05845	2.66754
3587.12988	2.71010
3585.20132	2.76084
3583.27275	2.80292
3581.34419	2.83800
3579.41562	2.87546
3577.48706	2.91766
3575.55850	2.96115
3573.62993	3.00462
3571.70137	3.04650
3569.77280	3.08704
3567.84424	3.13036
3565.91567	3.18358
3563.98711	3.23556
3562.05854	3.27606
3560.12998	3.31463
3558.20142	3.35678
3556.27285	3.40118
3554.34429	3.44523
3552.41572	3.49200
3550.48716	3.54038
3548.55859	3.58465
3546.63003	3.62751
3544.70146	3.67635
3542.77290	3.72760
3540.84434	3.77414
3538.91577	3.81845
3536.98721	3.86382
3535.05864	3.91045
3533.13008	3.95597
3531.20151	4.00228
3529.27295	4.05002
3527.34438	4.09834
3525.41582	4.14728
3523.48726	4.19522
3521.55869	4.24166
3519.63013	4.28879
3517.70156	4.33985
3515.77300	4.39183
3513.84443	4.44091
3511.91587	4.48582
3509.98730	4.52972
3508.05874	4.57658
3506.13018	4.62222
3504.20161	4.66491
3502.27305	4.71138
3500.34448	4.76337
3498.41592	4.81464
3496.48735	4.86366
3494.55879	4.91154
3492.63022	4.95724
3490.70166	5.00148
3488.77310	5.04763
3486.84453	5.09390
3484.91597	5.13990
3482.98740	5.19133
3481.05884	5.24436
3479.13027	5.29222
3477.20171	5.34123
3475.27314	5.39350
3473.34458	5.44002
3471.41602	5.47932
3469.48745	5.52283
3467.55889	5.57574
3465.63032	5.62522
3463.70176	5.66710
3461.77319	5.71426
3459.84463	5.76972
3457.91606	5.81950
3455.98750	5.86403
3454.05894	5.91542
3452.13037	5.96801
3450.20181	6.01030
3448.27324	6.04912
3446.34468	6.10340
3444.41611	6.16443
3442.48755	6.22271
3440.55898	6.28712
3438.63042	6.34691
3436.70186	6.39267
3434.77329	6.44219
3432.84473	6.49776
3430.91616	6.54102
3428.98760	6.58171
3427.05903	6.63102
3425.13047	6.68648
3423.20190	6.74252
3421.27334	6.79282
3419.34478	6.82763
3417.41621	6.86468
3415.48765	6.91424
3413.55908	6.93203
3411.63052	6.93565
3409.70195	6.98497
3407.77339	7.05783
3405.84482	7.09429
3403.91626	7.11914
3401.98770	7.17302
3400.05913	7.24155
3398.13057	7.30252
3396.20200	7.37028
3394.27344	7.43461
3392.34487	7.42611
3390.41631	7.40729
3388.48774	7.46180
3386.55918	7.53557
3384.63062	7.55224
3382.70205	7.55913
3380.77349	7.61437
3378.84492	7.67091
3376.91636	7.70655
3374.98779	7.74186
3373.05923	7.79214
3371.13066	7.82371
3369.20210	7.83163
3367.27354	7.84119
3365.34497	7.82782
3363.41641	7.80911
3361.48784	7.85293
3359.55928	7.93965
3357.63071	7.97447
3355.70215	7.95564
3353.77358	7.93445
3351.84502	7.94615
3349.91646	7.94143
3347.98789	7.89292
3346.05933	7.86572
3344.13076	7.88578
3342.20220	7.93760
3340.27363	7.97850
3338.34507	7.99323
3336.41650	8.00634
3334.48794	8.06411
3332.55937	8.13166
3330.63081	8.12287
3328.70225	8.07283
3326.77368	8.06936
3324.84512	8.13360
3322.91655	8.20063
3320.98799	8.18632
3319.05942	8.10087
3317.13086	8.02585
3315.20229	8.00625
3313.27373	8.05150
3311.34517	8.07817
3309.41660	8.03863
3307.48804	8.01931
3305.55947	8.06427
3303.63091	8.10484
3301.70234	8.06133
3299.77378	8.01515
3297.84521	8.05975
3295.91665	8.17692
3293.98809	8.23791
3292.05952	8.20950
3290.13096	8.19363
3288.20239	8.18044
3286.27383	8.13992
3284.34526	8.07451
3282.41670	8.01381
3280.48813	7.99320
3278.55957	8.01454
3276.63101	8.08010
3274.70244	8.17879
3272.77388	8.25181
3270.84531	8.30400
3268.91675	8.39348
3266.98818	8.45306
3265.05962	8.35959
3263.13105	8.20600
3261.20249	8.20663
3259.27393	8.32514
3257.34536	8.36732
3255.41680	8.28407
3253.48823	8.15029
3251.55967	8.07226
3249.63110	8.07435
3247.70254	8.11491
3245.77397	8.19365
3243.84541	8.27690
3241.91685	8.29217
3239.98828	8.27356
3238.05972	8.22301
3236.13115	8.15839
3234.20259	8.14232
3232.27402	8.13812
3230.34546	8.16790
3228.41689	8.22786
3226.48833	8.20302
3224.55977	8.12169
3222.63120	8.07933
3220.70264	8.06755
3218.77407	8.01957
3216.84551	7.93409
3214.91694	7.89289
3212.98838	7.90569
3211.05981	7.87556
3209.13125	7.76512
3207.20269	7.70468
3205.27412	7.77163
3203.34556	7.83766
3201.41699	7.78927
3199.48843	7.70655
3197.55986	7.64279
3195.63130	7.56391
3193.70273	7.47648
3191.77417	7.39823
3189.84561	7.36233
3187.91704	7.37835
3185.98848	7.35990
3184.05991	7.28638
3182.13135	7.20774
3180.20278	7.13443
3178.27422	7.08582
3176.34565	7.06328
3174.41709	7.02344
3172.48853	6.95059
3170.55996	6.87982
3168.63140	6.83407
3166.70283	6.77471
3164.77427	6.67735
3162.84570	6.59185
3160.91714	6.55277
3158.98857	6.52959
3157.06001	6.47282
3155.13145	6.39380
3153.20288	6.33056
3151.27432	6.27702
3149.34575	6.21329
3147.41719	6.14130
3145.48862	6.06979
3143.56006	5.99571
3141.63149	5.92004
3139.70293	5.84941
3137.77437	5.77859
3135.84580	5.69798
3133.91724	5.61745
3131.98867	5.55178
3130.06011	5.49610
3128.13154	5.43669
3126.20298	5.36833
3124.27441	5.29400
3122.34585	5.21607
3120.41729	5.14361
3118.48872	5.08009
3116.56016	5.01840
3114.63159	4.95534
3112.70303	4.88596
3110.77446	4.81113
3108.84590	4.74028
3106.91733	4.67432
3104.98877	4.60686
3103.06021	4.53769
3101.13164	4.46884
3099.20308	4.40247
3097.27451	4.34129
3095.34595	4.27919
3093.41738	4.21277
3091.48882	4.14908
3089.56025	4.08782
3087.63169	4.02349
3085.70312	3.95982
3083.77456	3.90122
3081.84600	3.84501
3079.91743	3.78824
3077.98887	3.72967
3076.06030	3.66864
3074.13174	3.60837
3072.20317	3.55254
3070.27461	3.49884
3068.34604	3.44456
3066.41748	3.38999
3064.48892	3.33509
3062.56035	3.28089
3060.63179	3.22846
3058.70322	3.17689
3056.77466	3.12474
3054.84609	3.07142
3052.91753	3.01833
3050.98896	2.96718
3049.06040	2.91802
3047.13184	2.86957
3045.20327	2.82106
3043.27471	2.77276
3041.34614	2.72531
3039.41758	2.67931
3037.48901	2.63413
3035.56045	2.58931
3033.63188	2.54600
3031.70332	2.50347
3029.77476	2.46040
3027.84619	2.41827
3025.91763	2.37734
3023.98906	2.33586
3022.06050	2.29425
3020.13193	2.25395
3018.20337	2.21456
3016.27480	2.17553
3014.34624	2.13744
3012.41768	2.10023
3010.48911	2.06332
3008.56055	2.02690
3006.63198	1.99115
3004.70342	1.95594
3002.77485	1.92127
3000.84629	1.88759
2998.91772	1.85517
2996.98916	1.82366
2995.06060	1.79248
2993.13203	1.76130
2991.20347	1.73063
2989.27490	1.70086
2987.34634	1.67167
2985.41777	1.64298
2983.48921	1.61471
2981.56064	1.58703
2979.63208	1.56021
2977.70352	1.53369
2975.77495	1.50727
2973.84639	1.48170
2971.91782	1.45685
2969.98926	1.43198
2968.06069	1.40725
2966.13213	1.38326
2964.20356	1.36008
2962.27500	1.33726
2960.34644	1.31434
2958.41787	1.29103
2956.48931	1.26744
2954.56074	1.24427
2952.63218	1.22188
2950.70361	1.19985
2948.77505	1.17792
2946.84648	1.15616
2944.91792	1.13475
2942.98936	1.11367
2941.06079	1.09305
2939.13223	1.07334
2937.20366	1.05425
2935.27510	1.03524
2933.34653	1.01657
2931.41797	0.99838
2929.48940	0.98014
2927.56084	0.96204
2925.63228	0.94448
2923.70371	0.92710
2921.77515	0.90955
2919.84658	0.89245
2917.91802	0.87644
2915.98945	0.86111
2914.06089	0.84568
2912.13232	0.83018
2910.20376	0.81519
2908.27520	0.80053
2906.34663	0.78602
2904.41807	0.77213
2902.48950	0.75911
2900.56094	0.74644
2898.63237	0.73362
2896.70381	0.72076
2894.77524	0.70819
2892.84668	0.69626
2890.91812	0.68481
2888.98955	0.67364
2887.06099	0.66292
2885.13242	0.65263
2883.20386	0.64250
2881.27529	0.63245
2879.34673	0.62253
2877.41816	0.61287
2875.48960	0.60347
2873.56104	0.59391
2871.63247	0.58386
2869.70391	0.57353
2867.77534	0.56317
2865.84678	0.55273
2863.91821	0.54221
2861.98965	0.53173
2860.06108	0.52149
2858.13252	0.51182
2856.20396	0.50281
2854.27539	0.49419
2852.34683	0.48610
2850.41826	0.47862
2848.48970	0.47105
2846.56113	0.46318
2844.63257	0.45566
2842.70400	0.44882
2840.77544	0.44258
2838.84687	0.43677
2836.91831	0.43114
2834.98975	0.42544
2833.06118	0.41957
2831.13262	0.41371
2829.20405	0.40799
2827.27549	0.40229
2825.34692	0.39653
2823.41836	0.39078
2821.48979	0.38516
2819.56123	0.37976
2817.63267	0.37434
2815.70410	0.36885
2813.77554	0.36360
2811.84697	0.35862
2809.91841	0.35357
2807.98984	0.34842
2806.06128	0.34340
2804.13271	0.33849
2802.20415	0.33351
2800.27559	0.32858
2798.34702	0.32394
2796.41846	0.31935
2794.48989	0.31472
2792.56133	0.31036
2790.63276	0.30620
2788.70420	0.30205
2786.77563	0.29792
2784.84707	0.29370
2782.91851	0.28956
2780.98994	0.28566
2779.06138	0.28198
2777.13281	0.27854
2775.20425	0.27524
2773.27568	0.27178
2771.34712	0.26812
2769.41855	0.26446
2767.48999	0.26096
2765.56143	0.25765
2763.63286	0.25444
2761.70430	0.25122
2759.77573	0.24809
2757.84717	0.24518
2755.91860	0.24229
2753.99004	0.23933
2752.06147	0.23646
2750.13291	0.23362
2748.20435	0.23082
2746.27578	0.22817
2744.34722	0.22560
2742.41865	0.22303
2740.49009	0.22053
2738.56152	0.21812
2736.63296	0.21576
2734.70439	0.21350
2732.77583	0.21129
2730.84727	0.20897
2728.91870	0.20662
2726.99014	0.20441
2725.06157	0.20229
2723.13301	0.20017
2721.20444	0.19812
2719.27588	0.19619
2717.34731	0.19441
2715.41875	0.19267
2713.49019	0.19085
2711.56162	0.18900
2709.63306	0.18722
2707.70449	0.18561
2705.77593	0.18426
2703.84736	0.18307
2701.91880	0.18170
2699.99023	0.18001
2698.06167	0.17831
2696.13311	0.17689
2694.20454	0.17569
2692.27598	0.17439
2690.34741	0.17297
2688.41885	0.17173
2686.49028	0.17058
2684.56172	0.16931
2682.63315	0.16804
2680.70459	0.16689
2678.77603	0.16579
2676.84746	0.16471
2674.91890	0.16380
2672.99033	0.16296
2671.06177	0.16202
2669.13320	0.16102
2667.20464	0.16010
2665.27607	0.15932
2663.34751	0.15860
2661.41895	0.15788
2659.49038	0.15705
2657.56182	0.15617
2655.63325	0.15540
2653.70469	0.15478
2651.77612	0.15417
2649.84756	0.15347
2647.91899	0.15279
2645.99043	0.15230
2644.06187	0.15195
2642.13330	0.15160
2640.20474	0.15124
2638.27617	0.15082
2636.34761	0.15024
2634.41904	0.14965
2632.49048	0.14922
2630.56191	0.14889
2628.63335	0.14850
2626.70479	0.14816
2624.77622	0.14791
2622.84766	0.14762
2620.91909	0.14739
2618.99053	0.14727
2617.06196	0.14717
2615.13340	0.14704
2613.20483	0.14685
2611.27627	0.14661
2609.34771	0.14644
2607.41914	0.14636
2605.49058	0.14630
2603.56201	0.14622
2601.63345	0.14623
2599.70488	0.14629
2597.77632	0.14629
2595.84775	0.14631
2593.91919	0.14645
2591.99062	0.14665
2590.06206	0.14681
2588.13350	0.14694
2586.20493	0.14708
2584.27637	0.14720
2582.34780	0.14740
2580.41924	0.14776
2578.49067	0.14810
2576.56211	0.14833
2574.63354	0.14854
2572.70498	0.14877
2570.77642	0.14908
2568.84785	0.14951
2566.91929	0.14990
2564.99072	0.15027
2563.06216	0.15068
2561.13359	0.15105
2559.20503	0.15141
2557.27646	0.15183
2555.34790	0.15228
2553.41934	0.15289
2551.49077	0.15360
2549.56221	0.15418
2547.63364	0.15464
2545.70508	0.15515
2543.77651	0.15577
2541.84795	0.15646
2539.91938	0.15715
2537.99082	0.15778
2536.06226	0.15822
2534.13369	0.15856
2532.20513	0.15920
2530.27656	0.16009
2528.34800	0.16086
2526.41943	0.16152
2524.49087	0.16223
2522.56230	0.16292
2520.63374	0.16351
2518.70518	0.16412
2516.77661	0.16486
2514.84805	0.16566
2512.91948	0.16648
2510.99092	0.16732
2509.06235	0.16812
2507.13379	0.16889
2505.20522	0.16965
2503.27666	0.17044
2501.34810	0.17130
2499.41953	0.17215
2497.49097	0.17286
2495.56240	0.17362
2493.63384	0.17456
2491.70527	0.17554
2489.77671	0.17651
2487.84814	0.17741
2485.91958	0.17816
2483.99102	0.17884
2482.06245	0.17961
2480.13389	0.18048
2478.20532	0.18144
2476.27676	0.18230
2474.34819	0.18298
2472.41963	0.18374
2470.49106	0.18469
2468.56250	0.18569
2466.63394	0.18660
2464.70537	0.18739
2462.77681	0.18815
2460.84824	0.18913
2458.91968	0.19034
2456.99111	0.19156
2455.06255	0.19258
2453.13398	0.19343
2451.20542	0.19424
2449.27686	0.19520
2447.34829	0.19629
2445.41973	0.19726
2443.49116	0.19806
2441.56260	0.19888
2439.63403	0.19993
2437.70547	0.20107
2435.77690	0.20214
2433.84834	0.20314
2431.91978	0.20414
2429.99121	0.20506
2428.06265	0.20598
2426.13408	0.20697
2424.20552	0.20801
2422.27695	0.20914
2420.34839	0.21042
2418.41982	0.21165
2416.49126	0.21277
2414.56270	0.21388
2412.63413	0.21498
2410.70557	0.21615
2408.77700	0.21734
2406.84844	0.21843
2404.91987	0.21952
2402.99131	0.22070
2401.06274	0.22191
2399.13418	0.22311
2397.20562	0.22430
2395.27705	0.22540
2393.34849	0.22639
2391.41992	0.22755
2389.49136	0.22899
2387.56279	0.23061
2385.63423	0.23250
2383.70566	0.23488
2381.77710	0.23768
2379.84854	0.24077
2377.91997	0.24424
2375.99141	0.24811
2374.06284	0.25239
2372.13428	0.25701
2370.20571	0.26201
2368.27715	0.26743
2366.34858	0.27264
2364.42002	0.27716
2362.49146	0.28161
2360.56289	0.28536
2358.63433	0.28663
2356.70576	0.28549
2354.77720	0.28323
2352.84863	0.28080
2350.92007	0.27818
2348.99150	0.27643
2347.06294	0.27712
2345.13437	0.28090
2343.20581	0.28607
2341.27725	0.28926
2339.34868	0.29053
2337.42012	0.29176
2335.49155	0.29302
2333.56299	0.29373
2331.63442	0.29447
2329.70586	0.29551
2327.77729	0.29650
2325.84873	0.29724
2323.92017	0.29755
2321.99160	0.29770
2320.06304	0.29795
2318.13447	0.29799
2316.20591	0.29785
2314.27734	0.29805
2312.34878	0.29876
2310.42021	0.29963
2308.49165	0.30033
2306.56309	0.30092
2304.63452	0.30167
2302.70596	0.30280
2300.77739	0.30412
2298.84883	0.30533
2296.92026	0.30653
2294.99170	0.30783
2293.06313	0.30919
2291.13457	0.31060
2289.20601	0.31203
2287.27744	0.31343
2285.34888	0.31490
2283.42031	0.31659
2281.49175	0.31847
2279.56318	0.32047
2277.63462	0.32259
2275.70605	0.32482
2273.77749	0.32701
2271.84893	0.32911
2269.92036	0.33113
2267.99180	0.33311
2266.06323	0.33518
2264.13467	0.33721
2262.20610	0.33908
2260.27754	0.34098
2258.34897	0.34310
2256.42041	0.34525
2254.49185	0.34728
2252.56328	0.34932
2250.63472	0.35144
2248.70615	0.35351
2246.77759	0.35551
2244.84902	0.35752
2242.92046	0.35961
2240.99189	0.36187
2239.06333	0.36413
2237.13477	0.36627
2235.20620	0.36842
2233.27764	0.37065
2231.34907	0.37279
2229.42051	0.37484
2227.49194	0.37692
2225.56338	0.37908
2223.63481	0.38124
2221.70625	0.38341
2219.77769	0.38558
2217.84912	0.38770
2215.92056	0.38988
2213.99199	0.39208
2212.06343	0.39424
2210.13486	0.39640
2208.20630	0.39853
2206.27773	0.40053
2204.34917	0.40246
2202.42061	0.40444
2200.49204	0.40647
2198.56348	0.40846
2196.63491	0.41035
2194.70635	0.41226
2192.77778	0.41417
2190.84922	0.41602
2188.92065	0.41789
2186.99209	0.41981
2185.06353	0.42170
2183.13496	0.42342
2181.20640	0.42496
2179.27783	0.42646
2177.34927	0.42807
2175.42070	0.42978
2173.49214	0.43150
2171.56357	0.43308
2169.63501	0.43441
2167.70645	0.43565
2165.77788	0.43696
2163.84932	0.43824
2161.92075	0.43938
2159.99219	0.44044
2158.06362	0.44148
2156.13506	0.44249
2154.20649	0.44339
2152.27793	0.44430
2150.34937	0.44523
2148.42080	0.44602
2146.49224	0.44657
2144.56367	0.44701
2142.63511	0.44756
2140.70654	0.44817
2138.77798	0.44863
2136.84941	0.44879
2134.92085	0.44882
2132.99229	0.44889
2131.06372	0.44889
2129.13516	0.44875
2127.20659	0.44858
2125.27803	0.44850
2123.34946	0.44845
2121.42090	0.44819
2119.49233	0.44763
2117.56377	0.44699
2115.63521	0.44646
2113.70664	0.44588
2111.77808	0.44510
2109.84951	0.44423
2107.92095	0.44340
2105.99238	0.44246
2104.06382	0.44131
2102.13525	0.44009
2100.20669	0.43892
2098.27812	0.43763
2096.34956	0.43621
2094.42100	0.43477
2092.49243	0.43330
2090.56387	0.43183
2088.63530	0.43035
2086.70674	0.42881
2084.77817	0.42714
2082.84961	0.42531
2080.92104	0.42328
2078.99248	0.42127
2077.06392	0.41936
2075.13535	0.41743
2073.20679	0.41547
2071.27822	0.41347
2069.34966	0.41134
2067.42109	0.40911
2065.49253	0.40686
2063.56396	0.40458
2061.63540	0.40229
2059.70684	0.40001
2057.77827	0.39764
2055.84971	0.39521
2053.92114	0.39277
2051.99258	0.39030
2050.06401	0.38784
2048.13545	0.38538
2046.20688	0.38282
2044.27832	0.38023
2042.34976	0.37766
2040.42119	0.37502
2038.49263	0.37232
2036.56406	0.36971
2034.63550	0.36718
2032.70693	0.36446
2030.77837	0.36161
2028.84980	0.35884
2026.92124	0.35617
2024.99268	0.35347
2023.06411	0.35080
2021.13555	0.34819
2019.20698	0.34566
2017.27842	0.34311
2015.34985	0.34032
2013.42129	0.33744
2011.49272	0.33466
2009.56416	0.33196
2007.63560	0.32927
2005.70703	0.32659
2003.77847	0.32398
2001.84990	0.32149
1999.92134	0.31902
1997.99277	0.31648
1996.06421	0.31396
1994.13564	0.31163
1992.20708	0.30940
1990.27852	0.30690
1988.34995	0.30430
1986.42139	0.30176
1984.49282	0.29923
1982.56426	0.29681
1980.63569	0.29448
1978.70713	0.29221
1976.77856	0.29006
1974.85000	0.28797
1972.92144	0.28581
1970.99287	0.28367
1969.06431	0.28174
1967.13574	0.27988
1965.20718	0.27778
1963.27861	0.27556
1961.35005	0.27342
1959.42148	0.27137
1957.49292	0.26949
1955.56436	0.26778
1953.63579	0.26611
1951.70723	0.26442
1949.77866	0.26274
1947.85010	0.26115
1945.92153	0.25982
1943.99297	0.25869
1942.06440	0.25734
1940.13584	0.25560
1938.20728	0.25389
1936.27871	0.25239
1934.35015	0.25103
1932.42158	0.24977
1930.49302	0.24853
1928.56445	0.24737
1926.63589	0.24637
1924.70732	0.24552
1922.77876	0.24472
1920.85020	0.24379
1918.92163	0.24285
1916.99307	0.24188
1915.06450	0.24080
1913.13594	0.23985
1911.20737	0.23925
1909.27881	0.23872
1907.35024	0.23792
1905.42168	0.23697
1903.49312	0.23617
1901.56455	0.23548
1899.63599	0.23490
1897.70742	0.23453
1895.77886	0.23429
1893.85029	0.23400
1891.92173	0.23369
1889.99316	0.23352
1888.06460	0.23318
1886.13604	0.23261
1884.20747	0.23223
1882.27891	0.23206
1880.35034	0.23192
1878.42178	0.23175
1876.49321	0.23168
1874.56465	0.23172
1872.63608	0.23191
1870.70752	0.23240
1868.77896	0.23323
1866.85039	0.23349
1864.92183	0.23304
1862.99326	0.23281
1861.06470	0.23297
1859.13613	0.23324
1857.20757	0.23345
1855.27900	0.23381
1853.35044	0.23425
1851.42187	0.23475
1849.49331	0.23541
1847.56475	0.23629
1845.63618	0.23739
1843.70762	0.23861
1841.77905	0.23922
1839.85049	0.23935
1837.92192	0.23989
1835.99336	0.24072
1834.06479	0.24164
1832.13623	0.24281
1830.20767	0.24449
1828.27910	0.24606
1826.35054	0.24707
1824.42197	0.24816
1822.49341	0.24910
1820.56484	0.25004
1818.63628	0.25132
1816.70771	0.25293
1814.77915	0.25460
1812.85059	0.25647
1810.92202	0.25859
1808.99346	0.26055
1807.06489	0.26230
1805.13633	0.26414
1803.20776	0.26645
1801.27920	0.26917
1799.35063	0.27198
1797.42207	0.27436
1795.49351	0.27680
1793.56494	0.27983
1791.63638	0.28348
1789.70781	0.28652
1787.77925	0.28868
1785.85068	0.29158
1783.92212	0.29528
1781.99355	0.29927
1780.06499	0.30340
1778.13643	0.30753
1776.20786	0.31155
1774.27930	0.31616
1772.35073	0.32235
1770.42217	0.32855
1768.49360	0.33336
1766.56504	0.33802
1764.63647	0.34311
1762.70791	0.34904
1760.77935	0.35649
1758.85078	0.36337
1756.92222	0.37026
1754.99365	0.37783
1753.06509	0.38492
1751.13652	0.39364
1749.20796	0.40450
1747.27939	0.41481
1745.35083	0.42367
1743.42227	0.43295
1741.49370	0.44315
1739.56514	0.45532
1737.63657	0.46762
1735.70801	0.47849
1733.77944	0.49492
1731.85088	0.51433
1729.92231	0.52930
1727.99375	0.54439
1726.06519	0.56091
1724.13662	0.57927
1722.20806	0.59921
1720.27949	0.61772
1718.35093	0.63941
1716.42236	0.67093
1714.49380	0.70041
1712.56523	0.72434
1710.63667	0.74790
1708.70811	0.77355
1706.77954	0.80297
1704.85098	0.83816
1702.92241	0.86942
1700.99385	0.90036
1699.06528	0.94652
1697.13672	0.98868
1695.20815	1.03136
1693.27959	1.07293
1691.35103	1.10690
1689.42246	1.14657
1687.49390	1.18860
1685.56533	1.22931
1683.63677	1.29210
1681.70820	1.35684
1679.77964	1.39795
1677.85107	1.43732
1675.92251	1.48305
1673.99395	1.53996
1672.06538	1.59066
1670.13682	1.64002
1668.20825	1.70376
1666.27969	1.75577
1664.35112	1.80087
1662.42256	1.85799
1660.49399	1.92140
1658.56543	1.97100
1656.63687	2.01283
1654.70830	2.05211
1652.77974	2.11056
1650.85117	2.16561
1648.92261	2.18687
1646.99404	2.21382
1645.06548	2.24337
1643.13691	2.26162
1641.20835	2.27142
1639.27979	2.28143
1637.35122	2.28987
1635.42266	2.29308
1633.49409	2.28653
1631.56553	2.27158
1629.63696	2.25329
1627.70840	2.22515
1625.77983	2.19321
1623.85127	2.15302
1621.92271	2.10276
1619.99414	2.05707
1618.06558	2.01254
1616.13701	1.94876
1614.20845	1.88270
1612.27988	1.83228
1610.35132	1.78032
1608.42275	1.72417
1606.49419	1.66857
1604.56562	1.61735
1602.63706	1.56815
1600.70850	1.51998
1598.77993	1.47534
1596.85137	1.43316
1594.92280	1.39218
1592.99424	1.35301
1591.06567	1.31770
1589.13711	1.28496
1587.20854	1.25418
1585.27998	1.22524
1583.35142	1.19812
1581.42285	1.17370
1579.49429	1.15326
1577.56572	1.13524
1575.63716	1.11320
1573.70859	1.09327
1571.78003	1.08019
1569.85146	1.06689
1567.92290	1.05209
1565.99434	1.04093
1564.06577	1.03267
1562.13721	1.02665
1560.20864	1.02359
1558.28008	1.02122
1556.35151	1.01768
1554.42295	1.01453
1552.49438	1.01167
1550.56582	1.00805
1548.63726	1.00256
1546.70869	0.99580
1544.78013	0.98778
1542.85156	0.97815
1540.92300	0.96465
1538.99443	0.94126
1537.06587	0.92229
1535.13730	0.90977
1533.20874	0.89404
1531.28018	0.87678
1529.35161	0.86409
1527.42305	0.85277
1525.49448	0.84136
1523.56592	0.83158
1521.63735	0.82209
1519.70879	0.81225
1517.78022	0.80397
1515.85166	0.79417
1513.92310	0.78350
1511.99453	0.77447
1510.06597	0.76680
1508.13740	0.75953
1506.20884	0.74737
1504.28027	0.73603
1502.35171	0.72984
1500.42314	0.72495
1498.49458	0.71989
1496.56602	0.71332
1494.63745	0.70625
1492.70889	0.70107
1490.78032	0.69705
1488.85176	0.69199
1486.92319	0.68639
1484.99463	0.68184
1483.06606	0.67844
1481.13750	0.67567
1479.20894	0.67339
1477.28037	0.67185
1475.35181	0.67106
1473.42324	0.67079
1471.49468	0.66940
1469.56611	0.66656
1467.63755	0.66398
1465.70898	0.66198
1463.78042	0.66011
1461.85186	0.65866
1459.92329	0.65828
1457.99473	0.65881
1456.06616	0.65795
1454.13760	0.65466
1452.20903	0.65165
1450.28047	0.64931
1448.35190	0.64722
1446.42334	0.64485
1444.49478	0.64238
1442.56621	0.64005
1440.63765	0.63783
1438.70908	0.63577
1436.78052	0.63337
1434.85195	0.63031
1432.92339	0.62764
1430.99482	0.62583
1429.06626	0.62455
1427.13770	0.62357
1425.20913	0.62323
1423.28057	0.62348
1421.35200	0.62369
1419.42344	0.62373
1417.49487	0.62311
1415.56631	0.62162
1413.63774	0.62047
1411.70918	0.62014
1409.78062	0.62046
1407.85205	0.62111
1405.92349	0.62199
1403.99492	0.62274
1402.06636	0.62280
1400.13779	0.62244
1398.20923	0.62155
1396.28066	0.61968
1394.35210	0.61668
1392.42354	0.61307
1390.49497	0.60980
1388.56641	0.60683
1386.63784	0.60329
1384.70928	0.59910
1382.78071	0.59506
1380.85215	0.59153
1378.92358	0.58861
1376.99502	0.58638
1375.06646	0.58489
1373.13789	0.58360
1371.20933	0.58229
1369.28076	0.58126
1367.35220	0.58024
1365.42363	0.57903
1363.49507	0.57787
1361.56650	0.57662
1359.63794	0.57517
1357.70937	0.57391
1355.78081	0.57285
1353.85225	0.57188
1351.92368	0.57102
1349.99512	0.57024
1348.06655	0.56945
1346.13799	0.56866
1344.20942	0.56792
1342.28086	0.56750
1340.35229	0.56743
1338.42373	0.56708
1336.49517	0.56629
1334.56660	0.56555
1332.63804	0.56502
1330.70947	0.56471
1328.78091	0.56467
1326.85234	0.56488
1324.92378	0.56523
1322.99521	0.56560
1321.06665	0.56590
1319.13809	0.56607
1317.20952	0.56604
1315.28096	0.56586
1313.35239	0.56557
1311.42383	0.56504
1309.49526	0.56450
1307.56670	0.56410
1305.63813	0.56359
1303.70957	0.56294
1301.78101	0.56232
1299.85244	0.56158
1297.92388	0.56074
1295.99531	0.55982
1294.06675	0.55873
1292.13818	0.55762
1290.20962	0.55659
1288.28105	0.55564
1286.35249	0.55477
1284.42393	0.55391
1282.49536	0.55293
1280.56680	0.55191
1278.63823	0.55097
1276.70967	0.55018
1274.78110	0.54942
1272.85254	0.54856
1270.92397	0.54782
1268.99541	0.54734
1267.06685	0.54685
1265.13828	0.54617
1263.20972	0.54546
1261.28115	0.54474
1259.35259	0.54408
1257.42402	0.54361
1255.49546	0.54332
1253.56689	0.54312
1251.63833	0.54303
1249.70977	0.54301
1247.78120	0.54294
1245.85264	0.54284
1243.92407	0.54258
1241.99551	0.54198
1240.06694	0.54100
1238.13838	0.53983
1236.20981	0.53852
1234.28125	0.53688
1232.35269	0.53507
1230.42412	0.53347
1228.49556	0.53208
1226.56699	0.53079
1224.63843	0.52958
1222.70986	0.52846
1220.78130	0.52737
1218.85273	0.52631
1216.92417	0.52530
1214.99561	0.52447
1213.06704	0.52376
1211.13848	0.52296
1209.20991	0.52210
1207.28135	0.52126
1205.35278	0.52039
1203.42422	0.51952
1201.49565	0.51877
1199.56709	0.51822
1197.63853	0.51781
1195.70996	0.51737
1193.78140	0.51696
1191.85283	0.51671
1189.92427	0.51652
1187.99570	0.51627
1186.06714	0.51612
1184.13857	0.51613
1182.21001	0.51630
1180.28145	0.51678
1178.35288	0.51759
1176.42432	0.51847
1174.49575	0.51933
1172.56719	0.52011
1170.63862	0.52044
1168.71006	0.52021
1166.78149	0.51983
1164.85293	0.51954
1162.92437	0.51929
1160.99580	0.51895
1159.06724	0.51834
1157.13867	0.51739
1155.21011	0.51626
1153.28154	0.51508
1151.35298	0.51363
1149.42441	0.51175
1147.49585	0.50960
1145.56729	0.50726
1143.63872	0.50488
1141.71016	0.50272
1139.78159	0.50082
1137.85303	0.49911
1135.92446	0.49754
1133.99590	0.49619
1132.06733	0.49513
1130.13877	0.49416
1128.21021	0.49312
1126.28164	0.49206
1124.35308	0.49101
1122.42451	0.49016
1120.49595	0.48960
1118.56738	0.48922
1116.63882	0.48902
1114.71025	0.48892
1112.78169	0.48882
1110.85312	0.48897
1108.92456	0.48966
1106.99600	0.49075
1105.06743	0.49203
1103.13887	0.49352
1101.21030	0.49524
1099.28174	0.49721
1097.35317	0.49964
1095.42461	0.50270
1093.49604	0.50646
1091.56748	0.51078
1089.63892	0.51543
1087.71035	0.52049
1085.78179	0.52642
1083.85322	0.53302
1081.92466	0.53931
1079.99609	0.54451
1078.06753	0.54790
1076.13896	0.54880
1074.21040	0.54700
1072.28184	0.54270
1070.35327	0.53676
1068.42471	0.53026
1066.49614	0.52377
1064.56758	0.51739
1062.63901	0.51142
1060.71045	0.50615
1058.78188	0.50157
1056.85332	0.49763
1054.92476	0.49419
1052.99619	0.49118
1051.06763	0.48864
1049.13906	0.48640
1047.21050	0.48420
1045.28193	0.48216
1043.35337	0.48050
1041.42480	0.47904
1039.49624	0.47777
1037.56768	0.47697
1035.63911	0.47656
1033.71055	0.47628
1031.78198	0.47617
1029.85342	0.47622
1027.92485	0.47636
1025.99629	0.47660
1024.06772	0.47697
1022.13916	0.47747
1020.21060	0.47805
1018.28203	0.47880
1016.35347	0.47974
1014.42490	0.48071
1012.49634	0.48168
1010.56777	0.48276
1008.63921	0.48405
1006.71064	0.48580
1004.78208	0.48798
1002.85352	0.49034
1000.92495	0.49304
998.99639	0.49633
997.06782	0.50001
995.13926	0.50376
993.21069	0.50743
991.28213	0.51073
989.35356	0.51339
987.42500	0.51524
985.49644	0.51616
983.56787	0.51658
981.63931	0.51718
979.71074	0.51837
977.78218	0.52019
975.85361	0.52246
973.92505	0.52514
971.99648	0.52824
970.06792	0.53163
968.13936	0.53526
966.21079	0.53914
964.28223	0.54333
962.35366	0.54804
960.42510	0.55329
958.49653	0.55867
956.56797	0.56400
954.63940	0.56958
952.71084	0.57564
950.78228	0.58190
948.85371	0.58812
946.92515	0.59449
944.99658	0.60101
943.06802	0.60716
941.13945	0.61296
939.21089	0.61878
937.28232	0.62447
935.35376	0.63004
933.42520	0.63558
931.49663	0.64087
929.56807	0.64595
927.63950	0.65127
925.71094	0.65694
923.78237	0.66294
921.85381	0.66909
919.92524	0.67525
917.99668	0.68203
916.06812	0.68958
914.13955	0.69692
912.21099	0.70411
910.28242	0.71190
908.35386	0.72010
906.42529	0.72856
904.49673	0.73733
902.56816	0.74592
900.63960	0.75445
898.71104	0.76383
896.78247	0.77400
894.85391	0.78424
892.92534	0.79441
890.99678	0.80408
889.06821	0.81354
887.13965	0.82367
885.21108	0.83454
883.28252	0.84549
881.35396	0.85550
879.42539	0.86572
877.49683	0.87740
875.56826	0.88965
873.63970	0.90171
871.71113	0.91286
869.78257	0.92310
867.85400	0.93433
865.92544	0.94762
863.99687	0.96080
862.06831	0.97209
860.13975	0.98325
858.21118	0.99475
856.28262	1.00491
854.35405	1.01473
852.42549	1.02539
850.49692	1.03577
848.56836	1.04583
846.63979	1.05767
844.71123	1.07099
842.78267	1.08303
840.85410	1.09628
838.92554	1.11177
836.99697	1.12295
835.06841	1.12847
833.13984	1.13579
831.21128	1.14766
829.28271	1.15750
827.35415	1.16394
825.42559	1.17333
823.49702	1.19005
821.56846	1.21459
819.63989	1.23547
817.71133	1.23769
815.78276	1.23402
813.85420	1.24776
811.92563	1.26987
809.99707	1.27665
808.06851	1.28175
806.13994	1.30633
804.21138	1.33589
802.28281	1.34807
800.35425	1.34010
798.42568	1.33683
796.49712	1.35098
794.56855	1.36343
792.63999	1.37531
790.71143	1.41011
788.78286	1.48900
786.85430	1.56735
784.92573	1.54125
782.99717	1.48917
781.06860	1.52242
779.14004	1.59386
777.21147	1.54338
775.28291	1.43054
773.35435	1.37754
771.42578	1.37489
769.49722	1.35823
767.56865	1.37508
765.64009	1.56981
763.71152	4.58227
761.78296	4.57070
759.85439	1.82009
757.92583	1.43290
755.99727	1.45762
754.06870	1.58206
752.14014	1.93854
750.21157	4.50127
748.28301	1.87046
746.35444	1.43445
744.42588	1.44819
742.49731	1.55921
740.56875	1.39323
738.64019	1.20752
736.71162	1.09495
734.78306	0.96000
732.85449	0.83507
730.92593	0.68928
728.99736	0.47282
727.06880	0.32204
725.14023	0.30815
723.21167	0.37255
721.28311	0.36867
719.35454	0.33345
717.42598	0.29189
715.49741	0.21255
713.56885	0.13408
711.64028	0.09214
709.71172	0.03507
707.78315	-0.04829
705.85459	-0.02861
703.92603	0.00298
701.99746	0.00408
700.06890	0.04830
698.14033	0.13568
696.21177	0.21196
694.28320	0.28216
692.35464	0.33656
690.42607	0.29876
688.49751	0.21459
686.56895	0.20301
684.64038	0.28118
682.71182	0.39422
680.78325	0.34903
678.85469	0.22899
676.92612	0.20139
674.99756	0.19805
673.06899	0.17315
671.14043	0.24935
669.21187	0.48254
667.28330	0.70939
665.35474	0.59478
663.42617	0.47906
661.49761	0.47061
659.56904	0.37435
657.64048	0.20512
655.71191	0.16277
653.78335	0.18450
651.85479	0.19683
649.92622	0.25417
647.99766	0.42865
646.06909	0.54451
644.14053	0.47479
642.21196	0.40405
640.28340	0.34813
638.35483	0.34652
636.42627	0.39912
634.49771	0.38261
632.56914	0.35176
630.64058	0.46658
628.71201	0.49159
626.78345	0.38604
624.85488	0.33109
622.92632	0.30389
620.99775	0.32637
619.06919	0.40289
617.14062	0.41222
615.21206	0.30954
613.28350	0.28247
611.35493	0.38641
609.42637	0.58476
607.49780	0.66851
605.56924	0.47247
603.64067	0.38353
601.71211	0.45240
599.78354	0.61002
597.85498	0.52774
595.92642	0.39483
593.99785	0.44169
592.06929	0.66645
590.14072	0.79899
588.21216	0.59890
586.28359	0.47572
584.35503	0.41155
582.42646	0.32389
580.49790	0.26942
578.56934	0.29995
576.64077	0.36806
574.71221	0.34279
572.78364	0.25846
570.85508	0.22933
568.92651	0.24946
566.99795	0.24430
565.06938	0.25395
563.14082	0.27979
561.21226	0.28859
559.28369	0.33194
557.35513	0.45364
555.42656	0.50824
553.49800	0.42382
551.56943	0.43532
549.64087	0.47946
547.71230	0.38166
545.78374	0.30257
543.85518	0.28419
541.92661	0.27335
539.99805	0.26302
538.06948	0.28182
536.14092	0.31082
534.21235	0.30154
532.28379	0.23867
530.35522	0.17715
528.42666	0.15828
526.49810	0.15179
524.56953	0.14348
522.64097	0.14658
520.71240	0.16918
518.78384	0.19959
516.85527	0.20871
514.92671	0.20933
512.99814	0.21235
511.06958	0.18944
509.14102	0.17527
507.21245	0.20983
505.28389	0.26395
503.35532	0.27621
501.42676	0.24659
499.49819	0.20344
