3997.91411	0.06526
3995.98555	0.06575
3994.05698	0.06652
3992.12842	0.06736
3990.19985	0.06793
3988.27129	0.06808
3986.34272	0.06801
3984.41416	0.06808
3982.48560	0.06842
3980.55703	0.06873
3978.62847	0.06867
3976.69990	0.06864
3974.77134	0.06907
3972.84277	0.06960
3970.91421	0.06980
3968.98564	0.06983
3967.05708	0.06994
3965.12852	0.06998
3963.19995	0.06999
3961.27139	0.07020
3959.34282	0.07052
3957.41426	0.07079
3955.48569	0.07078
3953.55713	0.07054
3951.62856	0.07071
3949.70000	0.07145
3947.77144	0.07191
3945.84287	0.07164
3943.91431	0.07158
3941.98574	0.07225
3940.05718	0.07251
3938.12861	0.07179
3936.20005	0.07099
3934.27148	0.07099
3932.34292	0.07197
3930.41436	0.07298
3928.48579	0.07265
3926.55723	0.07151
3924.62866	0.07118
3922.70010	0.07154
3920.77153	0.07170
3918.84297	0.07177
3916.91440	0.07187
3914.98584	0.07146
3913.05728	0.07055
3911.12871	0.07002
3909.20015	0.07008
3907.27158	0.07063
3905.34302	0.07198
3903.41445	0.07355
3901.48589	0.07429
3899.55732	0.07452
3897.62876	0.07381
3895.70020	0.07219
3893.77163	0.07151
3891.84307	0.07243
3889.91450	0.07315
3887.98594	0.07254
3886.05737	0.07260
3884.12881	0.07371
3882.20024	0.07432
3880.27168	0.07447
3878.34312	0.07390
3876.41455	0.07314
3874.48599	0.07391
3872.55742	0.07570
3870.62886	0.07686
3868.70029	0.07739
3866.77173	0.07756
3864.84316	0.07787
3862.91460	0.07798
3860.98604	0.07700
3859.05747	0.07619
3857.12891	0.07665
3855.20034	0.07831
3853.27178	0.08116
3851.34321	0.08250
3849.41465	0.08045
3847.48608	0.07866
3845.55752	0.07851
3843.62896	0.07972
3841.70039	0.08164
3839.77183	0.08390
3837.84326	0.08600
3835.91470	0.08651
3833.98613	0.08585
3832.05757	0.08536
3830.12900	0.08504
3828.20044	0.08519
3826.27187	0.08626
3824.34331	0.08745
3822.41475	0.08853
3820.48618	0.09056
3818.55762	0.09196
3816.62905	0.09194
3814.70049	0.09178
3812.77192	0.09136
3810.84336	0.09125
3808.91479	0.09230
3806.98623	0.09453
3805.05767	0.09691
3803.12910	0.09890
3801.20054	0.10116
3799.27197	0.10234
3797.34341	0.10217
3795.41484	0.10207
3793.48628	0.10188
3791.55771	0.10222
3789.62915	0.10367
3787.70059	0.10569
3785.77202	0.10783
3783.84346	0.10938
3781.91489	0.11016
3779.98633	0.11160
3778.05776	0.11390
3776.12920	0.11528
3774.20063	0.11618
3772.27207	0.11790
3770.34351	0.12061
3768.41494	0.12349
3766.48638	0.12556
3764.55781	0.12720
3762.62925	0.12872
3760.70068	0.13082
3758.77212	0.13386
3756.84355	0.13667
3754.91499	0.13896
3752.98643	0.14201
3751.05786	0.14718
3749.12930	0.15262
3747.20073	0.15444
3745.27217	0.15608
3743.34360	0.16034
3741.41504	0.16405
3739.48647	0.16631
3737.55791	0.16963
3735.62935	0.17585
3733.70078	0.18352
3731.77222	0.18791
3729.84365	0.19046
3727.91509	0.19399
3725.98652	0.19945
3724.05796	0.20616
3722.12939	0.21260
3720.20083	0.21888
3718.27227	0.22524
3716.34370	0.23198
3714.41514	0.23985
3712.48657	0.25078
3710.55801	0.26603
3708.62944	0.28036
3706.70088	0.29071
3704.77231	0.30110
3702.84375	0.31438
3700.91519	0.33201
3698.98662	0.35104
3697.05806	0.36874
3695.12949	0.38753
3693.20093	0.40797
3691.27236	0.43089
3689.34380	0.46024
3687.41523	0.49460
3685.48667	0.52400
3683.55811	0.54964
3681.62954	0.57783
3679.70098	0.61037
3677.77241	0.64508
3675.84385	0.68582
3673.91528	0.73938
3671.98672	0.78295
3670.05815	0.82212
3668.12959	0.87546
3666.20103	0.92364
3664.27246	0.96408
3662.34390	1.00796
3660.41533	1.05574
3658.48677	1.10313
3656.55820	1.15349
3654.62964	1.20941
3652.70107	1.25648
3650.77251	1.29806
3648.84395	1.35622
3646.91538	1.42634
3644.98682	1.47598
3643.05825	1.51379
3641.12969	1.55357
3639.20112	1.59840
3637.27256	1.64378
3635.34399	1.68807
3633.41543	1.73278
3631.48687	1.77446
3629.55830	1.81525
3627.62974	1.86792
3625.70117	1.91850
3623.77261	1.95402
3621.84404	1.98884
3619.91548	2.02880
3617.98691	2.07542
3616.05835	2.11839
3614.12979	2.15394
3612.20122	2.19211
3610.27266	2.23052
3608.34409	2.26958
3606.41553	2.31269
3604.48696	2.35314
3602.55840	2.38871
3600.62983	2.42708
3598.70127	2.46910
3596.77271	2.50982
3594.84414	2.55055
3592.91558	2.59180
3590.98701	2.63003
3589.05845	2.66670
3587.12988	2.71088
3585.20132	2.75785
3583.27275	2.79734
3581.34419	2.83456
3579.41562	2.87507
3577.48706	2.91856
3575.55850	2.96162
3573.62993	3.00361
3571.70137	3.04374
3569.77280	3.08350
3567.84424	3.12770
3565.91567	3.18142
3563.98711	3.23171
3562.05854	3.27147
3560.12998	3.31180
3558.20142	3.35670
3556.27285	3.40370
3554.34429	3.44951
3552.41572	3.49560
3550.48716	3.54235
3548.55859	3.58816
3546.63003	3.63273
3544.70146	3.67777
3542.77290	3.72386
3540.84434	3.77058
3538.91577	3.81942
3536.98721	3.86971
3535.05864	3.91979
3533.13008	3.96671
3531.20151	4.01068
3529.27295	4.05421
3527.34438	4.10127
3525.41582	4.15172
3523.48726	4.20298
3521.55869	4.25606
3519.63013	4.30630
3517.70156	4.35194
3515.77300	4.39621
3513.84443	4.44086
3511.91587	4.48760
3509.98730	4.53692
3508.05874	4.58660
3506.13018	4.63611
3504.20161	4.68637
3502.27305	4.73971
3500.34448	4.79649
3498.41592	4.84901
3496.48735	4.89744
3494.55879	4.94811
3492.63022	4.99613
3490.70166	5.03926
3488.77310	5.08358
3486.84453	5.12914
3484.91597	5.17572
3482.98740	5.22130
3481.05884	5.26214
3479.13027	5.30188
3477.20171	5.34733
3475.27314	5.39969
3473.34458	5.45639
3471.41602	5.51392
3469.48745	5.56833
3467.55889	5.62088
3465.63032	5.67226
3463.70176	5.72061
3461.77319	5.76567
3459.84463	5.81165
3457.91606	5.85831
3455.98750	5.90770
3454.05894	5.96304
3452.13037	6.01573
3450.20181	6.06439
3448.27324	6.11088
3446.34468	6.16150
3444.41611	6.22315
3442.48755	6.28337
3440.55898	6.33430
3438.63042	6.38842
3436.70186	6.43346
3434.77329	6.45891
3432.84473	6.50435
3430.91616	6.58047
3428.98760	6.63941
3427.05903	6.66187
3425.13047	6.68798
3423.20190	6.73803
3421.27334	6.81899
3419.34478	6.91600
3417.41621	6.97743
3415.48765	7.00290
3413.55908	7.02759
3411.63052	7.05846
3409.70195	7.09646
3407.77339	7.17124
3405.84482	7.25528
3403.91626	7.30014
3401.98770	7.31953
3400.05913	7.33006
3398.13057	7.34277
3396.20200	7.38718
3394.27344	7.47018
3392.34487	7.52854
3390.41631	7.55836
3388.48774	7.61191
3386.55918	7.66593
3384.63062	7.67702
3382.70205	7.66715
3380.77349	7.65951
3378.84492	7.67767
3376.91636	7.75812
3374.98779	7.87371
3373.05923	7.96484
3371.13066	8.00500
3369.20210	8.00826
3367.27354	7.96324
3365.34497	7.95329
3363.41641	8.03830
3361.48784	8.10960
3359.55928	8.11069
3357.63071	8.08061
3355.70215	8.09792
3353.77358	8.18203
3351.84502	8.24206
3349.91646	8.21318
3347.98789	8.17647
3346.05933	8.15849
3344.13076	8.10622
3342.20220	8.09082
3340.27363	8.15218
3338.34507	8.21208
3336.41650	8.25127
3334.48794	8.28197
3332.55937	8.23141
3330.63081	8.15776
3328.70225	8.13518
3326.77368	8.14677
3324.84512	8.17999
3322.91655	8.19210
3320.98799	8.19132
3319.05942	8.22779
3317.13086	8.30950
3315.20229	8.38395
3313.27373	8.44480
3311.34517	8.47260
3309.41660	8.42415
3307.48804	8.35166
3305.55947	8.35327
3303.63091	8.46314
3301.70234	8.53872
3299.77378	8.49635
3297.84521	8.41285
3295.91665	8.32236
3293.98809	8.23691
3292.05952	8.28524
3290.13096	8.47519
3288.20239	8.56626
3286.27383	8.54921
3284.34526	8.52687
3282.41670	8.47750
3280.48813	8.41113
3278.55957	8.36331
3276.63101	8.35603
3274.70244	8.35474
3272.77388	8.30561
3270.84531	8.22953
3268.91675	8.17718
3266.98818	8.18027
3265.05962	8.27018
3263.13105	8.37216
3261.20249	8.38516
3259.27393	8.32694
3257.34536	8.26933
3255.41680	8.27202
3253.48823	8.30960
3251.55967	8.31844
3249.63110	8.30954
3247.70254	8.34023
3245.77397	8.41377
3243.84541	8.47586
3241.91685	8.47639
3239.98828	8.42145
3238.05972	8.36850
3236.13115	8.34106
3234.20259	8.30145
3232.27402	8.22961
3230.34546	8.16126
3228.41689	8.16275
3226.48833	8.23503
3224.55977	8.30003
3222.63120	8.30921
3220.70264	8.25340
3218.77407	8.19143
3216.84551	8.19786
3214.91694	8.24776
3212.98838	8.23284
3211.05981	8.14991
3209.13125	8.10392
3207.20269	8.09782
3205.27412	8.07758
3203.34556	8.02416
3201.41699	7.94851
3199.48843	7.89117
3197.55986	7.87306
3195.63130	7.84919
3193.70273	7.80022
3191.77417	7.75950
3189.84561	7.70400
3187.91704	7.61306
3185.98848	7.54695
3184.05991	7.51781
3182.13135	7.48203
3180.20278	7.45379
3178.27422	7.38502
3176.34565	7.24818
3174.41709	7.16006
3172.48853	7.13310
3170.55996	7.08231
3168.63140	7.00761
3166.70283	6.94870
3164.77427	6.89318
3162.84570	6.81958
3160.91714	6.74975
3158.98857	6.69831
3157.06001	6.64347
3155.13145	6.57351
3153.20288	6.49292
3151.27432	6.40371
3149.34575	6.31406
3147.41719	6.24272
3145.48862	6.18745
3143.56006	6.12367
3141.63149	6.04702
3139.70293	5.96062
3137.77437	5.87558
3135.84580	5.81077
3133.91724	5.75364
3131.98867	5.68460
3130.06011	5.60877
3128.13154	5.53685
3126.20298	5.47277
3124.27441	5.40812
3122.34585	5.33375
3120.41729	5.25459
3118.48872	5.17722
3116.56016	5.10851
3114.63159	5.04644
3112.70303	4.97705
3110.77446	4.89829
3108.84590	4.82050
3106.91733	4.75160
3104.98877	4.68697
3103.06021	4.61837
3101.13164	4.54934
3099.20308	4.48356
3097.27451	4.41737
3095.34595	4.35092
3093.41738	4.28540
3091.48882	4.21954
3089.56025	4.15434
3087.63169	4.09086
3085.70312	4.02847
3083.77456	3.96564
3081.84600	3.90217
3079.91743	3.83897
3077.98887	3.77702
3076.06030	3.71639
3074.13174	3.65517
3072.20317	3.59449
3070.27461	3.53690
3068.34604	3.47993
3066.41748	3.42097
3064.48892	3.36258
3062.56035	3.30690
3060.63179	3.25224
3058.70322	3.19767
3056.77466	3.14420
3054.84609	3.09221
3052.91753	3.04127
3050.98896	2.99086
3049.06040	2.94028
3047.13184	2.88944
3045.20327	2.83914
3043.27471	2.78986
3041.34614	2.74135
3039.41758	2.69360
3037.48901	2.64648
3035.56045	2.59987
3033.63188	2.55444
3031.70332	2.50983
3029.77476	2.46576
3027.84619	2.42325
3025.91763	2.38193
3023.98906	2.34038
3022.06050	2.29861
3020.13193	2.25743
3018.20337	2.21720
3016.27480	2.17815
3014.34624	2.14007
3012.41768	2.10208
3010.48911	2.06379
3008.56055	2.02628
3006.63198	1.99057
3004.70342	1.95623
3002.77485	1.92181
3000.84629	1.88648
2998.91772	1.85111
2996.98916	1.81715
2995.06060	1.78483
2993.13203	1.75293
2991.20347	1.72079
2989.27490	1.68942
2987.34634	1.65943
2985.41777	1.62965
2983.48921	1.59933
2981.56064	1.56919
2979.63208	1.53973
2977.70352	1.51108
2975.77495	1.48333
2973.84639	1.45604
2971.91782	1.42863
2969.98926	1.40109
2968.06069	1.37422
2966.13213	1.34855
2964.20356	1.32342
2962.27500	1.29813
2960.34644	1.27298
2958.41787	1.24884
2956.48931	1.22590
2954.56074	1.20365
2952.63218	1.18190
2950.70361	1.16034
2948.77505	1.13848
2946.84648	1.11668
2944.91792	1.09589
2942.98936	1.07596
2941.06079	1.05579
2939.13223	1.03520
2937.20366	1.01485
2935.27510	0.99490
2933.34653	0.97531
2931.41797	0.95639
2929.48940	0.93814
2927.56084	0.92026
2925.63228	0.90275
2923.70371	0.88621
2921.77515	0.87086
2919.84658	0.85628
2917.91802	0.84212
2915.98945	0.82800
2914.06089	0.81360
2912.13232	0.79924
2910.20376	0.78535
2908.27520	0.77177
2906.34663	0.75834
2904.41807	0.74532
2902.48950	0.73273
2900.56094	0.72016
2898.63237	0.70768
2896.70381	0.69565
2894.77524	0.68402
2892.84668	0.67263
2890.91812	0.66144
2888.98955	0.65040
2887.06099	0.63932
2885.13242	0.62841
2883.20386	0.61791
2881.27529	0.60741
2879.34673	0.59682
2877.41816	0.58641
2875.48960	0.57625
2873.56104	0.56628
2871.63247	0.55644
2869.70391	0.54677
2867.77534	0.53720
2865.84678	0.52760
2863.91821	0.51811
2861.98965	0.50878
2860.06108	0.49940
2858.13252	0.49010
2856.20396	0.48143
2854.27539	0.47341
2852.34683	0.46567
2850.41826	0.45833
2848.48970	0.45146
2846.56113	0.44459
2844.63257	0.43776
2842.70400	0.43153
2840.77544	0.42591
2838.84687	0.42049
2836.91831	0.41493
2834.98975	0.40904
2833.06118	0.40303
2831.13262	0.39740
2829.20405	0.39222
2827.27549	0.38687
2825.34692	0.38093
2823.41836	0.37485
2821.48979	0.36910
2819.56123	0.36364
2817.63267	0.35835
2815.70410	0.35315
2813.77554	0.34801
2811.84697	0.34285
2809.91841	0.33778
2807.98984	0.33282
2806.06128	0.32798
2804.13271	0.32336
2802.20415	0.31882
2800.27559	0.31413
2798.34702	0.30936
2796.41846	0.30482
2794.48989	0.30053
2792.56133	0.29620
2790.63276	0.29192
2788.70420	0.28804
2786.77563	0.28429
2784.84707	0.28041
2782.91851	0.27656
2780.98994	0.27285
2779.06138	0.26908
2777.13281	0.26523
2775.20425	0.26150
2773.27568	0.25813
2771.34712	0.25507
2769.41855	0.25203
2767.48999	0.24885
2765.56143	0.24575
2763.63286	0.24269
2761.70430	0.23940
2759.77573	0.23602
2757.84717	0.23295
2755.91860	0.23027
2753.99004	0.22776
2752.06147	0.22524
2750.13291	0.22270
2748.20435	0.22021
2746.27578	0.21774
2744.34722	0.21518
2742.41865	0.21265
2740.49009	0.21014
2738.56152	0.20765
2736.63296	0.20539
2734.70439	0.20329
2732.77583	0.20116
2730.84727	0.19906
2728.91870	0.19706
2726.99014	0.19507
2725.06157	0.19303
2723.13301	0.19103
2721.20444	0.18920
2719.27588	0.18742
2717.34731	0.18553
2715.41875	0.18366
2713.49019	0.18197
2711.56162	0.18047
2709.63306	0.17900
2707.70449	0.17747
2705.77593	0.17603
2703.84736	0.17460
2701.91880	0.17298
2699.99023	0.17134
2698.06167	0.16985
2696.13311	0.16848
2694.20454	0.16719
2692.27598	0.16597
2690.34741	0.16478
2688.41885	0.16360
2686.49028	0.16237
2684.56172	0.16115
2682.63315	0.15999
2680.70459	0.15891
2678.77603	0.15795
2676.84746	0.15708
2674.91890	0.15613
2672.99033	0.15508
2671.06177	0.15407
2669.13320	0.15314
2667.20464	0.15223
2665.27607	0.15141
2663.34751	0.15065
2661.41895	0.14990
2659.49038	0.14913
2657.56182	0.14839
2655.63325	0.14769
2653.70469	0.14698
2651.77612	0.14637
2649.84756	0.14600
2647.91899	0.14558
2645.99043	0.14488
2644.06187	0.14414
2642.13330	0.14363
2640.20474	0.14338
2638.27617	0.14323
2636.34761	0.14293
2634.41904	0.14236
2632.49048	0.14178
2630.56191	0.14147
2628.63335	0.14133
2626.70479	0.14114
2624.77622	0.14085
2622.84766	0.14050
2620.91909	0.14019
2618.99053	0.14003
2617.06196	0.13997
2615.13340	0.13992
2613.20483	0.13981
2611.27627	0.13969
2609.34771	0.13969
2607.41914	0.13977
2605.49058	0.13978
2603.56201	0.13972
2601.63345	0.13970
2599.70488	0.13977
2597.77632	0.13995
2595.84775	0.14016
2593.91919	0.14040
2591.99062	0.14067
2590.06206	0.14084
2588.13350	0.14091
2586.20493	0.14106
2584.27637	0.14132
2582.34780	0.14160
2580.41924	0.14190
2578.49067	0.14216
2576.56211	0.14243
2574.63354	0.14288
2572.70498	0.14337
2570.77642	0.14378
2568.84785	0.14416
2566.91929	0.14459
2564.99072	0.14508
2563.06216	0.14565
2561.13359	0.14623
2559.20503	0.14673
2557.27646	0.14725
2555.34790	0.14779
2553.41934	0.14827
2551.49077	0.14881
2549.56221	0.14952
2547.63364	0.15023
2545.70508	0.15078
2543.77651	0.15121
2541.84795	0.15170
2539.91938	0.15238
2537.99082	0.15319
2536.06226	0.15399
2534.13369	0.15472
2532.20513	0.15545
2530.27656	0.15623
2528.34800	0.15694
2526.41943	0.15759
2524.49087	0.15833
2522.56230	0.15920
2520.63374	0.16014
2518.70518	0.16102
2516.77661	0.16178
2514.84805	0.16259
2512.91948	0.16351
2510.99092	0.16440
2509.06235	0.16517
2507.13379	0.16586
2505.20522	0.16657
2503.27666	0.16733
2501.34810	0.16817
2499.41953	0.16905
2497.49097	0.16999
2495.56240	0.17109
2493.63384	0.17211
2491.70527	0.17287
2489.77671	0.17357
2487.84814	0.17446
2485.91958	0.17547
2483.99102	0.17649
2482.06245	0.17753
2480.13389	0.17854
2478.20532	0.17950
2476.27676	0.18045
2474.34819	0.18131
2472.41963	0.18214
2470.49106	0.18303
2468.56250	0.18391
2466.63394	0.18476
2464.70537	0.18572
2462.77681	0.18682
2460.84824	0.18794
2458.91968	0.18896
2456.99111	0.18992
2455.06255	0.19088
2453.13398	0.19191
2451.20542	0.19298
2449.27686	0.19406
2447.34829	0.19502
2445.41973	0.19590
2443.49116	0.19691
2441.56260	0.19802
2439.63403	0.19908
2437.70547	0.20010
2435.77690	0.20118
2433.84834	0.20222
2431.91978	0.20321
2429.99121	0.20427
2428.06265	0.20534
2426.13408	0.20636
2424.20552	0.20745
2422.27695	0.20865
2420.34839	0.20985
2418.41982	0.21102
2416.49126	0.21218
2414.56270	0.21333
2412.63413	0.21451
2410.70557	0.21567
2408.77700	0.21678
2406.84844	0.21785
2404.91987	0.21894
2402.99131	0.22007
2401.06274	0.22132
2399.13418	0.22272
2397.20562	0.22412
2395.27705	0.22537
2393.34849	0.22657
2391.41992	0.22782
2389.49136	0.22917
2387.56279	0.23079
2385.63423	0.23271
2383.70566	0.23494
2381.77710	0.23765
2379.84854	0.24099
2377.91997	0.24481
2375.99141	0.24879
2374.06284	0.25302
2372.13428	0.25784
2370.20571	0.26289
2368.27715	0.26748
2366.34858	0.27188
2364.42002	0.27643
2362.49146	0.28081
2360.56289	0.28385
2358.63433	0.28486
2356.70576	0.28458
2354.77720	0.28317
2352.84863	0.28093
2350.92007	0.27848
2348.99150	0.27703
2347.06294	0.27787
2345.13437	0.28145
2343.20581	0.28600
2341.27725	0.28877
2339.34868	0.29000
2337.42012	0.29099
2335.49155	0.29225
2333.56299	0.29358
2331.63442	0.29511
2329.70586	0.29644
2327.77729	0.29691
2325.84873	0.29702
2323.92017	0.29752
2321.99160	0.29817
2320.06304	0.29847
2318.13447	0.29866
2316.20591	0.29908
2314.27734	0.29986
2312.34878	0.30083
2310.42021	0.30168
2308.49165	0.30244
2306.56309	0.30315
2304.63452	0.30387
2302.70596	0.30480
2300.77739	0.30596
2298.84883	0.30724
2296.92026	0.30861
2294.99170	0.30998
2293.06313	0.31127
2291.13457	0.31268
2289.20601	0.31433
2287.27744	0.31597
2285.34888	0.31750
2283.42031	0.31903
2281.49175	0.32071
2279.56318	0.32268
2277.63462	0.32489
2275.70605	0.32716
2273.77749	0.32934
2271.84893	0.33145
2269.92036	0.33353
2267.99180	0.33563
2266.06323	0.33773
2264.13467	0.33978
2262.20610	0.34179
2260.27754	0.34374
2258.34897	0.34572
2256.42041	0.34777
2254.49185	0.34983
2252.56328	0.35190
2250.63472	0.35401
2248.70615	0.35612
2246.77759	0.35829
2244.84902	0.36050
2242.92046	0.36259
2240.99189	0.36463
2239.06333	0.36673
2237.13477	0.36890
2235.20620	0.37115
2233.27764	0.37346
2231.34907	0.37571
2229.42051	0.37795
2227.49194	0.38022
2225.56338	0.38243
2223.63481	0.38451
2221.70625	0.38665
2219.77769	0.38893
2217.84912	0.39120
2215.92056	0.39343
2213.99199	0.39562
2212.06343	0.39775
2210.13486	0.39986
2208.20630	0.40197
2206.27773	0.40405
2204.34917	0.40608
2202.42061	0.40810
2200.49204	0.41011
2198.56348	0.41211
2196.63491	0.41413
2194.70635	0.41611
2192.77778	0.41794
2190.84922	0.41982
2188.92065	0.42182
2186.99209	0.42376
2185.06353	0.42553
2183.13496	0.42718
2181.20640	0.42889
2179.27783	0.43071
2177.34927	0.43244
2175.42070	0.43394
2173.49214	0.43535
2171.56357	0.43679
2169.63501	0.43828
2167.70645	0.43975
2165.77788	0.44116
2163.84932	0.44253
2161.92075	0.44374
2159.99219	0.44481
2158.06362	0.44578
2156.13506	0.44671
2154.20649	0.44768
2152.27793	0.44860
2150.34937	0.44928
2148.42080	0.44986
2146.49224	0.45056
2144.56367	0.45133
2142.63511	0.45194
2140.70654	0.45231
2138.77798	0.45253
2136.84941	0.45269
2134.92085	0.45284
2132.99229	0.45298
2131.06372	0.45302
2129.13516	0.45293
2127.20659	0.45275
2125.27803	0.45247
2123.34946	0.45212
2121.42090	0.45174
2119.49233	0.45132
2117.56377	0.45080
2115.63521	0.45020
2113.70664	0.44947
2111.77808	0.44861
2109.84951	0.44771
2107.92095	0.44683
2105.99238	0.44584
2104.06382	0.44470
2102.13525	0.44351
2100.20669	0.44240
2098.27812	0.44130
2096.34956	0.43996
2094.42100	0.43841
2092.49243	0.43692
2090.56387	0.43537
2088.63530	0.43355
2086.70674	0.43165
2084.77817	0.42984
2082.84961	0.42806
2080.92104	0.42628
2078.99248	0.42450
2077.06392	0.42259
2075.13535	0.42050
2073.20679	0.41829
2071.27822	0.41597
2069.34966	0.41366
2067.42109	0.41160
2065.49253	0.40961
2063.56396	0.40729
2061.63540	0.40475
2059.70684	0.40232
2057.77827	0.39998
2055.84971	0.39754
2053.92114	0.39505
2051.99258	0.39262
2050.06401	0.39018
2048.13545	0.38770
2046.20688	0.38506
2044.27832	0.38237
2042.34976	0.37982
2040.42119	0.37739
2038.49263	0.37482
2036.56406	0.37212
2034.63550	0.36929
2032.70693	0.36630
2030.77837	0.36345
2028.84980	0.36080
2026.92124	0.35815
2024.99268	0.35550
2023.06411	0.35285
2021.13555	0.35002
2019.20698	0.34720
2017.27842	0.34456
2015.34985	0.34189
2013.42129	0.33910
2011.49272	0.33631
2009.56416	0.33356
2007.63560	0.33079
2005.70703	0.32806
2003.77847	0.32543
2001.84990	0.32286
1999.92134	0.32032
1997.99277	0.31774
1996.06421	0.31518
1994.13564	0.31284
1992.20708	0.31060
1990.27852	0.30811
1988.34995	0.30545
1986.42139	0.30277
1984.49282	0.30015
1982.56426	0.29767
1980.63569	0.29534
1978.70713	0.29308
1976.77856	0.29083
1974.85000	0.28856
1972.92144	0.28631
1970.99287	0.28423
1969.06431	0.28239
1967.13574	0.28055
1965.20718	0.27840
1963.27861	0.27622
1961.35005	0.27422
1959.42148	0.27234
1957.49292	0.27050
1955.56436	0.26868
1953.63579	0.26691
1951.70723	0.26519
1949.77866	0.26353
1947.85010	0.26193
1945.92153	0.26046
1943.99297	0.25918
1942.06440	0.25785
1940.13584	0.25618
1938.20728	0.25441
1936.27871	0.25283
1934.35015	0.25146
1932.42158	0.25022
1930.49302	0.24905
1928.56445	0.24796
1926.63589	0.24690
1924.70732	0.24602
1922.77876	0.24527
1920.85020	0.24436
1918.92163	0.24343
1916.99307	0.24254
1915.06450	0.24139
1913.13594	0.24025
1911.20737	0.23953
1909.27881	0.23898
1907.35024	0.23824
1905.42168	0.23738
1903.49312	0.23670
1901.56455	0.23612
1899.63599	0.23555
1897.70742	0.23512
1895.77886	0.23481
1893.85029	0.23444
1891.92173	0.23404
1889.99316	0.23388
1888.06460	0.23363
1886.13604	0.23321
1884.20747	0.23288
1882.27891	0.23268
1880.35034	0.23259
1878.42178	0.23253
1876.49321	0.23256
1874.56465	0.23260
1872.63608	0.23267
1870.70752	0.23305
1868.77896	0.23391
1866.85039	0.23428
1864.92183	0.23384
1862.99326	0.23350
1861.06470	0.23361
1859.13613	0.23401
1857.20757	0.23437
1855.27900	0.23472
1853.35044	0.23505
1851.42187	0.23554
1849.49331	0.23629
1847.56475	0.23725
1845.63618	0.23837
1843.70762	0.23953
1841.77905	0.24012
1839.85049	0.24028
1837.92192	0.24084
1835.99336	0.24162
1834.06479	0.24248
1832.13623	0.24370
1830.20767	0.24562
1828.27910	0.24735
1826.35054	0.24832
1824.42197	0.24938
1822.49341	0.25032
1820.56484	0.25124
1818.63628	0.25250
1816.70771	0.25417
1814.77915	0.25587
1812.85059	0.25771
1810.92202	0.25989
1808.99346	0.26197
1807.06489	0.26382
1805.13633	0.26566
1803.20776	0.26789
1801.27920	0.27059
1799.35063	0.27352
1797.42207	0.27599
1795.49351	0.27839
1793.56494	0.28142
1791.63638	0.28519
1789.70781	0.28837
1787.77925	0.29065
1785.85068	0.29365
1783.92212	0.29738
1781.99355	0.30141
1780.06499	0.30560
1778.13643	0.30976
1776.20786	0.31380
1774.27930	0.31853
1772.35073	0.32490
1770.42217	0.33119
1768.49360	0.33608
1766.56504	0.34087
1764.63647	0.34607
1762.70791	0.35214
1760.77935	0.35973
1758.85078	0.36658
1756.92222	0.37351
1754.99365	0.38123
1753.06509	0.38838
1751.13652	0.39707
1749.20796	0.40794
1747.27939	0.41824
1745.35083	0.42702
1743.42227	0.43652
1741.49370	0.44719
1739.56514	0.45971
1737.63657	0.47225
1735.70801	0.48344
1733.77944	0.50029
1731.85088	0.51984
1729.92231	0.53477
1727.99375	0.55003
1726.06519	0.56677
1724.13662	0.58528
1722.20806	0.60532
1720.27949	0.62404
1718.35093	0.64628
1716.42236	0.67857
1714.49380	0.70835
1712.56523	0.73218
1710.63667	0.75567
1708.70811	0.78145
1706.77954	0.81091
1704.85098	0.84570
1702.92241	0.87656
1700.99385	0.90704
1699.06528	0.95202
1697.13672	0.99295
1695.20815	1.03398
1693.27959	1.07327
1691.35103	1.10496
1689.42246	1.14187
1687.49390	1.18080
1685.56533	1.21817
1683.63677	1.27488
1681.70820	1.33289
1679.77964	1.37015
1677.85107	1.40625
1675.92251	1.44793
1673.99395	1.49871
1672.06538	1.54311
1670.13682	1.58597
1668.20825	1.64084
1666.27969	1.68497
1664.35112	1.72193
1662.42256	1.76706
1660.49399	1.81688
1658.56543	1.85574
1656.63687	1.88811
1654.70830	1.91962
1652.77974	1.97346
1650.85117	2.02686
1648.92261	2.04771
1646.99404	2.07614
1645.06548	2.11145
1643.13691	2.13549
1641.20835	2.15143
1639.27979	2.16632
1637.35122	2.17690
1635.42266	2.18218
1633.49409	2.18028
1631.56553	2.16985
1629.63696	2.15660
1627.70840	2.13559
1625.77983	2.11016
1623.85127	2.07540
1621.92271	2.03049
1619.99414	1.98976
1618.06558	1.94972
1616.13701	1.89134
1614.20845	1.83071
1612.27988	1.78484
1610.35132	1.73750
1608.42275	1.68567
1606.49419	1.63378
1604.56562	1.58581
1602.63706	1.53905
1600.70850	1.49247
1598.77993	1.44930
1596.85137	1.40858
1594.92280	1.36853
1592.99424	1.32947
1591.06567	1.29337
1589.13711	1.25895
1587.20854	1.22621
1585.27998	1.19534
1583.35142	1.16577
1581.42285	1.13824
1579.49429	1.11438
1577.56572	1.09258
1575.63716	1.06528
1573.70859	1.04025
1571.78003	1.02337
1569.85146	1.00512
1567.92290	0.98386
1565.99434	0.96657
1564.06577	0.95163
1562.13721	0.93904
1560.20864	0.92835
1558.28008	0.90897
1556.35151	0.89023
1554.42295	0.87879
1552.49438	0.86762
1550.56582	0.85656
1548.63726	0.84545
1546.70869	0.83619
1544.78013	0.82854
1542.85156	0.82096
1540.92300	0.81230
1538.99443	0.79960
1537.06587	0.78948
1535.13730	0.78324
1533.20874	0.77625
1531.28018	0.76819
1529.35161	0.76192
1527.42305	0.75641
1525.49448	0.75059
1523.56592	0.74527
1521.63735	0.73990
1519.70879	0.73336
1517.78022	0.72744
1515.85166	0.72162
1513.92310	0.71603
1511.99453	0.71181
1510.06597	0.70879
1508.13740	0.70669
1506.20884	0.70194
1504.28027	0.69518
1502.35171	0.69090
1500.42314	0.68801
1498.49458	0.68546
1496.56602	0.68206
1494.63745	0.67812
1492.70889	0.67523
1490.78032	0.67347
1488.85176	0.67142
1486.92319	0.66820
1484.99463	0.66504
1483.06606	0.66259
1481.13750	0.66046
1479.20894	0.65848
1477.28037	0.65700
1475.35181	0.65584
1473.42324	0.65423
1471.49468	0.65095
1469.56611	0.64714
1467.63755	0.64454
1465.70898	0.64281
1463.78042	0.64066
1461.85186	0.63812
1459.92329	0.63640
1457.99473	0.63531
1456.06616	0.63273
1454.13760	0.62888
1452.20903	0.62595
1450.28047	0.62375
1448.35190	0.62181
1446.42334	0.61967
1444.49478	0.61748
1442.56621	0.61551
1440.63765	0.61383
1438.70908	0.61269
1436.78052	0.61178
1434.85195	0.61029
1432.92339	0.60846
1430.99482	0.60689
1429.06626	0.60532
1427.13770	0.60363
1425.20913	0.60211
1423.28057	0.60070
1421.35200	0.59933
1419.42344	0.59818
1417.49487	0.59666
1415.56631	0.59447
1413.63774	0.59245
1411.70918	0.59082
1409.78062	0.58926
1407.85205	0.58769
1405.92349	0.58635
1403.99492	0.58501
1402.06636	0.58348
1400.13779	0.58221
1398.20923	0.58123
1396.28066	0.58022
1394.35210	0.57884
1392.42354	0.57707
1390.49497	0.57548
1388.56641	0.57441
1386.63784	0.57339
1384.70928	0.57202
1382.78071	0.57081
1380.85215	0.56990
1378.92358	0.56912
1376.99502	0.56857
1375.06646	0.56825
1373.13789	0.56763
1371.20933	0.56656
1369.28076	0.56555
1367.35220	0.56463
1365.42363	0.56377
1363.49507	0.56321
1361.56650	0.56253
1359.63794	0.56126
1357.70937	0.55997
1355.78081	0.55900
1353.85225	0.55812
1351.92368	0.55717
1349.99512	0.55617
1348.06655	0.55513
1346.13799	0.55418
1344.20942	0.55342
1342.28086	0.55279
1340.35229	0.55215
1338.42373	0.55114
1336.49517	0.54977
1334.56660	0.54850
1332.63804	0.54749
1330.70947	0.54670
1328.78091	0.54601
1326.85234	0.54523
1324.92378	0.54434
1322.99521	0.54354
1321.06665	0.54296
1319.13809	0.54245
1317.20952	0.54169
1315.28096	0.54082
1313.35239	0.54008
1311.42383	0.53928
1309.49526	0.53822
1307.56670	0.53715
1305.63813	0.53623
1303.70957	0.53538
1301.78101	0.53458
1299.85244	0.53388
1297.92388	0.53320
1295.99531	0.53246
1294.06675	0.53165
1292.13818	0.53094
1290.20962	0.53044
1288.28105	0.53001
1286.35249	0.52945
1284.42393	0.52888
1282.49536	0.52841
1280.56680	0.52787
1278.63823	0.52723
1276.70967	0.52674
1274.78110	0.52641
1272.85254	0.52607
1270.92397	0.52561
1268.99541	0.52513
1267.06685	0.52480
1265.13828	0.52454
1263.20972	0.52417
1261.28115	0.52380
1259.35259	0.52358
1257.42402	0.52330
1255.49546	0.52285
1253.56689	0.52243
1251.63833	0.52214
1249.70977	0.52195
1247.78120	0.52168
1245.85264	0.52124
1243.92407	0.52080
1241.99551	0.52046
1240.06694	0.52004
1238.13838	0.51955
1236.20981	0.51911
1234.28125	0.51860
1232.35269	0.51806
1230.42412	0.51753
1228.49556	0.51692
1226.56699	0.51620
1224.63843	0.51549
1222.70986	0.51485
1220.78130	0.51416
1218.85273	0.51336
1216.92417	0.51266
1214.99561	0.51207
1213.06704	0.51146
1211.13848	0.51086
1209.20991	0.51031
1207.28135	0.50984
1205.35278	0.50952
1203.42422	0.50917
1201.49565	0.50867
1199.56709	0.50816
1197.63853	0.50761
1195.70996	0.50702
1193.78140	0.50655
1191.85283	0.50608
1189.92427	0.50555
1187.99570	0.50518
1186.06714	0.50500
1184.13857	0.50487
1182.21001	0.50486
1180.28145	0.50506
1178.35288	0.50551
1176.42432	0.50613
1174.49575	0.50679
1172.56719	0.50754
1170.63862	0.50834
1168.71006	0.50908
1166.78149	0.50979
1164.85293	0.51066
1162.92437	0.51155
1160.99580	0.51213
1159.06724	0.51223
1157.13867	0.51187
1155.21011	0.51127
1153.28154	0.51050
1151.35298	0.50930
1149.42441	0.50749
1147.49585	0.50521
1145.56729	0.50264
1143.63872	0.49995
1141.71016	0.49733
1139.78159	0.49491
1137.85303	0.49289
1135.92446	0.49138
1133.99590	0.49016
1132.06733	0.48892
1130.13877	0.48771
1128.21021	0.48670
1126.28164	0.48586
1124.35308	0.48513
1122.42451	0.48455
1120.49595	0.48418
1118.56738	0.48411
1116.63882	0.48440
1114.71025	0.48480
1112.78169	0.48520
1110.85312	0.48586
1108.92456	0.48677
1106.99600	0.48777
1105.06743	0.48883
1103.13887	0.48980
1101.21030	0.49073
1099.28174	0.49217
1097.35317	0.49454
1095.42461	0.49775
1093.49604	0.50145
1091.56748	0.50584
1089.63892	0.51159
1087.71035	0.51855
1085.78179	0.52610
1083.85322	0.53407
1081.92466	0.54192
1079.99609	0.54829
1078.06753	0.55186
1076.13896	0.55224
1074.21040	0.54963
1072.28184	0.54466
1070.35327	0.53817
1068.42471	0.53102
1066.49614	0.52417
1064.56758	0.51823
1062.63901	0.51301
1060.71045	0.50828
1058.78188	0.50413
1056.85332	0.50039
1054.92476	0.49688
1052.99619	0.49391
1051.06763	0.49189
1049.13906	0.49066
1047.21050	0.48985
1045.28193	0.48951
1043.35337	0.48958
1041.42480	0.48957
1039.49624	0.48944
1037.56768	0.48958
1035.63911	0.48990
1033.71055	0.49015
1031.78198	0.49004
1029.85342	0.48926
1027.92485	0.48810
1025.99629	0.48709
1024.06772	0.48645
1022.13916	0.48618
1020.21060	0.48622
1018.28203	0.48626
1016.35347	0.48611
1014.42490	0.48606
1012.49634	0.48641
1010.56777	0.48713
1008.63921	0.48796
1006.71064	0.48877
1004.78208	0.48986
1002.85352	0.49152
1000.92495	0.49391
998.99639	0.49704
997.06782	0.50066
995.13926	0.50453
993.21069	0.50852
991.28213	0.51198
989.35356	0.51417
987.42500	0.51509
985.49644	0.51534
983.56787	0.51551
981.63931	0.51611
979.71074	0.51736
977.78218	0.51902
975.85361	0.52099
973.92505	0.52345
971.99648	0.52641
970.06792	0.52971
968.13936	0.53336
966.21079	0.53744
964.28223	0.54190
962.35366	0.54661
960.42510	0.55167
958.49653	0.55707
956.56797	0.56260
954.63940	0.56832
952.71084	0.57421
950.78228	0.58009
948.85371	0.58605
946.92515	0.59234
944.99658	0.59867
943.06802	0.60468
941.13945	0.61048
939.21089	0.61639
937.28232	0.62252
935.35376	0.62810
933.42520	0.63315
931.49663	0.63874
929.56807	0.64457
927.63950	0.65000
925.71094	0.65560
923.78237	0.66171
921.85381	0.66823
919.92524	0.67524
917.99668	0.68242
916.06812	0.68943
914.13955	0.69643
912.21099	0.70388
910.28242	0.71247
908.35386	0.72165
906.42529	0.73001
904.49673	0.73818
902.56816	0.74766
900.63960	0.75774
898.71104	0.76699
896.78247	0.77605
894.85391	0.78580
892.92534	0.79565
890.99678	0.80542
889.06821	0.81559
887.13965	0.82575
885.21108	0.83607
883.28252	0.84779
881.35396	0.86065
879.42539	0.87298
877.49683	0.88416
875.56826	0.89462
873.63970	0.90456
871.71113	0.91484
869.78257	0.92646
867.85400	0.93913
865.92544	0.95202
863.99687	0.96346
862.06831	0.97322
860.13975	0.98341
858.21118	0.99401
856.28262	1.00427
854.35405	1.01610
852.42549	1.02957
850.49692	1.04257
848.56836	1.05536
846.63979	1.06941
844.71123	1.08238
842.78267	1.09115
840.85410	1.09899
838.92554	1.10933
836.99697	1.12164
835.06841	1.13374
833.13984	1.14299
831.21128	1.15156
829.28271	1.16330
827.35415	1.17733
825.42559	1.19009
823.49702	1.20032
821.56846	1.21304
819.63989	1.23090
817.71133	1.25032
815.78276	1.27598
813.85420	1.30337
811.92563	1.31542
809.99707	1.31713
808.06851	1.31964
806.13994	1.33040
804.21138	1.35120
802.28281	1.37310
800.35425	1.39160
798.42568	1.41585
796.49712	1.45376
794.56855	1.50292
792.63999	1.57491
790.71143	1.61607
788.78286	1.55856
786.85430	1.51818
784.92573	1.52246
782.99717	1.48681
781.06860	1.44686
779.14004	1.48175
777.21147	1.54928
775.28291	1.53288
773.35435	1.50277
771.42578	1.62080
769.49722	1.95762
767.56865	1.79433
765.64009	1.52444
763.71152	1.54175
761.78296	1.93155
759.85439	4.55913
757.92583	2.02799
755.99727	1.62792
754.06870	1.45807
752.14014	1.41161
750.21157	1.39462
748.28301	1.32395
746.35444	1.26425
744.42588	1.17448
742.49731	1.04562
740.56875	0.95577
738.64019	0.86562
736.71162	0.69015
734.78306	0.52708
732.85449	0.44462
730.92593	0.46981
728.99736	0.54481
727.06880	0.41366
725.14023	0.12712
723.21167	-0.09202
721.28311	-0.13986
719.35454	0.02711
717.42598	0.20445
715.49741	0.48906
713.56885	0.54241
711.64028	0.51834
709.71172	0.51342
707.78315	0.42417
705.85459	0.30796
703.92603	0.28751
701.99746	0.37434
700.06890	0.45613
698.14033	0.43343
696.21177	0.40796
694.28320	0.46807
692.35464	0.56083
690.42607	0.59828
688.49751	0.62614
686.56895	0.77889
684.64038	0.99344
682.71182	0.73588
680.78325	0.52083
678.85469	0.41747
676.92612	0.38667
674.99756	0.45317
673.06899	0.62440
671.14043	0.71142
669.21187	0.57226
667.28330	0.49919
665.35474	0.54525
663.42617	0.55946
661.49761	0.49235
659.56904	0.48691
657.64048	0.52829
655.71191	0.50949
653.78335	0.49472
651.85479	0.58404
649.92622	0.84611
647.99766	1.15212
646.06909	0.79235
644.14053	0.53914
642.21196	0.42677
640.28340	0.41513
638.35483	0.47801
636.42627	0.56735
634.49771	0.55914
632.56914	0.46999
630.64058	0.41773
628.71201	0.37594
626.78345	0.35789
624.85488	0.37724
622.92632	0.41773
620.99775	0.45593
619.06919	0.43197
617.14062	0.37291
615.21206	0.34470
613.28350	0.36562
611.35493	0.38509
609.42637	0.32616
607.49780	0.28142
605.56924	0.33159
603.64067	0.39537
601.71211	0.40299
599.78354	0.40681
597.85498	0.41298
595.92642	0.41847
593.99785	0.44880
592.06929	0.48455
590.14072	0.47682
588.21216	0.43316
586.28359	0.41139
584.35503	0.45684
582.42646	0.49954
580.49790	0.44245
578.56934	0.35224
576.64077	0.30231
574.71221	0.31851
572.78364	0.36784
570.85508	0.38166
568.92651	0.36076
566.99795	0.33651
565.06938	0.34932
563.14082	0.41584
561.21226	0.49632
559.28369	0.50110
557.35513	0.45929
555.42656	0.44232
553.49800	0.48403
551.56943	0.55791
549.64087	0.50759
547.71230	0.40179
545.78374	0.34701
543.85518	0.32095
541.92661	0.31021
539.99805	0.34148
538.06948	0.39595
536.14092	0.42976
534.21235	0.41680
532.28379	0.35495
530.35522	0.30282
528.42666	0.27197
526.49810	0.24508
524.56953	0.24716
522.64097	0.28057
520.71240	0.29211
518.78384	0.25114
516.85527	0.20201
514.92671	0.19005
512.99814	0.20907
511.06958	0.22022
509.14102	0.23327
507.21245	0.26173
505.28389	0.27153
503.35532	0.25383
501.42676	0.26114
499.49819	0.30113
