3997.91411	0.06792
3995.98555	0.06839
3994.05698	0.06899
3992.12842	0.06970
3990.19985	0.07011
3988.27129	0.07010
3986.34272	0.07022
3984.41416	0.07046
3982.48560	0.07062
3980.55703	0.07094
3978.62847	0.07124
3976.69990	0.07129
3974.77134	0.07135
3972.84277	0.07169
3970.91421	0.07214
3968.98564	0.07233
3967.05708	0.07218
3965.12852	0.07197
3963.19995	0.07219
3961.27139	0.07271
3959.34282	0.07312
3957.41426	0.07330
3955.48569	0.07320
3953.55713	0.07306
3951.62856	0.07322
3949.70000	0.07365
3947.77144	0.07401
3945.84287	0.07396
3943.91431	0.07373
3941.98574	0.07372
3940.05718	0.07343
3938.12861	0.07289
3936.20005	0.07288
3934.27148	0.07326
3932.34292	0.07347
3930.41436	0.07335
3928.48579	0.07321
3926.55723	0.07356
3924.62866	0.07423
3922.70010	0.07429
3920.77153	0.07361
3918.84297	0.07309
3916.91440	0.07324
3914.98584	0.07322
3913.05728	0.07256
3911.12871	0.07217
3909.20015	0.07223
3907.27158	0.07220
3905.34302	0.07253
3903.41445	0.07350
3901.48589	0.07398
3899.55732	0.07368
3897.62876	0.07313
3895.70020	0.07252
3893.77163	0.07244
3891.84307	0.07300
3889.91450	0.07344
3887.98594	0.07328
3886.05737	0.07332
3884.12881	0.07388
3882.20024	0.07419
3880.27168	0.07417
3878.34312	0.07411
3876.41455	0.07397
3874.48599	0.07396
3872.55742	0.07441
3870.62886	0.07507
3868.70029	0.07551
3866.77173	0.07559
3864.84316	0.07600
3862.91460	0.07690
3860.98604	0.07724
3859.05747	0.07713
3857.12891	0.07741
3855.20034	0.07826
3853.27178	0.07977
3851.34321	0.08095
3849.41465	0.08059
3847.48608	0.07996
3845.55752	0.07984
3843.62896	0.08040
3841.70039	0.08115
3839.77183	0.08171
3837.84326	0.08250
3835.91470	0.08330
3833.98613	0.08371
3832.05757	0.08408
3830.12900	0.08448
3828.20044	0.08489
3826.27187	0.08568
3824.34331	0.08664
3822.41475	0.08767
3820.48618	0.08922
3818.55762	0.08999
3816.62905	0.08998
3814.70049	0.09059
3812.77192	0.09136
3810.84336	0.09200
3808.91479	0.09302
3806.98623	0.09467
3805.05767	0.09648
3803.12910	0.09800
3801.20054	0.09997
3799.27197	0.10160
3797.34341	0.10185
3795.41484	0.10198
3793.48628	0.10249
3791.55771	0.10353
3789.62915	0.10503
3787.70059	0.10638
3785.77202	0.10762
3783.84346	0.10922
3781.91489	0.11096
3779.98633	0.11271
3778.05776	0.11454
3776.12920	0.11584
3774.20063	0.11673
3772.27207	0.11803
3770.34351	0.12024
3768.41494	0.12331
3766.48638	0.12612
3764.55781	0.12821
3762.62925	0.12968
3760.70068	0.13127
3758.77212	0.13385
3756.84355	0.13674
3754.91499	0.13911
3752.98643	0.14165
3751.05786	0.14493
3749.12930	0.14830
3747.20073	0.15062
3745.27217	0.15318
3743.34360	0.15739
3741.41504	0.16081
3739.48647	0.16255
3737.55791	0.16482
3735.62935	0.16915
3733.70078	0.17543
3731.77222	0.18090
3729.84365	0.18438
3727.91509	0.18726
3725.98652	0.19183
3724.05796	0.19891
3722.12939	0.20675
3720.20083	0.21437
3718.27227	0.22217
3716.34370	0.23030
3714.41514	0.23845
3712.48657	0.24819
3710.55801	0.26200
3708.62944	0.27671
3706.70088	0.28855
3704.77231	0.29961
3702.84375	0.31255
3700.91519	0.32965
3698.98662	0.34860
3697.05806	0.36627
3695.12949	0.38493
3693.20093	0.40531
3691.27236	0.42788
3689.34380	0.45720
3687.41523	0.49318
3685.48667	0.52434
3683.55811	0.55083
3681.62954	0.57914
3679.70098	0.61111
3677.77241	0.64495
3675.84385	0.68498
3673.91528	0.73906
3671.98672	0.78320
3670.05815	0.82166
3668.12959	0.87541
3666.20103	0.92579
3664.27246	0.96800
3662.34390	1.01261
3660.41533	1.06044
3658.48677	1.10748
3656.55820	1.15730
3654.62964	1.21295
3652.70107	1.25962
3650.77251	1.29959
3648.84395	1.35490
3646.91538	1.42483
3644.98682	1.47736
3643.05825	1.51763
3641.12969	1.55846
3639.20112	1.60294
3637.27256	1.64731
3635.34399	1.69060
3633.41543	1.73366
3631.48687	1.77349
3629.55830	1.81381
3627.62974	1.86786
3625.70117	1.92005
3623.77261	1.95547
3621.84404	1.98829
3619.91548	2.02527
3617.98691	2.07061
3616.05835	2.11566
3614.12979	2.15419
3612.20122	2.19420
3610.27266	2.23321
3608.34409	2.27187
3606.41553	2.31385
3604.48696	2.35326
3602.55840	2.38812
3600.62983	2.42610
3598.70127	2.46772
3596.77271	2.50765
3594.84414	2.54812
3592.91558	2.59078
3590.98701	2.63064
3589.05845	2.66662
3587.12988	2.70935
3585.20132	2.75732
3583.27275	2.79876
3581.34419	2.83781
3579.41562	2.87898
3577.48706	2.92146
3575.55850	2.96429
3573.62993	3.00786
3571.70137	3.04916
3569.77280	3.08706
3567.84424	3.12664
3565.91567	3.17696
3563.98711	3.22844
3562.05854	3.27131
3560.12998	3.31343
3558.20142	3.35811
3556.27285	3.40370
3554.34429	3.44748
3552.41572	3.49212
3550.48716	3.53938
3548.55859	3.58606
3546.63003	3.63064
3544.70146	3.67668
3542.77290	3.72371
3540.84434	3.76836
3538.91577	3.81270
3536.98721	3.85911
3535.05864	3.90980
3533.13008	3.96173
3531.20151	4.01078
3529.27295	4.05767
3527.34438	4.10533
3525.41582	4.15257
3523.48726	4.19942
3521.55869	4.24753
3519.63013	4.29445
3517.70156	4.34219
3515.77300	4.39011
3513.84443	4.43694
3511.91587	4.48545
3509.98730	4.53629
3508.05874	4.58718
3506.13018	4.63653
3504.20161	4.68416
3502.27305	4.72768
3500.34448	4.76723
3498.41592	4.80778
3496.48735	4.85370
3494.55879	4.90511
3492.63022	4.95469
3490.70166	5.00116
3488.77310	5.05010
3486.84453	5.09728
3484.91597	5.14538
3482.98740	5.19964
3481.05884	5.25402
3479.13027	5.30342
3477.20171	5.34547
3475.27314	5.38991
3473.34458	5.44666
3471.41602	5.50090
3469.48745	5.53888
3467.55889	5.57395
3465.63032	5.61903
3463.70176	5.67156
3461.77319	5.72676
3459.84463	5.78597
3457.91606	5.84377
3455.98750	5.88536
3454.05894	5.91744
3452.13037	5.96941
3450.20181	6.03826
3448.27324	6.09105
3446.34468	6.13047
3444.41611	6.18145
3442.48755	6.24116
3440.55898	6.28564
3438.63042	6.32955
3436.70186	6.39198
3434.77329	6.44236
3432.84473	6.47397
3430.91616	6.52723
3428.98760	6.61781
3427.05903	6.69410
3425.13047	6.73482
3423.20190	6.77728
3421.27334	6.81971
3419.34478	6.85713
3417.41621	6.91883
3415.48765	6.96836
3413.55908	6.96459
3411.63052	6.97967
3409.70195	7.05238
3407.77339	7.13964
3405.84482	7.20188
3403.91626	7.23401
3401.98770	7.24600
3400.05913	7.24555
3398.13057	7.23307
3396.20200	7.24123
3394.27344	7.30687
3392.34487	7.39364
3390.41631	7.45397
3388.48774	7.49253
3386.55918	7.57148
3384.63062	7.67337
3382.70205	7.72551
3380.77349	7.73067
3378.84492	7.71047
3376.91636	7.69684
3374.98779	7.71107
3373.05923	7.75259
3371.13066	7.77414
3369.20210	7.78701
3367.27354	7.85544
3365.34497	7.94339
3363.41641	7.94736
3361.48784	7.88867
3359.55928	7.84800
3357.63071	7.84441
3355.70215	7.90185
3353.77358	7.96543
3351.84502	7.99792
3349.91646	8.00675
3347.98789	7.99567
3346.05933	8.03425
3344.13076	8.13118
3342.20220	8.16888
3340.27363	8.11476
3338.34507	8.08970
3336.41650	8.11615
3334.48794	8.16010
3332.55937	8.15734
3330.63081	8.11255
3328.70225	8.12641
3326.77368	8.19603
3324.84512	8.27357
3322.91655	8.34934
3320.98799	8.39344
3319.05942	8.35551
3317.13086	8.29965
3315.20229	8.25655
3313.27373	8.22536
3311.34517	8.24682
3309.41660	8.24681
3307.48804	8.19379
3305.55947	8.22112
3303.63091	8.33106
3301.70234	8.37624
3299.77378	8.34116
3297.84521	8.25637
3295.91665	8.18671
3293.98809	8.22186
3292.05952	8.28694
3290.13096	8.26250
3288.20239	8.23653
3286.27383	8.32685
3284.34526	8.46240
3282.41670	8.48661
3280.48813	8.44790
3278.55957	8.48434
3276.63101	8.42657
3274.70244	8.23283
3272.77388	8.12508
3270.84531	8.10892
3268.91675	8.10707
3266.98818	8.10886
3265.05962	8.12371
3263.13105	8.16197
3261.20249	8.20207
3259.27393	8.19877
3257.34536	8.18053
3255.41680	8.15902
3253.48823	8.12666
3251.55967	8.11457
3249.63110	8.12760
3247.70254	8.15554
3245.77397	8.15998
3243.84541	8.17789
3241.91685	8.24844
3239.98828	8.25973
3238.05972	8.20238
3236.13115	8.22211
3234.20259	8.29359
3232.27402	8.28133
3230.34546	8.19922
3228.41689	8.13520
3226.48833	8.18254
3224.55977	8.33342
3222.63120	8.39186
3220.70264	8.31113
3218.77407	8.26729
3216.84551	8.26017
3214.91694	8.17365
3212.98838	8.02268
3211.05981	7.96236
3209.13125	8.05489
3207.20269	8.09243
3205.27412	7.95248
3203.34556	7.82335
3201.41699	7.77164
3199.48843	7.71337
3197.55986	7.62282
3195.63130	7.56244
3193.70273	7.57561
3191.77417	7.60254
3189.84561	7.55331
3187.91704	7.45720
3185.98848	7.39127
3184.05991	7.35638
3182.13135	7.31888
3180.20278	7.25919
3178.27422	7.16512
3176.34565	7.08263
3174.41709	7.05743
3172.48853	7.04176
3170.55996	6.98766
3168.63140	6.92710
3166.70283	6.87817
3164.77427	6.81265
3162.84570	6.72741
3160.91714	6.64551
3158.98857	6.57755
3157.06001	6.52222
3155.13145	6.46882
3153.20288	6.40074
3151.27432	6.32663
3149.34575	6.25751
3147.41719	6.18485
3145.48862	6.10964
3143.56006	6.04142
3141.63149	5.97384
3139.70293	5.89584
3137.77437	5.82312
3135.84580	5.75539
3133.91724	5.67355
3131.98867	5.59204
3130.06011	5.52737
3128.13154	5.46345
3126.20298	5.38799
3124.27441	5.31586
3122.34585	5.25156
3120.41729	5.18293
3118.48872	5.10736
3116.56016	5.03170
3114.63159	4.96099
3112.70303	4.89415
3110.77446	4.82689
3108.84590	4.75778
3106.91733	4.69183
3104.98877	4.62957
3103.06021	4.56609
3101.13164	4.49951
3099.20308	4.43067
3097.27451	4.36321
3095.34595	4.29904
3093.41738	4.23639
3091.48882	4.17363
3089.56025	4.10980
3087.63169	4.04436
3085.70312	3.97807
3083.77456	3.91297
3081.84600	3.85000
3079.91743	3.78807
3077.98887	3.72792
3076.06030	3.67097
3074.13174	3.61563
3072.20317	3.56008
3070.27461	3.50390
3068.34604	3.44693
3066.41748	3.38917
3064.48892	3.33158
3062.56035	3.27695
3060.63179	3.22647
3058.70322	3.17653
3056.77466	3.12386
3054.84609	3.06888
3052.91753	3.01435
3050.98896	2.96336
3049.06040	2.91524
3047.13184	2.86703
3045.20327	2.81856
3043.27471	2.77137
3041.34614	2.72510
3039.41758	2.67851
3037.48901	2.63159
3035.56045	2.58509
3033.63188	2.53969
3031.70332	2.49560
3029.77476	2.45258
3027.84619	2.41074
3025.91763	2.36988
3023.98906	2.32876
3022.06050	2.28679
3020.13193	2.24521
3018.20337	2.20543
3016.27480	2.16722
3014.34624	2.12949
3012.41768	2.09199
3010.48911	2.05495
3008.56055	2.01859
3006.63198	1.98295
3004.70342	1.94751
3002.77485	1.91220
3000.84629	1.87794
2998.91772	1.84510
2996.98916	1.81290
2995.06060	1.78077
2993.13203	1.74902
2991.20347	1.71829
2989.27490	1.68820
2987.34634	1.65821
2985.41777	1.62870
2983.48921	1.59985
2981.56064	1.57166
2979.63208	1.54417
2977.70352	1.51676
2975.77495	1.48932
2973.84639	1.46241
2971.91782	1.43596
2969.98926	1.40973
2968.06069	1.38399
2966.13213	1.35907
2964.20356	1.33488
2962.27500	1.31101
2960.34644	1.28734
2958.41787	1.26398
2956.48931	1.24118
2954.56074	1.21882
2952.63218	1.19643
2950.70361	1.17406
2948.77505	1.15213
2946.84648	1.13092
2944.91792	1.11002
2942.98936	1.08902
2941.06079	1.06833
2939.13223	1.04808
2937.20366	1.02840
2935.27510	1.00944
2933.34653	0.99105
2931.41797	0.97328
2929.48940	0.95605
2927.56084	0.93887
2925.63228	0.92126
2923.70371	0.90374
2921.77515	0.88699
2919.84658	0.87080
2917.91802	0.85499
2915.98945	0.83946
2914.06089	0.82401
2912.13232	0.80897
2910.20376	0.79461
2908.27520	0.78077
2906.34663	0.76740
2904.41807	0.75400
2902.48950	0.74042
2900.56094	0.72749
2898.63237	0.71541
2896.70381	0.70345
2894.77524	0.69146
2892.84668	0.67972
2890.91812	0.66826
2888.98955	0.65713
2887.06099	0.64629
2885.13242	0.63568
2883.20386	0.62507
2881.27529	0.61445
2879.34673	0.60411
2877.41816	0.59409
2875.48960	0.58432
2873.56104	0.57463
2871.63247	0.56464
2869.70391	0.55454
2867.77534	0.54466
2865.84678	0.53490
2863.91821	0.52500
2861.98965	0.51517
2860.06108	0.50595
2858.13252	0.49722
2856.20396	0.48872
2854.27539	0.48075
2852.34683	0.47310
2850.41826	0.46537
2848.48970	0.45767
2846.56113	0.45013
2844.63257	0.44298
2842.70400	0.43643
2840.77544	0.43027
2838.84687	0.42435
2836.91831	0.41868
2834.98975	0.41285
2833.06118	0.40680
2831.13262	0.40105
2829.20405	0.39564
2827.27549	0.39010
2825.34692	0.38433
2823.41836	0.37856
2821.48979	0.37304
2819.56123	0.36774
2817.63267	0.36241
2815.70410	0.35716
2813.77554	0.35203
2811.84697	0.34677
2809.91841	0.34148
2807.98984	0.33648
2806.06128	0.33177
2804.13271	0.32715
2802.20415	0.32261
2800.27559	0.31810
2798.34702	0.31349
2796.41846	0.30885
2794.48989	0.30436
2792.56133	0.30002
2790.63276	0.29569
2788.70420	0.29147
2786.77563	0.28757
2784.84707	0.28389
2782.91851	0.28012
2780.98994	0.27623
2779.06138	0.27242
2777.13281	0.26880
2775.20425	0.26538
2773.27568	0.26199
2771.34712	0.25849
2769.41855	0.25501
2767.48999	0.25171
2765.56143	0.24860
2763.63286	0.24568
2761.70430	0.24281
2759.77573	0.23977
2757.84717	0.23662
2755.91860	0.23370
2753.99004	0.23099
2752.06147	0.22826
2750.13291	0.22537
2748.20435	0.22249
2746.27578	0.21982
2744.34722	0.21742
2742.41865	0.21517
2740.49009	0.21278
2738.56152	0.21019
2736.63296	0.20770
2734.70439	0.20543
2732.77583	0.20336
2730.84727	0.20144
2728.91870	0.19943
2726.99014	0.19727
2725.06157	0.19520
2723.13301	0.19326
2721.20444	0.19132
2719.27588	0.18941
2717.34731	0.18758
2715.41875	0.18580
2713.49019	0.18403
2711.56162	0.18232
2709.63306	0.18070
2707.70449	0.17912
2705.77593	0.17768
2703.84736	0.17641
2701.91880	0.17503
2699.99023	0.17336
2698.06167	0.17164
2696.13311	0.17021
2694.20454	0.16914
2692.27598	0.16810
2690.34741	0.16685
2688.41885	0.16563
2686.49028	0.16458
2684.56172	0.16344
2682.63315	0.16212
2680.70459	0.16085
2678.77603	0.15975
2676.84746	0.15880
2674.91890	0.15797
2672.99033	0.15704
2671.06177	0.15591
2669.13320	0.15479
2667.20464	0.15394
2665.27607	0.15330
2663.34751	0.15277
2661.41895	0.15219
2659.49038	0.15141
2657.56182	0.15057
2655.63325	0.14978
2653.70469	0.14904
2651.77612	0.14835
2649.84756	0.14786
2647.91899	0.14755
2645.99043	0.14722
2644.06187	0.14678
2642.13330	0.14632
2640.20474	0.14584
2638.27617	0.14528
2636.34761	0.14475
2634.41904	0.14441
2632.49048	0.14417
2630.56191	0.14382
2628.63335	0.14337
2626.70479	0.14304
2624.77622	0.14286
2622.84766	0.14265
2620.91909	0.14237
2618.99053	0.14216
2617.06196	0.14199
2615.13340	0.14189
2613.20483	0.14198
2611.27627	0.14211
2609.34771	0.14212
2607.41914	0.14201
2605.49058	0.14187
2603.56201	0.14169
2601.63345	0.14163
2599.70488	0.14176
2597.77632	0.14191
2595.84775	0.14200
2593.91919	0.14213
2591.99062	0.14229
2590.06206	0.14242
2588.13350	0.14264
2586.20493	0.14290
2584.27637	0.14312
2582.34780	0.14342
2580.41924	0.14375
2578.49067	0.14407
2576.56211	0.14439
2574.63354	0.14473
2572.70498	0.14505
2570.77642	0.14535
2568.84785	0.14571
2566.91929	0.14611
2564.99072	0.14661
2563.06216	0.14717
2561.13359	0.14760
2559.20503	0.14796
2557.27646	0.14840
2555.34790	0.14890
2553.41934	0.14945
2551.49077	0.15003
2549.56221	0.15060
2547.63364	0.15123
2545.70508	0.15190
2543.77651	0.15245
2541.84795	0.15296
2539.91938	0.15359
2537.99082	0.15435
2536.06226	0.15521
2534.13369	0.15599
2532.20513	0.15664
2530.27656	0.15724
2528.34800	0.15781
2526.41943	0.15850
2524.49087	0.15931
2522.56230	0.16008
2520.63374	0.16083
2518.70518	0.16162
2516.77661	0.16247
2514.84805	0.16336
2512.91948	0.16415
2510.99092	0.16487
2509.06235	0.16563
2507.13379	0.16644
2505.20522	0.16723
2503.27666	0.16803
2501.34810	0.16889
2499.41953	0.16990
2497.49097	0.17092
2495.56240	0.17173
2493.63384	0.17247
2491.70527	0.17336
2489.77671	0.17428
2487.84814	0.17504
2485.91958	0.17579
2483.99102	0.17672
2482.06245	0.17772
2480.13389	0.17864
2478.20532	0.17952
2476.27676	0.18045
2474.34819	0.18138
2472.41963	0.18222
2470.49106	0.18299
2468.56250	0.18380
2466.63394	0.18478
2464.70537	0.18587
2462.77681	0.18690
2460.84824	0.18794
2458.91968	0.18905
2456.99111	0.19012
2455.06255	0.19107
2453.13398	0.19198
2451.20542	0.19287
2449.27686	0.19376
2447.34829	0.19477
2445.41973	0.19589
2443.49116	0.19696
2441.56260	0.19789
2439.63403	0.19881
2437.70547	0.19982
2435.77690	0.20088
2433.84834	0.20194
2431.91978	0.20303
2429.99121	0.20416
2428.06265	0.20526
2426.13408	0.20636
2424.20552	0.20747
2422.27695	0.20856
2420.34839	0.20965
2418.41982	0.21079
2416.49126	0.21186
2414.56270	0.21287
2412.63413	0.21396
2410.70557	0.21515
2408.77700	0.21645
2406.84844	0.21771
2404.91987	0.21874
2402.99131	0.21977
2401.06274	0.22107
2399.13418	0.22246
2397.20562	0.22371
2395.27705	0.22482
2393.34849	0.22586
2391.41992	0.22700
2389.49136	0.22818
2387.56279	0.22916
2385.63423	0.22989
2383.70566	0.23043
2381.77710	0.23064
2379.84854	0.23049
2377.91997	0.23021
2375.99141	0.23000
2374.06284	0.22960
2372.13428	0.22852
2370.20571	0.22687
2368.27715	0.22501
2366.34858	0.22331
2364.42002	0.22206
2362.49146	0.22168
2360.56289	0.22296
2358.63433	0.22577
2356.70576	0.22892
2354.77720	0.23232
2352.84863	0.23705
2350.92007	0.24199
2348.99150	0.24487
2347.06294	0.24570
2345.13437	0.24563
2343.20581	0.24546
2341.27725	0.24584
2339.34868	0.24740
2337.42012	0.24924
2335.49155	0.25083
2333.56299	0.25304
2331.63442	0.25573
2329.70586	0.25799
2327.77729	0.26010
2325.84873	0.26233
2323.92017	0.26465
2321.99160	0.26746
2320.06304	0.27065
2318.13447	0.27367
2316.20591	0.27641
2314.27734	0.27895
2312.34878	0.28133
2310.42021	0.28376
2308.49165	0.28635
2306.56309	0.28897
2304.63452	0.29144
2302.70596	0.29368
2300.77739	0.29577
2298.84883	0.29783
2296.92026	0.29992
2294.99170	0.30212
2293.06313	0.30444
2291.13457	0.30670
2289.20601	0.30890
2287.27744	0.31122
2285.34888	0.31363
2283.42031	0.31592
2281.49175	0.31795
2279.56318	0.31979
2277.63462	0.32164
2275.70605	0.32360
2273.77749	0.32554
2271.84893	0.32740
2269.92036	0.32937
2267.99180	0.33147
2266.06323	0.33362
2264.13467	0.33582
2262.20610	0.33807
2260.27754	0.34029
2258.34897	0.34259
2256.42041	0.34494
2254.49185	0.34708
2252.56328	0.34910
2250.63472	0.35114
2248.70615	0.35319
2246.77759	0.35532
2244.84902	0.35753
2242.92046	0.35980
2240.99189	0.36212
2239.06333	0.36437
2237.13477	0.36651
2235.20620	0.36870
2233.27764	0.37096
2231.34907	0.37317
2229.42051	0.37536
2227.49194	0.37758
2225.56338	0.37979
2223.63481	0.38196
2221.70625	0.38422
2219.77769	0.38653
2217.84912	0.38869
2215.92056	0.39074
2213.99199	0.39289
2212.06343	0.39508
2210.13486	0.39721
2208.20630	0.39931
2206.27773	0.40130
2204.34917	0.40324
2202.42061	0.40532
2200.49204	0.40744
2198.56348	0.40943
2196.63491	0.41135
2194.70635	0.41319
2192.77778	0.41499
2190.84922	0.41688
2188.92065	0.41889
2186.99209	0.42084
2185.06353	0.42266
2183.13496	0.42444
2181.20640	0.42613
2179.27783	0.42761
2177.34927	0.42903
2175.42070	0.43053
2173.49214	0.43206
2171.56357	0.43359
2169.63501	0.43507
2167.70645	0.43645
2165.77788	0.43777
2163.84932	0.43915
2161.92075	0.44048
2159.99219	0.44165
2158.06362	0.44270
2156.13506	0.44369
2154.20649	0.44465
2152.27793	0.44554
2150.34937	0.44625
2148.42080	0.44681
2146.49224	0.44736
2144.56367	0.44799
2142.63511	0.44866
2140.70654	0.44917
2138.77798	0.44947
2136.84941	0.44970
2134.92085	0.44994
2132.99229	0.45005
2131.06372	0.44995
2129.13516	0.44984
2127.20659	0.44980
2125.27803	0.44972
2123.34946	0.44948
2121.42090	0.44919
2119.49233	0.44877
2117.56377	0.44818
2115.63521	0.44752
2113.70664	0.44679
2111.77808	0.44601
2109.84951	0.44525
2107.92095	0.44436
2105.99238	0.44326
2104.06382	0.44207
2102.13525	0.44090
2100.20669	0.43976
2098.27812	0.43854
2096.34956	0.43716
2094.42100	0.43578
2092.49243	0.43446
2090.56387	0.43299
2088.63530	0.43132
2086.70674	0.42958
2084.77817	0.42777
2082.84961	0.42595
2080.92104	0.42420
2078.99248	0.42250
2077.06392	0.42063
2075.13535	0.41852
2073.20679	0.41630
2071.27822	0.41409
2069.34966	0.41189
2067.42109	0.40977
2065.49253	0.40776
2063.56396	0.40562
2061.63540	0.40323
2059.70684	0.40076
2057.77827	0.39830
2055.84971	0.39589
2053.92114	0.39354
2051.99258	0.39120
2050.06401	0.38875
2048.13545	0.38620
2046.20688	0.38359
2044.27832	0.38104
2042.34976	0.37850
2040.42119	0.37580
2038.49263	0.37303
2036.56406	0.37034
2034.63550	0.36766
2032.70693	0.36501
2030.77837	0.36237
2028.84980	0.35968
2026.92124	0.35696
2024.99268	0.35423
2023.06411	0.35151
2021.13555	0.34881
2019.20698	0.34614
2017.27842	0.34349
2015.34985	0.34075
2013.42129	0.33792
2011.49272	0.33519
2009.56416	0.33264
2007.63560	0.33002
2005.70703	0.32728
2003.77847	0.32455
2001.84990	0.32186
1999.92134	0.31932
1997.99277	0.31684
1996.06421	0.31436
1994.13564	0.31198
1992.20708	0.30958
1990.27852	0.30698
1988.34995	0.30444
1986.42139	0.30205
1984.49282	0.29964
1982.56426	0.29720
1980.63569	0.29483
1978.70713	0.29261
1976.77856	0.29046
1974.85000	0.28828
1972.92144	0.28602
1970.99287	0.28373
1969.06431	0.28154
1967.13574	0.27953
1965.20718	0.27763
1963.27861	0.27568
1961.35005	0.27367
1959.42148	0.27168
1957.49292	0.26981
1955.56436	0.26803
1953.63579	0.26626
1951.70723	0.26450
1949.77866	0.26280
1947.85010	0.26120
1945.92153	0.25972
1943.99297	0.25834
1942.06440	0.25689
1940.13584	0.25526
1938.20728	0.25366
1936.27871	0.25234
1934.35015	0.25116
1932.42158	0.24996
1930.49302	0.24871
1928.56445	0.24744
1926.63589	0.24622
1924.70732	0.24518
1922.77876	0.24427
1920.85020	0.24335
1918.92163	0.24248
1916.99307	0.24158
1915.06450	0.24050
1913.13594	0.23947
1911.20737	0.23872
1909.27881	0.23807
1907.35024	0.23737
1905.42168	0.23667
1903.49312	0.23604
1901.56455	0.23543
1899.63599	0.23485
1897.70742	0.23445
1895.77886	0.23414
1893.85029	0.23377
1891.92173	0.23328
1889.99316	0.23296
1888.06460	0.23269
1886.13604	0.23236
1884.20747	0.23207
1882.27891	0.23191
1880.35034	0.23181
1878.42178	0.23165
1876.49321	0.23157
1874.56465	0.23161
1872.63608	0.23178
1870.70752	0.23210
1868.77896	0.23263
1866.85039	0.23287
1864.92183	0.23267
1862.99326	0.23261
1861.06470	0.23284
1859.13613	0.23326
1857.20757	0.23362
1855.27900	0.23401
1853.35044	0.23440
1851.42187	0.23479
1849.49331	0.23524
1847.56475	0.23592
1845.63618	0.23686
1843.70762	0.23800
1841.77905	0.23879
1839.85049	0.23912
1837.92192	0.23971
1835.99336	0.24059
1834.06479	0.24151
1832.13623	0.24247
1830.20767	0.24383
1828.27910	0.24534
1826.35054	0.24648
1824.42197	0.24773
1822.49341	0.24890
1820.56484	0.25002
1818.63628	0.25139
1816.70771	0.25306
1814.77915	0.25468
1812.85059	0.25634
1810.92202	0.25832
1808.99346	0.26041
1807.06489	0.26237
1805.13633	0.26424
1803.20776	0.26640
1801.27920	0.26882
1799.35063	0.27145
1797.42207	0.27391
1795.49351	0.27633
1793.56494	0.27906
1791.63638	0.28260
1789.70781	0.28615
1787.77925	0.28884
1785.85068	0.29190
1783.92212	0.29551
1781.99355	0.29942
1780.06499	0.30359
1778.13643	0.30785
1776.20786	0.31185
1774.27930	0.31613
1772.35073	0.32191
1770.42217	0.32824
1768.49360	0.33356
1766.56504	0.33861
1764.63647	0.34373
1762.70791	0.34938
1760.77935	0.35671
1758.85078	0.36370
1756.92222	0.37072
1754.99365	0.37850
1753.06509	0.38553
1751.13652	0.39366
1749.20796	0.40401
1747.27939	0.41464
1745.35083	0.42406
1743.42227	0.43364
1741.49370	0.44394
1739.56514	0.45618
1737.63657	0.46858
1735.70801	0.47930
1733.77944	0.49539
1731.85088	0.51507
1729.92231	0.53068
1727.99375	0.54631
1726.06519	0.56300
1724.13662	0.58126
1722.20806	0.60102
1720.27949	0.61912
1718.35093	0.64021
1716.42236	0.67189
1714.49380	0.70240
1712.56523	0.72686
1710.63667	0.75032
1708.70811	0.77556
1706.77954	0.80430
1704.85098	0.83866
1702.92241	0.86924
1700.99385	0.89924
1699.06528	0.94423
1697.13672	0.98594
1695.20815	1.02873
1693.27959	1.06998
1691.35103	1.10268
1689.42246	1.14043
1687.49390	1.18048
1685.56533	1.21859
1683.63677	1.27745
1681.70820	1.33933
1679.77964	1.37846
1677.85107	1.41542
1675.92251	1.45811
1673.99395	1.51146
1672.06538	1.55913
1670.13682	1.60473
1668.20825	1.66344
1666.27969	1.71190
1664.35112	1.75310
1662.42256	1.80367
1660.49399	1.86054
1658.56543	1.90513
1656.63687	1.94071
1654.70830	1.97362
1652.77974	2.02979
1650.85117	2.08539
1648.92261	2.10722
1646.99404	2.13643
1645.06548	2.16774
1643.13691	2.18701
1641.20835	2.19982
1639.27979	2.21160
1637.35122	2.21794
1635.42266	2.21755
1633.49409	2.21242
1631.56553	2.20241
1629.63696	2.18955
1627.70840	2.16673
1625.77983	2.13812
1623.85127	2.09967
1621.92271	2.05254
1619.99414	2.01134
1618.06558	1.97006
1616.13701	1.90863
1614.20845	1.84508
1612.27988	1.79727
1610.35132	1.74793
1608.42275	1.69367
1606.49419	1.63919
1604.56562	1.58919
1602.63706	1.54129
1600.70850	1.49386
1598.77993	1.44929
1596.85137	1.40713
1594.92280	1.36669
1592.99424	1.32795
1591.06567	1.29222
1589.13711	1.25861
1587.20854	1.22734
1585.27998	1.19825
1583.35142	1.17063
1581.42285	1.14515
1579.49429	1.12320
1577.56572	1.10318
1575.63716	1.07826
1573.70859	1.05605
1571.78003	1.04159
1569.85146	1.02603
1567.92290	1.00795
1565.99434	0.99365
1564.06577	0.98204
1562.13721	0.97273
1560.20864	0.96535
1558.28008	0.95359
1556.35151	0.94257
1554.42295	0.93519
1552.49438	0.92801
1550.56582	0.92106
1548.63726	0.91354
1546.70869	0.90605
1544.78013	0.89801
1542.85156	0.88838
1540.92300	0.87600
1538.99443	0.85863
1537.06587	0.84594
1535.13730	0.83736
1533.20874	0.82628
1531.28018	0.81408
1529.35161	0.80494
1527.42305	0.79627
1525.49448	0.78715
1523.56592	0.77937
1521.63735	0.77212
1519.70879	0.76441
1517.78022	0.75752
1515.85166	0.74997
1513.92310	0.74240
1511.99453	0.73615
1510.06597	0.73069
1508.13740	0.72526
1506.20884	0.71667
1504.28027	0.70910
1502.35171	0.70460
1500.42314	0.70055
1498.49458	0.69626
1496.56602	0.69124
1494.63745	0.68623
1492.70889	0.68240
1490.78032	0.67916
1488.85176	0.67505
1486.92319	0.67064
1484.99463	0.66703
1483.06606	0.66403
1481.13750	0.66117
1479.20894	0.65854
1477.28037	0.65641
1475.35181	0.65447
1473.42324	0.65234
1471.49468	0.64962
1469.56611	0.64673
1467.63755	0.64410
1465.70898	0.64166
1463.78042	0.63945
1461.85186	0.63779
1459.92329	0.63656
1457.99473	0.63528
1456.06616	0.63369
1454.13760	0.63191
1452.20903	0.63004
1450.28047	0.62797
1448.35190	0.62582
1446.42334	0.62372
1444.49478	0.62192
1442.56621	0.62031
1440.63765	0.61861
1438.70908	0.61695
1436.78052	0.61520
1434.85195	0.61315
1432.92339	0.61113
1430.99482	0.60942
1429.06626	0.60790
1427.13770	0.60665
1425.20913	0.60581
1423.28057	0.60516
1421.35200	0.60446
1419.42344	0.60379
1417.49487	0.60299
1415.56631	0.60155
1413.63774	0.59995
1411.70918	0.59881
1409.78062	0.59824
1407.85205	0.59798
1405.92349	0.59782
1403.99492	0.59753
1402.06636	0.59672
1400.13779	0.59557
1398.20923	0.59434
1396.28066	0.59300
1394.35210	0.59119
1392.42354	0.58893
1390.49497	0.58675
1388.56641	0.58469
1386.63784	0.58242
1384.70928	0.57992
1382.78071	0.57743
1380.85215	0.57508
1378.92358	0.57313
1376.99502	0.57168
1375.06646	0.57061
1373.13789	0.56961
1371.20933	0.56866
1369.28076	0.56770
1367.35220	0.56642
1365.42363	0.56496
1363.49507	0.56380
1361.56650	0.56287
1359.63794	0.56199
1357.70937	0.56125
1355.78081	0.56043
1353.85225	0.55946
1351.92368	0.55855
1349.99512	0.55781
1348.06655	0.55706
1346.13799	0.55619
1344.20942	0.55532
1342.28086	0.55464
1340.35229	0.55415
1338.42373	0.55357
1336.49517	0.55273
1334.56660	0.55184
1332.63804	0.55112
1330.70947	0.55065
1328.78091	0.55031
1326.85234	0.54994
1324.92378	0.54952
1322.99521	0.54917
1321.06665	0.54892
1319.13809	0.54873
1317.20952	0.54839
1315.28096	0.54786
1313.35239	0.54725
1311.42383	0.54652
1309.49526	0.54575
1307.56670	0.54516
1305.63813	0.54471
1303.70957	0.54415
1301.78101	0.54350
1299.85244	0.54276
1297.92388	0.54192
1295.99531	0.54114
1294.06675	0.54047
1292.13818	0.53969
1290.20962	0.53880
1288.28105	0.53807
1286.35249	0.53754
1284.42393	0.53696
1282.49536	0.53615
1280.56680	0.53524
1278.63823	0.53454
1276.70967	0.53408
1274.78110	0.53361
1272.85254	0.53310
1270.92397	0.53264
1268.99541	0.53219
1267.06685	0.53174
1265.13828	0.53121
1263.20972	0.53065
1261.28115	0.53024
1259.35259	0.52994
1257.42402	0.52966
1255.49546	0.52943
1253.56689	0.52923
1251.63833	0.52913
1249.70977	0.52919
1247.78120	0.52914
1245.85264	0.52882
1243.92407	0.52835
1241.99551	0.52786
1240.06694	0.52728
1238.13838	0.52648
1236.20981	0.52559
1234.28125	0.52469
1232.35269	0.52370
1230.42412	0.52260
1228.49556	0.52158
1226.56699	0.52070
1224.63843	0.51985
1222.70986	0.51896
1220.78130	0.51807
1218.85273	0.51729
1216.92417	0.51660
1214.99561	0.51594
1213.06704	0.51521
1211.13848	0.51438
1209.20991	0.51359
1207.28135	0.51301
1205.35278	0.51256
1203.42422	0.51211
1201.49565	0.51159
1199.56709	0.51109
1197.63853	0.51067
1195.70996	0.51014
1193.78140	0.50952
1191.85283	0.50909
1189.92427	0.50892
1187.99570	0.50880
1186.06714	0.50859
1184.13857	0.50843
1182.21001	0.50856
1180.28145	0.50896
1178.35288	0.50948
1176.42432	0.51000
1174.49575	0.51040
1172.56719	0.51067
1170.63862	0.51091
1168.71006	0.51124
1166.78149	0.51153
1164.85293	0.51153
1162.92437	0.51133
1160.99580	0.51106
1159.06724	0.51056
1157.13867	0.50983
1155.21011	0.50901
1153.28154	0.50795
1151.35298	0.50650
1149.42441	0.50476
1147.49585	0.50278
1145.56729	0.50063
1143.63872	0.49840
1141.71016	0.49617
1139.78159	0.49398
1137.85303	0.49194
1135.92446	0.49015
1133.99590	0.48848
1132.06733	0.48686
1130.13877	0.48536
1128.21021	0.48393
1126.28164	0.48253
1124.35308	0.48129
1122.42451	0.48052
1120.49595	0.48019
1118.56738	0.47984
1116.63882	0.47944
1114.71025	0.47934
1112.78169	0.47954
1110.85312	0.47995
1108.92456	0.48073
1106.99600	0.48187
1105.06743	0.48310
1103.13887	0.48453
1101.21030	0.48653
1099.28174	0.48894
1097.35317	0.49147
1095.42461	0.49430
1093.49604	0.49773
1091.56748	0.50182
1089.63892	0.50656
1087.71035	0.51198
1085.78179	0.51794
1083.85322	0.52433
1081.92466	0.53068
1079.99609	0.53605
1078.06753	0.53976
1076.13896	0.54121
1074.21040	0.53970
1072.28184	0.53547
1070.35327	0.52960
1068.42471	0.52316
1066.49614	0.51682
1064.56758	0.51066
1062.63901	0.50483
1060.71045	0.49972
1058.78188	0.49532
1056.85332	0.49132
1054.92476	0.48751
1052.99619	0.48422
1051.06763	0.48172
1049.13906	0.47960
1047.21050	0.47747
1045.28193	0.47557
1043.35337	0.47411
1041.42480	0.47301
1039.49624	0.47221
1037.56768	0.47166
1035.63911	0.47131
1033.71055	0.47105
1031.78198	0.47100
1029.85342	0.47120
1027.92485	0.47141
1025.99629	0.47164
1024.06772	0.47222
1022.13916	0.47306
1020.21060	0.47391
1018.28203	0.47463
1016.35347	0.47533
1014.42490	0.47637
1012.49634	0.47769
1010.56777	0.47912
1008.63921	0.48068
1006.71064	0.48251
1004.78208	0.48471
1002.85352	0.48715
1000.92495	0.48955
998.99639	0.49210
997.06782	0.49539
995.13926	0.49936
993.21069	0.50335
991.28213	0.50685
989.35356	0.50945
987.42500	0.51119
985.49644	0.51245
983.56787	0.51326
981.63931	0.51393
979.71074	0.51526
977.78218	0.51721
975.85361	0.51955
973.92505	0.52252
971.99648	0.52594
970.06792	0.52938
968.13936	0.53292
966.21079	0.53669
964.28223	0.54070
962.35366	0.54528
960.42510	0.55039
958.49653	0.55563
956.56797	0.56103
954.63940	0.56691
952.71084	0.57306
950.78228	0.57932
948.85371	0.58581
946.92515	0.59246
944.99658	0.59899
943.06802	0.60526
941.13945	0.61142
939.21089	0.61740
937.28232	0.62298
935.35376	0.62807
933.42520	0.63295
931.49663	0.63826
929.56807	0.64401
927.63950	0.64968
925.71094	0.65548
923.78237	0.66194
921.85381	0.66860
919.92524	0.67503
917.99668	0.68154
916.06812	0.68808
914.13955	0.69465
912.21099	0.70197
910.28242	0.71036
908.35386	0.71923
906.42529	0.72799
904.49673	0.73650
902.56816	0.74550
900.63960	0.75511
898.71104	0.76407
896.78247	0.77237
894.85391	0.78142
892.92534	0.79201
890.99678	0.80310
889.06821	0.81330
887.13965	0.82314
885.21108	0.83399
883.28252	0.84522
881.35396	0.85520
879.42539	0.86566
877.49683	0.87843
875.56826	0.89167
873.63970	0.90309
871.71113	0.91319
869.78257	0.92447
867.85400	0.93606
865.92544	0.94620
863.99687	0.95707
862.06831	0.96928
860.13975	0.98067
858.21118	0.99148
856.28262	1.00271
854.35405	1.01355
852.42549	1.02423
850.49692	1.03647
848.56836	1.05032
846.63979	1.06341
844.71123	1.07391
842.78267	1.08310
840.85410	1.09409
838.92554	1.10763
836.99697	1.12175
835.06841	1.13320
833.13984	1.14130
831.21128	1.15307
829.28271	1.17143
827.35415	1.18715
825.42559	1.19710
823.49702	1.20818
821.56846	1.21888
819.63989	1.22109
817.71133	1.22023
815.78276	1.23055
813.85420	1.25071
811.92563	1.27069
809.99707	1.28455
808.06851	1.29470
806.13994	1.30704
804.21138	1.31146
802.28281	1.31122
800.35425	1.31963
798.42568	1.33237
796.49712	1.34914
794.56855	1.36105
792.63999	1.35829
790.71143	1.36841
788.78286	1.40914
786.85430	1.46322
784.92573	1.50698
782.99717	1.51018
781.06860	1.47946
779.14004	1.45929
777.21147	1.48949
775.28291	1.58645
773.35435	1.71847
771.42578	1.77468
769.49722	1.65260
767.56865	1.71200
765.64009	4.59384
763.71152	4.58227
761.78296	2.15445
759.85439	1.44226
757.92583	1.29967
755.99727	1.21101
754.06870	1.18603
752.14014	1.35531
750.21157	1.99374
748.28301	2.17589
746.35444	1.58364
744.42588	1.43385
742.49731	1.27894
740.56875	1.09900
738.64019	1.08682
736.71162	1.18745
734.78306	1.12035
732.85449	1.06006
730.92593	1.26196
728.99736	0.94283
727.06880	0.50969
725.14023	0.37973
723.21167	0.40467
721.28311	0.43096
719.35454	0.46491
717.42598	0.66107
715.49741	1.03352
713.56885	0.87836
711.64028	0.63864
709.71172	0.35350
707.78315	0.17892
705.85459	0.12518
703.92603	0.27589
701.99746	0.64615
700.06890	0.71066
698.14033	0.30154
696.21177	0.14296
694.28320	0.17283
692.35464	0.28297
690.42607	0.47044
688.49751	0.49734
686.56895	0.27598
684.64038	0.26389
682.71182	0.38184
680.78325	0.41635
678.85469	0.36429
676.92612	0.43593
674.99756	0.65989
673.06899	0.53166
671.14043	0.43559
669.21187	0.53924
667.28330	0.72862
665.35474	0.51611
663.42617	0.30370
661.49761	0.22810
659.56904	0.23701
657.64048	0.35317
655.71191	0.80392
653.78335	3.92270
651.85479	0.84220
649.92622	0.54646
647.99766	0.46365
646.06909	0.45321
644.14053	0.44859
642.21196	0.37419
640.28340	0.27836
638.35483	0.20224
636.42627	0.14599
634.49771	0.12353
632.56914	0.14561
630.64058	0.23122
628.71201	0.34773
626.78345	0.43034
624.85488	0.48864
622.92632	0.41401
620.99775	0.27176
619.06919	0.19128
617.14062	0.17360
615.21206	0.20563
613.28350	0.28140
611.35493	0.34901
609.42637	0.33953
607.49780	0.30166
605.56924	0.31884
603.64067	0.38918
601.71211	0.44006
599.78354	0.41761
597.85498	0.39291
595.92642	0.38635
593.99785	0.38777
592.06929	0.37959
590.14072	0.29944
588.21216	0.20094
586.28359	0.17195
584.35503	0.23251
582.42646	0.32503
580.49790	0.33603
578.56934	0.28765
576.64077	0.29481
574.71221	0.42613
572.78364	0.59605
570.85508	0.47537
568.92651	0.41421
566.99795	0.44924
565.06938	0.46403
563.14082	0.49816
561.21226	0.53403
559.28369	0.48887
557.35513	0.38903
555.42656	0.27789
553.49800	0.24395
551.56943	0.31837
549.64087	0.35096
547.71230	0.23427
545.78374	0.18815
543.85518	0.29342
541.92661	0.44656
539.99805	0.37894
538.06948	0.33283
536.14092	0.43491
534.21235	0.70497
532.28379	0.73641
530.35522	0.44133
528.42666	0.30738
526.49810	0.26100
524.56953	0.25578
522.64097	0.32167
520.71240	0.43985
518.78384	0.40213
516.85527	0.26174
514.92671	0.19056
512.99814	0.18663
511.06958	0.21115
509.14102	0.24602
507.21245	0.29325
505.28389	0.31429
503.35532	0.27847
501.42676	0.25811
499.49819	0.31160
