3997.91411	0.06974
3995.98555	0.07039
3994.05698	0.07059
3992.12842	0.07073
3990.19985	0.07122
3988.27129	0.07166
3986.34272	0.07169
3984.41416	0.07178
3982.48560	0.07217
3980.55703	0.07244
3978.62847	0.07233
3976.69990	0.07246
3974.77134	0.07323
3972.84277	0.07402
3970.91421	0.07427
3968.98564	0.07408
3967.05708	0.07366
3965.12852	0.07357
3963.19995	0.07416
3961.27139	0.07460
3959.34282	0.07443
3957.41426	0.07433
3955.48569	0.07463
3953.55713	0.07518
3951.62856	0.07601
3949.70000	0.07713
3947.77144	0.07783
3945.84287	0.07747
3943.91431	0.07707
3941.98574	0.07734
3940.05718	0.07699
3938.12861	0.07600
3936.20005	0.07563
3934.27148	0.07611
3932.34292	0.07733
3930.41436	0.07840
3928.48579	0.07799
3926.55723	0.07729
3924.62866	0.07794
3922.70010	0.07852
3920.77153	0.07791
3918.84297	0.07759
3916.91440	0.07789
3914.98584	0.07736
3913.05728	0.07590
3911.12871	0.07469
3909.20015	0.07423
3907.27158	0.07512
3905.34302	0.07822
3903.41445	0.08244
3901.48589	0.08445
3899.55732	0.08320
3897.62876	0.08011
3895.70020	0.07737
3893.77163	0.07695
3891.84307	0.07858
3889.91450	0.07948
3887.98594	0.07854
3886.05737	0.07868
3884.12881	0.08041
3882.20024	0.08156
3880.27168	0.08214
3878.34312	0.08136
3876.41455	0.07966
3874.48599	0.08008
3872.55742	0.08254
3870.62886	0.08505
3868.70029	0.08593
3866.77173	0.08471
3864.84316	0.08463
3862.91460	0.08564
3860.98604	0.08442
3859.05747	0.08254
3857.12891	0.08308
3855.20034	0.08681
3853.27178	0.09315
3851.34321	0.09486
3849.41465	0.08928
3847.48608	0.08464
3845.55752	0.08336
3843.62896	0.08522
3841.70039	0.08884
3839.77183	0.09286
3837.84326	0.09627
3835.91470	0.09650
3833.98613	0.09422
3832.05757	0.09231
3830.12900	0.09120
3828.20044	0.09098
3826.27187	0.09200
3824.34331	0.09349
3822.41475	0.09593
3820.48618	0.10054
3818.55762	0.10271
3816.62905	0.10167
3814.70049	0.10058
3812.77192	0.09829
3810.84336	0.09619
3808.91479	0.09640
3806.98623	0.09923
3805.05767	0.10286
3803.12910	0.10587
3801.20054	0.10945
3799.27197	0.11108
3797.34341	0.10992
3795.41484	0.10888
3793.48628	0.10764
3791.55771	0.10663
3789.62915	0.10700
3787.70059	0.10852
3785.77202	0.11088
3783.84346	0.11345
3781.91489	0.11516
3779.98633	0.11698
3778.05776	0.11928
3776.12920	0.11988
3774.20063	0.11948
3772.27207	0.12084
3770.34351	0.12500
3768.41494	0.12947
3766.48638	0.13156
3764.55781	0.13283
3762.62925	0.13400
3760.70068	0.13612
3758.77212	0.14032
3756.84355	0.14413
3754.91499	0.14628
3752.98643	0.15022
3751.05786	0.15814
3749.12930	0.16509
3747.20073	0.16599
3745.27217	0.16665
3743.34360	0.17028
3741.41504	0.17339
3739.48647	0.17549
3737.55791	0.17998
3735.62935	0.18875
3733.70078	0.19826
3731.77222	0.20202
3729.84365	0.20269
3727.91509	0.20496
3725.98652	0.21068
3724.05796	0.21824
3722.12939	0.22457
3720.20083	0.22950
3718.27227	0.23413
3716.34370	0.23957
3714.41514	0.24674
3712.48657	0.25827
3710.55801	0.27556
3708.62944	0.29051
3706.70088	0.29941
3704.77231	0.30864
3702.84375	0.32192
3700.91519	0.33963
3698.98662	0.35764
3697.05806	0.37435
3695.12949	0.39301
3693.20093	0.41386
3691.27236	0.43786
3689.34380	0.46888
3687.41523	0.50310
3685.48667	0.53003
3683.55811	0.55387
3681.62954	0.58157
3679.70098	0.61432
3677.77241	0.65014
3675.84385	0.69335
3673.91528	0.74879
3671.98672	0.79166
3670.05815	0.82996
3668.12959	0.88222
3666.20103	0.92802
3664.27246	0.96611
3662.34390	1.00873
3660.41533	1.05651
3658.48677	1.10482
3656.55820	1.15678
3654.62964	1.21382
3652.70107	1.26115
3650.77251	1.30429
3648.84395	1.36569
3646.91538	1.43592
3644.98682	1.48213
3643.05825	1.51774
3641.12969	1.55670
3639.20112	1.60105
3637.27256	1.64649
3635.34399	1.69126
3633.41543	1.73611
3631.48687	1.77838
3629.55830	1.82231
3627.62974	1.87921
3625.70117	1.92904
3623.77261	1.96075
3621.84404	1.99251
3619.91548	2.03141
3617.98691	2.07843
3616.05835	2.12209
3614.12979	2.15855
3612.20122	2.19790
3610.27266	2.23822
3608.34409	2.27910
3606.41553	2.32154
3604.48696	2.35977
3602.55840	2.39480
3600.62983	2.43470
3598.70127	2.47822
3596.77271	2.51933
3594.84414	2.55960
3592.91558	2.59954
3590.98701	2.63679
3589.05845	2.67373
3587.12988	2.71988
3585.20132	2.76875
3583.27275	2.80712
3581.34419	2.84188
3579.41562	2.88068
3577.48706	2.92432
3575.55850	2.96941
3573.62993	3.01323
3571.70137	3.05377
3569.77280	3.09377
3567.84424	3.13929
3565.91567	3.19422
3563.98711	3.24334
3562.05854	3.28275
3560.12998	3.32501
3558.20142	3.37015
3556.27285	3.41407
3554.34429	3.45718
3552.41572	3.50384
3550.48716	3.55203
3548.55859	3.59681
3546.63003	3.64095
3544.70146	3.68853
3542.77290	3.73565
3540.84434	3.78036
3538.91577	3.82576
3536.98721	3.87208
3535.05864	3.92126
3533.13008	3.97154
3531.20151	4.01904
3529.27295	4.06359
3527.34438	4.11000
3525.41582	4.15967
3523.48726	4.20950
3521.55869	4.25978
3519.63013	4.30944
3517.70156	4.35786
3515.77300	4.40365
3513.84443	4.44745
3511.91587	4.49295
3509.98730	4.54450
3508.05874	4.59725
3506.13018	4.64079
3504.20161	4.68167
3502.27305	4.72950
3500.34448	4.78238
3498.41592	4.83703
3496.48735	4.88771
3494.55879	4.92681
3492.63022	4.96495
3490.70166	5.01736
3488.77310	5.07824
3486.84453	5.13369
3484.91597	5.17966
3482.98740	5.22133
3481.05884	5.26549
3479.13027	5.31315
3477.20171	5.36003
3475.27314	5.40457
3473.34458	5.45325
3471.41602	5.50788
3469.48745	5.55540
3467.55889	5.59116
3465.63032	5.63256
3463.70176	5.68986
3461.77319	5.74474
3459.84463	5.79169
3457.91606	5.84206
3455.98750	5.89264
3454.05894	5.94297
3452.13037	5.99753
3450.20181	6.05070
3448.27324	6.10075
3446.34468	6.15449
3444.41611	6.20542
3442.48755	6.25192
3440.55898	6.30456
3438.63042	6.36311
3436.70186	6.40878
3434.77329	6.43796
3432.84473	6.46822
3430.91616	6.51098
3428.98760	6.57825
3427.05903	6.64996
3425.13047	6.69981
3423.20190	6.73330
3421.27334	6.76098
3419.34478	6.79870
3417.41621	6.86501
3415.48765	6.94501
3413.55908	6.99482
3411.63052	7.00379
3409.70195	7.01079
3407.77339	7.04979
3405.84482	7.11198
3403.91626	7.17930
3401.98770	7.21571
3400.05913	7.23105
3398.13057	7.28104
3396.20200	7.35598
3394.27344	7.41256
3392.34487	7.45064
3390.41631	7.50195
3388.48774	7.54426
3386.55918	7.56547
3384.63062	7.58898
3382.70205	7.62541
3380.77349	7.63667
3378.84492	7.61380
3376.91636	7.62889
3374.98779	7.68594
3373.05923	7.73292
3371.13066	7.73116
3369.20210	7.73699
3367.27354	7.81643
3365.34497	7.91844
3363.41641	7.94728
3361.48784	7.93885
3359.55928	7.98768
3357.63071	8.04446
3355.70215	8.02642
3353.77358	7.98071
3351.84502	8.00466
3349.91646	8.03118
3347.98789	7.98593
3346.05933	7.94722
3344.13076	7.96014
3342.20220	7.96024
3340.27363	7.93126
3338.34507	7.96394
3336.41650	7.99431
3334.48794	7.95847
3332.55937	7.95299
3330.63081	7.99549
3328.70225	8.02813
3326.77368	8.05927
3324.84512	8.09184
3322.91655	8.13233
3320.98799	8.19196
3319.05942	8.15840
3317.13086	8.05927
3315.20229	8.04805
3313.27373	8.14174
3311.34517	8.19105
3309.41660	8.18079
3307.48804	8.20324
3305.55947	8.17016
3303.63091	8.10810
3301.70234	8.11251
3299.77378	8.17245
3297.84521	8.19206
3295.91665	8.11696
3293.98809	8.04408
3292.05952	8.04715
3290.13096	8.10112
3288.20239	8.15822
3286.27383	8.20274
3284.34526	8.21519
3282.41670	8.20840
3280.48813	8.21412
3278.55957	8.21847
3276.63101	8.16271
3274.70244	8.11234
3272.77388	8.15094
3270.84531	8.15891
3268.91675	8.08278
3266.98818	8.05540
3265.05962	8.13771
3263.13105	8.22758
3261.20249	8.20654
3259.27393	8.10850
3257.34536	8.02445
3255.41680	8.00359
3253.48823	8.07462
3251.55967	8.17916
3249.63110	8.16673
3247.70254	8.08468
3245.77397	8.10943
3243.84541	8.17969
3241.91685	8.12409
3239.98828	8.03666
3238.05972	8.01930
3236.13115	8.05620
3234.20259	8.12079
3232.27402	8.17297
3230.34546	8.21625
3228.41689	8.22509
3226.48833	8.17566
3224.55977	8.09443
3222.63120	7.97654
3220.70264	7.88486
3218.77407	7.90283
3216.84551	7.98421
3214.91694	8.03303
3212.98838	8.01705
3211.05981	7.95731
3209.13125	7.86753
3207.20269	7.75892
3205.27412	7.69260
3203.34556	7.66136
3201.41699	7.61897
3199.48843	7.60807
3197.55986	7.64410
3195.63130	7.65273
3193.70273	7.62049
3191.77417	7.59523
3189.84561	7.55278
3187.91704	7.47053
3185.98848	7.37922
3184.05991	7.29111
3182.13135	7.22137
3180.20278	7.18847
3178.27422	7.18345
3176.34565	7.17265
3174.41709	7.12366
3172.48853	7.06021
3170.55996	6.99909
3168.63140	6.92961
3166.70283	6.86596
3164.77427	6.79524
3162.84570	6.70743
3160.91714	6.63502
3158.98857	6.58046
3157.06001	6.52790
3155.13145	6.46956
3153.20288	6.39184
3151.27432	6.31754
3149.34575	6.26461
3147.41719	6.21287
3145.48862	6.14660
3143.56006	6.06014
3141.63149	5.97106
3139.70293	5.89539
3137.77437	5.82728
3135.84580	5.75805
3133.91724	5.68753
3131.98867	5.61962
3130.06011	5.55015
3128.13154	5.48130
3126.20298	5.41617
3124.27441	5.34731
3122.34585	5.27283
3120.41729	5.19943
3118.48872	5.13010
3116.56016	5.06385
3114.63159	5.00121
3112.70303	4.93575
3110.77446	4.85960
3108.84590	4.78374
3106.91733	4.72019
3104.98877	4.65884
3103.06021	4.59070
3101.13164	4.52356
3099.20308	4.46093
3097.27451	4.39495
3095.34595	4.32496
3093.41738	4.25869
3091.48882	4.19747
3089.56025	4.13693
3087.63169	4.07496
3085.70312	4.01317
3083.77456	3.95234
3081.84600	3.89238
3079.91743	3.83447
3077.98887	3.77607
3076.06030	3.71475
3074.13174	3.65416
3072.20317	3.59622
3070.27461	3.54014
3068.34604	3.48569
3066.41748	3.43067
3064.48892	3.37492
3062.56035	3.32133
3060.63179	3.26966
3058.70322	3.21814
3056.77466	3.16661
3054.84609	3.11422
3052.91753	3.06092
3050.98896	3.00890
3049.06040	2.95909
3047.13184	2.91063
3045.20327	2.86185
3043.27471	2.81290
3041.34614	2.76602
3039.41758	2.72152
3037.48901	2.67744
3035.56045	2.63234
3033.63188	2.58671
3031.70332	2.54192
3029.77476	2.49852
3027.84619	2.45594
3025.91763	2.41352
3023.98906	2.37174
3022.06050	2.33095
3020.13193	2.29069
3018.20337	2.25057
3016.27480	2.21062
3014.34624	2.17161
3012.41768	2.13384
3010.48911	2.09668
3008.56055	2.05999
3006.63198	2.02400
3004.70342	1.98893
3002.77485	1.95472
3000.84629	1.92071
2998.91772	1.88692
2996.98916	1.85435
2995.06060	1.82352
2993.13203	1.79349
2991.20347	1.76338
2989.27490	1.73360
2987.34634	1.70453
2985.41777	1.67604
2983.48921	1.64797
2981.56064	1.62035
2979.63208	1.59325
2977.70352	1.56667
2975.77495	1.54079
2973.84639	1.51545
2971.91782	1.49018
2969.98926	1.46509
2968.06069	1.44062
2966.13213	1.41679
2964.20356	1.39287
2962.27500	1.36855
2960.34644	1.34441
2958.41787	1.32065
2956.48931	1.29731
2954.56074	1.27411
2952.63218	1.25084
2950.70361	1.22823
2948.77505	1.20619
2946.84648	1.18411
2944.91792	1.16250
2942.98936	1.14179
2941.06079	1.12153
2939.13223	1.10113
2937.20366	1.08002
2935.27510	1.05844
2933.34653	1.03737
2931.41797	1.01687
2929.48940	0.99631
2927.56084	0.97564
2925.63228	0.95558
2923.70371	0.93690
2921.77515	0.91970
2919.84658	0.90411
2917.91802	0.88989
2915.98945	0.87588
2914.06089	0.86154
2912.13232	0.84759
2910.20376	0.83437
2908.27520	0.82094
2906.34663	0.80691
2904.41807	0.79290
2902.48950	0.77937
2900.56094	0.76651
2898.63237	0.75420
2896.70381	0.74219
2894.77524	0.73029
2892.84668	0.71855
2890.91812	0.70720
2888.98955	0.69623
2887.06099	0.68569
2885.13242	0.67554
2883.20386	0.66543
2881.27529	0.65545
2879.34673	0.64598
2877.41816	0.63681
2875.48960	0.62747
2873.56104	0.61742
2871.63247	0.60645
2869.70391	0.59513
2867.77534	0.58388
2865.84678	0.57255
2863.91821	0.56101
2861.98965	0.54918
2860.06108	0.53731
2858.13252	0.52582
2856.20396	0.51494
2854.27539	0.50494
2852.34683	0.49594
2850.41826	0.48800
2848.48970	0.48109
2846.56113	0.47499
2844.63257	0.46936
2842.70400	0.46392
2840.77544	0.45855
2838.84687	0.45326
2836.91831	0.44793
2834.98975	0.44245
2833.06118	0.43678
2831.13262	0.43102
2829.20405	0.42530
2827.27549	0.41967
2825.34692	0.41402
2823.41836	0.40825
2821.48979	0.40251
2819.56123	0.39693
2817.63267	0.39134
2815.70410	0.38569
2813.77554	0.38009
2811.84697	0.37479
2809.91841	0.36972
2807.98984	0.36450
2806.06128	0.35919
2804.13271	0.35391
2802.20415	0.34870
2800.27559	0.34374
2798.34702	0.33900
2796.41846	0.33439
2794.48989	0.32996
2792.56133	0.32554
2790.63276	0.32091
2788.70420	0.31631
2786.77563	0.31205
2784.84707	0.30796
2782.91851	0.30390
2780.98994	0.29988
2779.06138	0.29587
2777.13281	0.29186
2775.20425	0.28798
2773.27568	0.28423
2771.34712	0.28060
2769.41855	0.27717
2767.48999	0.27387
2765.56143	0.27054
2763.63286	0.26720
2761.70430	0.26386
2759.77573	0.26049
2757.84717	0.25716
2755.91860	0.25399
2753.99004	0.25102
2752.06147	0.24817
2750.13291	0.24522
2748.20435	0.24222
2746.27578	0.23937
2744.34722	0.23665
2742.41865	0.23394
2740.49009	0.23114
2738.56152	0.22841
2736.63296	0.22595
2734.70439	0.22370
2732.77583	0.22137
2730.84727	0.21896
2728.91870	0.21662
2726.99014	0.21440
2725.06157	0.21222
2723.13301	0.21007
2721.20444	0.20804
2719.27588	0.20613
2717.34731	0.20428
2715.41875	0.20242
2713.49019	0.20044
2711.56162	0.19850
2709.63306	0.19680
2707.70449	0.19511
2705.77593	0.19333
2703.84736	0.19171
2701.91880	0.19030
2699.99023	0.18885
2698.06167	0.18725
2696.13311	0.18567
2694.20454	0.18426
2692.27598	0.18298
2690.34741	0.18170
2688.41885	0.18032
2686.49028	0.17898
2684.56172	0.17775
2682.63315	0.17659
2680.70459	0.17549
2678.77603	0.17438
2676.84746	0.17324
2674.91890	0.17205
2672.99033	0.17076
2671.06177	0.16960
2669.13320	0.16873
2667.20464	0.16789
2665.27607	0.16694
2663.34751	0.16597
2661.41895	0.16511
2659.49038	0.16437
2657.56182	0.16360
2655.63325	0.16278
2653.70469	0.16204
2651.77612	0.16142
2649.84756	0.16076
2647.91899	0.15999
2645.99043	0.15923
2644.06187	0.15852
2642.13330	0.15795
2640.20474	0.15758
2638.27617	0.15719
2636.34761	0.15668
2634.41904	0.15622
2632.49048	0.15576
2630.56191	0.15524
2628.63335	0.15482
2626.70479	0.15441
2624.77622	0.15393
2622.84766	0.15356
2620.91909	0.15330
2618.99053	0.15301
2617.06196	0.15271
2615.13340	0.15251
2613.20483	0.15246
2611.27627	0.15238
2609.34771	0.15217
2607.41914	0.15200
2605.49058	0.15193
2603.56201	0.15186
2601.63345	0.15176
2599.70488	0.15167
2597.77632	0.15161
2595.84775	0.15157
2593.91919	0.15153
2591.99062	0.15148
2590.06206	0.15145
2588.13350	0.15158
2586.20493	0.15191
2584.27637	0.15229
2582.34780	0.15259
2580.41924	0.15275
2578.49067	0.15283
2576.56211	0.15297
2574.63354	0.15317
2572.70498	0.15350
2570.77642	0.15401
2568.84785	0.15454
2566.91929	0.15494
2564.99072	0.15521
2563.06216	0.15549
2561.13359	0.15590
2559.20503	0.15637
2557.27646	0.15675
2555.34790	0.15708
2553.41934	0.15755
2551.49077	0.15814
2549.56221	0.15866
2547.63364	0.15907
2545.70508	0.15945
2543.77651	0.15992
2541.84795	0.16057
2539.91938	0.16133
2537.99082	0.16197
2536.06226	0.16247
2534.13369	0.16305
2532.20513	0.16378
2530.27656	0.16447
2528.34800	0.16511
2526.41943	0.16566
2524.49087	0.16621
2522.56230	0.16697
2520.63374	0.16781
2518.70518	0.16852
2516.77661	0.16914
2514.84805	0.16977
2512.91948	0.17049
2510.99092	0.17124
2509.06235	0.17195
2507.13379	0.17271
2505.20522	0.17354
2503.27666	0.17431
2501.34810	0.17501
2499.41953	0.17580
2497.49097	0.17671
2495.56240	0.17761
2493.63384	0.17839
2491.70527	0.17914
2489.77671	0.17995
2487.84814	0.18074
2485.91958	0.18153
2483.99102	0.18237
2482.06245	0.18328
2480.13389	0.18424
2478.20532	0.18509
2476.27676	0.18583
2474.34819	0.18659
2472.41963	0.18744
2470.49106	0.18833
2468.56250	0.18923
2466.63394	0.19015
2464.70537	0.19108
2462.77681	0.19195
2460.84824	0.19271
2458.91968	0.19349
2456.99111	0.19445
2455.06255	0.19552
2453.13398	0.19655
2451.20542	0.19754
2449.27686	0.19853
2447.34829	0.19947
2445.41973	0.20031
2443.49116	0.20114
2441.56260	0.20206
2439.63403	0.20314
2437.70547	0.20429
2435.77690	0.20528
2433.84834	0.20617
2431.91978	0.20725
2429.99121	0.20838
2428.06265	0.20936
2426.13408	0.21029
2424.20552	0.21128
2422.27695	0.21233
2420.34839	0.21344
2418.41982	0.21454
2416.49126	0.21566
2414.56270	0.21678
2412.63413	0.21787
2410.70557	0.21898
2408.77700	0.22014
2406.84844	0.22127
2404.91987	0.22232
2402.99131	0.22333
2401.06274	0.22448
2399.13418	0.22579
2397.20562	0.22706
2395.27705	0.22824
2393.34849	0.22946
2391.41992	0.23078
2389.49136	0.23227
2387.56279	0.23405
2385.63423	0.23646
2383.70566	0.24008
2381.77710	0.24523
2379.84854	0.25158
2377.91997	0.25868
2375.99141	0.26660
2374.06284	0.27561
2372.13428	0.28561
2370.20571	0.29625
2368.27715	0.30727
2366.34858	0.31831
2364.42002	0.32822
2362.49146	0.33563
2360.56289	0.34020
2358.63433	0.34178
2356.70576	0.33899
2354.77720	0.33167
2352.84863	0.32219
2350.92007	0.31256
2348.99150	0.30634
2347.06294	0.30679
2345.13437	0.31475
2343.20581	0.32564
2341.27725	0.33194
2339.34868	0.33351
2337.42012	0.33328
2335.49155	0.33249
2333.56299	0.33159
2331.63442	0.33136
2329.70586	0.33177
2327.77729	0.33160
2325.84873	0.33014
2323.92017	0.32811
2321.99160	0.32586
2320.06304	0.32320
2318.13447	0.32027
2316.20591	0.31762
2314.27734	0.31617
2312.34878	0.31607
2310.42021	0.31618
2308.49165	0.31562
2306.56309	0.31464
2304.63452	0.31385
2302.70596	0.31367
2300.77739	0.31393
2298.84883	0.31433
2296.92026	0.31490
2294.99170	0.31571
2293.06313	0.31651
2291.13457	0.31718
2289.20601	0.31785
2287.27744	0.31859
2285.34888	0.31939
2283.42031	0.32053
2281.49175	0.32226
2279.56318	0.32445
2277.63462	0.32685
2275.70605	0.32925
2273.77749	0.33145
2271.84893	0.33345
2269.92036	0.33541
2267.99180	0.33737
2266.06323	0.33931
2264.13467	0.34121
2262.20610	0.34310
2260.27754	0.34494
2258.34897	0.34685
2256.42041	0.34880
2254.49185	0.35069
2252.56328	0.35259
2250.63472	0.35461
2248.70615	0.35668
2246.77759	0.35871
2244.84902	0.36068
2242.92046	0.36270
2240.99189	0.36481
2239.06333	0.36693
2237.13477	0.36910
2235.20620	0.37133
2233.27764	0.37359
2231.34907	0.37584
2229.42051	0.37804
2227.49194	0.38013
2225.56338	0.38217
2223.63481	0.38424
2221.70625	0.38639
2219.77769	0.38859
2217.84912	0.39071
2215.92056	0.39277
2213.99199	0.39489
2212.06343	0.39704
2210.13486	0.39910
2208.20630	0.40113
2206.27773	0.40323
2204.34917	0.40535
2202.42061	0.40740
2200.49204	0.40936
2198.56348	0.41124
2196.63491	0.41320
2194.70635	0.41528
2192.77778	0.41729
2190.84922	0.41912
2188.92065	0.42088
2186.99209	0.42263
2185.06353	0.42435
2183.13496	0.42603
2181.20640	0.42782
2179.27783	0.42971
2177.34927	0.43147
2175.42070	0.43308
2173.49214	0.43459
2171.56357	0.43599
2169.63501	0.43738
2167.70645	0.43881
2165.77788	0.44008
2163.84932	0.44115
2161.92075	0.44218
2159.99219	0.44325
2158.06362	0.44428
2156.13506	0.44530
2154.20649	0.44630
2152.27793	0.44723
2150.34937	0.44804
2148.42080	0.44873
2146.49224	0.44936
2144.56367	0.44988
2142.63511	0.45027
2140.70654	0.45061
2138.77798	0.45098
2136.84941	0.45125
2134.92085	0.45140
2132.99229	0.45149
2131.06372	0.45150
2129.13516	0.45134
2127.20659	0.45108
2125.27803	0.45083
2123.34946	0.45058
2121.42090	0.45031
2119.49233	0.44990
2117.56377	0.44934
2115.63521	0.44872
2113.70664	0.44811
2111.77808	0.44738
2109.84951	0.44650
2107.92095	0.44550
2105.99238	0.44431
2104.06382	0.44308
2102.13525	0.44198
2100.20669	0.44088
2098.27812	0.43966
2096.34956	0.43831
2094.42100	0.43689
2092.49243	0.43544
2090.56387	0.43392
2088.63530	0.43234
2086.70674	0.43065
2084.77817	0.42880
2082.84961	0.42689
2080.92104	0.42505
2078.99248	0.42334
2077.06392	0.42150
2075.13535	0.41934
2073.20679	0.41706
2071.27822	0.41493
2069.34966	0.41294
2067.42109	0.41086
2065.49253	0.40860
2063.56396	0.40613
2061.63540	0.40363
2059.70684	0.40125
2057.77827	0.39887
2055.84971	0.39645
2053.92114	0.39402
2051.99258	0.39152
2050.06401	0.38898
2048.13545	0.38648
2046.20688	0.38390
2044.27832	0.38126
2042.34976	0.37871
2040.42119	0.37623
2038.49263	0.37357
2036.56406	0.37074
2034.63550	0.36797
2032.70693	0.36528
2030.77837	0.36258
2028.84980	0.35985
2026.92124	0.35719
2024.99268	0.35452
2023.06411	0.35179
2021.13555	0.34912
2019.20698	0.34662
2017.27842	0.34409
2015.34985	0.34121
2013.42129	0.33825
2011.49272	0.33550
2009.56416	0.33292
2007.63560	0.33033
2005.70703	0.32761
2003.77847	0.32488
2001.84990	0.32233
1999.92134	0.31988
1997.99277	0.31734
1996.06421	0.31480
1994.13564	0.31252
1992.20708	0.31035
1990.27852	0.30784
1988.34995	0.30519
1986.42139	0.30260
1984.49282	0.30003
1982.56426	0.29756
1980.63569	0.29515
1978.70713	0.29280
1976.77856	0.29048
1974.85000	0.28824
1972.92144	0.28616
1970.99287	0.28425
1969.06431	0.28249
1967.13574	0.28074
1965.20718	0.27864
1963.27861	0.27638
1961.35005	0.27426
1959.42148	0.27223
1957.49292	0.27034
1955.56436	0.26863
1953.63579	0.26698
1951.70723	0.26526
1949.77866	0.26360
1947.85010	0.26215
1945.92153	0.26088
1943.99297	0.25980
1942.06440	0.25847
1940.13584	0.25651
1938.20728	0.25453
1936.27871	0.25301
1934.35015	0.25170
1932.42158	0.25038
1930.49302	0.24903
1928.56445	0.24785
1926.63589	0.24694
1924.70732	0.24641
1922.77876	0.24601
1920.85020	0.24512
1918.92163	0.24404
1916.99307	0.24300
1915.06450	0.24163
1913.13594	0.24040
1911.20737	0.23984
1909.27881	0.23949
1907.35024	0.23878
1905.42168	0.23781
1903.49312	0.23695
1901.56455	0.23626
1899.63599	0.23568
1897.70742	0.23532
1895.77886	0.23521
1893.85029	0.23506
1891.92173	0.23480
1889.99316	0.23477
1888.06460	0.23443
1886.13604	0.23366
1884.20747	0.23312
1882.27891	0.23290
1880.35034	0.23274
1878.42178	0.23260
1876.49321	0.23250
1874.56465	0.23250
1872.63608	0.23284
1870.70752	0.23385
1868.77896	0.23538
1866.85039	0.23573
1864.92183	0.23463
1862.99326	0.23378
1861.06470	0.23374
1859.13613	0.23413
1857.20757	0.23448
1855.27900	0.23477
1853.35044	0.23513
1851.42187	0.23572
1849.49331	0.23655
1847.56475	0.23771
1845.63618	0.23926
1843.70762	0.24072
1841.77905	0.24094
1839.85049	0.24056
1837.92192	0.24096
1835.99336	0.24187
1834.06479	0.24279
1832.13623	0.24412
1830.20767	0.24642
1828.27910	0.24834
1826.35054	0.24915
1824.42197	0.25004
1822.49341	0.25074
1820.56484	0.25137
1818.63628	0.25250
1816.70771	0.25413
1814.77915	0.25584
1812.85059	0.25789
1810.92202	0.26039
1808.99346	0.26248
1807.06489	0.26403
1805.13633	0.26567
1803.20776	0.26804
1801.27920	0.27106
1799.35063	0.27415
1797.42207	0.27652
1795.49351	0.27891
1793.56494	0.28226
1791.63638	0.28625
1789.70781	0.28883
1787.77925	0.29037
1785.85068	0.29315
1783.92212	0.29695
1781.99355	0.30108
1780.06499	0.30535
1778.13643	0.30949
1776.20786	0.31364
1774.27930	0.31882
1772.35073	0.32577
1770.42217	0.33197
1768.49360	0.33615
1766.56504	0.34024
1764.63647	0.34496
1762.70791	0.35093
1760.77935	0.35855
1758.85078	0.36529
1756.92222	0.37199
1754.99365	0.37927
1753.06509	0.38617
1751.13652	0.39525
1749.20796	0.40660
1747.27939	0.41660
1745.35083	0.42477
1743.42227	0.43386
1741.49370	0.44438
1739.56514	0.45672
1737.63657	0.46887
1735.70801	0.48009
1733.77944	0.49760
1731.85088	0.51724
1729.92231	0.53161
1727.99375	0.54620
1726.06519	0.56235
1724.13662	0.58058
1722.20806	0.60059
1720.27949	0.61958
1718.35093	0.64263
1716.42236	0.67563
1714.49380	0.70508
1712.56523	0.72829
1710.63667	0.75138
1708.70811	0.77706
1706.77954	0.80687
1704.85098	0.84244
1702.92241	0.87404
1700.99385	0.90563
1699.06528	0.95280
1697.13672	0.99595
1695.20815	1.03941
1693.27959	1.08136
1691.35103	1.11596
1689.42246	1.15696
1687.49390	1.20064
1685.56533	1.24331
1683.63677	1.30866
1681.70820	1.37483
1679.77964	1.41656
1677.85107	1.45686
1675.92251	1.50417
1673.99395	1.56351
1672.06538	1.61657
1670.13682	1.66853
1668.20825	1.73561
1666.27969	1.79000
1664.35112	1.83718
1662.42256	1.89883
1660.49399	1.96925
1658.56543	2.02382
1656.63687	2.06861
1654.70830	2.11136
1652.77974	2.17538
1650.85117	2.23101
1648.92261	2.24936
1646.99404	2.27374
1645.06548	2.29902
1643.13691	2.31529
1641.20835	2.32591
1639.27979	2.33703
1637.35122	2.34443
1635.42266	2.34182
1633.49409	2.32929
1631.56553	2.31345
1629.63696	2.29555
1627.70840	2.26650
1625.77983	2.23292
1623.85127	2.19092
1621.92271	2.13886
1619.99414	2.09171
1618.06558	2.04598
1616.13701	1.98086
1614.20845	1.91287
1612.27988	1.86034
1610.35132	1.80650
1608.42275	1.74877
1606.49419	1.69191
1604.56562	1.63980
1602.63706	1.59006
1600.70850	1.54160
1598.77993	1.49689
1596.85137	1.45498
1594.92280	1.41443
1592.99424	1.37534
1591.06567	1.33983
1589.13711	1.30724
1587.20854	1.27713
1585.27998	1.24872
1583.35142	1.22208
1581.42285	1.19872
1579.49429	1.17970
1577.56572	1.16337
1575.63716	1.14335
1573.70859	1.12444
1571.78003	1.11241
1569.85146	1.10185
1567.92290	1.09033
1565.99434	1.08135
1564.06577	1.07513
1562.13721	1.07120
1560.20864	1.07106
1558.28008	1.07525
1556.35151	1.07632
1554.42295	1.07504
1552.49438	1.07478
1550.56582	1.07416
1548.63726	1.07136
1546.70869	1.06633
1544.78013	1.05946
1542.85156	1.05072
1540.92300	1.03632
1538.99443	1.00745
1537.06587	0.98328
1535.13730	0.96804
1533.20874	0.94944
1531.28018	0.92892
1529.35161	0.91405
1527.42305	0.90094
1525.49448	0.88741
1523.56592	0.87594
1521.63735	0.86537
1519.70879	0.85413
1517.78022	0.84411
1515.85166	0.83195
1513.92310	0.81869
1511.99453	0.80781
1510.06597	0.79918
1508.13740	0.79174
1506.20884	0.77807
1504.28027	0.76310
1502.35171	0.75431
1500.42314	0.74774
1498.49458	0.74160
1496.56602	0.73434
1494.63745	0.72633
1492.70889	0.72028
1490.78032	0.71609
1488.85176	0.71119
1486.92319	0.70482
1484.99463	0.69909
1483.06606	0.69499
1481.13750	0.69203
1479.20894	0.68995
1477.28037	0.68917
1475.35181	0.68957
1473.42324	0.69014
1471.49468	0.68868
1469.56611	0.68527
1467.63755	0.68248
1465.70898	0.68104
1463.78042	0.67993
1461.85186	0.67896
1459.92329	0.67956
1457.99473	0.68211
1456.06616	0.68269
1454.13760	0.67892
1452.20903	0.67522
1450.28047	0.67253
1448.35190	0.67037
1446.42334	0.66766
1444.49478	0.66464
1442.56621	0.66206
1440.63765	0.65969
1438.70908	0.65757
1436.78052	0.65518
1434.85195	0.65171
1432.92339	0.64849
1430.99482	0.64649
1429.06626	0.64527
1427.13770	0.64456
1425.20913	0.64483
1423.28057	0.64583
1421.35200	0.64671
1419.42344	0.64765
1417.49487	0.64752
1415.56631	0.64550
1413.63774	0.64391
1411.70918	0.64363
1409.78062	0.64424
1407.85205	0.64542
1405.92349	0.64719
1403.99492	0.64871
1402.06636	0.64909
1400.13779	0.64886
1398.20923	0.64816
1396.28066	0.64640
1394.35210	0.64293
1392.42354	0.63817
1390.49497	0.63385
1388.56641	0.63018
1386.63784	0.62585
1384.70928	0.62062
1382.78071	0.61563
1380.85215	0.61116
1378.92358	0.60731
1376.99502	0.60464
1375.06646	0.60324
1373.13789	0.60217
1371.20933	0.60091
1369.28076	0.59978
1367.35220	0.59861
1365.42363	0.59737
1363.49507	0.59638
1361.56650	0.59513
1359.63794	0.59326
1357.70937	0.59150
1355.78081	0.59015
1353.85225	0.58902
1351.92368	0.58799
1349.99512	0.58715
1348.06655	0.58647
1346.13799	0.58579
1344.20942	0.58512
1342.28086	0.58466
1340.35229	0.58459
1338.42373	0.58436
1336.49517	0.58349
1334.56660	0.58257
1332.63804	0.58204
1330.70947	0.58189
1328.78091	0.58208
1326.85234	0.58255
1324.92378	0.58326
1322.99521	0.58412
1321.06665	0.58500
1319.13809	0.58569
1317.20952	0.58588
1315.28096	0.58566
1313.35239	0.58530
1311.42383	0.58481
1309.49526	0.58429
1307.56670	0.58376
1305.63813	0.58311
1303.70957	0.58246
1301.78101	0.58189
1299.85244	0.58122
1297.92388	0.58040
1295.99531	0.57939
1294.06675	0.57813
1292.13818	0.57676
1290.20962	0.57544
1288.28105	0.57414
1286.35249	0.57298
1284.42393	0.57194
1282.49536	0.57076
1280.56680	0.56932
1278.63823	0.56785
1276.70967	0.56663
1274.78110	0.56563
1272.85254	0.56483
1270.92397	0.56431
1268.99541	0.56380
1267.06685	0.56305
1265.13828	0.56221
1263.20972	0.56152
1261.28115	0.56093
1259.35259	0.56024
1257.42402	0.55951
1255.49546	0.55902
1253.56689	0.55894
1251.63833	0.55912
1249.70977	0.55929
1247.78120	0.55935
1245.85264	0.55922
1243.92407	0.55883
1241.99551	0.55809
1240.06694	0.55688
1238.13838	0.55531
1236.20981	0.55351
1234.28125	0.55148
1232.35269	0.54942
1230.42412	0.54746
1228.49556	0.54552
1226.56699	0.54363
1224.63843	0.54196
1222.70986	0.54041
1220.78130	0.53895
1218.85273	0.53764
1216.92417	0.53640
1214.99561	0.53522
1213.06704	0.53427
1211.13848	0.53356
1209.20991	0.53285
1207.28135	0.53200
1205.35278	0.53119
1203.42422	0.53044
1201.49565	0.52957
1199.56709	0.52869
1197.63853	0.52794
1195.70996	0.52726
1193.78140	0.52669
1191.85283	0.52627
1189.92427	0.52594
1187.99570	0.52570
1186.06714	0.52560
1184.13857	0.52569
1182.21001	0.52611
1180.28145	0.52682
1178.35288	0.52782
1176.42432	0.52910
1174.49575	0.53030
1172.56719	0.53114
1170.63862	0.53165
1168.71006	0.53202
1166.78149	0.53221
1164.85293	0.53219
1162.92437	0.53220
1160.99580	0.53219
1159.06724	0.53180
1157.13867	0.53104
1155.21011	0.53019
1153.28154	0.52920
1151.35298	0.52769
1149.42441	0.52551
1147.49585	0.52285
1145.56729	0.52008
1143.63872	0.51762
1141.71016	0.51554
1139.78159	0.51357
1137.85303	0.51190
1135.92446	0.51098
1133.99590	0.51055
1132.06733	0.51007
1130.13877	0.50958
1128.21021	0.50926
1126.28164	0.50883
1124.35308	0.50813
1122.42451	0.50746
1120.49595	0.50699
1118.56738	0.50683
1116.63882	0.50699
1114.71025	0.50737
1112.78169	0.50789
1110.85312	0.50859
1108.92456	0.50956
1106.99600	0.51071
1105.06743	0.51191
1103.13887	0.51328
1101.21030	0.51495
1099.28174	0.51681
1097.35317	0.51896
1095.42461	0.52164
1093.49604	0.52502
1091.56748	0.52951
1089.63892	0.53563
1087.71035	0.54311
1085.78179	0.55105
1083.85322	0.55898
1081.92466	0.56632
1079.99609	0.57182
1078.06753	0.57459
1076.13896	0.57459
1074.21040	0.57190
1072.28184	0.56678
1070.35327	0.56001
1068.42471	0.55262
1066.49614	0.54536
1064.56758	0.53878
1062.63901	0.53306
1060.71045	0.52800
1058.78188	0.52350
1056.85332	0.51944
1054.92476	0.51571
1052.99619	0.51241
1051.06763	0.50965
1049.13906	0.50744
1047.21050	0.50596
1045.28193	0.50523
1043.35337	0.50464
1041.42480	0.50381
1039.49624	0.50305
1037.56768	0.50262
1035.63911	0.50248
1033.71055	0.50222
1031.78198	0.50145
1029.85342	0.50019
1027.92485	0.49880
1025.99629	0.49764
1024.06772	0.49667
1022.13916	0.49574
1020.21060	0.49508
1018.28203	0.49497
1016.35347	0.49524
1014.42490	0.49564
1012.49634	0.49605
1010.56777	0.49645
1008.63921	0.49697
1006.71064	0.49787
1004.78208	0.49918
1002.85352	0.50095
1000.92495	0.50356
998.99639	0.50705
997.06782	0.51102
995.13926	0.51521
993.21069	0.51933
991.28213	0.52264
989.35356	0.52475
987.42500	0.52578
985.49644	0.52605
983.56787	0.52594
981.63931	0.52602
979.71074	0.52677
977.78218	0.52830
975.85361	0.53036
973.92505	0.53269
971.99648	0.53533
970.06792	0.53844
968.13936	0.54199
966.21079	0.54583
964.28223	0.54996
962.35366	0.55462
960.42510	0.55984
958.49653	0.56533
956.56797	0.57094
954.63940	0.57667
952.71084	0.58251
950.78228	0.58868
948.85371	0.59523
946.92515	0.60198
944.99658	0.60858
943.06802	0.61451
941.13945	0.61998
939.21089	0.62551
937.28232	0.63106
935.35376	0.63673
933.42520	0.64239
931.49663	0.64779
929.56807	0.65359
927.63950	0.65993
925.71094	0.66594
923.78237	0.67191
921.85381	0.67841
919.92524	0.68499
917.99668	0.69137
916.06812	0.69767
914.13955	0.70415
912.21099	0.71093
910.28242	0.71848
908.35386	0.72740
906.42529	0.73686
904.49673	0.74589
902.56816	0.75508
900.63960	0.76494
898.71104	0.77485
896.78247	0.78421
894.85391	0.79220
892.92534	0.79991
890.99678	0.81033
889.06821	0.82313
887.13965	0.83467
885.21108	0.84439
883.28252	0.85518
881.35396	0.86737
879.42539	0.87917
877.49683	0.89021
875.56826	0.90119
873.63970	0.91228
871.71113	0.92308
869.78257	0.93409
867.85400	0.94555
865.92544	0.95704
863.99687	0.96835
862.06831	0.97947
860.13975	0.98979
858.21118	0.99935
856.28262	1.01105
854.35405	1.02564
852.42549	1.03970
850.49692	1.05184
848.56836	1.06303
846.63979	1.07372
844.71123	1.08400
842.78267	1.09517
840.85410	1.10872
838.92554	1.12086
836.99697	1.12963
835.06841	1.13966
833.13984	1.15306
831.21128	1.16761
829.28271	1.17951
827.35415	1.18736
825.42559	1.19160
823.49702	1.19760
821.56846	1.21250
819.63989	1.23301
817.71133	1.25103
815.78276	1.26193
813.85420	1.26853
811.92563	1.27634
809.99707	1.28039
808.06851	1.28012
806.13994	1.28721
804.21138	1.30316
802.28281	1.32567
800.35425	1.34434
798.42568	1.34740
796.49712	1.36294
794.56855	1.39086
792.63999	1.38356
790.71143	1.37006
788.78286	1.39611
786.85430	1.42881
784.92573	1.42562
782.99717	1.40215
781.06860	1.39434
779.14004	1.39752
777.21147	1.36728
775.28291	1.33099
773.35435	1.36677
771.42578	1.51291
769.49722	1.72603
767.56865	1.89731
765.64009	1.82772
763.71152	1.54767
761.78296	1.40502
759.85439	1.36579
757.92583	1.32515
755.99727	1.30041
754.06870	1.27314
752.14014	1.29104
750.21157	1.44201
748.28301	1.51827
746.35444	1.40834
744.42588	1.30846
742.49731	1.25034
740.56875	1.26104
738.64019	1.17852
736.71162	0.91128
734.78306	0.71305
732.85449	0.64943
730.92593	0.64502
728.99736	0.64206
727.06880	0.66636
725.14023	0.58487
723.21167	0.45902
721.28311	0.39700
719.35454	0.35810
717.42598	0.39696
715.49741	0.42071
713.56885	0.20551
711.64028	0.05090
709.71172	-0.07033
707.78315	-0.12805
705.85459	-0.01069
703.92603	0.19172
701.99746	0.27326
700.06890	0.24247
698.14033	0.22472
696.21177	0.25751
694.28320	0.26677
692.35464	0.20055
690.42607	0.15453
688.49751	0.22712
686.56895	0.36100
684.64038	0.42487
682.71182	0.37409
680.78325	0.30031
678.85469	0.27760
676.92612	0.22283
674.99756	0.17396
673.06899	0.24514
671.14043	0.36241
669.21187	0.39726
667.28330	0.38941
665.35474	0.33137
663.42617	0.28532
661.49761	0.28312
659.56904	0.26504
657.64048	0.22219
655.71191	0.19933
653.78335	0.23210
651.85479	0.32402
649.92622	0.42699
647.99766	0.42394
646.06909	0.28823
644.14053	0.14159
642.21196	0.10343
640.28340	0.18990
638.35483	0.29243
636.42627	0.25742
634.49771	0.12590
632.56914	0.06007
630.64058	0.10812
628.71201	0.18168
626.78345	0.21156
624.85488	0.20681
622.92632	0.18912
620.99775	0.17411
619.06919	0.16620
617.14062	0.14636
615.21206	0.13424
613.28350	0.17242
611.35493	0.19085
609.42637	0.16393
607.49780	0.15628
605.56924	0.25515
603.64067	0.38804
601.71211	0.39957
599.78354	0.31529
597.85498	0.23396
595.92642	0.20975
593.99785	0.24356
592.06929	0.27917
590.14072	0.28134
588.21216	0.23945
586.28359	0.19329
584.35503	0.17140
582.42646	0.13773
580.49790	0.09942
578.56934	0.15750
576.64077	0.33557
574.71221	0.36530
572.78364	0.24319
570.85508	0.16173
568.92651	0.13137
566.99795	0.13897
565.06938	0.18848
563.14082	0.24413
561.21226	0.24212
559.28369	0.23198
557.35513	0.26515
555.42656	0.30334
553.49800	0.31137
551.56943	0.22950
549.64087	0.11405
547.71230	0.10330
545.78374	0.21478
543.85518	0.29404
541.92661	0.27014
539.99805	0.21355
538.06948	0.14794
536.14092	0.13431
534.21235	0.17409
532.28379	0.22086
530.35522	0.26804
528.42666	0.25451
526.49810	0.18768
524.56953	0.16084
522.64097	0.18841
520.71240	0.28400
518.78384	0.34862
516.85527	0.25232
514.92671	0.20234
512.99814	0.23410
511.06958	0.18284
509.14102	0.06192
507.21245	0.03314
505.28389	0.08634
503.35532	0.14395
501.42676	0.16534
499.49819	0.12871
