3997.91411	0.05806
3995.98555	0.05888
3994.05698	0.05949
3992.12842	0.05974
3990.19985	0.05990
3988.27129	0.06006
3986.34272	0.06007
3984.41416	0.06001
3982.48560	0.06003
3980.55703	0.06024
3978.62847	0.06057
3976.69990	0.06115
3974.77134	0.06182
3972.84277	0.06207
3970.91421	0.06208
3968.98564	0.06230
3967.05708	0.06242
3965.12852	0.06236
3963.19995	0.06270
3961.27139	0.06341
3959.34282	0.06378
3957.41426	0.06392
3955.48569	0.06423
3953.55713	0.06431
3951.62856	0.06447
3949.70000	0.06539
3947.77144	0.06618
3945.84287	0.06587
3943.91431	0.06582
3941.98574	0.06656
3940.05718	0.06627
3938.12861	0.06483
3936.20005	0.06388
3934.27148	0.06443
3932.34292	0.06607
3930.41436	0.06714
3928.48579	0.06671
3926.55723	0.06600
3924.62866	0.06636
3922.70010	0.06662
3920.77153	0.06584
3918.84297	0.06558
3916.91440	0.06637
3914.98584	0.06636
3913.05728	0.06490
3911.12871	0.06365
3909.20015	0.06342
3907.27158	0.06426
3905.34302	0.06670
3903.41445	0.07019
3901.48589	0.07204
3899.55732	0.07132
3897.62876	0.06906
3895.70020	0.06667
3893.77163	0.06608
3891.84307	0.06747
3889.91450	0.06836
3887.98594	0.06753
3886.05737	0.06760
3884.12881	0.06893
3882.20024	0.06936
3880.27168	0.06949
3878.34312	0.06906
3876.41455	0.06803
3874.48599	0.06884
3872.55742	0.07139
3870.62886	0.07388
3868.70029	0.07497
3866.77173	0.07404
3864.84316	0.07388
3862.91460	0.07451
3860.98604	0.07324
3859.05747	0.07164
3857.12891	0.07192
3855.20034	0.07442
3853.27178	0.07955
3851.34321	0.08232
3849.41465	0.07843
3847.48608	0.07437
3845.55752	0.07310
3843.62896	0.07476
3841.70039	0.07816
3839.77183	0.08172
3837.84326	0.08441
3835.91470	0.08477
3833.98613	0.08297
3832.05757	0.08108
3830.12900	0.08014
3828.20044	0.08011
3826.27187	0.08114
3824.34331	0.08268
3822.41475	0.08495
3820.48618	0.08920
3818.55762	0.09134
3816.62905	0.09028
3814.70049	0.08916
3812.77192	0.08740
3810.84336	0.08592
3808.91479	0.08652
3806.98623	0.08968
3805.05767	0.09328
3803.12910	0.09571
3801.20054	0.09880
3799.27197	0.10042
3797.34341	0.09928
3795.41484	0.09819
3793.48628	0.09734
3791.55771	0.09699
3789.62915	0.09755
3787.70059	0.09886
3785.77202	0.10128
3783.84346	0.10395
3781.91489	0.10544
3779.98633	0.10701
3778.05776	0.10914
3776.12920	0.10993
3774.20063	0.11025
3772.27207	0.11188
3770.34351	0.11534
3768.41494	0.11945
3766.48638	0.12228
3764.55781	0.12406
3762.62925	0.12476
3760.70068	0.12613
3758.77212	0.13027
3756.84355	0.13478
3754.91499	0.13725
3752.98643	0.14035
3751.05786	0.14682
3749.12930	0.15366
3747.20073	0.15592
3745.27217	0.15750
3743.34360	0.16077
3741.41504	0.16266
3739.48647	0.16381
3737.55791	0.16769
3735.62935	0.17576
3733.70078	0.18455
3731.77222	0.18819
3729.84365	0.18892
3727.91509	0.19123
3725.98652	0.19688
3724.05796	0.20436
3722.12939	0.21112
3720.20083	0.21716
3718.27227	0.22287
3716.34370	0.22890
3714.41514	0.23639
3712.48657	0.24769
3710.55801	0.26426
3708.62944	0.27894
3706.70088	0.28788
3704.77231	0.29695
3702.84375	0.31013
3700.91519	0.32818
3698.98662	0.34645
3697.05806	0.36269
3695.12949	0.38076
3693.20093	0.40152
3691.27236	0.42550
3689.34380	0.45642
3687.41523	0.49121
3685.48667	0.51909
3683.55811	0.54336
3681.62954	0.57124
3679.70098	0.60439
3677.77241	0.64043
3675.84385	0.68276
3673.91528	0.73685
3671.98672	0.77939
3670.05815	0.81797
3668.12959	0.87124
3666.20103	0.91817
3664.27246	0.95691
3662.34390	0.99996
3660.41533	1.04769
3658.48677	1.09508
3656.55820	1.14565
3654.62964	1.20195
3652.70107	1.24952
3650.77251	1.29298
3648.84395	1.35385
3646.91538	1.42339
3644.98682	1.47058
3643.05825	1.50737
3641.12969	1.54678
3639.20112	1.59082
3637.27256	1.63518
3635.34399	1.67858
3633.41543	1.72244
3631.48687	1.76419
3629.55830	1.80765
3627.62974	1.86414
3625.70117	1.91414
3623.77261	1.94639
3621.84404	1.97886
3619.91548	2.01926
3617.98691	2.06801
3616.05835	2.11145
3614.12979	2.14706
3612.20122	2.18643
3610.27266	2.22599
3608.34409	2.26523
3606.41553	2.30783
3604.48696	2.34778
3602.55840	2.38313
3600.62983	2.42113
3598.70127	2.46232
3596.77271	2.50251
3594.84414	2.54365
3592.91558	2.58515
3590.98701	2.62199
3589.05845	2.65621
3587.12988	2.69943
3585.20132	2.74776
3583.27275	2.78821
3581.34419	2.82615
3579.41562	2.86730
3577.48706	2.91010
3575.55850	2.95274
3573.62993	2.99665
3571.70137	3.03963
3569.77280	3.08114
3567.84424	3.12705
3565.91567	3.18233
3563.98711	3.23163
3562.05854	3.27086
3560.12998	3.31205
3558.20142	3.35653
3556.27285	3.40118
3554.34429	3.44409
3552.41572	3.48883
3550.48716	3.53537
3548.55859	3.58020
3546.63003	3.62574
3544.70146	3.67504
3542.77290	3.72392
3540.84434	3.77089
3538.91577	3.81901
3536.98721	3.86623
3535.05864	3.91249
3533.13008	3.95967
3531.20151	4.00767
3529.27295	4.05403
3527.34438	4.10090
3525.41582	4.15074
3523.48726	4.20079
3521.55869	4.25014
3519.63013	4.29750
3517.70156	4.34466
3515.77300	4.39212
3513.84443	4.43850
3511.91587	4.48617
3509.98730	4.53589
3508.05874	4.58414
3506.13018	4.63133
3504.20161	4.68040
3502.27305	4.72966
3500.34448	4.77596
3498.41592	4.81996
3496.48735	4.86512
3494.55879	4.91266
3492.63022	4.96253
3490.70166	5.01394
3488.77310	5.06693
3486.84453	5.12298
3484.91597	5.17587
3482.98740	5.21872
3481.05884	5.25944
3479.13027	5.30634
3477.20171	5.35813
3475.27314	5.41116
3473.34458	5.46053
3471.41602	5.50436
3469.48745	5.54832
3467.55889	5.59671
3465.63032	5.64885
3463.70176	5.70711
3461.77319	5.76358
3459.84463	5.80485
3457.91606	5.83166
3455.98750	5.86327
3454.05894	5.91479
3452.13037	5.97964
3450.20181	6.04924
3448.27324	6.11046
3446.34468	6.15016
3444.41611	6.18293
3442.48755	6.23580
3440.55898	6.29500
3438.63042	6.33809
3436.70186	6.38198
3434.77329	6.44082
3432.84473	6.49004
3430.91616	6.51714
3428.98760	6.56061
3427.05903	6.63045
3425.13047	6.70484
3423.20190	6.78122
3421.27334	6.85968
3419.34478	6.91046
3417.41621	6.93144
3415.48765	6.96516
3413.55908	7.01254
3411.63052	7.05609
3409.70195	7.09481
3407.77339	7.13477
3405.84482	7.17626
3403.91626	7.22583
3401.98770	7.26378
3400.05913	7.28198
3398.13057	7.30614
3396.20200	7.34527
3394.27344	7.38985
3392.34487	7.41258
3390.41631	7.45817
3388.48774	7.53662
3386.55918	7.57596
3384.63062	7.57200
3382.70205	7.61306
3380.77349	7.73627
3378.84492	7.83202
3376.91636	7.83766
3374.98779	7.81931
3373.05923	7.83458
3371.13066	7.86579
3369.20210	7.87866
3367.27354	7.87361
3365.34497	7.87913
3363.41641	7.89215
3361.48784	7.89106
3359.55928	7.89293
3357.63071	7.90704
3355.70215	7.96437
3353.77358	8.04701
3351.84502	8.08994
3349.91646	8.06552
3347.98789	8.02952
3346.05933	8.04061
3344.13076	8.01694
3342.20220	7.93749
3340.27363	7.92208
3338.34507	7.99545
3336.41650	8.09166
3334.48794	8.18024
3332.55937	8.21579
3330.63081	8.20775
3328.70225	8.18668
3326.77368	8.15642
3324.84512	8.14519
3322.91655	8.14494
3320.98799	8.13845
3319.05942	8.11076
3317.13086	8.14630
3315.20229	8.27214
3313.27373	8.34644
3311.34517	8.34243
3309.41660	8.31322
3307.48804	8.25650
3305.55947	8.21600
3303.63091	8.21492
3301.70234	8.23001
3299.77378	8.24270
3297.84521	8.19469
3295.91665	8.14004
3293.98809	8.18582
3292.05952	8.28634
3290.13096	8.33801
3288.20239	8.32768
3286.27383	8.27823
3284.34526	8.20103
3282.41670	8.19519
3280.48813	8.28277
3278.55957	8.33220
3276.63101	8.33208
3274.70244	8.33548
3272.77388	8.28231
3270.84531	8.24014
3268.91675	8.30625
3266.98818	8.36088
3265.05962	8.36442
3263.13105	8.40471
3261.20249	8.41137
3259.27393	8.39520
3257.34536	8.44773
3255.41680	8.45631
3253.48823	8.35150
3251.55967	8.26356
3249.63110	8.27374
3247.70254	8.30797
3245.77397	8.27012
3243.84541	8.24618
3241.91685	8.32801
3239.98828	8.40157
3238.05972	8.32369
3236.13115	8.15926
3234.20259	8.05058
3232.27402	8.11110
3230.34546	8.30360
3228.41689	8.41833
3226.48833	8.36558
3224.55977	8.23227
3222.63120	8.16119
3220.70264	8.20418
3218.77407	8.20835
3216.84551	8.08497
3214.91694	7.93653
3212.98838	7.85234
3211.05981	7.87452
3209.13125	7.93255
3207.20269	7.94022
3205.27412	7.92007
3203.34556	7.87651
3201.41699	7.82762
3199.48843	7.79551
3197.55986	7.76984
3195.63130	7.74523
3193.70273	7.69309
3191.77417	7.59118
3189.84561	7.48147
3187.91704	7.40408
3185.98848	7.34925
3184.05991	7.31856
3182.13135	7.32092
3180.20278	7.33991
3178.27422	7.33253
3176.34565	7.25694
3174.41709	7.15051
3172.48853	7.08759
3170.55996	7.05724
3168.63140	7.00428
3166.70283	6.93416
3164.77427	6.87117
3162.84570	6.79614
3160.91714	6.69453
3158.98857	6.60847
3157.06001	6.55678
3155.13145	6.49856
3153.20288	6.41709
3151.27432	6.34622
3149.34575	6.30043
3147.41719	6.24506
3145.48862	6.16533
3143.56006	6.09221
3141.63149	6.03377
3139.70293	5.96533
3137.77437	5.88386
3135.84580	5.80512
3133.91724	5.73421
3131.98867	5.66711
3130.06011	5.60281
3128.13154	5.54164
3126.20298	5.47391
3124.27441	5.39234
3122.34585	5.30616
3120.41729	5.22891
3118.48872	5.15970
3116.56016	5.09158
3114.63159	5.02477
3112.70303	4.95581
3110.77446	4.88179
3108.84590	4.81129
3106.91733	4.74700
3104.98877	4.68220
3103.06021	4.61438
3101.13164	4.54514
3099.20308	4.47777
3097.27451	4.40933
3095.34595	4.33604
3093.41738	4.26348
3091.48882	4.19739
3089.56025	4.13576
3087.63169	4.07241
3085.70312	4.00868
3083.77456	3.94805
3081.84600	3.88676
3079.91743	3.82446
3077.98887	3.76533
3076.06030	3.70812
3074.13174	3.65025
3072.20317	3.59225
3070.27461	3.53479
3068.34604	3.47784
3066.41748	3.41989
3064.48892	3.36161
3062.56035	3.30561
3060.63179	3.25126
3058.70322	3.19762
3056.77466	3.14585
3054.84609	3.09533
3052.91753	3.04385
3050.98896	2.99194
3049.06040	2.94096
3047.13184	2.89102
3045.20327	2.84196
3043.27471	2.79340
3041.34614	2.74554
3039.41758	2.69872
3037.48901	2.65253
3035.56045	2.60636
3033.63188	2.56102
3031.70332	2.51724
3029.77476	2.47370
3027.84619	2.42973
3025.91763	2.38608
3023.98906	2.34360
3022.06050	2.30316
3020.13193	2.26399
3018.20337	2.22433
3016.27480	2.18440
3014.34624	2.14532
3012.41768	2.10733
3010.48911	2.07008
3008.56055	2.03341
3006.63198	1.99768
3004.70342	1.96273
3002.77485	1.92787
3000.84629	1.89331
2998.91772	1.85949
2996.98916	1.82644
2995.06060	1.79427
2993.13203	1.76293
2991.20347	1.73199
2989.27490	1.70122
2987.34634	1.67087
2985.41777	1.64127
2983.48921	1.61265
2981.56064	1.58489
2979.63208	1.55733
2977.70352	1.52982
2975.77495	1.50283
2973.84639	1.47646
2971.91782	1.45059
2969.98926	1.42485
2968.06069	1.39954
2966.13213	1.37508
2964.20356	1.35069
2962.27500	1.32611
2960.34644	1.30203
2958.41787	1.27881
2956.48931	1.25617
2954.56074	1.23354
2952.63218	1.21085
2950.70361	1.18855
2948.77505	1.16655
2946.84648	1.14465
2944.91792	1.12329
2942.98936	1.10272
2941.06079	1.08285
2939.13223	1.06315
2937.20366	1.04338
2935.27510	1.02424
2933.34653	1.00573
2931.41797	0.98730
2929.48940	0.96913
2927.56084	0.95164
2925.63228	0.93467
2923.70371	0.91765
2921.77515	0.90065
2919.84658	0.88418
2917.91802	0.86813
2915.98945	0.85224
2914.06089	0.83657
2912.13232	0.82129
2910.20376	0.80674
2908.27520	0.79258
2906.34663	0.77847
2904.41807	0.76478
2902.48950	0.75165
2900.56094	0.73889
2898.63237	0.72631
2896.70381	0.71381
2894.77524	0.70149
2892.84668	0.68957
2890.91812	0.67809
2888.98955	0.66684
2887.06099	0.65563
2885.13242	0.64463
2883.20386	0.63431
2881.27529	0.62460
2879.34673	0.61483
2877.41816	0.60484
2875.48960	0.59485
2873.56104	0.58465
2871.63247	0.57427
2869.70391	0.56410
2867.77534	0.55421
2865.84678	0.54427
2863.91821	0.53391
2861.98965	0.52321
2860.06108	0.51312
2858.13252	0.50402
2856.20396	0.49535
2854.27539	0.48700
2852.34683	0.47895
2850.41826	0.47107
2848.48970	0.46328
2846.56113	0.45547
2844.63257	0.44786
2842.70400	0.44095
2840.77544	0.43468
2838.84687	0.42871
2836.91831	0.42301
2834.98975	0.41736
2833.06118	0.41151
2831.13262	0.40575
2829.20405	0.40023
2827.27549	0.39465
2825.34692	0.38888
2823.41836	0.38327
2821.48979	0.37786
2819.56123	0.37231
2817.63267	0.36661
2815.70410	0.36110
2813.77554	0.35585
2811.84697	0.35058
2809.91841	0.34528
2807.98984	0.34018
2806.06128	0.33530
2804.13271	0.33042
2802.20415	0.32542
2800.27559	0.32045
2798.34702	0.31573
2796.41846	0.31124
2794.48989	0.30686
2792.56133	0.30257
2790.63276	0.29831
2788.70420	0.29404
2786.77563	0.28992
2784.84707	0.28600
2782.91851	0.28206
2780.98994	0.27808
2779.06138	0.27424
2777.13281	0.27056
2775.20425	0.26712
2773.27568	0.26387
2771.34712	0.26046
2769.41855	0.25681
2767.48999	0.25324
2765.56143	0.25002
2763.63286	0.24694
2761.70430	0.24380
2759.77573	0.24077
2757.84717	0.23780
2755.91860	0.23470
2753.99004	0.23161
2752.06147	0.22869
2750.13291	0.22595
2748.20435	0.22330
2746.27578	0.22063
2744.34722	0.21800
2742.41865	0.21550
2740.49009	0.21313
2738.56152	0.21084
2736.63296	0.20862
2734.70439	0.20643
2732.77583	0.20411
2730.84727	0.20172
2728.91870	0.19953
2726.99014	0.19752
2725.06157	0.19549
2723.13301	0.19341
2721.20444	0.19134
2719.27588	0.18931
2717.34731	0.18737
2715.41875	0.18565
2713.49019	0.18412
2711.56162	0.18257
2709.63306	0.18095
2707.70449	0.17926
2705.77593	0.17762
2703.84736	0.17608
2701.91880	0.17455
2699.99023	0.17309
2698.06167	0.17177
2696.13311	0.17043
2694.20454	0.16897
2692.27598	0.16758
2690.34741	0.16639
2688.41885	0.16525
2686.49028	0.16405
2684.56172	0.16278
2682.63315	0.16148
2680.70459	0.16026
2678.77603	0.15915
2676.84746	0.15810
2674.91890	0.15705
2672.99033	0.15608
2671.06177	0.15524
2669.13320	0.15453
2667.20464	0.15383
2665.27607	0.15298
2663.34751	0.15194
2661.41895	0.15092
2659.49038	0.15001
2657.56182	0.14921
2655.63325	0.14859
2653.70469	0.14804
2651.77612	0.14748
2649.84756	0.14693
2647.91899	0.14628
2645.99043	0.14551
2644.06187	0.14479
2642.13330	0.14434
2640.20474	0.14407
2638.27617	0.14368
2636.34761	0.14314
2634.41904	0.14267
2632.49048	0.14236
2630.56191	0.14207
2628.63335	0.14172
2626.70479	0.14137
2624.77622	0.14099
2622.84766	0.14058
2620.91909	0.14031
2618.99053	0.14023
2617.06196	0.14014
2615.13340	0.13992
2613.20483	0.13967
2611.27627	0.13945
2609.34771	0.13932
2607.41914	0.13930
2605.49058	0.13937
2603.56201	0.13955
2601.63345	0.13973
2599.70488	0.13968
2597.77632	0.13949
2595.84775	0.13944
2593.91919	0.13959
2591.99062	0.13986
2590.06206	0.14017
2588.13350	0.14045
2586.20493	0.14057
2584.27637	0.14070
2582.34780	0.14110
2580.41924	0.14154
2578.49067	0.14178
2576.56211	0.14199
2574.63354	0.14225
2572.70498	0.14253
2570.77642	0.14282
2568.84785	0.14304
2566.91929	0.14328
2564.99072	0.14373
2563.06216	0.14439
2561.13359	0.14508
2559.20503	0.14564
2557.27646	0.14611
2555.34790	0.14656
2553.41934	0.14701
2551.49077	0.14751
2549.56221	0.14808
2547.63364	0.14868
2545.70508	0.14932
2543.77651	0.14999
2541.84795	0.15062
2539.91938	0.15121
2537.99082	0.15184
2536.06226	0.15252
2534.13369	0.15319
2532.20513	0.15391
2530.27656	0.15465
2528.34800	0.15536
2526.41943	0.15609
2524.49087	0.15691
2522.56230	0.15773
2520.63374	0.15843
2518.70518	0.15905
2516.77661	0.15979
2514.84805	0.16066
2512.91948	0.16152
2510.99092	0.16241
2509.06235	0.16319
2507.13379	0.16380
2505.20522	0.16452
2503.27666	0.16544
2501.34810	0.16632
2499.41953	0.16716
2497.49097	0.16805
2495.56240	0.16897
2493.63384	0.16981
2491.70527	0.17059
2489.77671	0.17137
2487.84814	0.17218
2485.91958	0.17310
2483.99102	0.17412
2482.06245	0.17511
2480.13389	0.17598
2478.20532	0.17689
2476.27676	0.17790
2474.34819	0.17886
2472.41963	0.17974
2470.49106	0.18067
2468.56250	0.18160
2466.63394	0.18240
2464.70537	0.18324
2462.77681	0.18423
2460.84824	0.18534
2458.91968	0.18634
2456.99111	0.18711
2455.06255	0.18792
2453.13398	0.18902
2451.20542	0.19022
2449.27686	0.19133
2447.34829	0.19229
2445.41973	0.19315
2443.49116	0.19408
2441.56260	0.19512
2439.63403	0.19621
2437.70547	0.19729
2435.77690	0.19832
2433.84834	0.19926
2431.91978	0.20024
2429.99121	0.20138
2428.06265	0.20252
2426.13408	0.20356
2424.20552	0.20452
2422.27695	0.20548
2420.34839	0.20655
2418.41982	0.20777
2416.49126	0.20903
2414.56270	0.21030
2412.63413	0.21152
2410.70557	0.21259
2408.77700	0.21364
2406.84844	0.21475
2404.91987	0.21588
2402.99131	0.21700
2401.06274	0.21815
2399.13418	0.21938
2397.20562	0.22071
2395.27705	0.22203
2393.34849	0.22327
2391.41992	0.22456
2389.49136	0.22600
2387.56279	0.22766
2385.63423	0.22974
2383.70566	0.23242
2381.77710	0.23558
2379.84854	0.23914
2377.91997	0.24306
2375.99141	0.24742
2374.06284	0.25238
2372.13428	0.25789
2370.20571	0.26374
2368.27715	0.26946
2366.34858	0.27471
2364.42002	0.27959
2362.49146	0.28414
2360.56289	0.28750
2358.63433	0.28869
2356.70576	0.28825
2354.77720	0.28671
2352.84863	0.28399
2350.92007	0.28053
2348.99150	0.27817
2347.06294	0.27871
2345.13437	0.28287
2343.20581	0.28844
2341.27725	0.29169
2339.34868	0.29274
2337.42012	0.29333
2335.49155	0.29430
2333.56299	0.29529
2331.63442	0.29653
2329.70586	0.29826
2327.77729	0.29939
2325.84873	0.29943
2323.92017	0.29928
2321.99160	0.29942
2320.06304	0.29935
2318.13447	0.29901
2316.20591	0.29886
2314.27734	0.29914
2312.34878	0.29983
2310.42021	0.30075
2308.49165	0.30152
2306.56309	0.30195
2304.63452	0.30230
2302.70596	0.30297
2300.77739	0.30408
2298.84883	0.30529
2296.92026	0.30640
2294.99170	0.30754
2293.06313	0.30872
2291.13457	0.30997
2289.20601	0.31139
2287.27744	0.31285
2285.34888	0.31433
2283.42031	0.31603
2281.49175	0.31791
2279.56318	0.31985
2277.63462	0.32189
2275.70605	0.32411
2273.77749	0.32632
2271.84893	0.32832
2269.92036	0.33021
2267.99180	0.33221
2266.06323	0.33432
2264.13467	0.33645
2262.20610	0.33862
2260.27754	0.34085
2258.34897	0.34288
2256.42041	0.34472
2254.49185	0.34664
2252.56328	0.34873
2250.63472	0.35085
2248.70615	0.35298
2246.77759	0.35515
2244.84902	0.35737
2242.92046	0.35954
2240.99189	0.36159
2239.06333	0.36364
2237.13477	0.36576
2235.20620	0.36794
2233.27764	0.37020
2231.34907	0.37252
2229.42051	0.37482
2227.49194	0.37705
2225.56338	0.37928
2223.63481	0.38138
2221.70625	0.38341
2219.77769	0.38557
2217.84912	0.38787
2215.92056	0.39017
2213.99199	0.39229
2212.06343	0.39429
2210.13486	0.39630
2208.20630	0.39839
2206.27773	0.40047
2204.34917	0.40252
2202.42061	0.40466
2200.49204	0.40690
2198.56348	0.40913
2196.63491	0.41119
2194.70635	0.41300
2192.77778	0.41469
2190.84922	0.41651
2188.92065	0.41845
2186.99209	0.42036
2185.06353	0.42219
2183.13496	0.42391
2181.20640	0.42557
2179.27783	0.42729
2177.34927	0.42903
2175.42070	0.43061
2173.49214	0.43203
2171.56357	0.43344
2169.63501	0.43484
2167.70645	0.43622
2165.77788	0.43759
2163.84932	0.43897
2161.92075	0.44024
2159.99219	0.44126
2158.06362	0.44210
2156.13506	0.44292
2154.20649	0.44378
2152.27793	0.44467
2150.34937	0.44548
2148.42080	0.44612
2146.49224	0.44676
2144.56367	0.44741
2142.63511	0.44787
2140.70654	0.44821
2138.77798	0.44853
2136.84941	0.44887
2134.92085	0.44916
2132.99229	0.44927
2131.06372	0.44921
2129.13516	0.44914
2127.20659	0.44895
2125.27803	0.44864
2123.34946	0.44829
2121.42090	0.44791
2119.49233	0.44742
2117.56377	0.44686
2115.63521	0.44627
2113.70664	0.44563
2111.77808	0.44487
2109.84951	0.44396
2107.92095	0.44297
2105.99238	0.44199
2104.06382	0.44099
2102.13525	0.43985
2100.20669	0.43855
2098.27812	0.43717
2096.34956	0.43582
2094.42100	0.43449
2092.49243	0.43303
2090.56387	0.43146
2088.63530	0.42986
2086.70674	0.42818
2084.77817	0.42641
2082.84961	0.42463
2080.92104	0.42274
2078.99248	0.42069
2077.06392	0.41862
2075.13535	0.41668
2073.20679	0.41471
2071.27822	0.41251
2069.34966	0.41018
2067.42109	0.40794
2065.49253	0.40582
2063.56396	0.40366
2061.63540	0.40127
2059.70684	0.39868
2057.77827	0.39613
2055.84971	0.39375
2053.92114	0.39140
2051.99258	0.38897
2050.06401	0.38648
2048.13545	0.38395
2046.20688	0.38139
2044.27832	0.37891
2042.34976	0.37640
2040.42119	0.37366
2038.49263	0.37079
2036.56406	0.36802
2034.63550	0.36535
2032.70693	0.36273
2030.77837	0.36012
2028.84980	0.35745
2026.92124	0.35476
2024.99268	0.35202
2023.06411	0.34918
2021.13555	0.34643
2019.20698	0.34389
2017.27842	0.34137
2015.34985	0.33864
2013.42129	0.33574
2011.49272	0.33289
2009.56416	0.33017
2007.63560	0.32755
2005.70703	0.32497
2003.77847	0.32234
2001.84990	0.31965
1999.92134	0.31701
1997.99277	0.31443
1996.06421	0.31198
1994.13564	0.30980
1992.20708	0.30766
1990.27852	0.30508
1988.34995	0.30232
1986.42139	0.29976
1984.49282	0.29731
1982.56426	0.29488
1980.63569	0.29241
1978.70713	0.28999
1976.77856	0.28773
1974.85000	0.28560
1972.92144	0.28342
1970.99287	0.28129
1969.06431	0.27948
1967.13574	0.27782
1965.20718	0.27576
1963.27861	0.27345
1961.35005	0.27137
1959.42148	0.26948
1957.49292	0.26763
1955.56436	0.26579
1953.63579	0.26395
1951.70723	0.26218
1949.77866	0.26057
1947.85010	0.25912
1945.92153	0.25787
1943.99297	0.25690
1942.06440	0.25573
1940.13584	0.25385
1938.20728	0.25187
1936.27871	0.25035
1934.35015	0.24909
1932.42158	0.24784
1930.49302	0.24656
1928.56445	0.24532
1926.63589	0.24423
1924.70732	0.24354
1922.77876	0.24304
1920.85020	0.24219
1918.92163	0.24123
1916.99307	0.24029
1915.06450	0.23907
1913.13594	0.23795
1911.20737	0.23734
1909.27881	0.23692
1907.35024	0.23618
1905.42168	0.23517
1903.49312	0.23430
1901.56455	0.23367
1899.63599	0.23314
1897.70742	0.23277
1895.77886	0.23262
1893.85029	0.23247
1891.92173	0.23223
1889.99316	0.23222
1888.06460	0.23201
1886.13604	0.23138
1884.20747	0.23085
1882.27891	0.23052
1880.35034	0.23036
1878.42178	0.23027
1876.49321	0.23020
1874.56465	0.23024
1872.63608	0.23064
1870.70752	0.23167
1868.77896	0.23308
1866.85039	0.23327
1864.92183	0.23230
1862.99326	0.23169
1861.06470	0.23175
1859.13613	0.23213
1857.20757	0.23250
1855.27900	0.23286
1853.35044	0.23318
1851.42187	0.23362
1849.49331	0.23441
1847.56475	0.23561
1845.63618	0.23716
1843.70762	0.23856
1841.77905	0.23880
1839.85049	0.23857
1837.92192	0.23914
1835.99336	0.24010
1834.06479	0.24099
1832.13623	0.24228
1830.20767	0.24443
1828.27910	0.24620
1826.35054	0.24696
1824.42197	0.24789
1822.49341	0.24869
1820.56484	0.24940
1818.63628	0.25065
1816.70771	0.25236
1814.77915	0.25402
1812.85059	0.25603
1810.92202	0.25856
1808.99346	0.26069
1807.06489	0.26229
1805.13633	0.26398
1803.20776	0.26641
1801.27920	0.26947
1799.35063	0.27250
1797.42207	0.27486
1795.49351	0.27727
1793.56494	0.28055
1791.63638	0.28464
1789.70781	0.28756
1787.77925	0.28932
1785.85068	0.29217
1783.92212	0.29599
1781.99355	0.30008
1780.06499	0.30430
1778.13643	0.30839
1776.20786	0.31236
1774.27930	0.31731
1772.35073	0.32421
1770.42217	0.33063
1768.49360	0.33502
1766.56504	0.33923
1764.63647	0.34410
1762.70791	0.35015
1760.77935	0.35789
1758.85078	0.36480
1756.92222	0.37165
1754.99365	0.37921
1753.06509	0.38645
1751.13652	0.39569
1749.20796	0.40714
1747.27939	0.41744
1745.35083	0.42590
1743.42227	0.43512
1741.49370	0.44565
1739.56514	0.45811
1737.63657	0.47048
1735.70801	0.48163
1733.77944	0.49856
1731.85088	0.51785
1729.92231	0.53236
1727.99375	0.54701
1726.06519	0.56312
1724.13662	0.58144
1722.20806	0.60160
1720.27949	0.62051
1718.35093	0.64328
1716.42236	0.67645
1714.49380	0.70640
1712.56523	0.72979
1710.63667	0.75288
1708.70811	0.77844
1706.77954	0.80801
1704.85098	0.84328
1702.92241	0.87461
1700.99385	0.90565
1699.06528	0.95150
1697.13672	0.99313
1695.20815	1.03530
1693.27959	1.07598
1691.35103	1.10915
1689.42246	1.14818
1687.49390	1.18955
1685.56533	1.23018
1683.63677	1.29233
1681.70820	1.35387
1679.77964	1.39231
1677.85107	1.43055
1675.92251	1.47594
1673.99395	1.53180
1672.06538	1.58121
1670.13682	1.62992
1668.20825	1.69181
1666.27969	1.74052
1664.35112	1.78179
1662.42256	1.83442
1660.49399	1.89434
1658.56543	1.94166
1656.63687	1.98048
1654.70830	2.01760
1652.77974	2.07662
1650.85117	2.12992
1648.92261	2.14940
1646.99404	2.17736
1645.06548	2.20857
1643.13691	2.22739
1641.20835	2.23794
1639.27979	2.24884
1637.35122	2.25976
1635.42266	2.26680
1633.49409	2.25975
1631.56553	2.24348
1629.63696	2.22758
1627.70840	2.20357
1625.77983	2.17354
1623.85127	2.13443
1621.92271	2.08559
1619.99414	2.04125
1618.06558	1.99869
1616.13701	1.93765
1614.20845	1.87333
1612.27988	1.82354
1610.35132	1.77235
1608.42275	1.71774
1606.49419	1.66439
1604.56562	1.61546
1602.63706	1.56802
1600.70850	1.52096
1598.77993	1.47706
1596.85137	1.43577
1594.92280	1.39587
1592.99424	1.35725
1591.06567	1.32141
1589.13711	1.28735
1587.20854	1.25550
1585.27998	1.22607
1583.35142	1.19848
1581.42285	1.17292
1579.49429	1.15083
1577.56572	1.13137
1575.63716	1.10772
1573.70859	1.08600
1571.78003	1.07160
1569.85146	1.05672
1567.92290	1.03983
1565.99434	1.02678
1564.06577	1.01628
1562.13721	1.00799
1560.20864	1.00307
1558.28008	0.99668
1556.35151	0.98767
1554.42295	0.98042
1552.49438	0.97394
1550.56582	0.96767
1548.63726	0.96041
1546.70869	0.95273
1544.78013	0.94487
1542.85156	0.93616
1540.92300	0.92390
1538.99443	0.90255
1537.06587	0.88521
1535.13730	0.87425
1533.20874	0.86128
1531.28018	0.84687
1529.35161	0.83604
1527.42305	0.82631
1525.49448	0.81634
1523.56592	0.80790
1521.63735	0.80004
1519.70879	0.79100
1517.78022	0.78266
1515.85166	0.77342
1513.92310	0.76380
1511.99453	0.75616
1510.06597	0.75058
1508.13740	0.74640
1506.20884	0.73753
1504.28027	0.72631
1502.35171	0.71955
1500.42314	0.71496
1498.49458	0.71119
1496.56602	0.70657
1494.63745	0.70094
1492.70889	0.69655
1490.78032	0.69385
1488.85176	0.69082
1486.92319	0.68621
1484.99463	0.68184
1483.06606	0.67877
1481.13750	0.67653
1479.20894	0.67474
1477.28037	0.67382
1475.35181	0.67393
1473.42324	0.67427
1471.49468	0.67247
1469.56611	0.66891
1467.63755	0.66615
1465.70898	0.66440
1463.78042	0.66256
1461.85186	0.66071
1459.92329	0.66024
1457.99473	0.66118
1456.06616	0.65993
1454.13760	0.65556
1452.20903	0.65199
1450.28047	0.64942
1448.35190	0.64708
1446.42334	0.64428
1444.49478	0.64151
1442.56621	0.63926
1440.63765	0.63734
1438.70908	0.63581
1436.78052	0.63421
1434.85195	0.63156
1432.92339	0.62878
1430.99482	0.62696
1429.06626	0.62576
1427.13770	0.62470
1425.20913	0.62409
1423.28057	0.62387
1421.35200	0.62369
1419.42344	0.62369
1417.49487	0.62282
1415.56631	0.62047
1413.63774	0.61827
1411.70918	0.61697
1409.78062	0.61648
1407.85205	0.61644
1405.92349	0.61665
1403.99492	0.61654
1402.06636	0.61576
1400.13779	0.61502
1398.20923	0.61438
1396.28066	0.61312
1394.35210	0.61054
1392.42354	0.60690
1390.49497	0.60367
1388.56641	0.60127
1386.63784	0.59876
1384.70928	0.59550
1382.78071	0.59226
1380.85215	0.58962
1378.92358	0.58765
1376.99502	0.58641
1375.06646	0.58578
1373.13789	0.58495
1371.20933	0.58371
1369.28076	0.58271
1367.35220	0.58183
1365.42363	0.58089
1363.49507	0.58023
1361.56650	0.57932
1359.63794	0.57758
1357.70937	0.57584
1355.78081	0.57452
1353.85225	0.57348
1351.92368	0.57268
1349.99512	0.57206
1348.06655	0.57127
1346.13799	0.57022
1344.20942	0.56921
1342.28086	0.56856
1340.35229	0.56839
1338.42373	0.56793
1336.49517	0.56663
1334.56660	0.56528
1332.63804	0.56449
1330.70947	0.56413
1328.78091	0.56377
1326.85234	0.56343
1324.92378	0.56335
1322.99521	0.56343
1321.06665	0.56348
1319.13809	0.56351
1317.20952	0.56322
1315.28096	0.56262
1313.35239	0.56206
1311.42383	0.56144
1309.49526	0.56059
1307.56670	0.55961
1305.63813	0.55864
1303.70957	0.55777
1301.78101	0.55695
1299.85244	0.55604
1297.92388	0.55507
1295.99531	0.55411
1294.06675	0.55312
1292.13818	0.55216
1290.20962	0.55135
1288.28105	0.55064
1286.35249	0.54989
1284.42393	0.54907
1282.49536	0.54816
1280.56680	0.54720
1278.63823	0.54632
1276.70967	0.54559
1274.78110	0.54489
1272.85254	0.54426
1270.92397	0.54371
1268.99541	0.54304
1267.06685	0.54239
1265.13828	0.54197
1263.20972	0.54164
1261.28115	0.54111
1259.35259	0.54039
1257.42402	0.53971
1255.49546	0.53925
1253.56689	0.53896
1251.63833	0.53881
1249.70977	0.53874
1247.78120	0.53859
1245.85264	0.53834
1243.92407	0.53797
1241.99551	0.53738
1240.06694	0.53657
1238.13838	0.53556
1236.20981	0.53434
1234.28125	0.53295
1232.35269	0.53165
1230.42412	0.53041
1228.49556	0.52907
1226.56699	0.52782
1224.63843	0.52681
1222.70986	0.52575
1220.78130	0.52448
1218.85273	0.52328
1216.92417	0.52239
1214.99561	0.52168
1213.06704	0.52097
1211.13848	0.52034
1209.20991	0.51985
1207.28135	0.51938
1205.35278	0.51882
1203.42422	0.51824
1201.49565	0.51759
1199.56709	0.51688
1197.63853	0.51622
1195.70996	0.51567
1193.78140	0.51515
1191.85283	0.51458
1189.92427	0.51403
1187.99570	0.51359
1186.06714	0.51333
1184.13857	0.51325
1182.21001	0.51343
1180.28145	0.51400
1178.35288	0.51486
1176.42432	0.51587
1174.49575	0.51693
1172.56719	0.51778
1170.63862	0.51825
1168.71006	0.51869
1166.78149	0.51943
1164.85293	0.52024
1162.92437	0.52076
1160.99580	0.52096
1159.06724	0.52088
1157.13867	0.52046
1155.21011	0.51974
1153.28154	0.51874
1151.35298	0.51735
1149.42441	0.51546
1147.49585	0.51292
1145.56729	0.50993
1143.63872	0.50697
1141.71016	0.50418
1139.78159	0.50163
1137.85303	0.49972
1135.92446	0.49855
1133.99590	0.49779
1132.06733	0.49723
1130.13877	0.49678
1128.21021	0.49640
1126.28164	0.49603
1124.35308	0.49558
1122.42451	0.49528
1120.49595	0.49513
1118.56738	0.49504
1116.63882	0.49533
1114.71025	0.49585
1112.78169	0.49629
1110.85312	0.49702
1108.92456	0.49802
1106.99600	0.49886
1105.06743	0.49971
1103.13887	0.50092
1101.21030	0.50233
1099.28174	0.50373
1097.35317	0.50548
1095.42461	0.50807
1093.49604	0.51170
1091.56748	0.51638
1089.63892	0.52216
1087.71035	0.52921
1085.78179	0.53734
1083.85322	0.54577
1081.92466	0.55350
1079.99609	0.55944
1078.06753	0.56256
1076.13896	0.56231
1074.21040	0.55913
1072.28184	0.55381
1070.35327	0.54702
1068.42471	0.53988
1066.49614	0.53311
1064.56758	0.52683
1062.63901	0.52147
1060.71045	0.51695
1058.78188	0.51271
1056.85332	0.50877
1054.92476	0.50534
1052.99619	0.50251
1051.06763	0.50039
1049.13906	0.49904
1047.21050	0.49840
1045.28193	0.49822
1043.35337	0.49819
1041.42480	0.49822
1039.49624	0.49830
1037.56768	0.49845
1035.63911	0.49836
1033.71055	0.49775
1031.78198	0.49682
1029.85342	0.49568
1027.92485	0.49445
1025.99629	0.49334
1024.06772	0.49267
1022.13916	0.49243
1020.21060	0.49240
1018.28203	0.49245
1016.35347	0.49234
1014.42490	0.49200
1012.49634	0.49165
1010.56777	0.49154
1008.63921	0.49190
1006.71064	0.49273
1004.78208	0.49394
1002.85352	0.49558
1000.92495	0.49783
998.99639	0.50082
997.06782	0.50462
995.13926	0.50895
993.21069	0.51305
991.28213	0.51620
989.35356	0.51827
987.42500	0.51939
985.49644	0.51964
983.56787	0.51944
981.63931	0.51965
979.71074	0.52070
977.78218	0.52236
975.85361	0.52443
973.92505	0.52690
971.99648	0.52983
970.06792	0.53305
968.13936	0.53646
966.21079	0.54029
964.28223	0.54468
962.35366	0.54962
960.42510	0.55493
958.49653	0.56031
956.56797	0.56593
954.63940	0.57185
952.71084	0.57781
950.78228	0.58378
948.85371	0.58984
946.92515	0.59609
944.99658	0.60237
943.06802	0.60837
941.13945	0.61439
939.21089	0.62056
937.28232	0.62666
935.35376	0.63254
933.42520	0.63816
931.49663	0.64401
929.56807	0.65012
927.63950	0.65569
925.71094	0.66071
923.78237	0.66599
921.85381	0.67187
919.92524	0.67834
917.99668	0.68551
916.06812	0.69309
914.13955	0.70064
912.21099	0.70801
910.28242	0.71552
908.35386	0.72351
906.42529	0.73203
904.49673	0.74141
902.56816	0.75129
900.63960	0.76062
898.71104	0.76972
896.78247	0.77920
894.85391	0.78870
892.92534	0.79808
890.99678	0.80775
889.06821	0.81785
887.13965	0.82812
885.21108	0.83900
883.28252	0.85072
881.35396	0.86242
879.42539	0.87413
877.49683	0.88617
875.56826	0.89785
873.63970	0.90908
871.71113	0.92039
869.78257	0.93192
867.85400	0.94352
865.92544	0.95474
863.99687	0.96588
862.06831	0.97697
860.13975	0.98800
858.21118	1.00003
856.28262	1.01243
854.35405	1.02383
852.42549	1.03385
850.49692	1.04372
848.56836	1.05530
846.63979	1.06838
844.71123	1.08226
842.78267	1.09520
840.85410	1.10500
838.92554	1.11325
836.99697	1.12383
835.06841	1.13670
833.13984	1.14837
831.21128	1.15860
829.28271	1.16998
827.35415	1.18243
825.42559	1.19163
823.49702	1.19856
821.56846	1.21226
819.63989	1.23382
817.71133	1.24854
815.78276	1.25294
813.85420	1.26181
811.92563	1.27407
809.99707	1.28590
808.06851	1.30297
806.13994	1.31342
804.21138	1.30996
802.28281	1.31038
800.35425	1.32490
798.42568	1.35625
796.49712	1.39348
794.56855	1.40056
792.63999	1.38872
790.71143	1.41289
788.78286	1.48096
786.85430	1.52506
784.92573	1.48597
782.99717	1.48826
781.06860	1.60153
779.14004	1.77816
777.21147	1.72524
775.28291	1.50881
773.35435	1.35452
771.42578	1.30207
769.49722	1.33060
767.56865	1.31202
765.64009	1.27160
763.71152	1.30655
761.78296	1.33889
759.85439	1.30345
757.92583	1.25880
755.99727	1.21887
754.06870	1.19530
752.14014	1.17942
750.21157	1.12672
748.28301	1.04928
746.35444	0.99137
744.42588	0.94917
742.49731	0.91370
740.56875	0.88011
738.64019	0.79474
736.71162	0.66988
734.78306	0.59821
732.85449	0.60118
730.92593	0.59572
728.99736	0.50208
727.06880	0.38866
725.14023	0.30694
723.21167	0.20973
721.28311	-0.01995
719.35454	-0.29854
717.42598	-0.48258
715.49741	-0.57481
713.56885	-0.53476
711.64028	-0.24374
709.71172	-0.08770
707.78315	-0.10218
705.85459	-0.12283
703.92603	-0.03531
701.99746	0.04970
700.06890	0.11880
698.14033	0.18675
696.21177	0.23186
694.28320	0.22567
692.35464	0.17690
690.42607	0.15380
688.49751	0.17999
686.56895	0.23429
684.64038	0.29058
682.71182	0.33742
680.78325	0.35990
678.85469	0.35149
676.92612	0.35062
674.99756	0.34479
673.06899	0.34177
671.14043	0.39429
669.21187	0.41213
667.28330	0.31570
665.35474	0.24980
663.42617	0.27017
661.49761	0.27531
659.56904	0.25211
657.64048	0.26528
655.71191	0.29609
653.78335	0.27461
651.85479	0.19102
649.92622	0.15661
647.99766	0.18603
646.06909	0.20695
644.14053	0.22981
642.21196	0.27140
640.28340	0.26628
638.35483	0.19248
636.42627	0.14010
634.49771	0.17906
632.56914	0.32651
630.64058	0.42688
628.71201	0.34154
626.78345	0.26994
624.85488	0.25868
622.92632	0.26514
620.99775	0.25222
619.06919	0.24792
617.14062	0.26119
615.21206	0.24226
613.28350	0.18759
611.35493	0.13142
609.42637	0.11747
607.49780	0.15047
605.56924	0.16977
603.64067	0.15068
601.71211	0.13620
599.78354	0.13122
597.85498	0.13276
595.92642	0.15317
593.99785	0.16432
592.06929	0.15796
590.14072	0.15881
588.21216	0.18043
586.28359	0.20124
584.35503	0.21928
582.42646	0.27328
580.49790	0.32174
578.56934	0.32423
576.64077	0.30236
574.71221	0.25812
572.78364	0.21413
570.85508	0.20316
568.92651	0.21072
566.99795	0.22495
565.06938	0.26565
563.14082	0.28189
561.21226	0.21448
559.28369	0.18183
557.35513	0.21897
555.42656	0.23857
553.49800	0.20040
551.56943	0.14270
549.64087	0.08783
547.71230	0.09680
545.78374	0.16723
543.85518	0.18741
541.92661	0.16309
539.99805	0.14070
538.06948	0.13078
536.14092	0.14427
534.21235	0.19595
532.28379	0.27748
530.35522	0.32252
528.42666	0.24006
526.49810	0.13889
524.56953	0.12612
522.64097	0.17184
520.71240	0.18732
518.78384	0.16493
516.85527	0.16005
514.92671	0.19647
512.99814	0.25536
511.06958	0.29174
509.14102	0.26718
507.21245	0.23215
505.28389	0.22045
503.35532	0.22035
501.42676	0.20876
499.49819	0.17738
