3997.91411	0.06750
3995.98555	0.06794
3994.05698	0.06835
3992.12842	0.06884
3990.19985	0.06905
3988.27129	0.06913
3986.34272	0.06940
3984.41416	0.06987
3982.48560	0.07042
3980.55703	0.07084
3978.62847	0.07095
3976.69990	0.07094
3974.77134	0.07094
3972.84277	0.07088
3970.91421	0.07109
3968.98564	0.07149
3967.05708	0.07169
3965.12852	0.07192
3963.19995	0.07229
3961.27139	0.07259
3959.34282	0.07274
3957.41426	0.07284
3955.48569	0.07285
3953.55713	0.07282
3951.62856	0.07307
3949.70000	0.07381
3947.77144	0.07451
3945.84287	0.07450
3943.91431	0.07430
3941.98574	0.07422
3940.05718	0.07341
3938.12861	0.07248
3936.20005	0.07261
3934.27148	0.07359
3932.34292	0.07457
3930.41436	0.07477
3928.48579	0.07425
3926.55723	0.07389
3924.62866	0.07399
3922.70010	0.07396
3920.77153	0.07349
3918.84297	0.07313
3916.91440	0.07330
3914.98584	0.07353
3913.05728	0.07310
3911.12871	0.07227
3909.20015	0.07167
3907.27158	0.07185
3905.34302	0.07331
3903.41445	0.07548
3901.48589	0.07640
3899.55732	0.07562
3897.62876	0.07435
3895.70020	0.07352
3893.77163	0.07372
3891.84307	0.07470
3889.91450	0.07503
3887.98594	0.07438
3886.05737	0.07437
3884.12881	0.07499
3882.20024	0.07526
3880.27168	0.07548
3878.34312	0.07496
3876.41455	0.07370
3874.48599	0.07370
3872.55742	0.07533
3870.62886	0.07708
3868.70029	0.07743
3866.77173	0.07675
3864.84316	0.07726
3862.91460	0.07847
3860.98604	0.07800
3859.05747	0.07688
3857.12891	0.07693
3855.20034	0.07850
3853.27178	0.08200
3851.34321	0.08411
3849.41465	0.08187
3847.48608	0.07969
3845.55752	0.07922
3843.62896	0.08035
3841.70039	0.08242
3839.77183	0.08460
3837.84326	0.08624
3835.91470	0.08644
3833.98613	0.08578
3832.05757	0.08540
3830.12900	0.08521
3828.20044	0.08523
3826.27187	0.08596
3824.34331	0.08717
3822.41475	0.08892
3820.48618	0.09173
3818.55762	0.09345
3816.62905	0.09359
3814.70049	0.09334
3812.77192	0.09225
3810.84336	0.09148
3808.91479	0.09241
3806.98623	0.09499
3805.05767	0.09738
3803.12910	0.09874
3801.20054	0.10074
3799.27197	0.10231
3797.34341	0.10241
3795.41484	0.10278
3793.48628	0.10314
3791.55771	0.10315
3789.62915	0.10349
3787.70059	0.10443
3785.77202	0.10614
3783.84346	0.10841
3781.91489	0.11048
3779.98633	0.11243
3778.05776	0.11427
3776.12920	0.11506
3774.20063	0.11573
3772.27207	0.11767
3770.34351	0.12104
3768.41494	0.12462
3766.48638	0.12664
3764.55781	0.12777
3762.62925	0.12906
3760.70068	0.13115
3758.77212	0.13413
3756.84355	0.13679
3754.91499	0.13892
3752.98643	0.14206
3751.05786	0.14705
3749.12930	0.15193
3747.20073	0.15388
3745.27217	0.15542
3743.34360	0.15931
3741.41504	0.16383
3739.48647	0.16781
3737.55791	0.17297
3735.62935	0.18023
3733.70078	0.18812
3731.77222	0.19345
3729.84365	0.19701
3727.91509	0.20076
3725.98652	0.20611
3724.05796	0.21256
3722.12939	0.21850
3720.20083	0.22404
3718.27227	0.22955
3716.34370	0.23518
3714.41514	0.24140
3712.48657	0.25084
3710.55801	0.26640
3708.62944	0.28266
3706.70088	0.29438
3704.77231	0.30530
3702.84375	0.31869
3700.91519	0.33596
3698.98662	0.35435
3697.05806	0.37152
3695.12949	0.38979
3693.20093	0.40953
3691.27236	0.43131
3689.34380	0.45935
3687.41523	0.49348
3685.48667	0.52333
3683.55811	0.54897
3681.62954	0.57672
3679.70098	0.60854
3677.77241	0.64239
3675.84385	0.68251
3673.91528	0.73635
3671.98672	0.77995
3670.05815	0.81834
3668.12959	0.87149
3666.20103	0.91997
3664.27246	0.96045
3662.34390	1.00469
3660.41533	1.05314
3658.48677	1.10075
3656.55820	1.15081
3654.62964	1.20650
3652.70107	1.25348
3650.77251	1.29443
3648.84395	1.35149
3646.91538	1.42216
3644.98682	1.47330
3643.05825	1.51213
3641.12969	1.55268
3639.20112	1.59793
3637.27256	1.64358
3635.34399	1.68792
3633.41543	1.73185
3631.48687	1.77288
3629.55830	1.81482
3627.62974	1.87025
3625.70117	1.92203
3623.77261	1.95654
3621.84404	1.99013
3619.91548	2.02914
3617.98691	2.07473
3616.05835	2.11737
3614.12979	2.15349
3612.20122	2.19283
3610.27266	2.23280
3608.34409	2.27286
3606.41553	2.31631
3604.48696	2.35713
3602.55840	2.39287
3600.62983	2.43097
3598.70127	2.47270
3596.77271	2.51300
3594.84414	2.55263
3592.91558	2.59310
3590.98701	2.63203
3589.05845	2.66961
3587.12988	2.71462
3585.20132	2.76294
3583.27275	2.80276
3581.34419	2.83987
3579.41562	2.88002
3577.48706	2.92217
3575.55850	2.96452
3573.62993	3.00691
3571.70137	3.04744
3569.77280	3.08714
3567.84424	3.13052
3565.91567	3.18305
3563.98711	3.23319
3562.05854	3.27527
3560.12998	3.31836
3558.20142	3.36263
3556.27285	3.40617
3554.34429	3.44926
3552.41572	3.49481
3550.48716	3.54259
3548.55859	3.59021
3546.63003	3.63840
3544.70146	3.68727
3542.77290	3.73314
3540.84434	3.77803
3538.91577	3.82510
3536.98721	3.87116
3535.05864	3.91702
3533.13008	3.96555
3531.20151	4.01642
3529.27295	4.06417
3527.34438	4.10905
3525.41582	4.15497
3523.48726	4.20108
3521.55869	4.24911
3519.63013	4.29827
3517.70156	4.34637
3515.77300	4.39327
3513.84443	4.44051
3511.91587	4.48804
3509.98730	4.53645
3508.05874	4.58519
3506.13018	4.63080
3504.20161	4.67695
3502.27305	4.72993
3500.34448	4.78377
3498.41592	4.82657
3496.48735	4.86219
3494.55879	4.90312
3492.63022	4.95529
3490.70166	5.01233
3488.77310	5.06271
3486.84453	5.10742
3484.91597	5.15727
3482.98740	5.21472
3481.05884	5.26869
3479.13027	5.31076
3477.20171	5.35380
3475.27314	5.40167
3473.34458	5.44397
3471.41602	5.48508
3469.48745	5.52943
3467.55889	5.57457
3465.63032	5.62414
3463.70176	5.68067
3461.77319	5.73563
3459.84463	5.78188
3457.91606	5.82002
3455.98750	5.85925
3454.05894	5.90922
3452.13037	5.96836
3450.20181	6.03050
3448.27324	6.09065
3446.34468	6.14946
3444.41611	6.20403
3442.48755	6.25609
3440.55898	6.30808
3438.63042	6.35257
3436.70186	6.38350
3434.77329	6.41325
3432.84473	6.45101
3430.91616	6.48592
3428.98760	6.52974
3427.05903	6.59447
3425.13047	6.66102
3423.20190	6.70903
3421.27334	6.75963
3419.34478	6.83680
3417.41621	6.90084
3415.48765	6.89503
3413.55908	6.86771
3411.63052	6.90238
3409.70195	6.97462
3407.77339	7.02584
3405.84482	7.05394
3403.91626	7.10513
3401.98770	7.17187
3400.05913	7.22211
3398.13057	7.26818
3396.20200	7.29802
3394.27344	7.31337
3392.34487	7.33037
3390.41631	7.35337
3388.48774	7.38760
3386.55918	7.46243
3384.63062	7.53991
3382.70205	7.55964
3380.77349	7.56338
3378.84492	7.58062
3376.91636	7.60930
3374.98779	7.64337
3373.05923	7.66853
3371.13066	7.66347
3369.20210	7.66495
3367.27354	7.70861
3365.34497	7.77337
3363.41641	7.80798
3361.48784	7.80574
3359.55928	7.79653
3357.63071	7.78744
3355.70215	7.86035
3353.77358	7.97331
3351.84502	7.95651
3349.91646	7.86195
3347.98789	7.84931
3346.05933	7.89349
3344.13076	7.87834
3342.20220	7.85472
3340.27363	7.89308
3338.34507	7.94752
3336.41650	7.99535
3334.48794	8.06327
3332.55937	8.06406
3330.63081	8.00681
3328.70225	8.05771
3326.77368	8.20417
3324.84512	8.22999
3322.91655	8.08728
3320.98799	7.97563
3319.05942	7.97399
3317.13086	8.02241
3315.20229	8.04560
3313.27373	8.03637
3311.34517	7.99789
3309.41660	7.96747
3307.48804	7.98579
3305.55947	8.00826
3303.63091	7.98646
3301.70234	7.95957
3299.77378	8.02917
3297.84521	8.13085
3295.91665	8.16706
3293.98809	8.16399
3292.05952	8.13868
3290.13096	8.10274
3288.20239	8.06800
3286.27383	8.07936
3284.34526	8.11101
3282.41670	8.09270
3280.48813	8.02946
3278.55957	8.00130
3276.63101	8.05368
3274.70244	8.14180
3272.77388	8.18250
3270.84531	8.14160
3268.91675	8.09738
3266.98818	8.09180
3265.05962	8.11405
3263.13105	8.14107
3261.20249	8.11752
3259.27393	8.01032
3257.34536	7.92668
3255.41680	7.99425
3253.48823	8.13224
3251.55967	8.18168
3249.63110	8.16698
3247.70254	8.19198
3245.77397	8.25808
3243.84541	8.22144
3241.91685	8.08459
3239.98828	8.05549
3238.05972	8.12351
3236.13115	8.11197
3234.20259	8.04390
3232.27402	8.00635
3230.34546	7.97098
3228.41689	7.94306
3226.48833	7.94416
3224.55977	7.95079
3222.63120	7.96045
3220.70264	7.99397
3218.77407	8.03781
3216.84551	8.02392
3214.91694	7.99096
3212.98838	7.98685
3211.05981	7.91222
3209.13125	7.77289
3207.20269	7.69437
3205.27412	7.70502
3203.34556	7.70449
3201.41699	7.63885
3199.48843	7.59115
3197.55986	7.58965
3195.63130	7.57741
3193.70273	7.53052
3191.77417	7.48814
3189.84561	7.48213
3187.91704	7.45630
3185.98848	7.36254
3184.05991	7.25963
3182.13135	7.18894
3180.20278	7.13754
3178.27422	7.10123
3176.34565	7.07330
3174.41709	7.03862
3172.48853	6.99143
3170.55996	6.92610
3168.63140	6.85995
3166.70283	6.80991
3164.77427	6.74912
3162.84570	6.66217
3160.91714	6.58119
3158.98857	6.52231
3157.06001	6.46828
3155.13145	6.40910
3153.20288	6.33441
3151.27432	6.25238
3149.34575	6.18993
3147.41719	6.14234
3145.48862	6.07977
3143.56006	6.00078
3141.63149	5.92784
3139.70293	5.85505
3137.77437	5.77782
3135.84580	5.70632
3133.91724	5.63939
3131.98867	5.57457
3130.06011	5.50986
3128.13154	5.44378
3126.20298	5.37503
3124.27441	5.30231
3122.34585	5.22973
3120.41729	5.16146
3118.48872	5.09385
3116.56016	5.02221
3114.63159	4.94909
3112.70303	4.88344
3110.77446	4.82637
3108.84590	4.76659
3106.91733	4.69840
3104.98877	4.62546
3103.06021	4.55403
3101.13164	4.48727
3099.20308	4.42302
3097.27451	4.36044
3095.34595	4.30210
3093.41738	4.24495
3091.48882	4.18214
3089.56025	4.11693
3087.63169	4.05405
3085.70312	3.99109
3083.77456	3.92953
3081.84600	3.87178
3079.91743	3.81416
3077.98887	3.75650
3076.06030	3.70081
3074.13174	3.64483
3072.20317	3.58738
3070.27461	3.52959
3068.34604	3.47254
3066.41748	3.41638
3064.48892	3.36236
3062.56035	3.31142
3060.63179	3.26100
3058.70322	3.20920
3056.77466	3.15688
3054.84609	3.10478
3052.91753	3.05280
3050.98896	3.00174
3049.06040	2.95284
3047.13184	2.90501
3045.20327	2.85678
3043.27471	2.80952
3041.34614	2.76321
3039.41758	2.71605
3037.48901	2.66934
3035.56045	2.62516
3033.63188	2.58273
3031.70332	2.54024
3029.77476	2.49721
3027.84619	2.45444
3025.91763	2.41230
3023.98906	2.37056
3022.06050	2.32920
3020.13193	2.28842
3018.20337	2.24862
3016.27480	2.20988
3014.34624	2.17176
3012.41768	2.13400
3010.48911	2.09652
3008.56055	2.06006
3006.63198	2.02510
3004.70342	1.99071
3002.77485	1.95643
3000.84629	1.92252
2998.91772	1.88946
2996.98916	1.85784
2995.06060	1.82728
2993.13203	1.79717
2991.20347	1.76761
2989.27490	1.73845
2987.34634	1.70967
2985.41777	1.68177
2983.48921	1.65492
2981.56064	1.62894
2979.63208	1.60331
2977.70352	1.57775
2975.77495	1.55301
2973.84639	1.52948
2971.91782	1.50637
2969.98926	1.48329
2968.06069	1.46025
2966.13213	1.43713
2964.20356	1.41421
2962.27500	1.39173
2960.34644	1.36928
2958.41787	1.34644
2956.48931	1.32329
2954.56074	1.30000
2952.63218	1.27661
2950.70361	1.25348
2948.77505	1.23094
2946.84648	1.20918
2944.91792	1.18843
2942.98936	1.16854
2941.06079	1.14922
2939.13223	1.13008
2937.20366	1.11075
2935.27510	1.09139
2933.34653	1.07216
2931.41797	1.05294
2929.48940	1.03388
2927.56084	1.01514
2925.63228	0.99677
2923.70371	0.97877
2921.77515	0.96106
2919.84658	0.94395
2917.91802	0.92756
2915.98945	0.91104
2914.06089	0.89433
2912.13232	0.87812
2910.20376	0.86221
2908.27520	0.84661
2906.34663	0.83159
2904.41807	0.81688
2902.48950	0.80262
2900.56094	0.78908
2898.63237	0.77611
2896.70381	0.76333
2894.77524	0.75033
2892.84668	0.73727
2890.91812	0.72492
2888.98955	0.71349
2887.06099	0.70270
2885.13242	0.69270
2883.20386	0.68331
2881.27529	0.67390
2879.34673	0.66456
2877.41816	0.65542
2875.48960	0.64611
2873.56104	0.63640
2871.63247	0.62618
2869.70391	0.61520
2867.77534	0.60339
2865.84678	0.59127
2863.91821	0.57957
2861.98965	0.56855
2860.06108	0.55782
2858.13252	0.54731
2856.20396	0.53744
2854.27539	0.52812
2852.34683	0.51886
2850.41826	0.50992
2848.48970	0.50166
2846.56113	0.49383
2844.63257	0.48619
2842.70400	0.47884
2840.77544	0.47194
2838.84687	0.46550
2836.91831	0.45939
2834.98975	0.45335
2833.06118	0.44729
2831.13262	0.44134
2829.20405	0.43551
2827.27549	0.42961
2825.34692	0.42353
2823.41836	0.41745
2821.48979	0.41168
2819.56123	0.40604
2817.63267	0.40020
2815.70410	0.39436
2813.77554	0.38871
2811.84697	0.38318
2809.91841	0.37776
2807.98984	0.37235
2806.06128	0.36694
2804.13271	0.36171
2802.20415	0.35666
2800.27559	0.35179
2798.34702	0.34713
2796.41846	0.34256
2794.48989	0.33782
2792.56133	0.33300
2790.63276	0.32845
2788.70420	0.32402
2786.77563	0.31956
2784.84707	0.31529
2782.91851	0.31113
2780.98994	0.30690
2779.06138	0.30270
2777.13281	0.29876
2775.20425	0.29498
2773.27568	0.29113
2771.34712	0.28723
2769.41855	0.28350
2767.48999	0.27993
2765.56143	0.27641
2763.63286	0.27289
2761.70430	0.26946
2759.77573	0.26624
2757.84717	0.26314
2755.91860	0.25991
2753.99004	0.25655
2752.06147	0.25336
2750.13291	0.25044
2748.20435	0.24761
2746.27578	0.24467
2744.34722	0.24178
2742.41865	0.23912
2740.49009	0.23656
2738.56152	0.23392
2736.63296	0.23125
2734.70439	0.22873
2732.77583	0.22638
2730.84727	0.22396
2728.91870	0.22136
2726.99014	0.21889
2725.06157	0.21676
2723.13301	0.21468
2721.20444	0.21251
2719.27588	0.21044
2717.34731	0.20851
2715.41875	0.20659
2713.49019	0.20466
2711.56162	0.20276
2709.63306	0.20100
2707.70449	0.19941
2705.77593	0.19775
2703.84736	0.19582
2701.91880	0.19392
2699.99023	0.19247
2698.06167	0.19137
2696.13311	0.19015
2694.20454	0.18865
2692.27598	0.18704
2690.34741	0.18554
2688.41885	0.18425
2686.49028	0.18302
2684.56172	0.18174
2682.63315	0.18045
2680.70459	0.17928
2678.77603	0.17825
2676.84746	0.17723
2674.91890	0.17609
2672.99033	0.17483
2671.06177	0.17364
2669.13320	0.17257
2667.20464	0.17155
2665.27607	0.17050
2663.34751	0.16948
2661.41895	0.16858
2659.49038	0.16785
2657.56182	0.16712
2655.63325	0.16635
2653.70469	0.16565
2651.77612	0.16483
2649.84756	0.16383
2647.91899	0.16294
2645.99043	0.16230
2644.06187	0.16173
2642.13330	0.16111
2640.20474	0.16052
2638.27617	0.16003
2636.34761	0.15963
2634.41904	0.15916
2632.49048	0.15868
2630.56191	0.15819
2628.63335	0.15755
2626.70479	0.15690
2624.77622	0.15648
2622.84766	0.15611
2620.91909	0.15563
2618.99053	0.15536
2617.06196	0.15548
2615.13340	0.15552
2613.20483	0.15514
2611.27627	0.15456
2609.34771	0.15409
2607.41914	0.15381
2605.49058	0.15378
2603.56201	0.15389
2601.63345	0.15386
2599.70488	0.15376
2597.77632	0.15372
2595.84775	0.15367
2593.91919	0.15364
2591.99062	0.15375
2590.06206	0.15385
2588.13350	0.15390
2586.20493	0.15402
2584.27637	0.15420
2582.34780	0.15428
2580.41924	0.15435
2578.49067	0.15459
2576.56211	0.15495
2574.63354	0.15516
2572.70498	0.15519
2570.77642	0.15531
2568.84785	0.15562
2566.91929	0.15590
2564.99072	0.15614
2563.06216	0.15659
2561.13359	0.15712
2559.20503	0.15752
2557.27646	0.15785
2555.34790	0.15818
2553.41934	0.15854
2551.49077	0.15898
2549.56221	0.15951
2547.63364	0.16003
2545.70508	0.16038
2543.77651	0.16067
2541.84795	0.16122
2539.91938	0.16194
2537.99082	0.16266
2536.06226	0.16335
2534.13369	0.16389
2532.20513	0.16436
2530.27656	0.16491
2528.34800	0.16553
2526.41943	0.16612
2524.49087	0.16673
2522.56230	0.16740
2520.63374	0.16808
2518.70518	0.16875
2516.77661	0.16940
2514.84805	0.17003
2512.91948	0.17080
2510.99092	0.17164
2509.06235	0.17237
2507.13379	0.17302
2505.20522	0.17367
2503.27666	0.17439
2501.34810	0.17518
2499.41953	0.17592
2497.49097	0.17674
2495.56240	0.17772
2493.63384	0.17862
2491.70527	0.17930
2489.77671	0.18000
2487.84814	0.18082
2485.91958	0.18158
2483.99102	0.18225
2482.06245	0.18301
2480.13389	0.18389
2478.20532	0.18477
2476.27676	0.18563
2474.34819	0.18656
2472.41963	0.18746
2470.49106	0.18819
2468.56250	0.18895
2466.63394	0.18980
2464.70537	0.19064
2462.77681	0.19142
2460.84824	0.19218
2458.91968	0.19299
2456.99111	0.19392
2455.06255	0.19490
2453.13398	0.19578
2451.20542	0.19659
2449.27686	0.19740
2447.34829	0.19822
2445.41973	0.19919
2443.49116	0.20033
2441.56260	0.20130
2439.63403	0.20210
2437.70547	0.20302
2435.77690	0.20412
2433.84834	0.20518
2431.91978	0.20604
2429.99121	0.20689
2428.06265	0.20795
2426.13408	0.20917
2424.20552	0.21027
2422.27695	0.21121
2420.34839	0.21215
2418.41982	0.21310
2416.49126	0.21412
2414.56270	0.21530
2412.63413	0.21656
2410.70557	0.21777
2408.77700	0.21884
2406.84844	0.21980
2404.91987	0.22083
2402.99131	0.22200
2401.06274	0.22314
2399.13418	0.22426
2397.20562	0.22550
2395.27705	0.22673
2393.34849	0.22790
2391.41992	0.22920
2389.49136	0.23073
2387.56279	0.23267
2385.63423	0.23556
2383.70566	0.24001
2381.77710	0.24619
2379.84854	0.25366
2377.91997	0.26198
2375.99141	0.27121
2374.06284	0.28162
2372.13428	0.29337
2370.20571	0.30635
2368.27715	0.31975
2366.34858	0.33227
2364.42002	0.34323
2362.49146	0.35205
2360.56289	0.35718
2358.63433	0.35792
2356.70576	0.35428
2354.77720	0.34600
2352.84863	0.33441
2350.92007	0.32240
2348.99150	0.31504
2347.06294	0.31583
2345.13437	0.32511
2343.20581	0.33719
2341.27725	0.34353
2339.34868	0.34438
2337.42012	0.34388
2335.49155	0.34338
2333.56299	0.34269
2331.63442	0.34262
2329.70586	0.34259
2327.77729	0.34128
2325.84873	0.33878
2323.92017	0.33596
2321.99160	0.33315
2320.06304	0.32966
2318.13447	0.32566
2316.20591	0.32244
2314.27734	0.32068
2312.34878	0.31999
2310.42021	0.31952
2308.49165	0.31836
2306.56309	0.31650
2304.63452	0.31486
2302.70596	0.31429
2300.77739	0.31453
2298.84883	0.31482
2296.92026	0.31504
2294.99170	0.31539
2293.06313	0.31581
2291.13457	0.31614
2289.20601	0.31647
2287.27744	0.31701
2285.34888	0.31782
2283.42031	0.31892
2281.49175	0.32050
2279.56318	0.32260
2277.63462	0.32488
2275.70605	0.32707
2273.77749	0.32920
2271.84893	0.33135
2269.92036	0.33350
2267.99180	0.33552
2266.06323	0.33739
2264.13467	0.33928
2262.20610	0.34121
2260.27754	0.34300
2258.34897	0.34471
2256.42041	0.34647
2254.49185	0.34836
2252.56328	0.35032
2250.63472	0.35221
2248.70615	0.35406
2246.77759	0.35597
2244.84902	0.35799
2242.92046	0.36011
2240.99189	0.36229
2239.06333	0.36447
2237.13477	0.36659
2235.20620	0.36863
2233.27764	0.37061
2231.34907	0.37264
2229.42051	0.37479
2227.49194	0.37705
2225.56338	0.37929
2223.63481	0.38139
2221.70625	0.38346
2219.77769	0.38564
2217.84912	0.38787
2215.92056	0.39008
2213.99199	0.39224
2212.06343	0.39433
2210.13486	0.39639
2208.20630	0.39845
2206.27773	0.40057
2204.34917	0.40266
2202.42061	0.40470
2200.49204	0.40673
2198.56348	0.40874
2196.63491	0.41067
2194.70635	0.41253
2192.77778	0.41440
2190.84922	0.41625
2188.92065	0.41805
2186.99209	0.41991
2185.06353	0.42181
2183.13496	0.42357
2181.20640	0.42515
2179.27783	0.42671
2177.34927	0.42828
2175.42070	0.42982
2173.49214	0.43137
2171.56357	0.43291
2169.63501	0.43437
2167.70645	0.43565
2165.77788	0.43676
2163.84932	0.43779
2161.92075	0.43886
2159.99219	0.44006
2158.06362	0.44127
2156.13506	0.44228
2154.20649	0.44313
2152.27793	0.44398
2150.34937	0.44474
2148.42080	0.44536
2146.49224	0.44599
2144.56367	0.44669
2142.63511	0.44733
2140.70654	0.44777
2138.77798	0.44809
2136.84941	0.44830
2134.92085	0.44835
2132.99229	0.44829
2131.06372	0.44825
2129.13516	0.44826
2127.20659	0.44825
2125.27803	0.44808
2123.34946	0.44775
2121.42090	0.44739
2119.49233	0.44691
2117.56377	0.44625
2115.63521	0.44556
2113.70664	0.44489
2111.77808	0.44413
2109.84951	0.44331
2107.92095	0.44246
2105.99238	0.44151
2104.06382	0.44047
2102.13525	0.43932
2100.20669	0.43809
2098.27812	0.43689
2096.34956	0.43571
2094.42100	0.43436
2092.49243	0.43280
2090.56387	0.43118
2088.63530	0.42951
2086.70674	0.42780
2084.77817	0.42602
2082.84961	0.42425
2080.92104	0.42247
2078.99248	0.42059
2077.06392	0.41861
2075.13535	0.41664
2073.20679	0.41463
2071.27822	0.41246
2069.34966	0.41021
2067.42109	0.40800
2065.49253	0.40587
2063.56396	0.40366
2061.63540	0.40129
2059.70684	0.39881
2057.77827	0.39635
2055.84971	0.39396
2053.92114	0.39154
2051.99258	0.38901
2050.06401	0.38645
2048.13545	0.38400
2046.20688	0.38157
2044.27832	0.37915
2042.34976	0.37672
2040.42119	0.37413
2038.49263	0.37141
2036.56406	0.36871
2034.63550	0.36598
2032.70693	0.36315
2030.77837	0.36031
2028.84980	0.35754
2026.92124	0.35490
2024.99268	0.35238
2023.06411	0.34986
2021.13555	0.34728
2019.20698	0.34475
2017.27842	0.34211
2015.34985	0.33912
2013.42129	0.33611
2011.49272	0.33333
2009.56416	0.33072
2007.63560	0.32815
2005.70703	0.32556
2003.77847	0.32297
2001.84990	0.32038
1999.92134	0.31777
1997.99277	0.31517
1996.06421	0.31263
1994.13564	0.31023
1992.20708	0.30794
1990.27852	0.30550
1988.34995	0.30291
1986.42139	0.30038
1984.49282	0.29797
1982.56426	0.29563
1980.63569	0.29331
1978.70713	0.29106
1976.77856	0.28891
1974.85000	0.28670
1972.92144	0.28438
1970.99287	0.28217
1969.06431	0.28022
1967.13574	0.27838
1965.20718	0.27643
1963.27861	0.27441
1961.35005	0.27249
1959.42148	0.27064
1957.49292	0.26880
1955.56436	0.26698
1953.63579	0.26518
1951.70723	0.26335
1949.77866	0.26170
1947.85010	0.26025
1945.92153	0.25889
1943.99297	0.25752
1942.06440	0.25600
1940.13584	0.25430
1938.20728	0.25271
1936.27871	0.25133
1934.35015	0.24999
1932.42158	0.24868
1930.49302	0.24751
1928.56445	0.24647
1926.63589	0.24544
1924.70732	0.24449
1922.77876	0.24364
1920.85020	0.24262
1918.92163	0.24158
1916.99307	0.24068
1915.06450	0.23974
1913.13594	0.23880
1911.20737	0.23810
1909.27881	0.23748
1907.35024	0.23674
1905.42168	0.23596
1903.49312	0.23527
1901.56455	0.23466
1899.63599	0.23409
1897.70742	0.23368
1895.77886	0.23339
1893.85029	0.23302
1891.92173	0.23259
1889.99316	0.23238
1888.06460	0.23218
1886.13604	0.23180
1884.20747	0.23143
1882.27891	0.23109
1880.35034	0.23083
1878.42178	0.23073
1876.49321	0.23081
1874.56465	0.23087
1872.63608	0.23097
1870.70752	0.23139
1868.77896	0.23216
1866.85039	0.23237
1864.92183	0.23194
1862.99326	0.23172
1861.06470	0.23186
1859.13613	0.23220
1857.20757	0.23253
1855.27900	0.23285
1853.35044	0.23318
1851.42187	0.23368
1849.49331	0.23433
1847.56475	0.23521
1845.63618	0.23631
1843.70762	0.23743
1841.77905	0.23800
1839.85049	0.23813
1837.92192	0.23871
1835.99336	0.23969
1834.06479	0.24072
1832.13623	0.24184
1830.20767	0.24349
1828.27910	0.24509
1826.35054	0.24606
1824.42197	0.24717
1822.49341	0.24822
1820.56484	0.24921
1818.63628	0.25048
1816.70771	0.25204
1814.77915	0.25362
1812.85059	0.25543
1810.92202	0.25760
1808.99346	0.25966
1807.06489	0.26145
1805.13633	0.26327
1803.20776	0.26546
1801.27920	0.26797
1799.35063	0.27071
1797.42207	0.27318
1795.49351	0.27560
1793.56494	0.27847
1791.63638	0.28207
1789.70781	0.28537
1787.77925	0.28774
1785.85068	0.29068
1783.92212	0.29431
1781.99355	0.29820
1780.06499	0.30226
1778.13643	0.30639
1776.20786	0.31038
1774.27930	0.31489
1772.35073	0.32109
1770.42217	0.32741
1768.49360	0.33228
1766.56504	0.33696
1764.63647	0.34191
1762.70791	0.34750
1760.77935	0.35475
1758.85078	0.36170
1756.92222	0.36871
1754.99365	0.37629
1753.06509	0.38320
1751.13652	0.39157
1749.20796	0.40222
1747.27939	0.41256
1745.35083	0.42142
1743.42227	0.43084
1741.49370	0.44137
1739.56514	0.45373
1737.63657	0.46593
1735.70801	0.47659
1733.77944	0.49268
1731.85088	0.51180
1729.92231	0.52690
1727.99375	0.54216
1726.06519	0.55851
1724.13662	0.57650
1722.20806	0.59610
1720.27949	0.61432
1718.35093	0.63590
1716.42236	0.66791
1714.49380	0.69795
1712.56523	0.72185
1710.63667	0.74524
1708.70811	0.77098
1706.77954	0.80049
1704.85098	0.83571
1702.92241	0.86722
1700.99385	0.89868
1699.06528	0.94594
1697.13672	0.98982
1695.20815	1.03500
1693.27959	1.07912
1691.35103	1.11505
1689.42246	1.15720
1687.49390	1.20234
1685.56533	1.24620
1683.63677	1.31413
1681.70820	1.38450
1679.77964	1.42889
1677.85107	1.47146
1675.92251	1.52133
1673.99395	1.58375
1672.06538	1.63975
1670.13682	1.69482
1668.20825	1.76671
1666.27969	1.82637
1664.35112	1.87806
1662.42256	1.94332
1660.49399	2.01808
1658.56543	2.07759
1656.63687	2.12545
1654.70830	2.16706
1652.77974	2.22766
1650.85117	2.28662
1648.92261	2.30935
1646.99404	2.33656
1645.06548	2.36249
1643.13691	2.37739
1641.20835	2.38553
1639.27979	2.39509
1637.35122	2.40117
1635.42266	2.39644
1633.49409	2.38335
1631.56553	2.36852
1629.63696	2.35163
1627.70840	2.32104
1625.77983	2.28402
1623.85127	2.23749
1621.92271	2.17999
1619.99414	2.12948
1618.06558	2.08208
1616.13701	2.01481
1614.20845	1.94470
1612.27988	1.89085
1610.35132	1.83588
1608.42275	1.77675
1606.49419	1.71835
1604.56562	1.66516
1602.63706	1.61437
1600.70850	1.56485
1598.77993	1.51936
1596.85137	1.47686
1594.92280	1.43591
1592.99424	1.39646
1591.06567	1.36031
1589.13711	1.32685
1587.20854	1.29614
1585.27998	1.26802
1583.35142	1.24238
1581.42285	1.21958
1579.49429	1.20030
1577.56572	1.18352
1575.63716	1.16411
1573.70859	1.14718
1571.78003	1.13659
1569.85146	1.12730
1567.92290	1.11826
1565.99434	1.11218
1564.06577	1.10889
1562.13721	1.10753
1560.20864	1.10909
1558.28008	1.11713
1556.35151	1.12448
1554.42295	1.12815
1552.49438	1.13231
1550.56582	1.13517
1548.63726	1.13534
1546.70869	1.13208
1544.78013	1.12450
1542.85156	1.11252
1540.92300	1.09346
1538.99443	1.06167
1537.06587	1.03738
1535.13730	1.02094
1533.20874	0.99898
1531.28018	0.97494
1529.35161	0.95719
1527.42305	0.94056
1525.49448	0.92358
1523.56592	0.90960
1521.63735	0.89680
1519.70879	0.88393
1517.78022	0.87291
1515.85166	0.85966
1513.92310	0.84528
1511.99453	0.83266
1510.06597	0.82147
1508.13740	0.81082
1506.20884	0.79367
1504.28027	0.77825
1502.35171	0.76979
1500.42314	0.76278
1498.49458	0.75563
1496.56602	0.74715
1494.63745	0.73827
1492.70889	0.73140
1490.78032	0.72573
1488.85176	0.71944
1486.92319	0.71328
1484.99463	0.70835
1483.06606	0.70473
1481.13750	0.70217
1479.20894	0.70056
1477.28037	0.70013
1475.35181	0.70091
1473.42324	0.70225
1471.49468	0.70234
1469.56611	0.70072
1467.63755	0.69877
1465.70898	0.69731
1463.78042	0.69628
1461.85186	0.69556
1459.92329	0.69558
1457.99473	0.69667
1456.06616	0.69712
1454.13760	0.69484
1452.20903	0.69183
1450.28047	0.68885
1448.35190	0.68614
1446.42334	0.68339
1444.49478	0.68045
1442.56621	0.67753
1440.63765	0.67457
1438.70908	0.67157
1436.78052	0.66789
1434.85195	0.66348
1432.92339	0.65999
1430.99482	0.65781
1429.06626	0.65668
1427.13770	0.65633
1425.20913	0.65674
1423.28057	0.65784
1421.35200	0.65888
1419.42344	0.65972
1417.49487	0.65983
1415.56631	0.65877
1413.63774	0.65801
1411.70918	0.65833
1409.78062	0.65966
1407.85205	0.66158
1405.92349	0.66385
1403.99492	0.66607
1402.06636	0.66725
1400.13779	0.66717
1398.20923	0.66598
1396.28066	0.66369
1394.35210	0.65997
1392.42354	0.65510
1390.49497	0.65031
1388.56641	0.64567
1386.63784	0.64028
1384.70928	0.63418
1382.78071	0.62830
1380.85215	0.62299
1378.92358	0.61862
1376.99502	0.61541
1375.06646	0.61326
1373.13789	0.61175
1371.20933	0.61061
1369.28076	0.60961
1367.35220	0.60828
1365.42363	0.60665
1363.49507	0.60511
1361.56650	0.60364
1359.63794	0.60200
1357.70937	0.60042
1355.78081	0.59898
1353.85225	0.59762
1351.92368	0.59662
1349.99512	0.59600
1348.06655	0.59536
1346.13799	0.59456
1344.20942	0.59384
1342.28086	0.59332
1340.35229	0.59289
1338.42373	0.59235
1336.49517	0.59182
1334.56660	0.59153
1332.63804	0.59154
1330.70947	0.59185
1328.78091	0.59242
1326.85234	0.59329
1324.92378	0.59436
1322.99521	0.59541
1321.06665	0.59637
1319.13809	0.59731
1317.20952	0.59805
1315.28096	0.59836
1313.35239	0.59824
1311.42383	0.59777
1309.49526	0.59709
1307.56670	0.59644
1305.63813	0.59603
1303.70957	0.59572
1301.78101	0.59515
1299.85244	0.59432
1297.92388	0.59338
1295.99531	0.59224
1294.06675	0.59089
1292.13818	0.58950
1290.20962	0.58813
1288.28105	0.58681
1286.35249	0.58562
1284.42393	0.58446
1282.49536	0.58312
1280.56680	0.58170
1278.63823	0.58033
1276.70967	0.57887
1274.78110	0.57736
1272.85254	0.57613
1270.92397	0.57530
1268.99541	0.57457
1267.06685	0.57369
1265.13828	0.57280
1263.20972	0.57211
1261.28115	0.57149
1259.35259	0.57071
1257.42402	0.56985
1255.49546	0.56935
1253.56689	0.56930
1251.63833	0.56941
1249.70977	0.56951
1247.78120	0.56957
1245.85264	0.56942
1243.92407	0.56891
1241.99551	0.56796
1240.06694	0.56657
1238.13838	0.56474
1236.20981	0.56248
1234.28125	0.55988
1232.35269	0.55719
1230.42412	0.55475
1228.49556	0.55253
1226.56699	0.55030
1224.63843	0.54813
1222.70986	0.54616
1220.78130	0.54439
1218.85273	0.54274
1216.92417	0.54127
1214.99561	0.54000
1213.06704	0.53895
1211.13848	0.53822
1209.20991	0.53766
1207.28135	0.53705
1205.35278	0.53621
1203.42422	0.53525
1201.49565	0.53432
1199.56709	0.53343
1197.63853	0.53262
1195.70996	0.53189
1193.78140	0.53121
1191.85283	0.53066
1189.92427	0.53027
1187.99570	0.52995
1186.06714	0.52973
1184.13857	0.52977
1182.21001	0.53025
1180.28145	0.53126
1178.35288	0.53282
1176.42432	0.53468
1174.49575	0.53625
1172.56719	0.53724
1170.63862	0.53769
1168.71006	0.53782
1166.78149	0.53775
1164.85293	0.53759
1162.92437	0.53756
1160.99580	0.53763
1159.06724	0.53748
1157.13867	0.53693
1155.21011	0.53592
1153.28154	0.53446
1151.35298	0.53278
1149.42441	0.53078
1147.49585	0.52825
1145.56729	0.52540
1143.63872	0.52262
1141.71016	0.52010
1139.78159	0.51798
1137.85303	0.51635
1135.92446	0.51528
1133.99590	0.51486
1132.06733	0.51490
1130.13877	0.51491
1128.21021	0.51465
1126.28164	0.51418
1124.35308	0.51373
1122.42451	0.51349
1120.49595	0.51367
1118.56738	0.51421
1116.63882	0.51479
1114.71025	0.51539
1112.78169	0.51619
1110.85312	0.51705
1108.92456	0.51778
1106.99600	0.51855
1105.06743	0.51956
1103.13887	0.52078
1101.21030	0.52203
1099.28174	0.52327
1097.35317	0.52487
1095.42461	0.52731
1093.49604	0.53079
1091.56748	0.53528
1089.63892	0.54080
1087.71035	0.54770
1085.78179	0.55590
1083.85322	0.56433
1081.92466	0.57168
1079.99609	0.57698
1078.06753	0.57954
1076.13896	0.57932
1074.21040	0.57641
1072.28184	0.57094
1070.35327	0.56378
1068.42471	0.55630
1066.49614	0.54928
1064.56758	0.54294
1062.63901	0.53740
1060.71045	0.53265
1058.78188	0.52858
1056.85332	0.52466
1054.92476	0.52078
1052.99619	0.51760
1051.06763	0.51514
1049.13906	0.51314
1047.21050	0.51179
1045.28193	0.51092
1043.35337	0.51018
1041.42480	0.50963
1039.49624	0.50935
1037.56768	0.50917
1035.63911	0.50893
1033.71055	0.50856
1031.78198	0.50774
1029.85342	0.50637
1027.92485	0.50492
1025.99629	0.50370
1024.06772	0.50274
1022.13916	0.50206
1020.21060	0.50162
1018.28203	0.50149
1016.35347	0.50154
1014.42490	0.50140
1012.49634	0.50104
1010.56777	0.50074
1008.63921	0.50072
1006.71064	0.50116
1004.78208	0.50210
1002.85352	0.50374
1000.92495	0.50619
998.99639	0.50938
997.06782	0.51333
995.13926	0.51783
993.21069	0.52216
991.28213	0.52560
989.35356	0.52777
987.42500	0.52869
985.49644	0.52876
983.56787	0.52848
981.63931	0.52839
979.71074	0.52888
977.78218	0.52992
975.85361	0.53150
973.92505	0.53368
971.99648	0.53653
970.06792	0.54004
968.13936	0.54375
966.21079	0.54748
964.28223	0.55148
962.35366	0.55578
960.42510	0.56036
958.49653	0.56541
956.56797	0.57110
954.63940	0.57732
952.71084	0.58368
950.78228	0.58980
948.85371	0.59567
946.92515	0.60156
944.99658	0.60761
943.06802	0.61394
941.13945	0.62050
939.21089	0.62677
937.28232	0.63246
935.35376	0.63802
933.42520	0.64360
931.49663	0.64875
929.56807	0.65380
927.63950	0.65975
925.71094	0.66651
923.78237	0.67292
921.85381	0.67858
919.92524	0.68442
917.99668	0.69121
916.06812	0.69822
914.13955	0.70480
912.21099	0.71168
910.28242	0.71929
908.35386	0.72748
906.42529	0.73634
904.49673	0.74563
902.56816	0.75453
900.63960	0.76290
898.71104	0.77196
896.78247	0.78191
894.85391	0.79149
892.92534	0.80067
890.99678	0.81098
889.06821	0.82280
887.13965	0.83458
885.21108	0.84548
883.28252	0.85614
881.35396	0.86661
879.42539	0.87693
877.49683	0.88763
875.56826	0.89839
873.63970	0.90935
871.71113	0.92177
869.78257	0.93502
867.85400	0.94769
865.92544	0.95969
863.99687	0.97070
862.06831	0.98081
860.13975	0.99060
858.21118	1.00065
856.28262	1.01133
854.35405	1.02296
852.42549	1.03583
850.49692	1.04943
848.56836	1.06262
846.63979	1.07394
844.71123	1.08366
842.78267	1.09359
840.85410	1.10544
838.92554	1.11880
836.99697	1.12972
835.06841	1.13946
833.13984	1.15394
831.21128	1.16881
829.28271	1.17648
827.35415	1.18244
825.42559	1.19631
823.49702	1.21694
821.56846	1.23267
819.63989	1.23898
817.71133	1.24456
815.78276	1.25635
813.85420	1.27331
811.92563	1.29172
809.99707	1.30437
808.06851	1.30863
806.13994	1.32476
804.21138	1.36111
802.28281	1.38653
800.35425	1.38479
798.42568	1.38500
796.49712	1.40023
794.56855	1.40555
792.63999	1.38932
790.71143	1.38251
788.78286	1.38785
786.85430	1.37087
784.92573	1.36870
782.99717	1.44297
781.06860	1.59440
779.14004	1.65827
777.21147	1.47581
775.28291	1.30432
773.35435	1.25339
771.42578	1.29702
769.49722	1.34702
767.56865	1.36741
765.64009	1.43334
763.71152	1.57828
761.78296	1.65184
759.85439	1.53580
757.92583	1.39214
755.99727	1.24997
754.06870	1.15767
752.14014	1.16748
750.21157	1.25864
748.28301	1.28817
746.35444	1.26165
744.42588	1.37033
742.49731	1.49780
740.56875	1.24379
738.64019	1.09767
736.71162	1.12573
734.78306	1.26135
732.85449	4.39713
730.92593	1.88382
728.99736	0.87450
727.06880	0.70917
725.14023	0.76437
723.21167	0.76691
721.28311	0.66002
719.35454	0.76268
717.42598	1.08320
715.49741	0.45438
713.56885	0.13902
711.64028	-0.04026
709.71172	-0.25593
707.78315	-0.33369
705.85459	-0.13199
703.92603	0.12522
701.99746	0.27507
700.06890	0.34825
698.14033	0.45725
696.21177	0.70407
694.28320	0.81947
692.35464	0.61786
690.42607	0.57545
688.49751	0.84236
686.56895	1.08383
684.64038	0.60718
682.71182	0.32951
680.78325	0.23420
678.85469	0.26518
676.92612	0.37136
674.99756	0.54390
673.06899	0.67558
671.14043	0.81902
669.21187	1.27642
667.28330	0.81440
665.35474	0.42145
663.42617	0.24827
661.49761	0.17044
659.56904	0.17386
657.64048	0.36582
655.71191	0.85014
653.78335	1.38176
651.85479	1.37562
649.92622	0.56664
647.99766	0.26370
646.06909	0.17991
644.14053	0.19674
642.21196	0.24389
640.28340	0.30843
638.35483	0.38559
636.42627	0.38019
634.49771	0.28822
632.56914	0.27296
630.64058	0.27791
628.71201	0.20980
626.78345	0.22142
624.85488	0.30837
622.92632	0.33785
620.99775	0.26595
619.06919	0.18292
617.14062	0.20613
615.21206	0.25215
613.28350	0.27981
611.35493	0.35801
609.42637	0.42048
607.49780	0.42122
605.56924	0.38057
603.64067	0.27713
601.71211	0.21617
599.78354	0.24099
597.85498	0.26880
595.92642	0.22171
593.99785	0.20672
592.06929	0.32378
590.14072	0.50951
588.21216	0.49479
586.28359	0.29259
584.35503	0.16676
582.42646	0.15587
580.49790	0.24169
578.56934	0.30578
576.64077	0.28400
574.71221	0.30323
572.78364	0.37994
570.85508	0.38977
568.92651	0.30465
566.99795	0.23924
565.06938	0.27402
563.14082	0.35996
561.21226	0.32914
559.28369	0.27654
557.35513	0.24401
555.42656	0.20845
553.49800	0.21407
551.56943	0.24679
549.64087	0.24584
547.71230	0.22925
545.78374	0.25731
543.85518	0.36999
541.92661	0.52267
539.99805	0.53185
538.06948	0.48481
536.14092	0.57468
534.21235	0.68951
532.28379	0.51828
530.35522	0.35931
528.42666	0.25188
526.49810	0.16309
524.56953	0.07886
522.64097	0.02360
520.71240	0.05113
518.78384	0.14663
516.85527	0.23048
514.92671	0.24310
512.99814	0.23801
511.06958	0.22726
509.14102	0.18120
507.21245	0.17683
505.28389	0.25595
503.35532	0.34610
501.42676	0.41700
499.49819	0.43477
