3997.91411	0.06643
3995.98555	0.06744
3994.05698	0.06753
3992.12842	0.06734
3990.19985	0.06756
3988.27129	0.06772
3986.34272	0.06768
3984.41416	0.06802
3982.48560	0.06858
3980.55703	0.06885
3978.62847	0.06909
3976.69990	0.06977
3974.77134	0.07070
3972.84277	0.07124
3970.91421	0.07111
3968.98564	0.07071
3967.05708	0.07040
3965.12852	0.07046
3963.19995	0.07128
3961.27139	0.07235
3959.34282	0.07248
3957.41426	0.07181
3955.48569	0.07137
3953.55713	0.07160
3951.62856	0.07268
3949.70000	0.07421
3947.77144	0.07507
3945.84287	0.07476
3943.91431	0.07462
3941.98574	0.07491
3940.05718	0.07382
3938.12861	0.07195
3936.20005	0.07133
3934.27148	0.07267
3932.34292	0.07523
3930.41436	0.07664
3928.48579	0.07588
3926.55723	0.07524
3924.62866	0.07596
3922.70010	0.07648
3920.77153	0.07601
3918.84297	0.07591
3916.91440	0.07604
3914.98584	0.07469
3913.05728	0.07243
3911.12871	0.07108
3909.20015	0.07094
3907.27158	0.07256
3905.34302	0.07695
3903.41445	0.08250
3901.48589	0.08498
3899.55732	0.08365
3897.62876	0.08007
3895.70020	0.07628
3893.77163	0.07541
3891.84307	0.07755
3889.91450	0.07811
3887.98594	0.07639
3886.05737	0.07719
3884.12881	0.08006
3882.20024	0.08164
3880.27168	0.08219
3878.34312	0.08056
3876.41455	0.07836
3874.48599	0.07947
3872.55742	0.08284
3870.62886	0.08577
3868.70029	0.08652
3866.77173	0.08500
3864.84316	0.08482
3862.91460	0.08542
3860.98604	0.08359
3859.05747	0.08166
3857.12891	0.08280
3855.20034	0.08736
3853.27178	0.09427
3851.34321	0.09553
3849.41465	0.08868
3847.48608	0.08314
3845.55752	0.08176
3843.62896	0.08429
3841.70039	0.08923
3839.77183	0.09490
3837.84326	0.09905
3835.91470	0.09821
3833.98613	0.09445
3832.05757	0.09195
3830.12900	0.09090
3828.20044	0.09080
3826.27187	0.09191
3824.34331	0.09368
3822.41475	0.09696
3820.48618	0.10195
3818.55762	0.10326
3816.62905	0.10184
3814.70049	0.10007
3812.77192	0.09650
3810.84336	0.09419
3808.91479	0.09537
3806.98623	0.09934
3805.05767	0.10320
3803.12910	0.10659
3801.20054	0.11118
3799.27197	0.11275
3797.34341	0.11086
3795.41484	0.10901
3793.48628	0.10662
3791.55771	0.10500
3789.62915	0.10541
3787.70059	0.10731
3785.77202	0.11040
3783.84346	0.11330
3781.91489	0.11482
3779.98633	0.11694
3778.05776	0.11933
3776.12920	0.11904
3774.20063	0.11825
3772.27207	0.12001
3770.34351	0.12443
3768.41494	0.12907
3766.48638	0.13160
3764.55781	0.13281
3762.62925	0.13368
3760.70068	0.13639
3758.77212	0.14164
3756.84355	0.14569
3754.91499	0.14815
3752.98643	0.15361
3751.05786	0.16336
3749.12930	0.17050
3747.20073	0.17079
3745.27217	0.17172
3743.34360	0.17460
3741.41504	0.17581
3739.48647	0.17750
3737.55791	0.18285
3735.62935	0.19284
3733.70078	0.20236
3731.77222	0.20382
3729.84365	0.20228
3727.91509	0.20382
3725.98652	0.20970
3724.05796	0.21765
3722.12939	0.22438
3720.20083	0.22969
3718.27227	0.23463
3716.34370	0.24030
3714.41514	0.24819
3712.48657	0.26140
3710.55801	0.28038
3708.62944	0.29479
3706.70088	0.30190
3704.77231	0.31016
3702.84375	0.32366
3700.91519	0.34198
3698.98662	0.35999
3697.05806	0.37635
3695.12949	0.39507
3693.20093	0.41707
3691.27236	0.44327
3689.34380	0.47607
3687.41523	0.51022
3685.48667	0.53613
3683.55811	0.55936
3681.62954	0.58751
3679.70098	0.62198
3677.77241	0.66010
3675.84385	0.70534
3673.91528	0.76154
3671.98672	0.80384
3670.05815	0.84200
3668.12959	0.89387
3666.20103	0.93827
3664.27246	0.97583
3662.34390	1.01920
3660.41533	1.06778
3658.48677	1.11613
3656.55820	1.16784
3654.62964	1.22472
3652.70107	1.27247
3650.77251	1.31751
3648.84395	1.38178
3646.91538	1.45207
3644.98682	1.49545
3643.05825	1.52911
3641.12969	1.56747
3639.20112	1.61160
3637.27256	1.65619
3635.34399	1.70016
3633.41543	1.74518
3631.48687	1.78846
3629.55830	1.83400
3627.62974	1.89141
3625.70117	1.93944
3623.77261	1.96950
3621.84404	2.00010
3619.91548	2.03867
3617.98691	2.08697
3616.05835	2.13116
3614.12979	2.16655
3612.20122	2.20468
3610.27266	2.24376
3608.34409	2.28407
3606.41553	2.32650
3604.48696	2.36343
3602.55840	2.39643
3600.62983	2.43524
3598.70127	2.47852
3596.77271	2.51958
3594.84414	2.56122
3592.91558	2.60366
3590.98701	2.64180
3589.05845	2.67757
3587.12988	2.72182
3585.20132	2.76928
3583.27275	2.80717
3581.34419	2.84231
3579.41562	2.88130
3577.48706	2.92339
3575.55850	2.96606
3573.62993	3.00919
3571.70137	3.05056
3569.77280	3.09064
3567.84424	3.13515
3565.91567	3.18911
3563.98711	3.23831
3562.05854	3.27679
3560.12998	3.31638
3558.20142	3.36062
3556.27285	3.40608
3554.34429	3.45116
3552.41572	3.50062
3550.48716	3.55087
3548.55859	3.59505
3546.63003	3.63828
3544.70146	3.68580
3542.77290	3.73282
3540.84434	3.77769
3538.91577	3.82428
3536.98721	3.87153
3535.05864	3.91906
3533.13008	3.96620
3531.20151	4.01258
3529.27295	4.05945
3527.34438	4.10751
3525.41582	4.15569
3523.48726	4.20439
3521.55869	4.25347
3519.63013	4.30210
3517.70156	4.35118
3515.77300	4.39816
3513.84443	4.44370
3511.91587	4.48984
3509.98730	4.53961
3508.05874	4.59242
3506.13018	4.64045
3504.20161	4.68456
3502.27305	4.73049
3500.34448	4.77692
3498.41592	4.82027
3496.48735	4.86683
3494.55879	4.92366
3492.63022	4.98184
3490.70166	5.03132
3488.77310	5.07832
3486.84453	5.12696
3484.91597	5.17141
3482.98740	5.21180
3481.05884	5.25544
3479.13027	5.30355
3477.20171	5.35529
3475.27314	5.41315
3473.34458	5.46890
3471.41602	5.51482
3469.48745	5.55686
3467.55889	5.59601
3465.63032	5.63967
3463.70176	5.70268
3461.77319	5.77316
3459.84463	5.83509
3457.91606	5.89105
3455.98750	5.94431
3454.05894	5.99750
3452.13037	6.05426
3450.20181	6.09948
3448.27324	6.13089
3446.34468	6.18077
3444.41611	6.24322
3442.48755	6.29418
3440.55898	6.33689
3438.63042	6.38387
3436.70186	6.43206
3434.77329	6.46006
3432.84473	6.48434
3430.91616	6.54369
3428.98760	6.62048
3427.05903	6.66783
3425.13047	6.71616
3423.20190	6.79268
3421.27334	6.85641
3419.34478	6.90016
3417.41621	6.96312
3415.48765	7.02642
3413.55908	7.06130
3411.63052	7.09801
3409.70195	7.14295
3407.77339	7.19669
3405.84482	7.24248
3403.91626	7.26787
3401.98770	7.30882
3400.05913	7.38331
3398.13057	7.44488
3396.20200	7.44286
3394.27344	7.42079
3392.34487	7.45180
3390.41631	7.54765
3388.48774	7.63651
3386.55918	7.69689
3384.63062	7.72852
3382.70205	7.73325
3380.77349	7.77189
3378.84492	7.83203
3376.91636	7.88349
3374.98779	7.93958
3373.05923	7.97580
3371.13066	7.95371
3369.20210	7.94223
3367.27354	7.97038
3365.34497	8.01942
3363.41641	8.08587
3361.48784	8.14225
3359.55928	8.19401
3357.63071	8.19755
3355.70215	8.15542
3353.77358	8.13535
3351.84502	8.12206
3349.91646	8.10211
3347.98789	8.16165
3346.05933	8.25557
3344.13076	8.25234
3342.20220	8.21519
3340.27363	8.19343
3338.34507	8.16775
3336.41650	8.13600
3334.48794	8.11602
3332.55937	8.12310
3330.63081	8.18287
3328.70225	8.23692
3326.77368	8.18452
3324.84512	8.11773
3322.91655	8.12714
3320.98799	8.16226
3319.05942	8.22341
3317.13086	8.37225
3315.20229	8.45366
3313.27373	8.35105
3311.34517	8.24470
3309.41660	8.25145
3307.48804	8.34915
3305.55947	8.44744
3303.63091	8.46070
3301.70234	8.38487
3299.77378	8.31533
3297.84521	8.32872
3295.91665	8.38541
3293.98809	8.37012
3292.05952	8.31893
3290.13096	8.30925
3288.20239	8.33624
3286.27383	8.37231
3284.34526	8.38375
3282.41670	8.41798
3280.48813	8.43747
3278.55957	8.40611
3276.63101	8.38569
3274.70244	8.39774
3272.77388	8.42187
3270.84531	8.43865
3268.91675	8.49477
3266.98818	8.58402
3265.05962	8.59576
3263.13105	8.53310
3261.20249	8.51622
3259.27393	8.46762
3257.34536	8.32711
3255.41680	8.24901
3253.48823	8.29044
3251.55967	8.34185
3249.63110	8.29207
3247.70254	8.19757
3245.77397	8.15240
3243.84541	8.18115
3241.91685	8.24190
3239.98828	8.27617
3238.05972	8.30807
3236.13115	8.34519
3234.20259	8.37212
3232.27402	8.41743
3230.34546	8.45674
3228.41689	8.45497
3226.48833	8.36648
3224.55977	8.22682
3222.63120	8.17792
3220.70264	8.22311
3218.77407	8.29202
3216.84551	8.33137
3214.91694	8.30293
3212.98838	8.22308
3211.05981	8.16846
3209.13125	8.17495
3207.20269	8.13803
3205.27412	8.03144
3203.34556	7.96856
3201.41699	7.96709
3199.48843	7.90721
3197.55986	7.77757
3195.63130	7.71770
3193.70273	7.71989
3191.77417	7.65762
3189.84561	7.53180
3187.91704	7.43093
3185.98848	7.39507
3184.05991	7.39236
3182.13135	7.37114
3180.20278	7.33799
3178.27422	7.27839
3176.34565	7.17667
3174.41709	7.09792
3172.48853	7.05472
3170.55996	6.98939
3168.63140	6.91091
3166.70283	6.87594
3164.77427	6.86226
3162.84570	6.80780
3160.91714	6.71948
3158.98857	6.62272
3157.06001	6.53162
3155.13145	6.46486
3153.20288	6.40715
3151.27432	6.33908
3149.34575	6.26611
3147.41719	6.19077
3145.48862	6.11430
3143.56006	6.03819
3141.63149	5.95981
3139.70293	5.88415
3137.77437	5.81490
3135.84580	5.74521
3133.91724	5.67842
3131.98867	5.61154
3130.06011	5.53680
3128.13154	5.46226
3126.20298	5.38690
3124.27441	5.31071
3122.34585	5.24048
3120.41729	5.17031
3118.48872	5.09656
3116.56016	5.02250
3114.63159	4.94584
3112.70303	4.86866
3110.77446	4.79604
3108.84590	4.72700
3106.91733	4.65986
3104.98877	4.59097
3103.06021	4.51832
3101.13164	4.44592
3099.20308	4.37701
3097.27451	4.31118
3095.34595	4.24607
3093.41738	4.18004
3091.48882	4.11523
3089.56025	4.05176
3087.63169	3.98529
3085.70312	3.91619
3083.77456	3.84872
3081.84600	3.78490
3079.91743	3.72462
3077.98887	3.66511
3076.06030	3.60398
3074.13174	3.54360
3072.20317	3.48507
3070.27461	3.42639
3068.34604	3.36848
3066.41748	3.31224
3064.48892	3.25585
3062.56035	3.19917
3060.63179	3.14431
3058.70322	3.09155
3056.77466	3.03986
3054.84609	2.98798
3052.91753	2.93524
3050.98896	2.88317
3049.06040	2.83205
3047.13184	2.78127
3045.20327	2.73170
3043.27471	2.68329
3041.34614	2.63549
3039.41758	2.58853
3037.48901	2.54212
3035.56045	2.49618
3033.63188	2.45172
3031.70332	2.40830
3029.77476	2.36448
3027.84619	2.32103
3025.91763	2.27911
3023.98906	2.23820
3022.06050	2.19764
3020.13193	2.15737
3018.20337	2.11831
3016.27480	2.08061
3014.34624	2.04269
3012.41768	2.00454
3010.48911	1.96753
3008.56055	1.93187
3006.63198	1.89648
3004.70342	1.86063
3002.77485	1.82502
3000.84629	1.79044
2998.91772	1.75699
2996.98916	1.72451
2995.06060	1.69253
2993.13203	1.66095
2991.20347	1.63025
2989.27490	1.59995
2987.34634	1.56945
2985.41777	1.53929
2983.48921	1.50978
2981.56064	1.48093
2979.63208	1.45287
2977.70352	1.42539
2975.77495	1.39848
2973.84639	1.37201
2971.91782	1.34547
2969.98926	1.31919
2968.06069	1.29383
2966.13213	1.26932
2964.20356	1.24548
2962.27500	1.22217
2960.34644	1.19920
2958.41787	1.17641
2956.48931	1.15352
2954.56074	1.13078
2952.63218	1.10886
2950.70361	1.08771
2948.77505	1.06683
2946.84648	1.04609
2944.91792	1.02564
2942.98936	1.00542
2941.06079	0.98564
2939.13223	0.96671
2937.20366	0.94867
2935.27510	0.93159
2933.34653	0.91529
2931.41797	0.89900
2929.48940	0.88245
2927.56084	0.86581
2925.63228	0.84943
2923.70371	0.83381
2921.77515	0.81860
2919.84658	0.80337
2917.91802	0.78816
2915.98945	0.77232
2914.06089	0.75589
2912.13232	0.74023
2910.20376	0.72558
2908.27520	0.71149
2906.34663	0.69804
2904.41807	0.68501
2902.48950	0.67205
2900.56094	0.65946
2898.63237	0.64760
2896.70381	0.63618
2894.77524	0.62470
2892.84668	0.61299
2890.91812	0.60135
2888.98955	0.59024
2887.06099	0.57972
2885.13242	0.56940
2883.20386	0.55907
2881.27529	0.54899
2879.34673	0.53943
2877.41816	0.53020
2875.48960	0.52092
2873.56104	0.51157
2871.63247	0.50238
2869.70391	0.49338
2867.77534	0.48448
2865.84678	0.47560
2863.91821	0.46698
2861.98965	0.45884
2860.06108	0.45107
2858.13252	0.44372
2856.20396	0.43649
2854.27539	0.42902
2852.34683	0.42165
2850.41826	0.41433
2848.48970	0.40672
2846.56113	0.39916
2844.63257	0.39198
2842.70400	0.38515
2840.77544	0.37866
2838.84687	0.37252
2836.91831	0.36683
2834.98975	0.36148
2833.06118	0.35615
2831.13262	0.35070
2829.20405	0.34522
2827.27549	0.33982
2825.34692	0.33457
2823.41836	0.32946
2821.48979	0.32430
2819.56123	0.31903
2817.63267	0.31393
2815.70410	0.30922
2813.77554	0.30461
2811.84697	0.29994
2809.91841	0.29527
2807.98984	0.29051
2806.06128	0.28589
2804.13271	0.28160
2802.20415	0.27744
2800.27559	0.27339
2798.34702	0.26953
2796.41846	0.26569
2794.48989	0.26181
2792.56133	0.25794
2790.63276	0.25417
2788.70420	0.25047
2786.77563	0.24681
2784.84707	0.24332
2782.91851	0.24000
2780.98994	0.23663
2779.06138	0.23331
2777.13281	0.23018
2775.20425	0.22709
2773.27568	0.22398
2771.34712	0.22091
2769.41855	0.21792
2767.48999	0.21505
2765.56143	0.21231
2763.63286	0.20956
2761.70430	0.20679
2759.77573	0.20408
2757.84717	0.20152
2755.91860	0.19925
2753.99004	0.19713
2752.06147	0.19484
2750.13291	0.19239
2748.20435	0.18989
2746.27578	0.18746
2744.34722	0.18532
2742.41865	0.18344
2740.49009	0.18160
2738.56152	0.17966
2736.63296	0.17759
2734.70439	0.17553
2732.77583	0.17356
2730.84727	0.17165
2728.91870	0.16976
2726.99014	0.16796
2725.06157	0.16635
2723.13301	0.16488
2721.20444	0.16337
2719.27588	0.16178
2717.34731	0.16025
2715.41875	0.15877
2713.49019	0.15736
2711.56162	0.15602
2709.63306	0.15467
2707.70449	0.15332
2705.77593	0.15196
2703.84736	0.15056
2701.91880	0.14916
2699.99023	0.14784
2698.06167	0.14669
2696.13311	0.14576
2694.20454	0.14490
2692.27598	0.14391
2690.34741	0.14283
2688.41885	0.14173
2686.49028	0.14063
2684.56172	0.13961
2682.63315	0.13880
2680.70459	0.13809
2678.77603	0.13737
2676.84746	0.13659
2674.91890	0.13571
2672.99033	0.13491
2671.06177	0.13430
2669.13320	0.13367
2667.20464	0.13291
2665.27607	0.13226
2663.34751	0.13184
2661.41895	0.13138
2659.49038	0.13080
2657.56182	0.13023
2655.63325	0.12963
2653.70469	0.12911
2651.77612	0.12884
2649.84756	0.12861
2647.91899	0.12809
2645.99043	0.12754
2644.06187	0.12723
2642.13330	0.12699
2640.20474	0.12673
2638.27617	0.12640
2636.34761	0.12603
2634.41904	0.12580
2632.49048	0.12571
2630.56191	0.12556
2628.63335	0.12531
2626.70479	0.12512
2624.77622	0.12495
2622.84766	0.12482
2620.91909	0.12485
2618.99053	0.12496
2617.06196	0.12499
2615.13340	0.12496
2613.20483	0.12497
2611.27627	0.12499
2609.34771	0.12502
2607.41914	0.12514
2605.49058	0.12526
2603.56201	0.12532
2601.63345	0.12545
2599.70488	0.12567
2597.77632	0.12582
2595.84775	0.12589
2593.91919	0.12612
2591.99062	0.12651
2590.06206	0.12685
2588.13350	0.12707
2586.20493	0.12736
2584.27637	0.12781
2582.34780	0.12826
2580.41924	0.12862
2578.49067	0.12898
2576.56211	0.12935
2574.63354	0.12966
2572.70498	0.12999
2570.77642	0.13053
2568.84785	0.13110
2566.91929	0.13151
2564.99072	0.13192
2563.06216	0.13245
2561.13359	0.13302
2559.20503	0.13364
2557.27646	0.13422
2555.34790	0.13471
2553.41934	0.13524
2551.49077	0.13583
2549.56221	0.13640
2547.63364	0.13704
2545.70508	0.13780
2543.77651	0.13862
2541.84795	0.13945
2539.91938	0.14023
2537.99082	0.14096
2536.06226	0.14161
2534.13369	0.14210
2532.20513	0.14260
2530.27656	0.14328
2528.34800	0.14408
2526.41943	0.14477
2524.49087	0.14546
2522.56230	0.14633
2520.63374	0.14731
2518.70518	0.14823
2516.77661	0.14910
2514.84805	0.14987
2512.91948	0.15053
2510.99092	0.15131
2509.06235	0.15226
2507.13379	0.15320
2505.20522	0.15409
2503.27666	0.15507
2501.34810	0.15602
2499.41953	0.15683
2497.49097	0.15755
2495.56240	0.15832
2493.63384	0.15922
2491.70527	0.16017
2489.77671	0.16119
2487.84814	0.16222
2485.91958	0.16309
2483.99102	0.16381
2482.06245	0.16463
2480.13389	0.16563
2478.20532	0.16666
2476.27676	0.16764
2474.34819	0.16855
2472.41963	0.16938
2470.49106	0.17024
2468.56250	0.17122
2466.63394	0.17236
2464.70537	0.17353
2462.77681	0.17462
2460.84824	0.17570
2458.91968	0.17665
2456.99111	0.17749
2455.06255	0.17845
2453.13398	0.17955
2451.20542	0.18063
2449.27686	0.18162
2447.34829	0.18254
2445.41973	0.18359
2443.49116	0.18478
2441.56260	0.18593
2439.63403	0.18695
2437.70547	0.18797
2435.77690	0.18912
2433.84834	0.19028
2431.91978	0.19139
2429.99121	0.19253
2428.06265	0.19365
2426.13408	0.19465
2424.20552	0.19554
2422.27695	0.19644
2420.34839	0.19760
2418.41982	0.19903
2416.49126	0.20042
2414.56270	0.20167
2412.63413	0.20300
2410.70557	0.20434
2408.77700	0.20555
2406.84844	0.20673
2404.91987	0.20792
2402.99131	0.20909
2401.06274	0.21028
2399.13418	0.21151
2397.20562	0.21281
2395.27705	0.21424
2393.34849	0.21572
2391.41992	0.21716
2389.49136	0.21862
2387.56279	0.22040
2385.63423	0.22288
2383.70566	0.22651
2381.77710	0.23138
2379.84854	0.23710
2377.91997	0.24317
2375.99141	0.24979
2374.06284	0.25741
2372.13428	0.26582
2370.20571	0.27482
2368.27715	0.28423
2366.34858	0.29361
2364.42002	0.30214
2362.49146	0.30820
2360.56289	0.31141
2358.63433	0.31289
2356.70576	0.31192
2354.77720	0.30745
2352.84863	0.30057
2350.92007	0.29280
2348.99150	0.28776
2347.06294	0.28858
2345.13437	0.29544
2343.20581	0.30398
2341.27725	0.30881
2339.34868	0.31028
2337.42012	0.31056
2335.49155	0.31090
2333.56299	0.31132
2331.63442	0.31189
2329.70586	0.31241
2327.77729	0.31235
2325.84873	0.31147
2323.92017	0.31016
2321.99160	0.30869
2320.06304	0.30680
2318.13447	0.30467
2316.20591	0.30302
2314.27734	0.30238
2312.34878	0.30274
2310.42021	0.30333
2308.49165	0.30322
2306.56309	0.30262
2304.63452	0.30221
2302.70596	0.30236
2300.77739	0.30295
2298.84883	0.30354
2296.92026	0.30419
2294.99170	0.30504
2293.06313	0.30594
2291.13457	0.30683
2289.20601	0.30777
2287.27744	0.30879
2285.34888	0.30997
2283.42031	0.31144
2281.49175	0.31329
2279.56318	0.31547
2277.63462	0.31775
2275.70605	0.31998
2273.77749	0.32222
2271.84893	0.32450
2269.92036	0.32666
2267.99180	0.32865
2266.06323	0.33070
2264.13467	0.33283
2262.20610	0.33486
2260.27754	0.33672
2258.34897	0.33856
2256.42041	0.34056
2254.49185	0.34268
2252.56328	0.34476
2250.63472	0.34677
2248.70615	0.34884
2246.77759	0.35100
2244.84902	0.35313
2242.92046	0.35515
2240.99189	0.35712
2239.06333	0.35924
2237.13477	0.36161
2235.20620	0.36404
2233.27764	0.36633
2231.34907	0.36851
2229.42051	0.37069
2227.49194	0.37288
2225.56338	0.37509
2223.63481	0.37726
2221.70625	0.37944
2219.77769	0.38167
2217.84912	0.38388
2215.92056	0.38617
2213.99199	0.38851
2212.06343	0.39069
2210.13486	0.39279
2208.20630	0.39494
2206.27773	0.39708
2204.34917	0.39917
2202.42061	0.40132
2200.49204	0.40340
2198.56348	0.40531
2196.63491	0.40722
2194.70635	0.40922
2192.77778	0.41126
2190.84922	0.41329
2188.92065	0.41526
2186.99209	0.41712
2185.06353	0.41890
2183.13496	0.42069
2181.20640	0.42251
2179.27783	0.42431
2177.34927	0.42604
2175.42070	0.42768
2173.49214	0.42930
2171.56357	0.43082
2169.63501	0.43220
2167.70645	0.43355
2165.77788	0.43492
2163.84932	0.43626
2161.92075	0.43751
2159.99219	0.43863
2158.06362	0.43968
2156.13506	0.44075
2154.20649	0.44183
2152.27793	0.44282
2150.34937	0.44363
2148.42080	0.44434
2146.49224	0.44505
2144.56367	0.44571
2142.63511	0.44630
2140.70654	0.44672
2138.77798	0.44702
2136.84941	0.44730
2134.92085	0.44751
2132.99229	0.44760
2131.06372	0.44767
2129.13516	0.44774
2127.20659	0.44774
2125.27803	0.44761
2123.34946	0.44737
2121.42090	0.44702
2119.49233	0.44649
2117.56377	0.44587
2115.63521	0.44534
2113.70664	0.44478
2111.77808	0.44399
2109.84951	0.44310
2107.92095	0.44220
2105.99238	0.44125
2104.06382	0.44021
2102.13525	0.43900
2100.20669	0.43776
2098.27812	0.43662
2096.34956	0.43548
2094.42100	0.43418
2092.49243	0.43271
2090.56387	0.43110
2088.63530	0.42943
2086.70674	0.42780
2084.77817	0.42611
2082.84961	0.42428
2080.92104	0.42239
2078.99248	0.42050
2077.06392	0.41851
2075.13535	0.41647
2073.20679	0.41445
2071.27822	0.41239
2069.34966	0.41028
2067.42109	0.40825
2065.49253	0.40623
2063.56396	0.40398
2061.63540	0.40159
2059.70684	0.39918
2057.77827	0.39674
2055.84971	0.39427
2053.92114	0.39176
2051.99258	0.38918
2050.06401	0.38663
2048.13545	0.38422
2046.20688	0.38176
2044.27832	0.37922
2042.34976	0.37679
2040.42119	0.37428
2038.49263	0.37149
2036.56406	0.36869
2034.63550	0.36599
2032.70693	0.36328
2030.77837	0.36060
2028.84980	0.35792
2026.92124	0.35528
2024.99268	0.35265
2023.06411	0.34992
2021.13555	0.34715
2019.20698	0.34467
2017.27842	0.34233
2015.34985	0.33953
2013.42129	0.33646
2011.49272	0.33363
2009.56416	0.33104
2007.63560	0.32843
2005.70703	0.32579
2003.77847	0.32314
2001.84990	0.32051
1999.92134	0.31797
1997.99277	0.31543
1996.06421	0.31286
1994.13564	0.31064
1992.20708	0.30872
1990.27852	0.30637
1988.34995	0.30360
1986.42139	0.30080
1984.49282	0.29809
1982.56426	0.29550
1980.63569	0.29304
1978.70713	0.29079
1976.77856	0.28868
1974.85000	0.28655
1972.92144	0.28437
1970.99287	0.28232
1969.06431	0.28058
1967.13574	0.27891
1965.20718	0.27672
1963.27861	0.27426
1961.35005	0.27210
1959.42148	0.27015
1957.49292	0.26831
1955.56436	0.26660
1953.63579	0.26487
1951.70723	0.26305
1949.77866	0.26137
1947.85010	0.25997
1945.92153	0.25883
1943.99297	0.25796
1942.06440	0.25682
1940.13584	0.25477
1938.20728	0.25256
1936.27871	0.25094
1934.35015	0.24964
1932.42158	0.24832
1930.49302	0.24698
1928.56445	0.24579
1926.63589	0.24481
1924.70732	0.24433
1922.77876	0.24406
1920.85020	0.24324
1918.92163	0.24224
1916.99307	0.24122
1915.06450	0.23977
1913.13594	0.23846
1911.20737	0.23787
1909.27881	0.23754
1907.35024	0.23683
1905.42168	0.23581
1903.49312	0.23490
1901.56455	0.23412
1899.63599	0.23346
1897.70742	0.23315
1895.77886	0.23318
1893.85029	0.23298
1891.92173	0.23260
1889.99316	0.23264
1888.06460	0.23238
1886.13604	0.23157
1884.20747	0.23101
1882.27891	0.23069
1880.35034	0.23036
1878.42178	0.23013
1876.49321	0.23010
1874.56465	0.23019
1872.63608	0.23073
1870.70752	0.23220
1868.77896	0.23420
1866.85039	0.23437
1864.92183	0.23274
1862.99326	0.23163
1861.06470	0.23162
1859.13613	0.23208
1857.20757	0.23236
1855.27900	0.23259
1853.35044	0.23297
1851.42187	0.23354
1849.49331	0.23449
1847.56475	0.23605
1845.63618	0.23806
1843.70762	0.23955
1841.77905	0.23934
1839.85049	0.23878
1837.92192	0.23934
1835.99336	0.24026
1834.06479	0.24105
1832.13623	0.24253
1830.20767	0.24511
1828.27910	0.24696
1826.35054	0.24756
1824.42197	0.24836
1822.49341	0.24880
1820.56484	0.24924
1818.63628	0.25040
1816.70771	0.25205
1814.77915	0.25375
1812.85059	0.25596
1810.92202	0.25866
1808.99346	0.26073
1807.06489	0.26208
1805.13633	0.26366
1803.20776	0.26628
1801.27920	0.26973
1799.35063	0.27301
1797.42207	0.27542
1795.49351	0.27801
1793.56494	0.28171
1791.63638	0.28580
1789.70781	0.28794
1787.77925	0.28908
1785.85068	0.29181
1783.92212	0.29577
1781.99355	0.30020
1780.06499	0.30476
1778.13643	0.30891
1776.20786	0.31302
1774.27930	0.31856
1772.35073	0.32612
1770.42217	0.33232
1768.49360	0.33597
1766.56504	0.33971
1764.63647	0.34450
1762.70791	0.35089
1760.77935	0.35894
1758.85078	0.36594
1756.92222	0.37288
1754.99365	0.38038
1753.06509	0.38773
1751.13652	0.39772
1749.20796	0.41005
1747.27939	0.42044
1745.35083	0.42877
1743.42227	0.43809
1741.49370	0.44872
1739.56514	0.46102
1737.63657	0.47313
1735.70801	0.48443
1733.77944	0.50223
1731.85088	0.52188
1729.92231	0.53570
1727.99375	0.54959
1726.06519	0.56536
1724.13662	0.58360
1722.20806	0.60380
1720.27949	0.62329
1718.35093	0.64749
1716.42236	0.68164
1714.49380	0.71047
1712.56523	0.73233
1710.63667	0.75449
1708.70811	0.77971
1706.77954	0.80946
1704.85098	0.84469
1702.92241	0.87517
1700.99385	0.90524
1699.06528	0.95067
1697.13672	0.99181
1695.20815	1.03132
1693.27959	1.06804
1691.35103	1.09838
1689.42246	1.13530
1687.49390	1.17467
1685.56533	1.21258
1683.63677	1.26932
1681.70820	1.32541
1679.77964	1.36041
1677.85107	1.39465
1675.92251	1.43523
1673.99395	1.48602
1672.06538	1.53133
1670.13682	1.57575
1668.20825	1.63011
1666.27969	1.67064
1664.35112	1.70506
1662.42256	1.74976
1660.49399	1.79895
1658.56543	1.83639
1656.63687	1.86882
1654.70830	1.90303
1652.77974	1.96014
1650.85117	2.01258
1648.92261	2.03455
1646.99404	2.06650
1645.06548	2.10087
1643.13691	2.12077
1641.20835	2.13365
1639.27979	2.14731
1637.35122	2.16032
1635.42266	2.16888
1633.49409	2.16460
1631.56553	2.15197
1629.63696	2.13806
1627.70840	2.11573
1625.77983	2.08974
1623.85127	2.05697
1621.92271	2.01406
1619.99414	1.97314
1618.06558	1.93289
1616.13701	1.87525
1614.20845	1.81448
1612.27988	1.76802
1610.35132	1.72046
1608.42275	1.66863
1606.49419	1.61671
1604.56562	1.56819
1602.63706	1.52048
1600.70850	1.47280
1598.77993	1.42864
1596.85137	1.38781
1594.92280	1.34839
1592.99424	1.30949
1591.06567	1.27316
1589.13711	1.23886
1587.20854	1.20668
1585.27998	1.17662
1583.35142	1.14794
1581.42285	1.12127
1579.49429	1.09866
1577.56572	1.07881
1575.63716	1.05291
1573.70859	1.02765
1571.78003	1.01110
1569.85146	0.99413
1567.92290	0.97339
1565.99434	0.95603
1564.06577	0.94147
1562.13721	0.92978
1560.20864	0.92149
1558.28008	0.90569
1556.35151	0.88637
1554.42295	0.87330
1552.49438	0.86127
1550.56582	0.85013
1548.63726	0.83922
1546.70869	0.83035
1544.78013	0.82420
1542.85156	0.81933
1540.92300	0.81300
1538.99443	0.79897
1537.06587	0.78623
1535.13730	0.77942
1533.20874	0.77254
1531.28018	0.76387
1529.35161	0.75742
1527.42305	0.75290
1525.49448	0.74860
1523.56592	0.74446
1521.63735	0.73970
1519.70879	0.73278
1517.78022	0.72643
1515.85166	0.71991
1513.92310	0.71319
1511.99453	0.70872
1510.06597	0.70675
1508.13740	0.70634
1506.20884	0.70102
1504.28027	0.69142
1502.35171	0.68589
1500.42314	0.68286
1498.49458	0.68064
1496.56602	0.67711
1494.63745	0.67227
1492.70889	0.66905
1490.78032	0.66803
1488.85176	0.66646
1486.92319	0.66196
1484.99463	0.65690
1483.06606	0.65318
1481.13750	0.65033
1479.20894	0.64776
1477.28037	0.64602
1475.35181	0.64534
1473.42324	0.64469
1471.49468	0.64112
1469.56611	0.63582
1467.63755	0.63232
1465.70898	0.63046
1463.78042	0.62832
1461.85186	0.62596
1459.92329	0.62530
1457.99473	0.62605
1456.06616	0.62383
1454.13760	0.61859
1452.20903	0.61492
1450.28047	0.61276
1448.35190	0.61125
1446.42334	0.60930
1444.49478	0.60704
1442.56621	0.60528
1440.63765	0.60402
1438.70908	0.60347
1436.78052	0.60338
1434.85195	0.60212
1432.92339	0.60003
1430.99482	0.59840
1429.06626	0.59662
1427.13770	0.59461
1425.20913	0.59332
1423.28057	0.59244
1421.35200	0.59172
1419.42344	0.59154
1417.49487	0.59014
1415.56631	0.58702
1413.63774	0.58443
1411.70918	0.58274
1409.78062	0.58132
1407.85205	0.58012
1405.92349	0.57942
1403.99492	0.57843
1402.06636	0.57697
1400.13779	0.57620
1398.20923	0.57590
1396.28066	0.57512
1394.35210	0.57340
1392.42354	0.57087
1390.49497	0.56899
1388.56641	0.56836
1386.63784	0.56768
1384.70928	0.56594
1382.78071	0.56413
1380.85215	0.56293
1378.92358	0.56222
1376.99502	0.56186
1375.06646	0.56171
1373.13789	0.56078
1371.20933	0.55900
1369.28076	0.55759
1367.35220	0.55656
1365.42363	0.55592
1363.49507	0.55582
1361.56650	0.55502
1359.63794	0.55316
1357.70937	0.55169
1355.78081	0.55085
1353.85225	0.55002
1351.92368	0.54904
1349.99512	0.54818
1348.06655	0.54735
1346.13799	0.54637
1344.20942	0.54548
1342.28086	0.54514
1340.35229	0.54535
1338.42373	0.54493
1336.49517	0.54327
1334.56660	0.54145
1332.63804	0.54015
1330.70947	0.53929
1328.78091	0.53853
1326.85234	0.53763
1324.92378	0.53675
1322.99521	0.53609
1321.06665	0.53560
1319.13809	0.53504
1317.20952	0.53412
1315.28096	0.53306
1313.35239	0.53202
1311.42383	0.53098
1309.49526	0.53010
1307.56670	0.52935
1305.63813	0.52854
1303.70957	0.52771
1301.78101	0.52692
1299.85244	0.52615
1297.92388	0.52537
1295.99531	0.52457
1294.06675	0.52377
1292.13818	0.52297
1290.20962	0.52219
1288.28105	0.52148
1286.35249	0.52079
1284.42393	0.52007
1282.49536	0.51930
1280.56680	0.51844
1278.63823	0.51755
1276.70967	0.51675
1274.78110	0.51608
1272.85254	0.51554
1270.92397	0.51496
1268.99541	0.51419
1267.06685	0.51344
1265.13828	0.51280
1263.20972	0.51213
1261.28115	0.51134
1259.35259	0.51053
1257.42402	0.50975
1255.49546	0.50912
1253.56689	0.50862
1251.63833	0.50813
1249.70977	0.50768
1247.78120	0.50718
1245.85264	0.50662
1243.92407	0.50601
1241.99551	0.50525
1240.06694	0.50449
1238.13838	0.50383
1236.20981	0.50304
1234.28125	0.50205
1232.35269	0.50122
1230.42412	0.50064
1228.49556	0.49998
1226.56699	0.49905
1224.63843	0.49814
1222.70986	0.49736
1220.78130	0.49653
1218.85273	0.49554
1216.92417	0.49459
1214.99561	0.49380
1213.06704	0.49296
1211.13848	0.49197
1209.20991	0.49100
1207.28135	0.49012
1205.35278	0.48931
1203.42422	0.48853
1201.49565	0.48771
1199.56709	0.48680
1197.63853	0.48597
1195.70996	0.48518
1193.78140	0.48430
1191.85283	0.48334
1189.92427	0.48236
1187.99570	0.48139
1186.06714	0.48034
1184.13857	0.47921
1182.21001	0.47822
1180.28145	0.47733
1178.35288	0.47647
1176.42432	0.47570
1174.49575	0.47495
1172.56719	0.47406
1170.63862	0.47305
1168.71006	0.47206
1166.78149	0.47113
1164.85293	0.47026
1162.92437	0.46938
1160.99580	0.46855
1159.06724	0.46788
1157.13867	0.46721
1155.21011	0.46650
1153.28154	0.46585
1151.35298	0.46511
1149.42441	0.46410
1147.49585	0.46299
1145.56729	0.46204
1143.63872	0.46125
1141.71016	0.46046
1139.78159	0.45965
1137.85303	0.45895
1135.92446	0.45835
1133.99590	0.45764
1132.06733	0.45681
1130.13877	0.45595
1128.21021	0.45515
1126.28164	0.45445
1124.35308	0.45380
1122.42451	0.45326
1120.49595	0.45291
1118.56738	0.45244
1116.63882	0.45187
1114.71025	0.45149
1112.78169	0.45112
1110.85312	0.45043
1108.92456	0.44963
1106.99600	0.44909
1105.06743	0.44881
1103.13887	0.44850
1101.21030	0.44808
1099.28174	0.44761
1097.35317	0.44719
1095.42461	0.44695
1093.49604	0.44677
1091.56748	0.44653
1089.63892	0.44637
1087.71035	0.44623
1085.78179	0.44596
1083.85322	0.44576
1081.92466	0.44560
1079.99609	0.44518
1078.06753	0.44470
1076.13896	0.44459
1074.21040	0.44475
1072.28184	0.44499
1070.35327	0.44508
1068.42471	0.44493
1066.49614	0.44501
1064.56758	0.44541
1062.63901	0.44574
1060.71045	0.44595
1058.78188	0.44630
1056.85332	0.44678
1054.92476	0.44708
1052.99619	0.44727
1051.06763	0.44772
1049.13906	0.44837
1047.21050	0.44893
1045.28193	0.44930
1043.35337	0.44953
1041.42480	0.44986
1039.49624	0.45050
1037.56768	0.45133
1035.63911	0.45213
1033.71055	0.45286
1031.78198	0.45359
1029.85342	0.45441
1027.92485	0.45544
1025.99629	0.45667
1024.06772	0.45794
1022.13916	0.45917
1020.21060	0.46045
1018.28203	0.46173
1016.35347	0.46286
1014.42490	0.46390
1012.49634	0.46509
1010.56777	0.46644
1008.63921	0.46777
1006.71064	0.46906
1004.78208	0.47052
1002.85352	0.47224
1000.92495	0.47419
998.99639	0.47615
997.06782	0.47811
995.13926	0.48022
993.21069	0.48251
991.28213	0.48493
989.35356	0.48729
987.42500	0.48953
985.49644	0.49193
983.56787	0.49459
981.63931	0.49728
979.71074	0.49995
977.78218	0.50290
975.85361	0.50614
973.92505	0.50948
971.99648	0.51284
970.06792	0.51617
968.13936	0.51968
966.21079	0.52348
964.28223	0.52735
962.35366	0.53131
960.42510	0.53547
958.49653	0.53964
956.56797	0.54390
954.63940	0.54856
952.71084	0.55346
950.78228	0.55826
948.85371	0.56313
946.92515	0.56835
944.99658	0.57371
943.06802	0.57901
941.13945	0.58467
939.21089	0.59064
937.28232	0.59643
935.35376	0.60231
933.42520	0.60855
931.49663	0.61506
929.56807	0.62189
927.63950	0.62864
925.71094	0.63538
923.78237	0.64272
921.85381	0.64998
919.92524	0.65675
917.99668	0.66449
916.06812	0.67348
914.13955	0.68210
912.21099	0.69021
910.28242	0.69889
908.35386	0.70792
906.42529	0.71666
904.49673	0.72534
902.56816	0.73447
900.63960	0.74412
898.71104	0.75399
896.78247	0.76372
894.85391	0.77377
892.92534	0.78466
890.99678	0.79508
889.06821	0.80450
887.13965	0.81471
885.21108	0.82614
883.28252	0.83742
881.35396	0.84788
879.42539	0.85845
877.49683	0.86919
875.56826	0.87945
873.63970	0.89042
871.71113	0.90271
869.78257	0.91375
867.85400	0.92269
865.92544	0.93276
863.99687	0.94480
862.06831	0.95689
860.13975	0.96870
858.21118	0.97993
856.28262	0.99103
854.35405	1.00442
852.42549	1.01893
850.49692	1.03081
848.56836	1.04065
846.63979	1.05190
844.71123	1.06470
842.78267	1.07691
840.85410	1.08731
838.92554	1.09637
836.99697	1.10795
835.06841	1.12192
833.13984	1.13317
831.21128	1.14425
829.28271	1.16010
827.35415	1.17664
825.42559	1.18815
823.49702	1.19965
821.56846	1.21787
819.63989	1.23775
817.71133	1.24985
815.78276	1.25692
813.85420	1.26932
811.92563	1.28846
809.99707	1.30666
808.06851	1.31751
806.13994	1.32412
804.21138	1.33982
802.28281	1.38132
800.35425	1.42124
798.42568	1.41810
796.49712	1.41391
794.56855	1.45216
792.63999	1.53191
790.71143	1.59532
788.78286	1.62342
786.85430	1.69348
784.92573	1.74074
782.99717	1.66851
781.06860	1.60145
779.14004	1.54760
777.21147	1.53943
775.28291	1.60184
773.35435	1.61977
771.42578	1.56303
769.49722	1.52043
767.56865	1.49960
765.64009	1.51981
763.71152	1.54764
761.78296	1.48403
759.85439	1.42044
757.92583	1.41242
755.99727	1.41154
754.06870	1.48580
752.14014	1.64757
750.21157	1.70997
748.28301	1.44851
746.35444	1.19687
744.42588	1.10736
742.49731	1.13948
740.56875	1.16057
738.64019	1.06111
736.71162	0.93794
734.78306	0.89593
732.85449	0.81645
730.92593	0.64403
728.99736	0.49457
727.06880	0.44198
725.14023	0.49437
723.21167	0.59792
721.28311	0.67575
719.35454	0.58113
717.42598	0.30616
715.49741	0.10057
713.56885	0.04998
711.64028	0.08782
709.71172	0.09534
707.78315	0.02753
705.85459	0.04708
703.92603	0.27901
701.99746	0.73122
700.06890	0.85404
698.14033	0.51089
696.21177	0.35812
694.28320	0.30600
692.35464	0.33919
690.42607	0.47372
688.49751	0.51682
686.56895	0.45222
684.64038	0.40929
682.71182	0.38069
680.78325	0.39684
678.85469	0.48226
676.92612	0.53256
674.99756	0.51459
673.06899	0.59402
671.14043	0.68035
669.21187	0.44922
667.28330	0.27888
665.35474	0.30954
663.42617	0.50347
661.49761	0.46574
659.56904	0.33001
657.64048	0.27955
655.71191	0.21867
653.78335	0.15795
651.85479	0.17439
649.92622	0.23588
647.99766	0.27541
646.06909	0.27136
644.14053	0.23606
642.21196	0.23818
640.28340	0.27038
638.35483	0.27836
636.42627	0.29248
634.49771	0.32031
632.56914	0.35597
630.64058	0.36213
628.71201	0.28655
626.78345	0.26524
624.85488	0.33331
622.92632	0.43173
620.99775	0.36384
619.06919	0.25033
617.14062	0.26010
615.21206	0.40363
613.28350	0.53358
611.35493	0.51315
609.42637	0.42591
607.49780	0.32834
605.56924	0.24546
603.64067	0.15874
601.71211	0.10449
599.78354	0.11514
597.85498	0.17788
595.92642	0.26524
593.99785	0.31289
592.06929	0.27239
590.14072	0.23302
588.21216	0.28607
586.28359	0.41352
584.35503	0.42515
582.42646	0.33095
580.49790	0.23140
578.56934	0.13188
576.64077	0.09553
574.71221	0.13125
572.78364	0.17881
570.85508	0.21919
568.92651	0.28152
566.99795	0.27497
565.06938	0.19921
563.14082	0.20044
561.21226	0.27099
559.28369	0.28163
557.35513	0.22397
555.42656	0.18676
553.49800	0.14710
551.56943	0.10847
549.64087	0.08945
547.71230	0.07954
545.78374	0.08966
543.85518	0.12750
541.92661	0.16428
539.99805	0.18624
538.06948	0.21419
536.14092	0.24739
534.21235	0.22489
532.28379	0.18455
530.35522	0.18754
528.42666	0.20661
526.49810	0.19174
524.56953	0.16963
522.64097	0.18662
520.71240	0.23271
518.78384	0.27194
516.85527	0.28728
514.92671	0.28774
512.99814	0.31303
511.06958	0.32673
509.14102	0.22932
507.21245	0.13162
505.28389	0.12265
503.35532	0.15916
501.42676	0.18940
499.49819	0.20449
