3997.91411	0.06858
3995.98555	0.06898
3994.05698	0.06966
3992.12842	0.07068
3990.19985	0.07135
3988.27129	0.07141
3986.34272	0.07113
3984.41416	0.07091
3982.48560	0.07110
3980.55703	0.07159
3978.62847	0.07198
3976.69990	0.07233
3974.77134	0.07279
3972.84277	0.07308
3970.91421	0.07304
3968.98564	0.07294
3967.05708	0.07286
3965.12852	0.07280
3963.19995	0.07294
3961.27139	0.07335
3959.34282	0.07381
3957.41426	0.07405
3955.48569	0.07399
3953.55713	0.07398
3951.62856	0.07434
3949.70000	0.07508
3947.77144	0.07562
3945.84287	0.07530
3943.91431	0.07496
3941.98574	0.07517
3940.05718	0.07486
3938.12861	0.07403
3936.20005	0.07352
3934.27148	0.07395
3932.34292	0.07533
3930.41436	0.07651
3928.48579	0.07642
3926.55723	0.07589
3924.62866	0.07613
3922.70010	0.07650
3920.77153	0.07613
3918.84297	0.07593
3916.91440	0.07615
3914.98584	0.07565
3913.05728	0.07426
3911.12871	0.07317
3909.20015	0.07295
3907.27158	0.07386
3905.34302	0.07632
3903.41445	0.07955
3901.48589	0.08120
3899.55732	0.08069
3897.62876	0.07891
3895.70020	0.07692
3893.77163	0.07642
3891.84307	0.07769
3889.91450	0.07823
3887.98594	0.07716
3886.05737	0.07716
3884.12881	0.07835
3882.20024	0.07889
3880.27168	0.07889
3878.34312	0.07790
3876.41455	0.07690
3874.48599	0.07829
3872.55742	0.08122
3870.62886	0.08316
3868.70029	0.08332
3866.77173	0.08238
3864.84316	0.08262
3862.91460	0.08328
3860.98604	0.08187
3859.05747	0.08040
3857.12891	0.08105
3855.20034	0.08373
3853.27178	0.08825
3851.34321	0.09013
3849.41465	0.08656
3847.48608	0.08327
3845.55752	0.08240
3843.62896	0.08382
3841.70039	0.08671
3839.77183	0.09040
3837.84326	0.09355
3835.91470	0.09344
3833.98613	0.09151
3832.05757	0.09034
3830.12900	0.08937
3828.20044	0.08888
3826.27187	0.08998
3824.34331	0.09183
3822.41475	0.09436
3820.48618	0.09826
3818.55762	0.09982
3816.62905	0.09946
3814.70049	0.09913
3812.77192	0.09689
3810.84336	0.09501
3808.91479	0.09595
3806.98623	0.09928
3805.05767	0.10228
3803.12910	0.10415
3801.20054	0.10694
3799.27197	0.10866
3797.34341	0.10807
3795.41484	0.10706
3793.48628	0.10566
3791.55771	0.10507
3789.62915	0.10601
3787.70059	0.10787
3785.77202	0.11038
3783.84346	0.11273
3781.91489	0.11410
3779.98633	0.11565
3778.05776	0.11761
3776.12920	0.11830
3774.20063	0.11861
3772.27207	0.12031
3770.34351	0.12380
3768.41494	0.12749
3766.48638	0.12979
3764.55781	0.13155
3762.62925	0.13274
3760.70068	0.13453
3758.77212	0.13846
3756.84355	0.14226
3754.91499	0.14442
3752.98643	0.14784
3751.05786	0.15461
3749.12930	0.16149
3747.20073	0.16382
3745.27217	0.16552
3743.34360	0.16937
3741.41504	0.17305
3739.48647	0.17663
3737.55791	0.18260
3735.62935	0.19182
3733.70078	0.20097
3731.77222	0.20523
3729.84365	0.20735
3727.91509	0.21081
3725.98652	0.21678
3724.05796	0.22368
3722.12939	0.22935
3720.20083	0.23392
3718.27227	0.23765
3716.34370	0.24163
3714.41514	0.24784
3712.48657	0.25934
3710.55801	0.27761
3708.62944	0.29403
3706.70088	0.30384
3704.77231	0.31364
3702.84375	0.32705
3700.91519	0.34414
3698.98662	0.36168
3697.05806	0.37855
3695.12949	0.39734
3693.20093	0.41817
3691.27236	0.44173
3689.34380	0.47137
3687.41523	0.50462
3685.48667	0.53201
3683.55811	0.55628
3681.62954	0.58415
3679.70098	0.61717
3677.77241	0.65277
3675.84385	0.69449
3673.91528	0.74868
3671.98672	0.79202
3670.05815	0.83101
3668.12959	0.88398
3666.20103	0.93047
3664.27246	0.96920
3662.34390	1.01224
3660.41533	1.05998
3658.48677	1.10801
3656.55820	1.15951
3654.62964	1.21637
3652.70107	1.26406
3650.77251	1.30715
3648.84395	1.36807
3646.91538	1.43904
3644.98682	1.48649
3643.05825	1.52301
3641.12969	1.56249
3639.20112	1.60696
3637.27256	1.65240
3635.34399	1.69751
3633.41543	1.74319
3631.48687	1.78647
3629.55830	1.83063
3627.62974	1.88677
3625.70117	1.93627
3623.77261	1.96829
3621.84404	1.99970
3619.91548	2.03739
3617.98691	2.08483
3616.05835	2.13014
3614.12979	2.16627
3612.20122	2.20398
3610.27266	2.24253
3608.34409	2.28232
3606.41553	2.32512
3604.48696	2.36412
3602.55840	2.39935
3600.62983	2.43847
3598.70127	2.48068
3596.77271	2.52158
3594.84414	2.56316
3592.91558	2.60533
3590.98701	2.64380
3589.05845	2.67929
3587.12988	2.72320
3585.20132	2.77206
3583.27275	2.81127
3581.34419	2.84661
3579.41562	2.88576
3577.48706	2.92783
3575.55850	2.96905
3573.62993	3.01034
3571.70137	3.05213
3569.77280	3.09466
3567.84424	3.14112
3565.91567	3.19586
3563.98711	3.24465
3562.05854	3.28069
3560.12998	3.31749
3558.20142	3.36115
3556.27285	3.40862
3554.34429	3.45519
3552.41572	3.50201
3550.48716	3.54741
3548.55859	3.59033
3546.63003	3.63652
3544.70146	3.68795
3542.77290	3.73578
3540.84434	3.77643
3538.91577	3.81736
3536.98721	3.86344
3535.05864	3.91455
3533.13008	3.96425
3531.20151	4.01186
3529.27295	4.06237
3527.34438	4.11528
3525.41582	4.16387
3523.48726	4.20843
3521.55869	4.25598
3519.63013	4.30539
3517.70156	4.35285
3515.77300	4.39593
3513.84443	4.43638
3511.91587	4.48023
3509.98730	4.53330
3508.05874	4.59199
3506.13018	4.64382
3504.20161	4.68733
3502.27305	4.73210
3500.34448	4.78219
3498.41592	4.83104
3496.48735	4.87700
3494.55879	4.92329
3492.63022	4.96851
3490.70166	5.01245
3488.77310	5.05641
3486.84453	5.10216
3484.91597	5.15369
3482.98740	5.20638
3481.05884	5.25414
3479.13027	5.30022
3477.20171	5.34799
3475.27314	5.39793
3473.34458	5.44888
3471.41602	5.49682
3469.48745	5.54252
3467.55889	5.59093
3465.63032	5.64359
3463.70176	5.69775
3461.77319	5.74532
3459.84463	5.78942
3457.91606	5.83970
3455.98750	5.89373
3454.05894	5.93818
3452.13037	5.97663
3450.20181	6.02824
3448.27324	6.08420
3446.34468	6.13423
3444.41611	6.18998
3442.48755	6.25044
3440.55898	6.29837
3438.63042	6.34256
3436.70186	6.39232
3434.77329	6.43753
3432.84473	6.48264
3430.91616	6.53734
3428.98760	6.60364
3427.05903	6.65900
3425.13047	6.69500
3423.20190	6.71988
3421.27334	6.73661
3419.34478	6.77650
3417.41621	6.86151
3415.48765	6.94265
3413.55908	6.97670
3411.63052	6.98821
3409.70195	7.00871
3407.77339	7.06358
3405.84482	7.13763
3403.91626	7.20077
3401.98770	7.25212
3400.05913	7.30234
3398.13057	7.32605
3396.20200	7.33622
3394.27344	7.39797
3392.34487	7.46298
3390.41631	7.48795
3388.48774	7.48260
3386.55918	7.47166
3384.63062	7.49802
3382.70205	7.55905
3380.77349	7.63361
3378.84492	7.69153
3376.91636	7.69771
3374.98779	7.69175
3373.05923	7.73143
3371.13066	7.73509
3369.20210	7.69586
3367.27354	7.69400
3365.34497	7.72078
3363.41641	7.79221
3361.48784	7.91944
3359.55928	7.99813
3357.63071	7.95501
3355.70215	7.89050
3353.77358	7.88082
3351.84502	7.90685
3349.91646	7.92206
3347.98789	7.93962
3346.05933	7.95917
3344.13076	7.97669
3342.20220	7.99794
3340.27363	7.97101
3338.34507	7.95733
3336.41650	7.99477
3334.48794	8.02454
3332.55937	8.05382
3330.63081	8.09756
3328.70225	8.09223
3326.77368	8.06671
3324.84512	8.12225
3322.91655	8.20092
3320.98799	8.16247
3319.05942	8.05349
3317.13086	8.00327
3315.20229	8.01269
3313.27373	8.10969
3311.34517	8.17733
3309.41660	8.03637
3307.48804	7.92243
3305.55947	7.99649
3303.63091	8.12197
3301.70234	8.15919
3299.77378	8.12789
3297.84521	8.08517
3295.91665	8.10572
3293.98809	8.14692
3292.05952	8.12934
3290.13096	8.12063
3288.20239	8.14934
3286.27383	8.12513
3284.34526	8.04437
3282.41670	8.02873
3280.48813	8.01750
3278.55957	7.98943
3276.63101	8.07812
3274.70244	8.24022
3272.77388	8.29875
3270.84531	8.24285
3268.91675	8.20474
3266.98818	8.20604
3265.05962	8.26475
3263.13105	8.36367
3261.20249	8.34219
3259.27393	8.21118
3257.34536	8.15323
3255.41680	8.19444
3253.48823	8.20781
3251.55967	8.18509
3249.63110	8.27565
3247.70254	8.39455
3245.77397	8.27459
3243.84541	8.07010
3241.91685	7.99012
3239.98828	8.03973
3238.05972	8.12668
3236.13115	8.09808
3234.20259	8.01137
3232.27402	7.99115
3230.34546	8.03639
3228.41689	8.13957
3226.48833	8.23133
3224.55977	8.18925
3222.63120	8.05931
3220.70264	7.95788
3218.77407	7.94548
3216.84551	8.01493
3214.91694	8.06433
3212.98838	8.02226
3211.05981	7.91116
3209.13125	7.76679
3207.20269	7.65885
3205.27412	7.64297
3203.34556	7.67726
3201.41699	7.68868
3199.48843	7.68319
3197.55986	7.70887
3195.63130	7.73723
3193.70273	7.68660
3191.77417	7.56781
3189.84561	7.46274
3187.91704	7.39895
3185.98848	7.36103
3184.05991	7.33449
3182.13135	7.29660
3180.20278	7.24523
3178.27422	7.19077
3176.34565	7.14084
3174.41709	7.10459
3172.48853	7.04941
3170.55996	6.95586
3168.63140	6.86652
3166.70283	6.80165
3164.77427	6.75015
3162.84570	6.70335
3160.91714	6.64243
3158.98857	6.55654
3157.06001	6.47125
3155.13145	6.40826
3153.20288	6.35527
3151.27432	6.30958
3149.34575	6.27272
3147.41719	6.22764
3145.48862	6.15808
3143.56006	6.06944
3141.63149	5.98435
3139.70293	5.90254
3137.77437	5.81638
3135.84580	5.73849
3133.91724	5.67282
3131.98867	5.60456
3130.06011	5.53422
3128.13154	5.47059
3126.20298	5.40515
3124.27441	5.33336
3122.34585	5.25564
3120.41729	5.17659
3118.48872	5.10769
3116.56016	5.04602
3114.63159	4.98147
3112.70303	4.91435
3110.77446	4.84794
3108.84590	4.78049
3106.91733	4.70780
3104.98877	4.63130
3103.06021	4.55981
3101.13164	4.49790
3099.20308	4.44150
3097.27451	4.38306
3095.34595	4.31723
3093.41738	4.24596
3091.48882	4.17731
3089.56025	4.11457
3087.63169	4.05269
3085.70312	3.98942
3083.77456	3.92750
3081.84600	3.86797
3079.91743	3.80996
3077.98887	3.75185
3076.06030	3.69165
3074.13174	3.63071
3072.20317	3.57203
3070.27461	3.51585
3068.34604	3.46108
3066.41748	3.40600
3064.48892	3.34971
3062.56035	3.29412
3060.63179	3.24086
3058.70322	3.18902
3056.77466	3.13718
3054.84609	3.08492
3052.91753	3.03317
3050.98896	2.98280
3049.06040	2.93331
3047.13184	2.88423
3045.20327	2.83559
3043.27471	2.78808
3041.34614	2.74178
3039.41758	2.69528
3037.48901	2.64843
3035.56045	2.60257
3033.63188	2.55780
3031.70332	2.51334
3029.77476	2.46931
3027.84619	2.42600
3025.91763	2.38355
3023.98906	2.34207
3022.06050	2.30173
3020.13193	2.26220
3018.20337	2.22262
3016.27480	2.18306
3014.34624	2.14465
3012.41768	2.10721
3010.48911	2.06934
3008.56055	2.03155
3006.63198	1.99550
3004.70342	1.96102
3002.77485	1.92671
3000.84629	1.89253
2998.91772	1.85938
2996.98916	1.82746
2995.06060	1.79640
2993.13203	1.76527
2991.20347	1.73383
2989.27490	1.70322
2987.34634	1.67388
2985.41777	1.64502
2983.48921	1.61612
2981.56064	1.58735
2979.63208	1.55922
2977.70352	1.53194
2975.77495	1.50501
2973.84639	1.47792
2971.91782	1.45110
2969.98926	1.42532
2968.06069	1.40004
2966.13213	1.37429
2964.20356	1.34862
2962.27500	1.32368
2960.34644	1.29927
2958.41787	1.27514
2956.48931	1.25134
2954.56074	1.22821
2952.63218	1.20554
2950.70361	1.18273
2948.77505	1.16018
2946.84648	1.13850
2944.91792	1.11736
2942.98936	1.09601
2941.06079	1.07433
2939.13223	1.05239
2937.20366	1.03041
2935.27510	1.00888
2933.34653	0.98767
2931.41797	0.96627
2929.48940	0.94487
2927.56084	0.92403
2925.63228	0.90402
2923.70371	0.88548
2921.77515	0.86912
2919.84658	0.85458
2917.91802	0.84102
2915.98945	0.82809
2914.06089	0.81584
2912.13232	0.80404
2910.20376	0.79192
2908.27520	0.77933
2906.34663	0.76694
2904.41807	0.75469
2902.48950	0.74216
2900.56094	0.72976
2898.63237	0.71772
2896.70381	0.70595
2894.77524	0.69468
2892.84668	0.68390
2890.91812	0.67321
2888.98955	0.66240
2887.06099	0.65164
2885.13242	0.64132
2883.20386	0.63121
2881.27529	0.62097
2879.34673	0.61102
2877.41816	0.60125
2875.48960	0.59124
2873.56104	0.58132
2871.63247	0.57133
2869.70391	0.56064
2867.77534	0.54948
2865.84678	0.53840
2863.91821	0.52739
2861.98965	0.51633
2860.06108	0.50518
2858.13252	0.49390
2856.20396	0.48279
2854.27539	0.47267
2852.34683	0.46406
2850.41826	0.45694
2848.48970	0.45118
2846.56113	0.44631
2844.63257	0.44179
2842.70400	0.43736
2840.77544	0.43292
2838.84687	0.42845
2836.91831	0.42384
2834.98975	0.41883
2833.06118	0.41340
2831.13262	0.40792
2829.20405	0.40257
2827.27549	0.39717
2825.34692	0.39164
2823.41836	0.38619
2821.48979	0.38088
2819.56123	0.37555
2817.63267	0.37008
2815.70410	0.36463
2813.77554	0.35951
2811.84697	0.35464
2809.91841	0.34969
2807.98984	0.34464
2806.06128	0.33964
2804.13271	0.33473
2802.20415	0.32983
2800.27559	0.32500
2798.34702	0.32043
2796.41846	0.31606
2794.48989	0.31177
2792.56133	0.30757
2790.63276	0.30333
2788.70420	0.29903
2786.77563	0.29497
2784.84707	0.29110
2782.91851	0.28723
2780.98994	0.28338
2779.06138	0.27962
2777.13281	0.27581
2775.20425	0.27207
2773.27568	0.26861
2771.34712	0.26521
2769.41855	0.26176
2767.48999	0.25839
2765.56143	0.25504
2763.63286	0.25168
2761.70430	0.24848
2759.77573	0.24552
2757.84717	0.24260
2755.91860	0.23959
2753.99004	0.23666
2752.06147	0.23392
2750.13291	0.23126
2748.20435	0.22867
2746.27578	0.22603
2744.34722	0.22323
2742.41865	0.22055
2740.49009	0.21814
2738.56152	0.21587
2736.63296	0.21369
2734.70439	0.21138
2732.77583	0.20881
2730.84727	0.20631
2728.91870	0.20408
2726.99014	0.20202
2725.06157	0.19998
2723.13301	0.19795
2721.20444	0.19587
2719.27588	0.19391
2717.34731	0.19217
2715.41875	0.19039
2713.49019	0.18857
2711.56162	0.18684
2709.63306	0.18514
2707.70449	0.18355
2705.77593	0.18205
2703.84736	0.18053
2701.91880	0.17904
2699.99023	0.17757
2698.06167	0.17619
2696.13311	0.17490
2694.20454	0.17364
2692.27598	0.17232
2690.34741	0.17092
2688.41885	0.16961
2686.49028	0.16845
2684.56172	0.16737
2682.63315	0.16633
2680.70459	0.16528
2678.77603	0.16415
2676.84746	0.16296
2674.91890	0.16179
2672.99033	0.16075
2671.06177	0.15989
2669.13320	0.15905
2667.20464	0.15808
2665.27607	0.15715
2663.34751	0.15628
2661.41895	0.15551
2659.49038	0.15497
2657.56182	0.15446
2655.63325	0.15376
2653.70469	0.15296
2651.77612	0.15228
2649.84756	0.15171
2647.91899	0.15113
2645.99043	0.15057
2644.06187	0.15014
2642.13330	0.14968
2640.20474	0.14908
2638.27617	0.14843
2636.34761	0.14772
2634.41904	0.14714
2632.49048	0.14686
2630.56191	0.14667
2628.63335	0.14644
2626.70479	0.14619
2624.77622	0.14602
2622.84766	0.14594
2620.91909	0.14579
2618.99053	0.14552
2617.06196	0.14525
2615.13340	0.14508
2613.20483	0.14496
2611.27627	0.14476
2609.34771	0.14458
2607.41914	0.14456
2605.49058	0.14455
2603.56201	0.14449
2601.63345	0.14453
2599.70488	0.14460
2597.77632	0.14453
2595.84775	0.14450
2593.91919	0.14471
2591.99062	0.14496
2590.06206	0.14508
2588.13350	0.14519
2586.20493	0.14537
2584.27637	0.14562
2582.34780	0.14594
2580.41924	0.14632
2578.49067	0.14665
2576.56211	0.14685
2574.63354	0.14706
2572.70498	0.14749
2570.77642	0.14801
2568.84785	0.14835
2566.91929	0.14860
2564.99072	0.14892
2563.06216	0.14931
2561.13359	0.14973
2559.20503	0.15026
2557.27646	0.15084
2555.34790	0.15138
2553.41934	0.15183
2551.49077	0.15227
2549.56221	0.15277
2547.63364	0.15334
2545.70508	0.15395
2543.77651	0.15457
2541.84795	0.15520
2539.91938	0.15595
2537.99082	0.15671
2536.06226	0.15728
2534.13369	0.15780
2532.20513	0.15850
2530.27656	0.15927
2528.34800	0.15997
2526.41943	0.16065
2524.49087	0.16139
2522.56230	0.16214
2520.63374	0.16288
2518.70518	0.16359
2516.77661	0.16430
2514.84805	0.16507
2512.91948	0.16588
2510.99092	0.16670
2509.06235	0.16757
2507.13379	0.16846
2505.20522	0.16930
2503.27666	0.17004
2501.34810	0.17073
2499.41953	0.17148
2497.49097	0.17238
2495.56240	0.17324
2493.63384	0.17404
2491.70527	0.17498
2489.77671	0.17594
2487.84814	0.17662
2485.91958	0.17723
2483.99102	0.17806
2482.06245	0.17907
2480.13389	0.18011
2478.20532	0.18109
2476.27676	0.18198
2474.34819	0.18283
2472.41963	0.18373
2470.49106	0.18465
2468.56250	0.18555
2466.63394	0.18640
2464.70537	0.18731
2462.77681	0.18841
2460.84824	0.18958
2458.91968	0.19065
2456.99111	0.19159
2455.06255	0.19244
2453.13398	0.19335
2451.20542	0.19433
2449.27686	0.19526
2447.34829	0.19605
2445.41973	0.19680
2443.49116	0.19768
2441.56260	0.19881
2439.63403	0.20002
2437.70547	0.20111
2435.77690	0.20214
2433.84834	0.20323
2431.91978	0.20434
2429.99121	0.20546
2428.06265	0.20647
2426.13408	0.20742
2424.20552	0.20842
2422.27695	0.20949
2420.34839	0.21059
2418.41982	0.21166
2416.49126	0.21266
2414.56270	0.21374
2412.63413	0.21495
2410.70557	0.21622
2408.77700	0.21746
2406.84844	0.21860
2404.91987	0.21979
2402.99131	0.22109
2401.06274	0.22225
2399.13418	0.22332
2397.20562	0.22449
2395.27705	0.22571
2393.34849	0.22697
2391.41992	0.22837
2389.49136	0.23000
2387.56279	0.23235
2385.63423	0.23627
2383.70566	0.24236
2381.77710	0.25066
2379.84854	0.26078
2377.91997	0.27246
2375.99141	0.28588
2374.06284	0.30124
2372.13428	0.31834
2370.20571	0.33658
2368.27715	0.35514
2366.34858	0.37305
2364.42002	0.38900
2362.49146	0.40111
2360.56289	0.40849
2358.63433	0.41033
2356.70576	0.40390
2354.77720	0.38967
2352.84863	0.37144
2350.92007	0.35286
2348.99150	0.34127
2347.06294	0.34174
2345.13437	0.35458
2343.20581	0.37195
2341.27725	0.38154
2339.34868	0.38258
2337.42012	0.38025
2335.49155	0.37821
2333.56299	0.37715
2331.63442	0.37646
2329.70586	0.37524
2327.77729	0.37255
2325.84873	0.36824
2323.92017	0.36314
2321.99160	0.35776
2320.06304	0.35184
2318.13447	0.34554
2316.20591	0.33997
2314.27734	0.33626
2312.34878	0.33439
2310.42021	0.33303
2308.49165	0.33087
2306.56309	0.32773
2304.63452	0.32449
2302.70596	0.32236
2300.77739	0.32156
2298.84883	0.32126
2296.92026	0.32100
2294.99170	0.32072
2293.06313	0.32050
2291.13457	0.32035
2289.20601	0.32025
2287.27744	0.32022
2285.34888	0.32029
2283.42031	0.32082
2281.49175	0.32231
2279.56318	0.32460
2277.63462	0.32709
2275.70605	0.32956
2273.77749	0.33195
2271.84893	0.33411
2269.92036	0.33607
2267.99180	0.33796
2266.06323	0.33982
2264.13467	0.34170
2262.20610	0.34359
2260.27754	0.34537
2258.34897	0.34701
2256.42041	0.34859
2254.49185	0.35032
2252.56328	0.35223
2250.63472	0.35408
2248.70615	0.35580
2246.77759	0.35767
2244.84902	0.35981
2242.92046	0.36197
2240.99189	0.36395
2239.06333	0.36587
2237.13477	0.36790
2235.20620	0.37002
2233.27764	0.37223
2231.34907	0.37441
2229.42051	0.37650
2227.49194	0.37859
2225.56338	0.38073
2223.63481	0.38296
2221.70625	0.38521
2219.77769	0.38739
2217.84912	0.38950
2215.92056	0.39164
2213.99199	0.39381
2212.06343	0.39594
2210.13486	0.39805
2208.20630	0.40016
2206.27773	0.40214
2204.34917	0.40410
2202.42061	0.40627
2200.49204	0.40852
2198.56348	0.41060
2196.63491	0.41257
2194.70635	0.41456
2192.77778	0.41651
2190.84922	0.41837
2188.92065	0.42018
2186.99209	0.42199
2185.06353	0.42378
2183.13496	0.42554
2181.20640	0.42724
2179.27783	0.42887
2177.34927	0.43047
2175.42070	0.43200
2173.49214	0.43344
2171.56357	0.43482
2169.63501	0.43623
2167.70645	0.43768
2165.77788	0.43909
2163.84932	0.44032
2161.92075	0.44136
2159.99219	0.44238
2158.06362	0.44341
2156.13506	0.44441
2154.20649	0.44539
2152.27793	0.44631
2150.34937	0.44717
2148.42080	0.44794
2146.49224	0.44849
2144.56367	0.44886
2142.63511	0.44927
2140.70654	0.44976
2138.77798	0.45019
2136.84941	0.45042
2134.92085	0.45054
2132.99229	0.45070
2131.06372	0.45086
2129.13516	0.45083
2127.20659	0.45054
2125.27803	0.45018
2123.34946	0.44984
2121.42090	0.44949
2119.49233	0.44909
2117.56377	0.44858
2115.63521	0.44794
2113.70664	0.44730
2111.77808	0.44666
2109.84951	0.44591
2107.92095	0.44504
2105.99238	0.44404
2104.06382	0.44296
2102.13525	0.44176
2100.20669	0.44045
2098.27812	0.43909
2096.34956	0.43777
2094.42100	0.43645
2092.49243	0.43500
2090.56387	0.43346
2088.63530	0.43182
2086.70674	0.43004
2084.77817	0.42821
2082.84961	0.42641
2080.92104	0.42459
2078.99248	0.42279
2077.06392	0.42094
2075.13535	0.41886
2073.20679	0.41664
2071.27822	0.41445
2069.34966	0.41236
2067.42109	0.41030
2065.49253	0.40819
2063.56396	0.40587
2061.63540	0.40345
2059.70684	0.40104
2057.77827	0.39859
2055.84971	0.39613
2053.92114	0.39369
2051.99258	0.39122
2050.06401	0.38868
2048.13545	0.38613
2046.20688	0.38358
2044.27832	0.38106
2042.34976	0.37856
2040.42119	0.37601
2038.49263	0.37330
2036.56406	0.37048
2034.63550	0.36772
2032.70693	0.36504
2030.77837	0.36235
2028.84980	0.35961
2026.92124	0.35687
2024.99268	0.35416
2023.06411	0.35145
2021.13555	0.34879
2019.20698	0.34628
2017.27842	0.34371
2015.34985	0.34089
2013.42129	0.33797
2011.49272	0.33517
2009.56416	0.33250
2007.63560	0.32989
2005.70703	0.32732
2003.77847	0.32474
2001.84990	0.32208
1999.92134	0.31939
1997.99277	0.31674
1996.06421	0.31423
1994.13564	0.31196
1992.20708	0.30976
1990.27852	0.30727
1988.34995	0.30467
1986.42139	0.30211
1984.49282	0.29959
1982.56426	0.29714
1980.63569	0.29479
1978.70713	0.29256
1976.77856	0.29030
1974.85000	0.28799
1972.92144	0.28580
1970.99287	0.28382
1969.06431	0.28206
1967.13574	0.28034
1965.20718	0.27822
1963.27861	0.27590
1961.35005	0.27385
1959.42148	0.27196
1957.49292	0.27011
1955.56436	0.26829
1953.63579	0.26646
1951.70723	0.26460
1949.77866	0.26286
1947.85010	0.26134
1945.92153	0.26008
1943.99297	0.25901
1942.06440	0.25770
1940.13584	0.25581
1938.20728	0.25386
1936.27871	0.25230
1934.35015	0.25102
1932.42158	0.24985
1930.49302	0.24863
1928.56445	0.24739
1926.63589	0.24632
1924.70732	0.24565
1922.77876	0.24510
1920.85020	0.24421
1918.92163	0.24331
1916.99307	0.24238
1915.06450	0.24104
1913.13594	0.23990
1911.20737	0.23942
1909.27881	0.23906
1907.35024	0.23822
1905.42168	0.23714
1903.49312	0.23629
1901.56455	0.23566
1899.63599	0.23507
1897.70742	0.23465
1895.77886	0.23439
1893.85029	0.23410
1891.92173	0.23386
1889.99316	0.23391
1888.06460	0.23366
1886.13604	0.23301
1884.20747	0.23255
1882.27891	0.23234
1880.35034	0.23218
1878.42178	0.23197
1876.49321	0.23173
1874.56465	0.23159
1872.63608	0.23186
1870.70752	0.23288
1868.77896	0.23442
1866.85039	0.23475
1864.92183	0.23370
1862.99326	0.23302
1861.06470	0.23312
1859.13613	0.23350
1857.20757	0.23382
1855.27900	0.23422
1853.35044	0.23468
1851.42187	0.23521
1849.49331	0.23595
1847.56475	0.23705
1845.63618	0.23847
1843.70762	0.23969
1841.77905	0.23992
1839.85049	0.23980
1837.92192	0.24031
1835.99336	0.24113
1834.06479	0.24204
1832.13623	0.24343
1830.20767	0.24558
1828.27910	0.24726
1826.35054	0.24801
1824.42197	0.24895
1822.49341	0.24976
1820.56484	0.25056
1818.63628	0.25177
1816.70771	0.25333
1814.77915	0.25500
1812.85059	0.25701
1810.92202	0.25938
1808.99346	0.26145
1807.06489	0.26307
1805.13633	0.26478
1803.20776	0.26717
1801.27920	0.27010
1799.35063	0.27303
1797.42207	0.27539
1795.49351	0.27783
1793.56494	0.28112
1791.63638	0.28503
1789.70781	0.28778
1787.77925	0.28956
1785.85068	0.29241
1783.92212	0.29619
1781.99355	0.30037
1780.06499	0.30469
1778.13643	0.30881
1776.20786	0.31282
1774.27930	0.31783
1772.35073	0.32464
1770.42217	0.33080
1768.49360	0.33501
1766.56504	0.33920
1764.63647	0.34401
1762.70791	0.34983
1760.77935	0.35718
1758.85078	0.36380
1756.92222	0.37034
1754.99365	0.37728
1753.06509	0.38367
1751.13652	0.39202
1749.20796	0.40275
1747.27939	0.41266
1745.35083	0.42093
1743.42227	0.43003
1741.49370	0.44056
1739.56514	0.45322
1737.63657	0.46593
1735.70801	0.47747
1733.77944	0.49523
1731.85088	0.51547
1729.92231	0.53027
1727.99375	0.54503
1726.06519	0.56124
1724.13662	0.57950
1722.20806	0.59953
1720.27949	0.61844
1718.35093	0.64150
1716.42236	0.67508
1714.49380	0.70477
1712.56523	0.72776
1710.63667	0.75072
1708.70811	0.77641
1706.77954	0.80622
1704.85098	0.84170
1702.92241	0.87294
1700.99385	0.90383
1699.06528	0.95028
1697.13672	0.99273
1695.20815	1.03508
1693.27959	1.07563
1691.35103	1.10879
1689.42246	1.14822
1687.49390	1.19025
1685.56533	1.23058
1683.63677	1.29241
1681.70820	1.35581
1679.77964	1.39534
1677.85107	1.43332
1675.92251	1.47812
1673.99395	1.53383
1672.06538	1.58287
1670.13682	1.63101
1668.20825	1.69321
1666.27969	1.74330
1664.35112	1.78652
1662.42256	1.84119
1660.49399	1.90268
1658.56543	1.95054
1656.63687	1.98922
1654.70830	2.02542
1652.77974	2.08467
1650.85117	2.14199
1648.92261	2.16313
1646.99404	2.19039
1645.06548	2.22166
1643.13691	2.24201
1641.20835	2.25251
1639.27979	2.26125
1637.35122	2.26785
1635.42266	2.26844
1633.49409	2.26059
1631.56553	2.24796
1629.63696	2.23288
1627.70840	2.20608
1625.77983	2.17406
1623.85127	2.13523
1621.92271	2.08642
1619.99414	2.04090
1618.06558	1.99731
1616.13701	1.93597
1614.20845	1.87151
1612.27988	1.82209
1610.35132	1.77103
1608.42275	1.71536
1606.49419	1.66045
1604.56562	1.60978
1602.63706	1.56042
1600.70850	1.51231
1598.77993	1.46850
1596.85137	1.42740
1594.92280	1.38717
1592.99424	1.34797
1591.06567	1.31212
1589.13711	1.27919
1587.20854	1.24895
1585.27998	1.22070
1583.35142	1.19396
1581.42285	1.16963
1579.49429	1.14914
1577.56572	1.13112
1575.63716	1.10853
1573.70859	1.08753
1571.78003	1.07407
1569.85146	1.06067
1567.92290	1.04490
1565.99434	1.03226
1564.06577	1.02244
1562.13721	1.01505
1560.20864	1.01084
1558.28008	1.00584
1556.35151	0.99937
1554.42295	0.99418
1552.49438	0.98903
1550.56582	0.98362
1548.63726	0.97723
1546.70869	0.97039
1544.78013	0.96317
1542.85156	0.95491
1540.92300	0.94213
1538.99443	0.91916
1537.06587	0.90150
1535.13730	0.89049
1533.20874	0.87662
1531.28018	0.86090
1529.35161	0.84934
1527.42305	0.83926
1525.49448	0.82892
1523.56592	0.82004
1521.63735	0.81163
1519.70879	0.80215
1517.78022	0.79357
1515.85166	0.78381
1513.92310	0.77364
1511.99453	0.76553
1510.06597	0.75924
1508.13740	0.75413
1506.20884	0.74400
1504.28027	0.73212
1502.35171	0.72511
1500.42314	0.71998
1498.49458	0.71524
1496.56602	0.70933
1494.63745	0.70264
1492.70889	0.69769
1490.78032	0.69426
1488.85176	0.68999
1486.92319	0.68444
1484.99463	0.67948
1483.06606	0.67572
1481.13750	0.67273
1479.20894	0.67030
1477.28037	0.66874
1475.35181	0.66807
1473.42324	0.66759
1471.49468	0.66485
1469.56611	0.66027
1467.63755	0.65672
1465.70898	0.65459
1463.78042	0.65289
1461.85186	0.65142
1459.92329	0.65127
1457.99473	0.65249
1456.06616	0.65199
1454.13760	0.64855
1452.20903	0.64549
1450.28047	0.64318
1448.35190	0.64134
1446.42334	0.63917
1444.49478	0.63662
1442.56621	0.63426
1440.63765	0.63226
1438.70908	0.63080
1436.78052	0.62918
1434.85195	0.62648
1432.92339	0.62400
1430.99482	0.62258
1429.06626	0.62162
1427.13770	0.62075
1425.20913	0.62048
1423.28057	0.62075
1421.35200	0.62106
1419.42344	0.62141
1417.49487	0.62080
1415.56631	0.61893
1413.63774	0.61748
1411.70918	0.61676
1409.78062	0.61641
1407.85205	0.61639
1405.92349	0.61687
1403.99492	0.61733
1402.06636	0.61706
1400.13779	0.61649
1398.20923	0.61565
1396.28066	0.61397
1394.35210	0.61104
1392.42354	0.60737
1390.49497	0.60424
1388.56641	0.60173
1386.63784	0.59867
1384.70928	0.59471
1382.78071	0.59096
1380.85215	0.58780
1378.92358	0.58516
1376.99502	0.58324
1375.06646	0.58218
1373.13789	0.58120
1371.20933	0.57997
1369.28076	0.57893
1367.35220	0.57786
1365.42363	0.57670
1363.49507	0.57586
1361.56650	0.57492
1359.63794	0.57339
1357.70937	0.57191
1355.78081	0.57079
1353.85225	0.56989
1351.92368	0.56917
1349.99512	0.56860
1348.06655	0.56795
1346.13799	0.56708
1344.20942	0.56627
1342.28086	0.56584
1340.35229	0.56577
1338.42373	0.56536
1336.49517	0.56426
1334.56660	0.56320
1332.63804	0.56268
1330.70947	0.56254
1328.78091	0.56254
1326.85234	0.56258
1324.92378	0.56263
1322.99521	0.56272
1321.06665	0.56294
1319.13809	0.56319
1317.20952	0.56309
1315.28096	0.56263
1313.35239	0.56205
1311.42383	0.56136
1309.49526	0.56055
1307.56670	0.55970
1305.63813	0.55897
1303.70957	0.55839
1301.78101	0.55782
1299.85244	0.55716
1297.92388	0.55628
1295.99531	0.55514
1294.06675	0.55398
1292.13818	0.55288
1290.20962	0.55179
1288.28105	0.55080
1286.35249	0.54992
1284.42393	0.54911
1282.49536	0.54823
1280.56680	0.54726
1278.63823	0.54637
1276.70967	0.54560
1274.78110	0.54490
1272.85254	0.54431
1270.92397	0.54377
1268.99541	0.54317
1267.06685	0.54255
1265.13828	0.54191
1263.20972	0.54127
1261.28115	0.54074
1259.35259	0.54018
1257.42402	0.53962
1255.49546	0.53931
1253.56689	0.53916
1251.63833	0.53906
1249.70977	0.53904
1247.78120	0.53892
1245.85264	0.53864
1243.92407	0.53828
1241.99551	0.53781
1240.06694	0.53702
1238.13838	0.53595
1236.20981	0.53474
1234.28125	0.53339
1232.35269	0.53184
1230.42412	0.53028
1228.49556	0.52889
1226.56699	0.52773
1224.63843	0.52673
1222.70986	0.52572
1220.78130	0.52465
1218.85273	0.52361
1216.92417	0.52248
1214.99561	0.52139
1213.06704	0.52064
1211.13848	0.52015
1209.20991	0.51959
1207.28135	0.51886
1205.35278	0.51812
1203.42422	0.51756
1201.49565	0.51704
1199.56709	0.51633
1197.63853	0.51555
1195.70996	0.51490
1193.78140	0.51438
1191.85283	0.51396
1189.92427	0.51350
1187.99570	0.51298
1186.06714	0.51269
1184.13857	0.51277
1182.21001	0.51312
1180.28145	0.51364
1178.35288	0.51427
1176.42432	0.51500
1174.49575	0.51572
1172.56719	0.51624
1170.63862	0.51646
1168.71006	0.51637
1166.78149	0.51621
1164.85293	0.51621
1162.92437	0.51618
1160.99580	0.51588
1159.06724	0.51532
1157.13867	0.51460
1155.21011	0.51369
1153.28154	0.51247
1151.35298	0.51095
1149.42441	0.50914
1147.49585	0.50706
1145.56729	0.50482
1143.63872	0.50262
1141.71016	0.50061
1139.78159	0.49872
1137.85303	0.49706
1135.92446	0.49582
1133.99590	0.49487
1132.06733	0.49396
1130.13877	0.49312
1128.21021	0.49241
1126.28164	0.49157
1124.35308	0.49058
1122.42451	0.48986
1120.49595	0.48928
1118.56738	0.48861
1116.63882	0.48824
1114.71025	0.48831
1112.78169	0.48838
1110.85312	0.48840
1108.92456	0.48875
1106.99600	0.48967
1105.06743	0.49104
1103.13887	0.49254
1101.21030	0.49416
1099.28174	0.49632
1097.35317	0.49909
1095.42461	0.50209
1093.49604	0.50539
1091.56748	0.50940
1089.63892	0.51421
1087.71035	0.51980
1085.78179	0.52606
1083.85322	0.53262
1081.92466	0.53893
1079.99609	0.54426
1078.06753	0.54771
1076.13896	0.54860
1074.21040	0.54656
1072.28184	0.54207
1070.35327	0.53617
1068.42471	0.52968
1066.49614	0.52312
1064.56758	0.51688
1062.63901	0.51125
1060.71045	0.50636
1058.78188	0.50203
1056.85332	0.49803
1054.92476	0.49438
1052.99619	0.49137
1051.06763	0.48895
1049.13906	0.48676
1047.21050	0.48474
1045.28193	0.48312
1043.35337	0.48197
1041.42480	0.48114
1039.49624	0.48037
1037.56768	0.47945
1035.63911	0.47860
1033.71055	0.47829
1031.78198	0.47829
1029.85342	0.47813
1027.92485	0.47778
1025.99629	0.47737
1024.06772	0.47709
1022.13916	0.47714
1020.21060	0.47756
1018.28203	0.47821
1016.35347	0.47897
1014.42490	0.48002
1012.49634	0.48134
1010.56777	0.48272
1008.63921	0.48431
1006.71064	0.48621
1004.78208	0.48824
1002.85352	0.49039
1000.92495	0.49306
998.99639	0.49642
997.06782	0.50009
995.13926	0.50377
993.21069	0.50743
991.28213	0.51086
989.35356	0.51355
987.42500	0.51519
985.49644	0.51610
983.56787	0.51693
981.63931	0.51798
979.71074	0.51926
977.78218	0.52081
975.85361	0.52263
973.92505	0.52479
971.99648	0.52758
970.06792	0.53117
968.13936	0.53520
966.21079	0.53932
964.28223	0.54371
962.35366	0.54857
960.42510	0.55362
958.49653	0.55865
956.56797	0.56391
954.63940	0.56967
952.71084	0.57565
950.78228	0.58158
948.85371	0.58773
946.92515	0.59411
944.99658	0.60048
943.06802	0.60682
941.13945	0.61308
939.21089	0.61930
937.28232	0.62528
935.35376	0.63069
933.42520	0.63597
931.49663	0.64145
929.56807	0.64661
927.63950	0.65157
925.71094	0.65724
923.78237	0.66374
921.85381	0.67031
919.92524	0.67658
917.99668	0.68293
916.06812	0.68982
914.13955	0.69730
912.21099	0.70513
910.28242	0.71328
908.35386	0.72181
906.42529	0.73019
904.49673	0.73809
902.56816	0.74651
900.63960	0.75592
898.71104	0.76495
896.78247	0.77319
894.85391	0.78254
892.92534	0.79378
890.99678	0.80465
889.06821	0.81378
887.13965	0.82316
885.21108	0.83474
883.28252	0.84731
881.35396	0.85916
879.42539	0.87036
877.49683	0.88114
875.56826	0.89255
873.63970	0.90457
871.71113	0.91592
869.78257	0.92704
867.85400	0.93849
865.92544	0.94964
863.99687	0.95988
862.06831	0.97026
860.13975	0.98173
858.21118	0.99412
856.28262	1.00650
854.35405	1.01825
852.42549	1.03027
850.49692	1.04221
848.56836	1.05371
846.63979	1.06625
844.71123	1.07970
842.78267	1.09285
840.85410	1.10486
838.92554	1.11496
836.99697	1.12516
835.06841	1.13578
833.13984	1.14211
831.21128	1.14707
829.28271	1.15996
827.35415	1.17837
825.42559	1.19218
823.49702	1.19773
821.56846	1.19993
819.63989	1.21070
817.71133	1.22953
815.78276	1.24519
813.85420	1.25749
811.92563	1.26543
809.99707	1.26947
808.06851	1.27331
806.13994	1.27832
804.21138	1.29263
802.28281	1.31181
800.35425	1.31729
798.42568	1.31773
796.49712	1.33694
794.56855	1.36173
792.63999	1.36215
790.71143	1.35826
788.78286	1.36809
786.85430	1.36615
784.92573	1.35785
782.99717	1.36984
781.06860	1.38504
779.14004	1.40093
777.21147	1.47288
775.28291	1.60793
773.35435	1.69954
771.42578	1.63677
769.49722	1.48745
767.56865	1.36518
765.64009	1.29034
763.71152	1.26674
761.78296	1.28165
759.85439	1.33064
757.92583	1.37169
755.99727	1.33300
754.06870	1.30988
752.14014	1.40705
750.21157	1.52202
748.28301	1.40269
746.35444	1.33418
744.42588	1.28492
742.49731	1.09153
740.56875	0.92720
738.64019	0.83929
736.71162	0.75783
734.78306	0.65453
732.85449	0.58607
730.92593	0.56324
728.99736	0.50459
727.06880	0.35887
725.14023	0.26593
723.21167	0.33372
721.28311	0.39849
719.35454	0.32912
717.42598	0.28264
715.49741	0.25827
713.56885	0.23127
711.64028	0.23697
709.71172	0.25385
707.78315	0.18500
705.85459	0.07704
703.92603	0.04149
701.99746	0.04445
700.06890	0.11050
698.14033	0.20261
696.21177	0.19965
694.28320	0.21646
692.35464	0.36293
690.42607	0.44982
688.49751	0.41828
686.56895	0.41176
684.64038	0.43576
682.71182	0.43362
680.78325	0.37735
678.85469	0.32890
676.92612	0.34265
674.99756	0.33648
673.06899	0.20388
671.14043	0.12029
669.21187	0.17093
667.28330	0.26503
665.35474	0.36466
663.42617	0.47289
661.49761	0.45432
659.56904	0.33379
657.64048	0.28397
655.71191	0.29139
653.78335	0.28006
651.85479	0.23182
649.92622	0.16739
647.99766	0.15040
646.06909	0.22247
644.14053	0.27052
642.21196	0.25542
640.28340	0.27080
638.35483	0.30262
636.42627	0.29838
634.49771	0.30224
632.56914	0.29006
630.64058	0.25003
628.71201	0.24886
626.78345	0.25638
624.85488	0.25097
622.92632	0.26225
620.99775	0.34338
619.06919	0.51828
617.14062	0.49230
615.21206	0.31139
613.28350	0.20928
611.35493	0.15921
609.42637	0.13444
607.49780	0.13321
605.56924	0.14116
603.64067	0.16522
601.71211	0.22373
599.78354	0.29729
597.85498	0.29740
595.92642	0.30143
593.99785	0.36874
592.06929	0.38554
590.14072	0.27400
588.21216	0.17934
586.28359	0.12470
584.35503	0.11703
582.42646	0.19865
580.49790	0.38125
578.56934	0.42105
576.64077	0.19860
574.71221	0.06840
572.78364	0.09405
570.85508	0.21374
568.92651	0.27715
566.99795	0.22406
565.06938	0.17714
563.14082	0.17615
561.21226	0.21165
559.28369	0.22670
557.35513	0.21427
555.42656	0.20404
553.49800	0.19488
551.56943	0.18036
549.64087	0.17685
547.71230	0.19948
545.78374	0.26004
543.85518	0.32322
541.92661	0.24589
539.99805	0.11184
538.06948	0.05300
536.14092	0.07628
534.21235	0.12781
532.28379	0.16964
530.35522	0.21043
528.42666	0.27527
526.49810	0.31886
524.56953	0.27069
522.64097	0.20039
520.71240	0.14787
518.78384	0.12697
516.85527	0.16355
514.92671	0.22135
512.99814	0.21856
511.06958	0.18878
509.14102	0.16542
507.21245	0.15321
505.28389	0.14510
503.35532	0.12868
501.42676	0.11869
499.49819	0.12294
