3997.91411	0.07070
3995.98555	0.07146
3994.05698	0.07202
3992.12842	0.07221
3990.19985	0.07251
3988.27129	0.07290
3986.34272	0.07293
3984.41416	0.07289
3982.48560	0.07322
3980.55703	0.07380
3978.62847	0.07439
3976.69990	0.07489
3974.77134	0.07532
3972.84277	0.07562
3970.91421	0.07580
3968.98564	0.07583
3967.05708	0.07549
3965.12852	0.07507
3963.19995	0.07538
3961.27139	0.07647
3959.34282	0.07725
3957.41426	0.07706
3955.48569	0.07643
3953.55713	0.07608
3951.62856	0.07680
3949.70000	0.07858
3947.77144	0.07965
3945.84287	0.07886
3943.91431	0.07829
3941.98574	0.07915
3940.05718	0.07919
3938.12861	0.07784
3936.20005	0.07705
3934.27148	0.07783
3932.34292	0.07975
3930.41436	0.08118
3928.48579	0.08077
3926.55723	0.07986
3924.62866	0.08017
3922.70010	0.08035
3920.77153	0.07942
3918.84297	0.07932
3916.91440	0.08028
3914.98584	0.07991
3913.05728	0.07771
3911.12871	0.07585
3909.20015	0.07572
3907.27158	0.07755
3905.34302	0.08150
3903.41445	0.08627
3901.48589	0.08819
3899.55732	0.08659
3897.62876	0.08333
3895.70020	0.08025
3893.77163	0.07979
3891.84307	0.08179
3889.91450	0.08238
3887.98594	0.08072
3886.05737	0.08101
3884.12881	0.08329
3882.20024	0.08439
3880.27168	0.08471
3878.34312	0.08363
3876.41455	0.08163
3874.48599	0.08219
3872.55742	0.08488
3870.62886	0.08749
3868.70029	0.08910
3866.77173	0.08867
3864.84316	0.08865
3862.91460	0.08914
3860.98604	0.08713
3859.05747	0.08492
3857.12891	0.08550
3855.20034	0.08919
3853.27178	0.09591
3851.34321	0.09849
3849.41465	0.09257
3847.48608	0.08716
3845.55752	0.08560
3843.62896	0.08788
3841.70039	0.09259
3839.77183	0.09782
3837.84326	0.10178
3835.91470	0.10128
3833.98613	0.09750
3832.05757	0.09458
3830.12900	0.09341
3828.20044	0.09345
3826.27187	0.09464
3824.34331	0.09644
3822.41475	0.09944
3820.48618	0.10435
3818.55762	0.10626
3816.62905	0.10522
3814.70049	0.10362
3812.77192	0.10003
3810.84336	0.09735
3808.91479	0.09806
3806.98623	0.10189
3805.05767	0.10580
3803.12910	0.10849
3801.20054	0.11244
3799.27197	0.11465
3797.34341	0.11311
3795.41484	0.11095
3793.48628	0.10867
3791.55771	0.10740
3789.62915	0.10795
3787.70059	0.10985
3785.77202	0.11275
3783.84346	0.11538
3781.91489	0.11669
3779.98633	0.11855
3778.05776	0.12081
3776.12920	0.12064
3774.20063	0.11993
3772.27207	0.12172
3770.34351	0.12639
3768.41494	0.13130
3766.48638	0.13345
3764.55781	0.13416
3762.62925	0.13493
3760.70068	0.13751
3758.77212	0.14244
3756.84355	0.14651
3754.91499	0.14892
3752.98643	0.15325
3751.05786	0.16186
3749.12930	0.17003
3747.20073	0.17156
3745.27217	0.17272
3743.34360	0.17669
3741.41504	0.17918
3739.48647	0.18092
3737.55791	0.18611
3735.62935	0.19641
3733.70078	0.20677
3731.77222	0.20976
3729.84365	0.20957
3727.91509	0.21163
3725.98652	0.21746
3724.05796	0.22495
3722.12939	0.23089
3720.20083	0.23498
3718.27227	0.23807
3716.34370	0.24177
3714.41514	0.24825
3712.48657	0.26065
3710.55801	0.27966
3708.62944	0.29532
3706.70088	0.30409
3704.77231	0.31312
3702.84375	0.32604
3700.91519	0.34338
3698.98662	0.36095
3697.05806	0.37689
3695.12949	0.39491
3693.20093	0.41557
3691.27236	0.43968
3689.34380	0.47084
3687.41523	0.50445
3685.48667	0.52999
3683.55811	0.55250
3681.62954	0.57972
3679.70098	0.61322
3677.77241	0.65013
3675.84385	0.69397
3673.91528	0.74924
3671.98672	0.79087
3670.05815	0.82828
3668.12959	0.88013
3666.20103	0.92487
3664.27246	0.96201
3662.34390	1.00394
3660.41533	1.05078
3658.48677	1.09852
3656.55820	1.15054
3654.62964	1.20763
3652.70107	1.25484
3650.77251	1.29766
3648.84395	1.35890
3646.91538	1.42997
3644.98682	1.47664
3643.05825	1.51232
3641.12969	1.55164
3639.20112	1.59617
3637.27256	1.64140
3635.34399	1.68649
3633.41543	1.73224
3631.48687	1.77553
3629.55830	1.82096
3627.62974	1.87897
3625.70117	1.92763
3623.77261	1.95778
3621.84404	1.98868
3619.91548	2.02706
3617.98691	2.07452
3616.05835	2.11917
3614.12979	2.15552
3612.20122	2.19381
3610.27266	2.23241
3608.34409	2.27187
3606.41553	2.31465
3604.48696	2.35401
3602.55840	2.38971
3600.62983	2.42946
3598.70127	2.47137
3596.77271	2.51038
3594.84414	2.55039
3592.91558	2.59244
3590.98701	2.63186
3589.05845	2.66895
3587.12988	2.71366
3585.20132	2.76154
3583.27275	2.80009
3581.34419	2.83560
3579.41562	2.87473
3577.48706	2.91770
3575.55850	2.96179
3573.62993	3.00503
3571.70137	3.04573
3569.77280	3.08572
3567.84424	3.13092
3565.91567	3.18607
3563.98711	3.23514
3562.05854	3.27405
3560.12998	3.31574
3558.20142	3.36034
3556.27285	3.40327
3554.34429	3.44452
3552.41572	3.49007
3550.48716	3.53908
3548.55859	3.58571
3546.63003	3.63086
3544.70146	3.67780
3542.77290	3.72656
3540.84434	3.77492
3538.91577	3.82164
3536.98721	3.86707
3535.05864	3.91267
3533.13008	3.95848
3531.20151	4.00565
3529.27295	4.05308
3527.34438	4.10079
3525.41582	4.14764
3523.48726	4.19509
3521.55869	4.24762
3519.63013	4.30065
3517.70156	4.35091
3515.77300	4.39545
3513.84443	4.43517
3511.91587	4.47831
3509.98730	4.52728
3508.05874	4.57617
3506.13018	4.61855
3504.20161	4.65847
3502.27305	4.70989
3500.34448	4.77060
3498.41592	4.82164
3496.48735	4.86439
3494.55879	4.90931
3492.63022	4.95775
3490.70166	5.01044
3488.77310	5.06472
3486.84453	5.11218
3484.91597	5.15084
3482.98740	5.18680
3481.05884	5.22747
3479.13027	5.27187
3477.20171	5.31622
3475.27314	5.36937
3473.34458	5.43239
3471.41602	5.48889
3469.48745	5.53431
3467.55889	5.57998
3465.63032	5.63212
3463.70176	5.68900
3461.77319	5.74692
3459.84463	5.80629
3457.91606	5.86073
3455.98750	5.90365
3454.05894	5.94120
3452.13037	5.98077
3450.20181	6.02840
3448.27324	6.08319
3446.34468	6.12630
3444.41611	6.14860
3442.48755	6.18521
3440.55898	6.24709
3438.63042	6.30460
3436.70186	6.35267
3434.77329	6.41434
3432.84473	6.47666
3430.91616	6.51173
3428.98760	6.54440
3427.05903	6.58316
3425.13047	6.61925
3423.20190	6.67596
3421.27334	6.76950
3419.34478	6.84481
3417.41621	6.86251
3415.48765	6.88373
3413.55908	6.93635
3411.63052	6.98067
3409.70195	6.99769
3407.77339	7.04659
3405.84482	7.13378
3403.91626	7.18497
3401.98770	7.18274
3400.05913	7.18880
3398.13057	7.23159
3396.20200	7.26077
3394.27344	7.27780
3392.34487	7.32175
3390.41631	7.34643
3388.48774	7.31386
3386.55918	7.31533
3384.63062	7.38288
3382.70205	7.46017
3380.77349	7.52591
3378.84492	7.58344
3376.91636	7.62641
3374.98779	7.64481
3373.05923	7.70393
3371.13066	7.75849
3369.20210	7.71037
3367.27354	7.68276
3365.34497	7.76729
3363.41641	7.82520
3361.48784	7.77900
3359.55928	7.79419
3357.63071	7.88815
3355.70215	7.89552
3353.77358	7.82408
3351.84502	7.81504
3349.91646	7.87362
3347.98789	7.95190
3346.05933	8.00874
3344.13076	7.99061
3342.20220	7.92062
3340.27363	7.87031
3338.34507	7.87450
3336.41650	7.89681
3334.48794	7.91930
3332.55937	7.93757
3330.63081	7.94569
3328.70225	7.93722
3326.77368	7.91835
3324.84512	7.90429
3322.91655	7.89210
3320.98799	7.90366
3319.05942	7.92886
3317.13086	7.94893
3315.20229	7.93923
3313.27373	7.93958
3311.34517	8.03606
3309.41660	8.15110
3307.48804	8.12385
3305.55947	8.02044
3303.63091	7.99406
3301.70234	8.03684
3299.77378	8.10896
3297.84521	8.21555
3295.91665	8.29121
3293.98809	8.24094
3292.05952	8.17586
3290.13096	8.18368
3288.20239	8.19982
3286.27383	8.24475
3284.34526	8.30397
3282.41670	8.27002
3280.48813	8.19793
3278.55957	8.19140
3276.63101	8.18537
3274.70244	8.15012
3272.77388	8.12570
3270.84531	8.09344
3268.91675	8.07432
3266.98818	8.08137
3265.05962	8.07097
3263.13105	8.07978
3261.20249	8.13993
3259.27393	8.15540
3257.34536	8.16453
3255.41680	8.19543
3253.48823	8.15827
3251.55967	8.11565
3249.63110	8.09438
3247.70254	8.06668
3245.77397	8.08154
3243.84541	8.13504
3241.91685	8.14349
3239.98828	8.10268
3238.05972	8.08020
3236.13115	8.12475
3234.20259	8.17660
3232.27402	8.10116
3230.34546	7.97106
3228.41689	7.92277
3226.48833	7.94904
3224.55977	8.01200
3222.63120	8.06244
3220.70264	8.00702
3218.77407	7.88222
3216.84551	7.81534
3214.91694	7.81854
3212.98838	7.84341
3211.05981	7.89691
3209.13125	7.93125
3207.20269	7.87726
3205.27412	7.82686
3203.34556	7.81563
3201.41699	7.72157
3199.48843	7.55593
3197.55986	7.47842
3195.63130	7.50593
3193.70273	7.52533
3191.77417	7.48720
3189.84561	7.41366
3187.91704	7.32853
3185.98848	7.27209
3184.05991	7.25834
3182.13135	7.23887
3180.20278	7.19383
3178.27422	7.13995
3176.34565	7.08917
3174.41709	7.04386
3172.48853	6.99563
3170.55996	6.93649
3168.63140	6.84953
3166.70283	6.76300
3164.77427	6.70542
3162.84570	6.64595
3160.91714	6.58528
3158.98857	6.52773
3157.06001	6.44643
3155.13145	6.37011
3153.20288	6.32015
3151.27432	6.27167
3149.34575	6.21476
3147.41719	6.14456
3145.48862	6.07605
3143.56006	6.02622
3141.63149	5.96591
3139.70293	5.88190
3137.77437	5.80070
3135.84580	5.73062
3133.91724	5.66397
3131.98867	5.59203
3130.06011	5.50988
3128.13154	5.42504
3126.20298	5.34828
3124.27441	5.28147
3122.34585	5.21616
3120.41729	5.15308
3118.48872	5.09448
3116.56016	5.03220
3114.63159	4.96511
3112.70303	4.89831
3110.77446	4.83437
3108.84590	4.77166
3106.91733	4.70676
3104.98877	4.63975
3103.06021	4.57220
3101.13164	4.50414
3099.20308	4.43695
3097.27451	4.37222
3095.34595	4.30840
3093.41738	4.24478
3091.48882	4.18294
3089.56025	4.12188
3087.63169	4.06027
3085.70312	3.99913
3083.77456	3.93792
3081.84600	3.87669
3079.91743	3.81705
3077.98887	3.75986
3076.06030	3.70502
3074.13174	3.65078
3072.20317	3.59541
3070.27461	3.53967
3068.34604	3.48539
3066.41748	3.43090
3064.48892	3.37491
3062.56035	3.32033
3060.63179	3.26830
3058.70322	3.21780
3056.77466	3.16726
3054.84609	3.11537
3052.91753	3.06378
3050.98896	3.01325
3049.06040	2.96323
3047.13184	2.91475
3045.20327	2.86741
3043.27471	2.81956
3041.34614	2.77146
3039.41758	2.72432
3037.48901	2.67914
3035.56045	2.63573
3033.63188	2.59251
3031.70332	2.54884
3029.77476	2.50551
3027.84619	2.46289
3025.91763	2.42024
3023.98906	2.37783
3022.06050	2.33681
3020.13193	2.29655
3018.20337	2.25637
3016.27480	2.21696
3014.34624	2.17859
3012.41768	2.14104
3010.48911	2.10463
3008.56055	2.06951
3006.63198	2.03478
3004.70342	2.00000
3002.77485	1.96528
3000.84629	1.93092
2998.91772	1.89782
2996.98916	1.86612
2995.06060	1.83509
2993.13203	1.80462
2991.20347	1.77499
2989.27490	1.74596
2987.34634	1.71753
2985.41777	1.68984
2983.48921	1.66279
2981.56064	1.63665
2979.63208	1.61163
2977.70352	1.58707
2975.77495	1.56249
2973.84639	1.53860
2971.91782	1.51592
2969.98926	1.49388
2968.06069	1.47145
2966.13213	1.44844
2964.20356	1.42581
2962.27500	1.40386
2960.34644	1.38186
2958.41787	1.35921
2956.48931	1.33628
2954.56074	1.31377
2952.63218	1.29130
2950.70361	1.26857
2948.77505	1.24584
2946.84648	1.22344
2944.91792	1.20197
2942.98936	1.18159
2941.06079	1.16198
2939.13223	1.14303
2937.20366	1.12456
2935.27510	1.10629
2933.34653	1.08817
2931.41797	1.06991
2929.48940	1.05141
2927.56084	1.03313
2925.63228	1.01552
2923.70371	0.99857
2921.77515	0.98152
2919.84658	0.96374
2917.91802	0.94540
2915.98945	0.92702
2914.06089	0.90914
2912.13232	0.89214
2910.20376	0.87615
2908.27520	0.86074
2906.34663	0.84539
2904.41807	0.83016
2902.48950	0.81534
2900.56094	0.80114
2898.63237	0.78751
2896.70381	0.77417
2894.77524	0.76122
2892.84668	0.74875
2890.91812	0.73655
2888.98955	0.72489
2887.06099	0.71397
2885.13242	0.70344
2883.20386	0.69336
2881.27529	0.68395
2879.34673	0.67466
2877.41816	0.66504
2875.48960	0.65554
2873.56104	0.64636
2871.63247	0.63687
2869.70391	0.62628
2867.77534	0.61471
2865.84678	0.60284
2863.91821	0.59091
2861.98965	0.57931
2860.06108	0.56897
2858.13252	0.55981
2856.20396	0.55076
2854.27539	0.54143
2852.34683	0.53208
2850.41826	0.52296
2848.48970	0.51394
2846.56113	0.50495
2844.63257	0.49635
2842.70400	0.48835
2840.77544	0.48097
2838.84687	0.47419
2836.91831	0.46765
2834.98975	0.46111
2833.06118	0.45468
2831.13262	0.44854
2829.20405	0.44267
2827.27549	0.43679
2825.34692	0.43056
2823.41836	0.42415
2821.48979	0.41803
2819.56123	0.41218
2817.63267	0.40647
2815.70410	0.40093
2813.77554	0.39538
2811.84697	0.38973
2809.91841	0.38415
2807.98984	0.37867
2806.06128	0.37339
2804.13271	0.36837
2802.20415	0.36332
2800.27559	0.35821
2798.34702	0.35317
2796.41846	0.34826
2794.48989	0.34349
2792.56133	0.33871
2790.63276	0.33396
2788.70420	0.32943
2786.77563	0.32508
2784.84707	0.32086
2782.91851	0.31681
2780.98994	0.31288
2779.06138	0.30880
2777.13281	0.30458
2775.20425	0.30037
2773.27568	0.29632
2771.34712	0.29249
2769.41855	0.28877
2767.48999	0.28525
2765.56143	0.28192
2763.63286	0.27848
2761.70430	0.27490
2759.77573	0.27146
2757.84717	0.26820
2755.91860	0.26493
2753.99004	0.26166
2752.06147	0.25854
2750.13291	0.25562
2748.20435	0.25274
2746.27578	0.24987
2744.34722	0.24707
2742.41865	0.24432
2740.49009	0.24159
2738.56152	0.23895
2736.63296	0.23638
2734.70439	0.23396
2732.77583	0.23158
2730.84727	0.22916
2728.91870	0.22685
2726.99014	0.22458
2725.06157	0.22218
2723.13301	0.21986
2721.20444	0.21776
2719.27588	0.21576
2717.34731	0.21375
2715.41875	0.21177
2713.49019	0.20988
2711.56162	0.20801
2709.63306	0.20614
2707.70449	0.20437
2705.77593	0.20270
2703.84736	0.20107
2701.91880	0.19939
2699.99023	0.19770
2698.06167	0.19617
2696.13311	0.19479
2694.20454	0.19343
2692.27598	0.19208
2690.34741	0.19078
2688.41885	0.18951
2686.49028	0.18830
2684.56172	0.18711
2682.63315	0.18586
2680.70459	0.18457
2678.77603	0.18329
2676.84746	0.18200
2674.91890	0.18076
2672.99033	0.17964
2671.06177	0.17862
2669.13320	0.17755
2667.20464	0.17642
2665.27607	0.17542
2663.34751	0.17469
2661.41895	0.17403
2659.49038	0.17303
2657.56182	0.17182
2655.63325	0.17089
2653.70469	0.17027
2651.77612	0.16960
2649.84756	0.16882
2647.91899	0.16800
2645.99043	0.16718
2644.06187	0.16643
2642.13330	0.16581
2640.20474	0.16524
2638.27617	0.16470
2636.34761	0.16431
2634.41904	0.16393
2632.49048	0.16341
2630.56191	0.16286
2628.63335	0.16237
2626.70479	0.16190
2624.77622	0.16154
2622.84766	0.16132
2620.91909	0.16092
2618.99053	0.16034
2617.06196	0.15991
2615.13340	0.15963
2613.20483	0.15943
2611.27627	0.15932
2609.34771	0.15923
2607.41914	0.15906
2605.49058	0.15889
2603.56201	0.15878
2601.63345	0.15864
2599.70488	0.15846
2597.77632	0.15834
2595.84775	0.15833
2593.91919	0.15828
2591.99062	0.15820
2590.06206	0.15827
2588.13350	0.15849
2586.20493	0.15860
2584.27637	0.15853
2582.34780	0.15853
2580.41924	0.15876
2578.49067	0.15909
2576.56211	0.15938
2574.63354	0.15966
2572.70498	0.15985
2570.77642	0.15996
2568.84785	0.16009
2566.91929	0.16035
2564.99072	0.16081
2563.06216	0.16133
2561.13359	0.16174
2559.20503	0.16208
2557.27646	0.16243
2555.34790	0.16282
2553.41934	0.16327
2551.49077	0.16375
2549.56221	0.16426
2547.63364	0.16480
2545.70508	0.16532
2543.77651	0.16576
2541.84795	0.16615
2539.91938	0.16664
2537.99082	0.16729
2536.06226	0.16796
2534.13369	0.16853
2532.20513	0.16908
2530.27656	0.16966
2528.34800	0.17027
2526.41943	0.17087
2524.49087	0.17146
2522.56230	0.17203
2520.63374	0.17271
2518.70518	0.17352
2516.77661	0.17432
2514.84805	0.17512
2512.91948	0.17590
2510.99092	0.17652
2509.06235	0.17705
2507.13379	0.17762
2505.20522	0.17829
2503.27666	0.17902
2501.34810	0.17981
2499.41953	0.18069
2497.49097	0.18159
2495.56240	0.18241
2493.63384	0.18320
2491.70527	0.18396
2489.77671	0.18467
2487.84814	0.18556
2485.91958	0.18647
2483.99102	0.18715
2482.06245	0.18780
2480.13389	0.18852
2478.20532	0.18931
2476.27676	0.19015
2474.34819	0.19099
2472.41963	0.19187
2470.49106	0.19272
2468.56250	0.19353
2466.63394	0.19434
2464.70537	0.19511
2462.77681	0.19591
2460.84824	0.19683
2458.91968	0.19781
2456.99111	0.19878
2455.06255	0.19966
2453.13398	0.20047
2451.20542	0.20135
2449.27686	0.20226
2447.34829	0.20309
2445.41973	0.20394
2443.49116	0.20496
2441.56260	0.20602
2439.63403	0.20699
2437.70547	0.20791
2435.77690	0.20880
2433.84834	0.20963
2431.91978	0.21055
2429.99121	0.21163
2428.06265	0.21279
2426.13408	0.21388
2424.20552	0.21490
2422.27695	0.21596
2420.34839	0.21704
2418.41982	0.21810
2416.49126	0.21918
2414.56270	0.22023
2412.63413	0.22117
2410.70557	0.22209
2408.77700	0.22319
2406.84844	0.22442
2404.91987	0.22562
2402.99131	0.22675
2401.06274	0.22786
2399.13418	0.22895
2397.20562	0.23008
2395.27705	0.23133
2393.34849	0.23263
2391.41992	0.23399
2389.49136	0.23561
2387.56279	0.23791
2385.63423	0.24151
2383.70566	0.24704
2381.77710	0.25472
2379.84854	0.26417
2377.91997	0.27490
2375.99141	0.28691
2374.06284	0.30061
2372.13428	0.31612
2370.20571	0.33290
2368.27715	0.35010
2366.34858	0.36664
2364.42002	0.38139
2362.49146	0.39258
2360.56289	0.39837
2358.63433	0.39874
2356.70576	0.39294
2354.77720	0.38058
2352.84863	0.36474
2350.92007	0.34882
2348.99150	0.33869
2347.06294	0.33911
2345.13437	0.35073
2343.20581	0.36595
2341.27725	0.37345
2339.34868	0.37398
2337.42012	0.37286
2335.49155	0.37189
2333.56299	0.37106
2331.63442	0.37050
2329.70586	0.36920
2327.77729	0.36682
2325.84873	0.36363
2323.92017	0.35988
2321.99160	0.35584
2320.06304	0.35104
2318.13447	0.34555
2316.20591	0.34055
2314.27734	0.33745
2312.34878	0.33623
2310.42021	0.33521
2308.49165	0.33316
2306.56309	0.33026
2304.63452	0.32726
2302.70596	0.32521
2300.77739	0.32442
2298.84883	0.32410
2296.92026	0.32389
2294.99170	0.32380
2293.06313	0.32360
2291.13457	0.32325
2289.20601	0.32308
2287.27744	0.32325
2285.34888	0.32366
2283.42031	0.32440
2281.49175	0.32581
2279.56318	0.32796
2277.63462	0.33035
2275.70605	0.33260
2273.77749	0.33475
2271.84893	0.33685
2269.92036	0.33893
2267.99180	0.34094
2266.06323	0.34278
2264.13467	0.34453
2262.20610	0.34632
2260.27754	0.34817
2258.34897	0.35004
2256.42041	0.35190
2254.49185	0.35371
2252.56328	0.35544
2250.63472	0.35716
2248.70615	0.35898
2246.77759	0.36095
2244.84902	0.36294
2242.92046	0.36489
2240.99189	0.36684
2239.06333	0.36887
2237.13477	0.37100
2235.20620	0.37313
2233.27764	0.37530
2231.34907	0.37757
2229.42051	0.37979
2227.49194	0.38200
2225.56338	0.38425
2223.63481	0.38633
2221.70625	0.38838
2219.77769	0.39063
2217.84912	0.39279
2215.92056	0.39483
2213.99199	0.39693
2212.06343	0.39909
2210.13486	0.40121
2208.20630	0.40332
2206.27773	0.40539
2204.34917	0.40737
2202.42061	0.40931
2200.49204	0.41137
2198.56348	0.41352
2196.63491	0.41562
2194.70635	0.41749
2192.77778	0.41916
2190.84922	0.42079
2188.92065	0.42259
2186.99209	0.42451
2185.06353	0.42628
2183.13496	0.42787
2181.20640	0.42956
2179.27783	0.43126
2177.34927	0.43280
2175.42070	0.43430
2173.49214	0.43589
2171.56357	0.43745
2169.63501	0.43883
2167.70645	0.44001
2165.77788	0.44117
2163.84932	0.44248
2161.92075	0.44377
2159.99219	0.44488
2158.06362	0.44587
2156.13506	0.44682
2154.20649	0.44777
2152.27793	0.44863
2150.34937	0.44936
2148.42080	0.45003
2146.49224	0.45065
2144.56367	0.45116
2142.63511	0.45159
2140.70654	0.45204
2138.77798	0.45256
2136.84941	0.45296
2134.92085	0.45309
2132.99229	0.45303
2131.06372	0.45294
2129.13516	0.45281
2127.20659	0.45266
2125.27803	0.45250
2123.34946	0.45216
2121.42090	0.45162
2119.49233	0.45112
2117.56377	0.45079
2115.63521	0.45033
2113.70664	0.44956
2111.77808	0.44876
2109.84951	0.44796
2107.92095	0.44698
2105.99238	0.44592
2104.06382	0.44487
2102.13525	0.44366
2100.20669	0.44232
2098.27812	0.44104
2096.34956	0.43981
2094.42100	0.43841
2092.49243	0.43689
2090.56387	0.43541
2088.63530	0.43387
2086.70674	0.43211
2084.77817	0.43019
2082.84961	0.42833
2080.92104	0.42656
2078.99248	0.42473
2077.06392	0.42275
2075.13535	0.42066
2073.20679	0.41855
2071.27822	0.41650
2069.34966	0.41444
2067.42109	0.41231
2065.49253	0.41011
2063.56396	0.40769
2061.63540	0.40517
2059.70684	0.40276
2057.77827	0.40038
2055.84971	0.39798
2053.92114	0.39554
2051.99258	0.39306
2050.06401	0.39051
2048.13545	0.38792
2046.20688	0.38537
2044.27832	0.38293
2042.34976	0.38045
2040.42119	0.37781
2038.49263	0.37502
2036.56406	0.37219
2034.63550	0.36946
2032.70693	0.36683
2030.77837	0.36419
2028.84980	0.36154
2026.92124	0.35887
2024.99268	0.35615
2023.06411	0.35349
2021.13555	0.35098
2019.20698	0.34854
2017.27842	0.34599
2015.34985	0.34317
2013.42129	0.34021
2011.49272	0.33735
2009.56416	0.33467
2007.63560	0.33203
2005.70703	0.32933
2003.77847	0.32661
2001.84990	0.32397
1999.92134	0.32146
1997.99277	0.31898
1996.06421	0.31652
1994.13564	0.31431
1992.20708	0.31226
1990.27852	0.30977
1988.34995	0.30691
1986.42139	0.30413
1984.49282	0.30163
1982.56426	0.29932
1980.63569	0.29700
1978.70713	0.29474
1976.77856	0.29261
1974.85000	0.29051
1972.92144	0.28835
1970.99287	0.28631
1969.06431	0.28456
1967.13574	0.28285
1965.20718	0.28064
1963.27861	0.27823
1961.35005	0.27618
1959.42148	0.27434
1957.49292	0.27251
1955.56436	0.27074
1953.63579	0.26897
1951.70723	0.26716
1949.77866	0.26546
1947.85010	0.26398
1945.92153	0.26275
1943.99297	0.26175
1942.06440	0.26060
1940.13584	0.25869
1938.20728	0.25654
1936.27871	0.25487
1934.35015	0.25362
1932.42158	0.25248
1930.49302	0.25128
1928.56445	0.25010
1926.63589	0.24913
1924.70732	0.24867
1922.77876	0.24831
1920.85020	0.24738
1918.92163	0.24638
1916.99307	0.24543
1915.06450	0.24398
1913.13594	0.24260
1911.20737	0.24200
1909.27881	0.24174
1907.35024	0.24104
1905.42168	0.24001
1903.49312	0.23917
1901.56455	0.23846
1899.63599	0.23782
1897.70742	0.23755
1895.77886	0.23755
1893.85029	0.23734
1891.92173	0.23695
1889.99316	0.23688
1888.06460	0.23656
1886.13604	0.23583
1884.20747	0.23528
1882.27891	0.23494
1880.35034	0.23477
1878.42178	0.23475
1876.49321	0.23475
1874.56465	0.23468
1872.63608	0.23502
1870.70752	0.23630
1868.77896	0.23820
1866.85039	0.23848
1864.92183	0.23701
1862.99326	0.23600
1861.06470	0.23597
1859.13613	0.23634
1857.20757	0.23663
1855.27900	0.23695
1853.35044	0.23736
1851.42187	0.23793
1849.49331	0.23885
1847.56475	0.24025
1845.63618	0.24206
1843.70762	0.24355
1841.77905	0.24345
1839.85049	0.24287
1837.92192	0.24332
1835.99336	0.24423
1834.06479	0.24510
1832.13623	0.24659
1830.20767	0.24915
1828.27910	0.25110
1826.35054	0.25171
1824.42197	0.25242
1822.49341	0.25290
1820.56484	0.25339
1818.63628	0.25451
1816.70771	0.25611
1814.77915	0.25779
1812.85059	0.25995
1810.92202	0.26258
1808.99346	0.26463
1807.06489	0.26603
1805.13633	0.26759
1803.20776	0.27005
1801.27920	0.27329
1799.35063	0.27646
1797.42207	0.27876
1795.49351	0.28119
1793.56494	0.28469
1791.63638	0.28878
1789.70781	0.29118
1787.77925	0.29246
1785.85068	0.29511
1783.92212	0.29889
1781.99355	0.30309
1780.06499	0.30755
1778.13643	0.31185
1776.20786	0.31605
1774.27930	0.32134
1772.35073	0.32851
1770.42217	0.33462
1768.49360	0.33832
1766.56504	0.34208
1764.63647	0.34684
1762.70791	0.35305
1760.77935	0.36079
1758.85078	0.36758
1756.92222	0.37453
1754.99365	0.38214
1753.06509	0.38938
1751.13652	0.39904
1749.20796	0.41111
1747.27939	0.42151
1745.35083	0.42975
1743.42227	0.43879
1741.49370	0.44917
1739.56514	0.46133
1737.63657	0.47331
1735.70801	0.48447
1733.77944	0.50197
1731.85088	0.52100
1729.92231	0.53442
1727.99375	0.54822
1726.06519	0.56387
1724.13662	0.58185
1722.20806	0.60176
1720.27949	0.62084
1718.35093	0.64441
1716.42236	0.67814
1714.49380	0.70723
1712.56523	0.72956
1710.63667	0.75214
1708.70811	0.77781
1706.77954	0.80795
1704.85098	0.84386
1702.92241	0.87542
1700.99385	0.90711
1699.06528	0.95527
1697.13672	0.99961
1695.20815	1.04383
1693.27959	1.08591
1691.35103	1.12111
1689.42246	1.16421
1687.49390	1.21053
1685.56533	1.25539
1683.63677	1.32430
1681.70820	1.39404
1679.77964	1.43733
1677.85107	1.47907
1675.92251	1.52771
1673.99395	1.58898
1672.06538	1.64523
1670.13682	1.70149
1668.20825	1.77367
1666.27969	1.83197
1664.35112	1.88284
1662.42256	1.94909
1660.49399	2.02463
1658.56543	2.08335
1656.63687	2.13131
1654.70830	2.17620
1652.77974	2.24325
1650.85117	2.30164
1648.92261	2.32050
1646.99404	2.34594
1645.06548	2.36945
1643.13691	2.38137
1641.20835	2.38888
1639.27979	2.39975
1637.35122	2.40746
1635.42266	2.40343
1633.49409	2.38808
1631.56553	2.37003
1629.63696	2.35176
1627.70840	2.32221
1625.77983	2.28580
1623.85127	2.23878
1621.92271	2.18197
1619.99414	2.13260
1618.06558	2.08585
1616.13701	2.01795
1614.20845	1.94671
1612.27988	1.89267
1610.35132	1.83786
1608.42275	1.77978
1606.49419	1.72270
1604.56562	1.66948
1602.63706	1.61823
1600.70850	1.56889
1598.77993	1.52380
1596.85137	1.48151
1594.92280	1.44049
1592.99424	1.40093
1591.06567	1.36497
1589.13711	1.33182
1587.20854	1.30125
1585.27998	1.27317
1583.35142	1.24745
1581.42285	1.22456
1579.49429	1.20591
1577.56572	1.19081
1575.63716	1.17290
1573.70859	1.15584
1571.78003	1.14503
1569.85146	1.13596
1567.92290	1.12664
1565.99434	1.12035
1564.06577	1.11740
1562.13721	1.11670
1560.20864	1.12016
1558.28008	1.13115
1556.35151	1.13839
1554.42295	1.14142
1552.49438	1.14521
1550.56582	1.14746
1548.63726	1.14676
1546.70869	1.14326
1544.78013	1.13749
1542.85156	1.12891
1540.92300	1.11166
1538.99443	1.07736
1537.06587	1.05024
1535.13730	1.03289
1533.20874	1.01023
1531.28018	0.98486
1529.35161	0.96675
1527.42305	0.95101
1525.49448	0.93490
1523.56592	0.92146
1521.63735	0.90937
1519.70879	0.89645
1517.78022	0.88466
1515.85166	0.87014
1513.92310	0.85448
1511.99453	0.84175
1510.06597	0.83174
1508.13740	0.82329
1506.20884	0.80671
1504.28027	0.78828
1502.35171	0.77810
1500.42314	0.77102
1498.49458	0.76434
1496.56602	0.75574
1494.63745	0.74600
1492.70889	0.73884
1490.78032	0.73403
1488.85176	0.72857
1486.92319	0.72153
1484.99463	0.71521
1483.06606	0.71086
1481.13750	0.70813
1479.20894	0.70659
1477.28037	0.70670
1475.35181	0.70860
1473.42324	0.71124
1471.49468	0.71137
1469.56611	0.70832
1467.63755	0.70563
1465.70898	0.70448
1463.78042	0.70355
1461.85186	0.70270
1459.92329	0.70378
1457.99473	0.70707
1456.06616	0.70796
1454.13760	0.70369
1452.20903	0.69933
1450.28047	0.69599
1448.35190	0.69337
1446.42334	0.69037
1444.49478	0.68678
1442.56621	0.68335
1440.63765	0.68044
1438.70908	0.67808
1436.78052	0.67506
1434.85195	0.67043
1432.92339	0.66637
1430.99482	0.66403
1429.06626	0.66282
1427.13770	0.66238
1425.20913	0.66312
1423.28057	0.66465
1421.35200	0.66591
1419.42344	0.66722
1417.49487	0.66746
1415.56631	0.66566
1413.63774	0.66432
1411.70918	0.66452
1409.78062	0.66579
1407.85205	0.66771
1405.92349	0.67049
1403.99492	0.67319
1402.06636	0.67431
1400.13779	0.67455
1398.20923	0.67416
1396.28066	0.67205
1394.35210	0.66751
1392.42354	0.66151
1390.49497	0.65616
1388.56641	0.65161
1386.63784	0.64637
1384.70928	0.64011
1382.78071	0.63405
1380.85215	0.62874
1378.92358	0.62453
1376.99502	0.62173
1375.06646	0.62010
1373.13789	0.61851
1371.20933	0.61681
1369.28076	0.61553
1367.35220	0.61403
1365.42363	0.61239
1363.49507	0.61135
1361.56650	0.61002
1359.63794	0.60777
1357.70937	0.60573
1355.78081	0.60427
1353.85225	0.60311
1351.92368	0.60215
1349.99512	0.60145
1348.06655	0.60085
1346.13799	0.59997
1344.20942	0.59906
1342.28086	0.59869
1340.35229	0.59883
1338.42373	0.59853
1336.49517	0.59757
1334.56660	0.59672
1332.63804	0.59628
1330.70947	0.59637
1328.78091	0.59697
1326.85234	0.59790
1324.92378	0.59908
1322.99521	0.60032
1321.06665	0.60159
1319.13809	0.60281
1317.20952	0.60355
1315.28096	0.60375
1313.35239	0.60367
1311.42383	0.60324
1309.49526	0.60261
1307.56670	0.60207
1305.63813	0.60171
1303.70957	0.60139
1301.78101	0.60086
1299.85244	0.59995
1297.92388	0.59883
1295.99531	0.59769
1294.06675	0.59649
1292.13818	0.59514
1290.20962	0.59379
1288.28105	0.59253
1286.35249	0.59119
1284.42393	0.58978
1282.49536	0.58826
1280.56680	0.58661
1278.63823	0.58499
1276.70967	0.58351
1274.78110	0.58215
1272.85254	0.58117
1270.92397	0.58055
1268.99541	0.57979
1267.06685	0.57880
1265.13828	0.57786
1263.20972	0.57704
1261.28115	0.57625
1259.35259	0.57542
1257.42402	0.57467
1255.49546	0.57424
1253.56689	0.57422
1251.63833	0.57440
1249.70977	0.57452
1247.78120	0.57449
1245.85264	0.57432
1243.92407	0.57381
1241.99551	0.57276
1240.06694	0.57115
1238.13838	0.56916
1236.20981	0.56693
1234.28125	0.56445
1232.35269	0.56182
1230.42412	0.55926
1228.49556	0.55685
1226.56699	0.55457
1224.63843	0.55243
1222.70986	0.55046
1220.78130	0.54875
1218.85273	0.54719
1216.92417	0.54556
1214.99561	0.54401
1213.06704	0.54294
1211.13848	0.54231
1209.20991	0.54177
1207.28135	0.54118
1205.35278	0.54038
1203.42422	0.53926
1201.49565	0.53806
1199.56709	0.53713
1197.63853	0.53642
1195.70996	0.53573
1193.78140	0.53513
1191.85283	0.53461
1189.92427	0.53410
1187.99570	0.53377
1186.06714	0.53368
1184.13857	0.53376
1182.21001	0.53426
1180.28145	0.53544
1178.35288	0.53721
1176.42432	0.53911
1174.49575	0.54056
1172.56719	0.54144
1170.63862	0.54190
1168.71006	0.54201
1166.78149	0.54196
1164.85293	0.54211
1162.92437	0.54239
1160.99580	0.54242
1159.06724	0.54214
1157.13867	0.54157
1155.21011	0.54060
1153.28154	0.53913
1151.35298	0.53725
1149.42441	0.53503
1147.49585	0.53240
1145.56729	0.52952
1143.63872	0.52677
1141.71016	0.52435
1139.78159	0.52229
1137.85303	0.52070
1135.92446	0.51979
1133.99590	0.51952
1132.06733	0.51945
1130.13877	0.51927
1128.21021	0.51891
1126.28164	0.51844
1124.35308	0.51805
1122.42451	0.51768
1120.49595	0.51751
1118.56738	0.51785
1116.63882	0.51851
1114.71025	0.51924
1112.78169	0.51998
1110.85312	0.52082
1108.92456	0.52181
1106.99600	0.52295
1105.06743	0.52408
1103.13887	0.52512
1101.21030	0.52623
1099.28174	0.52754
1097.35317	0.52937
1095.42461	0.53200
1093.49604	0.53553
1091.56748	0.54025
1089.63892	0.54617
1087.71035	0.55304
1085.78179	0.56085
1083.85322	0.56905
1081.92466	0.57647
1079.99609	0.58207
1078.06753	0.58476
1076.13896	0.58410
1074.21040	0.58079
1072.28184	0.57553
1070.35327	0.56882
1068.42471	0.56150
1066.49614	0.55445
1064.56758	0.54804
1062.63901	0.54238
1060.71045	0.53755
1058.78188	0.53348
1056.85332	0.52984
1054.92476	0.52630
1052.99619	0.52289
1051.06763	0.51999
1049.13906	0.51790
1047.21050	0.51652
1045.28193	0.51556
1043.35337	0.51489
1041.42480	0.51465
1039.49624	0.51462
1037.56768	0.51437
1035.63911	0.51389
1033.71055	0.51320
1031.78198	0.51223
1029.85342	0.51111
1027.92485	0.51004
1025.99629	0.50878
1024.06772	0.50745
1022.13916	0.50667
1020.21060	0.50636
1018.28203	0.50606
1016.35347	0.50568
1014.42490	0.50541
1012.49634	0.50539
1010.56777	0.50533
1008.63921	0.50520
1006.71064	0.50548
1004.78208	0.50644
1002.85352	0.50801
1000.92495	0.51029
998.99639	0.51345
997.06782	0.51737
995.13926	0.52171
993.21069	0.52602
991.28213	0.52946
989.35356	0.53146
987.42500	0.53223
985.49644	0.53235
983.56787	0.53221
981.63931	0.53222
979.71074	0.53297
977.78218	0.53435
975.85361	0.53591
973.92505	0.53782
971.99648	0.54049
970.06792	0.54378
968.13936	0.54725
966.21079	0.55077
964.28223	0.55467
962.35366	0.55921
960.42510	0.56432
958.49653	0.56977
956.56797	0.57539
954.63940	0.58118
952.71084	0.58712
950.78228	0.59290
948.85371	0.59877
946.92515	0.60528
944.99658	0.61204
943.06802	0.61844
941.13945	0.62449
939.21089	0.63005
937.28232	0.63520
935.35376	0.64043
933.42520	0.64561
931.49663	0.65086
929.56807	0.65708
927.63950	0.66391
925.71094	0.67006
923.78237	0.67531
921.85381	0.68051
919.92524	0.68634
917.99668	0.69300
916.06812	0.70053
914.13955	0.70800
912.21099	0.71478
910.28242	0.72239
908.35386	0.73150
906.42529	0.74060
904.49673	0.74937
902.56816	0.75859
900.63960	0.76776
898.71104	0.77646
896.78247	0.78580
894.85391	0.79597
892.92534	0.80558
890.99678	0.81446
889.06821	0.82386
887.13965	0.83383
885.21108	0.84395
883.28252	0.85513
881.35396	0.86777
879.42539	0.88094
877.49683	0.89423
875.56826	0.90726
873.63970	0.91867
871.71113	0.92818
869.78257	0.93782
867.85400	0.94929
865.92544	0.96119
863.99687	0.97125
862.06831	0.98067
860.13975	0.99165
858.21118	1.00342
856.28262	1.01462
854.35405	1.02694
852.42549	1.04048
850.49692	1.05128
848.56836	1.06072
846.63979	1.07218
844.71123	1.08327
842.78267	1.09416
840.85410	1.10824
838.92554	1.12428
836.99697	1.13716
835.06841	1.14448
833.13984	1.15079
831.21128	1.15987
829.28271	1.17058
827.35415	1.18382
825.42559	1.19992
823.49702	1.21363
821.56846	1.22357
819.63989	1.23312
817.71133	1.24025
815.78276	1.25016
813.85420	1.26737
811.92563	1.28035
809.99707	1.28876
808.06851	1.30319
806.13994	1.32448
804.21138	1.34809
802.28281	1.36280
800.35425	1.35741
798.42568	1.34595
796.49712	1.34719
794.56855	1.35815
792.63999	1.36415
790.71143	1.35654
788.78286	1.33850
786.85430	1.31720
784.92573	1.31635
782.99717	1.33946
781.06860	1.35698
779.14004	1.37049
777.21147	1.40525
775.28291	1.43028
773.35435	1.43168
771.42578	1.46800
769.49722	1.46321
767.56865	1.37906
765.64009	1.35554
763.71152	1.39008
761.78296	1.37992
759.85439	1.36105
757.92583	1.35080
755.99727	1.28629
754.06870	1.25531
752.14014	1.35236
750.21157	1.50074
748.28301	1.31377
746.35444	1.08268
744.42588	0.99874
742.49731	1.01968
740.56875	1.05457
738.64019	1.04949
736.71162	1.03986
734.78306	1.01067
732.85449	0.94724
730.92593	0.95670
728.99736	1.39711
727.06880	4.36241
725.14023	4.35084
723.21167	1.50963
721.28311	0.76517
719.35454	0.58476
717.42598	0.40787
715.49741	0.27612
713.56885	0.26699
711.64028	0.27826
709.71172	0.28134
707.78315	0.25907
705.85459	0.17135
703.92603	0.19605
701.99746	0.31290
700.06890	0.38942
698.14033	0.34770
696.21177	0.34941
694.28320	0.41506
692.35464	0.52937
690.42607	0.66180
688.49751	0.58533
686.56895	0.42256
684.64038	0.32334
682.71182	0.28007
680.78325	0.31177
678.85469	0.41275
676.92612	0.37509
674.99756	0.19841
673.06899	0.14997
671.14043	0.22725
669.21187	0.29268
667.28330	0.31010
665.35474	0.32335
663.42617	0.32526
661.49761	0.33090
659.56904	0.37440
657.64048	0.34509
655.71191	0.27397
653.78335	0.25714
651.85479	0.26316
649.92622	0.27006
647.99766	0.33082
646.06909	0.36271
644.14053	0.32996
642.21196	0.27370
640.28340	0.23478
638.35483	0.24707
636.42627	0.31690
634.49771	0.37894
632.56914	0.37764
630.64058	0.34345
628.71201	0.34588
626.78345	0.41453
624.85488	0.46903
622.92632	0.47877
620.99775	0.38637
619.06919	0.24914
617.14062	0.23505
615.21206	0.32838
613.28350	0.32348
611.35493	0.23024
609.42637	0.24454
607.49780	0.42173
605.56924	0.66615
603.64067	0.68191
601.71211	0.71404
599.78354	0.57013
597.85498	0.34998
595.92642	0.24647
593.99785	0.20530
592.06929	0.19926
590.14072	0.21751
588.21216	0.25327
586.28359	0.31055
584.35503	0.36921
582.42646	0.39953
580.49790	0.46902
578.56934	0.50648
576.64077	0.47195
574.71221	0.50003
572.78364	0.57428
570.85508	0.64274
568.92651	0.72421
566.99795	0.59383
565.06938	0.41787
563.14082	0.31459
561.21226	0.26493
559.28369	0.24742
557.35513	0.25892
555.42656	0.29817
553.49800	0.34215
551.56943	0.37460
549.64087	0.35597
547.71230	0.25360
545.78374	0.20150
543.85518	0.23039
541.92661	0.26144
539.99805	0.23175
538.06948	0.16539
536.14092	0.12919
534.21235	0.17560
532.28379	0.32075
530.35522	0.46857
528.42666	0.35089
526.49810	0.21471
524.56953	0.17471
522.64097	0.15483
520.71240	0.13915
518.78384	0.16136
516.85527	0.21399
514.92671	0.20993
512.99814	0.17437
511.06958	0.17443
509.14102	0.17600
507.21245	0.17471
505.28389	0.23959
503.35532	0.32778
501.42676	0.30526
499.49819	0.24546
