3997.91411	0.07332
3995.98555	0.07411
3994.05698	0.07483
3992.12842	0.07510
3990.19985	0.07544
3988.27129	0.07578
3986.34272	0.07552
3984.41416	0.07508
3982.48560	0.07525
3980.55703	0.07608
3978.62847	0.07697
3976.69990	0.07753
3974.77134	0.07788
3972.84277	0.07805
3970.91421	0.07801
3968.98564	0.07791
3967.05708	0.07770
3965.12852	0.07759
3963.19995	0.07817
3961.27139	0.07912
3959.34282	0.07955
3957.41426	0.07951
3955.48569	0.07921
3953.55713	0.07878
3951.62856	0.07923
3949.70000	0.08094
3947.77144	0.08231
3945.84287	0.08192
3943.91431	0.08135
3941.98574	0.08161
3940.05718	0.08112
3938.12861	0.07993
3936.20005	0.07940
3934.27148	0.08018
3932.34292	0.08236
3930.41436	0.08420
3928.48579	0.08378
3926.55723	0.08268
3924.62866	0.08297
3922.70010	0.08339
3920.77153	0.08267
3918.84297	0.08250
3916.91440	0.08313
3914.98584	0.08232
3913.05728	0.07996
3911.12871	0.07814
3909.20015	0.07806
3907.27158	0.08012
3905.34302	0.08418
3903.41445	0.08869
3901.48589	0.09086
3899.55732	0.08989
3897.62876	0.08650
3895.70020	0.08291
3893.77163	0.08219
3891.84307	0.08437
3889.91450	0.08532
3887.98594	0.08367
3886.05737	0.08382
3884.12881	0.08595
3882.20024	0.08695
3880.27168	0.08734
3878.34312	0.08618
3876.41455	0.08395
3874.48599	0.08454
3872.55742	0.08771
3870.62886	0.09061
3868.70029	0.09188
3866.77173	0.09130
3864.84316	0.09172
3862.91460	0.09248
3860.98604	0.09000
3859.05747	0.08714
3857.12891	0.08763
3855.20034	0.09211
3853.27178	0.09974
3851.34321	0.10192
3849.41465	0.09532
3847.48608	0.08959
3845.55752	0.08783
3843.62896	0.08994
3841.70039	0.09446
3839.77183	0.09980
3837.84326	0.10444
3835.91470	0.10456
3833.98613	0.10065
3832.05757	0.09732
3830.12900	0.09599
3828.20044	0.09619
3826.27187	0.09745
3824.34331	0.09899
3822.41475	0.10200
3820.48618	0.10760
3818.55762	0.10990
3816.62905	0.10840
3814.70049	0.10649
3812.77192	0.10315
3810.84336	0.10065
3808.91479	0.10145
3806.98623	0.10572
3805.05767	0.11006
3803.12910	0.11241
3801.20054	0.11568
3799.27197	0.11753
3797.34341	0.11623
3795.41484	0.11454
3793.48628	0.11230
3791.55771	0.11065
3789.62915	0.11091
3787.70059	0.11271
3785.77202	0.11562
3783.84346	0.11835
3781.91489	0.11985
3779.98633	0.12198
3778.05776	0.12422
3776.12920	0.12386
3774.20063	0.12333
3772.27207	0.12539
3770.34351	0.12999
3768.41494	0.13471
3766.48638	0.13684
3764.55781	0.13751
3762.62925	0.13806
3760.70068	0.14024
3758.77212	0.14516
3756.84355	0.14973
3754.91499	0.15224
3752.98643	0.15654
3751.05786	0.16565
3749.12930	0.17447
3747.20073	0.17614
3745.27217	0.17717
3743.34360	0.18084
3741.41504	0.18309
3739.48647	0.18503
3737.55791	0.19071
3735.62935	0.20160
3733.70078	0.21250
3731.77222	0.21598
3729.84365	0.21609
3727.91509	0.21832
3725.98652	0.22457
3724.05796	0.23223
3722.12939	0.23743
3720.20083	0.24080
3718.27227	0.24352
3716.34370	0.24677
3714.41514	0.25306
3712.48657	0.26598
3710.55801	0.28617
3708.62944	0.30283
3706.70088	0.31145
3704.77231	0.31993
3702.84375	0.33278
3700.91519	0.35043
3698.98662	0.36825
3697.05806	0.38436
3695.12949	0.40252
3693.20093	0.42353
3691.27236	0.44804
3689.34380	0.47895
3687.41523	0.51197
3685.48667	0.53765
3683.55811	0.56078
3681.62954	0.58825
3679.70098	0.62116
3677.77241	0.65741
3675.84385	0.70154
3673.91528	0.75782
3671.98672	0.79988
3670.05815	0.83733
3668.12959	0.88922
3666.20103	0.93394
3664.27246	0.97133
3662.34390	1.01396
3660.41533	1.06162
3658.48677	1.10977
3656.55820	1.16156
3654.62964	1.21795
3652.70107	1.26455
3650.77251	1.30769
3648.84395	1.37105
3646.91538	1.44405
3644.98682	1.48984
3643.05825	1.52418
3641.12969	1.56332
3639.20112	1.60868
3637.27256	1.65426
3635.34399	1.69876
3633.41543	1.74438
3631.48687	1.78803
3629.55830	1.83337
3627.62974	1.89170
3625.70117	1.94103
3623.77261	1.97161
3621.84404	2.00351
3619.91548	2.04298
3617.98691	2.08936
3616.05835	2.13127
3614.12979	2.16703
3612.20122	2.20631
3610.27266	2.24552
3608.34409	2.28618
3606.41553	2.33002
3604.48696	2.36851
3602.55840	2.40256
3600.62983	2.44149
3598.70127	2.48438
3596.77271	2.52551
3594.84414	2.56706
3592.91558	2.60843
3590.98701	2.64494
3589.05845	2.67952
3587.12988	2.72303
3585.20132	2.77094
3583.27275	2.81091
3581.34419	2.84748
3579.41562	2.88682
3577.48706	2.92864
3575.55850	2.97050
3573.62993	3.01295
3571.70137	3.05365
3569.77280	3.09325
3567.84424	3.13749
3565.91567	3.19134
3563.98711	3.24153
3562.05854	3.28177
3560.12998	3.32311
3558.20142	3.36850
3556.27285	3.41412
3554.34429	3.45695
3552.41572	3.50129
3550.48716	3.54753
3548.55859	3.59157
3546.63003	3.63537
3544.70146	3.68269
3542.77290	3.73008
3540.84434	3.77619
3538.91577	3.82356
3536.98721	3.86991
3535.05864	3.91834
3533.13008	3.96809
3531.20151	4.01515
3529.27295	4.06251
3527.34438	4.11049
3525.41582	4.15691
3523.48726	4.20439
3521.55869	4.25357
3519.63013	4.30179
3517.70156	4.34999
3515.77300	4.39585
3513.84443	4.43798
3511.91587	4.48431
3509.98730	4.54097
3508.05874	4.59626
3506.13018	4.63958
3504.20161	4.68245
3502.27305	4.73383
3500.34448	4.78484
3498.41592	4.82651
3496.48735	4.86611
3494.55879	4.91437
3492.63022	4.97100
3490.70166	5.02692
3488.77310	5.07448
3486.84453	5.11391
3484.91597	5.15183
3482.98740	5.19137
3481.05884	5.23306
3479.13027	5.28457
3477.20171	5.34702
3475.27314	5.40670
3473.34458	5.45536
3471.41602	5.49299
3469.48745	5.53389
3467.55889	5.58968
3465.63032	5.64117
3463.70176	5.68526
3461.77319	5.73883
3459.84463	5.79861
3457.91606	5.85139
3455.98750	5.89814
3454.05894	5.94844
3452.13037	6.00170
3450.20181	6.05184
3448.27324	6.09326
3446.34468	6.12519
3444.41611	6.16004
3442.48755	6.21324
3440.55898	6.27462
3438.63042	6.33040
3436.70186	6.36907
3434.77329	6.39559
3432.84473	6.43776
3430.91616	6.49116
3428.98760	6.54966
3427.05903	6.62328
3425.13047	6.70269
3423.20190	6.76139
3421.27334	6.79727
3419.34478	6.82520
3417.41621	6.85820
3415.48765	6.89927
3413.55908	6.94729
3411.63052	7.01018
3409.70195	7.07609
3407.77339	7.13299
3405.84482	7.14530
3403.91626	7.11893
3401.98770	7.12638
3400.05913	7.19379
3398.13057	7.26652
3396.20200	7.30398
3394.27344	7.33100
3392.34487	7.36149
3390.41631	7.42230
3388.48774	7.48737
3386.55918	7.50341
3384.63062	7.47669
3382.70205	7.47047
3380.77349	7.52176
3378.84492	7.57285
3376.91636	7.61251
3374.98779	7.68221
3373.05923	7.75892
3371.13066	7.78493
3369.20210	7.78816
3367.27354	7.76190
3365.34497	7.70455
3363.41641	7.68766
3361.48784	7.71525
3359.55928	7.75796
3357.63071	7.78505
3355.70215	7.80469
3353.77358	7.84753
3351.84502	7.92405
3349.91646	7.99624
3347.98789	8.01214
3346.05933	7.97417
3344.13076	7.97031
3342.20220	8.03949
3340.27363	8.10383
3338.34507	8.16708
3336.41650	8.19127
3334.48794	8.12971
3332.55937	8.07417
3330.63081	8.07884
3328.70225	8.10595
3326.77368	8.10160
3324.84512	8.09294
3322.91655	8.11807
3320.98799	8.11565
3319.05942	8.06737
3317.13086	8.05933
3315.20229	8.08835
3313.27373	8.12657
3311.34517	8.11752
3309.41660	8.04709
3307.48804	8.03752
3305.55947	8.12191
3303.63091	8.18866
3301.70234	8.16706
3299.77378	8.14322
3297.84521	8.10608
3295.91665	8.05675
3293.98809	8.09700
3292.05952	8.15324
3290.13096	8.06812
3288.20239	7.93102
3286.27383	7.90137
3284.34526	7.98496
3282.41670	8.08306
3280.48813	8.07932
3278.55957	8.05646
3276.63101	8.11324
3274.70244	8.18392
3272.77388	8.21390
3270.84531	8.21482
3268.91675	8.17382
3266.98818	8.08491
3265.05962	8.06419
3263.13105	8.12859
3261.20249	8.11460
3259.27393	8.01839
3257.34536	8.02840
3255.41680	8.13854
3253.48823	8.14643
3251.55967	8.08696
3249.63110	8.14483
3247.70254	8.25108
3245.77397	8.24188
3243.84541	8.18821
3241.91685	8.12652
3239.98828	8.03014
3238.05972	7.97470
3236.13115	7.99471
3234.20259	8.08524
3232.27402	8.20722
3230.34546	8.22222
3228.41689	8.13132
3226.48833	8.08085
3224.55977	8.08330
3222.63120	8.12232
3220.70264	8.20460
3218.77407	8.22087
3216.84551	8.07015
3214.91694	7.88792
3212.98838	7.79037
3211.05981	7.74870
3209.13125	7.75236
3207.20269	7.77944
3205.27412	7.77066
3203.34556	7.76665
3201.41699	7.80141
3199.48843	7.78688
3197.55986	7.71342
3195.63130	7.65837
3193.70273	7.61588
3191.77417	7.54973
3189.84561	7.47263
3187.91704	7.42650
3185.98848	7.40336
3184.05991	7.34849
3182.13135	7.27845
3180.20278	7.24934
3178.27422	7.23909
3176.34565	7.17802
3174.41709	7.06530
3172.48853	6.97621
3170.55996	6.92422
3168.63140	6.86383
3166.70283	6.78395
3164.77427	6.69820
3162.84570	6.63085
3160.91714	6.58992
3158.98857	6.55996
3157.06001	6.51689
3155.13145	6.44369
3153.20288	6.36561
3151.27432	6.29871
3149.34575	6.22391
3147.41719	6.15005
3145.48862	6.09193
3143.56006	6.03229
3141.63149	5.96091
3139.70293	5.88335
3137.77437	5.80481
3135.84580	5.72754
3133.91724	5.65536
3131.98867	5.59450
3130.06011	5.54036
3128.13154	5.47908
3126.20298	5.40969
3124.27441	5.34127
3122.34585	5.27137
3120.41729	5.19456
3118.48872	5.11448
3116.56016	5.04112
3114.63159	4.97872
3112.70303	4.91646
3110.77446	4.84491
3108.84590	4.77301
3106.91733	4.70824
3104.98877	4.64201
3103.06021	4.57368
3101.13164	4.50845
3099.20308	4.44282
3097.27451	4.37570
3095.34595	4.31027
3093.41738	4.24703
3091.48882	4.18313
3089.56025	4.11805
3087.63169	4.05545
3085.70312	3.99641
3083.77456	3.93741
3081.84600	3.87624
3079.91743	3.81548
3077.98887	3.75796
3076.06030	3.70232
3074.13174	3.64639
3072.20317	3.58943
3070.27461	3.53194
3068.34604	3.47534
3066.41748	3.41904
3064.48892	3.36294
3062.56035	3.30897
3060.63179	3.25705
3058.70322	3.20542
3056.77466	3.15289
3054.84609	3.09972
3052.91753	3.04704
3050.98896	2.99573
3049.06040	2.94708
3047.13184	2.90022
3045.20327	2.85220
3043.27471	2.80360
3041.34614	2.75661
3039.41758	2.71075
3037.48901	2.66504
3035.56045	2.61935
3033.63188	2.57394
3031.70332	2.52990
3029.77476	2.48760
3027.84619	2.44588
3025.91763	2.40367
3023.98906	2.36118
3022.06050	2.31994
3020.13193	2.28028
3018.20337	2.24106
3016.27480	2.20205
3014.34624	2.16357
3012.41768	2.12561
3010.48911	2.08836
3008.56055	2.05196
3006.63198	2.01602
3004.70342	1.98047
3002.77485	1.94555
3000.84629	1.91163
2998.91772	1.87909
2996.98916	1.84743
2995.06060	1.81584
2993.13203	1.78465
2991.20347	1.75461
2989.27490	1.72541
2987.34634	1.69634
2985.41777	1.66733
2983.48921	1.63904
2981.56064	1.61189
2979.63208	1.58504
2977.70352	1.55805
2975.77495	1.53168
2973.84639	1.50630
2971.91782	1.48138
2969.98926	1.45658
2968.06069	1.43217
2966.13213	1.40813
2964.20356	1.38406
2962.27500	1.36025
2960.34644	1.33714
2958.41787	1.31412
2956.48931	1.29058
2954.56074	1.26694
2952.63218	1.24365
2950.70361	1.22105
2948.77505	1.19918
2946.84648	1.17729
2944.91792	1.15537
2942.98936	1.13440
2941.06079	1.11458
2939.13223	1.09501
2937.20366	1.07513
2935.27510	1.05541
2933.34653	1.03628
2931.41797	1.01726
2929.48940	0.99812
2927.56084	0.97960
2925.63228	0.96180
2923.70371	0.94438
2921.77515	0.92754
2919.84658	0.91130
2917.91802	0.89542
2915.98945	0.87982
2914.06089	0.86405
2912.13232	0.84800
2910.20376	0.83263
2908.27520	0.81837
2906.34663	0.80453
2904.41807	0.79074
2902.48950	0.77711
2900.56094	0.76393
2898.63237	0.75129
2896.70381	0.73860
2894.77524	0.72570
2892.84668	0.71338
2890.91812	0.70186
2888.98955	0.69071
2887.06099	0.67986
2885.13242	0.66920
2883.20386	0.65882
2881.27529	0.64886
2879.34673	0.63888
2877.41816	0.62891
2875.48960	0.61962
2873.56104	0.61071
2871.63247	0.60104
2869.70391	0.59038
2867.77534	0.57940
2865.84678	0.56844
2863.91821	0.55724
2861.98965	0.54603
2860.06108	0.53568
2858.13252	0.52606
2856.20396	0.51659
2854.27539	0.50771
2852.34683	0.49967
2850.41826	0.49187
2848.48970	0.48386
2846.56113	0.47599
2844.63257	0.46879
2842.70400	0.46220
2840.77544	0.45607
2838.84687	0.45034
2836.91831	0.44459
2834.98975	0.43857
2833.06118	0.43246
2831.13262	0.42656
2829.20405	0.42096
2827.27549	0.41531
2825.34692	0.40943
2823.41836	0.40348
2821.48979	0.39764
2819.56123	0.39195
2817.63267	0.38635
2815.70410	0.38088
2813.77554	0.37549
2811.84697	0.37014
2809.91841	0.36482
2807.98984	0.35959
2806.06128	0.35461
2804.13271	0.34983
2802.20415	0.34494
2800.27559	0.33993
2798.34702	0.33507
2796.41846	0.33049
2794.48989	0.32609
2792.56133	0.32172
2790.63276	0.31735
2788.70420	0.31314
2786.77563	0.30898
2784.84707	0.30474
2782.91851	0.30070
2780.98994	0.29702
2779.06138	0.29338
2777.13281	0.28957
2775.20425	0.28569
2773.27568	0.28187
2771.34712	0.27820
2769.41855	0.27469
2767.48999	0.27123
2765.56143	0.26787
2763.63286	0.26456
2761.70430	0.26127
2759.77573	0.25814
2757.84717	0.25509
2755.91860	0.25194
2753.99004	0.24880
2752.06147	0.24591
2750.13291	0.24333
2748.20435	0.24073
2746.27578	0.23788
2744.34722	0.23493
2742.41865	0.23208
2740.49009	0.22949
2738.56152	0.22708
2736.63296	0.22471
2734.70439	0.22237
2732.77583	0.22000
2730.84727	0.21767
2728.91870	0.21553
2726.99014	0.21337
2725.06157	0.21110
2723.13301	0.20898
2721.20444	0.20712
2719.27588	0.20529
2717.34731	0.20333
2715.41875	0.20137
2713.49019	0.19959
2711.56162	0.19790
2709.63306	0.19614
2707.70449	0.19441
2705.77593	0.19284
2703.84736	0.19129
2701.91880	0.18973
2699.99023	0.18830
2698.06167	0.18686
2696.13311	0.18526
2694.20454	0.18373
2692.27598	0.18243
2690.34741	0.18126
2688.41885	0.18011
2686.49028	0.17889
2684.56172	0.17768
2682.63315	0.17658
2680.70459	0.17550
2678.77603	0.17439
2676.84746	0.17325
2674.91890	0.17209
2672.99033	0.17105
2671.06177	0.17012
2669.13320	0.16919
2667.20464	0.16828
2665.27607	0.16738
2663.34751	0.16656
2661.41895	0.16578
2659.49038	0.16493
2657.56182	0.16407
2655.63325	0.16341
2653.70469	0.16291
2651.77612	0.16231
2649.84756	0.16162
2647.91899	0.16095
2645.99043	0.16029
2644.06187	0.15961
2642.13330	0.15899
2640.20474	0.15851
2638.27617	0.15812
2636.34761	0.15771
2634.41904	0.15721
2632.49048	0.15671
2630.56191	0.15627
2628.63335	0.15595
2626.70479	0.15568
2624.77622	0.15546
2622.84766	0.15530
2620.91909	0.15501
2618.99053	0.15461
2617.06196	0.15434
2615.13340	0.15428
2613.20483	0.15421
2611.27627	0.15407
2609.34771	0.15390
2607.41914	0.15371
2605.49058	0.15357
2603.56201	0.15353
2601.63345	0.15356
2599.70488	0.15363
2597.77632	0.15369
2595.84775	0.15373
2593.91919	0.15370
2591.99062	0.15361
2590.06206	0.15366
2588.13350	0.15389
2586.20493	0.15409
2584.27637	0.15420
2582.34780	0.15431
2580.41924	0.15458
2578.49067	0.15498
2576.56211	0.15535
2574.63354	0.15557
2572.70498	0.15576
2570.77642	0.15611
2568.84785	0.15656
2566.91929	0.15699
2564.99072	0.15745
2563.06216	0.15786
2561.13359	0.15820
2559.20503	0.15857
2557.27646	0.15901
2555.34790	0.15948
2553.41934	0.15999
2551.49077	0.16049
2549.56221	0.16098
2547.63364	0.16151
2545.70508	0.16213
2543.77651	0.16269
2541.84795	0.16308
2539.91938	0.16352
2537.99082	0.16420
2536.06226	0.16501
2534.13369	0.16573
2532.20513	0.16634
2530.27656	0.16690
2528.34800	0.16742
2526.41943	0.16805
2524.49087	0.16882
2522.56230	0.16959
2520.63374	0.17032
2518.70518	0.17107
2516.77661	0.17186
2514.84805	0.17271
2512.91948	0.17354
2510.99092	0.17421
2509.06235	0.17478
2507.13379	0.17543
2505.20522	0.17620
2503.27666	0.17718
2501.34810	0.17821
2499.41953	0.17909
2497.49097	0.17989
2495.56240	0.18071
2493.63384	0.18160
2491.70527	0.18247
2489.77671	0.18331
2487.84814	0.18424
2485.91958	0.18517
2483.99102	0.18593
2482.06245	0.18660
2480.13389	0.18739
2478.20532	0.18831
2476.27676	0.18925
2474.34819	0.19019
2472.41963	0.19106
2470.49106	0.19179
2468.56250	0.19254
2466.63394	0.19344
2464.70537	0.19443
2462.77681	0.19537
2460.84824	0.19630
2458.91968	0.19730
2456.99111	0.19829
2455.06255	0.19915
2453.13398	0.19995
2451.20542	0.20081
2449.27686	0.20174
2447.34829	0.20267
2445.41973	0.20358
2443.49116	0.20464
2441.56260	0.20580
2439.63403	0.20686
2437.70547	0.20779
2435.77690	0.20876
2433.84834	0.20981
2431.91978	0.21081
2429.99121	0.21184
2428.06265	0.21296
2426.13408	0.21414
2424.20552	0.21530
2422.27695	0.21638
2420.34839	0.21739
2418.41982	0.21844
2416.49126	0.21957
2414.56270	0.22068
2412.63413	0.22168
2410.70557	0.22270
2408.77700	0.22391
2406.84844	0.22519
2404.91987	0.22634
2402.99131	0.22737
2401.06274	0.22840
2399.13418	0.22955
2397.20562	0.23087
2395.27705	0.23228
2393.34849	0.23355
2391.41992	0.23473
2389.49136	0.23632
2387.56279	0.23887
2385.63423	0.24305
2383.70566	0.24963
2381.77710	0.25885
2379.84854	0.27019
2377.91997	0.28307
2375.99141	0.29751
2374.06284	0.31395
2372.13428	0.33279
2370.20571	0.35355
2368.27715	0.37441
2366.34858	0.39408
2364.42002	0.41187
2362.49146	0.42553
2360.56289	0.43336
2358.63433	0.43513
2356.70576	0.42832
2354.77720	0.41194
2352.84863	0.39036
2350.92007	0.36916
2348.99150	0.35622
2347.06294	0.35676
2345.13437	0.37116
2343.20581	0.39024
2341.27725	0.39985
2339.34868	0.40059
2337.42012	0.39891
2335.49155	0.39698
2333.56299	0.39503
2331.63442	0.39382
2329.70586	0.39231
2327.77729	0.38890
2325.84873	0.38377
2323.92017	0.37834
2321.99160	0.37300
2320.06304	0.36672
2318.13447	0.35934
2316.20591	0.35269
2314.27734	0.34861
2312.34878	0.34662
2310.42021	0.34458
2308.49165	0.34129
2306.56309	0.33728
2304.63452	0.33355
2302.70596	0.33114
2300.77739	0.33007
2298.84883	0.32936
2296.92026	0.32867
2294.99170	0.32810
2293.06313	0.32751
2291.13457	0.32688
2289.20601	0.32641
2287.27744	0.32620
2285.34888	0.32629
2283.42031	0.32687
2281.49175	0.32831
2279.56318	0.33055
2277.63462	0.33310
2275.70605	0.33562
2273.77749	0.33789
2271.84893	0.33993
2269.92036	0.34193
2267.99180	0.34394
2266.06323	0.34586
2264.13467	0.34763
2262.20610	0.34939
2260.27754	0.35120
2258.34897	0.35297
2256.42041	0.35464
2254.49185	0.35626
2252.56328	0.35797
2250.63472	0.35973
2248.70615	0.36156
2246.77759	0.36354
2244.84902	0.36558
2242.92046	0.36753
2240.99189	0.36944
2239.06333	0.37138
2237.13477	0.37341
2235.20620	0.37551
2233.27764	0.37761
2231.34907	0.37982
2229.42051	0.38214
2227.49194	0.38449
2225.56338	0.38674
2223.63481	0.38885
2221.70625	0.39094
2219.77769	0.39308
2217.84912	0.39513
2215.92056	0.39709
2213.99199	0.39917
2212.06343	0.40144
2210.13486	0.40363
2208.20630	0.40565
2206.27773	0.40771
2204.34917	0.40981
2202.42061	0.41183
2200.49204	0.41387
2198.56348	0.41598
2196.63491	0.41798
2194.70635	0.41986
2192.77778	0.42176
2190.84922	0.42366
2188.92065	0.42549
2186.99209	0.42730
2185.06353	0.42906
2183.13496	0.43074
2181.20640	0.43241
2179.27783	0.43404
2177.34927	0.43558
2175.42070	0.43708
2173.49214	0.43857
2171.56357	0.44003
2169.63501	0.44141
2167.70645	0.44274
2165.77788	0.44408
2163.84932	0.44539
2161.92075	0.44659
2159.99219	0.44767
2158.06362	0.44868
2156.13506	0.44972
2154.20649	0.45070
2152.27793	0.45157
2150.34937	0.45237
2148.42080	0.45313
2146.49224	0.45382
2144.56367	0.45442
2142.63511	0.45494
2140.70654	0.45529
2138.77798	0.45548
2136.84941	0.45567
2134.92085	0.45590
2132.99229	0.45601
2131.06372	0.45594
2129.13516	0.45577
2127.20659	0.45561
2125.27803	0.45547
2123.34946	0.45520
2121.42090	0.45479
2119.49233	0.45437
2117.56377	0.45388
2115.63521	0.45320
2113.70664	0.45242
2111.77808	0.45172
2109.84951	0.45105
2107.92095	0.45022
2105.99238	0.44923
2104.06382	0.44814
2102.13525	0.44681
2100.20669	0.44535
2098.27812	0.44393
2096.34956	0.44255
2094.42100	0.44116
2092.49243	0.43979
2090.56387	0.43841
2088.63530	0.43685
2086.70674	0.43510
2084.77817	0.43329
2082.84961	0.43149
2080.92104	0.42969
2078.99248	0.42787
2077.06392	0.42594
2075.13535	0.42383
2073.20679	0.42164
2071.27822	0.41946
2069.34966	0.41730
2067.42109	0.41520
2065.49253	0.41316
2063.56396	0.41090
2061.63540	0.40841
2059.70684	0.40590
2057.77827	0.40341
2055.84971	0.40090
2053.92114	0.39837
2051.99258	0.39586
2050.06401	0.39336
2048.13545	0.39085
2046.20688	0.38829
2044.27832	0.38574
2042.34976	0.38322
2040.42119	0.38065
2038.49263	0.37794
2036.56406	0.37516
2034.63550	0.37244
2032.70693	0.36974
2030.77837	0.36701
2028.84980	0.36433
2026.92124	0.36169
2024.99268	0.35903
2023.06411	0.35632
2021.13555	0.35360
2019.20698	0.35107
2017.27842	0.34860
2015.34985	0.34585
2013.42129	0.34298
2011.49272	0.34023
2009.56416	0.33754
2007.63560	0.33476
2005.70703	0.33194
2003.77847	0.32917
2001.84990	0.32658
1999.92134	0.32415
1997.99277	0.32168
1996.06421	0.31921
1994.13564	0.31704
1992.20708	0.31502
1990.27852	0.31252
1988.34995	0.30964
1986.42139	0.30681
1984.49282	0.30420
1982.56426	0.30177
1980.63569	0.29939
1978.70713	0.29712
1976.77856	0.29497
1974.85000	0.29284
1972.92144	0.29069
1970.99287	0.28863
1969.06431	0.28690
1967.13574	0.28527
1965.20718	0.28317
1963.27861	0.28083
1961.35005	0.27873
1959.42148	0.27676
1957.49292	0.27484
1955.56436	0.27309
1953.63579	0.27135
1951.70723	0.26949
1949.77866	0.26770
1947.85010	0.26615
1945.92153	0.26496
1943.99297	0.26414
1942.06440	0.26312
1940.13584	0.26118
1938.20728	0.25894
1936.27871	0.25720
1934.35015	0.25587
1932.42158	0.25471
1930.49302	0.25350
1928.56445	0.25229
1926.63589	0.25136
1924.70732	0.25098
1922.77876	0.25072
1920.85020	0.24982
1918.92163	0.24873
1916.99307	0.24763
1915.06450	0.24609
1913.13594	0.24477
1911.20737	0.24429
1909.27881	0.24403
1907.35024	0.24320
1905.42168	0.24207
1903.49312	0.24123
1901.56455	0.24057
1899.63599	0.24003
1897.70742	0.23984
1895.77886	0.23991
1893.85029	0.23974
1891.92173	0.23941
1889.99316	0.23944
1888.06460	0.23913
1886.13604	0.23827
1884.20747	0.23765
1882.27891	0.23734
1880.35034	0.23712
1878.42178	0.23700
1876.49321	0.23697
1874.56465	0.23698
1872.63608	0.23732
1870.70752	0.23858
1868.77896	0.24048
1866.85039	0.24070
1864.92183	0.23911
1862.99326	0.23803
1861.06470	0.23808
1859.13613	0.23858
1857.20757	0.23888
1855.27900	0.23914
1853.35044	0.23952
1851.42187	0.24011
1849.49331	0.24101
1847.56475	0.24241
1845.63618	0.24429
1843.70762	0.24585
1841.77905	0.24575
1839.85049	0.24512
1837.92192	0.24552
1835.99336	0.24641
1834.06479	0.24726
1832.13623	0.24875
1830.20767	0.25133
1828.27910	0.25323
1826.35054	0.25384
1824.42197	0.25465
1822.49341	0.25520
1820.56484	0.25565
1818.63628	0.25672
1816.70771	0.25831
1814.77915	0.25998
1812.85059	0.26212
1810.92202	0.26483
1808.99346	0.26700
1807.06489	0.26844
1805.13633	0.27000
1803.20776	0.27248
1801.27920	0.27573
1799.35063	0.27885
1797.42207	0.28118
1795.49351	0.28376
1793.56494	0.28746
1791.63638	0.29166
1789.70781	0.29394
1787.77925	0.29505
1785.85068	0.29762
1783.92212	0.30135
1781.99355	0.30555
1780.06499	0.31004
1778.13643	0.31436
1776.20786	0.31859
1774.27930	0.32400
1772.35073	0.33128
1770.42217	0.33738
1768.49360	0.34104
1766.56504	0.34480
1764.63647	0.34958
1762.70791	0.35582
1760.77935	0.36364
1758.85078	0.37039
1756.92222	0.37714
1754.99365	0.38458
1753.06509	0.39184
1751.13652	0.40164
1749.20796	0.41387
1747.27939	0.42439
1745.35083	0.43267
1743.42227	0.44161
1741.49370	0.45178
1739.56514	0.46385
1737.63657	0.47606
1735.70801	0.48759
1733.77944	0.50522
1731.85088	0.52425
1729.92231	0.53784
1727.99375	0.55181
1726.06519	0.56767
1724.13662	0.58602
1722.20806	0.60620
1720.27949	0.62526
1718.35093	0.64882
1716.42236	0.68284
1714.49380	0.71214
1712.56523	0.73438
1710.63667	0.75673
1708.70811	0.78217
1706.77954	0.81215
1704.85098	0.84796
1702.92241	0.87948
1700.99385	0.91109
1699.06528	0.95881
1697.13672	1.00195
1695.20815	1.04424
1693.27959	1.08452
1691.35103	1.11802
1689.42246	1.15867
1687.49390	1.20204
1685.56533	1.24385
1683.63677	1.30845
1681.70820	1.37389
1679.77964	1.41426
1677.85107	1.45332
1675.92251	1.49967
1673.99395	1.55822
1672.06538	1.61059
1670.13682	1.66161
1668.20825	1.72665
1666.27969	1.77860
1664.35112	1.82424
1662.42256	1.88415
1660.49399	1.95075
1658.56543	2.00051
1656.63687	2.04144
1654.70830	2.08202
1652.77974	2.14634
1650.85117	2.20408
1648.92261	2.22402
1646.99404	2.25081
1645.06548	2.27878
1643.13691	2.29422
1641.20835	2.30180
1639.27979	2.31028
1637.35122	2.31874
1635.42266	2.32237
1633.49409	2.31231
1631.56553	2.29466
1629.63696	2.27619
1627.70840	2.24737
1625.77983	2.21429
1623.85127	2.17401
1621.92271	2.12307
1619.99414	2.07616
1618.06558	2.03147
1616.13701	1.96771
1614.20845	1.90105
1612.27988	1.85056
1610.35132	1.79875
1608.42275	1.74229
1606.49419	1.68615
1604.56562	1.63445
1602.63706	1.58469
1600.70850	1.53624
1598.77993	1.49187
1596.85137	1.45033
1594.92280	1.40984
1592.99424	1.37089
1591.06567	1.33589
1589.13711	1.30340
1587.20854	1.27303
1585.27998	1.24494
1583.35142	1.21882
1581.42285	1.19523
1579.49429	1.17557
1577.56572	1.15905
1575.63716	1.13896
1573.70859	1.11942
1571.78003	1.10664
1569.85146	1.09487
1567.92290	1.08132
1565.99434	1.07066
1564.06577	1.06329
1562.13721	1.05859
1560.20864	1.05784
1558.28008	1.05914
1556.35151	1.05626
1554.42295	1.05279
1552.49438	1.05037
1550.56582	1.04732
1548.63726	1.04219
1546.70869	1.03603
1544.78013	1.02947
1542.85156	1.02150
1540.92300	1.00755
1538.99443	0.97988
1537.06587	0.95760
1535.13730	0.94402
1533.20874	0.92735
1531.28018	0.90838
1529.35161	0.89449
1527.42305	0.88261
1525.49448	0.87067
1523.56592	0.86062
1521.63735	0.85093
1519.70879	0.83966
1517.78022	0.82986
1515.85166	0.81899
1513.92310	0.80711
1511.99453	0.79735
1510.06597	0.79002
1508.13740	0.78421
1506.20884	0.77162
1504.28027	0.75654
1502.35171	0.74808
1500.42314	0.74236
1498.49458	0.73716
1496.56602	0.73029
1494.63745	0.72207
1492.70889	0.71605
1490.78032	0.71248
1488.85176	0.70817
1486.92319	0.70169
1484.99463	0.69575
1483.06606	0.69164
1481.13750	0.68875
1479.20894	0.68661
1477.28037	0.68574
1475.35181	0.68633
1473.42324	0.68733
1471.49468	0.68559
1469.56611	0.68133
1467.63755	0.67812
1465.70898	0.67657
1463.78042	0.67524
1461.85186	0.67391
1459.92329	0.67420
1457.99473	0.67634
1456.06616	0.67620
1454.13760	0.67192
1452.20903	0.66798
1450.28047	0.66513
1448.35190	0.66300
1446.42334	0.66045
1444.49478	0.65741
1442.56621	0.65462
1440.63765	0.65221
1438.70908	0.65051
1436.78052	0.64895
1434.85195	0.64591
1432.92339	0.64259
1430.99482	0.64046
1429.06626	0.63922
1427.13770	0.63859
1425.20913	0.63894
1423.28057	0.63981
1421.35200	0.64045
1419.42344	0.64130
1417.49487	0.64130
1415.56631	0.63943
1413.63774	0.63772
1411.70918	0.63707
1409.78062	0.63723
1407.85205	0.63793
1405.92349	0.63918
1403.99492	0.64008
1402.06636	0.63997
1400.13779	0.63986
1398.20923	0.63955
1396.28066	0.63788
1394.35210	0.63448
1392.42354	0.62982
1390.49497	0.62560
1388.56641	0.62233
1386.63784	0.61856
1384.70928	0.61369
1382.78071	0.60904
1380.85215	0.60519
1378.92358	0.60216
1376.99502	0.60014
1375.06646	0.59894
1373.13789	0.59746
1371.20933	0.59556
1369.28076	0.59418
1367.35220	0.59308
1365.42363	0.59200
1363.49507	0.59126
1361.56650	0.58996
1359.63794	0.58770
1357.70937	0.58593
1355.78081	0.58499
1353.85225	0.58429
1351.92368	0.58359
1349.99512	0.58298
1348.06655	0.58231
1346.13799	0.58141
1344.20942	0.58058
1342.28086	0.58028
1340.35229	0.58054
1338.42373	0.58035
1336.49517	0.57913
1334.56660	0.57781
1332.63804	0.57714
1330.70947	0.57706
1328.78091	0.57726
1326.85234	0.57764
1324.92378	0.57820
1322.99521	0.57889
1321.06665	0.57960
1319.13809	0.58021
1317.20952	0.58043
1315.28096	0.58027
1313.35239	0.57997
1311.42383	0.57948
1309.49526	0.57880
1307.56670	0.57804
1305.63813	0.57717
1303.70957	0.57635
1301.78101	0.57570
1299.85244	0.57492
1297.92388	0.57390
1295.99531	0.57281
1294.06675	0.57177
1292.13818	0.57066
1290.20962	0.56952
1288.28105	0.56850
1286.35249	0.56745
1284.42393	0.56628
1282.49536	0.56518
1280.56680	0.56410
1278.63823	0.56292
1276.70967	0.56182
1274.78110	0.56089
1272.85254	0.56016
1270.92397	0.55958
1268.99541	0.55892
1267.06685	0.55815
1265.13828	0.55735
1263.20972	0.55667
1261.28115	0.55616
1259.35259	0.55556
1257.42402	0.55477
1255.49546	0.55420
1253.56689	0.55405
1251.63833	0.55416
1249.70977	0.55428
1247.78120	0.55429
1245.85264	0.55423
1243.92407	0.55397
1241.99551	0.55322
1240.06694	0.55200
1238.13838	0.55051
1236.20981	0.54886
1234.28125	0.54705
1232.35269	0.54519
1230.42412	0.54339
1228.49556	0.54167
1226.56699	0.54008
1224.63843	0.53864
1222.70986	0.53724
1220.78130	0.53580
1218.85273	0.53443
1216.92417	0.53332
1214.99561	0.53238
1213.06704	0.53144
1211.13848	0.53056
1209.20991	0.53000
1207.28135	0.52964
1205.35278	0.52906
1203.42422	0.52817
1201.49565	0.52713
1199.56709	0.52617
1197.63853	0.52548
1195.70996	0.52499
1193.78140	0.52457
1191.85283	0.52411
1189.92427	0.52366
1187.99570	0.52343
1186.06714	0.52346
1184.13857	0.52365
1182.21001	0.52393
1180.28145	0.52444
1178.35288	0.52540
1176.42432	0.52660
1174.49575	0.52758
1172.56719	0.52819
1170.63862	0.52852
1168.71006	0.52860
1166.78149	0.52846
1164.85293	0.52820
1162.92437	0.52792
1160.99580	0.52756
1159.06724	0.52702
1157.13867	0.52617
1155.21011	0.52494
1153.28154	0.52350
1151.35298	0.52204
1149.42441	0.52034
1147.49585	0.51822
1145.56729	0.51580
1143.63872	0.51339
1141.71016	0.51124
1139.78159	0.50934
1137.85303	0.50771
1135.92446	0.50640
1133.99590	0.50552
1132.06733	0.50500
1130.13877	0.50449
1128.21021	0.50376
1126.28164	0.50287
1124.35308	0.50195
1122.42451	0.50116
1120.49595	0.50069
1118.56738	0.50048
1116.63882	0.50036
1114.71025	0.50015
1112.78169	0.49978
1110.85312	0.49968
1108.92456	0.50026
1106.99600	0.50139
1105.06743	0.50274
1103.13887	0.50416
1101.21030	0.50584
1099.28174	0.50795
1097.35317	0.51036
1095.42461	0.51327
1093.49604	0.51698
1091.56748	0.52130
1089.63892	0.52595
1087.71035	0.53096
1085.78179	0.53683
1083.85322	0.54362
1081.92466	0.55013
1079.99609	0.55515
1078.06753	0.55829
1076.13896	0.55927
1074.21040	0.55750
1072.28184	0.55315
1070.35327	0.54716
1068.42471	0.54032
1066.49614	0.53341
1064.56758	0.52710
1062.63901	0.52156
1060.71045	0.51668
1058.78188	0.51232
1056.85332	0.50833
1054.92476	0.50465
1052.99619	0.50125
1051.06763	0.49828
1049.13906	0.49606
1047.21050	0.49447
1045.28193	0.49291
1043.35337	0.49127
1041.42480	0.48992
1039.49624	0.48894
1037.56768	0.48821
1035.63911	0.48777
1033.71055	0.48750
1031.78198	0.48718
1029.85342	0.48690
1027.92485	0.48669
1025.99629	0.48653
1024.06772	0.48642
1022.13916	0.48628
1020.21060	0.48621
1018.28203	0.48665
1016.35347	0.48771
1014.42490	0.48901
1012.49634	0.49013
1010.56777	0.49111
1008.63921	0.49219
1006.71064	0.49365
1004.78208	0.49559
1002.85352	0.49784
1000.92495	0.50035
998.99639	0.50334
997.06782	0.50701
995.13926	0.51110
993.21069	0.51497
991.28213	0.51812
989.35356	0.52057
987.42500	0.52239
985.49644	0.52359
983.56787	0.52436
981.63931	0.52504
979.71074	0.52595
977.78218	0.52728
975.85361	0.52921
973.92505	0.53182
971.99648	0.53488
970.06792	0.53819
968.13936	0.54184
966.21079	0.54589
964.28223	0.55031
962.35366	0.55517
960.42510	0.56032
958.49653	0.56539
956.56797	0.57051
954.63940	0.57621
952.71084	0.58245
950.78228	0.58878
948.85371	0.59510
946.92515	0.60155
944.99658	0.60795
943.06802	0.61408
941.13945	0.61994
939.21089	0.62561
937.28232	0.63117
935.35376	0.63686
933.42520	0.64250
931.49663	0.64783
929.56807	0.65323
927.63950	0.65896
925.71094	0.66497
923.78237	0.67112
921.85381	0.67695
919.92524	0.68239
917.99668	0.68828
916.06812	0.69523
914.13955	0.70293
912.21099	0.71065
910.28242	0.71819
908.35386	0.72620
906.42529	0.73508
904.49673	0.74448
902.56816	0.75393
900.63960	0.76276
898.71104	0.77044
896.78247	0.77850
894.85391	0.78837
892.92534	0.79871
890.99678	0.80823
889.06821	0.81785
887.13965	0.82815
885.21108	0.83922
883.28252	0.85150
881.35396	0.86370
879.42539	0.87471
877.49683	0.88556
875.56826	0.89700
873.63970	0.90929
871.71113	0.92173
869.78257	0.93254
867.85400	0.94222
865.92544	0.95288
863.99687	0.96460
862.06831	0.97655
860.13975	0.98855
858.21118	1.00087
856.28262	1.01224
854.35405	1.02235
852.42549	1.03308
850.49692	1.04433
848.56836	1.05579
846.63979	1.06725
844.71123	1.07816
842.78267	1.09027
840.85410	1.10449
838.92554	1.11764
836.99697	1.12704
835.06841	1.13452
833.13984	1.14402
831.21128	1.15720
829.28271	1.17065
827.35415	1.18019
825.42559	1.18979
823.49702	1.20539
821.56846	1.22073
819.63989	1.23232
817.71133	1.24740
815.78276	1.26282
813.85420	1.27039
811.92563	1.27527
809.99707	1.28571
808.06851	1.30125
806.13994	1.31457
804.21138	1.32093
802.28281	1.32492
800.35425	1.32104
798.42568	1.31119
796.49712	1.31733
794.56855	1.34684
792.63999	1.38169
790.71143	1.40430
788.78286	1.44969
786.85430	1.50678
784.92573	1.48438
782.99717	1.44856
781.06860	1.43621
779.14004	1.36566
777.21147	1.28699
775.28291	1.26571
773.35435	1.28171
771.42578	1.32351
769.49722	1.34672
767.56865	1.30719
765.64009	1.29022
763.71152	1.32881
761.78296	1.38494
759.85439	1.43349
757.92583	1.45068
755.99727	1.46122
754.06870	1.44420
752.14014	1.34776
750.21157	1.22942
748.28301	1.14700
746.35444	1.17179
744.42588	1.26801
742.49731	1.31241
740.56875	1.31048
738.64019	1.23379
736.71162	1.15210
734.78306	1.12804
732.85449	1.05870
730.92593	0.94596
728.99736	0.75051
727.06880	0.48664
725.14023	0.32633
723.21167	0.29689
721.28311	0.27056
719.35454	0.20994
717.42598	0.18604
715.49741	0.23969
713.56885	0.25992
711.64028	0.12131
709.71172	-0.12538
707.78315	-0.22744
705.85459	-0.13775
703.92603	0.07217
701.99746	0.31242
700.06890	0.39329
698.14033	0.24982
696.21177	0.12150
694.28320	0.06676
692.35464	0.06043
690.42607	0.09431
688.49751	0.22023
686.56895	0.53584
684.64038	0.97858
682.71182	0.63600
680.78325	0.44753
678.85469	0.37887
676.92612	0.28604
674.99756	0.19064
673.06899	0.26664
671.14043	0.44833
669.21187	0.38505
667.28330	0.30671
665.35474	0.35750
663.42617	0.32415
661.49761	0.17802
659.56904	0.14398
657.64048	0.22385
655.71191	0.26248
653.78335	0.24072
651.85479	0.20438
649.92622	0.14074
647.99766	0.14487
646.06909	0.20996
644.14053	0.24824
642.21196	0.25688
640.28340	0.30014
638.35483	0.30162
636.42627	0.20657
634.49771	0.15836
632.56914	0.23680
630.64058	0.43703
628.71201	0.48933
626.78345	0.30407
624.85488	0.22875
622.92632	0.27775
620.99775	0.30709
619.06919	0.24442
617.14062	0.26228
615.21206	0.43272
613.28350	0.55688
611.35493	0.38723
609.42637	0.20964
607.49780	0.14674
605.56924	0.19741
603.64067	0.34329
601.71211	0.55936
599.78354	0.69947
597.85498	0.46814
595.92642	0.39157
593.99785	0.54425
592.06929	0.57155
590.14072	0.38762
588.21216	0.32914
586.28359	0.31926
584.35503	0.26144
582.42646	0.16458
580.49790	0.09909
578.56934	0.11690
576.64077	0.18603
574.71221	0.25766
572.78364	0.25861
570.85508	0.20974
568.92651	0.20883
566.99795	0.28750
565.06938	0.33200
563.14082	0.26007
561.21226	0.14447
559.28369	0.04293
557.35513	0.03275
555.42656	0.11336
553.49800	0.22409
551.56943	0.26522
549.64087	0.24290
547.71230	0.25249
545.78374	0.30485
543.85518	0.38856
541.92661	0.62946
539.99805	3.23999
538.06948	0.65032
536.14092	0.32356
534.21235	0.28297
532.28379	0.29528
530.35522	0.30508
528.42666	0.25489
526.49810	0.18311
524.56953	0.17848
522.64097	0.21168
520.71240	0.24902
518.78384	0.28982
516.85527	0.30114
514.92671	0.29830
512.99814	0.32519
511.06958	0.35458
509.14102	0.31501
507.21245	0.25284
505.28389	0.27081
503.35532	0.30255
501.42676	0.25064
499.49819	0.18299
