3997.91411	0.06647
3995.98555	0.06705
3994.05698	0.06753
3992.12842	0.06779
3990.19985	0.06797
3988.27129	0.06817
3986.34272	0.06851
3984.41416	0.06896
3982.48560	0.06928
3980.55703	0.06959
3978.62847	0.07002
3976.69990	0.07053
3974.77134	0.07097
3972.84277	0.07098
3970.91421	0.07065
3968.98564	0.07040
3967.05708	0.07041
3965.12852	0.07062
3963.19995	0.07083
3961.27139	0.07111
3959.34282	0.07163
3957.41426	0.07204
3955.48569	0.07212
3953.55713	0.07216
3951.62856	0.07245
3949.70000	0.07311
3947.77144	0.07369
3945.84287	0.07347
3943.91431	0.07329
3941.98574	0.07366
3940.05718	0.07318
3938.12861	0.07199
3936.20005	0.07156
3934.27148	0.07245
3932.34292	0.07410
3930.41436	0.07509
3928.48579	0.07492
3926.55723	0.07465
3924.62866	0.07488
3922.70010	0.07473
3920.77153	0.07391
3918.84297	0.07362
3916.91440	0.07406
3914.98584	0.07367
3913.05728	0.07205
3911.12871	0.07066
3909.20015	0.07020
3907.27158	0.07103
3905.34302	0.07396
3903.41445	0.07812
3901.48589	0.08023
3899.55732	0.07931
3897.62876	0.07691
3895.70020	0.07448
3893.77163	0.07372
3891.84307	0.07528
3889.91450	0.07664
3887.98594	0.07600
3886.05737	0.07606
3884.12881	0.07731
3882.20024	0.07794
3880.27168	0.07830
3878.34312	0.07722
3876.41455	0.07480
3874.48599	0.07461
3872.55742	0.07730
3870.62886	0.08059
3868.70029	0.08215
3866.77173	0.08126
3864.84316	0.08116
3862.91460	0.08206
3860.98604	0.08082
3859.05747	0.07880
3857.12891	0.07870
3855.20034	0.08139
3853.27178	0.08722
3851.34321	0.08985
3849.41465	0.08541
3847.48608	0.08144
3845.55752	0.08030
3843.62896	0.08185
3841.70039	0.08526
3839.77183	0.08907
3837.84326	0.09187
3835.91470	0.09198
3833.98613	0.09023
3832.05757	0.08866
3830.12900	0.08763
3828.20044	0.08736
3826.27187	0.08838
3824.34331	0.09013
3822.41475	0.09289
3820.48618	0.09738
3818.55762	0.09938
3816.62905	0.09833
3814.70049	0.09669
3812.77192	0.09401
3810.84336	0.09220
3808.91479	0.09302
3806.98623	0.09644
3805.05767	0.09977
3803.12910	0.10191
3801.20054	0.10517
3799.27197	0.10702
3797.34341	0.10600
3795.41484	0.10520
3793.48628	0.10435
3791.55771	0.10339
3789.62915	0.10335
3787.70059	0.10451
3785.77202	0.10691
3783.84346	0.10963
3781.91489	0.11169
3779.98633	0.11409
3778.05776	0.11653
3776.12920	0.11693
3774.20063	0.11674
3772.27207	0.11835
3770.34351	0.12241
3768.41494	0.12691
3766.48638	0.12902
3764.55781	0.12980
3762.62925	0.13059
3760.70068	0.13260
3758.77212	0.13657
3756.84355	0.14024
3754.91499	0.14259
3752.98643	0.14628
3751.05786	0.15314
3749.12930	0.15996
3747.20073	0.16200
3745.27217	0.16313
3743.34360	0.16641
3741.41504	0.16969
3739.48647	0.17292
3737.55791	0.17865
3735.62935	0.18782
3733.70078	0.19674
3731.77222	0.20025
3729.84365	0.20157
3727.91509	0.20470
3725.98652	0.21078
3724.05796	0.21804
3722.12939	0.22388
3720.20083	0.22856
3718.27227	0.23307
3716.34370	0.23787
3714.41514	0.24398
3712.48657	0.25488
3710.55801	0.27276
3708.62944	0.28923
3706.70088	0.29935
3704.77231	0.30914
3702.84375	0.32240
3700.91519	0.33987
3698.98662	0.35796
3697.05806	0.37476
3695.12949	0.39331
3693.20093	0.41380
3691.27236	0.43670
3689.34380	0.46667
3687.41523	0.50167
3685.48667	0.52975
3683.55811	0.55359
3681.62954	0.58107
3679.70098	0.61413
3677.77241	0.65011
3675.84385	0.69235
3673.91528	0.74650
3671.98672	0.78925
3670.05815	0.82835
3668.12959	0.88196
3666.20103	0.92859
3664.27246	0.96719
3662.34390	1.01025
3660.41533	1.05800
3658.48677	1.10594
3656.55820	1.15771
3654.62964	1.21511
3652.70107	1.26304
3650.77251	1.30637
3648.84395	1.36756
3646.91538	1.43883
3644.98682	1.48701
3643.05825	1.52336
3641.12969	1.56204
3639.20112	1.60622
3637.27256	1.65166
3635.34399	1.69639
3633.41543	1.74164
3631.48687	1.78485
3629.55830	1.82888
3627.62974	1.88449
3625.70117	1.93439
3623.77261	1.96713
3621.84404	1.99897
3619.91548	2.03731
3617.98691	2.08452
3616.05835	2.12867
3614.12979	2.16513
3612.20122	2.20437
3610.27266	2.24394
3608.34409	2.28390
3606.41553	2.32604
3604.48696	2.36359
3602.55840	2.39737
3600.62983	2.43623
3598.70127	2.47911
3596.77271	2.51990
3594.84414	2.56102
3592.91558	2.60334
3590.98701	2.64202
3589.05845	2.67732
3587.12988	2.71969
3585.20132	2.76600
3583.27275	2.80485
3581.34419	2.84154
3579.41562	2.88157
3577.48706	2.92485
3575.55850	2.96935
3573.62993	3.01411
3571.70137	3.05725
3569.77280	3.09864
3567.84424	3.14182
3565.91567	3.19398
3563.98711	3.24423
3562.05854	3.28403
3560.12998	3.32254
3558.20142	3.36245
3556.27285	3.40392
3554.34429	3.44787
3552.41572	3.49645
3550.48716	3.54662
3548.55859	3.59233
3546.63003	3.63594
3544.70146	3.68549
3542.77290	3.73758
3540.84434	3.78370
3538.91577	3.82637
3536.98721	3.87052
3535.05864	3.91936
3533.13008	3.96806
3531.20151	4.01367
3529.27295	4.06129
3527.34438	4.11274
3525.41582	4.16263
3523.48726	4.21101
3521.55869	4.26085
3519.63013	4.30864
3517.70156	4.35416
3515.77300	4.39878
3513.84443	4.44570
3511.91587	4.49661
3509.98730	4.55008
3508.05874	4.60081
3506.13018	4.64052
3504.20161	4.67681
3502.27305	4.72654
3500.34448	4.78571
3498.41592	4.83550
3496.48735	4.87656
3494.55879	4.91927
3492.63022	4.96453
3490.70166	5.00834
3488.77310	5.05389
3486.84453	5.10894
3484.91597	5.16778
3482.98740	5.21694
3481.05884	5.25900
3479.13027	5.30227
3477.20171	5.34811
3475.27314	5.39983
3473.34458	5.45502
3471.41602	5.50260
3469.48745	5.54296
3467.55889	5.58737
3465.63032	5.64093
3463.70176	5.69765
3461.77319	5.74783
3459.84463	5.79333
3457.91606	5.84411
3455.98750	5.90726
3454.05894	5.96604
3452.13037	6.00057
3450.20181	6.02603
3448.27324	6.06152
3446.34468	6.11558
3444.41611	6.18148
3442.48755	6.23736
3440.55898	6.28529
3438.63042	6.35199
3436.70186	6.42236
3434.77329	6.47070
3432.84473	6.51364
3430.91616	6.56102
3428.98760	6.61043
3427.05903	6.65510
3425.13047	6.69343
3423.20190	6.72559
3421.27334	6.76649
3419.34478	6.82539
3417.41621	6.88202
3415.48765	6.92595
3413.55908	6.96609
3411.63052	7.00879
3409.70195	7.04360
3407.77339	7.07224
3405.84482	7.09796
3403.91626	7.13915
3401.98770	7.19247
3400.05913	7.23692
3398.13057	7.28247
3396.20200	7.34045
3394.27344	7.39711
3392.34487	7.41870
3390.41631	7.44365
3388.48774	7.48858
3386.55918	7.50419
3384.63062	7.50389
3382.70205	7.56171
3380.77349	7.63570
3378.84492	7.64289
3376.91636	7.64357
3374.98779	7.68132
3373.05923	7.76700
3371.13066	7.84083
3369.20210	7.83286
3367.27354	7.80263
3365.34497	7.81045
3363.41641	7.83363
3361.48784	7.84254
3359.55928	7.85462
3357.63071	7.90007
3355.70215	7.98905
3353.77358	8.03212
3351.84502	8.03143
3349.91646	8.06540
3347.98789	8.08402
3346.05933	8.03519
3344.13076	7.99783
3342.20220	8.02541
3340.27363	8.04667
3338.34507	8.03393
3336.41650	7.98879
3334.48794	7.95351
3332.55937	7.98668
3330.63081	8.06586
3328.70225	8.11658
3326.77368	8.12746
3324.84512	8.16893
3322.91655	8.21912
3320.98799	8.19265
3319.05942	8.10834
3317.13086	8.04896
3315.20229	7.99807
3313.27373	7.95659
3311.34517	7.97835
3309.41660	8.06564
3307.48804	8.14315
3305.55947	8.13218
3303.63091	8.14154
3301.70234	8.22467
3299.77378	8.24133
3297.84521	8.18313
3295.91665	8.18805
3293.98809	8.22551
3292.05952	8.19148
3290.13096	8.15017
3288.20239	8.21980
3286.27383	8.36655
3284.34526	8.39299
3282.41670	8.23032
3280.48813	8.06730
3278.55957	8.06477
3276.63101	8.16914
3274.70244	8.23989
3272.77388	8.25613
3270.84531	8.29206
3268.91675	8.32068
3266.98818	8.29566
3265.05962	8.29936
3263.13105	8.33997
3261.20249	8.37848
3259.27393	8.33663
3257.34536	8.21334
3255.41680	8.13135
3253.48823	8.09712
3251.55967	8.07670
3249.63110	8.09373
3247.70254	8.12203
3245.77397	8.11323
3243.84541	8.16641
3241.91685	8.31307
3239.98828	8.40372
3238.05972	8.39672
3236.13115	8.39428
3234.20259	8.36908
3232.27402	8.22937
3230.34546	8.08006
3228.41689	8.03558
3226.48833	8.10130
3224.55977	8.17073
3222.63120	8.11904
3220.70264	8.01779
3218.77407	7.98294
3216.84551	8.00596
3214.91694	8.00920
3212.98838	7.96896
3211.05981	7.90518
3209.13125	7.83145
3207.20269	7.75566
3205.27412	7.68399
3203.34556	7.63869
3201.41699	7.60016
3199.48843	7.56867
3197.55986	7.59199
3195.63130	7.63359
3193.70273	7.62192
3191.77417	7.57643
3189.84561	7.54814
3187.91704	7.50594
3185.98848	7.41703
3184.05991	7.32829
3182.13135	7.24674
3180.20278	7.15908
3178.27422	7.12118
3176.34565	7.13868
3174.41709	7.11081
3172.48853	7.01973
3170.55996	6.93024
3168.63140	6.86788
3166.70283	6.82915
3164.77427	6.78732
3162.84570	6.72779
3160.91714	6.66278
3158.98857	6.59385
3157.06001	6.51484
3155.13145	6.44059
3153.20288	6.37935
3151.27432	6.32361
3149.34575	6.25913
3147.41719	6.17625
3145.48862	6.09436
3143.56006	6.01691
3141.63149	5.92764
3139.70293	5.83938
3137.77437	5.77318
3135.84580	5.71762
3133.91724	5.65222
3131.98867	5.58108
3130.06011	5.51374
3128.13154	5.44709
3126.20298	5.37759
3124.27441	5.30670
3122.34585	5.23464
3120.41729	5.16362
3118.48872	5.09736
3116.56016	5.03157
3114.63159	4.95836
3112.70303	4.88370
3110.77446	4.81462
3108.84590	4.74691
3106.91733	4.67997
3104.98877	4.61487
3103.06021	4.55041
3101.13164	4.48602
3099.20308	4.42234
3097.27451	4.35966
3095.34595	4.29540
3093.41738	4.22813
3091.48882	4.16172
3089.56025	4.09920
3087.63169	4.03843
3085.70312	3.97852
3083.77456	3.91871
3081.84600	3.85790
3079.91743	3.79780
3077.98887	3.73985
3076.06030	3.68283
3074.13174	3.62565
3072.20317	3.56976
3070.27461	3.51463
3068.34604	3.45786
3066.41748	3.40034
3064.48892	3.34464
3062.56035	3.29064
3060.63179	3.23713
3058.70322	3.18446
3056.77466	3.13314
3054.84609	3.08266
3052.91753	3.03229
3050.98896	2.98267
3049.06040	2.93369
3047.13184	2.88439
3045.20327	2.83501
3043.27471	2.78608
3041.34614	2.73828
3039.41758	2.69232
3037.48901	2.64811
3035.56045	2.60412
3033.63188	2.55950
3031.70332	2.51511
3029.77476	2.47146
3027.84619	2.42915
3025.91763	2.38824
3023.98906	2.34742
3022.06050	2.30605
3020.13193	2.26473
3018.20337	2.22397
3016.27480	2.18422
3014.34624	2.14590
3012.41768	2.10864
3010.48911	2.07208
3008.56055	2.03628
3006.63198	2.00087
3004.70342	1.96578
3002.77485	1.93149
3000.84629	1.89806
2998.91772	1.86521
2996.98916	1.83279
2995.06060	1.80101
2993.13203	1.77028
2991.20347	1.74062
2989.27490	1.71152
2987.34634	1.68241
2985.41777	1.65310
2983.48921	1.62438
2981.56064	1.59718
2979.63208	1.57081
2977.70352	1.54403
2975.77495	1.51716
2973.84639	1.49122
2971.91782	1.46621
2969.98926	1.44160
2968.06069	1.41739
2966.13213	1.39331
2964.20356	1.36904
2962.27500	1.34523
2960.34644	1.32209
2958.41787	1.29920
2956.48931	1.27631
2954.56074	1.25316
2952.63218	1.22999
2950.70361	1.20739
2948.77505	1.18496
2946.84648	1.16251
2944.91792	1.14106
2942.98936	1.12094
2941.06079	1.10133
2939.13223	1.08127
2937.20366	1.06071
2935.27510	1.04058
2933.34653	1.02126
2931.41797	1.00243
2929.48940	0.98414
2927.56084	0.96657
2925.63228	0.94899
2923.70371	0.93057
2921.77515	0.91248
2919.84658	0.89643
2917.91802	0.88144
2915.98945	0.86565
2914.06089	0.84968
2912.13232	0.83439
2910.20376	0.81924
2908.27520	0.80429
2906.34663	0.79010
2904.41807	0.77647
2902.48950	0.76291
2900.56094	0.74941
2898.63237	0.73642
2896.70381	0.72425
2894.77524	0.71224
2892.84668	0.70001
2890.91812	0.68822
2888.98955	0.67684
2887.06099	0.66567
2885.13242	0.65509
2883.20386	0.64504
2881.27529	0.63523
2879.34673	0.62557
2877.41816	0.61598
2875.48960	0.60642
2873.56104	0.59681
2871.63247	0.58705
2869.70391	0.57702
2867.77534	0.56633
2865.84678	0.55505
2863.91821	0.54381
2861.98965	0.53299
2860.06108	0.52275
2858.13252	0.51310
2856.20396	0.50409
2854.27539	0.49555
2852.34683	0.48702
2850.41826	0.47872
2848.48970	0.47093
2846.56113	0.46353
2844.63257	0.45663
2842.70400	0.45025
2840.77544	0.44412
2838.84687	0.43816
2836.91831	0.43240
2834.98975	0.42684
2833.06118	0.42135
2831.13262	0.41584
2829.20405	0.41028
2827.27549	0.40465
2825.34692	0.39890
2823.41836	0.39302
2821.48979	0.38728
2819.56123	0.38174
2817.63267	0.37624
2815.70410	0.37074
2813.77554	0.36539
2811.84697	0.36024
2809.91841	0.35511
2807.98984	0.34987
2806.06128	0.34462
2804.13271	0.33961
2802.20415	0.33487
2800.27559	0.33019
2798.34702	0.32548
2796.41846	0.32087
2794.48989	0.31642
2792.56133	0.31210
2790.63276	0.30785
2788.70420	0.30358
2786.77563	0.29930
2784.84707	0.29524
2782.91851	0.29147
2780.98994	0.28772
2779.06138	0.28375
2777.13281	0.27979
2775.20425	0.27605
2773.27568	0.27248
2771.34712	0.26902
2769.41855	0.26567
2767.48999	0.26240
2765.56143	0.25905
2763.63286	0.25553
2761.70430	0.25202
2759.77573	0.24881
2757.84717	0.24597
2755.91860	0.24318
2753.99004	0.24018
2752.06147	0.23714
2750.13291	0.23424
2748.20435	0.23142
2746.27578	0.22850
2744.34722	0.22565
2742.41865	0.22304
2740.49009	0.22067
2738.56152	0.21845
2736.63296	0.21611
2734.70439	0.21362
2732.77583	0.21119
2730.84727	0.20873
2728.91870	0.20626
2726.99014	0.20413
2725.06157	0.20231
2723.13301	0.20038
2721.20444	0.19834
2719.27588	0.19637
2717.34731	0.19441
2715.41875	0.19239
2713.49019	0.19052
2711.56162	0.18889
2709.63306	0.18741
2707.70449	0.18594
2705.77593	0.18434
2703.84736	0.18268
2701.91880	0.18106
2699.99023	0.17952
2698.06167	0.17815
2696.13311	0.17692
2694.20454	0.17559
2692.27598	0.17416
2690.34741	0.17278
2688.41885	0.17156
2686.49028	0.17044
2684.56172	0.16923
2682.63315	0.16797
2680.70459	0.16690
2678.77603	0.16606
2676.84746	0.16516
2674.91890	0.16415
2672.99033	0.16314
2671.06177	0.16211
2669.13320	0.16103
2667.20464	0.16002
2665.27607	0.15911
2663.34751	0.15825
2661.41895	0.15744
2659.49038	0.15672
2657.56182	0.15604
2655.63325	0.15535
2653.70469	0.15470
2651.77612	0.15412
2649.84756	0.15351
2647.91899	0.15282
2645.99043	0.15220
2644.06187	0.15167
2642.13330	0.15110
2640.20474	0.15046
2638.27617	0.14999
2636.34761	0.14973
2634.41904	0.14943
2632.49048	0.14904
2630.56191	0.14862
2628.63335	0.14817
2626.70479	0.14769
2624.77622	0.14728
2622.84766	0.14697
2620.91909	0.14662
2618.99053	0.14639
2617.06196	0.14650
2615.13340	0.14662
2613.20483	0.14639
2611.27627	0.14605
2609.34771	0.14589
2607.41914	0.14582
2605.49058	0.14583
2603.56201	0.14591
2601.63345	0.14589
2599.70488	0.14578
2597.77632	0.14571
2595.84775	0.14573
2593.91919	0.14585
2591.99062	0.14606
2590.06206	0.14621
2588.13350	0.14626
2586.20493	0.14639
2584.27637	0.14669
2582.34780	0.14700
2580.41924	0.14716
2578.49067	0.14737
2576.56211	0.14772
2574.63354	0.14795
2572.70498	0.14806
2570.77642	0.14837
2568.84785	0.14887
2566.91929	0.14935
2564.99072	0.14978
2563.06216	0.15014
2561.13359	0.15050
2559.20503	0.15098
2557.27646	0.15152
2555.34790	0.15205
2553.41934	0.15253
2551.49077	0.15297
2549.56221	0.15352
2547.63364	0.15414
2545.70508	0.15464
2543.77651	0.15510
2541.84795	0.15569
2539.91938	0.15636
2537.99082	0.15707
2536.06226	0.15775
2534.13369	0.15827
2532.20513	0.15873
2530.27656	0.15937
2528.34800	0.16012
2526.41943	0.16082
2524.49087	0.16152
2522.56230	0.16228
2520.63374	0.16301
2518.70518	0.16373
2516.77661	0.16440
2514.84805	0.16503
2512.91948	0.16587
2510.99092	0.16688
2509.06235	0.16779
2507.13379	0.16857
2505.20522	0.16926
2503.27666	0.16989
2501.34810	0.17062
2499.41953	0.17147
2497.49097	0.17239
2495.56240	0.17331
2493.63384	0.17415
2491.70527	0.17488
2489.77671	0.17567
2487.84814	0.17653
2485.91958	0.17735
2483.99102	0.17817
2482.06245	0.17906
2480.13389	0.18003
2478.20532	0.18097
2476.27676	0.18181
2474.34819	0.18267
2472.41963	0.18349
2470.49106	0.18432
2468.56250	0.18525
2466.63394	0.18621
2464.70537	0.18714
2462.77681	0.18804
2460.84824	0.18888
2458.91968	0.18969
2456.99111	0.19063
2455.06255	0.19164
2453.13398	0.19262
2451.20542	0.19357
2449.27686	0.19448
2447.34829	0.19536
2445.41973	0.19635
2443.49116	0.19748
2441.56260	0.19854
2439.63403	0.19943
2437.70547	0.20036
2435.77690	0.20149
2433.84834	0.20270
2431.91978	0.20372
2429.99121	0.20463
2428.06265	0.20563
2426.13408	0.20676
2424.20552	0.20788
2422.27695	0.20893
2420.34839	0.21001
2418.41982	0.21112
2416.49126	0.21219
2414.56270	0.21329
2412.63413	0.21442
2410.70557	0.21553
2408.77700	0.21659
2406.84844	0.21764
2404.91987	0.21884
2402.99131	0.22004
2401.06274	0.22114
2399.13418	0.22230
2397.20562	0.22358
2395.27705	0.22485
2393.34849	0.22608
2391.41992	0.22739
2389.49136	0.22892
2387.56279	0.23109
2385.63423	0.23447
2383.70566	0.23941
2381.77710	0.24600
2379.84854	0.25405
2377.91997	0.26326
2375.99141	0.27367
2374.06284	0.28561
2372.13428	0.29923
2370.20571	0.31422
2368.27715	0.32970
2366.34858	0.34450
2364.42002	0.35723
2362.49146	0.36624
2360.56289	0.37067
2358.63433	0.37144
2356.70576	0.36794
2354.77720	0.35815
2352.84863	0.34398
2350.92007	0.32968
2348.99150	0.32096
2347.06294	0.32171
2345.13437	0.33230
2343.20581	0.34600
2341.27725	0.35296
2339.34868	0.35376
2337.42012	0.35273
2335.49155	0.35155
2333.56299	0.35079
2331.63442	0.35098
2329.70586	0.35073
2327.77729	0.34882
2325.84873	0.34586
2323.92017	0.34261
2321.99160	0.33914
2320.06304	0.33521
2318.13447	0.33088
2316.20591	0.32705
2314.27734	0.32478
2312.34878	0.32386
2310.42021	0.32295
2308.49165	0.32123
2306.56309	0.31893
2304.63452	0.31681
2302.70596	0.31573
2300.77739	0.31576
2298.84883	0.31608
2296.92026	0.31623
2294.99170	0.31624
2293.06313	0.31617
2291.13457	0.31616
2289.20601	0.31641
2287.27744	0.31693
2285.34888	0.31764
2283.42031	0.31868
2281.49175	0.32025
2279.56318	0.32228
2277.63462	0.32451
2275.70605	0.32686
2273.77749	0.32922
2271.84893	0.33135
2269.92036	0.33327
2267.99180	0.33518
2266.06323	0.33711
2264.13467	0.33905
2262.20610	0.34106
2260.27754	0.34296
2258.34897	0.34467
2256.42041	0.34632
2254.49185	0.34805
2252.56328	0.34989
2250.63472	0.35182
2248.70615	0.35389
2246.77759	0.35603
2244.84902	0.35807
2242.92046	0.36002
2240.99189	0.36202
2239.06333	0.36410
2237.13477	0.36623
2235.20620	0.36838
2233.27764	0.37052
2231.34907	0.37264
2229.42051	0.37479
2227.49194	0.37699
2225.56338	0.37921
2223.63481	0.38140
2221.70625	0.38347
2219.77769	0.38552
2217.84912	0.38773
2215.92056	0.38999
2213.99199	0.39213
2212.06343	0.39425
2210.13486	0.39637
2208.20630	0.39841
2206.27773	0.40035
2204.34917	0.40224
2202.42061	0.40425
2200.49204	0.40640
2198.56348	0.40852
2196.63491	0.41049
2194.70635	0.41238
2192.77778	0.41431
2190.84922	0.41629
2188.92065	0.41810
2186.99209	0.41978
2185.06353	0.42153
2183.13496	0.42332
2181.20640	0.42506
2179.27783	0.42669
2177.34927	0.42819
2175.42070	0.42970
2173.49214	0.43130
2171.56357	0.43288
2169.63501	0.43432
2167.70645	0.43564
2165.77788	0.43688
2163.84932	0.43805
2161.92075	0.43917
2159.99219	0.44027
2158.06362	0.44145
2156.13506	0.44260
2154.20649	0.44345
2152.27793	0.44415
2150.34937	0.44484
2148.42080	0.44548
2146.49224	0.44618
2144.56367	0.44696
2142.63511	0.44760
2140.70654	0.44802
2138.77798	0.44836
2136.84941	0.44866
2134.92085	0.44882
2132.99229	0.44883
2131.06372	0.44881
2129.13516	0.44874
2127.20659	0.44861
2125.27803	0.44840
2123.34946	0.44802
2121.42090	0.44755
2119.49233	0.44710
2117.56377	0.44658
2115.63521	0.44600
2113.70664	0.44543
2111.77808	0.44483
2109.84951	0.44417
2107.92095	0.44332
2105.99238	0.44220
2104.06382	0.44098
2102.13525	0.43973
2100.20669	0.43846
2098.27812	0.43721
2096.34956	0.43597
2094.42100	0.43467
2092.49243	0.43328
2090.56387	0.43178
2088.63530	0.43008
2086.70674	0.42829
2084.77817	0.42656
2082.84961	0.42477
2080.92104	0.42283
2078.99248	0.42086
2077.06392	0.41892
2075.13535	0.41699
2073.20679	0.41498
2071.27822	0.41284
2069.34966	0.41066
2067.42109	0.40851
2065.49253	0.40647
2063.56396	0.40443
2061.63540	0.40222
2059.70684	0.39978
2057.77827	0.39719
2055.84971	0.39466
2053.92114	0.39223
2051.99258	0.38979
2050.06401	0.38726
2048.13545	0.38471
2046.20688	0.38222
2044.27832	0.37978
2042.34976	0.37726
2040.42119	0.37462
2038.49263	0.37189
2036.56406	0.36922
2034.63550	0.36664
2032.70693	0.36396
2030.77837	0.36110
2028.84980	0.35817
2026.92124	0.35540
2024.99268	0.35279
2023.06411	0.35023
2021.13555	0.34766
2019.20698	0.34515
2017.27842	0.34260
2015.34985	0.33969
2013.42129	0.33664
2011.49272	0.33390
2009.56416	0.33140
2007.63560	0.32888
2005.70703	0.32629
2003.77847	0.32366
2001.84990	0.32099
1999.92134	0.31840
1997.99277	0.31587
1996.06421	0.31334
1994.13564	0.31100
1992.20708	0.30878
1990.27852	0.30624
1988.34995	0.30351
1986.42139	0.30090
1984.49282	0.29841
1982.56426	0.29605
1980.63569	0.29381
1978.70713	0.29159
1976.77856	0.28940
1974.85000	0.28723
1972.92144	0.28504
1970.99287	0.28293
1969.06431	0.28104
1967.13574	0.27922
1965.20718	0.27708
1963.27861	0.27484
1961.35005	0.27286
1959.42148	0.27096
1957.49292	0.26908
1955.56436	0.26729
1953.63579	0.26547
1951.70723	0.26363
1949.77866	0.26200
1947.85010	0.26062
1945.92153	0.25944
1943.99297	0.25840
1942.06440	0.25705
1940.13584	0.25504
1938.20728	0.25302
1936.27871	0.25148
1934.35015	0.25020
1932.42158	0.24894
1930.49302	0.24772
1928.56445	0.24665
1926.63589	0.24568
1924.70732	0.24499
1922.77876	0.24442
1920.85020	0.24351
1918.92163	0.24249
1916.99307	0.24143
1915.06450	0.24009
1913.13594	0.23893
1911.20737	0.23834
1909.27881	0.23797
1907.35024	0.23731
1905.42168	0.23643
1903.49312	0.23561
1901.56455	0.23484
1899.63599	0.23419
1897.70742	0.23385
1895.77886	0.23371
1893.85029	0.23344
1891.92173	0.23316
1889.99316	0.23318
1888.06460	0.23291
1886.13604	0.23225
1884.20747	0.23180
1882.27891	0.23151
1880.35034	0.23122
1878.42178	0.23100
1876.49321	0.23092
1874.56465	0.23097
1872.63608	0.23134
1870.70752	0.23228
1868.77896	0.23365
1866.85039	0.23391
1864.92183	0.23295
1862.99326	0.23231
1861.06470	0.23234
1859.13613	0.23268
1857.20757	0.23297
1855.27900	0.23327
1853.35044	0.23365
1851.42187	0.23425
1849.49331	0.23515
1847.56475	0.23639
1845.63618	0.23791
1843.70762	0.23921
1841.77905	0.23941
1839.85049	0.23909
1837.92192	0.23948
1835.99336	0.24037
1834.06479	0.24138
1832.13623	0.24273
1830.20767	0.24489
1828.27910	0.24676
1826.35054	0.24756
1824.42197	0.24842
1822.49341	0.24917
1820.56484	0.24988
1818.63628	0.25105
1816.70771	0.25265
1814.77915	0.25425
1812.85059	0.25621
1810.92202	0.25865
1808.99346	0.26078
1807.06489	0.26239
1805.13633	0.26401
1803.20776	0.26633
1801.27920	0.26933
1799.35063	0.27244
1797.42207	0.27488
1795.49351	0.27727
1793.56494	0.28046
1791.63638	0.28437
1789.70781	0.28721
1787.77925	0.28899
1785.85068	0.29173
1783.92212	0.29540
1781.99355	0.29951
1780.06499	0.30388
1778.13643	0.30812
1776.20786	0.31221
1774.27930	0.31717
1772.35073	0.32395
1770.42217	0.33015
1768.49360	0.33437
1766.56504	0.33856
1764.63647	0.34340
1762.70791	0.34929
1760.77935	0.35681
1758.85078	0.36371
1756.92222	0.37067
1754.99365	0.37814
1753.06509	0.38512
1751.13652	0.39424
1749.20796	0.40569
1747.27939	0.41587
1745.35083	0.42420
1743.42227	0.43334
1741.49370	0.44379
1739.56514	0.45618
1737.63657	0.46843
1735.70801	0.47956
1733.77944	0.49680
1731.85088	0.51629
1729.92231	0.53057
1727.99375	0.54507
1726.06519	0.56121
1724.13662	0.57951
1722.20806	0.59958
1720.27949	0.61836
1718.35093	0.64100
1716.42236	0.67395
1714.49380	0.70339
1712.56523	0.72623
1710.63667	0.74919
1708.70811	0.77500
1706.77954	0.80486
1704.85098	0.84045
1702.92241	0.87210
1700.99385	0.90360
1699.06528	0.95053
1697.13672	0.99299
1695.20815	1.03541
1693.27959	1.07654
1691.35103	1.11063
1689.42246	1.15122
1687.49390	1.19460
1685.56533	1.23670
1683.63677	1.30087
1681.70820	1.36584
1679.77964	1.40675
1677.85107	1.44635
1675.92251	1.49261
1673.99395	1.55024
1672.06538	1.60173
1670.13682	1.65275
1668.20825	1.71900
1666.27969	1.77223
1664.35112	1.81796
1662.42256	1.87716
1660.49399	1.94430
1658.56543	1.99628
1656.63687	2.03871
1654.70830	2.07894
1652.77974	2.14087
1650.85117	2.19537
1648.92261	2.21332
1646.99404	2.23892
1645.06548	2.26886
1643.13691	2.28805
1641.20835	2.29900
1639.27979	2.30977
1637.35122	2.31593
1635.42266	2.31328
1633.49409	2.30364
1631.56553	2.28943
1629.63696	2.27252
1627.70840	2.24466
1625.77983	2.21182
1623.85127	2.16981
1621.92271	2.11704
1619.99414	2.06982
1618.06558	2.02519
1616.13701	1.96262
1614.20845	1.89765
1612.27988	1.84726
1610.35132	1.79444
1608.42275	1.73682
1606.49419	1.68028
1604.56562	1.62926
1602.63706	1.58040
1600.70850	1.53201
1598.77993	1.48709
1596.85137	1.44503
1594.92280	1.40453
1592.99424	1.36586
1591.06567	1.33072
1589.13711	1.29796
1587.20854	1.26742
1585.27998	1.23914
1583.35142	1.21301
1581.42285	1.18950
1579.49429	1.16977
1577.56572	1.15255
1575.63716	1.13120
1573.70859	1.11175
1571.78003	1.09966
1569.85146	1.08804
1567.92290	1.07441
1565.99434	1.06357
1564.06577	1.05569
1562.13721	1.05026
1560.20864	1.04833
1558.28008	1.04824
1556.35151	1.04566
1554.42295	1.04294
1552.49438	1.04104
1550.56582	1.03837
1548.63726	1.03389
1546.70869	1.02820
1544.78013	1.02111
1542.85156	1.01189
1540.92300	0.99764
1538.99443	0.97154
1537.06587	0.94996
1535.13730	0.93617
1533.20874	0.91931
1531.28018	0.90037
1529.35161	0.88637
1527.42305	0.87428
1525.49448	0.86220
1523.56592	0.85178
1521.63735	0.84155
1519.70879	0.83020
1517.78022	0.82040
1515.85166	0.80942
1513.92310	0.79771
1511.99453	0.78804
1510.06597	0.78036
1508.13740	0.77390
1506.20884	0.76156
1504.28027	0.74792
1502.35171	0.74012
1500.42314	0.73432
1498.49458	0.72872
1496.56602	0.72181
1494.63745	0.71425
1492.70889	0.70864
1490.78032	0.70478
1488.85176	0.70025
1486.92319	0.69437
1484.99463	0.68909
1483.06606	0.68530
1481.13750	0.68254
1479.20894	0.68030
1477.28037	0.67897
1475.35181	0.67902
1473.42324	0.67963
1471.49468	0.67782
1469.56611	0.67402
1467.63755	0.67112
1465.70898	0.66930
1463.78042	0.66755
1461.85186	0.66618
1459.92329	0.66633
1457.99473	0.66810
1456.06616	0.66820
1454.13760	0.66456
1452.20903	0.66095
1450.28047	0.65811
1448.35190	0.65569
1446.42334	0.65315
1444.49478	0.65050
1442.56621	0.64793
1440.63765	0.64545
1438.70908	0.64347
1436.78052	0.64144
1434.85195	0.63825
1432.92339	0.63520
1430.99482	0.63342
1429.06626	0.63243
1427.13770	0.63179
1425.20913	0.63184
1423.28057	0.63256
1421.35200	0.63337
1419.42344	0.63415
1417.49487	0.63378
1415.56631	0.63199
1413.63774	0.63064
1411.70918	0.63031
1409.78062	0.63060
1407.85205	0.63120
1405.92349	0.63229
1403.99492	0.63335
1402.06636	0.63351
1400.13779	0.63305
1398.20923	0.63209
1396.28066	0.63028
1394.35210	0.62706
1392.42354	0.62277
1390.49497	0.61890
1388.56641	0.61554
1386.63784	0.61148
1384.70928	0.60671
1382.78071	0.60235
1380.85215	0.59859
1378.92358	0.59544
1376.99502	0.59307
1375.06646	0.59148
1373.13789	0.59014
1371.20933	0.58889
1369.28076	0.58789
1367.35220	0.58670
1365.42363	0.58540
1363.49507	0.58445
1361.56650	0.58333
1359.63794	0.58166
1357.70937	0.58021
1355.78081	0.57914
1353.85225	0.57820
1351.92368	0.57743
1349.99512	0.57690
1348.06655	0.57636
1346.13799	0.57558
1344.20942	0.57478
1342.28086	0.57438
1340.35229	0.57438
1338.42373	0.57400
1336.49517	0.57293
1334.56660	0.57193
1332.63804	0.57142
1330.70947	0.57130
1328.78091	0.57142
1326.85234	0.57167
1324.92378	0.57208
1322.99521	0.57266
1321.06665	0.57329
1319.13809	0.57380
1317.20952	0.57397
1315.28096	0.57378
1313.35239	0.57342
1311.42383	0.57286
1309.49526	0.57217
1307.56670	0.57153
1305.63813	0.57091
1303.70957	0.57022
1301.78101	0.56947
1299.85244	0.56872
1297.92388	0.56799
1295.99531	0.56710
1294.06675	0.56590
1292.13818	0.56463
1290.20962	0.56355
1288.28105	0.56271
1286.35249	0.56189
1284.42393	0.56081
1282.49536	0.55956
1280.56680	0.55845
1278.63823	0.55745
1276.70967	0.55634
1274.78110	0.55536
1272.85254	0.55474
1270.92397	0.55425
1268.99541	0.55359
1267.06685	0.55286
1265.13828	0.55209
1263.20972	0.55129
1261.28115	0.55061
1259.35259	0.55006
1257.42402	0.54957
1255.49546	0.54912
1253.56689	0.54883
1251.63833	0.54877
1249.70977	0.54884
1247.78120	0.54887
1245.85264	0.54879
1243.92407	0.54846
1241.99551	0.54773
1240.06694	0.54673
1238.13838	0.54554
1236.20981	0.54393
1234.28125	0.54197
1232.35269	0.54006
1230.42412	0.53839
1228.49556	0.53688
1226.56699	0.53531
1224.63843	0.53372
1222.70986	0.53235
1220.78130	0.53121
1218.85273	0.53009
1216.92417	0.52898
1214.99561	0.52814
1213.06704	0.52753
1211.13848	0.52692
1209.20991	0.52624
1207.28135	0.52544
1205.35278	0.52449
1203.42422	0.52358
1201.49565	0.52278
1199.56709	0.52210
1197.63853	0.52161
1195.70996	0.52122
1193.78140	0.52077
1191.85283	0.52022
1189.92427	0.51978
1187.99570	0.51964
1186.06714	0.51966
1184.13857	0.51971
1182.21001	0.51994
1180.28145	0.52048
1178.35288	0.52128
1176.42432	0.52227
1174.49575	0.52330
1172.56719	0.52408
1170.63862	0.52430
1168.71006	0.52401
1166.78149	0.52351
1164.85293	0.52292
1162.92437	0.52218
1160.99580	0.52143
1159.06724	0.52086
1157.13867	0.52032
1155.21011	0.51953
1153.28154	0.51825
1151.35298	0.51642
1149.42441	0.51439
1147.49585	0.51244
1145.56729	0.51038
1143.63872	0.50819
1141.71016	0.50610
1139.78159	0.50417
1137.85303	0.50245
1135.92446	0.50114
1133.99590	0.50029
1132.06733	0.49966
1130.13877	0.49896
1128.21021	0.49807
1126.28164	0.49718
1124.35308	0.49644
1122.42451	0.49568
1120.49595	0.49480
1118.56738	0.49403
1116.63882	0.49361
1114.71025	0.49329
1112.78169	0.49296
1110.85312	0.49307
1108.92456	0.49382
1106.99600	0.49485
1105.06743	0.49597
1103.13887	0.49727
1101.21030	0.49890
1099.28174	0.50101
1097.35317	0.50350
1095.42461	0.50628
1093.49604	0.50959
1091.56748	0.51368
1089.63892	0.51855
1087.71035	0.52431
1085.78179	0.53084
1083.85322	0.53751
1081.92466	0.54368
1079.99609	0.54869
1078.06753	0.55181
1076.13896	0.55226
1074.21040	0.54971
1072.28184	0.54487
1070.35327	0.53890
1068.42471	0.53244
1066.49614	0.52588
1064.56758	0.51961
1062.63901	0.51390
1060.71045	0.50870
1058.78188	0.50404
1056.85332	0.50008
1054.92476	0.49662
1052.99619	0.49341
1051.06763	0.49062
1049.13906	0.48838
1047.21050	0.48661
1045.28193	0.48515
1043.35337	0.48396
1041.42480	0.48294
1039.49624	0.48193
1037.56768	0.48099
1035.63911	0.48028
1033.71055	0.47975
1031.78198	0.47930
1029.85342	0.47901
1027.92485	0.47893
1025.99629	0.47894
1024.06772	0.47901
1022.13916	0.47921
1020.21060	0.47974
1018.28203	0.48056
1016.35347	0.48135
1014.42490	0.48216
1012.49634	0.48321
1010.56777	0.48444
1008.63921	0.48578
1006.71064	0.48742
1004.78208	0.48940
1002.85352	0.49156
1000.92495	0.49419
998.99639	0.49759
997.06782	0.50145
995.13926	0.50536
993.21069	0.50926
991.28213	0.51286
989.35356	0.51565
987.42500	0.51738
985.49644	0.51834
983.56787	0.51905
981.63931	0.51987
979.71074	0.52100
977.78218	0.52252
975.85361	0.52454
973.92505	0.52722
971.99648	0.53037
970.06792	0.53385
968.13936	0.53772
966.21079	0.54173
964.28223	0.54580
962.35366	0.55044
960.42510	0.55574
958.49653	0.56119
956.56797	0.56659
954.63940	0.57237
952.71084	0.57858
950.78228	0.58464
948.85371	0.59068
946.92515	0.59727
944.99658	0.60407
943.06802	0.61048
941.13945	0.61620
939.21089	0.62156
937.28232	0.62754
935.35376	0.63394
933.42520	0.63984
931.49663	0.64516
929.56807	0.65031
927.63950	0.65591
925.71094	0.66171
923.78237	0.66701
921.85381	0.67255
919.92524	0.67919
917.99668	0.68646
916.06812	0.69346
914.13955	0.70024
912.21099	0.70746
910.28242	0.71527
908.35386	0.72350
906.42529	0.73214
904.49673	0.74148
902.56816	0.75062
900.63960	0.75865
898.71104	0.76724
896.78247	0.77751
894.85391	0.78840
892.92534	0.79855
890.99678	0.80773
889.06821	0.81758
887.13965	0.82883
885.21108	0.83986
883.28252	0.85071
881.35396	0.86279
879.42539	0.87511
877.49683	0.88634
875.56826	0.89677
873.63970	0.90674
871.71113	0.91706
869.78257	0.92865
867.85400	0.94109
865.92544	0.95282
863.99687	0.96338
862.06831	0.97445
860.13975	0.98631
858.21118	0.99762
856.28262	1.00888
854.35405	1.02146
852.42549	1.03381
850.49692	1.04374
848.56836	1.05345
846.63979	1.06590
844.71123	1.07840
842.78267	1.08801
840.85410	1.09858
838.92554	1.11155
836.99697	1.12277
835.06841	1.13299
833.13984	1.14720
831.21128	1.16401
829.28271	1.17743
827.35415	1.18777
825.42559	1.19799
823.49702	1.20615
821.56846	1.21234
819.63989	1.22235
817.71133	1.23200
815.78276	1.23273
813.85420	1.23501
811.92563	1.25244
809.99707	1.27809
808.06851	1.29542
806.13994	1.29777
804.21138	1.28767
802.28281	1.28247
800.35425	1.29526
798.42568	1.32794
796.49712	1.38573
794.56855	1.43395
792.63999	1.41456
790.71143	1.36583
788.78286	1.33796
786.85430	1.33949
784.92573	1.38892
782.99717	1.46916
781.06860	1.51721
779.14004	1.52780
777.21147	1.50454
775.28291	1.48815
773.35435	1.50314
771.42578	1.49833
769.49722	1.49175
767.56865	1.58885
765.64009	1.91240
763.71152	4.58227
761.78296	2.26808
759.85439	1.53937
757.92583	1.36812
755.99727	1.35511
754.06870	1.41435
752.14014	1.36786
750.21157	1.20679
748.28301	1.20018
746.35444	1.36703
744.42588	1.41113
742.49731	1.38459
740.56875	1.64261
738.64019	1.81804
736.71162	1.08695
734.78306	0.79715
732.85449	0.70320
730.92593	0.65049
728.99736	0.60104
727.06880	0.66804
725.14023	0.77261
723.21167	0.66632
721.28311	0.56989
719.35454	0.42349
717.42598	0.20953
715.49741	0.07459
713.56885	-0.06625
711.64028	-0.21134
709.71172	-0.32346
707.78315	-0.32100
705.85459	-0.14972
703.92603	0.12941
701.99746	0.38418
700.06890	0.48036
698.14033	0.46487
696.21177	0.43222
694.28320	0.41851
692.35464	0.39085
690.42607	0.39482
688.49751	0.47397
686.56895	0.51785
684.64038	0.46495
682.71182	0.38275
680.78325	0.34712
678.85469	0.36122
676.92612	0.35995
674.99756	0.29293
673.06899	0.19864
671.14043	0.19911
669.21187	0.28337
667.28330	0.32588
665.35474	0.28943
663.42617	0.28479
661.49761	0.33832
659.56904	0.35634
657.64048	0.31676
655.71191	0.27799
653.78335	0.26534
651.85479	0.31039
649.92622	0.41906
647.99766	0.46379
646.06909	0.35882
644.14053	0.23547
642.21196	0.16976
640.28340	0.20031
638.35483	0.32495
636.42627	0.43449
634.49771	0.33763
632.56914	0.22014
630.64058	0.20339
628.71201	0.25604
626.78345	0.32763
624.85488	0.34391
622.92632	0.31145
620.99775	0.30117
619.06919	0.34866
617.14062	0.36106
615.21206	0.28544
613.28350	0.25539
611.35493	0.29948
609.42637	0.33038
607.49780	0.32747
605.56924	0.36589
603.64067	0.39596
601.71211	0.39203
599.78354	0.40112
597.85498	0.39044
595.92642	0.34300
593.99785	0.31181
592.06929	0.31351
590.14072	0.29554
588.21216	0.27536
586.28359	0.30534
584.35503	0.37352
582.42646	0.37307
580.49790	0.32899
578.56934	0.29821
576.64077	0.25850
574.71221	0.25456
572.78364	0.29947
570.85508	0.36961
568.92651	0.44017
566.99795	0.44762
565.06938	0.43153
563.14082	0.38937
561.21226	0.27001
559.28369	0.20098
557.35513	0.17695
555.42656	0.14757
553.49800	0.17359
551.56943	0.25052
549.64087	0.25553
547.71230	0.21062
545.78374	0.17939
543.85518	0.17966
541.92661	0.16926
539.99805	0.16766
538.06948	0.26766
536.14092	0.53961
534.21235	0.53746
532.28379	0.28186
530.35522	0.19634
528.42666	0.20694
526.49810	0.22779
524.56953	0.18889
522.64097	0.10776
520.71240	0.07512
518.78384	0.10314
516.85527	0.11470
514.92671	0.15413
512.99814	0.29733
511.06958	0.44897
509.14102	0.36630
507.21245	0.27181
505.28389	0.27375
503.35532	0.29127
501.42676	0.26203
499.49819	0.25024
