3997.91411	0.06791
3995.98555	0.06836
3994.05698	0.06921
3992.12842	0.06971
3990.19985	0.06967
3988.27129	0.06946
3986.34272	0.06924
3984.41416	0.06927
3982.48560	0.06975
3980.55703	0.07031
3978.62847	0.07061
3976.69990	0.07092
3974.77134	0.07160
3972.84277	0.07230
3970.91421	0.07257
3968.98564	0.07264
3967.05708	0.07229
3965.12852	0.07155
3963.19995	0.07169
3961.27139	0.07282
3959.34282	0.07349
3957.41426	0.07343
3955.48569	0.07335
3953.55713	0.07363
3951.62856	0.07443
3949.70000	0.07556
3947.77144	0.07613
3945.84287	0.07581
3943.91431	0.07578
3941.98574	0.07617
3940.05718	0.07542
3938.12861	0.07392
3936.20005	0.07328
3934.27148	0.07390
3932.34292	0.07559
3930.41436	0.07711
3928.48579	0.07671
3926.55723	0.07582
3924.62866	0.07656
3922.70010	0.07740
3920.77153	0.07691
3918.84297	0.07679
3916.91440	0.07736
3914.98584	0.07661
3913.05728	0.07436
3911.12871	0.07242
3909.20015	0.07180
3907.27158	0.07325
3905.34302	0.07694
3903.41445	0.08121
3901.48589	0.08374
3899.55732	0.08367
3897.62876	0.08074
3895.70020	0.07706
3893.77163	0.07608
3891.84307	0.07802
3889.91450	0.07918
3887.98594	0.07814
3886.05737	0.07840
3884.12881	0.08003
3882.20024	0.08085
3880.27168	0.08130
3878.34312	0.07997
3876.41455	0.07777
3874.48599	0.07858
3872.55742	0.08194
3870.62886	0.08500
3868.70029	0.08571
3866.77173	0.08404
3864.84316	0.08394
3862.91460	0.08515
3860.98604	0.08356
3859.05747	0.08112
3857.12891	0.08177
3855.20034	0.08622
3853.27178	0.09353
3851.34321	0.09585
3849.41465	0.08976
3847.48608	0.08406
3845.55752	0.08211
3843.62896	0.08423
3841.70039	0.08868
3839.77183	0.09337
3837.84326	0.09683
3835.91470	0.09662
3833.98613	0.09419
3832.05757	0.09229
3830.12900	0.09077
3828.20044	0.09014
3826.27187	0.09118
3824.34331	0.09304
3822.41475	0.09652
3820.48618	0.10216
3818.55762	0.10387
3816.62905	0.10199
3814.70049	0.09995
3812.77192	0.09632
3810.84336	0.09367
3808.91479	0.09488
3806.98623	0.09954
3805.05767	0.10369
3803.12910	0.10652
3801.20054	0.11060
3799.27197	0.11164
3797.34341	0.10917
3795.41484	0.10747
3793.48628	0.10564
3791.55771	0.10438
3789.62915	0.10501
3787.70059	0.10692
3785.77202	0.10962
3783.84346	0.11217
3781.91489	0.11372
3779.98633	0.11568
3778.05776	0.11761
3776.12920	0.11733
3774.20063	0.11701
3772.27207	0.11907
3770.34351	0.12343
3768.41494	0.12777
3766.48638	0.12992
3764.55781	0.13120
3762.62925	0.13233
3760.70068	0.13471
3758.77212	0.13942
3756.84355	0.14342
3754.91499	0.14556
3752.98643	0.14960
3751.05786	0.15768
3749.12930	0.16541
3747.20073	0.16744
3745.27217	0.16848
3743.34360	0.17156
3741.41504	0.17469
3739.48647	0.17802
3737.55791	0.18433
3735.62935	0.19519
3733.70078	0.20581
3731.77222	0.20924
3729.84365	0.20999
3727.91509	0.21298
3725.98652	0.21919
3724.05796	0.22653
3722.12939	0.23176
3720.20083	0.23444
3718.27227	0.23605
3716.34370	0.23904
3714.41514	0.24559
3712.48657	0.25834
3710.55801	0.27763
3708.62944	0.29331
3706.70088	0.30192
3704.77231	0.31112
3702.84375	0.32432
3700.91519	0.34146
3698.98662	0.35875
3697.05806	0.37477
3695.12949	0.39266
3693.20093	0.41270
3691.27236	0.43564
3689.34380	0.46489
3687.41523	0.49710
3685.48667	0.52274
3683.55811	0.54520
3681.62954	0.57141
3679.70098	0.60348
3677.77241	0.63933
3675.84385	0.68237
3673.91528	0.73635
3671.98672	0.77737
3670.05815	0.81474
3668.12959	0.86611
3666.20103	0.91040
3664.27246	0.94730
3662.34390	0.98936
3660.41533	1.03660
3658.48677	1.08396
3656.55820	1.13459
3654.62964	1.18979
3652.70107	1.23612
3650.77251	1.28017
3648.84395	1.34336
3646.91538	1.41314
3644.98682	1.45727
3643.05825	1.49178
3641.12969	1.53052
3639.20112	1.57431
3637.27256	1.61934
3635.34399	1.66528
3633.41543	1.71178
3631.48687	1.75430
3629.55830	1.79738
3627.62974	1.85324
3625.70117	1.90269
3623.77261	1.93486
3621.84404	1.96684
3619.91548	2.00502
3617.98691	2.05051
3616.05835	2.09238
3614.12979	2.12745
3612.20122	2.16555
3610.27266	2.20471
3608.34409	2.24595
3606.41553	2.29016
3604.48696	2.32937
3602.55840	2.36457
3600.62983	2.40373
3598.70127	2.44510
3596.77271	2.48420
3594.84414	2.52496
3592.91558	2.56844
3590.98701	2.60874
3589.05845	2.64566
3587.12988	2.68956
3585.20132	2.73631
3583.27275	2.77429
3581.34419	2.80996
3579.41562	2.84971
3577.48706	2.89190
3575.55850	2.93331
3573.62993	2.97551
3571.70137	3.01748
3569.77280	3.05803
3567.84424	3.10257
3565.91567	3.15770
3563.98711	3.20801
3562.05854	3.24785
3560.12998	3.28975
3558.20142	3.33446
3556.27285	3.37843
3554.34429	3.42126
3552.41572	3.46687
3550.48716	3.51545
3548.55859	3.56239
3546.63003	3.60789
3544.70146	3.65748
3542.77290	3.70826
3540.84434	3.75442
3538.91577	3.79844
3536.98721	3.84357
3535.05864	3.89257
3533.13008	3.94239
3531.20151	3.99078
3529.27295	4.03836
3527.34438	4.08476
3525.41582	4.12944
3523.48726	4.17587
3521.55869	4.22747
3519.63013	4.27711
3517.70156	4.32064
3515.77300	4.36217
3513.84443	4.40618
3511.91587	4.45377
3509.98730	4.50504
3508.05874	4.55878
3506.13018	4.61240
3504.20161	4.66284
3502.27305	4.71016
3500.34448	4.76090
3498.41592	4.81387
3496.48735	4.86117
3494.55879	4.90417
3492.63022	4.95039
3490.70166	4.99685
3488.77310	5.03952
3486.84453	5.08689
3484.91597	5.14058
3482.98740	5.19346
3481.05884	5.24404
3479.13027	5.28832
3477.20171	5.33106
3475.27314	5.38190
3473.34458	5.43574
3471.41602	5.48340
3469.48745	5.52551
3467.55889	5.57098
3465.63032	5.62266
3463.70176	5.67641
3461.77319	5.72798
3459.84463	5.78067
3457.91606	5.83153
3455.98750	5.87536
3454.05894	5.92119
3452.13037	5.97222
3450.20181	6.03012
3448.27324	6.09123
3446.34468	6.14035
3444.41611	6.17273
3442.48755	6.20483
3440.55898	6.25205
3438.63042	6.31114
3436.70186	6.36548
3434.77329	6.41107
3432.84473	6.45216
3430.91616	6.48834
3428.98760	6.53099
3427.05903	6.58723
3425.13047	6.64999
3423.20190	6.70389
3421.27334	6.76671
3419.34478	6.85541
3417.41621	6.93066
3415.48765	6.95180
3413.55908	6.93070
3411.63052	6.92440
3409.70195	6.94988
3407.77339	6.98713
3405.84482	7.03469
3403.91626	7.09877
3401.98770	7.15121
3400.05913	7.18971
3398.13057	7.25327
3396.20200	7.33099
3394.27344	7.40480
3392.34487	7.46815
3390.41631	7.47725
3388.48774	7.41590
3386.55918	7.39112
3384.63062	7.46398
3382.70205	7.56087
3380.77349	7.59971
3378.84492	7.57059
3376.91636	7.53947
3374.98779	7.57835
3373.05923	7.66100
3371.13066	7.69582
3369.20210	7.70165
3367.27354	7.70091
3365.34497	7.68394
3363.41641	7.70560
3361.48784	7.76910
3359.55928	7.81450
3357.63071	7.83309
3355.70215	7.86180
3353.77358	7.89984
3351.84502	7.92619
3349.91646	7.90097
3347.98789	7.85734
3346.05933	7.88159
3344.13076	7.98746
3342.20220	8.05993
3340.27363	7.98629
3338.34507	7.87835
3336.41650	7.85221
3334.48794	7.90138
3332.55937	7.95825
3330.63081	7.99798
3328.70225	8.01872
3326.77368	8.02308
3324.84512	7.99939
3322.91655	7.93763
3320.98799	7.93999
3319.05942	8.00960
3317.13086	8.02240
3315.20229	7.98684
3313.27373	7.99390
3311.34517	7.98124
3309.41660	7.91442
3307.48804	7.91384
3305.55947	8.03516
3303.63091	8.18964
3301.70234	8.25138
3299.77378	8.25105
3297.84521	8.21618
3295.91665	8.15682
3293.98809	8.11056
3292.05952	8.06874
3290.13096	8.04912
3288.20239	8.06710
3286.27383	8.09209
3284.34526	8.11400
3282.41670	8.12067
3280.48813	8.08888
3278.55957	8.10652
3276.63101	8.12636
3274.70244	8.05934
3272.77388	8.02909
3270.84531	8.04326
3268.91675	8.03918
3266.98818	8.04995
3265.05962	8.07654
3263.13105	8.08751
3261.20249	8.11479
3259.27393	8.14990
3257.34536	8.13857
3255.41680	8.13304
3253.48823	8.20136
3251.55967	8.27575
3249.63110	8.22987
3247.70254	8.11361
3245.77397	8.03212
3243.84541	8.00654
3241.91685	8.04491
3239.98828	8.09556
3238.05972	8.11192
3236.13115	8.13721
3234.20259	8.12034
3232.27402	8.02056
3230.34546	7.96145
3228.41689	8.03415
3226.48833	8.17420
3224.55977	8.22446
3222.63120	8.17291
3220.70264	8.10294
3218.77407	8.04868
3216.84551	8.02944
3214.91694	8.02208
3212.98838	7.99159
3211.05981	7.93669
3209.13125	7.84984
3207.20269	7.73640
3205.27412	7.64659
3203.34556	7.62723
3201.41699	7.65869
3199.48843	7.68235
3197.55986	7.70203
3195.63130	7.70304
3193.70273	7.64236
3191.77417	7.57274
3189.84561	7.52429
3187.91704	7.45245
3185.98848	7.37552
3184.05991	7.33578
3182.13135	7.30562
3180.20278	7.24868
3178.27422	7.15170
3176.34565	7.06258
3174.41709	7.03618
3172.48853	7.03972
3170.55996	7.02581
3168.63140	6.97780
3166.70283	6.89470
3164.77427	6.81460
3162.84570	6.75949
3160.91714	6.70579
3158.98857	6.65068
3157.06001	6.59347
3155.13145	6.52169
3153.20288	6.44107
3151.27432	6.36790
3149.34575	6.31395
3147.41719	6.25727
3145.48862	6.18425
3143.56006	6.11123
3141.63149	6.03787
3139.70293	5.97468
3137.77437	5.92750
3135.84580	5.86352
3133.91724	5.78182
3131.98867	5.70773
3130.06011	5.64292
3128.13154	5.58600
3126.20298	5.52955
3124.27441	5.45963
3122.34585	5.37861
3120.41729	5.29772
3118.48872	5.22206
3116.56016	5.15335
3114.63159	5.08516
3112.70303	5.00937
3110.77446	4.93243
3108.84590	4.86502
3106.91733	4.80506
3104.98877	4.74012
3103.06021	4.66919
3101.13164	4.59961
3099.20308	4.53217
3097.27451	4.46602
3095.34595	4.40086
3093.41738	4.33818
3091.48882	4.27824
3089.56025	4.21777
3087.63169	4.15610
3085.70312	4.09374
3083.77456	4.02997
3081.84600	3.96647
3079.91743	3.90442
3077.98887	3.84391
3076.06030	3.78583
3074.13174	3.72846
3072.20317	3.66986
3070.27461	3.61214
3068.34604	3.55702
3066.41748	3.50242
3064.48892	3.44725
3062.56035	3.39195
3060.63179	3.33656
3058.70322	3.28226
3056.77466	3.23003
3054.84609	3.17906
3052.91753	3.12760
3050.98896	3.07478
3049.06040	3.02229
3047.13184	2.97201
3045.20327	2.92313
3043.27471	2.87462
3041.34614	2.82689
3039.41758	2.78024
3037.48901	2.73435
3035.56045	2.68840
3033.63188	2.64239
3031.70332	2.59687
3029.77476	2.55222
3027.84619	2.50909
3025.91763	2.46657
3023.98906	2.42320
3022.06050	2.37941
3020.13193	2.33682
3018.20337	2.29622
3016.27480	2.25663
3014.34624	2.21744
3012.41768	2.17913
3010.48911	2.14125
3008.56055	2.10335
3006.63198	2.06605
3004.70342	2.02988
3002.77485	1.99494
3000.84629	1.96138
2998.91772	1.92869
2996.98916	1.89598
2995.06060	1.86353
2993.13203	1.83230
2991.20347	1.80199
2989.27490	1.77209
2987.34634	1.74303
2985.41777	1.71473
2983.48921	1.68688
2981.56064	1.65938
2979.63208	1.63203
2977.70352	1.60527
2975.77495	1.57937
2973.84639	1.55377
2971.91782	1.52836
2969.98926	1.50353
2968.06069	1.47908
2966.13213	1.45480
2964.20356	1.43099
2962.27500	1.40741
2960.34644	1.38361
2958.41787	1.35974
2956.48931	1.33576
2954.56074	1.31180
2952.63218	1.28814
2950.70361	1.26460
2948.77505	1.24132
2946.84648	1.21849
2944.91792	1.19617
2942.98936	1.17451
2941.06079	1.15333
2939.13223	1.13233
2937.20366	1.11115
2935.27510	1.08990
2933.34653	1.06917
2931.41797	1.04875
2929.48940	1.02841
2927.56084	1.00844
2925.63228	0.98881
2923.70371	0.97021
2921.77515	0.95334
2919.84658	0.93754
2917.91802	0.92190
2915.98945	0.90597
2914.06089	0.88977
2912.13232	0.87371
2910.20376	0.85815
2908.27520	0.84300
2906.34663	0.82830
2904.41807	0.81418
2902.48950	0.80048
2900.56094	0.78689
2898.63237	0.77338
2896.70381	0.76033
2894.77524	0.74803
2892.84668	0.73619
2890.91812	0.72446
2888.98955	0.71308
2887.06099	0.70235
2885.13242	0.69183
2883.20386	0.68140
2881.27529	0.67162
2879.34673	0.66237
2877.41816	0.65296
2875.48960	0.64326
2873.56104	0.63324
2871.63247	0.62261
2869.70391	0.61122
2867.77534	0.59912
2865.84678	0.58675
2863.91821	0.57462
2861.98965	0.56273
2860.06108	0.55103
2858.13252	0.53972
2856.20396	0.52911
2854.27539	0.51948
2852.34683	0.51092
2850.41826	0.50326
2848.48970	0.49597
2846.56113	0.48871
2844.63257	0.48167
2842.70400	0.47502
2840.77544	0.46881
2838.84687	0.46306
2836.91831	0.45746
2834.98975	0.45170
2833.06118	0.44589
2831.13262	0.44008
2829.20405	0.43420
2827.27549	0.42838
2825.34692	0.42262
2823.41836	0.41674
2821.48979	0.41077
2819.56123	0.40504
2817.63267	0.39950
2815.70410	0.39393
2813.77554	0.38833
2811.84697	0.38264
2809.91841	0.37704
2807.98984	0.37175
2806.06128	0.36676
2804.13271	0.36180
2802.20415	0.35672
2800.27559	0.35159
2798.34702	0.34656
2796.41846	0.34171
2794.48989	0.33707
2792.56133	0.33259
2790.63276	0.32820
2788.70420	0.32381
2786.77563	0.31936
2784.84707	0.31489
2782.91851	0.31052
2780.98994	0.30633
2779.06138	0.30232
2777.13281	0.29839
2775.20425	0.29441
2773.27568	0.29044
2771.34712	0.28667
2769.41855	0.28304
2767.48999	0.27953
2765.56143	0.27618
2763.63286	0.27274
2761.70430	0.26916
2759.77573	0.26576
2757.84717	0.26252
2755.91860	0.25925
2753.99004	0.25605
2752.06147	0.25318
2750.13291	0.25055
2748.20435	0.24779
2746.27578	0.24473
2744.34722	0.24162
2742.41865	0.23870
2740.49009	0.23596
2738.56152	0.23334
2736.63296	0.23078
2734.70439	0.22830
2732.77583	0.22591
2730.84727	0.22357
2728.91870	0.22123
2726.99014	0.21896
2725.06157	0.21671
2723.13301	0.21442
2721.20444	0.21215
2719.27588	0.21002
2717.34731	0.20813
2715.41875	0.20629
2713.49019	0.20436
2711.56162	0.20242
2709.63306	0.20062
2707.70449	0.19900
2705.77593	0.19743
2703.84736	0.19583
2701.91880	0.19430
2699.99023	0.19289
2698.06167	0.19149
2696.13311	0.19007
2694.20454	0.18869
2692.27598	0.18736
2690.34741	0.18599
2688.41885	0.18465
2686.49028	0.18350
2684.56172	0.18245
2682.63315	0.18131
2680.70459	0.17998
2678.77603	0.17866
2676.84746	0.17754
2674.91890	0.17658
2672.99033	0.17556
2671.06177	0.17440
2669.13320	0.17330
2667.20464	0.17240
2665.27607	0.17153
2663.34751	0.17063
2661.41895	0.16983
2659.49038	0.16900
2657.56182	0.16805
2655.63325	0.16714
2653.70469	0.16642
2651.77612	0.16585
2649.84756	0.16538
2647.91899	0.16494
2645.99043	0.16434
2644.06187	0.16353
2642.13330	0.16273
2640.20474	0.16214
2638.27617	0.16170
2636.34761	0.16132
2634.41904	0.16099
2632.49048	0.16059
2630.56191	0.16009
2628.63335	0.15963
2626.70479	0.15928
2624.77622	0.15889
2622.84766	0.15838
2620.91909	0.15794
2618.99053	0.15771
2617.06196	0.15760
2615.13340	0.15742
2613.20483	0.15716
2611.27627	0.15688
2609.34771	0.15669
2607.41914	0.15663
2605.49058	0.15654
2603.56201	0.15649
2601.63345	0.15647
2599.70488	0.15641
2597.77632	0.15636
2595.84775	0.15638
2593.91919	0.15643
2591.99062	0.15644
2590.06206	0.15651
2588.13350	0.15671
2586.20493	0.15689
2584.27637	0.15706
2582.34780	0.15729
2580.41924	0.15752
2578.49067	0.15768
2576.56211	0.15775
2574.63354	0.15789
2572.70498	0.15827
2570.77642	0.15876
2568.84785	0.15917
2566.91929	0.15936
2564.99072	0.15950
2563.06216	0.15983
2561.13359	0.16040
2559.20503	0.16107
2557.27646	0.16163
2555.34790	0.16202
2553.41934	0.16237
2551.49077	0.16277
2549.56221	0.16329
2547.63364	0.16385
2545.70508	0.16445
2543.77651	0.16510
2541.84795	0.16569
2539.91938	0.16622
2537.99082	0.16672
2536.06226	0.16724
2534.13369	0.16790
2532.20513	0.16859
2530.27656	0.16923
2528.34800	0.16988
2526.41943	0.17057
2524.49087	0.17133
2522.56230	0.17213
2520.63374	0.17277
2518.70518	0.17330
2516.77661	0.17392
2514.84805	0.17465
2512.91948	0.17536
2510.99092	0.17612
2509.06235	0.17700
2507.13379	0.17791
2505.20522	0.17869
2503.27666	0.17941
2501.34810	0.18020
2499.41953	0.18108
2497.49097	0.18203
2495.56240	0.18289
2493.63384	0.18358
2491.70527	0.18432
2489.77671	0.18520
2487.84814	0.18601
2485.91958	0.18676
2483.99102	0.18760
2482.06245	0.18851
2480.13389	0.18943
2478.20532	0.19032
2476.27676	0.19108
2474.34819	0.19178
2472.41963	0.19260
2470.49106	0.19354
2468.56250	0.19449
2466.63394	0.19541
2464.70537	0.19642
2462.77681	0.19748
2460.84824	0.19835
2458.91968	0.19903
2456.99111	0.19978
2455.06255	0.20072
2453.13398	0.20178
2451.20542	0.20284
2449.27686	0.20378
2447.34829	0.20459
2445.41973	0.20537
2443.49116	0.20625
2441.56260	0.20725
2439.63403	0.20835
2437.70547	0.20947
2435.77690	0.21057
2433.84834	0.21162
2431.91978	0.21256
2429.99121	0.21354
2428.06265	0.21464
2426.13408	0.21570
2424.20552	0.21672
2422.27695	0.21786
2420.34839	0.21899
2418.41982	0.22004
2416.49126	0.22118
2414.56270	0.22239
2412.63413	0.22355
2410.70557	0.22471
2408.77700	0.22583
2406.84844	0.22685
2404.91987	0.22790
2402.99131	0.22911
2401.06274	0.23030
2399.13418	0.23138
2397.20562	0.23260
2395.27705	0.23399
2393.34849	0.23539
2391.41992	0.23685
2389.49136	0.23863
2387.56279	0.24129
2385.63423	0.24583
2383.70566	0.25324
2381.77710	0.26378
2379.84854	0.27684
2377.91997	0.29186
2375.99141	0.30903
2374.06284	0.32849
2372.13428	0.35001
2370.20571	0.37346
2368.27715	0.39778
2366.34858	0.42081
2364.42002	0.44078
2362.49146	0.45595
2360.56289	0.46450
2358.63433	0.46515
2356.70576	0.45701
2354.77720	0.44000
2352.84863	0.41621
2350.92007	0.39096
2348.99150	0.37498
2347.06294	0.37549
2345.13437	0.39247
2343.20581	0.41402
2341.27725	0.42409
2339.34868	0.42380
2337.42012	0.42063
2335.49155	0.41782
2333.56299	0.41592
2331.63442	0.41515
2329.70586	0.41374
2327.77729	0.40985
2325.84873	0.40402
2323.92017	0.39781
2321.99160	0.39133
2320.06304	0.38328
2318.13447	0.37391
2316.20591	0.36565
2314.27734	0.36045
2312.34878	0.35774
2310.42021	0.35523
2308.49165	0.35124
2306.56309	0.34615
2304.63452	0.34157
2302.70596	0.33876
2300.77739	0.33727
2298.84883	0.33593
2296.92026	0.33452
2294.99170	0.33329
2293.06313	0.33221
2291.13457	0.33125
2289.20601	0.33055
2287.27744	0.33005
2285.34888	0.32965
2283.42031	0.32989
2281.49175	0.33137
2279.56318	0.33388
2277.63462	0.33668
2275.70605	0.33937
2273.77749	0.34187
2271.84893	0.34409
2269.92036	0.34605
2267.99180	0.34791
2266.06323	0.34980
2264.13467	0.35167
2262.20610	0.35347
2260.27754	0.35518
2258.34897	0.35679
2256.42041	0.35834
2254.49185	0.35988
2252.56328	0.36151
2250.63472	0.36328
2248.70615	0.36513
2246.77759	0.36706
2244.84902	0.36906
2242.92046	0.37104
2240.99189	0.37304
2239.06333	0.37508
2237.13477	0.37724
2235.20620	0.37946
2233.27764	0.38158
2231.34907	0.38363
2229.42051	0.38571
2227.49194	0.38776
2225.56338	0.38995
2223.63481	0.39230
2221.70625	0.39468
2219.77769	0.39706
2217.84912	0.39934
2215.92056	0.40142
2213.99199	0.40345
2212.06343	0.40552
2210.13486	0.40748
2208.20630	0.40947
2206.27773	0.41168
2204.34917	0.41391
2202.42061	0.41595
2200.49204	0.41791
2198.56348	0.41990
2196.63491	0.42193
2194.70635	0.42387
2192.77778	0.42576
2190.84922	0.42774
2188.92065	0.42968
2186.99209	0.43146
2185.06353	0.43319
2183.13496	0.43488
2181.20640	0.43648
2179.27783	0.43805
2177.34927	0.43960
2175.42070	0.44109
2173.49214	0.44252
2171.56357	0.44395
2169.63501	0.44542
2167.70645	0.44683
2165.77788	0.44802
2163.84932	0.44912
2161.92075	0.45031
2159.99219	0.45145
2158.06362	0.45254
2156.13506	0.45360
2154.20649	0.45446
2152.27793	0.45507
2150.34937	0.45567
2148.42080	0.45630
2146.49224	0.45679
2144.56367	0.45721
2142.63511	0.45769
2140.70654	0.45810
2138.77798	0.45839
2136.84941	0.45860
2134.92085	0.45878
2132.99229	0.45889
2131.06372	0.45881
2129.13516	0.45851
2127.20659	0.45816
2125.27803	0.45780
2123.34946	0.45737
2121.42090	0.45693
2119.49233	0.45646
2117.56377	0.45587
2115.63521	0.45508
2113.70664	0.45417
2111.77808	0.45319
2109.84951	0.45215
2107.92095	0.45113
2105.99238	0.45010
2104.06382	0.44895
2102.13525	0.44764
2100.20669	0.44623
2098.27812	0.44481
2096.34956	0.44343
2094.42100	0.44200
2092.49243	0.44051
2090.56387	0.43899
2088.63530	0.43728
2086.70674	0.43540
2084.77817	0.43349
2082.84961	0.43150
2080.92104	0.42942
2078.99248	0.42749
2077.06392	0.42563
2075.13535	0.42350
2073.20679	0.42108
2071.27822	0.41861
2069.34966	0.41626
2067.42109	0.41413
2065.49253	0.41207
2063.56396	0.40969
2061.63540	0.40711
2059.70684	0.40459
2057.77827	0.40203
2055.84971	0.39942
2053.92114	0.39681
2051.99258	0.39414
2050.06401	0.39147
2048.13545	0.38894
2046.20688	0.38654
2044.27832	0.38406
2042.34976	0.38141
2040.42119	0.37865
2038.49263	0.37585
2036.56406	0.37306
2034.63550	0.37030
2032.70693	0.36753
2030.77837	0.36471
2028.84980	0.36186
2026.92124	0.35908
2024.99268	0.35631
2023.06411	0.35347
2021.13555	0.35071
2019.20698	0.34824
2017.27842	0.34585
2015.34985	0.34305
2013.42129	0.33998
2011.49272	0.33703
2009.56416	0.33428
2007.63560	0.33162
2005.70703	0.32907
2003.77847	0.32654
2001.84990	0.32400
1999.92134	0.32138
1997.99277	0.31864
1996.06421	0.31600
1994.13564	0.31369
1992.20708	0.31154
1990.27852	0.30902
1988.34995	0.30621
1986.42139	0.30343
1984.49282	0.30086
1982.56426	0.29857
1980.63569	0.29635
1978.70713	0.29408
1976.77856	0.29187
1974.85000	0.28972
1972.92144	0.28761
1970.99287	0.28559
1969.06431	0.28384
1967.13574	0.28215
1965.20718	0.27994
1963.27861	0.27743
1961.35005	0.27524
1959.42148	0.27338
1957.49292	0.27165
1955.56436	0.26995
1953.63579	0.26822
1951.70723	0.26646
1949.77866	0.26479
1947.85010	0.26335
1945.92153	0.26213
1943.99297	0.26115
1942.06440	0.25998
1940.13584	0.25802
1938.20728	0.25592
1936.27871	0.25434
1934.35015	0.25304
1932.42158	0.25180
1930.49302	0.25057
1928.56445	0.24941
1926.63589	0.24846
1924.70732	0.24799
1922.77876	0.24766
1920.85020	0.24675
1918.92163	0.24574
1916.99307	0.24480
1915.06450	0.24343
1913.13594	0.24222
1911.20737	0.24173
1909.27881	0.24144
1907.35024	0.24066
1905.42168	0.23954
1903.49312	0.23873
1901.56455	0.23820
1899.63599	0.23767
1897.70742	0.23727
1895.77886	0.23718
1893.85029	0.23703
1891.92173	0.23683
1889.99316	0.23691
1888.06460	0.23660
1886.13604	0.23580
1884.20747	0.23522
1882.27891	0.23486
1880.35034	0.23463
1878.42178	0.23456
1876.49321	0.23455
1874.56465	0.23449
1872.63608	0.23483
1870.70752	0.23617
1868.77896	0.23818
1866.85039	0.23861
1864.92183	0.23728
1862.99326	0.23621
1861.06470	0.23600
1859.13613	0.23634
1857.20757	0.23673
1855.27900	0.23703
1853.35044	0.23734
1851.42187	0.23793
1849.49331	0.23896
1847.56475	0.24038
1845.63618	0.24217
1843.70762	0.24377
1841.77905	0.24383
1839.85049	0.24326
1837.92192	0.24369
1835.99336	0.24462
1834.06479	0.24556
1832.13623	0.24714
1830.20767	0.24973
1828.27910	0.25158
1826.35054	0.25215
1824.42197	0.25297
1822.49341	0.25355
1820.56484	0.25408
1818.63628	0.25528
1816.70771	0.25695
1814.77915	0.25859
1812.85059	0.26067
1810.92202	0.26328
1808.99346	0.26534
1807.06489	0.26679
1805.13633	0.26849
1803.20776	0.27110
1801.27920	0.27441
1799.35063	0.27755
1797.42207	0.27987
1795.49351	0.28235
1793.56494	0.28594
1791.63638	0.29013
1789.70781	0.29257
1787.77925	0.29388
1785.85068	0.29660
1783.92212	0.30054
1781.99355	0.30488
1780.06499	0.30928
1778.13643	0.31341
1776.20786	0.31757
1774.27930	0.32303
1772.35073	0.33040
1770.42217	0.33657
1768.49360	0.34028
1766.56504	0.34405
1764.63647	0.34882
1762.70791	0.35505
1760.77935	0.36280
1758.85078	0.36952
1756.92222	0.37622
1754.99365	0.38345
1753.06509	0.39039
1751.13652	0.39979
1749.20796	0.41159
1747.27939	0.42191
1745.35083	0.43015
1743.42227	0.43912
1741.49370	0.44956
1739.56514	0.46213
1737.63657	0.47458
1735.70801	0.48602
1733.77944	0.50375
1731.85088	0.52328
1729.92231	0.53750
1727.99375	0.55199
1726.06519	0.56812
1724.13662	0.58648
1722.20806	0.60663
1720.27949	0.62584
1718.35093	0.64945
1716.42236	0.68330
1714.49380	0.71294
1712.56523	0.73587
1710.63667	0.75892
1708.70811	0.78494
1706.77954	0.81547
1704.85098	0.85186
1702.92241	0.88380
1700.99385	0.91603
1699.06528	0.96471
1697.13672	1.00871
1695.20815	1.05266
1693.27959	1.09513
1691.35103	1.13042
1689.42246	1.17304
1687.49390	1.21879
1685.56533	1.26323
1683.63677	1.33101
1681.70820	1.39972
1679.77964	1.44301
1677.85107	1.48494
1675.92251	1.53404
1673.99395	1.59491
1672.06538	1.64941
1670.13682	1.70427
1668.20825	1.77593
1666.27969	1.83411
1664.35112	1.88402
1662.42256	1.94802
1660.49399	2.02142
1658.56543	2.07903
1656.63687	2.12556
1654.70830	2.16744
1652.77974	2.22965
1650.85117	2.28911
1648.92261	2.31012
1646.99404	2.33342
1645.06548	2.35666
1643.13691	2.37134
1641.20835	2.37756
1639.27979	2.38295
1637.35122	2.38608
1635.42266	2.38296
1633.49409	2.37190
1631.56553	2.35574
1629.63696	2.33632
1627.70840	2.30481
1625.77983	2.26894
1623.85127	2.22453
1621.92271	2.16934
1619.99414	2.11978
1618.06558	2.07268
1616.13701	2.00614
1614.20845	1.93707
1612.27988	1.88427
1610.35132	1.83047
1608.42275	1.77297
1606.49419	1.71639
1604.56562	1.66460
1602.63706	1.61516
1600.70850	1.56695
1598.77993	1.52264
1596.85137	1.48155
1594.92280	1.44165
1592.99424	1.40280
1591.06567	1.36754
1589.13711	1.33516
1587.20854	1.30533
1585.27998	1.27788
1583.35142	1.25251
1581.42285	1.22983
1579.49429	1.21142
1577.56572	1.19651
1575.63716	1.17879
1573.70859	1.16191
1571.78003	1.15136
1569.85146	1.14273
1567.92290	1.13352
1565.99434	1.12654
1564.06577	1.12275
1562.13721	1.12149
1560.20864	1.12429
1558.28008	1.13476
1556.35151	1.14238
1554.42295	1.14520
1552.49438	1.14856
1550.56582	1.15077
1548.63726	1.14999
1546.70869	1.14574
1544.78013	1.13840
1542.85156	1.12801
1540.92300	1.11030
1538.99443	1.07709
1537.06587	1.05027
1535.13730	1.03291
1533.20874	1.01111
1531.28018	0.98703
1529.35161	0.96947
1527.42305	0.95400
1525.49448	0.93825
1523.56592	0.92515
1521.63735	0.91332
1519.70879	0.90039
1517.78022	0.88857
1515.85166	0.87444
1513.92310	0.85895
1511.99453	0.84598
1510.06597	0.83590
1508.13740	0.82764
1506.20884	0.81141
1504.28027	0.79320
1502.35171	0.78306
1500.42314	0.77584
1498.49458	0.76886
1496.56602	0.75987
1494.63745	0.75000
1492.70889	0.74302
1490.78032	0.73843
1488.85176	0.73293
1486.92319	0.72582
1484.99463	0.71954
1483.06606	0.71526
1481.13750	0.71250
1479.20894	0.71064
1477.28037	0.71012
1475.35181	0.71128
1473.42324	0.71314
1471.49468	0.71243
1469.56611	0.70877
1467.63755	0.70558
1465.70898	0.70396
1463.78042	0.70275
1461.85186	0.70160
1459.92329	0.70212
1457.99473	0.70478
1456.06616	0.70551
1454.13760	0.70152
1452.20903	0.69738
1450.28047	0.69423
1448.35190	0.69159
1446.42334	0.68828
1444.49478	0.68468
1442.56621	0.68162
1440.63765	0.67891
1438.70908	0.67657
1436.78052	0.67373
1434.85195	0.66936
1432.92339	0.66535
1430.99482	0.66296
1429.06626	0.66184
1427.13770	0.66153
1425.20913	0.66227
1423.28057	0.66375
1421.35200	0.66509
1419.42344	0.66666
1417.49487	0.66732
1415.56631	0.66575
1413.63774	0.66435
1411.70918	0.66439
1409.78062	0.66558
1407.85205	0.66747
1405.92349	0.67006
1403.99492	0.67241
1402.06636	0.67337
1400.13779	0.67366
1398.20923	0.67318
1396.28066	0.67095
1394.35210	0.66654
1392.42354	0.66062
1390.49497	0.65517
1388.56641	0.65039
1386.63784	0.64474
1384.70928	0.63809
1382.78071	0.63189
1380.85215	0.62644
1378.92358	0.62184
1376.99502	0.61853
1375.06646	0.61662
1373.13789	0.61514
1371.20933	0.61364
1369.28076	0.61253
1367.35220	0.61127
1365.42363	0.60970
1363.49507	0.60845
1361.56650	0.60698
1359.63794	0.60481
1357.70937	0.60302
1355.78081	0.60179
1353.85225	0.60069
1351.92368	0.59972
1349.99512	0.59909
1348.06655	0.59858
1346.13799	0.59786
1344.20942	0.59709
1342.28086	0.59680
1340.35229	0.59715
1338.42373	0.59710
1336.49517	0.59608
1334.56660	0.59513
1332.63804	0.59494
1330.70947	0.59532
1328.78091	0.59581
1326.85234	0.59643
1324.92378	0.59743
1322.99521	0.59865
1321.06665	0.59989
1319.13809	0.60098
1317.20952	0.60153
1315.28096	0.60161
1313.35239	0.60151
1311.42383	0.60109
1309.49526	0.60045
1307.56670	0.59988
1305.63813	0.59949
1303.70957	0.59911
1301.78101	0.59840
1299.85244	0.59736
1297.92388	0.59622
1295.99531	0.59502
1294.06675	0.59369
1292.13818	0.59234
1290.20962	0.59104
1288.28105	0.58967
1286.35249	0.58819
1284.42393	0.58666
1282.49536	0.58516
1280.56680	0.58372
1278.63823	0.58224
1276.70967	0.58077
1274.78110	0.57947
1272.85254	0.57844
1270.92397	0.57770
1268.99541	0.57709
1267.06685	0.57627
1265.13828	0.57530
1263.20972	0.57436
1261.28115	0.57336
1259.35259	0.57232
1257.42402	0.57143
1255.49546	0.57087
1253.56689	0.57071
1251.63833	0.57090
1249.70977	0.57113
1247.78120	0.57109
1245.85264	0.57083
1243.92407	0.57039
1241.99551	0.56959
1240.06694	0.56832
1238.13838	0.56644
1236.20981	0.56402
1234.28125	0.56141
1232.35269	0.55884
1230.42412	0.55633
1228.49556	0.55391
1226.56699	0.55168
1224.63843	0.54977
1222.70986	0.54808
1220.78130	0.54644
1218.85273	0.54486
1216.92417	0.54348
1214.99561	0.54230
1213.06704	0.54130
1211.13848	0.54057
1209.20991	0.54002
1207.28135	0.53940
1205.35278	0.53854
1203.42422	0.53745
1201.49565	0.53626
1199.56709	0.53517
1197.63853	0.53432
1195.70996	0.53365
1193.78140	0.53306
1191.85283	0.53253
1189.92427	0.53212
1187.99570	0.53184
1186.06714	0.53178
1184.13857	0.53189
1182.21001	0.53230
1180.28145	0.53328
1178.35288	0.53475
1176.42432	0.53651
1174.49575	0.53823
1172.56719	0.53925
1170.63862	0.53933
1168.71006	0.53895
1166.78149	0.53850
1164.85293	0.53805
1162.92437	0.53755
1160.99580	0.53696
1159.06724	0.53616
1157.13867	0.53510
1155.21011	0.53391
1153.28154	0.53270
1151.35298	0.53112
1149.42441	0.52880
1147.49585	0.52608
1145.56729	0.52335
1143.63872	0.52077
1141.71016	0.51858
1139.78159	0.51689
1137.85303	0.51546
1135.92446	0.51417
1133.99590	0.51322
1132.06733	0.51279
1130.13877	0.51257
1128.21021	0.51219
1126.28164	0.51141
1124.35308	0.51029
1122.42451	0.50936
1120.49595	0.50893
1118.56738	0.50872
1116.63882	0.50848
1114.71025	0.50847
1112.78169	0.50884
1110.85312	0.50932
1108.92456	0.50993
1106.99600	0.51084
1105.06743	0.51198
1103.13887	0.51330
1101.21030	0.51486
1099.28174	0.51680
1097.35317	0.51918
1095.42461	0.52211
1093.49604	0.52561
1091.56748	0.52966
1089.63892	0.53432
1087.71035	0.53971
1085.78179	0.54591
1083.85322	0.55257
1081.92466	0.55884
1079.99609	0.56386
1078.06753	0.56700
1076.13896	0.56770
1074.21040	0.56564
1072.28184	0.56121
1070.35327	0.55506
1068.42471	0.54802
1066.49614	0.54116
1064.56758	0.53505
1062.63901	0.52948
1060.71045	0.52423
1058.78188	0.51944
1056.85332	0.51520
1054.92476	0.51136
1052.99619	0.50788
1051.06763	0.50489
1049.13906	0.50235
1047.21050	0.50014
1045.28193	0.49822
1043.35337	0.49643
1041.42480	0.49471
1039.49624	0.49337
1037.56768	0.49253
1035.63911	0.49198
1033.71055	0.49156
1031.78198	0.49117
1029.85342	0.49074
1027.92485	0.49021
1025.99629	0.48975
1024.06772	0.48960
1022.13916	0.48981
1020.21060	0.49022
1018.28203	0.49073
1016.35347	0.49135
1014.42490	0.49215
1012.49634	0.49307
1010.56777	0.49398
1008.63921	0.49496
1006.71064	0.49631
1004.78208	0.49809
1002.85352	0.50027
1000.92495	0.50303
998.99639	0.50640
997.06782	0.51030
995.13926	0.51464
993.21069	0.51895
991.28213	0.52251
989.35356	0.52485
987.42500	0.52613
985.49644	0.52690
983.56787	0.52752
981.63931	0.52823
979.71074	0.52928
977.78218	0.53060
975.85361	0.53245
973.92505	0.53531
971.99648	0.53884
970.06792	0.54228
968.13936	0.54563
966.21079	0.54951
964.28223	0.55410
962.35366	0.55904
960.42510	0.56408
958.49653	0.56918
956.56797	0.57467
954.63940	0.58079
952.71084	0.58721
950.78228	0.59366
948.85371	0.59977
946.92515	0.60546
944.99658	0.61153
943.06802	0.61826
941.13945	0.62476
939.21089	0.63058
937.28232	0.63621
935.35376	0.64214
933.42520	0.64820
931.49663	0.65376
929.56807	0.65884
927.63950	0.66451
925.71094	0.67090
923.78237	0.67696
921.85381	0.68262
919.92524	0.68861
917.99668	0.69558
916.06812	0.70399
914.13955	0.71290
912.21099	0.72074
910.28242	0.72737
908.35386	0.73426
906.42529	0.74261
904.49673	0.75206
902.56816	0.76127
900.63960	0.77005
898.71104	0.77986
896.78247	0.79078
894.85391	0.80097
892.92534	0.81024
890.99678	0.81978
889.06821	0.83043
887.13965	0.84234
885.21108	0.85445
883.28252	0.86611
881.35396	0.87763
879.42539	0.88881
877.49683	0.89927
875.56826	0.90901
873.63970	0.91887
871.71113	0.93043
869.78257	0.94332
867.85400	0.95596
865.92544	0.96793
863.99687	0.97815
862.06831	0.98647
860.13975	0.99564
858.21118	1.00795
856.28262	1.02177
854.35405	1.03415
852.42549	1.04563
850.49692	1.05834
848.56836	1.07143
846.63979	1.08294
844.71123	1.09376
842.78267	1.10564
840.85410	1.11718
838.92554	1.12629
836.99697	1.13505
835.06841	1.14558
833.13984	1.15627
831.21128	1.16597
829.28271	1.17540
827.35415	1.18412
825.42559	1.19201
823.49702	1.20290
821.56846	1.21777
819.63989	1.23202
817.71133	1.24229
815.78276	1.25026
813.85420	1.26310
811.92563	1.28729
809.99707	1.31109
808.06851	1.31295
806.13994	1.30515
804.21138	1.30511
802.28281	1.29498
800.35425	1.26884
798.42568	1.25718
796.49712	1.27924
794.56855	1.32274
792.63999	1.33923
790.71143	1.30117
788.78286	1.26443
786.85430	1.26163
784.92573	1.27463
782.99717	1.29093
781.06860	1.31892
779.14004	1.33879
777.21147	1.29777
775.28291	1.23760
773.35435	1.23494
771.42578	1.26031
769.49722	1.24274
767.56865	1.19733
765.64009	1.13792
763.71152	1.11761
761.78296	1.19600
759.85439	1.26742
757.92583	1.15246
755.99727	1.02494
754.06870	0.97595
752.14014	0.96188
750.21157	0.95457
748.28301	0.97638
746.35444	1.04757
744.42588	1.10689
742.49731	1.08582
740.56875	1.02412
738.64019	0.89608
736.71162	0.76423
734.78306	0.68131
732.85449	0.60987
730.92593	0.54604
728.99736	0.49037
727.06880	0.41114
725.14023	0.32856
723.21167	0.24767
721.28311	0.15728
719.35454	0.15002
717.42598	0.23269
715.49741	0.25703
713.56885	0.21719
711.64028	0.17942
709.71172	0.13654
707.78315	0.07523
705.85459	0.04773
703.92603	0.10381
701.99746	0.21216
700.06890	0.22657
698.14033	0.18671
696.21177	0.26898
694.28320	0.38735
692.35464	0.37003
690.42607	0.30707
688.49751	0.28060
686.56895	0.31878
684.64038	0.34417
682.71182	0.31449
680.78325	0.37271
678.85469	0.50127
676.92612	0.41322
674.99756	0.29515
673.06899	0.25637
671.14043	0.22309
669.21187	0.15948
667.28330	0.09406
665.35474	0.09288
663.42617	0.17281
661.49761	0.25376
659.56904	0.23978
657.64048	0.17543
655.71191	0.15618
653.78335	0.18023
651.85479	0.19334
649.92622	0.16467
647.99766	0.13266
646.06909	0.13685
644.14053	0.17781
642.21196	0.22701
640.28340	0.22712
638.35483	0.20517
636.42627	0.20946
634.49771	0.23468
632.56914	0.25779
630.64058	0.23979
628.71201	0.18774
626.78345	0.17883
624.85488	0.21824
622.92632	0.21943
620.99775	0.20433
619.06919	0.22502
617.14062	0.22451
615.21206	0.21520
613.28350	0.23151
611.35493	0.24908
609.42637	0.27344
607.49780	0.27151
605.56924	0.19373
603.64067	0.09134
601.71211	0.05775
599.78354	0.08552
597.85498	0.11902
595.92642	0.16174
593.99785	0.18485
592.06929	0.15711
590.14072	0.16003
588.21216	0.21933
586.28359	0.27298
584.35503	0.29183
582.42646	0.26621
580.49790	0.21265
578.56934	0.19810
576.64077	0.22248
574.71221	0.22037
572.78364	0.18814
570.85508	0.17015
568.92651	0.15403
566.99795	0.13676
565.06938	0.17063
563.14082	0.24250
561.21226	0.26988
559.28369	0.22518
557.35513	0.18788
555.42656	0.20189
553.49800	0.24696
551.56943	0.22920
549.64087	0.17973
547.71230	0.12703
545.78374	0.07183
543.85518	0.06729
541.92661	0.10506
539.99805	0.15065
538.06948	0.15370
536.14092	0.11459
534.21235	0.13848
532.28379	0.22029
530.35522	0.24426
528.42666	0.22395
526.49810	0.21582
524.56953	0.23800
522.64097	0.27353
520.71240	0.24918
518.78384	0.18706
516.85527	0.14589
514.92671	0.13307
512.99814	0.13393
511.06958	0.14868
509.14102	0.17490
507.21245	0.16588
505.28389	0.13195
503.35532	0.12398
501.42676	0.12486
499.49819	0.11691
