3997.91411	0.06286
3995.98555	0.06341
3994.05698	0.06361
3992.12842	0.06377
3990.19985	0.06395
3988.27129	0.06433
3986.34272	0.06485
3984.41416	0.06510
3982.48560	0.06526
3980.55703	0.06565
3978.62847	0.06582
3976.69990	0.06568
3974.77134	0.06566
3972.84277	0.06598
3970.91421	0.06651
3968.98564	0.06681
3967.05708	0.06668
3965.12852	0.06680
3963.19995	0.06763
3961.27139	0.06840
3959.34282	0.06834
3957.41426	0.06795
3955.48569	0.06767
3953.55713	0.06737
3951.62856	0.06746
3949.70000	0.06815
3947.77144	0.06877
3945.84287	0.06866
3943.91431	0.06844
3941.98574	0.06869
3940.05718	0.06867
3938.12861	0.06800
3936.20005	0.06729
3934.27148	0.06725
3932.34292	0.06807
3930.41436	0.06888
3928.48579	0.06892
3926.55723	0.06896
3924.62866	0.06941
3922.70010	0.06925
3920.77153	0.06847
3918.84297	0.06814
3916.91440	0.06836
3914.98584	0.06840
3913.05728	0.06784
3911.12871	0.06699
3909.20015	0.06659
3907.27158	0.06732
3905.34302	0.06921
3903.41445	0.07126
3901.48589	0.07179
3899.55732	0.07099
3897.62876	0.06973
3895.70020	0.06862
3893.77163	0.06863
3891.84307	0.06944
3889.91450	0.06948
3887.98594	0.06901
3886.05737	0.06962
3884.12881	0.07066
3882.20024	0.07079
3880.27168	0.07061
3878.34312	0.07001
3876.41455	0.06920
3874.48599	0.06957
3872.55742	0.07101
3870.62886	0.07231
3868.70029	0.07283
3866.77173	0.07255
3864.84316	0.07281
3862.91460	0.07355
3860.98604	0.07308
3859.05747	0.07222
3857.12891	0.07281
3855.20034	0.07517
3853.27178	0.07877
3851.34321	0.07983
3849.41465	0.07711
3847.48608	0.07498
3845.55752	0.07463
3843.62896	0.07570
3841.70039	0.07746
3839.77183	0.07945
3837.84326	0.08148
3835.91470	0.08234
3833.98613	0.08186
3832.05757	0.08135
3830.12900	0.08105
3828.20044	0.08093
3826.27187	0.08152
3824.34331	0.08274
3822.41475	0.08470
3820.48618	0.08798
3818.55762	0.09001
3816.62905	0.08984
3814.70049	0.08901
3812.77192	0.08771
3810.84336	0.08724
3808.91479	0.08828
3806.98623	0.09031
3805.05767	0.09255
3803.12910	0.09473
3801.20054	0.09705
3799.27197	0.09825
3797.34341	0.09834
3795.41484	0.09833
3793.48628	0.09821
3791.55771	0.09849
3789.62915	0.09924
3787.70059	0.10042
3785.77202	0.10237
3783.84346	0.10449
3781.91489	0.10592
3779.98633	0.10726
3778.05776	0.10887
3776.12920	0.11008
3774.20063	0.11122
3772.27207	0.11299
3770.34351	0.11566
3768.41494	0.11855
3766.48638	0.12063
3764.55781	0.12236
3762.62925	0.12402
3760.70068	0.12629
3758.77212	0.12967
3756.84355	0.13257
3754.91499	0.13436
3752.98643	0.13678
3751.05786	0.14112
3749.12930	0.14624
3747.20073	0.14940
3745.27217	0.15192
3743.34360	0.15525
3741.41504	0.15796
3739.48647	0.16053
3737.55791	0.16467
3735.62935	0.17116
3733.70078	0.17840
3731.77222	0.18297
3729.84365	0.18602
3727.91509	0.18988
3725.98652	0.19531
3724.05796	0.20160
3722.12939	0.20788
3720.20083	0.21408
3718.27227	0.22007
3716.34370	0.22627
3714.41514	0.23357
3712.48657	0.24399
3710.55801	0.25895
3708.62944	0.27342
3706.70088	0.28407
3704.77231	0.29453
3702.84375	0.30748
3700.91519	0.32430
3698.98662	0.34261
3697.05806	0.35975
3695.12949	0.37773
3693.20093	0.39723
3691.27236	0.41899
3689.34380	0.44665
3687.41523	0.47962
3685.48667	0.50880
3683.55811	0.53478
3681.62954	0.56314
3679.70098	0.59521
3677.77241	0.62913
3675.84385	0.66902
3673.91528	0.72088
3671.98672	0.76285
3670.05815	0.80109
3668.12959	0.85338
3666.20103	0.90045
3664.27246	0.93984
3662.34390	0.98271
3660.41533	1.02946
3658.48677	1.07582
3656.55820	1.12542
3654.62964	1.18080
3652.70107	1.22794
3650.77251	1.27000
3648.84395	1.32739
3646.91538	1.39461
3644.98682	1.44226
3643.05825	1.47942
3641.12969	1.51883
3639.20112	1.56314
3637.27256	1.60760
3635.34399	1.65053
3633.41543	1.69399
3631.48687	1.73571
3629.55830	1.77897
3627.62974	1.83385
3625.70117	1.88225
3623.77261	1.91473
3621.84404	1.94733
3619.91548	1.98573
3617.98691	2.03145
3616.05835	2.07449
3614.12979	2.11123
3612.20122	2.15045
3610.27266	2.18897
3608.34409	2.22752
3606.41553	2.26992
3604.48696	2.31020
3602.55840	2.34619
3600.62983	2.38497
3598.70127	2.42732
3596.77271	2.46857
3594.84414	2.50976
3592.91558	2.55105
3590.98701	2.58895
3589.05845	2.62462
3587.12988	2.66801
3585.20132	2.71602
3583.27275	2.75659
3581.34419	2.79455
3579.41562	2.83530
3577.48706	2.87704
3575.55850	2.91943
3573.62993	2.96438
3571.70137	3.00769
3569.77280	3.04770
3567.84424	3.09025
3565.91567	3.14261
3563.98711	3.19302
3562.05854	3.23442
3560.12998	3.27603
3558.20142	3.31925
3556.27285	3.36197
3554.34429	3.40546
3552.41572	3.45431
3550.48716	3.50462
3548.55859	3.55062
3546.63003	3.59587
3544.70146	3.64397
3542.77290	3.69249
3540.84434	3.73966
3538.91577	3.78526
3536.98721	3.82835
3535.05864	3.87375
3533.13008	3.92350
3531.20151	3.97495
3529.27295	4.02835
3527.34438	4.08391
3525.41582	4.13293
3523.48726	4.17471
3521.55869	4.22111
3519.63013	4.27089
3517.70156	4.31983
3515.77300	4.36845
3513.84443	4.41590
3511.91587	4.46481
3509.98730	4.51518
3508.05874	4.56045
3506.13018	4.60277
3504.20161	4.65082
3502.27305	4.70360
3500.34448	4.75377
3498.41592	4.80185
3496.48735	4.85278
3494.55879	4.90483
3492.63022	4.95191
3490.70166	4.99166
3488.77310	5.03195
3486.84453	5.07708
3484.91597	5.12412
3482.98740	5.17808
3481.05884	5.23826
3479.13027	5.28941
3477.20171	5.33141
3475.27314	5.37953
3473.34458	5.43405
3471.41602	5.48714
3469.48745	5.54270
3467.55889	5.59680
3465.63032	5.63740
3463.70176	5.67548
3461.77319	5.72601
3459.84463	5.78890
3457.91606	5.84889
3455.98750	5.89042
3454.05894	5.91970
3452.13037	5.95862
3450.20181	6.02043
3448.27324	6.10076
3446.34468	6.18434
3444.41611	6.23204
3442.48755	6.24414
3440.55898	6.26796
3438.63042	6.32615
3436.70186	6.40589
3434.77329	6.47589
3432.84473	6.53133
3430.91616	6.59048
3428.98760	6.64623
3427.05903	6.68757
3425.13047	6.73221
3423.20190	6.78356
3421.27334	6.83225
3419.34478	6.87572
3417.41621	6.93424
3415.48765	7.01699
3413.55908	7.07739
3411.63052	7.09192
3409.70195	7.09587
3407.77339	7.13706
3405.84482	7.21282
3403.91626	7.28681
3401.98770	7.32941
3400.05913	7.36338
3398.13057	7.41849
3396.20200	7.44693
3394.27344	7.43996
3392.34487	7.43943
3390.41631	7.47105
3388.48774	7.55889
3386.55918	7.68093
3384.63062	7.73995
3382.70205	7.74384
3380.77349	7.76422
3378.84492	7.79345
3376.91636	7.84543
3374.98779	7.92498
3373.05923	7.99205
3371.13066	7.99023
3369.20210	7.95136
3367.27354	7.95372
3365.34497	8.01809
3363.41641	8.08194
3361.48784	8.11358
3359.55928	8.16530
3357.63071	8.18887
3355.70215	8.20737
3353.77358	8.26072
3351.84502	8.21894
3349.91646	8.11046
3347.98789	8.10556
3346.05933	8.18442
3344.13076	8.25142
3342.20220	8.30210
3340.27363	8.31307
3338.34507	8.28626
3336.41650	8.28947
3334.48794	8.31928
3332.55937	8.28399
3330.63081	8.22711
3328.70225	8.24872
3326.77368	8.35308
3324.84512	8.45582
3322.91655	8.46984
3320.98799	8.43613
3319.05942	8.37644
3317.13086	8.29674
3315.20229	8.25719
3313.27373	8.31178
3311.34517	8.41289
3309.41660	8.48399
3307.48804	8.48781
3305.55947	8.42269
3303.63091	8.39885
3301.70234	8.42169
3299.77378	8.42626
3297.84521	8.48164
3295.91665	8.58458
3293.98809	8.56523
3292.05952	8.44326
3290.13096	8.39609
3288.20239	8.51735
3286.27383	8.69384
3284.34526	8.70451
3282.41670	8.65237
3280.48813	8.59763
3278.55957	8.45276
3276.63101	8.35044
3274.70244	8.48416
3272.77388	8.82813
3270.84531	8.99940
3268.91675	8.81542
3266.98818	8.64491
3265.05962	8.61952
3263.13105	8.64028
3261.20249	8.66087
3259.27393	8.63314
3257.34536	8.60334
3255.41680	8.64062
3253.48823	8.68913
3251.55967	8.73845
3249.63110	8.79608
3247.70254	8.72211
3245.77397	8.51055
3243.84541	8.43132
3241.91685	8.54945
3239.98828	8.67473
3238.05972	8.70941
3236.13115	8.70715
3234.20259	8.62533
3232.27402	8.44253
3230.34546	8.30713
3228.41689	8.30538
3226.48833	8.39253
3224.55977	8.47028
3222.63120	8.51518
3220.70264	8.56133
3218.77407	8.57564
3216.84551	8.53135
3214.91694	8.46181
3212.98838	8.41407
3211.05981	8.43272
3209.13125	8.42843
3207.20269	8.25148
3205.27412	8.03850
3203.34556	7.97010
3201.41699	7.99079
3199.48843	7.95461
3197.55986	7.87506
3195.63130	7.86409
3193.70273	7.92793
3191.77417	7.95672
3189.84561	7.90662
3187.91704	7.83055
3185.98848	7.75140
3184.05991	7.68546
3182.13135	7.61640
3180.20278	7.51300
3178.27422	7.41197
3176.34565	7.35129
3174.41709	7.31817
3172.48853	7.28053
3170.55996	7.22181
3168.63140	7.17339
3166.70283	7.14382
3164.77427	7.08251
3162.84570	7.00014
3160.91714	6.94935
3158.98857	6.90735
3157.06001	6.81824
3155.13145	6.69771
3153.20288	6.59366
3151.27432	6.51803
3149.34575	6.45934
3147.41719	6.39848
3145.48862	6.32132
3143.56006	6.23168
3141.63149	6.14365
3139.70293	6.06418
3137.77437	5.99308
3135.84580	5.92851
3133.91724	5.86059
3131.98867	5.78012
3130.06011	5.70369
3128.13154	5.64233
3126.20298	5.57997
3124.27441	5.51052
3122.34585	5.43503
3120.41729	5.35551
3118.48872	5.28100
3116.56016	5.21100
3114.63159	5.13887
3112.70303	5.06385
3110.77446	4.98731
3108.84590	4.91274
3106.91733	4.84482
3104.98877	4.78078
3103.06021	4.71326
3101.13164	4.64188
3099.20308	4.57380
3097.27451	4.50839
3095.34595	4.44053
3093.41738	4.37231
3091.48882	4.30605
3089.56025	4.24054
3087.63169	4.17366
3085.70312	4.10798
3083.77456	4.04715
3081.84600	3.98742
3079.91743	3.92597
3077.98887	3.86584
3076.06030	3.80770
3074.13174	3.74918
3072.20317	3.68894
3070.27461	3.62852
3068.34604	3.57041
3066.41748	3.51274
3064.48892	3.45440
3062.56035	3.39831
3060.63179	3.34495
3058.70322	3.29177
3056.77466	3.23651
3054.84609	3.18009
3052.91753	3.12590
3050.98896	3.07513
3049.06040	3.02574
3047.13184	2.97572
3045.20327	2.92506
3043.27471	2.87407
3041.34614	2.82270
3039.41758	2.77304
3037.48901	2.72686
3035.56045	2.68216
3033.63188	2.63719
3031.70332	2.59240
3029.77476	2.54816
3027.84619	2.50487
3025.91763	2.46214
3023.98906	2.41865
3022.06050	2.37486
3020.13193	2.33233
3018.20337	2.29123
3016.27480	2.25109
3014.34624	2.21207
3012.41768	2.17373
3010.48911	2.13518
3008.56055	2.09695
3006.63198	2.05989
3004.70342	2.02366
3002.77485	1.98785
3000.84629	1.95268
2998.91772	1.91852
2996.98916	1.88531
2995.06060	1.85261
2993.13203	1.82011
2991.20347	1.78828
2989.27490	1.75782
2987.34634	1.72839
2985.41777	1.69913
2983.48921	1.66998
2981.56064	1.64142
2979.63208	1.61363
2977.70352	1.58636
2975.77495	1.55943
2973.84639	1.53325
2971.91782	1.50774
2969.98926	1.48257
2968.06069	1.45767
2966.13213	1.43291
2964.20356	1.40844
2962.27500	1.38415
2960.34644	1.35968
2958.41787	1.33526
2956.48931	1.31115
2954.56074	1.28741
2952.63218	1.26386
2950.70361	1.24040
2948.77505	1.21737
2946.84648	1.19488
2944.91792	1.17281
2942.98936	1.15142
2941.06079	1.13053
2939.13223	1.10980
2937.20366	1.08953
2935.27510	1.06967
2933.34653	1.05005
2931.41797	1.03064
2929.48940	1.01122
2927.56084	0.99237
2925.63228	0.97468
2923.70371	0.95759
2921.77515	0.94052
2919.84658	0.92333
2917.91802	0.90623
2915.98945	0.88952
2914.06089	0.87295
2912.13232	0.85659
2910.20376	0.84073
2908.27520	0.82530
2906.34663	0.81039
2904.41807	0.79633
2902.48950	0.78278
2900.56094	0.76897
2898.63237	0.75543
2896.70381	0.74305
2894.77524	0.73102
2892.84668	0.71849
2890.91812	0.70600
2888.98955	0.69426
2887.06099	0.68327
2885.13242	0.67268
2883.20386	0.66210
2881.27529	0.65168
2879.34673	0.64173
2877.41816	0.63213
2875.48960	0.62252
2873.56104	0.61268
2871.63247	0.60226
2869.70391	0.59114
2867.77534	0.57996
2865.84678	0.56904
2863.91821	0.55809
2861.98965	0.54731
2860.06108	0.53701
2858.13252	0.52717
2856.20396	0.51765
2854.27539	0.50842
2852.34683	0.49972
2850.41826	0.49166
2848.48970	0.48378
2846.56113	0.47590
2844.63257	0.46842
2842.70400	0.46143
2840.77544	0.45465
2838.84687	0.44812
2836.91831	0.44209
2834.98975	0.43627
2833.06118	0.43040
2831.13262	0.42461
2829.20405	0.41889
2827.27549	0.41295
2825.34692	0.40684
2823.41836	0.40084
2821.48979	0.39504
2819.56123	0.38932
2817.63267	0.38357
2815.70410	0.37784
2813.77554	0.37234
2811.84697	0.36711
2809.91841	0.36200
2807.98984	0.35686
2806.06128	0.35176
2804.13271	0.34683
2802.20415	0.34191
2800.27559	0.33683
2798.34702	0.33192
2796.41846	0.32735
2794.48989	0.32288
2792.56133	0.31830
2790.63276	0.31362
2788.70420	0.30916
2786.77563	0.30508
2784.84707	0.30104
2782.91851	0.29684
2780.98994	0.29266
2779.06138	0.28858
2777.13281	0.28462
2775.20425	0.28080
2773.27568	0.27704
2771.34712	0.27338
2769.41855	0.26992
2767.48999	0.26656
2765.56143	0.26316
2763.63286	0.25973
2761.70430	0.25637
2759.77573	0.25321
2757.84717	0.25027
2755.91860	0.24735
2753.99004	0.24436
2752.06147	0.24135
2750.13291	0.23828
2748.20435	0.23533
2746.27578	0.23260
2744.34722	0.22994
2742.41865	0.22727
2740.49009	0.22466
2738.56152	0.22217
2736.63296	0.21966
2734.70439	0.21716
2732.77583	0.21479
2730.84727	0.21261
2728.91870	0.21053
2726.99014	0.20836
2725.06157	0.20615
2723.13301	0.20406
2721.20444	0.20203
2719.27588	0.19999
2717.34731	0.19802
2715.41875	0.19615
2713.49019	0.19434
2711.56162	0.19256
2709.63306	0.19084
2707.70449	0.18917
2705.77593	0.18759
2703.84736	0.18609
2701.91880	0.18449
2699.99023	0.18294
2698.06167	0.18153
2696.13311	0.18007
2694.20454	0.17863
2692.27598	0.17739
2690.34741	0.17624
2688.41885	0.17502
2686.49028	0.17375
2684.56172	0.17253
2682.63315	0.17137
2680.70459	0.17019
2678.77603	0.16903
2676.84746	0.16791
2674.91890	0.16681
2672.99033	0.16576
2671.06177	0.16485
2669.13320	0.16405
2667.20464	0.16321
2665.27607	0.16231
2663.34751	0.16142
2661.41895	0.16054
2659.49038	0.15958
2657.56182	0.15875
2655.63325	0.15823
2653.70469	0.15771
2651.77612	0.15700
2649.84756	0.15635
2647.91899	0.15578
2645.99043	0.15516
2644.06187	0.15458
2642.13330	0.15412
2640.20474	0.15366
2638.27617	0.15326
2636.34761	0.15298
2634.41904	0.15265
2632.49048	0.15224
2630.56191	0.15184
2628.63335	0.15139
2626.70479	0.15089
2624.77622	0.15050
2622.84766	0.15023
2620.91909	0.14994
2618.99053	0.14974
2617.06196	0.14967
2615.13340	0.14951
2613.20483	0.14920
2611.27627	0.14899
2609.34771	0.14897
2607.41914	0.14905
2605.49058	0.14909
2603.56201	0.14908
2601.63345	0.14905
2599.70488	0.14899
2597.77632	0.14899
2595.84775	0.14908
2593.91919	0.14920
2591.99062	0.14932
2590.06206	0.14944
2588.13350	0.14953
2586.20493	0.14976
2584.27637	0.15014
2582.34780	0.15042
2580.41924	0.15057
2578.49067	0.15078
2576.56211	0.15105
2574.63354	0.15127
2572.70498	0.15151
2570.77642	0.15192
2568.84785	0.15249
2566.91929	0.15297
2564.99072	0.15331
2563.06216	0.15363
2561.13359	0.15398
2559.20503	0.15432
2557.27646	0.15470
2555.34790	0.15529
2553.41934	0.15606
2551.49077	0.15675
2549.56221	0.15721
2547.63364	0.15762
2545.70508	0.15824
2543.77651	0.15904
2541.84795	0.15979
2539.91938	0.16036
2537.99082	0.16082
2536.06226	0.16129
2534.13369	0.16193
2532.20513	0.16268
2530.27656	0.16339
2528.34800	0.16415
2526.41943	0.16496
2524.49087	0.16565
2522.56230	0.16633
2520.63374	0.16714
2518.70518	0.16797
2516.77661	0.16876
2514.84805	0.16952
2512.91948	0.17027
2510.99092	0.17111
2509.06235	0.17206
2507.13379	0.17296
2505.20522	0.17378
2503.27666	0.17465
2501.34810	0.17551
2499.41953	0.17628
2497.49097	0.17696
2495.56240	0.17775
2493.63384	0.17866
2491.70527	0.17953
2489.77671	0.18037
2487.84814	0.18126
2485.91958	0.18210
2483.99102	0.18282
2482.06245	0.18354
2480.13389	0.18444
2478.20532	0.18553
2476.27676	0.18657
2474.34819	0.18742
2472.41963	0.18823
2470.49106	0.18909
2468.56250	0.19003
2466.63394	0.19098
2464.70537	0.19197
2462.77681	0.19303
2460.84824	0.19412
2458.91968	0.19508
2456.99111	0.19593
2455.06255	0.19680
2453.13398	0.19770
2451.20542	0.19860
2449.27686	0.19953
2447.34829	0.20055
2445.41973	0.20165
2443.49116	0.20273
2441.56260	0.20379
2439.63403	0.20476
2437.70547	0.20562
2435.77690	0.20646
2433.84834	0.20744
2431.91978	0.20863
2429.99121	0.20989
2428.06265	0.21107
2426.13408	0.21221
2424.20552	0.21339
2422.27695	0.21461
2420.34839	0.21572
2418.41982	0.21667
2416.49126	0.21760
2414.56270	0.21868
2412.63413	0.22001
2410.70557	0.22142
2408.77700	0.22264
2406.84844	0.22375
2404.91987	0.22489
2402.99131	0.22599
2401.06274	0.22709
2399.13418	0.22826
2397.20562	0.22958
2395.27705	0.23098
2393.34849	0.23224
2391.41992	0.23343
2389.49136	0.23483
2387.56279	0.23657
2385.63423	0.23885
2383.70566	0.24209
2381.77710	0.24639
2379.84854	0.25150
2377.91997	0.25714
2375.99141	0.26316
2374.06284	0.26973
2372.13428	0.27729
2370.20571	0.28618
2368.27715	0.29572
2366.34858	0.30445
2364.42002	0.31155
2362.49146	0.31732
2360.56289	0.32134
2358.63433	0.32218
2356.70576	0.31981
2354.77720	0.31513
2352.84863	0.30892
2350.92007	0.30229
2348.99150	0.29830
2347.06294	0.29942
2345.13437	0.30584
2343.20581	0.31395
2341.27725	0.31880
2339.34868	0.32025
2337.42012	0.32027
2335.49155	0.32002
2333.56299	0.31988
2331.63442	0.32052
2329.70586	0.32143
2327.77729	0.32142
2325.84873	0.32048
2323.92017	0.31949
2321.99160	0.31896
2320.06304	0.31817
2318.13447	0.31657
2316.20591	0.31492
2314.27734	0.31427
2312.34878	0.31455
2310.42021	0.31496
2308.49165	0.31504
2306.56309	0.31483
2304.63452	0.31462
2302.70596	0.31498
2300.77739	0.31576
2298.84883	0.31646
2296.92026	0.31728
2294.99170	0.31846
2293.06313	0.31978
2291.13457	0.32091
2289.20601	0.32184
2287.27744	0.32289
2285.34888	0.32425
2283.42031	0.32582
2281.49175	0.32762
2279.56318	0.32973
2277.63462	0.33203
2275.70605	0.33432
2273.77749	0.33647
2271.84893	0.33852
2269.92036	0.34060
2267.99180	0.34268
2266.06323	0.34472
2264.13467	0.34679
2262.20610	0.34888
2260.27754	0.35094
2258.34897	0.35298
2256.42041	0.35500
2254.49185	0.35693
2252.56328	0.35886
2250.63472	0.36084
2248.70615	0.36290
2246.77759	0.36504
2244.84902	0.36724
2242.92046	0.36945
2240.99189	0.37171
2239.06333	0.37392
2237.13477	0.37609
2235.20620	0.37831
2233.27764	0.38065
2231.34907	0.38297
2229.42051	0.38515
2227.49194	0.38724
2225.56338	0.38933
2223.63481	0.39147
2221.70625	0.39364
2219.77769	0.39589
2217.84912	0.39815
2215.92056	0.40033
2213.99199	0.40252
2212.06343	0.40476
2210.13486	0.40692
2208.20630	0.40897
2206.27773	0.41100
2204.34917	0.41302
2202.42061	0.41517
2200.49204	0.41735
2198.56348	0.41940
2196.63491	0.42130
2194.70635	0.42318
2192.77778	0.42514
2190.84922	0.42715
2188.92065	0.42908
2186.99209	0.43089
2185.06353	0.43260
2183.13496	0.43426
2181.20640	0.43599
2179.27783	0.43778
2177.34927	0.43941
2175.42070	0.44088
2173.49214	0.44239
2171.56357	0.44389
2169.63501	0.44527
2167.70645	0.44657
2165.77788	0.44780
2163.84932	0.44897
2161.92075	0.45012
2159.99219	0.45130
2158.06362	0.45251
2156.13506	0.45362
2154.20649	0.45441
2152.27793	0.45493
2150.34937	0.45551
2148.42080	0.45621
2146.49224	0.45680
2144.56367	0.45727
2142.63511	0.45761
2140.70654	0.45788
2138.77798	0.45820
2136.84941	0.45848
2134.92085	0.45856
2132.99229	0.45855
2131.06372	0.45854
2129.13516	0.45840
2127.20659	0.45803
2125.27803	0.45762
2123.34946	0.45727
2121.42090	0.45683
2119.49233	0.45625
2117.56377	0.45566
2115.63521	0.45506
2113.70664	0.45436
2111.77808	0.45346
2109.84951	0.45234
2107.92095	0.45116
2105.99238	0.44995
2104.06382	0.44870
2102.13525	0.44747
2100.20669	0.44622
2098.27812	0.44481
2096.34956	0.44327
2094.42100	0.44172
2092.49243	0.44012
2090.56387	0.43838
2088.63530	0.43652
2086.70674	0.43471
2084.77817	0.43293
2082.84961	0.43107
2080.92104	0.42912
2078.99248	0.42705
2077.06392	0.42488
2075.13535	0.42271
2073.20679	0.42055
2071.27822	0.41831
2069.34966	0.41599
2067.42109	0.41371
2065.49253	0.41147
2063.56396	0.40904
2061.63540	0.40655
2059.70684	0.40408
2057.77827	0.40161
2055.84971	0.39913
2053.92114	0.39652
2051.99258	0.39387
2050.06401	0.39128
2048.13545	0.38859
2046.20688	0.38584
2044.27832	0.38318
2042.34976	0.38048
2040.42119	0.37768
2038.49263	0.37494
2036.56406	0.37230
2034.63550	0.36963
2032.70693	0.36690
2030.77837	0.36418
2028.84980	0.36143
2026.92124	0.35863
2024.99268	0.35579
2023.06411	0.35288
2021.13555	0.35000
2019.20698	0.34732
2017.27842	0.34473
2015.34985	0.34195
2013.42129	0.33906
2011.49272	0.33629
2009.56416	0.33364
2007.63560	0.33089
2005.70703	0.32804
2003.77847	0.32527
2001.84990	0.32261
1999.92134	0.32000
1997.99277	0.31742
1996.06421	0.31486
1994.13564	0.31246
1992.20708	0.31019
1990.27852	0.30771
1988.34995	0.30497
1986.42139	0.30221
1984.49282	0.29969
1982.56426	0.29739
1980.63569	0.29512
1978.70713	0.29286
1976.77856	0.29060
1974.85000	0.28843
1972.92144	0.28636
1970.99287	0.28430
1969.06431	0.28230
1967.13574	0.28036
1965.20718	0.27828
1963.27861	0.27614
1961.35005	0.27418
1959.42148	0.27234
1957.49292	0.27048
1955.56436	0.26862
1953.63579	0.26688
1951.70723	0.26524
1949.77866	0.26362
1947.85010	0.26202
1945.92153	0.26055
1943.99297	0.25927
1942.06440	0.25789
1940.13584	0.25623
1938.20728	0.25463
1936.27871	0.25321
1934.35015	0.25185
1932.42158	0.25059
1930.49302	0.24949
1928.56445	0.24847
1926.63589	0.24745
1924.70732	0.24662
1922.77876	0.24585
1920.85020	0.24484
1918.92163	0.24384
1916.99307	0.24293
1915.06450	0.24186
1913.13594	0.24081
1911.20737	0.24014
1909.27881	0.23966
1907.35024	0.23903
1905.42168	0.23824
1903.49312	0.23753
1901.56455	0.23688
1899.63599	0.23628
1897.70742	0.23588
1895.77886	0.23564
1893.85029	0.23536
1891.92173	0.23502
1889.99316	0.23494
1888.06460	0.23478
1886.13604	0.23439
1884.20747	0.23409
1882.27891	0.23381
1880.35034	0.23357
1878.42178	0.23342
1876.49321	0.23338
1874.56465	0.23343
1872.63608	0.23369
1870.70752	0.23426
1868.77896	0.23507
1866.85039	0.23537
1864.92183	0.23500
1862.99326	0.23474
1861.06470	0.23488
1859.13613	0.23528
1857.20757	0.23566
1855.27900	0.23606
1853.35044	0.23648
1851.42187	0.23700
1849.49331	0.23769
1847.56475	0.23864
1845.63618	0.23973
1843.70762	0.24079
1841.77905	0.24137
1839.85049	0.24165
1837.92192	0.24236
1835.99336	0.24329
1834.06479	0.24424
1832.13623	0.24543
1830.20767	0.24715
1828.27910	0.24871
1826.35054	0.24968
1824.42197	0.25083
1822.49341	0.25196
1820.56484	0.25302
1818.63628	0.25421
1816.70771	0.25571
1814.77915	0.25741
1812.85059	0.25940
1810.92202	0.26164
1808.99346	0.26372
1807.06489	0.26559
1805.13633	0.26746
1803.20776	0.26976
1801.27920	0.27247
1799.35063	0.27538
1797.42207	0.27792
1795.49351	0.28041
1793.56494	0.28346
1791.63638	0.28709
1789.70781	0.29013
1787.77925	0.29242
1785.85068	0.29541
1783.92212	0.29911
1781.99355	0.30319
1780.06499	0.30755
1778.13643	0.31194
1776.20786	0.31610
1774.27930	0.32070
1772.35073	0.32682
1770.42217	0.33308
1768.49360	0.33806
1766.56504	0.34293
1764.63647	0.34814
1762.70791	0.35406
1760.77935	0.36155
1758.85078	0.36861
1756.92222	0.37574
1754.99365	0.38346
1753.06509	0.39056
1751.13652	0.39921
1749.20796	0.41004
1747.27939	0.42038
1745.35083	0.42937
1743.42227	0.43898
1741.49370	0.44961
1739.56514	0.46204
1737.63657	0.47444
1735.70801	0.48547
1733.77944	0.50215
1731.85088	0.52180
1729.92231	0.53716
1727.99375	0.55265
1726.06519	0.56934
1724.13662	0.58765
1722.20806	0.60750
1720.27949	0.62620
1718.35093	0.64860
1716.42236	0.68108
1714.49380	0.71104
1712.56523	0.73515
1710.63667	0.75898
1708.70811	0.78496
1706.77954	0.81432
1704.85098	0.84910
1702.92241	0.88044
1700.99385	0.91192
1699.06528	0.95840
1697.13672	1.00113
1695.20815	1.04486
1693.27959	1.08706
1691.35103	1.12123
1689.42246	1.16114
1687.49390	1.20358
1685.56533	1.24484
1683.63677	1.30773
1681.70820	1.37281
1679.77964	1.41510
1677.85107	1.45555
1675.92251	1.50190
1673.99395	1.55881
1672.06538	1.60977
1670.13682	1.66078
1668.20825	1.72686
1666.27969	1.78041
1664.35112	1.82629
1662.42256	1.88400
1660.49399	1.94906
1658.56543	2.00034
1656.63687	2.04298
1654.70830	2.08374
1652.77974	2.14456
1650.85117	2.19689
1648.92261	2.21495
1646.99404	2.23992
1645.06548	2.26670
1643.13691	2.28481
1641.20835	2.29559
1639.27979	2.30545
1637.35122	2.31232
1635.42266	2.31157
1633.49409	2.30051
1631.56553	2.28432
1629.63696	2.26683
1627.70840	2.23965
1625.77983	2.20793
1623.85127	2.16661
1621.92271	2.11493
1619.99414	2.06881
1618.06558	2.02355
1616.13701	1.95868
1614.20845	1.89288
1612.27988	1.84330
1610.35132	1.79196
1608.42275	1.73633
1606.49419	1.68148
1604.56562	1.63076
1602.63706	1.58187
1600.70850	1.53480
1598.77993	1.49149
1596.85137	1.45028
1594.92280	1.41039
1592.99424	1.37213
1591.06567	1.33714
1589.13711	1.30441
1587.20854	1.27366
1585.27998	1.24526
1583.35142	1.21928
1581.42285	1.19592
1579.49429	1.17582
1577.56572	1.15769
1575.63716	1.13630
1573.70859	1.11790
1571.78003	1.10621
1569.85146	1.09437
1567.92290	1.08130
1565.99434	1.07206
1564.06577	1.06585
1562.13721	1.06168
1560.20864	1.06036
1558.28008	1.06035
1556.35151	1.05855
1554.42295	1.05685
1552.49438	1.05586
1550.56582	1.05394
1548.63726	1.04957
1546.70869	1.04310
1544.78013	1.03468
1542.85156	1.02421
1540.92300	1.00895
1538.99443	0.98251
1537.06587	0.96155
1535.13730	0.94789
1533.20874	0.93064
1531.28018	0.91170
1529.35161	0.89766
1527.42305	0.88484
1525.49448	0.87179
1523.56592	0.86093
1521.63735	0.85077
1519.70879	0.83984
1517.78022	0.83028
1515.85166	0.81954
1513.92310	0.80815
1511.99453	0.79825
1510.06597	0.78985
1508.13740	0.78240
1506.20884	0.76968
1504.28027	0.75691
1502.35171	0.74981
1500.42314	0.74437
1498.49458	0.73883
1496.56602	0.73191
1494.63745	0.72456
1492.70889	0.71900
1490.78032	0.71474
1488.85176	0.70994
1486.92319	0.70477
1484.99463	0.70044
1483.06606	0.69711
1481.13750	0.69439
1479.20894	0.69223
1477.28037	0.69098
1475.35181	0.69075
1473.42324	0.69103
1471.49468	0.68960
1469.56611	0.68638
1467.63755	0.68354
1465.70898	0.68150
1463.78042	0.67989
1461.85186	0.67871
1459.92329	0.67848
1457.99473	0.67925
1456.06616	0.67857
1454.13760	0.67525
1452.20903	0.67228
1450.28047	0.66992
1448.35190	0.66759
1446.42334	0.66492
1444.49478	0.66220
1442.56621	0.65966
1440.63765	0.65724
1438.70908	0.65498
1436.78052	0.65226
1434.85195	0.64889
1432.92339	0.64609
1430.99482	0.64416
1429.06626	0.64284
1427.13770	0.64226
1425.20913	0.64245
1423.28057	0.64294
1421.35200	0.64316
1419.42344	0.64326
1417.49487	0.64301
1415.56631	0.64190
1413.63774	0.64080
1411.70918	0.64040
1409.78062	0.64075
1407.85205	0.64162
1405.92349	0.64284
1403.99492	0.64383
1402.06636	0.64393
1400.13779	0.64325
1398.20923	0.64182
1396.28066	0.63952
1394.35210	0.63608
1392.42354	0.63184
1390.49497	0.62803
1388.56641	0.62456
1386.63784	0.62044
1384.70928	0.61581
1382.78071	0.61158
1380.85215	0.60777
1378.92358	0.60446
1376.99502	0.60195
1375.06646	0.60024
1373.13789	0.59890
1371.20933	0.59772
1369.28076	0.59672
1367.35220	0.59557
1365.42363	0.59425
1363.49507	0.59303
1361.56650	0.59166
1359.63794	0.58997
1357.70937	0.58848
1355.78081	0.58730
1353.85225	0.58628
1351.92368	0.58546
1349.99512	0.58492
1348.06655	0.58443
1346.13799	0.58375
1344.20942	0.58288
1342.28086	0.58202
1340.35229	0.58149
1338.42373	0.58099
1336.49517	0.58024
1334.56660	0.57961
1332.63804	0.57934
1330.70947	0.57931
1328.78091	0.57938
1326.85234	0.57959
1324.92378	0.57998
1322.99521	0.58048
1321.06665	0.58102
1319.13809	0.58142
1317.20952	0.58152
1315.28096	0.58139
1313.35239	0.58104
1311.42383	0.58048
1309.49526	0.57977
1307.56670	0.57910
1305.63813	0.57858
1303.70957	0.57802
1301.78101	0.57724
1299.85244	0.57631
1297.92388	0.57542
1295.99531	0.57444
1294.06675	0.57322
1292.13818	0.57196
1290.20962	0.57082
1288.28105	0.56972
1286.35249	0.56851
1284.42393	0.56726
1282.49536	0.56605
1280.56680	0.56491
1278.63823	0.56380
1276.70967	0.56257
1274.78110	0.56142
1272.85254	0.56056
1270.92397	0.55990
1268.99541	0.55925
1267.06685	0.55858
1265.13828	0.55786
1263.20972	0.55714
1261.28115	0.55649
1259.35259	0.55582
1257.42402	0.55510
1255.49546	0.55461
1253.56689	0.55445
1251.63833	0.55452
1249.70977	0.55470
1247.78120	0.55469
1245.85264	0.55435
1243.92407	0.55381
1241.99551	0.55320
1240.06694	0.55239
1238.13838	0.55114
1236.20981	0.54943
1234.28125	0.54754
1232.35269	0.54561
1230.42412	0.54366
1228.49556	0.54183
1226.56699	0.54009
1224.63843	0.53851
1222.70986	0.53728
1220.78130	0.53622
1218.85273	0.53499
1216.92417	0.53362
1214.99561	0.53243
1213.06704	0.53149
1211.13848	0.53068
1209.20991	0.53005
1207.28135	0.52955
1205.35278	0.52887
1203.42422	0.52799
1201.49565	0.52709
1199.56709	0.52625
1197.63853	0.52551
1195.70996	0.52492
1193.78140	0.52447
1191.85283	0.52403
1189.92427	0.52366
1187.99570	0.52342
1186.06714	0.52316
1184.13857	0.52290
1182.21001	0.52300
1180.28145	0.52367
1178.35288	0.52486
1176.42432	0.52637
1174.49575	0.52771
1172.56719	0.52847
1170.63862	0.52867
1168.71006	0.52848
1166.78149	0.52814
1164.85293	0.52788
1162.92437	0.52770
1160.99580	0.52744
1159.06724	0.52696
1157.13867	0.52620
1155.21011	0.52511
1153.28154	0.52371
1151.35298	0.52199
1149.42441	0.51999
1147.49585	0.51778
1145.56729	0.51524
1143.63872	0.51253
1141.71016	0.51016
1139.78159	0.50814
1137.85303	0.50631
1135.92446	0.50486
1133.99590	0.50383
1132.06733	0.50292
1130.13877	0.50200
1128.21021	0.50118
1126.28164	0.50037
1124.35308	0.49950
1122.42451	0.49887
1120.49595	0.49844
1118.56738	0.49803
1116.63882	0.49774
1114.71025	0.49763
1112.78169	0.49779
1110.85312	0.49840
1108.92456	0.49936
1106.99600	0.50044
1105.06743	0.50154
1103.13887	0.50277
1101.21030	0.50432
1099.28174	0.50620
1097.35317	0.50831
1095.42461	0.51083
1093.49604	0.51422
1091.56748	0.51862
1089.63892	0.52381
1087.71035	0.52981
1085.78179	0.53646
1083.85322	0.54330
1081.92466	0.54978
1079.99609	0.55510
1078.06753	0.55829
1076.13896	0.55891
1074.21040	0.55680
1072.28184	0.55209
1070.35327	0.54575
1068.42471	0.53900
1066.49614	0.53243
1064.56758	0.52614
1062.63901	0.52030
1060.71045	0.51507
1058.78188	0.51053
1056.85332	0.50676
1054.92476	0.50359
1052.99619	0.50069
1051.06763	0.49794
1049.13906	0.49544
1047.21050	0.49352
1045.28193	0.49225
1043.35337	0.49130
1041.42480	0.49045
1039.49624	0.48975
1037.56768	0.48922
1035.63911	0.48873
1033.71055	0.48825
1031.78198	0.48800
1029.85342	0.48771
1027.92485	0.48710
1025.99629	0.48647
1024.06772	0.48625
1022.13916	0.48644
1020.21060	0.48671
1018.28203	0.48698
1016.35347	0.48754
1014.42490	0.48831
1012.49634	0.48907
1010.56777	0.49001
1008.63921	0.49129
1006.71064	0.49280
1004.78208	0.49444
1002.85352	0.49633
1000.92495	0.49878
998.99639	0.50199
997.06782	0.50578
995.13926	0.50990
993.21069	0.51413
991.28213	0.51786
989.35356	0.52033
987.42500	0.52150
985.49644	0.52214
983.56787	0.52291
981.63931	0.52390
979.71074	0.52511
977.78218	0.52673
975.85361	0.52887
973.92505	0.53148
971.99648	0.53446
970.06792	0.53788
968.13936	0.54185
966.21079	0.54618
964.28223	0.55075
962.35366	0.55573
960.42510	0.56107
958.49653	0.56656
956.56797	0.57214
954.63940	0.57781
952.71084	0.58366
950.78228	0.58986
948.85371	0.59627
946.92515	0.60251
944.99658	0.60879
943.06802	0.61532
941.13945	0.62172
939.21089	0.62782
937.28232	0.63405
935.35376	0.64041
933.42520	0.64660
931.49663	0.65277
929.56807	0.65866
927.63950	0.66436
925.71094	0.67063
923.78237	0.67694
921.85381	0.68264
919.92524	0.68886
917.99668	0.69664
916.06812	0.70504
914.13955	0.71269
912.21099	0.71971
910.28242	0.72705
908.35386	0.73528
906.42529	0.74435
904.49673	0.75380
902.56816	0.76325
900.63960	0.77257
898.71104	0.78217
896.78247	0.79272
894.85391	0.80435
892.92534	0.81606
890.99678	0.82647
889.06821	0.83639
887.13965	0.84729
885.21108	0.85817
883.28252	0.86911
881.35396	0.88124
879.42539	0.89328
877.49683	0.90376
875.56826	0.91358
873.63970	0.92499
871.71113	0.93807
869.78257	0.94994
867.85400	0.96009
865.92544	0.97086
863.99687	0.98326
862.06831	0.99646
860.13975	1.00911
858.21118	1.02083
856.28262	1.03229
854.35405	1.04470
852.42549	1.05782
850.49692	1.07066
848.56836	1.08327
846.63979	1.09483
844.71123	1.10515
842.78267	1.11566
840.85410	1.12759
838.92554	1.14134
836.99697	1.15691
835.06841	1.17334
833.13984	1.18753
831.21128	1.19686
829.28271	1.20235
827.35415	1.20930
825.42559	1.22297
823.49702	1.24370
821.56846	1.26335
819.63989	1.27314
817.71133	1.27759
815.78276	1.28927
813.85420	1.31544
811.92563	1.34848
809.99707	1.37866
808.06851	1.40402
806.13994	1.41612
804.21138	1.41869
802.28281	1.42880
800.35425	1.44966
798.42568	1.48262
796.49712	1.52756
794.56855	1.57847
792.63999	1.62121
790.71143	1.60023
788.78286	1.54604
786.85430	1.57404
784.92573	1.67535
782.99717	1.84073
781.06860	2.02364
779.14004	1.95902
777.21147	1.91647
775.28291	2.06144
773.35435	2.15067
771.42578	1.99463
769.49722	1.75431
767.56865	1.55886
765.64009	1.38525
763.71152	1.24657
761.78296	1.15916
759.85439	1.13089
757.92583	1.18997
755.99727	1.26224
754.06870	1.17571
752.14014	1.05211
750.21157	1.02287
748.28301	1.11709
746.35444	1.22426
744.42588	1.11677
742.49731	0.94592
740.56875	0.82353
738.64019	0.75641
736.71162	0.73863
734.78306	0.70515
732.85449	0.56316
730.92593	0.41470
728.99736	0.33057
727.06880	0.22935
725.14023	0.02813
723.21167	-0.15168
721.28311	-0.24233
719.35454	-0.25966
717.42598	-0.23813
715.49741	-0.25493
713.56885	-0.24544
711.64028	-0.19111
709.71172	-0.16820
707.78315	-0.13853
705.85459	-0.04416
703.92603	0.03777
701.99746	0.07101
700.06890	0.08689
698.14033	0.12126
696.21177	0.19092
694.28320	0.20088
692.35464	0.10262
690.42607	0.04682
688.49751	0.11702
686.56895	0.24706
684.64038	0.26604
682.71182	0.16428
680.78325	0.14931
678.85469	0.22923
676.92612	0.28372
674.99756	0.25761
673.06899	0.23096
671.14043	0.21027
669.21187	0.17843
667.28330	0.18298
665.35474	0.22387
663.42617	0.23463
661.49761	0.17494
659.56904	0.10965
657.64048	0.10289
655.71191	0.16686
653.78335	0.24423
651.85479	0.25367
649.92622	0.22185
647.99766	0.18385
646.06909	0.15964
644.14053	0.16933
642.21196	0.20597
640.28340	0.23681
638.35483	0.22159
636.42627	0.16862
634.49771	0.09879
632.56914	0.05249
630.64058	0.04973
628.71201	0.05862
626.78345	0.03472
624.85488	0.01581
622.92632	0.06391
620.99775	0.15597
619.06919	0.18447
617.14062	0.15757
615.21206	0.17347
613.28350	0.20785
611.35493	0.18289
609.42637	0.12369
607.49780	0.10363
605.56924	0.14348
603.64067	0.18691
601.71211	0.16396
599.78354	0.10675
597.85498	0.08091
595.92642	0.07670
593.99785	0.07133
592.06929	0.07043
590.14072	0.08125
588.21216	0.10183
586.28359	0.11547
584.35503	0.09423
582.42646	0.04815
580.49790	0.01337
578.56934	0.03033
576.64077	0.09044
574.71221	0.12966
572.78364	0.15865
570.85508	0.19127
568.92651	0.20516
566.99795	0.21349
565.06938	0.21795
563.14082	0.23056
561.21226	0.24204
559.28369	0.19298
557.35513	0.13083
555.42656	0.11225
553.49800	0.11266
551.56943	0.11295
549.64087	0.13043
547.71230	0.18119
545.78374	0.22831
543.85518	0.21854
541.92661	0.19750
539.99805	0.21118
538.06948	0.22411
536.14092	0.19449
534.21235	0.15315
532.28379	0.10941
530.35522	0.08080
528.42666	0.09528
526.49810	0.12108
524.56953	0.13275
522.64097	0.14801
520.71240	0.14894
518.78384	0.14473
516.85527	0.15770
514.92671	0.16602
512.99814	0.16490
511.06958	0.14760
509.14102	0.12570
507.21245	0.12204
505.28389	0.10174
503.35532	0.08349
501.42676	0.12571
499.49819	0.18603
