3997.91411	0.05314
3995.98555	0.05307
3994.05698	0.05334
3992.12842	0.05384
3990.19985	0.05472
3988.27129	0.05537
3986.34272	0.05520
3984.41416	0.05488
3982.48560	0.05494
3980.55703	0.05520
3978.62847	0.05537
3976.69990	0.05561
3974.77134	0.05624
3972.84277	0.05700
3970.91421	0.05750
3968.98564	0.05781
3967.05708	0.05812
3965.12852	0.05824
3963.19995	0.05814
3961.27139	0.05818
3959.34282	0.05817
3957.41426	0.05775
3955.48569	0.05751
3953.55713	0.05795
3951.62856	0.05876
3949.70000	0.05941
3947.77144	0.05961
3945.84287	0.05941
3943.91431	0.05923
3941.98574	0.05944
3940.05718	0.05925
3938.12861	0.05850
3936.20005	0.05803
3934.27148	0.05814
3932.34292	0.05852
3930.41436	0.05863
3928.48579	0.05826
3926.55723	0.05800
3924.62866	0.05836
3922.70010	0.05875
3920.77153	0.05866
3918.84297	0.05843
3916.91440	0.05833
3914.98584	0.05830
3913.05728	0.05807
3911.12871	0.05784
3909.20015	0.05772
3907.27158	0.05778
3905.34302	0.05847
3903.41445	0.05968
3901.48589	0.06048
3899.55732	0.06043
3897.62876	0.05955
3895.70020	0.05847
3893.77163	0.05820
3891.84307	0.05891
3889.91450	0.05956
3887.98594	0.05926
3886.05737	0.05898
3884.12881	0.05927
3882.20024	0.05964
3880.27168	0.05978
3878.34312	0.05953
3876.41455	0.05946
3874.48599	0.06006
3872.55742	0.06082
3870.62886	0.06155
3868.70029	0.06213
3866.77173	0.06198
3864.84316	0.06194
3862.91460	0.06226
3860.98604	0.06206
3859.05747	0.06176
3857.12891	0.06199
3855.20034	0.06277
3853.27178	0.06423
3851.34321	0.06544
3849.41465	0.06521
3847.48608	0.06475
3845.55752	0.06475
3843.62896	0.06544
3841.70039	0.06689
3839.77183	0.06861
3837.84326	0.06979
3835.91470	0.07000
3833.98613	0.06999
3832.05757	0.07017
3830.12900	0.07049
3828.20044	0.07112
3826.27187	0.07201
3824.34331	0.07278
3822.41475	0.07372
3820.48618	0.07540
3818.55762	0.07694
3816.62905	0.07798
3814.70049	0.07845
3812.77192	0.07798
3810.84336	0.07786
3808.91479	0.07883
3806.98623	0.08070
3805.05767	0.08230
3803.12910	0.08331
3801.20054	0.08496
3799.27197	0.08653
3797.34341	0.08742
3795.41484	0.08843
3793.48628	0.08888
3791.55771	0.08909
3789.62915	0.09004
3787.70059	0.09161
3785.77202	0.09333
3783.84346	0.09487
3781.91489	0.09638
3779.98633	0.09827
3778.05776	0.10025
3776.12920	0.10148
3774.20063	0.10247
3772.27207	0.10410
3770.34351	0.10643
3768.41494	0.10875
3766.48638	0.11040
3764.55781	0.11195
3762.62925	0.11358
3760.70068	0.11545
3758.77212	0.11829
3756.84355	0.12161
3754.91499	0.12425
3752.98643	0.12670
3751.05786	0.12986
3749.12930	0.13320
3747.20073	0.13545
3745.27217	0.13770
3743.34360	0.14125
3741.41504	0.14462
3739.48647	0.14726
3737.55791	0.15070
3735.62935	0.15568
3733.70078	0.16111
3731.77222	0.16519
3729.84365	0.16876
3727.91509	0.17296
3725.98652	0.17833
3724.05796	0.18447
3722.12939	0.19072
3720.20083	0.19763
3718.27227	0.20526
3716.34370	0.21320
3714.41514	0.22119
3712.48657	0.23059
3710.55801	0.24362
3708.62944	0.25749
3706.70088	0.26888
3704.77231	0.27994
3702.84375	0.29312
3700.91519	0.31015
3698.98662	0.32868
3697.05806	0.34616
3695.12949	0.36456
3693.20093	0.38425
3691.27236	0.40576
3689.34380	0.43358
3687.41523	0.46796
3685.48667	0.49822
3683.55811	0.52452
3681.62954	0.55277
3679.70098	0.58409
3677.77241	0.61697
3675.84385	0.65663
3673.91528	0.70990
3671.98672	0.75291
3670.05815	0.79083
3668.12959	0.84289
3666.20103	0.89073
3664.27246	0.93108
3662.34390	0.97442
3660.41533	1.02084
3658.48677	1.06637
3656.55820	1.11511
3654.62964	1.17009
3652.70107	1.21687
3650.77251	1.25748
3648.84395	1.31282
3646.91538	1.38047
3644.98682	1.43011
3643.05825	1.46864
3641.12969	1.50849
3639.20112	1.55201
3637.27256	1.59564
3635.34399	1.63858
3633.41543	1.68159
3631.48687	1.72072
3629.55830	1.75911
3627.62974	1.81158
3625.70117	1.86318
3623.77261	1.89816
3621.84404	1.93138
3619.91548	1.96960
3617.98691	2.01523
3616.05835	2.05911
3614.12979	2.09616
3612.20122	2.13469
3610.27266	2.17289
3608.34409	2.21177
3606.41553	2.25427
3604.48696	2.29381
3602.55840	2.32851
3600.62983	2.36575
3598.70127	2.40684
3596.77271	2.44810
3594.84414	2.49038
3592.91558	2.53336
3590.98701	2.57289
3589.05845	2.60925
3587.12988	2.65296
3585.20132	2.70180
3583.27275	2.74315
3581.34419	2.78080
3579.41562	2.82140
3577.48706	2.86437
3575.55850	2.90604
3573.62993	2.94705
3571.70137	2.98734
3569.77280	3.02735
3567.84424	3.07108
3565.91567	3.12607
3563.98711	3.18032
3562.05854	3.22199
3560.12998	3.26203
3558.20142	3.30611
3556.27285	3.35091
3554.34429	3.39395
3552.41572	3.43914
3550.48716	3.48675
3548.55859	3.53246
3546.63003	3.57640
3544.70146	3.62333
3542.77290	3.67323
3540.84434	3.72195
3538.91577	3.76841
3536.98721	3.81240
3535.05864	3.85763
3533.13008	3.90681
3531.20151	3.95823
3529.27295	4.00749
3527.34438	4.05381
3525.41582	4.09876
3523.48726	4.14319
3521.55869	4.19115
3519.63013	4.24383
3517.70156	4.29658
3515.77300	4.34372
3513.84443	4.38638
3511.91587	4.42998
3509.98730	4.47731
3508.05874	4.52767
3506.13018	4.57770
3504.20161	4.62592
3502.27305	4.67431
3500.34448	4.71999
3498.41592	4.76239
3496.48735	4.81109
3494.55879	4.86682
3492.63022	4.92037
3490.70166	4.97003
3488.77310	5.01748
3486.84453	5.06079
3484.91597	5.10617
3482.98740	5.15714
3481.05884	5.20622
3479.13027	5.25223
3477.20171	5.29994
3475.27314	5.34933
3473.34458	5.39854
3471.41602	5.44821
3469.48745	5.49987
3467.55889	5.54887
3465.63032	5.58554
3463.70176	5.62437
3461.77319	5.68226
3459.84463	5.74350
3457.91606	5.80076
3455.98750	5.86580
3454.05894	5.92912
3452.13037	5.97869
3450.20181	6.01274
3448.27324	6.03587
3446.34468	6.07745
3444.41611	6.13880
3442.48755	6.18882
3440.55898	6.22468
3438.63042	6.26832
3436.70186	6.32647
3434.77329	6.37994
3432.84473	6.41820
3430.91616	6.45715
3428.98760	6.50882
3427.05903	6.55861
3425.13047	6.61793
3423.20190	6.70043
3421.27334	6.77803
3419.34478	6.81286
3417.41621	6.80554
3415.48765	6.80186
3413.55908	6.82438
3411.63052	6.87227
3409.70195	6.93370
3407.77339	6.99124
3405.84482	7.05083
3403.91626	7.11191
3401.98770	7.14931
3400.05913	7.18682
3398.13057	7.22579
3396.20200	7.23607
3394.27344	7.26070
3392.34487	7.33190
3390.41631	7.44148
3388.48774	7.53825
3386.55918	7.58056
3384.63062	7.57713
3382.70205	7.56551
3380.77349	7.57776
3378.84492	7.58045
3376.91636	7.54832
3374.98779	7.52263
3373.05923	7.55630
3371.13066	7.64834
3369.20210	7.75008
3367.27354	7.77730
3365.34497	7.76413
3363.41641	7.80088
3361.48784	7.85316
3359.55928	7.88234
3357.63071	7.86622
3355.70215	7.79190
3353.77358	7.71676
3351.84502	7.71179
3349.91646	7.74962
3347.98789	7.79322
3346.05933	7.85292
3344.13076	7.91349
3342.20220	7.97311
3340.27363	8.03216
3338.34507	8.03450
3336.41650	7.95934
3334.48794	7.92565
3332.55937	7.97206
3330.63081	7.98834
3328.70225	7.90560
3326.77368	7.83673
3324.84512	7.91638
3322.91655	8.09833
3320.98799	8.17945
3319.05942	8.06186
3317.13086	7.94198
3315.20229	7.98004
3313.27373	8.14437
3311.34517	8.25596
3309.41660	8.22458
3307.48804	8.16551
3305.55947	8.14960
3303.63091	8.18786
3301.70234	8.25157
3299.77378	8.29314
3297.84521	8.27730
3295.91665	8.23618
3293.98809	8.18281
3292.05952	8.10113
3290.13096	8.05547
3288.20239	8.09952
3286.27383	8.18173
3284.34526	8.17292
3282.41670	8.10594
3280.48813	8.10882
3278.55957	8.13563
3276.63101	8.09887
3274.70244	8.06787
3272.77388	8.10213
3270.84531	8.14690
3268.91675	8.13022
3266.98818	8.14454
3265.05962	8.26988
3263.13105	8.30929
3261.20249	8.22538
3259.27393	8.18560
3257.34536	8.20415
3255.41680	8.24282
3253.48823	8.27248
3251.55967	8.29343
3249.63110	8.28476
3247.70254	8.22354
3245.77397	8.14635
3243.84541	8.08476
3241.91685	8.04422
3239.98828	8.04359
3238.05972	8.06558
3236.13115	8.07486
3234.20259	8.07851
3232.27402	8.08242
3230.34546	8.12971
3228.41689	8.23436
3226.48833	8.27827
3224.55977	8.18964
3222.63120	8.06226
3220.70264	7.96677
3218.77407	7.91212
3216.84551	7.91928
3214.91694	7.94791
3212.98838	7.88590
3211.05981	7.79747
3209.13125	7.82319
3207.20269	7.88048
3205.27412	7.84660
3203.34556	7.78511
3201.41699	7.73905
3199.48843	7.68458
3197.55986	7.62654
3195.63130	7.59160
3193.70273	7.58140
3191.77417	7.56122
3189.84561	7.51709
3187.91704	7.46393
3185.98848	7.40701
3184.05991	7.34719
3182.13135	7.31092
3180.20278	7.28307
3178.27422	7.21937
3176.34565	7.16458
3174.41709	7.12587
3172.48853	7.05379
3170.55996	6.97794
3168.63140	6.92542
3166.70283	6.88440
3164.77427	6.85623
3162.84570	6.82726
3160.91714	6.77169
3158.98857	6.69018
3157.06001	6.60879
3155.13145	6.54817
3153.20288	6.48768
3151.27432	6.41924
3149.34575	6.35690
3147.41719	6.29048
3145.48862	6.22652
3143.56006	6.17769
3141.63149	6.12387
3139.70293	6.04377
3137.77437	5.94461
3135.84580	5.84718
3133.91724	5.77009
3131.98867	5.71114
3130.06011	5.64871
3128.13154	5.58035
3126.20298	5.51279
3124.27441	5.43867
3122.34585	5.35723
3120.41729	5.27821
3118.48872	5.20572
3116.56016	5.14151
3114.63159	5.08416
3112.70303	5.02181
3110.77446	4.94855
3108.84590	4.87671
3106.91733	4.81123
3104.98877	4.74418
3103.06021	4.67461
3101.13164	4.60366
3099.20308	4.53506
3097.27451	4.47188
3095.34595	4.40653
3093.41738	4.33412
3091.48882	4.26195
3089.56025	4.19608
3087.63169	4.13438
3085.70312	4.07393
3083.77456	4.01264
3081.84600	3.95223
3079.91743	3.89295
3077.98887	3.83087
3076.06030	3.76741
3074.13174	3.70617
3072.20317	3.64788
3070.27461	3.59128
3068.34604	3.53554
3066.41748	3.48068
3064.48892	3.42592
3062.56035	3.37089
3060.63179	3.31611
3058.70322	3.26156
3056.77466	3.20679
3054.84609	3.15231
3052.91753	3.09911
3050.98896	3.04729
3049.06040	2.99590
3047.13184	2.94483
3045.20327	2.89487
3043.27471	2.84582
3041.34614	2.79773
3039.41758	2.75092
3037.48901	2.70468
3035.56045	2.65900
3033.63188	2.61442
3031.70332	2.56974
3029.77476	2.52477
3027.84619	2.48063
3025.91763	2.43648
3023.98906	2.39260
3022.06050	2.35020
3020.13193	2.30879
3018.20337	2.26808
3016.27480	2.22817
3014.34624	2.18906
3012.41768	2.15054
3010.48911	2.11245
3008.56055	2.07501
3006.63198	2.03836
3004.70342	2.00189
3002.77485	1.96523
3000.84629	1.93025
2998.91772	1.89768
2996.98916	1.86537
2995.06060	1.83240
2993.13203	1.79975
2991.20347	1.76815
2989.27490	1.73746
2987.34634	1.70748
2985.41777	1.67804
2983.48921	1.64889
2981.56064	1.62001
2979.63208	1.59159
2977.70352	1.56411
2975.77495	1.53776
2973.84639	1.51192
2971.91782	1.48621
2969.98926	1.46079
2968.06069	1.43541
2966.13213	1.40996
2964.20356	1.38490
2962.27500	1.36037
2960.34644	1.33593
2958.41787	1.31157
2956.48931	1.28753
2954.56074	1.26364
2952.63218	1.23974
2950.70361	1.21609
2948.77505	1.19336
2946.84648	1.17143
2944.91792	1.14939
2942.98936	1.12720
2941.06079	1.10568
2939.13223	1.08458
2937.20366	1.06315
2935.27510	1.04202
2933.34653	1.02165
2931.41797	1.00131
2929.48940	0.98077
2927.56084	0.96031
2925.63228	0.94060
2923.70371	0.92245
2921.77515	0.90602
2919.84658	0.89071
2917.91802	0.87582
2915.98945	0.86122
2914.06089	0.84644
2912.13232	0.83117
2910.20376	0.81622
2908.27520	0.80223
2906.34663	0.78874
2904.41807	0.77506
2902.48950	0.76120
2900.56094	0.74757
2898.63237	0.73447
2896.70381	0.72196
2894.77524	0.70991
2892.84668	0.69814
2890.91812	0.68644
2888.98955	0.67492
2887.06099	0.66377
2885.13242	0.65292
2883.20386	0.64251
2881.27529	0.63257
2879.34673	0.62266
2877.41816	0.61275
2875.48960	0.60319
2873.56104	0.59361
2871.63247	0.58324
2869.70391	0.57221
2867.77534	0.56105
2865.84678	0.54983
2863.91821	0.53853
2861.98965	0.52719
2860.06108	0.51585
2858.13252	0.50477
2856.20396	0.49466
2854.27539	0.48580
2852.34683	0.47781
2850.41826	0.47041
2848.48970	0.46338
2846.56113	0.45648
2844.63257	0.44982
2842.70400	0.44360
2840.77544	0.43788
2838.84687	0.43248
2836.91831	0.42706
2834.98975	0.42144
2833.06118	0.41571
2831.13262	0.40993
2829.20405	0.40419
2827.27549	0.39855
2825.34692	0.39289
2823.41836	0.38706
2821.48979	0.38121
2819.56123	0.37561
2817.63267	0.37011
2815.70410	0.36469
2813.77554	0.35955
2811.84697	0.35437
2809.91841	0.34886
2807.98984	0.34348
2806.06128	0.33844
2804.13271	0.33352
2802.20415	0.32873
2800.27559	0.32395
2798.34702	0.31910
2796.41846	0.31443
2794.48989	0.30992
2792.56133	0.30542
2790.63276	0.30105
2788.70420	0.29687
2786.77563	0.29271
2784.84707	0.28857
2782.91851	0.28463
2780.98994	0.28075
2779.06138	0.27676
2777.13281	0.27279
2775.20425	0.26895
2773.27568	0.26521
2771.34712	0.26159
2769.41855	0.25819
2767.48999	0.25491
2765.56143	0.25158
2763.63286	0.24818
2761.70430	0.24481
2759.77573	0.24158
2757.84717	0.23860
2755.91860	0.23580
2753.99004	0.23295
2752.06147	0.23004
2750.13291	0.22722
2748.20435	0.22447
2746.27578	0.22175
2744.34722	0.21905
2742.41865	0.21636
2740.49009	0.21382
2738.56152	0.21135
2736.63296	0.20874
2734.70439	0.20617
2732.77583	0.20391
2730.84727	0.20179
2728.91870	0.19951
2726.99014	0.19719
2725.06157	0.19506
2723.13301	0.19312
2721.20444	0.19115
2719.27588	0.18913
2717.34731	0.18723
2715.41875	0.18546
2713.49019	0.18378
2711.56162	0.18213
2709.63306	0.18037
2707.70449	0.17866
2705.77593	0.17708
2703.84736	0.17553
2701.91880	0.17402
2699.99023	0.17247
2698.06167	0.17085
2696.13311	0.16940
2694.20454	0.16818
2692.27598	0.16704
2690.34741	0.16580
2688.41885	0.16452
2686.49028	0.16346
2684.56172	0.16247
2682.63315	0.16133
2680.70459	0.16012
2678.77603	0.15900
2676.84746	0.15794
2674.91890	0.15688
2672.99033	0.15580
2671.06177	0.15480
2669.13320	0.15395
2667.20464	0.15316
2665.27607	0.15234
2663.34751	0.15152
2661.41895	0.15078
2659.49038	0.15010
2657.56182	0.14941
2655.63325	0.14868
2653.70469	0.14794
2651.77612	0.14730
2649.84756	0.14680
2647.91899	0.14623
2645.99043	0.14551
2644.06187	0.14487
2642.13330	0.14457
2640.20474	0.14447
2638.27617	0.14412
2636.34761	0.14354
2634.41904	0.14311
2632.49048	0.14277
2630.56191	0.14238
2628.63335	0.14201
2626.70479	0.14175
2624.77622	0.14157
2622.84766	0.14135
2620.91909	0.14101
2618.99053	0.14062
2617.06196	0.14040
2615.13340	0.14037
2613.20483	0.14033
2611.27627	0.14024
2609.34771	0.14007
2607.41914	0.13991
2605.49058	0.13988
2603.56201	0.13983
2601.63345	0.13977
2599.70488	0.13994
2597.77632	0.14030
2595.84775	0.14061
2593.91919	0.14072
2591.99062	0.14073
2590.06206	0.14089
2588.13350	0.14112
2586.20493	0.14125
2584.27637	0.14146
2582.34780	0.14180
2580.41924	0.14202
2578.49067	0.14208
2576.56211	0.14222
2574.63354	0.14252
2572.70498	0.14300
2570.77642	0.14356
2568.84785	0.14402
2566.91929	0.14439
2564.99072	0.14484
2563.06216	0.14536
2561.13359	0.14583
2559.20503	0.14629
2557.27646	0.14676
2555.34790	0.14723
2553.41934	0.14779
2551.49077	0.14842
2549.56221	0.14900
2547.63364	0.14954
2545.70508	0.15006
2543.77651	0.15053
2541.84795	0.15107
2539.91938	0.15176
2537.99082	0.15253
2536.06226	0.15326
2534.13369	0.15389
2532.20513	0.15456
2530.27656	0.15533
2528.34800	0.15613
2526.41943	0.15689
2524.49087	0.15752
2522.56230	0.15811
2520.63374	0.15888
2518.70518	0.15981
2516.77661	0.16067
2514.84805	0.16141
2512.91948	0.16217
2510.99092	0.16302
2509.06235	0.16389
2507.13379	0.16475
2505.20522	0.16558
2503.27666	0.16640
2501.34810	0.16728
2499.41953	0.16819
2497.49097	0.16907
2495.56240	0.16997
2493.63384	0.17087
2491.70527	0.17167
2489.77671	0.17244
2487.84814	0.17321
2485.91958	0.17411
2483.99102	0.17515
2482.06245	0.17613
2480.13389	0.17707
2478.20532	0.17803
2476.27676	0.17885
2474.34819	0.17956
2472.41963	0.18033
2470.49106	0.18124
2468.56250	0.18219
2466.63394	0.18314
2464.70537	0.18405
2462.77681	0.18491
2460.84824	0.18584
2458.91968	0.18684
2456.99111	0.18785
2455.06255	0.18888
2453.13398	0.18990
2451.20542	0.19091
2449.27686	0.19195
2447.34829	0.19305
2445.41973	0.19405
2443.49116	0.19497
2441.56260	0.19603
2439.63403	0.19719
2437.70547	0.19833
2435.77690	0.19945
2433.84834	0.20055
2431.91978	0.20162
2429.99121	0.20263
2428.06265	0.20366
2426.13408	0.20473
2424.20552	0.20569
2422.27695	0.20660
2420.34839	0.20770
2418.41982	0.20894
2416.49126	0.21019
2414.56270	0.21140
2412.63413	0.21251
2410.70557	0.21362
2408.77700	0.21485
2406.84844	0.21609
2404.91987	0.21728
2402.99131	0.21845
2401.06274	0.21961
2399.13418	0.22073
2397.20562	0.22185
2395.27705	0.22306
2393.34849	0.22439
2391.41992	0.22572
2389.49136	0.22692
2387.56279	0.22795
2385.63423	0.22878
2383.70566	0.22948
2381.77710	0.23010
2379.84854	0.23067
2377.91997	0.23124
2375.99141	0.23175
2374.06284	0.23194
2372.13428	0.23178
2370.20571	0.23161
2368.27715	0.23141
2366.34858	0.23131
2364.42002	0.23181
2362.49146	0.23291
2360.56289	0.23421
2358.63433	0.23545
2356.70576	0.23686
2354.77720	0.23947
2352.84863	0.24378
2350.92007	0.24789
2348.99150	0.25035
2347.06294	0.25150
2345.13437	0.25199
2343.20581	0.25254
2341.27725	0.25379
2339.34868	0.25564
2337.42012	0.25767
2335.49155	0.25956
2333.56299	0.26109
2331.63442	0.26253
2329.70586	0.26429
2327.77729	0.26632
2325.84873	0.26840
2323.92017	0.27049
2321.99160	0.27255
2320.06304	0.27478
2318.13447	0.27740
2316.20591	0.28010
2314.27734	0.28240
2312.34878	0.28432
2310.42021	0.28633
2308.49165	0.28859
2306.56309	0.29088
2304.63452	0.29312
2302.70596	0.29525
2300.77739	0.29734
2298.84883	0.29954
2296.92026	0.30179
2294.99170	0.30401
2293.06313	0.30616
2291.13457	0.30825
2289.20601	0.31038
2287.27744	0.31260
2285.34888	0.31481
2283.42031	0.31695
2281.49175	0.31898
2279.56318	0.32099
2277.63462	0.32310
2275.70605	0.32522
2273.77749	0.32729
2271.84893	0.32941
2269.92036	0.33156
2267.99180	0.33362
2266.06323	0.33565
2264.13467	0.33770
2262.20610	0.33981
2260.27754	0.34200
2258.34897	0.34424
2256.42041	0.34644
2254.49185	0.34860
2252.56328	0.35070
2250.63472	0.35277
2248.70615	0.35492
2246.77759	0.35715
2244.84902	0.35945
2242.92046	0.36179
2240.99189	0.36404
2239.06333	0.36621
2237.13477	0.36847
2235.20620	0.37085
2233.27764	0.37327
2231.34907	0.37565
2229.42051	0.37792
2227.49194	0.38009
2225.56338	0.38220
2223.63481	0.38432
2221.70625	0.38638
2219.77769	0.38846
2217.84912	0.39076
2215.92056	0.39319
2213.99199	0.39543
2212.06343	0.39750
2210.13486	0.39963
2208.20630	0.40187
2206.27773	0.40408
2204.34917	0.40612
2202.42061	0.40807
2200.49204	0.41010
2198.56348	0.41215
2196.63491	0.41401
2194.70635	0.41586
2192.77778	0.41790
2190.84922	0.41996
2188.92065	0.42183
2186.99209	0.42361
2185.06353	0.42537
2183.13496	0.42709
2181.20640	0.42877
2179.27783	0.43036
2177.34927	0.43194
2175.42070	0.43355
2173.49214	0.43503
2171.56357	0.43635
2169.63501	0.43773
2167.70645	0.43924
2165.77788	0.44072
2163.84932	0.44205
2161.92075	0.44318
2159.99219	0.44420
2158.06362	0.44516
2156.13506	0.44609
2154.20649	0.44702
2152.27793	0.44794
2150.34937	0.44873
2148.42080	0.44929
2146.49224	0.44982
2144.56367	0.45041
2142.63511	0.45089
2140.70654	0.45120
2138.77798	0.45147
2136.84941	0.45165
2134.92085	0.45162
2132.99229	0.45149
2131.06372	0.45139
2129.13516	0.45123
2127.20659	0.45096
2125.27803	0.45067
2123.34946	0.45030
2121.42090	0.44970
2119.49233	0.44897
2117.56377	0.44836
2115.63521	0.44781
2113.70664	0.44714
2111.77808	0.44633
2109.84951	0.44529
2107.92095	0.44411
2105.99238	0.44299
2104.06382	0.44193
2102.13525	0.44073
2100.20669	0.43934
2098.27812	0.43791
2096.34956	0.43646
2094.42100	0.43493
2092.49243	0.43339
2090.56387	0.43183
2088.63530	0.43017
2086.70674	0.42838
2084.77817	0.42642
2082.84961	0.42442
2080.92104	0.42245
2078.99248	0.42044
2077.06392	0.41833
2075.13535	0.41621
2073.20679	0.41404
2071.27822	0.41176
2069.34966	0.40947
2067.42109	0.40717
2065.49253	0.40475
2063.56396	0.40225
2061.63540	0.39979
2059.70684	0.39734
2057.77827	0.39486
2055.84971	0.39232
2053.92114	0.38978
2051.99258	0.38733
2050.06401	0.38482
2048.13545	0.38223
2046.20688	0.37958
2044.27832	0.37686
2042.34976	0.37409
2040.42119	0.37134
2038.49263	0.36859
2036.56406	0.36579
2034.63550	0.36297
2032.70693	0.36026
2030.77837	0.35760
2028.84980	0.35483
2026.92124	0.35198
2024.99268	0.34916
2023.06411	0.34650
2021.13555	0.34391
2019.20698	0.34124
2017.27842	0.33845
2015.34985	0.33552
2013.42129	0.33261
2011.49272	0.32981
2009.56416	0.32712
2007.63560	0.32443
2005.70703	0.32177
2003.77847	0.31919
2001.84990	0.31663
1999.92134	0.31403
1997.99277	0.31140
1996.06421	0.30882
1994.13564	0.30639
1992.20708	0.30398
1990.27852	0.30138
1988.34995	0.29874
1986.42139	0.29619
1984.49282	0.29374
1982.56426	0.29139
1980.63569	0.28910
1978.70713	0.28687
1976.77856	0.28462
1974.85000	0.28231
1972.92144	0.28004
1970.99287	0.27797
1969.06431	0.27608
1967.13574	0.27414
1965.20718	0.27206
1963.27861	0.26997
1961.35005	0.26804
1959.42148	0.26624
1957.49292	0.26447
1955.56436	0.26266
1953.63579	0.26089
1951.70723	0.25918
1949.77866	0.25762
1947.85010	0.25610
1945.92153	0.25455
1943.99297	0.25306
1942.06440	0.25164
1940.13584	0.25016
1938.20728	0.24868
1936.27871	0.24726
1934.35015	0.24593
1932.42158	0.24470
1930.49302	0.24350
1928.56445	0.24238
1926.63589	0.24136
1924.70732	0.24050
1922.77876	0.23963
1920.85020	0.23862
1918.92163	0.23771
1916.99307	0.23680
1915.06450	0.23575
1913.13594	0.23479
1911.20737	0.23412
1909.27881	0.23355
1907.35024	0.23296
1905.42168	0.23232
1903.49312	0.23166
1901.56455	0.23101
1899.63599	0.23046
1897.70742	0.23005
1895.77886	0.22974
1893.85029	0.22942
1891.92173	0.22902
1889.99316	0.22879
1888.06460	0.22857
1886.13604	0.22827
1884.20747	0.22806
1882.27891	0.22787
1880.35034	0.22775
1878.42178	0.22767
1876.49321	0.22762
1874.56465	0.22757
1872.63608	0.22768
1870.70752	0.22806
1868.77896	0.22872
1866.85039	0.22901
1864.92183	0.22878
1862.99326	0.22865
1861.06470	0.22881
1859.13613	0.22920
1857.20757	0.22960
1855.27900	0.23004
1853.35044	0.23053
1851.42187	0.23112
1849.49331	0.23181
1847.56475	0.23260
1845.63618	0.23351
1843.70762	0.23451
1841.77905	0.23527
1839.85049	0.23577
1837.92192	0.23658
1835.99336	0.23758
1834.06479	0.23855
1832.13623	0.23954
1830.20767	0.24100
1828.27910	0.24264
1826.35054	0.24377
1824.42197	0.24485
1822.49341	0.24593
1820.56484	0.24709
1818.63628	0.24843
1816.70771	0.25001
1814.77915	0.25164
1812.85059	0.25340
1810.92202	0.25546
1808.99346	0.25758
1807.06489	0.25956
1805.13633	0.26149
1803.20776	0.26377
1801.27920	0.26645
1799.35063	0.26931
1797.42207	0.27181
1795.49351	0.27419
1793.56494	0.27696
1791.63638	0.28056
1789.70781	0.28404
1787.77925	0.28661
1785.85068	0.28960
1783.92212	0.29322
1781.99355	0.29719
1780.06499	0.30137
1778.13643	0.30564
1776.20786	0.30973
1774.27930	0.31421
1772.35073	0.32008
1770.42217	0.32623
1768.49360	0.33143
1766.56504	0.33654
1764.63647	0.34187
1762.70791	0.34765
1760.77935	0.35483
1758.85078	0.36161
1756.92222	0.36844
1754.99365	0.37589
1753.06509	0.38265
1751.13652	0.39070
1749.20796	0.40090
1747.27939	0.41114
1745.35083	0.42026
1743.42227	0.42990
1741.49370	0.44048
1739.56514	0.45297
1737.63657	0.46559
1735.70801	0.47663
1733.77944	0.49311
1731.85088	0.51296
1729.92231	0.52866
1727.99375	0.54444
1726.06519	0.56133
1724.13662	0.57973
1722.20806	0.59978
1720.27949	0.61850
1718.35093	0.64029
1716.42236	0.67228
1714.49380	0.70285
1712.56523	0.72760
1710.63667	0.75165
1708.70811	0.77776
1706.77954	0.80750
1704.85098	0.84248
1702.92241	0.87319
1700.99385	0.90363
1699.06528	0.94966
1697.13672	0.99233
1695.20815	1.03599
1693.27959	1.07860
1691.35103	1.11307
1689.42246	1.15299
1687.49390	1.19523
1685.56533	1.23565
1683.63677	1.29751
1681.70820	1.36223
1679.77964	1.40371
1677.85107	1.44323
1675.92251	1.48946
1673.99395	1.54734
1672.06538	1.59885
1670.13682	1.64859
1668.20825	1.71254
1666.27969	1.76445
1664.35112	1.80938
1662.42256	1.86771
1660.49399	1.93379
1658.56543	1.98445
1656.63687	2.02434
1654.70830	2.05870
1652.77974	2.11224
1650.85117	2.16793
1648.92261	2.18925
1646.99404	2.21463
1645.06548	2.24333
1643.13691	2.26173
1641.20835	2.27130
1639.27979	2.27950
1637.35122	2.28360
1635.42266	2.28143
1633.49409	2.27423
1631.56553	2.26154
1629.63696	2.24430
1627.70840	2.21579
1625.77983	2.18335
1623.85127	2.14290
1621.92271	2.09246
1619.99414	2.04710
1618.06558	2.00256
1616.13701	1.93877
1614.20845	1.87475
1612.27988	1.82668
1610.35132	1.77598
1608.42275	1.72043
1606.49419	1.66582
1604.56562	1.61603
1602.63706	1.56781
1600.70850	1.51995
1598.77993	1.47603
1596.85137	1.43535
1594.92280	1.39603
1592.99424	1.35851
1591.06567	1.32452
1589.13711	1.29254
1587.20854	1.26262
1585.27998	1.23510
1583.35142	1.20962
1581.42285	1.18645
1579.49429	1.16657
1577.56572	1.14882
1575.63716	1.12776
1573.70859	1.10936
1571.78003	1.09738
1569.85146	1.08520
1567.92290	1.07191
1565.99434	1.06189
1564.06577	1.05437
1562.13721	1.04874
1560.20864	1.04521
1558.28008	1.04272
1556.35151	1.04161
1554.42295	1.04082
1552.49438	1.03982
1550.56582	1.03719
1548.63726	1.03219
1546.70869	1.02581
1544.78013	1.01765
1542.85156	1.00675
1540.92300	0.99020
1538.99443	0.96393
1537.06587	0.94453
1535.13730	0.93152
1533.20874	0.91486
1531.28018	0.89716
1529.35161	0.88415
1527.42305	0.87181
1525.49448	0.85872
1523.56592	0.84734
1521.63735	0.83675
1519.70879	0.82629
1517.78022	0.81752
1515.85166	0.80764
1513.92310	0.79714
1511.99453	0.78759
1510.06597	0.77870
1508.13740	0.77017
1506.20884	0.75752
1504.28027	0.74650
1502.35171	0.74024
1500.42314	0.73473
1498.49458	0.72882
1496.56602	0.72198
1494.63745	0.71512
1492.70889	0.70979
1490.78032	0.70515
1488.85176	0.69981
1486.92319	0.69475
1484.99463	0.69063
1483.06606	0.68716
1481.13750	0.68408
1479.20894	0.68158
1477.28037	0.68003
1475.35181	0.67934
1473.42324	0.67897
1471.49468	0.67720
1469.56611	0.67406
1467.63755	0.67122
1465.70898	0.66915
1463.78042	0.66758
1461.85186	0.66631
1459.92329	0.66570
1457.99473	0.66552
1456.06616	0.66445
1454.13760	0.66220
1452.20903	0.66002
1450.28047	0.65783
1448.35190	0.65557
1446.42334	0.65321
1444.49478	0.65082
1442.56621	0.64841
1440.63765	0.64610
1438.70908	0.64392
1436.78052	0.64126
1434.85195	0.63804
1432.92339	0.63543
1430.99482	0.63384
1429.06626	0.63305
1427.13770	0.63271
1425.20913	0.63280
1423.28057	0.63327
1421.35200	0.63357
1419.42344	0.63361
1417.49487	0.63324
1415.56631	0.63213
1413.63774	0.63117
1411.70918	0.63088
1409.78062	0.63119
1407.85205	0.63188
1405.92349	0.63286
1403.99492	0.63367
1402.06636	0.63363
1400.13779	0.63284
1398.20923	0.63147
1396.28066	0.62942
1394.35210	0.62626
1392.42354	0.62240
1390.49497	0.61875
1388.56641	0.61512
1386.63784	0.61091
1384.70928	0.60653
1382.78071	0.60251
1380.85215	0.59876
1378.92358	0.59547
1376.99502	0.59284
1375.06646	0.59089
1373.13789	0.58949
1371.20933	0.58848
1369.28076	0.58765
1367.35220	0.58664
1365.42363	0.58535
1363.49507	0.58393
1361.56650	0.58242
1359.63794	0.58101
1357.70937	0.57989
1355.78081	0.57886
1353.85225	0.57783
1351.92368	0.57706
1349.99512	0.57667
1348.06655	0.57626
1346.13799	0.57550
1344.20942	0.57459
1342.28086	0.57376
1340.35229	0.57304
1338.42373	0.57227
1336.49517	0.57152
1334.56660	0.57096
1332.63804	0.57068
1330.70947	0.57070
1328.78091	0.57091
1326.85234	0.57117
1324.92378	0.57155
1322.99521	0.57215
1321.06665	0.57277
1319.13809	0.57309
1317.20952	0.57304
1315.28096	0.57281
1313.35239	0.57241
1311.42383	0.57174
1309.49526	0.57103
1307.56670	0.57046
1305.63813	0.56994
1303.70957	0.56937
1301.78101	0.56860
1299.85244	0.56760
1297.92388	0.56654
1295.99531	0.56546
1294.06675	0.56424
1292.13818	0.56297
1290.20962	0.56184
1288.28105	0.56078
1286.35249	0.55962
1284.42393	0.55855
1282.49536	0.55760
1280.56680	0.55652
1278.63823	0.55526
1276.70967	0.55404
1274.78110	0.55290
1272.85254	0.55195
1270.92397	0.55115
1268.99541	0.55037
1267.06685	0.54958
1265.13828	0.54876
1263.20972	0.54795
1261.28115	0.54725
1259.35259	0.54660
1257.42402	0.54606
1255.49546	0.54576
1253.56689	0.54563
1251.63833	0.54560
1249.70977	0.54567
1247.78120	0.54567
1245.85264	0.54548
1243.92407	0.54506
1241.99551	0.54432
1240.06694	0.54327
1238.13838	0.54196
1236.20981	0.54034
1234.28125	0.53846
1232.35269	0.53650
1230.42412	0.53468
1228.49556	0.53305
1226.56699	0.53156
1224.63843	0.53025
1222.70986	0.52908
1220.78130	0.52788
1218.85273	0.52657
1216.92417	0.52533
1214.99561	0.52439
1213.06704	0.52369
1211.13848	0.52298
1209.20991	0.52223
1207.28135	0.52152
1205.35278	0.52078
1203.42422	0.52000
1201.49565	0.51920
1199.56709	0.51837
1197.63853	0.51758
1195.70996	0.51693
1193.78140	0.51639
1191.85283	0.51596
1189.92427	0.51570
1187.99570	0.51552
1186.06714	0.51537
1184.13857	0.51535
1182.21001	0.51553
1180.28145	0.51595
1178.35288	0.51660
1176.42432	0.51738
1174.49575	0.51819
1172.56719	0.51891
1170.63862	0.51932
1168.71006	0.51929
1166.78149	0.51900
1164.85293	0.51865
1162.92437	0.51818
1160.99580	0.51754
1159.06724	0.51675
1157.13867	0.51580
1155.21011	0.51469
1153.28154	0.51334
1151.35298	0.51179
1149.42441	0.51003
1147.49585	0.50788
1145.56729	0.50548
1143.63872	0.50323
1141.71016	0.50108
1139.78159	0.49900
1137.85303	0.49724
1135.92446	0.49595
1133.99590	0.49513
1132.06733	0.49451
1130.13877	0.49379
1128.21021	0.49298
1126.28164	0.49201
1124.35308	0.49073
1122.42451	0.48950
1120.49595	0.48858
1118.56738	0.48794
1116.63882	0.48761
1114.71025	0.48752
1112.78169	0.48747
1110.85312	0.48747
1108.92456	0.48778
1106.99600	0.48860
1105.06743	0.48986
1103.13887	0.49138
1101.21030	0.49313
1099.28174	0.49510
1097.35317	0.49732
1095.42461	0.50000
1093.49604	0.50341
1091.56748	0.50755
1089.63892	0.51239
1087.71035	0.51809
1085.78179	0.52436
1083.85322	0.53044
1081.92466	0.53610
1079.99609	0.54113
1078.06753	0.54452
1076.13896	0.54548
1074.21040	0.54390
1072.28184	0.53978
1070.35327	0.53357
1068.42471	0.52658
1066.49614	0.51986
1064.56758	0.51368
1062.63901	0.50809
1060.71045	0.50315
1058.78188	0.49878
1056.85332	0.49481
1054.92476	0.49113
1052.99619	0.48778
1051.06763	0.48493
1049.13906	0.48280
1047.21050	0.48131
1045.28193	0.48006
1043.35337	0.47879
1041.42480	0.47743
1039.49624	0.47604
1037.56768	0.47496
1035.63911	0.47430
1033.71055	0.47393
1031.78198	0.47373
1029.85342	0.47349
1027.92485	0.47330
1025.99629	0.47340
1024.06772	0.47378
1022.13916	0.47435
1020.21060	0.47519
1018.28203	0.47621
1016.35347	0.47719
1014.42490	0.47812
1012.49634	0.47912
1010.56777	0.48038
1008.63921	0.48189
1006.71064	0.48337
1004.78208	0.48505
1002.85352	0.48748
1000.92495	0.49051
998.99639	0.49368
997.06782	0.49711
995.13926	0.50115
993.21069	0.50548
991.28213	0.50924
989.35356	0.51195
987.42500	0.51358
985.49644	0.51449
983.56787	0.51526
981.63931	0.51638
979.71074	0.51795
977.78218	0.51981
975.85361	0.52196
973.92505	0.52445
971.99648	0.52727
970.06792	0.53056
968.13936	0.53450
966.21079	0.53888
964.28223	0.54336
962.35366	0.54800
960.42510	0.55303
958.49653	0.55850
956.56797	0.56445
954.63940	0.57091
952.71084	0.57738
950.78228	0.58357
948.85371	0.58975
946.92515	0.59583
944.99658	0.60170
943.06802	0.60758
941.13945	0.61350
939.21089	0.61975
937.28232	0.62628
935.35376	0.63223
933.42520	0.63772
931.49663	0.64343
929.56807	0.64905
927.63950	0.65445
925.71094	0.65984
923.78237	0.66585
921.85381	0.67294
919.92524	0.68033
917.99668	0.68721
916.06812	0.69381
914.13955	0.70096
912.21099	0.70900
910.28242	0.71748
908.35386	0.72607
906.42529	0.73441
904.49673	0.74272
902.56816	0.75142
900.63960	0.75989
898.71104	0.76844
896.78247	0.77824
894.85391	0.78841
892.92534	0.79770
890.99678	0.80726
889.06821	0.81832
887.13965	0.83062
885.21108	0.84310
883.28252	0.85438
881.35396	0.86449
879.42539	0.87446
877.49683	0.88487
875.56826	0.89691
873.63970	0.90956
871.71113	0.92103
869.78257	0.93274
867.85400	0.94489
865.92544	0.95530
863.99687	0.96470
862.06831	0.97594
860.13975	0.98984
858.21118	1.00461
856.28262	1.01709
854.35405	1.02611
852.42549	1.03419
850.49692	1.04472
848.56836	1.05764
846.63979	1.06946
844.71123	1.08030
842.78267	1.09171
840.85410	1.10253
838.92554	1.11407
836.99697	1.12669
835.06841	1.13862
833.13984	1.15059
831.21128	1.15992
829.28271	1.16522
827.35415	1.17236
825.42559	1.18234
823.49702	1.19050
821.56846	1.19793
819.63989	1.21012
817.71133	1.22235
815.78276	1.22537
813.85420	1.22097
811.92563	1.22277
809.99707	1.23922
808.06851	1.25826
806.13994	1.26670
804.21138	1.26228
802.28281	1.25532
800.35425	1.26459
798.42568	1.29450
796.49712	1.33065
794.56855	1.34364
792.63999	1.31299
790.71143	1.27213
788.78286	1.26157
786.85430	1.27735
784.92573	1.30052
782.99717	1.29253
781.06860	1.23928
779.14004	1.18981
777.21147	1.16935
775.28291	1.18669
773.35435	1.23855
771.42578	1.27102
769.49722	1.26525
767.56865	1.23597
765.64009	1.21982
763.71152	1.16365
761.78296	1.08803
759.85439	1.04755
757.92583	1.03334
755.99727	1.00948
754.06870	1.00230
752.14014	1.02335
750.21157	1.05840
748.28301	1.04476
746.35444	0.99747
744.42588	0.94057
742.49731	0.85856
740.56875	0.78202
738.64019	0.71687
736.71162	0.61811
734.78306	0.48146
732.85449	0.35503
730.92593	0.25953
728.99736	0.19159
727.06880	0.14673
725.14023	0.02227
723.21167	-0.24808
721.28311	-0.81202
719.35454	-0.65819
717.42598	-0.49309
715.49741	-0.55096
713.56885	-0.34939
711.64028	-0.08995
709.71172	0.11684
707.78315	0.26358
705.85459	0.35401
703.92603	0.37546
701.99746	0.34863
700.06890	0.30009
698.14033	0.26787
696.21177	0.22463
694.28320	0.16834
692.35464	0.13347
690.42607	0.14043
688.49751	0.18315
686.56895	0.21383
684.64038	0.18960
682.71182	0.14046
680.78325	0.12044
678.85469	0.13411
676.92612	0.18049
674.99756	0.23834
673.06899	0.28516
671.14043	0.29898
669.21187	0.27256
667.28330	0.25847
665.35474	0.26957
663.42617	0.27350
661.49761	0.24172
659.56904	0.19146
657.64048	0.18091
655.71191	0.20085
653.78335	0.23430
651.85479	0.27622
649.92622	0.27503
647.99766	0.23339
646.06909	0.19206
644.14053	0.21202
642.21196	0.29348
640.28340	0.33166
638.35483	0.28818
636.42627	0.23655
634.49771	0.20060
632.56914	0.17568
630.64058	0.15922
628.71201	0.16012
626.78345	0.19404
624.85488	0.25013
622.92632	0.31053
620.99775	0.35877
619.06919	0.37952
617.14062	0.35504
615.21206	0.31005
613.28350	0.28365
611.35493	0.24578
609.42637	0.19601
607.49780	0.16966
605.56924	0.16233
603.64067	0.17530
601.71211	0.20560
599.78354	0.22505
597.85498	0.23295
595.92642	0.25266
593.99785	0.26617
592.06929	0.26348
590.14072	0.23816
588.21216	0.18791
586.28359	0.16717
584.35503	0.18452
582.42646	0.18774
580.49790	0.16923
578.56934	0.16574
576.64077	0.18917
574.71221	0.22628
572.78364	0.24178
570.85508	0.24067
568.92651	0.24803
566.99795	0.25038
565.06938	0.23603
563.14082	0.20577
561.21226	0.18709
559.28369	0.20185
557.35513	0.22236
555.42656	0.22221
553.49800	0.20772
551.56943	0.19669
549.64087	0.20579
547.71230	0.19351
545.78374	0.14921
543.85518	0.14448
541.92661	0.19001
539.99805	0.22179
538.06948	0.23110
536.14092	0.23027
534.21235	0.19125
532.28379	0.14437
530.35522	0.14393
528.42666	0.18519
526.49810	0.20435
524.56953	0.17621
522.64097	0.14380
520.71240	0.13184
518.78384	0.14899
516.85527	0.17358
514.92671	0.18190
512.99814	0.16461
511.06958	0.13497
509.14102	0.13061
507.21245	0.15411
505.28389	0.17566
503.35532	0.17790
501.42676	0.15562
499.49819	0.12991
