3997.91411	0.05797
3995.98555	0.05889
3994.05698	0.05936
3992.12842	0.05938
3990.19985	0.05949
3988.27129	0.05978
3986.34272	0.06004
3984.41416	0.06032
3982.48560	0.06084
3980.55703	0.06147
3978.62847	0.06158
3976.69990	0.06112
3974.77134	0.06085
3972.84277	0.06114
3970.91421	0.06159
3968.98564	0.06164
3967.05708	0.06160
3965.12852	0.06208
3963.19995	0.06281
3961.27139	0.06339
3959.34282	0.06343
3957.41426	0.06300
3955.48569	0.06275
3953.55713	0.06281
3951.62856	0.06308
3949.70000	0.06345
3947.77144	0.06377
3945.84287	0.06378
3943.91431	0.06395
3941.98574	0.06446
3940.05718	0.06438
3938.12861	0.06389
3936.20005	0.06365
3934.27148	0.06380
3932.34292	0.06452
3930.41436	0.06514
3928.48579	0.06490
3926.55723	0.06466
3924.62866	0.06501
3922.70010	0.06502
3920.77153	0.06452
3918.84297	0.06435
3916.91440	0.06457
3914.98584	0.06425
3913.05728	0.06300
3911.12871	0.06185
3909.20015	0.06182
3907.27158	0.06328
3905.34302	0.06592
3903.41445	0.06847
3901.48589	0.06905
3899.55732	0.06795
3897.62876	0.06625
3895.70020	0.06472
3893.77163	0.06464
3891.84307	0.06582
3889.91450	0.06623
3887.98594	0.06591
3886.05737	0.06674
3884.12881	0.06777
3882.20024	0.06768
3880.27168	0.06725
3878.34312	0.06610
3876.41455	0.06526
3874.48599	0.06640
3872.55742	0.06852
3870.62886	0.07015
3868.70029	0.07069
3866.77173	0.07035
3864.84316	0.07099
3862.91460	0.07179
3860.98604	0.07068
3859.05747	0.06936
3857.12891	0.07000
3855.20034	0.07300
3853.27178	0.07733
3851.34321	0.07754
3849.41465	0.07325
3847.48608	0.07043
3845.55752	0.07027
3843.62896	0.07219
3841.70039	0.07514
3839.77183	0.07821
3837.84326	0.08068
3835.91470	0.08106
3833.98613	0.07998
3832.05757	0.07904
3830.12900	0.07805
3828.20044	0.07753
3826.27187	0.07848
3824.34331	0.08020
3822.41475	0.08262
3820.48618	0.08642
3818.55762	0.08815
3816.62905	0.08723
3814.70049	0.08575
3812.77192	0.08412
3810.84336	0.08385
3808.91479	0.08537
3806.98623	0.08783
3805.05767	0.08996
3803.12910	0.09202
3801.20054	0.09475
3799.27197	0.09593
3797.34341	0.09540
3795.41484	0.09495
3793.48628	0.09439
3791.55771	0.09425
3789.62915	0.09495
3787.70059	0.09640
3785.77202	0.09875
3783.84346	0.10113
3781.91489	0.10246
3779.98633	0.10385
3778.05776	0.10574
3776.12920	0.10659
3774.20063	0.10712
3772.27207	0.10905
3770.34351	0.11247
3768.41494	0.11586
3766.48638	0.11783
3764.55781	0.11929
3762.62925	0.12110
3760.70068	0.12393
3758.77212	0.12769
3756.84355	0.13054
3754.91499	0.13264
3752.98643	0.13621
3751.05786	0.14182
3749.12930	0.14687
3747.20073	0.14985
3745.27217	0.15334
3743.34360	0.15726
3741.41504	0.15992
3739.48647	0.16331
3737.55791	0.16920
3735.62935	0.17795
3733.70078	0.18623
3731.77222	0.18999
3729.84365	0.19269
3727.91509	0.19702
3725.98652	0.20300
3724.05796	0.20929
3722.12939	0.21457
3720.20083	0.21899
3718.27227	0.22296
3716.34370	0.22742
3714.41514	0.23395
3712.48657	0.24527
3710.55801	0.26209
3708.62944	0.27703
3706.70088	0.28722
3704.77231	0.29777
3702.84375	0.31096
3700.91519	0.32732
3698.98662	0.34465
3697.05806	0.36135
3695.12949	0.37950
3693.20093	0.39952
3691.27236	0.42202
3689.34380	0.44976
3687.41523	0.48133
3685.48667	0.50882
3683.55811	0.53336
3681.62954	0.56059
3679.70098	0.59257
3677.77241	0.62731
3675.84385	0.66793
3673.91528	0.71959
3671.98672	0.76086
3670.05815	0.79872
3668.12959	0.85051
3666.20103	0.89699
3664.27246	0.93585
3662.34390	0.97833
3660.41533	1.02531
3658.48677	1.07252
3656.55820	1.12276
3654.62964	1.17770
3652.70107	1.22407
3650.77251	1.26661
3648.84395	1.32542
3646.91538	1.39248
3644.98682	1.43922
3643.05825	1.47638
3641.12969	1.51592
3639.20112	1.56037
3637.27256	1.60571
3635.34399	1.65033
3633.41543	1.69545
3631.48687	1.73783
3629.55830	1.78113
3627.62974	1.83740
3625.70117	1.88734
3623.77261	1.91938
3621.84404	1.95093
3619.91548	1.98830
3617.98691	2.03303
3616.05835	2.07534
3614.12979	2.11046
3612.20122	2.14774
3610.27266	2.18661
3608.34409	2.22745
3606.41553	2.27104
3604.48696	2.31104
3602.55840	2.34718
3600.62983	2.38612
3598.70127	2.42746
3596.77271	2.46696
3594.84414	2.50649
3592.91558	2.54751
3590.98701	2.58707
3589.05845	2.62476
3587.12988	2.66880
3585.20132	2.71492
3583.27275	2.75305
3581.34419	2.79039
3579.41562	2.83252
3577.48706	2.87585
3575.55850	2.91793
3573.62993	2.96137
3571.70137	3.00341
3569.77280	3.04279
3567.84424	3.08577
3565.91567	3.13991
3563.98711	3.19229
3562.05854	3.23420
3560.12998	3.27481
3558.20142	3.31677
3556.27285	3.36016
3554.34429	3.40566
3552.41572	3.45432
3550.48716	3.50223
3548.55859	3.54701
3546.63003	3.59188
3544.70146	3.63931
3542.77290	3.68734
3540.84434	3.73268
3538.91577	3.77740
3536.98721	3.82473
3535.05864	3.87503
3533.13008	3.92405
3531.20151	3.97199
3529.27295	4.02098
3527.34438	4.07034
3525.41582	4.11903
3523.48726	4.16684
3521.55869	4.21441
3519.63013	4.26146
3517.70156	4.30975
3515.77300	4.35871
3513.84443	4.40419
3511.91587	4.44744
3509.98730	4.49564
3508.05874	4.54713
3506.13018	4.59562
3504.20161	4.64240
3502.27305	4.68941
3500.34448	4.73717
3498.41592	4.78786
3496.48735	4.84296
3494.55879	4.89372
3492.63022	4.93386
3490.70166	4.97732
3488.77310	5.03008
3486.84453	5.08123
3484.91597	5.13075
3482.98740	5.18230
3481.05884	5.23289
3479.13027	5.28045
3477.20171	5.32766
3475.27314	5.37944
3473.34458	5.43380
3471.41602	5.48244
3469.48745	5.52430
3467.55889	5.57174
3465.63032	5.62747
3463.70176	5.67847
3461.77319	5.72140
3459.84463	5.76565
3457.91606	5.81827
3455.98750	5.88424
3454.05894	5.94816
3452.13037	5.99003
3450.20181	6.03003
3448.27324	6.08360
3446.34468	6.13032
3444.41611	6.16352
3442.48755	6.21547
3440.55898	6.28609
3438.63042	6.33391
3436.70186	6.35758
3434.77329	6.39779
3432.84473	6.46422
3430.91616	6.52876
3428.98760	6.57699
3427.05903	6.62836
3425.13047	6.70747
3423.20190	6.78125
3421.27334	6.81586
3419.34478	6.83882
3417.41621	6.88959
3415.48765	6.94696
3413.55908	6.96210
3411.63052	6.97828
3409.70195	7.04318
3407.77339	7.12453
3405.84482	7.17454
3403.91626	7.21049
3401.98770	7.25529
3400.05913	7.28828
3398.13057	7.30547
3396.20200	7.33338
3394.27344	7.39188
3392.34487	7.45309
3390.41631	7.49106
3388.48774	7.51067
3386.55918	7.55147
3384.63062	7.60472
3382.70205	7.61935
3380.77349	7.62717
3378.84492	7.68071
3376.91636	7.74019
3374.98779	7.74565
3373.05923	7.75613
3371.13066	7.80429
3369.20210	7.85570
3367.27354	7.87814
3365.34497	7.88805
3363.41641	7.89992
3361.48784	7.88509
3359.55928	7.88949
3357.63071	7.95977
3355.70215	8.09140
3353.77358	8.18453
3351.84502	8.12834
3349.91646	8.04889
3347.98789	8.09222
3346.05933	8.14221
3344.13076	8.10138
3342.20220	8.12484
3340.27363	8.24591
3338.34507	8.31946
3336.41650	8.28174
3334.48794	8.21285
3332.55937	8.16619
3330.63081	8.16794
3328.70225	8.19419
3326.77368	8.22237
3324.84512	8.27826
3322.91655	8.29081
3320.98799	8.24426
3319.05942	8.20798
3317.13086	8.17172
3315.20229	8.12602
3313.27373	8.11628
3311.34517	8.11924
3309.41660	8.12251
3307.48804	8.15856
3305.55947	8.20810
3303.63091	8.28360
3301.70234	8.34977
3299.77378	8.35545
3297.84521	8.36568
3295.91665	8.40535
3293.98809	8.42032
3292.05952	8.40601
3290.13096	8.41664
3288.20239	8.51944
3286.27383	8.65713
3284.34526	8.65812
3282.41670	8.53249
3280.48813	8.39896
3278.55957	8.33977
3276.63101	8.32714
3274.70244	8.29739
3272.77388	8.29427
3270.84531	8.35598
3268.91675	8.42690
3266.98818	8.40172
3265.05962	8.30896
3263.13105	8.30998
3261.20249	8.43710
3259.27393	8.47159
3257.34536	8.35407
3255.41680	8.31718
3253.48823	8.42977
3251.55967	8.52611
3249.63110	8.44195
3247.70254	8.30955
3245.77397	8.25653
3243.84541	8.24923
3241.91685	8.27091
3239.98828	8.24676
3238.05972	8.18525
3236.13115	8.23855
3234.20259	8.35506
3232.27402	8.38257
3230.34546	8.34230
3228.41689	8.30231
3226.48833	8.31203
3224.55977	8.40333
3222.63120	8.49652
3220.70264	8.43871
3218.77407	8.26838
3216.84551	8.13215
3214.91694	8.07140
3212.98838	8.04966
3211.05981	8.02314
3209.13125	7.97670
3207.20269	7.94634
3205.27412	7.93464
3203.34556	7.90107
3201.41699	7.85316
3199.48843	7.79632
3197.55986	7.76140
3195.63130	7.76943
3193.70273	7.76850
3191.77417	7.73023
3189.84561	7.66033
3187.91704	7.57139
3185.98848	7.50116
3184.05991	7.46699
3182.13135	7.43805
3180.20278	7.39113
3178.27422	7.33911
3176.34565	7.30279
3174.41709	7.26062
3172.48853	7.18808
3170.55996	7.09863
3168.63140	7.00822
3166.70283	6.93788
3164.77427	6.89293
3162.84570	6.84937
3160.91714	6.78775
3158.98857	6.71280
3157.06001	6.63820
3155.13145	6.57244
3153.20288	6.51921
3151.27432	6.47239
3149.34575	6.40804
3147.41719	6.32837
3145.48862	6.25415
3143.56006	6.17448
3141.63149	6.09867
3139.70293	6.04247
3137.77437	5.98504
3135.84580	5.91460
3133.91724	5.83931
3131.98867	5.76218
3130.06011	5.68545
3128.13154	5.61113
3126.20298	5.53674
3124.27441	5.46521
3122.34585	5.39578
3120.41729	5.32310
3118.48872	5.24866
3116.56016	5.17644
3114.63159	5.10702
3112.70303	5.03702
3110.77446	4.96681
3108.84590	4.90141
3106.91733	4.83669
3104.98877	4.76664
3103.06021	4.69755
3101.13164	4.63055
3099.20308	4.56204
3097.27451	4.49565
3095.34595	4.43104
3093.41738	4.36422
3091.48882	4.29741
3089.56025	4.23360
3087.63169	4.17112
3085.70312	4.10811
3083.77456	4.04365
3081.84600	3.98072
3079.91743	3.92068
3077.98887	3.85935
3076.06030	3.79727
3074.13174	3.73710
3072.20317	3.67816
3070.27461	3.61954
3068.34604	3.56199
3066.41748	3.50591
3064.48892	3.45074
3062.56035	3.39630
3060.63179	3.34176
3058.70322	3.28666
3056.77466	3.23302
3054.84609	3.18115
3052.91753	3.12897
3050.98896	3.07740
3049.06040	3.02675
3047.13184	2.97528
3045.20327	2.92437
3043.27471	2.87570
3041.34614	2.82795
3039.41758	2.77954
3037.48901	2.73080
3035.56045	2.68324
3033.63188	2.63794
3031.70332	2.59422
3029.77476	2.55058
3027.84619	2.50675
3025.91763	2.46335
3023.98906	2.42055
3022.06050	2.37794
3020.13193	2.33597
3018.20337	2.29538
3016.27480	2.25560
3014.34624	2.21566
3012.41768	2.17565
3010.48911	2.13666
3008.56055	2.09922
3006.63198	2.06281
3004.70342	2.02673
3002.77485	1.99069
3000.84629	1.95541
2998.91772	1.92165
2996.98916	1.88941
2995.06060	1.85792
2993.13203	1.82603
2991.20347	1.79438
2989.27490	1.76431
2987.34634	1.73498
2985.41777	1.70560
2983.48921	1.67669
2981.56064	1.64869
2979.63208	1.62185
2977.70352	1.59580
2975.77495	1.56986
2973.84639	1.54404
2971.91782	1.51870
2969.98926	1.49399
2968.06069	1.46969
2966.13213	1.44559
2964.20356	1.42161
2962.27500	1.39782
2960.34644	1.37454
2958.41787	1.35115
2956.48931	1.32647
2954.56074	1.30115
2952.63218	1.27694
2950.70361	1.25367
2948.77505	1.23040
2946.84648	1.20770
2944.91792	1.18634
2942.98936	1.16552
2941.06079	1.14454
2939.13223	1.12420
2937.20366	1.10468
2935.27510	1.08481
2933.34653	1.06458
2931.41797	1.04453
2929.48940	1.02453
2927.56084	1.00505
2925.63228	0.98634
2923.70371	0.96834
2921.77515	0.95137
2919.84658	0.93485
2917.91802	0.91806
2915.98945	0.90098
2914.06089	0.88368
2912.13232	0.86689
2910.20376	0.85131
2908.27520	0.83639
2906.34663	0.82162
2904.41807	0.80702
2902.48950	0.79230
2900.56094	0.77762
2898.63237	0.76396
2896.70381	0.75150
2894.77524	0.73914
2892.84668	0.72649
2890.91812	0.71410
2888.98955	0.70216
2887.06099	0.69098
2885.13242	0.68060
2883.20386	0.67045
2881.27529	0.66050
2879.34673	0.65095
2877.41816	0.64163
2875.48960	0.63221
2873.56104	0.62231
2871.63247	0.61167
2869.70391	0.60053
2867.77534	0.58927
2865.84678	0.57784
2863.91821	0.56625
2861.98965	0.55490
2860.06108	0.54404
2858.13252	0.53376
2856.20396	0.52409
2854.27539	0.51491
2852.34683	0.50629
2850.41826	0.49819
2848.48970	0.48998
2846.56113	0.48157
2844.63257	0.47363
2842.70400	0.46631
2840.77544	0.45951
2838.84687	0.45334
2836.91831	0.44761
2834.98975	0.44178
2833.06118	0.43567
2831.13262	0.42954
2829.20405	0.42361
2827.27549	0.41780
2825.34692	0.41198
2823.41836	0.40609
2821.48979	0.40011
2819.56123	0.39420
2817.63267	0.38845
2815.70410	0.38281
2813.77554	0.37727
2811.84697	0.37194
2809.91841	0.36672
2807.98984	0.36145
2806.06128	0.35616
2804.13271	0.35100
2802.20415	0.34594
2800.27559	0.34096
2798.34702	0.33615
2796.41846	0.33145
2794.48989	0.32670
2792.56133	0.32194
2790.63276	0.31729
2788.70420	0.31292
2786.77563	0.30871
2784.84707	0.30441
2782.91851	0.30008
2780.98994	0.29581
2779.06138	0.29173
2777.13281	0.28794
2775.20425	0.28422
2773.27568	0.28041
2771.34712	0.27656
2769.41855	0.27287
2767.48999	0.26937
2765.56143	0.26595
2763.63286	0.26267
2761.70430	0.25950
2759.77573	0.25628
2757.84717	0.25301
2755.91860	0.24983
2753.99004	0.24680
2752.06147	0.24386
2750.13291	0.24087
2748.20435	0.23785
2746.27578	0.23494
2744.34722	0.23215
2742.41865	0.22948
2740.49009	0.22689
2738.56152	0.22425
2736.63296	0.22153
2734.70439	0.21894
2732.77583	0.21663
2730.84727	0.21447
2728.91870	0.21230
2726.99014	0.21007
2725.06157	0.20782
2723.13301	0.20565
2721.20444	0.20350
2719.27588	0.20133
2717.34731	0.19931
2715.41875	0.19751
2713.49019	0.19571
2711.56162	0.19386
2709.63306	0.19212
2707.70449	0.19047
2705.77593	0.18890
2703.84736	0.18741
2701.91880	0.18576
2699.99023	0.18410
2698.06167	0.18274
2696.13311	0.18138
2694.20454	0.17983
2692.27598	0.17843
2690.34741	0.17721
2688.41885	0.17592
2686.49028	0.17457
2684.56172	0.17346
2682.63315	0.17256
2680.70459	0.17164
2678.77603	0.17062
2676.84746	0.16948
2674.91890	0.16826
2672.99033	0.16714
2671.06177	0.16607
2669.13320	0.16494
2667.20464	0.16387
2665.27607	0.16303
2663.34751	0.16226
2661.41895	0.16140
2659.49038	0.16051
2657.56182	0.15967
2655.63325	0.15895
2653.70469	0.15836
2651.77612	0.15777
2649.84756	0.15710
2647.91899	0.15644
2645.99043	0.15574
2644.06187	0.15507
2642.13330	0.15456
2640.20474	0.15415
2638.27617	0.15375
2636.34761	0.15337
2634.41904	0.15297
2632.49048	0.15256
2630.56191	0.15216
2628.63335	0.15174
2626.70479	0.15125
2624.77622	0.15081
2622.84766	0.15048
2620.91909	0.15025
2618.99053	0.15016
2617.06196	0.15010
2615.13340	0.14998
2613.20483	0.14978
2611.27627	0.14953
2609.34771	0.14936
2607.41914	0.14933
2605.49058	0.14934
2603.56201	0.14930
2601.63345	0.14923
2599.70488	0.14912
2597.77632	0.14906
2595.84775	0.14912
2593.91919	0.14924
2591.99062	0.14940
2590.06206	0.14948
2588.13350	0.14951
2586.20493	0.14974
2584.27637	0.15012
2582.34780	0.15037
2580.41924	0.15052
2578.49067	0.15070
2576.56211	0.15088
2574.63354	0.15108
2572.70498	0.15131
2570.77642	0.15158
2568.84785	0.15201
2566.91929	0.15260
2564.99072	0.15309
2563.06216	0.15341
2561.13359	0.15371
2559.20503	0.15412
2557.27646	0.15456
2555.34790	0.15505
2553.41934	0.15572
2551.49077	0.15642
2549.56221	0.15690
2547.63364	0.15728
2545.70508	0.15778
2543.77651	0.15839
2541.84795	0.15904
2539.91938	0.15973
2537.99082	0.16034
2536.06226	0.16085
2534.13369	0.16147
2532.20513	0.16217
2530.27656	0.16274
2528.34800	0.16336
2526.41943	0.16415
2524.49087	0.16491
2522.56230	0.16562
2520.63374	0.16642
2518.70518	0.16720
2516.77661	0.16791
2514.84805	0.16865
2512.91948	0.16938
2510.99092	0.17009
2509.06235	0.17090
2507.13379	0.17182
2505.20522	0.17276
2503.27666	0.17361
2501.34810	0.17434
2499.41953	0.17503
2497.49097	0.17576
2495.56240	0.17662
2493.63384	0.17752
2491.70527	0.17837
2489.77671	0.17928
2487.84814	0.18024
2485.91958	0.18112
2483.99102	0.18184
2482.06245	0.18250
2480.13389	0.18327
2478.20532	0.18420
2476.27676	0.18528
2474.34819	0.18635
2472.41963	0.18727
2470.49106	0.18814
2468.56250	0.18897
2466.63394	0.18969
2464.70537	0.19049
2462.77681	0.19158
2460.84824	0.19272
2458.91968	0.19364
2456.99111	0.19445
2455.06255	0.19530
2453.13398	0.19621
2451.20542	0.19718
2449.27686	0.19814
2447.34829	0.19917
2445.41973	0.20026
2443.49116	0.20133
2441.56260	0.20239
2439.63403	0.20342
2437.70547	0.20439
2435.77690	0.20537
2433.84834	0.20638
2431.91978	0.20747
2429.99121	0.20860
2428.06265	0.20972
2426.13408	0.21077
2424.20552	0.21181
2422.27695	0.21295
2420.34839	0.21411
2418.41982	0.21513
2416.49126	0.21605
2414.56270	0.21708
2412.63413	0.21837
2410.70557	0.21970
2408.77700	0.22087
2406.84844	0.22198
2404.91987	0.22309
2402.99131	0.22420
2401.06274	0.22537
2399.13418	0.22667
2397.20562	0.22805
2395.27705	0.22935
2393.34849	0.23056
2391.41992	0.23190
2389.49136	0.23364
2387.56279	0.23608
2385.63423	0.23989
2383.70566	0.24597
2381.77710	0.25462
2379.84854	0.26530
2377.91997	0.27738
2375.99141	0.29083
2374.06284	0.30623
2372.13428	0.32400
2370.20571	0.34365
2368.27715	0.36354
2366.34858	0.38224
2364.42002	0.39873
2362.49146	0.41114
2360.56289	0.41815
2358.63433	0.41866
2356.70576	0.41101
2354.77720	0.39651
2352.84863	0.37819
2350.92007	0.35909
2348.99150	0.34725
2347.06294	0.34847
2345.13437	0.36264
2343.20581	0.38043
2341.27725	0.38925
2339.34868	0.38985
2337.42012	0.38810
2335.49155	0.38639
2333.56299	0.38477
2331.63442	0.38373
2329.70586	0.38274
2327.77729	0.38025
2325.84873	0.37583
2323.92017	0.37061
2321.99160	0.36533
2320.06304	0.35929
2318.13447	0.35246
2316.20591	0.34639
2314.27734	0.34257
2312.34878	0.34074
2310.42021	0.33912
2308.49165	0.33650
2306.56309	0.33317
2304.63452	0.33013
2302.70596	0.32815
2300.77739	0.32710
2298.84883	0.32649
2296.92026	0.32611
2294.99170	0.32584
2293.06313	0.32554
2291.13457	0.32523
2289.20601	0.32499
2287.27744	0.32495
2285.34888	0.32522
2283.42031	0.32601
2281.49175	0.32761
2279.56318	0.33002
2277.63462	0.33276
2275.70605	0.33535
2273.77749	0.33768
2271.84893	0.33985
2269.92036	0.34196
2267.99180	0.34392
2266.06323	0.34568
2264.13467	0.34746
2262.20610	0.34935
2260.27754	0.35124
2258.34897	0.35305
2256.42041	0.35478
2254.49185	0.35651
2252.56328	0.35834
2250.63472	0.36021
2248.70615	0.36207
2246.77759	0.36395
2244.84902	0.36588
2242.92046	0.36793
2240.99189	0.37013
2239.06333	0.37237
2237.13477	0.37453
2235.20620	0.37660
2233.27764	0.37873
2231.34907	0.38092
2229.42051	0.38316
2227.49194	0.38545
2225.56338	0.38767
2223.63481	0.38980
2221.70625	0.39193
2219.77769	0.39413
2217.84912	0.39633
2215.92056	0.39850
2213.99199	0.40069
2212.06343	0.40291
2210.13486	0.40515
2208.20630	0.40734
2206.27773	0.40938
2204.34917	0.41134
2202.42061	0.41337
2200.49204	0.41545
2198.56348	0.41749
2196.63491	0.41944
2194.70635	0.42139
2192.77778	0.42341
2190.84922	0.42531
2188.92065	0.42702
2186.99209	0.42877
2185.06353	0.43066
2183.13496	0.43255
2181.20640	0.43438
2179.27783	0.43613
2177.34927	0.43770
2175.42070	0.43909
2173.49214	0.44043
2171.56357	0.44175
2169.63501	0.44308
2167.70645	0.44448
2165.77788	0.44587
2163.84932	0.44716
2161.92075	0.44835
2159.99219	0.44941
2158.06362	0.45036
2156.13506	0.45134
2154.20649	0.45225
2152.27793	0.45295
2150.34937	0.45354
2148.42080	0.45414
2146.49224	0.45468
2144.56367	0.45517
2142.63511	0.45558
2140.70654	0.45584
2138.77798	0.45607
2136.84941	0.45629
2134.92085	0.45640
2132.99229	0.45639
2131.06372	0.45637
2129.13516	0.45629
2127.20659	0.45597
2125.27803	0.45549
2123.34946	0.45501
2121.42090	0.45463
2119.49233	0.45427
2117.56377	0.45376
2115.63521	0.45298
2113.70664	0.45210
2111.77808	0.45122
2109.84951	0.45022
2107.92095	0.44912
2105.99238	0.44801
2104.06382	0.44686
2102.13525	0.44556
2100.20669	0.44426
2098.27812	0.44292
2096.34956	0.44138
2094.42100	0.43983
2092.49243	0.43837
2090.56387	0.43673
2088.63530	0.43484
2086.70674	0.43287
2084.77817	0.43086
2082.84961	0.42892
2080.92104	0.42716
2078.99248	0.42530
2077.06392	0.42317
2075.13535	0.42087
2073.20679	0.41860
2071.27822	0.41636
2069.34966	0.41407
2067.42109	0.41175
2065.49253	0.40943
2063.56396	0.40703
2061.63540	0.40459
2059.70684	0.40216
2057.77827	0.39968
2055.84971	0.39717
2053.92114	0.39462
2051.99258	0.39202
2050.06401	0.38936
2048.13545	0.38659
2046.20688	0.38378
2044.27832	0.38112
2042.34976	0.37856
2040.42119	0.37589
2038.49263	0.37306
2036.56406	0.37021
2034.63550	0.36738
2032.70693	0.36457
2030.77837	0.36187
2028.84980	0.35925
2026.92124	0.35659
2024.99268	0.35386
2023.06411	0.35112
2021.13555	0.34836
2019.20698	0.34567
2017.27842	0.34306
2015.34985	0.34027
2013.42129	0.33731
2011.49272	0.33445
2009.56416	0.33174
2007.63560	0.32900
2005.70703	0.32623
2003.77847	0.32352
2001.84990	0.32086
1999.92134	0.31828
1997.99277	0.31573
1996.06421	0.31317
1994.13564	0.31076
1992.20708	0.30845
1990.27852	0.30594
1988.34995	0.30325
1986.42139	0.30058
1984.49282	0.29807
1982.56426	0.29575
1980.63569	0.29347
1978.70713	0.29123
1976.77856	0.28898
1974.85000	0.28670
1972.92144	0.28445
1970.99287	0.28236
1969.06431	0.28050
1967.13574	0.27867
1965.20718	0.27657
1963.27861	0.27441
1961.35005	0.27247
1959.42148	0.27064
1957.49292	0.26885
1955.56436	0.26718
1953.63579	0.26554
1951.70723	0.26375
1949.77866	0.26193
1947.85010	0.26035
1945.92153	0.25904
1943.99297	0.25787
1942.06440	0.25646
1940.13584	0.25461
1938.20728	0.25289
1936.27871	0.25156
1934.35015	0.25034
1932.42158	0.24907
1930.49302	0.24783
1928.56445	0.24671
1926.63589	0.24570
1924.70732	0.24499
1922.77876	0.24433
1920.85020	0.24335
1918.92163	0.24246
1916.99307	0.24159
1915.06450	0.24036
1913.13594	0.23924
1911.20737	0.23863
1909.27881	0.23818
1907.35024	0.23752
1905.42168	0.23668
1903.49312	0.23591
1901.56455	0.23527
1899.63599	0.23476
1897.70742	0.23446
1895.77886	0.23433
1893.85029	0.23410
1891.92173	0.23379
1889.99316	0.23372
1888.06460	0.23351
1886.13604	0.23306
1884.20747	0.23273
1882.27891	0.23247
1880.35034	0.23222
1878.42178	0.23207
1876.49321	0.23198
1874.56465	0.23192
1872.63608	0.23223
1870.70752	0.23318
1868.77896	0.23443
1866.85039	0.23469
1864.92183	0.23397
1862.99326	0.23352
1861.06470	0.23357
1859.13613	0.23389
1857.20757	0.23421
1855.27900	0.23456
1853.35044	0.23497
1851.42187	0.23554
1849.49331	0.23635
1847.56475	0.23747
1845.63618	0.23880
1843.70762	0.23991
1841.77905	0.24026
1839.85049	0.24041
1837.92192	0.24112
1835.99336	0.24194
1834.06479	0.24279
1832.13623	0.24418
1830.20767	0.24629
1828.27910	0.24797
1826.35054	0.24881
1824.42197	0.24985
1822.49341	0.25086
1820.56484	0.25187
1818.63628	0.25314
1816.70771	0.25466
1814.77915	0.25626
1812.85059	0.25821
1810.92202	0.26054
1808.99346	0.26264
1807.06489	0.26440
1805.13633	0.26623
1803.20776	0.26867
1801.27920	0.27159
1799.35063	0.27452
1797.42207	0.27694
1795.49351	0.27945
1793.56494	0.28261
1791.63638	0.28632
1789.70781	0.28919
1787.77925	0.29117
1785.85068	0.29409
1783.92212	0.29795
1781.99355	0.30220
1780.06499	0.30656
1778.13643	0.31074
1776.20786	0.31484
1774.27930	0.31981
1772.35073	0.32640
1770.42217	0.33257
1768.49360	0.33713
1766.56504	0.34163
1764.63647	0.34670
1762.70791	0.35276
1760.77935	0.36033
1758.85078	0.36728
1756.92222	0.37434
1754.99365	0.38202
1753.06509	0.38916
1751.13652	0.39803
1749.20796	0.40910
1747.27939	0.41947
1745.35083	0.42835
1743.42227	0.43785
1741.49370	0.44846
1739.56514	0.46092
1737.63657	0.47327
1735.70801	0.48445
1733.77944	0.50152
1731.85088	0.52101
1729.92231	0.53580
1727.99375	0.55074
1726.06519	0.56703
1724.13662	0.58528
1722.20806	0.60536
1720.27949	0.62432
1718.35093	0.64696
1716.42236	0.67953
1714.49380	0.70942
1712.56523	0.73354
1710.63667	0.75734
1708.70811	0.78317
1706.77954	0.81283
1704.85098	0.84852
1702.92241	0.88045
1700.99385	0.91238
1699.06528	0.95982
1697.13672	1.00287
1695.20815	1.04638
1693.27959	1.08907
1691.35103	1.12434
1689.42246	1.16577
1687.49390	1.20984
1685.56533	1.25282
1683.63677	1.31905
1681.70820	1.38715
1679.77964	1.43027
1677.85107	1.47133
1675.92251	1.51875
1673.99395	1.57783
1672.06538	1.63168
1670.13682	1.68625
1668.20825	1.75723
1666.27969	1.81457
1664.35112	1.86316
1662.42256	1.92466
1660.49399	1.99525
1658.56543	2.05138
1656.63687	2.09735
1654.70830	2.14011
1652.77974	2.20370
1650.85117	2.26011
1648.92261	2.27903
1646.99404	2.30143
1645.06548	2.32225
1643.13691	2.33671
1641.20835	2.34704
1639.27979	2.35773
1637.35122	2.36414
1635.42266	2.36200
1633.49409	2.35039
1631.56553	2.33344
1629.63696	2.31490
1627.70840	2.28604
1625.77983	2.25215
1623.85127	2.20915
1621.92271	2.15591
1619.99414	2.10737
1618.06558	2.06012
1616.13701	1.99388
1614.20845	1.92553
1612.27988	1.87286
1610.35132	1.81942
1608.42275	1.76306
1606.49419	1.70785
1604.56562	1.65708
1602.63706	1.60860
1600.70850	1.56136
1598.77993	1.51738
1596.85137	1.47588
1594.92280	1.43559
1592.99424	1.39657
1591.06567	1.36084
1589.13711	1.32756
1587.20854	1.29689
1585.27998	1.26892
1583.35142	1.24292
1581.42285	1.21950
1579.49429	1.20027
1577.56572	1.18395
1575.63716	1.16440
1573.70859	1.14672
1571.78003	1.13555
1569.85146	1.12518
1567.92290	1.11402
1565.99434	1.10612
1564.06577	1.10160
1562.13721	1.09950
1560.20864	1.10081
1558.28008	1.10730
1556.35151	1.11152
1554.42295	1.11270
1552.49438	1.11443
1550.56582	1.11502
1548.63726	1.11300
1546.70869	1.10822
1544.78013	1.10037
1542.85156	1.08915
1540.92300	1.07148
1538.99443	1.04089
1537.06587	1.01657
1535.13730	1.00005
1533.20874	0.97893
1531.28018	0.95654
1529.35161	0.94072
1527.42305	0.92651
1525.49448	0.91182
1523.56592	0.89914
1521.63735	0.88680
1519.70879	0.87387
1517.78022	0.86316
1515.85166	0.85097
1513.92310	0.83750
1511.99453	0.82566
1510.06597	0.81579
1508.13740	0.80699
1506.20884	0.79180
1504.28027	0.77686
1502.35171	0.76858
1500.42314	0.76215
1498.49458	0.75595
1496.56602	0.74858
1494.63745	0.74047
1492.70889	0.73411
1490.78032	0.72914
1488.85176	0.72358
1486.92319	0.71771
1484.99463	0.71275
1483.06606	0.70916
1481.13750	0.70672
1479.20894	0.70519
1477.28037	0.70480
1475.35181	0.70545
1473.42324	0.70644
1471.49468	0.70588
1469.56611	0.70340
1467.63755	0.70084
1465.70898	0.69886
1463.78042	0.69719
1461.85186	0.69604
1459.92329	0.69609
1457.99473	0.69726
1456.06616	0.69675
1454.13760	0.69333
1452.20903	0.68994
1450.28047	0.68693
1448.35190	0.68407
1446.42334	0.68089
1444.49478	0.67767
1442.56621	0.67478
1440.63765	0.67210
1438.70908	0.66959
1436.78052	0.66633
1434.85195	0.66200
1432.92339	0.65857
1430.99482	0.65651
1429.06626	0.65528
1427.13770	0.65471
1425.20913	0.65496
1423.28057	0.65578
1421.35200	0.65654
1419.42344	0.65732
1417.49487	0.65738
1415.56631	0.65619
1413.63774	0.65537
1411.70918	0.65558
1409.78062	0.65651
1407.85205	0.65791
1405.92349	0.65982
1403.99492	0.66155
1402.06636	0.66217
1400.13779	0.66198
1398.20923	0.66091
1396.28066	0.65844
1394.35210	0.65422
1392.42354	0.64906
1390.49497	0.64439
1388.56641	0.64003
1386.63784	0.63503
1384.70928	0.62956
1382.78071	0.62426
1380.85215	0.61927
1378.92358	0.61501
1376.99502	0.61194
1375.06646	0.61003
1373.13789	0.60863
1371.20933	0.60744
1369.28076	0.60646
1367.35220	0.60515
1365.42363	0.60357
1363.49507	0.60223
1361.56650	0.60086
1359.63794	0.59905
1357.70937	0.59729
1355.78081	0.59586
1353.85225	0.59478
1351.92368	0.59411
1349.99512	0.59367
1348.06655	0.59304
1346.13799	0.59208
1344.20942	0.59119
1342.28086	0.59079
1340.35229	0.59083
1338.42373	0.59043
1336.49517	0.58939
1334.56660	0.58858
1332.63804	0.58842
1330.70947	0.58871
1328.78091	0.58920
1326.85234	0.58983
1324.92378	0.59061
1322.99521	0.59150
1321.06665	0.59239
1319.13809	0.59313
1317.20952	0.59348
1315.28096	0.59356
1313.35239	0.59347
1311.42383	0.59299
1309.49526	0.59223
1307.56670	0.59157
1305.63813	0.59115
1303.70957	0.59077
1301.78101	0.59020
1299.85244	0.58927
1297.92388	0.58818
1295.99531	0.58709
1294.06675	0.58582
1292.13818	0.58442
1290.20962	0.58307
1288.28105	0.58166
1286.35249	0.58026
1284.42393	0.57906
1282.49536	0.57780
1280.56680	0.57637
1278.63823	0.57491
1276.70967	0.57351
1274.78110	0.57225
1272.85254	0.57128
1270.92397	0.57061
1268.99541	0.56999
1267.06685	0.56925
1265.13828	0.56840
1263.20972	0.56746
1261.28115	0.56658
1259.35259	0.56589
1257.42402	0.56529
1255.49546	0.56484
1253.56689	0.56475
1251.63833	0.56497
1249.70977	0.56527
1247.78120	0.56534
1245.85264	0.56504
1243.92407	0.56444
1241.99551	0.56349
1240.06694	0.56208
1238.13838	0.56019
1236.20981	0.55806
1234.28125	0.55597
1232.35269	0.55380
1230.42412	0.55151
1228.49556	0.54938
1226.56699	0.54738
1224.63843	0.54543
1222.70986	0.54370
1220.78130	0.54226
1218.85273	0.54091
1216.92417	0.53956
1214.99561	0.53841
1213.06704	0.53745
1211.13848	0.53664
1209.20991	0.53603
1207.28135	0.53544
1205.35278	0.53467
1203.42422	0.53369
1201.49565	0.53269
1199.56709	0.53185
1197.63853	0.53110
1195.70996	0.53041
1193.78140	0.52986
1191.85283	0.52948
1189.92427	0.52919
1187.99570	0.52886
1186.06714	0.52860
1184.13857	0.52869
1182.21001	0.52933
1180.28145	0.53039
1178.35288	0.53159
1176.42432	0.53285
1174.49575	0.53412
1172.56719	0.53517
1170.63862	0.53572
1168.71006	0.53573
1166.78149	0.53541
1164.85293	0.53496
1162.92437	0.53456
1160.99580	0.53422
1159.06724	0.53378
1157.13867	0.53311
1155.21011	0.53203
1153.28154	0.53056
1151.35298	0.52880
1149.42441	0.52657
1147.49585	0.52382
1145.56729	0.52090
1143.63872	0.51816
1141.71016	0.51573
1139.78159	0.51352
1137.85303	0.51157
1135.92446	0.51015
1133.99590	0.50948
1132.06733	0.50923
1130.13877	0.50874
1128.21021	0.50784
1126.28164	0.50677
1124.35308	0.50574
1122.42451	0.50503
1120.49595	0.50474
1118.56738	0.50459
1116.63882	0.50430
1114.71025	0.50399
1112.78169	0.50401
1110.85312	0.50455
1108.92456	0.50552
1106.99600	0.50665
1105.06743	0.50768
1103.13887	0.50876
1101.21030	0.51025
1099.28174	0.51232
1097.35317	0.51496
1095.42461	0.51797
1093.49604	0.52121
1091.56748	0.52503
1089.63892	0.52971
1087.71035	0.53530
1085.78179	0.54195
1083.85322	0.54922
1081.92466	0.55586
1079.99609	0.56076
1078.06753	0.56362
1076.13896	0.56416
1074.21040	0.56204
1072.28184	0.55757
1070.35327	0.55150
1068.42471	0.54477
1066.49614	0.53809
1064.56758	0.53165
1062.63901	0.52554
1060.71045	0.52006
1058.78188	0.51544
1056.85332	0.51151
1054.92476	0.50789
1052.99619	0.50450
1051.06763	0.50157
1049.13906	0.49939
1047.21050	0.49785
1045.28193	0.49647
1043.35337	0.49498
1041.42480	0.49371
1039.49624	0.49282
1037.56768	0.49221
1035.63911	0.49170
1033.71055	0.49120
1031.78198	0.49086
1029.85342	0.49053
1027.92485	0.48993
1025.99629	0.48936
1024.06772	0.48916
1022.13916	0.48934
1020.21060	0.48971
1018.28203	0.49013
1016.35347	0.49070
1014.42490	0.49129
1012.49634	0.49169
1010.56777	0.49231
1008.63921	0.49360
1006.71064	0.49520
1004.78208	0.49681
1002.85352	0.49874
1000.92495	0.50132
998.99639	0.50461
997.06782	0.50853
995.13926	0.51263
993.21069	0.51659
991.28213	0.52020
989.35356	0.52294
987.42500	0.52436
985.49644	0.52472
983.56787	0.52489
981.63931	0.52558
979.71074	0.52688
977.78218	0.52866
975.85361	0.53098
973.92505	0.53376
971.99648	0.53676
970.06792	0.54006
968.13936	0.54396
966.21079	0.54826
964.28223	0.55275
962.35366	0.55743
960.42510	0.56211
958.49653	0.56691
956.56797	0.57243
954.63940	0.57872
952.71084	0.58524
950.78228	0.59175
948.85371	0.59821
946.92515	0.60453
944.99658	0.61081
943.06802	0.61722
941.13945	0.62365
939.21089	0.62980
937.28232	0.63578
935.35376	0.64164
933.42520	0.64736
931.49663	0.65304
929.56807	0.65869
927.63950	0.66458
925.71094	0.67091
923.78237	0.67709
921.85381	0.68273
919.92524	0.68840
917.99668	0.69461
916.06812	0.70215
914.13955	0.71114
912.21099	0.72017
910.28242	0.72834
908.35386	0.73571
906.42529	0.74331
904.49673	0.75212
902.56816	0.76170
900.63960	0.77214
898.71104	0.78334
896.78247	0.79389
894.85391	0.80330
892.92534	0.81278
890.99678	0.82296
889.06821	0.83276
887.13965	0.84225
885.21108	0.85358
883.28252	0.86628
881.35396	0.87806
879.42539	0.89018
877.49683	0.90315
875.56826	0.91510
873.63970	0.92587
871.71113	0.93600
869.78257	0.94641
867.85400	0.95823
865.92544	0.97036
863.99687	0.98151
862.06831	0.99322
860.13975	1.00601
858.21118	1.01734
856.28262	1.02711
854.35405	1.03855
852.42549	1.05186
850.49692	1.06502
848.56836	1.07744
846.63979	1.08831
844.71123	1.09829
842.78267	1.10915
840.85410	1.12231
838.92554	1.13753
836.99697	1.14977
835.06841	1.15717
833.13984	1.16638
831.21128	1.18153
829.28271	1.19564
827.35415	1.20089
825.42559	1.20816
823.49702	1.22904
821.56846	1.25010
819.63989	1.25902
817.71133	1.26299
815.78276	1.27167
813.85420	1.29187
811.92563	1.32225
809.99707	1.35337
808.06851	1.37522
806.13994	1.38421
804.21138	1.39301
802.28281	1.40765
800.35425	1.41209
798.42568	1.41584
796.49712	1.44826
794.56855	1.49667
792.63999	1.51101
790.71143	1.49824
788.78286	1.47606
786.85430	1.41870
784.92573	1.36611
782.99717	1.34343
781.06860	1.33667
779.14004	1.36905
777.21147	1.47945
775.28291	1.59767
773.35435	1.57396
771.42578	1.51755
769.49722	1.48042
767.56865	1.45944
765.64009	1.50103
763.71152	1.58279
761.78296	1.57211
759.85439	1.49651
757.92583	1.52807
755.99727	1.69044
754.06870	1.52460
752.14014	1.27190
750.21157	1.22536
748.28301	1.31901
746.35444	1.36099
744.42588	1.31274
742.49731	1.31482
740.56875	1.49221
738.64019	1.70971
736.71162	1.23782
734.78306	1.01567
732.85449	1.06023
730.92593	1.09022
728.99736	0.75843
727.06880	0.55394
725.14023	0.54645
723.21167	0.47167
721.28311	0.21886
719.35454	0.11038
717.42598	0.09809
715.49741	0.15410
713.56885	0.23108
711.64028	0.08623
709.71172	-0.08827
707.78315	-0.01891
705.85459	0.20274
703.92603	0.28202
701.99746	0.27869
700.06890	0.35404
698.14033	0.39185
696.21177	0.29715
694.28320	0.24444
692.35464	0.28749
690.42607	0.45980
688.49751	0.68363
686.56895	0.62553
684.64038	0.51542
682.71182	0.48749
680.78325	0.47870
678.85469	0.46123
676.92612	0.47031
674.99756	0.54491
673.06899	0.68306
671.14043	0.78396
669.21187	0.71270
667.28330	0.61749
665.35474	0.56986
663.42617	0.49618
661.49761	0.44362
659.56904	0.43033
657.64048	0.37044
655.71191	0.25875
653.78335	0.20481
651.85479	0.29627
649.92622	0.61134
647.99766	3.88799
646.06909	3.87641
644.14053	0.64835
642.21196	0.38279
640.28340	0.31741
638.35483	0.31840
636.42627	0.33006
634.49771	0.39709
632.56914	0.46027
630.64058	0.46108
628.71201	0.41795
626.78345	0.33984
624.85488	0.32242
622.92632	0.40508
620.99775	0.47441
619.06919	0.40792
617.14062	0.36026
615.21206	0.41899
613.28350	0.53746
611.35493	0.53714
609.42637	0.38741
607.49780	0.28764
605.56924	0.28098
603.64067	0.31451
601.71211	0.34476
599.78354	0.30486
597.85498	0.20270
595.92642	0.13951
593.99785	0.16227
592.06929	0.23920
590.14072	0.26090
588.21216	0.22432
586.28359	0.26651
584.35503	0.44039
582.42646	0.52500
580.49790	0.38818
578.56934	0.30090
576.64077	0.24582
574.71221	0.23254
572.78364	0.28030
570.85508	0.33153
568.92651	0.31730
566.99795	0.27250
565.06938	0.29887
563.14082	0.40324
561.21226	0.45364
559.28369	0.45241
557.35513	0.46993
555.42656	0.41285
553.49800	0.35356
551.56943	0.33831
549.64087	0.31204
547.71230	0.26490
545.78374	0.24201
543.85518	0.30660
541.92661	0.46254
539.99805	0.47126
538.06948	0.37369
536.14092	0.37709
534.21235	0.42376
532.28379	0.40509
530.35522	0.31701
528.42666	0.23055
526.49810	0.20636
524.56953	0.25785
522.64097	0.33430
520.71240	0.31333
518.78384	0.26696
516.85527	0.30693
514.92671	0.41165
512.99814	0.45951
511.06958	0.39030
509.14102	0.30344
507.21245	0.23672
505.28389	0.19180
503.35532	0.20490
501.42676	0.31364
499.49819	0.43630
