3997.91411	0.06906
3995.98555	0.06947
3994.05698	0.06961
3992.12842	0.06965
3990.19985	0.07029
3988.27129	0.07114
3986.34272	0.07166
3984.41416	0.07190
3982.48560	0.07194
3980.55703	0.07194
3978.62847	0.07212
3976.69990	0.07243
3974.77134	0.07280
3972.84277	0.07318
3970.91421	0.07337
3968.98564	0.07348
3967.05708	0.07364
3965.12852	0.07369
3963.19995	0.07380
3961.27139	0.07403
3959.34282	0.07394
3957.41426	0.07374
3955.48569	0.07391
3953.55713	0.07421
3951.62856	0.07460
3949.70000	0.07540
3947.77144	0.07616
3945.84287	0.07613
3943.91431	0.07578
3941.98574	0.07544
3940.05718	0.07471
3938.12861	0.07400
3936.20005	0.07378
3934.27148	0.07413
3932.34292	0.07525
3930.41436	0.07642
3928.48579	0.07633
3926.55723	0.07590
3924.62866	0.07652
3922.70010	0.07685
3920.77153	0.07606
3918.84297	0.07558
3916.91440	0.07575
3914.98584	0.07542
3913.05728	0.07446
3911.12871	0.07379
3909.20015	0.07354
3907.27158	0.07375
3905.34302	0.07526
3903.41445	0.07783
3901.48589	0.07934
3899.55732	0.07906
3897.62876	0.07761
3895.70020	0.07561
3893.77163	0.07488
3891.84307	0.07628
3889.91450	0.07768
3887.98594	0.07716
3886.05737	0.07685
3884.12881	0.07760
3882.20024	0.07812
3880.27168	0.07846
3878.34312	0.07782
3876.41455	0.07655
3874.48599	0.07701
3872.55742	0.07884
3870.62886	0.08052
3868.70029	0.08147
3866.77173	0.08096
3864.84316	0.08085
3862.91460	0.08164
3860.98604	0.08097
3859.05747	0.07947
3857.12891	0.07955
3855.20034	0.08211
3853.27178	0.08694
3851.34321	0.08916
3849.41465	0.08590
3847.48608	0.08264
3845.55752	0.08172
3843.62896	0.08329
3841.70039	0.08609
3839.77183	0.08892
3837.84326	0.09118
3835.91470	0.09104
3833.98613	0.08908
3832.05757	0.08766
3830.12900	0.08733
3828.20044	0.08793
3826.27187	0.08905
3824.34331	0.08998
3822.41475	0.09149
3820.48618	0.09475
3818.55762	0.09660
3816.62905	0.09636
3814.70049	0.09589
3812.77192	0.09457
3810.84336	0.09368
3808.91479	0.09473
3806.98623	0.09778
3805.05767	0.10056
3803.12910	0.10206
3801.20054	0.10453
3799.27197	0.10625
3797.34341	0.10578
3795.41484	0.10540
3793.48628	0.10502
3791.55771	0.10475
3789.62915	0.10534
3787.70059	0.10671
3785.77202	0.10882
3783.84346	0.11127
3781.91489	0.11288
3779.98633	0.11427
3778.05776	0.11619
3776.12920	0.11714
3774.20063	0.11749
3772.27207	0.11905
3770.34351	0.12231
3768.41494	0.12586
3766.48638	0.12793
3764.55781	0.12923
3762.62925	0.13023
3760.70068	0.13181
3758.77212	0.13516
3756.84355	0.13899
3754.91499	0.14193
3752.98643	0.14560
3751.05786	0.15168
3749.12930	0.15779
3747.20073	0.16020
3745.27217	0.16249
3743.34360	0.16720
3741.41504	0.17115
3739.48647	0.17425
3737.55791	0.17963
3735.62935	0.18886
3733.70078	0.19903
3731.77222	0.20466
3729.84365	0.20791
3727.91509	0.21208
3725.98652	0.21799
3724.05796	0.22419
3722.12939	0.22892
3720.20083	0.23234
3718.27227	0.23501
3716.34370	0.23818
3714.41514	0.24353
3712.48657	0.25419
3710.55801	0.27225
3708.62944	0.28960
3706.70088	0.30052
3704.77231	0.31053
3702.84375	0.32351
3700.91519	0.34044
3698.98662	0.35809
3697.05806	0.37436
3695.12949	0.39172
3693.20093	0.41063
3691.27236	0.43216
3689.34380	0.46020
3687.41523	0.49265
3685.48667	0.51945
3683.55811	0.54307
3681.62954	0.57024
3679.70098	0.60210
3677.77241	0.63608
3675.84385	0.67636
3673.91528	0.72906
3671.98672	0.77092
3670.05815	0.80874
3668.12959	0.86104
3666.20103	0.90731
3664.27246	0.94539
3662.34390	0.98770
3660.41533	1.03493
3658.48677	1.08187
3656.55820	1.13169
3654.62964	1.18699
3652.70107	1.23311
3650.77251	1.27419
3648.84395	1.33261
3646.91538	1.40253
3644.98682	1.45131
3643.05825	1.48822
3641.12969	1.52717
3639.20112	1.57155
3637.27256	1.61717
3635.34399	1.66174
3633.41543	1.70630
3631.48687	1.74841
3629.55830	1.79186
3627.62974	1.84770
3625.70117	1.89711
3623.77261	1.92966
3621.84404	1.96181
3619.91548	1.99925
3617.98691	2.04462
3616.05835	2.08812
3614.12979	2.12391
3612.20122	2.16157
3610.27266	2.20040
3608.34409	2.24131
3606.41553	2.28568
3604.48696	2.32587
3602.55840	2.36162
3600.62983	2.40067
3598.70127	2.44143
3596.77271	2.47929
3594.84414	2.51915
3592.91558	2.56128
3590.98701	2.59841
3589.05845	2.63276
3587.12988	2.67758
3585.20132	2.72777
3583.27275	2.76776
3581.34419	2.80382
3579.41562	2.84337
3577.48706	2.88528
3575.55850	2.92697
3573.62993	2.96959
3571.70137	3.01171
3569.77280	3.05287
3567.84424	3.09804
3565.91567	3.15350
3563.98711	3.20416
3562.05854	3.24099
3560.12998	3.27782
3558.20142	3.32101
3556.27285	3.36732
3554.34429	3.41388
3552.41572	3.46329
3550.48716	3.51226
3548.55859	3.55616
3546.63003	3.59946
3544.70146	3.64720
3542.77290	3.69592
3540.84434	3.74247
3538.91577	3.78763
3536.98721	3.83192
3535.05864	3.88040
3533.13008	3.93207
3531.20151	3.98215
3529.27295	4.03123
3527.34438	4.07990
3525.41582	4.12719
3523.48726	4.17650
3521.55869	4.22731
3519.63013	4.27253
3517.70156	4.31532
3515.77300	4.36185
3513.84443	4.41237
3511.91587	4.46506
3509.98730	4.51955
3508.05874	4.57448
3506.13018	4.62424
3504.20161	4.66618
3502.27305	4.70572
3500.34448	4.75047
3498.41592	4.80247
3496.48735	4.85841
3494.55879	4.91222
3492.63022	4.95977
3490.70166	5.00199
3488.77310	5.04364
3486.84453	5.08765
3484.91597	5.13590
3482.98740	5.18799
3481.05884	5.23905
3479.13027	5.28525
3477.20171	5.33031
3475.27314	5.38137
3473.34458	5.43796
3471.41602	5.49376
3469.48745	5.54568
3467.55889	5.59383
3465.63032	5.63704
3463.70176	5.67619
3461.77319	5.71861
3459.84463	5.77333
3457.91606	5.83459
3455.98750	5.89570
3454.05894	5.94969
3452.13037	5.98925
3450.20181	6.03107
3448.27324	6.08283
3446.34468	6.12987
3444.41611	6.17191
3442.48755	6.22876
3440.55898	6.29720
3438.63042	6.35953
3436.70186	6.40573
3434.77329	6.44017
3432.84473	6.48663
3430.91616	6.54512
3428.98760	6.59125
3427.05903	6.62630
3425.13047	6.68232
3423.20190	6.75319
3421.27334	6.81712
3419.34478	6.88205
3417.41621	6.94577
3415.48765	6.99438
3413.55908	7.02773
3411.63052	7.04474
3409.70195	7.05032
3407.77339	7.09488
3405.84482	7.18123
3403.91626	7.25145
3401.98770	7.27372
3400.05913	7.27944
3398.13057	7.31771
3396.20200	7.38921
3394.27344	7.46045
3392.34487	7.50311
3390.41631	7.55013
3388.48774	7.63043
3386.55918	7.71525
3384.63062	7.74182
3382.70205	7.72094
3380.77349	7.70444
3378.84492	7.71411
3376.91636	7.76975
3374.98779	7.81567
3373.05923	7.83975
3371.13066	7.90019
3369.20210	7.98887
3367.27354	8.02448
3365.34497	8.02510
3363.41641	8.06512
3361.48784	8.08869
3359.55928	8.05896
3357.63071	8.01480
3355.70215	7.99659
3353.77358	8.00996
3351.84502	8.02597
3349.91646	8.03613
3347.98789	8.06980
3346.05933	8.09274
3344.13076	8.07274
3342.20220	8.05285
3340.27363	8.06238
3338.34507	8.11949
3336.41650	8.20767
3334.48794	8.25854
3332.55937	8.20046
3330.63081	8.15977
3328.70225	8.21873
3326.77368	8.25885
3324.84512	8.26874
3322.91655	8.28499
3320.98799	8.23210
3319.05942	8.13646
3317.13086	8.14130
3315.20229	8.23799
3313.27373	8.31937
3311.34517	8.32460
3309.41660	8.30662
3307.48804	8.33653
3305.55947	8.35835
3303.63091	8.35400
3301.70234	8.37243
3299.77378	8.44289
3297.84521	8.53423
3295.91665	8.58040
3293.98809	8.53233
3292.05952	8.42292
3290.13096	8.32150
3288.20239	8.26192
3286.27383	8.26523
3284.34526	8.30866
3282.41670	8.36215
3280.48813	8.40995
3278.55957	8.47370
3276.63101	8.53027
3274.70244	8.53550
3272.77388	8.52971
3270.84531	8.52275
3268.91675	8.49354
3266.98818	8.46192
3265.05962	8.46451
3263.13105	8.47122
3261.20249	8.43762
3259.27393	8.38334
3257.34536	8.36601
3255.41680	8.38811
3253.48823	8.41308
3251.55967	8.40016
3249.63110	8.32395
3247.70254	8.28311
3245.77397	8.31754
3243.84541	8.37002
3241.91685	8.48696
3239.98828	8.60980
3238.05972	8.55039
3236.13115	8.42300
3234.20259	8.32908
3232.27402	8.25489
3230.34546	8.24498
3228.41689	8.27879
3226.48833	8.35380
3224.55977	8.42227
3222.63120	8.36430
3220.70264	8.25603
3218.77407	8.20049
3216.84551	8.19608
3214.91694	8.25988
3212.98838	8.34880
3211.05981	8.37358
3209.13125	8.31815
3207.20269	8.16093
3205.27412	8.01494
3203.34556	8.01958
3201.41699	8.09812
3199.48843	8.10108
3197.55986	8.02574
3195.63130	7.94777
3193.70273	7.88277
3191.77417	7.81735
3189.84561	7.78931
3187.91704	7.79327
3185.98848	7.77769
3184.05991	7.72256
3182.13135	7.61806
3180.20278	7.48669
3178.27422	7.37312
3176.34565	7.30550
3174.41709	7.25801
3172.48853	7.20663
3170.55996	7.16585
3168.63140	7.11289
3166.70283	7.03448
3164.77427	6.96728
3162.84570	6.91035
3160.91714	6.84492
3158.98857	6.79166
3157.06001	6.73280
3155.13145	6.64801
3153.20288	6.57500
3151.27432	6.51412
3149.34575	6.44242
3147.41719	6.38320
3145.48862	6.34437
3143.56006	6.28493
3141.63149	6.18939
3139.70293	6.09215
3137.77437	6.01941
3135.84580	5.94847
3133.91724	5.85707
3131.98867	5.76722
3130.06011	5.69459
3128.13154	5.62825
3126.20298	5.55921
3124.27441	5.48950
3122.34585	5.41728
3120.41729	5.34071
3118.48872	5.26869
3116.56016	5.19906
3114.63159	5.12069
3112.70303	5.04494
3110.77446	4.98282
3108.84590	4.92095
3106.91733	4.85378
3104.98877	4.78715
3103.06021	4.71879
3101.13164	4.64654
3099.20308	4.57383
3097.27451	4.50194
3095.34595	4.43125
3093.41738	4.36522
3091.48882	4.30230
3089.56025	4.23731
3087.63169	4.17041
3085.70312	4.10515
3083.77456	4.04225
3081.84600	3.97883
3079.91743	3.91480
3077.98887	3.85282
3076.06030	3.79145
3074.13174	3.72974
3072.20317	3.67127
3070.27461	3.61607
3068.34604	3.55979
3066.41748	3.50164
3064.48892	3.44350
3062.56035	3.38630
3060.63179	3.33093
3058.70322	3.27668
3056.77466	3.22237
3054.84609	3.16815
3052.91753	3.11383
3050.98896	3.06013
3049.06040	3.00841
3047.13184	2.95784
3045.20327	2.90707
3043.27471	2.85700
3041.34614	2.80820
3039.41758	2.76030
3037.48901	2.71320
3035.56045	2.66598
3033.63188	2.61870
3031.70332	2.57298
3029.77476	2.52873
3027.84619	2.48516
3025.91763	2.44213
3023.98906	2.39950
3022.06050	2.35780
3020.13193	2.31715
3018.20337	2.27648
3016.27480	2.23557
3014.34624	2.19534
3012.41768	2.15640
3010.48911	2.11849
3008.56055	2.08121
3006.63198	2.04449
3004.70342	2.00869
3002.77485	1.97342
3000.84629	1.93814
2998.91772	1.90385
2996.98916	1.87078
2995.06060	1.83791
2993.13203	1.80520
2991.20347	1.77281
2989.27490	1.74095
2987.34634	1.71037
2985.41777	1.68080
2983.48921	1.65129
2981.56064	1.62185
2979.63208	1.59283
2977.70352	1.56427
2975.77495	1.53623
2973.84639	1.50891
2971.91782	1.48232
2969.98926	1.45622
2968.06069	1.43053
2966.13213	1.40485
2964.20356	1.37905
2962.27500	1.35401
2960.34644	1.32993
2958.41787	1.30630
2956.48931	1.28316
2954.56074	1.26027
2952.63218	1.23734
2950.70361	1.21503
2948.77505	1.19357
2946.84648	1.17212
2944.91792	1.15040
2942.98936	1.12932
2941.06079	1.10925
2939.13223	1.08936
2937.20366	1.06936
2935.27510	1.04956
2933.34653	1.02989
2931.41797	1.01043
2929.48940	0.99183
2927.56084	0.97422
2925.63228	0.95696
2923.70371	0.94018
2921.77515	0.92405
2919.84658	0.90796
2917.91802	0.89176
2915.98945	0.87602
2914.06089	0.86102
2912.13232	0.84622
2910.20376	0.83109
2908.27520	0.81605
2906.34663	0.80153
2904.41807	0.78729
2902.48950	0.77346
2900.56094	0.76055
2898.63237	0.74823
2896.70381	0.73587
2894.77524	0.72342
2892.84668	0.71131
2890.91812	0.69985
2888.98955	0.68891
2887.06099	0.67793
2885.13242	0.66658
2883.20386	0.65533
2881.27529	0.64472
2879.34673	0.63454
2877.41816	0.62431
2875.48960	0.61405
2873.56104	0.60391
2871.63247	0.59376
2869.70391	0.58338
2867.77534	0.57302
2865.84678	0.56295
2863.91821	0.55287
2861.98965	0.54248
2860.06108	0.53207
2858.13252	0.52210
2856.20396	0.51286
2854.27539	0.50441
2852.34683	0.49644
2850.41826	0.48868
2848.48970	0.48100
2846.56113	0.47328
2844.63257	0.46578
2842.70400	0.45878
2840.77544	0.45215
2838.84687	0.44590
2836.91831	0.43994
2834.98975	0.43393
2833.06118	0.42775
2831.13262	0.42148
2829.20405	0.41531
2827.27549	0.40950
2825.34692	0.40397
2823.41836	0.39841
2821.48979	0.39257
2819.56123	0.38659
2817.63267	0.38080
2815.70410	0.37523
2813.77554	0.36977
2811.84697	0.36442
2809.91841	0.35900
2807.98984	0.35334
2806.06128	0.34801
2804.13271	0.34321
2802.20415	0.33840
2800.27559	0.33355
2798.34702	0.32885
2796.41846	0.32423
2794.48989	0.31974
2792.56133	0.31538
2790.63276	0.31104
2788.70420	0.30677
2786.77563	0.30258
2784.84707	0.29845
2782.91851	0.29435
2780.98994	0.29023
2779.06138	0.28605
2777.13281	0.28208
2775.20425	0.27857
2773.27568	0.27521
2771.34712	0.27178
2769.41855	0.26833
2767.48999	0.26484
2765.56143	0.26135
2763.63286	0.25806
2761.70430	0.25488
2759.77573	0.25168
2757.84717	0.24856
2755.91860	0.24553
2753.99004	0.24254
2752.06147	0.23966
2750.13291	0.23697
2748.20435	0.23436
2746.27578	0.23172
2744.34722	0.22910
2742.41865	0.22656
2740.49009	0.22402
2738.56152	0.22154
2736.63296	0.21918
2734.70439	0.21680
2732.77583	0.21443
2730.84727	0.21230
2728.91870	0.21034
2726.99014	0.20840
2725.06157	0.20630
2723.13301	0.20409
2721.20444	0.20211
2719.27588	0.20025
2717.34731	0.19830
2715.41875	0.19645
2713.49019	0.19470
2711.56162	0.19288
2709.63306	0.19101
2707.70449	0.18931
2705.77593	0.18783
2703.84736	0.18631
2701.91880	0.18471
2699.99023	0.18322
2698.06167	0.18165
2696.13311	0.18006
2694.20454	0.17875
2692.27598	0.17757
2690.34741	0.17624
2688.41885	0.17490
2686.49028	0.17368
2684.56172	0.17246
2682.63315	0.17119
2680.70459	0.17002
2678.77603	0.16891
2676.84746	0.16772
2674.91890	0.16657
2672.99033	0.16561
2671.06177	0.16475
2669.13320	0.16379
2667.20464	0.16272
2665.27607	0.16163
2663.34751	0.16065
2661.41895	0.15986
2659.49038	0.15915
2657.56182	0.15836
2655.63325	0.15761
2653.70469	0.15701
2651.77612	0.15638
2649.84756	0.15572
2647.91899	0.15508
2645.99043	0.15441
2644.06187	0.15376
2642.13330	0.15319
2640.20474	0.15261
2638.27617	0.15201
2636.34761	0.15147
2634.41904	0.15093
2632.49048	0.15047
2630.56191	0.15021
2628.63335	0.14995
2626.70479	0.14957
2624.77622	0.14931
2622.84766	0.14923
2620.91909	0.14906
2618.99053	0.14872
2617.06196	0.14836
2615.13340	0.14815
2613.20483	0.14807
2611.27627	0.14796
2609.34771	0.14785
2607.41914	0.14780
2605.49058	0.14781
2603.56201	0.14788
2601.63345	0.14795
2599.70488	0.14798
2597.77632	0.14795
2595.84775	0.14785
2593.91919	0.14782
2591.99062	0.14803
2590.06206	0.14834
2588.13350	0.14859
2586.20493	0.14884
2584.27637	0.14911
2582.34780	0.14936
2580.41924	0.14962
2578.49067	0.14992
2576.56211	0.15023
2574.63354	0.15048
2572.70498	0.15077
2570.77642	0.15119
2568.84785	0.15165
2566.91929	0.15202
2564.99072	0.15237
2563.06216	0.15284
2561.13359	0.15335
2559.20503	0.15375
2557.27646	0.15411
2555.34790	0.15459
2553.41934	0.15528
2551.49077	0.15602
2549.56221	0.15663
2547.63364	0.15708
2545.70508	0.15748
2543.77651	0.15799
2541.84795	0.15870
2539.91938	0.15953
2537.99082	0.16032
2536.06226	0.16094
2534.13369	0.16147
2532.20513	0.16213
2530.27656	0.16289
2528.34800	0.16369
2526.41943	0.16447
2524.49087	0.16516
2522.56230	0.16580
2520.63374	0.16657
2518.70518	0.16748
2516.77661	0.16832
2514.84805	0.16898
2512.91948	0.16959
2510.99092	0.17032
2509.06235	0.17120
2507.13379	0.17211
2505.20522	0.17298
2503.27666	0.17391
2501.34810	0.17495
2499.41953	0.17587
2497.49097	0.17663
2495.56240	0.17739
2493.63384	0.17823
2491.70527	0.17909
2489.77671	0.17991
2487.84814	0.18069
2485.91958	0.18145
2483.99102	0.18230
2482.06245	0.18335
2480.13389	0.18443
2478.20532	0.18540
2476.27676	0.18635
2474.34819	0.18728
2472.41963	0.18812
2470.49106	0.18897
2468.56250	0.18981
2466.63394	0.19056
2464.70537	0.19135
2462.77681	0.19227
2460.84824	0.19325
2458.91968	0.19427
2456.99111	0.19536
2455.06255	0.19643
2453.13398	0.19734
2451.20542	0.19818
2449.27686	0.19911
2447.34829	0.20013
2445.41973	0.20122
2443.49116	0.20241
2441.56260	0.20349
2439.63403	0.20442
2437.70547	0.20537
2435.77690	0.20638
2433.84834	0.20736
2431.91978	0.20839
2429.99121	0.20951
2428.06265	0.21062
2426.13408	0.21171
2424.20552	0.21276
2422.27695	0.21381
2420.34839	0.21492
2418.41982	0.21611
2416.49126	0.21728
2414.56270	0.21837
2412.63413	0.21950
2410.70557	0.22072
2408.77700	0.22190
2406.84844	0.22301
2404.91987	0.22419
2402.99131	0.22556
2401.06274	0.22701
2399.13418	0.22837
2397.20562	0.22961
2395.27705	0.23068
2393.34849	0.23175
2391.41992	0.23313
2389.49136	0.23504
2387.56279	0.23784
2385.63423	0.24229
2383.70566	0.24943
2381.77710	0.25983
2379.84854	0.27297
2377.91997	0.28803
2375.99141	0.30510
2374.06284	0.32492
2372.13428	0.34745
2370.20571	0.37151
2368.27715	0.39629
2366.34858	0.42105
2364.42002	0.44278
2362.49146	0.45852
2360.56289	0.46729
2358.63433	0.46794
2356.70576	0.45882
2354.77720	0.44018
2352.84863	0.41539
2350.92007	0.38946
2348.99150	0.37303
2347.06294	0.37338
2345.13437	0.39074
2343.20581	0.41378
2341.27725	0.42537
2339.34868	0.42593
2337.42012	0.42394
2335.49155	0.42214
2333.56299	0.41968
2331.63442	0.41717
2329.70586	0.41414
2327.77729	0.40929
2325.84873	0.40263
2323.92017	0.39534
2321.99160	0.38793
2320.06304	0.37973
2318.13447	0.37082
2316.20591	0.36273
2314.27734	0.35717
2312.34878	0.35412
2310.42021	0.35151
2308.49165	0.34766
2306.56309	0.34280
2304.63452	0.33830
2302.70596	0.33539
2300.77739	0.33386
2298.84883	0.33268
2296.92026	0.33163
2294.99170	0.33089
2293.06313	0.33021
2291.13457	0.32937
2289.20601	0.32860
2287.27744	0.32812
2285.34888	0.32789
2283.42031	0.32821
2281.49175	0.32964
2279.56318	0.33208
2277.63462	0.33483
2275.70605	0.33749
2273.77749	0.33995
2271.84893	0.34223
2269.92036	0.34431
2267.99180	0.34620
2266.06323	0.34796
2264.13467	0.34964
2262.20610	0.35125
2260.27754	0.35290
2258.34897	0.35467
2256.42041	0.35642
2254.49185	0.35806
2252.56328	0.35975
2250.63472	0.36160
2248.70615	0.36348
2246.77759	0.36533
2244.84902	0.36713
2242.92046	0.36891
2240.99189	0.37086
2239.06333	0.37307
2237.13477	0.37532
2235.20620	0.37749
2233.27764	0.37964
2231.34907	0.38178
2229.42051	0.38398
2227.49194	0.38621
2225.56338	0.38847
2223.63481	0.39071
2221.70625	0.39294
2219.77769	0.39516
2217.84912	0.39739
2215.92056	0.39959
2213.99199	0.40177
2212.06343	0.40396
2210.13486	0.40601
2208.20630	0.40796
2206.27773	0.41011
2204.34917	0.41238
2202.42061	0.41448
2200.49204	0.41646
2198.56348	0.41852
2196.63491	0.42057
2194.70635	0.42250
2192.77778	0.42439
2190.84922	0.42635
2188.92065	0.42826
2186.99209	0.43008
2185.06353	0.43183
2183.13496	0.43352
2181.20640	0.43520
2179.27783	0.43683
2177.34927	0.43840
2175.42070	0.43990
2173.49214	0.44132
2171.56357	0.44273
2169.63501	0.44419
2167.70645	0.44562
2165.77788	0.44688
2163.84932	0.44809
2161.92075	0.44931
2159.99219	0.45048
2158.06362	0.45149
2156.13506	0.45238
2154.20649	0.45322
2152.27793	0.45406
2150.34937	0.45483
2148.42080	0.45561
2146.49224	0.45642
2144.56367	0.45703
2142.63511	0.45738
2140.70654	0.45768
2138.77798	0.45802
2136.84941	0.45823
2134.92085	0.45825
2132.99229	0.45818
2131.06372	0.45805
2129.13516	0.45777
2127.20659	0.45742
2125.27803	0.45724
2123.34946	0.45703
2121.42090	0.45656
2119.49233	0.45589
2117.56377	0.45519
2115.63521	0.45447
2113.70664	0.45363
2111.77808	0.45273
2109.84951	0.45185
2107.92095	0.45090
2105.99238	0.44983
2104.06382	0.44873
2102.13525	0.44754
2100.20669	0.44622
2098.27812	0.44474
2096.34956	0.44308
2094.42100	0.44146
2092.49243	0.43999
2090.56387	0.43847
2088.63530	0.43671
2086.70674	0.43482
2084.77817	0.43295
2082.84961	0.43107
2080.92104	0.42916
2078.99248	0.42724
2077.06392	0.42525
2075.13535	0.42312
2073.20679	0.42090
2071.27822	0.41864
2069.34966	0.41634
2067.42109	0.41404
2065.49253	0.41176
2063.56396	0.40938
2061.63540	0.40695
2059.70684	0.40452
2057.77827	0.40195
2055.84971	0.39926
2053.92114	0.39664
2051.99258	0.39411
2050.06401	0.39162
2048.13545	0.38915
2046.20688	0.38657
2044.27832	0.38393
2042.34976	0.38125
2040.42119	0.37845
2038.49263	0.37558
2036.56406	0.37278
2034.63550	0.37002
2032.70693	0.36723
2030.77837	0.36449
2028.84980	0.36173
2026.92124	0.35896
2024.99268	0.35620
2023.06411	0.35345
2021.13555	0.35070
2019.20698	0.34801
2017.27842	0.34534
2015.34985	0.34257
2013.42129	0.33978
2011.49272	0.33700
2009.56416	0.33424
2007.63560	0.33149
2005.70703	0.32876
2003.77847	0.32605
2001.84990	0.32339
1999.92134	0.32077
1997.99277	0.31811
1996.06421	0.31552
1994.13564	0.31322
1992.20708	0.31107
1990.27852	0.30863
1988.34995	0.30603
1986.42139	0.30344
1984.49282	0.30085
1982.56426	0.29840
1980.63569	0.29611
1978.70713	0.29387
1976.77856	0.29159
1974.85000	0.28929
1972.92144	0.28698
1970.99287	0.28481
1969.06431	0.28292
1967.13574	0.28117
1965.20718	0.27917
1963.27861	0.27700
1961.35005	0.27494
1959.42148	0.27304
1957.49292	0.27118
1955.56436	0.26931
1953.63579	0.26757
1951.70723	0.26596
1949.77866	0.26436
1947.85010	0.26282
1945.92153	0.26148
1943.99297	0.26032
1942.06440	0.25901
1940.13584	0.25725
1938.20728	0.25543
1936.27871	0.25387
1934.35015	0.25245
1932.42158	0.25118
1930.49302	0.25000
1928.56445	0.24885
1926.63589	0.24782
1924.70732	0.24712
1922.77876	0.24651
1920.85020	0.24556
1918.92163	0.24458
1916.99307	0.24373
1915.06450	0.24268
1913.13594	0.24162
1911.20737	0.24092
1909.27881	0.24047
1907.35024	0.23988
1905.42168	0.23899
1903.49312	0.23812
1901.56455	0.23749
1899.63599	0.23703
1897.70742	0.23673
1895.77886	0.23653
1893.85029	0.23619
1891.92173	0.23570
1889.99316	0.23549
1888.06460	0.23534
1886.13604	0.23497
1884.20747	0.23454
1882.27891	0.23414
1880.35034	0.23390
1878.42178	0.23384
1876.49321	0.23392
1874.56465	0.23401
1872.63608	0.23419
1870.70752	0.23479
1868.77896	0.23587
1866.85039	0.23627
1864.92183	0.23572
1862.99326	0.23534
1861.06470	0.23542
1859.13613	0.23581
1857.20757	0.23627
1855.27900	0.23669
1853.35044	0.23704
1851.42187	0.23755
1849.49331	0.23831
1847.56475	0.23929
1845.63618	0.24052
1843.70762	0.24177
1841.77905	0.24227
1839.85049	0.24231
1837.92192	0.24294
1835.99336	0.24391
1834.06479	0.24487
1832.13623	0.24606
1830.20767	0.24786
1828.27910	0.24952
1826.35054	0.25052
1824.42197	0.25167
1822.49341	0.25262
1820.56484	0.25347
1818.63628	0.25477
1816.70771	0.25655
1814.77915	0.25829
1812.85059	0.26009
1810.92202	0.26226
1808.99346	0.26436
1807.06489	0.26612
1805.13633	0.26789
1803.20776	0.27025
1801.27920	0.27311
1799.35063	0.27605
1797.42207	0.27845
1795.49351	0.28085
1793.56494	0.28401
1791.63638	0.28805
1789.70781	0.29130
1787.77925	0.29345
1785.85068	0.29635
1783.92212	0.30005
1781.99355	0.30409
1780.06499	0.30835
1778.13643	0.31265
1776.20786	0.31680
1774.27930	0.32151
1772.35073	0.32793
1770.42217	0.33432
1768.49360	0.33909
1766.56504	0.34375
1764.63647	0.34885
1762.70791	0.35484
1760.77935	0.36247
1758.85078	0.36943
1756.92222	0.37638
1754.99365	0.38396
1753.06509	0.39098
1751.13652	0.39982
1749.20796	0.41104
1747.27939	0.42157
1745.35083	0.43053
1743.42227	0.44012
1741.49370	0.45074
1739.56514	0.46321
1737.63657	0.47574
1735.70801	0.48712
1733.77944	0.50434
1731.85088	0.52381
1729.92231	0.53850
1727.99375	0.55364
1726.06519	0.57029
1724.13662	0.58878
1722.20806	0.60886
1720.27949	0.62761
1718.35093	0.65002
1716.42236	0.68283
1714.49380	0.71315
1712.56523	0.73725
1710.63667	0.76075
1708.70811	0.78635
1706.77954	0.81585
1704.85098	0.85121
1702.92241	0.88263
1700.99385	0.91375
1699.06528	0.95985
1697.13672	1.00154
1695.20815	1.04348
1693.27959	1.08419
1691.35103	1.11737
1689.42246	1.15604
1687.49390	1.19681
1685.56533	1.23642
1683.63677	1.29742
1681.70820	1.35948
1679.77964	1.39844
1677.85107	1.43586
1675.92251	1.47979
1673.99395	1.53438
1672.06538	1.58258
1670.13682	1.62951
1668.20825	1.68907
1666.27969	1.73664
1664.35112	1.77770
1662.42256	1.82894
1660.49399	1.88487
1658.56543	1.92726
1656.63687	1.96191
1654.70830	1.99637
1652.77974	2.05562
1650.85117	2.11082
1648.92261	2.12956
1646.99404	2.15543
1645.06548	2.18685
1643.13691	2.20713
1641.20835	2.21874
1639.27979	2.22964
1637.35122	2.23813
1635.42266	2.24334
1633.49409	2.24010
1631.56553	2.22771
1629.63696	2.21203
1627.70840	2.18630
1625.77983	2.15677
1623.85127	2.12015
1621.92271	2.07308
1619.99414	2.02936
1618.06558	1.98771
1616.13701	1.92883
1614.20845	1.86660
1612.27988	1.81890
1610.35132	1.77012
1608.42275	1.71713
1606.49419	1.66453
1604.56562	1.61612
1602.63706	1.56954
1600.70850	1.52434
1598.77993	1.48278
1596.85137	1.44315
1594.92280	1.40403
1592.99424	1.36587
1591.06567	1.33055
1589.13711	1.29683
1587.20854	1.26482
1585.27998	1.23504
1583.35142	1.20717
1581.42285	1.18143
1579.49429	1.15914
1577.56572	1.13907
1575.63716	1.11413
1573.70859	1.09107
1571.78003	1.07548
1569.85146	1.05911
1567.92290	1.04051
1565.99434	1.02583
1564.06577	1.01365
1562.13721	1.00391
1560.20864	0.99724
1558.28008	0.98627
1556.35151	0.97322
1554.42295	0.96421
1552.49438	0.95593
1550.56582	0.94791
1548.63726	0.93938
1546.70869	0.93087
1544.78013	0.92215
1542.85156	0.91287
1540.92300	0.90171
1538.99443	0.88344
1537.06587	0.86805
1535.13730	0.85808
1533.20874	0.84650
1531.28018	0.83389
1529.35161	0.82462
1527.42305	0.81640
1525.49448	0.80776
1523.56592	0.79999
1521.63735	0.79228
1519.70879	0.78342
1517.78022	0.77569
1515.85166	0.76786
1513.92310	0.75997
1511.99453	0.75342
1510.06597	0.74815
1508.13740	0.74388
1506.20884	0.73609
1504.28027	0.72705
1502.35171	0.72156
1500.42314	0.71751
1498.49458	0.71378
1496.56602	0.70938
1494.63745	0.70465
1492.70889	0.70112
1490.78032	0.69885
1488.85176	0.69636
1486.92319	0.69298
1484.99463	0.68964
1483.06606	0.68704
1481.13750	0.68522
1479.20894	0.68395
1477.28037	0.68320
1475.35181	0.68291
1473.42324	0.68258
1471.49468	0.68096
1469.56611	0.67822
1467.63755	0.67594
1465.70898	0.67442
1463.78042	0.67274
1461.85186	0.67068
1459.92329	0.66949
1457.99473	0.66953
1456.06616	0.66816
1454.13760	0.66395
1452.20903	0.65991
1450.28047	0.65657
1448.35190	0.65369
1446.42334	0.65084
1444.49478	0.64836
1442.56621	0.64633
1440.63765	0.64430
1438.70908	0.64239
1436.78052	0.64049
1434.85195	0.63811
1432.92339	0.63584
1430.99482	0.63422
1429.06626	0.63293
1427.13770	0.63174
1425.20913	0.63096
1423.28057	0.63055
1421.35200	0.63020
1419.42344	0.62987
1417.49487	0.62869
1415.56631	0.62636
1413.63774	0.62416
1411.70918	0.62250
1409.78062	0.62126
1407.85205	0.62034
1405.92349	0.61970
1403.99492	0.61891
1402.06636	0.61775
1400.13779	0.61646
1398.20923	0.61498
1396.28066	0.61335
1394.35210	0.61129
1392.42354	0.60859
1390.49497	0.60615
1388.56641	0.60425
1386.63784	0.60211
1384.70928	0.59949
1382.78071	0.59716
1380.85215	0.59538
1378.92358	0.59395
1376.99502	0.59290
1375.06646	0.59227
1373.13789	0.59160
1371.20933	0.59077
1369.28076	0.59013
1367.35220	0.58952
1365.42363	0.58880
1363.49507	0.58797
1361.56650	0.58663
1359.63794	0.58494
1357.70937	0.58353
1355.78081	0.58233
1353.85225	0.58111
1351.92368	0.57992
1349.99512	0.57880
1348.06655	0.57772
1346.13799	0.57667
1344.20942	0.57562
1342.28086	0.57467
1340.35229	0.57393
1338.42373	0.57301
1336.49517	0.57176
1334.56660	0.57060
1332.63804	0.56976
1330.70947	0.56917
1328.78091	0.56873
1326.85234	0.56840
1324.92378	0.56816
1322.99521	0.56804
1321.06665	0.56808
1319.13809	0.56807
1317.20952	0.56770
1315.28096	0.56694
1313.35239	0.56600
1311.42383	0.56494
1309.49526	0.56374
1307.56670	0.56259
1305.63813	0.56152
1303.70957	0.56035
1301.78101	0.55920
1299.85244	0.55819
1297.92388	0.55725
1295.99531	0.55635
1294.06675	0.55548
1292.13818	0.55466
1290.20962	0.55381
1288.28105	0.55285
1286.35249	0.55188
1284.42393	0.55106
1282.49536	0.55034
1280.56680	0.54955
1278.63823	0.54864
1276.70967	0.54773
1274.78110	0.54696
1272.85254	0.54640
1270.92397	0.54596
1268.99541	0.54544
1267.06685	0.54486
1265.13828	0.54428
1263.20972	0.54369
1261.28115	0.54320
1259.35259	0.54276
1257.42402	0.54226
1255.49546	0.54189
1253.56689	0.54162
1251.63833	0.54129
1249.70977	0.54094
1247.78120	0.54055
1245.85264	0.54004
1243.92407	0.53943
1241.99551	0.53877
1240.06694	0.53805
1238.13838	0.53727
1236.20981	0.53628
1234.28125	0.53497
1232.35269	0.53366
1230.42412	0.53254
1228.49556	0.53136
1226.56699	0.53004
1224.63843	0.52886
1222.70986	0.52781
1220.78130	0.52677
1218.85273	0.52579
1216.92417	0.52493
1214.99561	0.52406
1213.06704	0.52323
1211.13848	0.52252
1209.20991	0.52198
1207.28135	0.52152
1205.35278	0.52104
1203.42422	0.52056
1201.49565	0.51997
1199.56709	0.51913
1197.63853	0.51810
1195.70996	0.51709
1193.78140	0.51630
1191.85283	0.51580
1189.92427	0.51545
1187.99570	0.51513
1186.06714	0.51492
1184.13857	0.51484
1182.21001	0.51493
1180.28145	0.51526
1178.35288	0.51591
1176.42432	0.51698
1174.49575	0.51830
1172.56719	0.51950
1170.63862	0.52044
1168.71006	0.52131
1166.78149	0.52233
1164.85293	0.52358
1162.92437	0.52480
1160.99580	0.52568
1159.06724	0.52630
1157.13867	0.52669
1155.21011	0.52644
1153.28154	0.52534
1151.35298	0.52356
1149.42441	0.52137
1147.49585	0.51890
1145.56729	0.51612
1143.63872	0.51316
1141.71016	0.51041
1139.78159	0.50817
1137.85303	0.50652
1135.92446	0.50548
1133.99590	0.50480
1132.06733	0.50442
1130.13877	0.50434
1128.21021	0.50433
1126.28164	0.50410
1124.35308	0.50372
1122.42451	0.50347
1120.49595	0.50332
1118.56738	0.50332
1116.63882	0.50372
1114.71025	0.50438
1112.78169	0.50497
1110.85312	0.50562
1108.92456	0.50650
1106.99600	0.50750
1105.06743	0.50836
1103.13887	0.50901
1101.21030	0.50966
1099.28174	0.51061
1097.35317	0.51213
1095.42461	0.51446
1093.49604	0.51789
1091.56748	0.52302
1089.63892	0.53011
1087.71035	0.53869
1085.78179	0.54829
1083.85322	0.55819
1081.92466	0.56686
1079.99609	0.57281
1078.06753	0.57524
1076.13896	0.57424
1074.21040	0.57037
1072.28184	0.56441
1070.35327	0.55716
1068.42471	0.54952
1066.49614	0.54229
1064.56758	0.53591
1062.63901	0.53069
1060.71045	0.52657
1058.78188	0.52299
1056.85332	0.51947
1054.92476	0.51615
1052.99619	0.51350
1051.06763	0.51172
1049.13906	0.51089
1047.21050	0.51108
1045.28193	0.51202
1043.35337	0.51327
1041.42480	0.51455
1039.49624	0.51561
1037.56768	0.51629
1035.63911	0.51664
1033.71055	0.51642
1031.78198	0.51518
1029.85342	0.51295
1027.92485	0.51030
1025.99629	0.50787
1024.06772	0.50605
1022.13916	0.50474
1020.21060	0.50370
1018.28203	0.50297
1016.35347	0.50256
1014.42490	0.50219
1012.49634	0.50159
1010.56777	0.50091
1008.63921	0.50039
1006.71064	0.50023
1004.78208	0.50054
1002.85352	0.50149
1000.92495	0.50358
998.99639	0.50701
997.06782	0.51133
995.13926	0.51586
993.21069	0.52004
991.28213	0.52328
989.35356	0.52494
987.42500	0.52509
985.49644	0.52458
983.56787	0.52416
981.63931	0.52417
979.71074	0.52475
977.78218	0.52596
975.85361	0.52795
973.92505	0.53056
971.99648	0.53334
970.06792	0.53654
968.13936	0.54050
966.21079	0.54481
964.28223	0.54917
962.35366	0.55378
960.42510	0.55879
958.49653	0.56411
956.56797	0.56977
954.63940	0.57584
952.71084	0.58220
950.78228	0.58868
948.85371	0.59496
946.92515	0.60100
944.99658	0.60715
943.06802	0.61339
941.13945	0.61941
939.21089	0.62528
937.28232	0.63135
935.35376	0.63748
933.42520	0.64314
931.49663	0.64852
929.56807	0.65419
927.63950	0.66010
925.71094	0.66644
923.78237	0.67340
921.85381	0.68028
919.92524	0.68699
917.99668	0.69393
916.06812	0.70070
914.13955	0.70777
912.21099	0.71593
910.28242	0.72413
908.35386	0.73217
906.42529	0.74178
904.49673	0.75233
902.56816	0.76122
900.63960	0.76929
898.71104	0.77844
896.78247	0.78789
894.85391	0.79784
892.92534	0.80853
890.99678	0.81874
889.06821	0.82895
887.13965	0.83971
885.21108	0.85097
883.28252	0.86275
881.35396	0.87464
879.42539	0.88666
877.49683	0.89831
875.56826	0.91020
873.63970	0.92273
871.71113	0.93393
869.78257	0.94388
867.85400	0.95394
865.92544	0.96405
863.99687	0.97516
862.06831	0.98874
860.13975	1.00322
858.21118	1.01486
856.28262	1.02347
854.35405	1.03293
852.42549	1.04535
850.49692	1.05965
848.56836	1.07511
846.63979	1.09041
844.71123	1.10355
842.78267	1.11566
840.85410	1.12767
838.92554	1.13773
836.99697	1.14691
835.06841	1.15676
833.13984	1.16778
831.21128	1.18103
829.28271	1.19388
827.35415	1.20573
825.42559	1.21814
823.49702	1.23217
821.56846	1.24952
819.63989	1.26517
817.71133	1.27407
815.78276	1.27946
813.85420	1.28677
811.92563	1.30395
809.99707	1.33834
808.06851	1.38257
806.13994	1.40696
804.21138	1.39931
802.28281	1.39706
800.35425	1.41981
798.42568	1.44516
796.49712	1.45422
794.56855	1.45648
792.63999	1.46740
790.71143	1.51333
788.78286	1.64183
786.85430	1.85093
784.92573	1.94804
782.99717	1.81593
781.06860	1.63279
779.14004	1.52704
777.21147	1.48789
775.28291	1.43188
773.35435	1.36096
771.42578	1.32350
769.49722	1.31714
767.56865	1.28337
765.64009	1.25053
763.71152	1.23320
761.78296	1.22315
759.85439	1.21185
757.92583	1.18854
755.99727	1.14347
754.06870	1.10530
752.14014	1.10121
750.21157	1.11047
748.28301	1.09644
746.35444	1.03908
744.42588	0.98690
742.49731	0.97177
740.56875	0.92886
738.64019	0.85374
736.71162	0.77031
734.78306	0.64060
732.85449	0.52020
730.92593	0.47333
728.99736	0.46015
727.06880	0.42140
725.14023	0.38102
723.21167	0.35045
721.28311	0.30976
719.35454	0.27993
717.42598	0.25788
715.49741	0.19919
713.56885	0.14696
711.64028	0.11057
709.71172	0.05579
707.78315	0.03914
705.85459	0.06060
703.92603	0.05560
701.99746	0.03168
700.06890	0.03047
698.14033	0.02797
696.21177	0.01972
694.28320	-0.00394
692.35464	-0.01829
690.42607	0.01345
688.49751	0.01435
686.56895	-0.05494
684.64038	-0.10731
682.71182	-0.06037
680.78325	0.03463
678.85469	0.08176
676.92612	0.07364
674.99756	0.07811
673.06899	0.08570
671.14043	0.06707
669.21187	0.03487
667.28330	-0.00285
665.35474	-0.01965
663.42617	-0.02422
661.49761	-0.00822
659.56904	0.01278
657.64048	-0.01383
655.71191	-0.01119
653.78335	0.05410
651.85479	0.11293
649.92622	0.15342
647.99766	0.17487
646.06909	0.12017
644.14053	0.00961
642.21196	-0.04502
640.28340	-0.02510
638.35483	0.02782
636.42627	0.03499
634.49771	-0.00731
632.56914	0.01885
630.64058	0.08912
628.71201	0.10206
626.78345	0.08616
624.85488	0.11691
622.92632	0.13804
620.99775	0.09920
619.06919	0.03524
617.14062	-0.01479
615.21206	0.00117
613.28350	0.04911
611.35493	0.05499
609.42637	0.05510
607.49780	0.08344
605.56924	0.11478
603.64067	0.13809
601.71211	0.15060
599.78354	0.09819
597.85498	-0.00683
595.92642	-0.06756
593.99785	-0.03897
592.06929	0.01362
590.14072	0.03995
588.21216	0.06001
586.28359	0.05599
584.35503	0.01082
582.42646	-0.02985
580.49790	-0.03345
578.56934	0.00776
576.64077	0.06653
574.71221	0.08022
572.78364	0.05779
570.85508	0.05682
568.92651	0.08210
566.99795	0.07693
565.06938	0.02284
563.14082	-0.01320
561.21226	-0.01795
559.28369	-0.03292
557.35513	-0.04776
555.42656	-0.01729
553.49800	0.04855
551.56943	0.12911
549.64087	0.15320
547.71230	0.09582
545.78374	0.07077
543.85518	0.09628
541.92661	0.09735
539.99805	0.05774
538.06948	0.02854
536.14092	0.04174
534.21235	0.07523
532.28379	0.09028
530.35522	0.07394
528.42666	0.05042
526.49810	0.04271
524.56953	0.02646
522.64097	0.00500
520.71240	0.02108
518.78384	0.04207
516.85527	0.01782
514.92671	-0.00884
512.99814	0.00625
511.06958	0.02530
509.14102	0.00069
507.21245	-0.01940
505.28389	0.00332
503.35532	0.02816
501.42676	0.01565
499.49819	-0.00002
