3997.91411	0.07370
3995.98555	0.07402
3994.05698	0.07487
3992.12842	0.07564
3990.19985	0.07601
3988.27129	0.07604
3986.34272	0.07587
3984.41416	0.07590
3982.48560	0.07619
3980.55703	0.07641
3978.62847	0.07664
3976.69990	0.07686
3974.77134	0.07689
3972.84277	0.07700
3970.91421	0.07746
3968.98564	0.07813
3967.05708	0.07823
3965.12852	0.07764
3963.19995	0.07760
3961.27139	0.07826
3959.34282	0.07863
3957.41426	0.07865
3955.48569	0.07870
3953.55713	0.07878
3951.62856	0.07900
3949.70000	0.07938
3947.77144	0.07951
3945.84287	0.07923
3943.91431	0.07912
3941.98574	0.07929
3940.05718	0.07910
3938.12861	0.07858
3936.20005	0.07821
3934.27148	0.07807
3932.34292	0.07815
3930.41436	0.07851
3928.48579	0.07865
3926.55723	0.07853
3924.62866	0.07888
3922.70010	0.07927
3920.77153	0.07916
3918.84297	0.07925
3916.91440	0.07962
3914.98584	0.07943
3913.05728	0.07856
3911.12871	0.07769
3909.20015	0.07729
3907.27158	0.07762
3905.34302	0.07854
3903.41445	0.07948
3901.48589	0.08001
3899.55732	0.08018
3897.62876	0.07962
3895.70020	0.07858
3893.77163	0.07808
3891.84307	0.07844
3889.91450	0.07881
3887.98594	0.07853
3886.05737	0.07861
3884.12881	0.07926
3882.20024	0.07945
3880.27168	0.07949
3878.34312	0.07946
3876.41455	0.07923
3874.48599	0.07954
3872.55742	0.08054
3870.62886	0.08178
3868.70029	0.08237
3866.77173	0.08189
3864.84316	0.08200
3862.91460	0.08281
3860.98604	0.08265
3859.05747	0.08208
3857.12891	0.08233
3855.20034	0.08390
3853.27178	0.08735
3851.34321	0.08971
3849.41465	0.08779
3847.48608	0.08540
3845.55752	0.08443
3843.62896	0.08527
3841.70039	0.08740
3839.77183	0.08940
3837.84326	0.09018
3835.91470	0.08969
3833.98613	0.08941
3832.05757	0.08988
3830.12900	0.09031
3828.20044	0.09066
3826.27187	0.09152
3824.34331	0.09247
3822.41475	0.09349
3820.48618	0.09547
3818.55762	0.09643
3816.62905	0.09618
3814.70049	0.09666
3812.77192	0.09668
3810.84336	0.09633
3808.91479	0.09712
3806.98623	0.09947
3805.05767	0.10205
3803.12910	0.10390
3801.20054	0.10604
3799.27197	0.10738
3797.34341	0.10752
3795.41484	0.10804
3793.48628	0.10838
3791.55771	0.10850
3789.62915	0.10921
3787.70059	0.11043
3785.77202	0.11215
3783.84346	0.11416
3781.91489	0.11584
3779.98633	0.11751
3778.05776	0.11914
3776.12920	0.11998
3774.20063	0.12088
3772.27207	0.12239
3770.34351	0.12446
3768.41494	0.12699
3766.48638	0.12918
3764.55781	0.13115
3762.62925	0.13289
3760.70068	0.13466
3758.77212	0.13735
3756.84355	0.14047
3754.91499	0.14309
3752.98643	0.14561
3751.05786	0.14929
3749.12930	0.15411
3747.20073	0.15706
3745.27217	0.15916
3743.34360	0.16297
3741.41504	0.16631
3739.48647	0.16826
3737.55791	0.17130
3735.62935	0.17678
3733.70078	0.18332
3731.77222	0.18793
3729.84365	0.19117
3727.91509	0.19480
3725.98652	0.20011
3724.05796	0.20686
3722.12939	0.21379
3720.20083	0.22075
3718.27227	0.22748
3716.34370	0.23428
3714.41514	0.24192
3712.48657	0.25198
3710.55801	0.26584
3708.62944	0.27969
3706.70088	0.29055
3704.77231	0.30111
3702.84375	0.31401
3700.91519	0.33115
3698.98662	0.35004
3697.05806	0.36781
3695.12949	0.38636
3693.20093	0.40601
3691.27236	0.42743
3689.34380	0.45521
3687.41523	0.48961
3685.48667	0.51993
3683.55811	0.54587
3681.62954	0.57376
3679.70098	0.60546
3677.77241	0.63897
3675.84385	0.67863
3673.91528	0.73187
3671.98672	0.77489
3670.05815	0.81243
3668.12959	0.86478
3666.20103	0.91347
3664.27246	0.95414
3662.34390	0.99760
3660.41533	1.04476
3658.48677	1.09141
3656.55820	1.14086
3654.62964	1.19571
3652.70107	1.24157
3650.77251	1.28135
3648.84395	1.33663
3646.91538	1.40452
3644.98682	1.45469
3643.05825	1.49401
3641.12969	1.53421
3639.20112	1.57826
3637.27256	1.62278
3635.34399	1.66592
3633.41543	1.70873
3631.48687	1.74905
3629.55830	1.79064
3627.62974	1.84502
3625.70117	1.89425
3623.77261	1.92623
3621.84404	1.95734
3619.91548	1.99451
3617.98691	2.04067
3616.05835	2.08544
3614.12979	2.12249
3612.20122	2.16142
3610.27266	2.20097
3608.34409	2.24036
3606.41553	2.28182
3604.48696	2.32097
3602.55840	2.35702
3600.62983	2.39565
3598.70127	2.43673
3596.77271	2.47674
3594.84414	2.51751
3592.91558	2.55950
3590.98701	2.59829
3589.05845	2.63390
3587.12988	2.67655
3585.20132	2.72375
3583.27275	2.76423
3581.34419	2.80158
3579.41562	2.84049
3577.48706	2.88187
3575.55850	2.92551
3573.62993	2.97091
3571.70137	3.01380
3569.77280	3.05295
3567.84424	3.09420
3565.91567	3.14660
3563.98711	3.19916
3562.05854	3.24123
3560.12998	3.28197
3558.20142	3.32551
3556.27285	3.37024
3554.34429	3.41400
3552.41572	3.46013
3550.48716	3.50919
3548.55859	3.55480
3546.63003	3.59688
3544.70146	3.64337
3542.77290	3.69486
3540.84434	3.74395
3538.91577	3.78925
3536.98721	3.83432
3535.05864	3.88165
3533.13008	3.92869
3531.20151	3.97565
3529.27295	4.02336
3527.34438	4.07139
3525.41582	4.12090
3523.48726	4.17322
3521.55869	4.22659
3519.63013	4.27735
3517.70156	4.32402
3515.77300	4.36600
3513.84443	4.40821
3511.91587	4.45320
3509.98730	4.49992
3508.05874	4.54957
3506.13018	4.59956
3504.20161	4.64639
3502.27305	4.69388
3500.34448	4.74691
3498.41592	4.80176
3496.48735	4.85442
3494.55879	4.90727
3492.63022	4.96079
3490.70166	5.00763
3488.77310	5.04768
3486.84453	5.09227
3484.91597	5.14484
3482.98740	5.19192
3481.05884	5.23373
3479.13027	5.28883
3477.20171	5.34882
3475.27314	5.39725
3473.34458	5.44623
3471.41602	5.50448
3469.48745	5.55999
3467.55889	5.60356
3465.63032	5.64185
3463.70176	5.68481
3461.77319	5.73283
3459.84463	5.78828
3457.91606	5.84686
3455.98750	5.90219
3454.05894	5.95754
3452.13037	6.01152
3450.20181	6.05416
3448.27324	6.09030
3446.34468	6.14364
3444.41611	6.21028
3442.48755	6.27136
3440.55898	6.31593
3438.63042	6.35582
3436.70186	6.42513
3434.77329	6.51550
3432.84473	6.57623
3430.91616	6.60861
3428.98760	6.65430
3427.05903	6.71020
3425.13047	6.77812
3423.20190	6.85517
3421.27334	6.91429
3419.34478	6.93768
3417.41621	6.94720
3415.48765	6.98123
3413.55908	7.03621
3411.63052	7.10233
3409.70195	7.15176
3407.77339	7.18565
3405.84482	7.22646
3403.91626	7.26086
3401.98770	7.28970
3400.05913	7.32466
3398.13057	7.36723
3396.20200	7.43134
3394.27344	7.49851
3392.34487	7.54156
3390.41631	7.59785
3388.48774	7.65384
3386.55918	7.70938
3384.63062	7.76296
3382.70205	7.79501
3380.77349	7.85716
3378.84492	7.91544
3376.91636	7.92838
3374.98779	7.96714
3373.05923	8.02066
3371.13066	8.00208
3369.20210	8.00102
3367.27354	8.06914
3365.34497	8.11332
3363.41641	8.11332
3361.48784	8.13254
3359.55928	8.19075
3357.63071	8.24521
3355.70215	8.27807
3353.77358	8.25313
3351.84502	8.22638
3349.91646	8.26293
3347.98789	8.32072
3346.05933	8.35526
3344.13076	8.35359
3342.20220	8.34316
3340.27363	8.36632
3338.34507	8.45226
3336.41650	8.49612
3334.48794	8.43174
3332.55937	8.40141
3330.63081	8.49773
3328.70225	8.59555
3326.77368	8.57313
3324.84512	8.50824
3322.91655	8.45951
3320.98799	8.43119
3319.05942	8.45479
3317.13086	8.59438
3315.20229	8.68786
3313.27373	8.55742
3311.34517	8.41238
3309.41660	8.37393
3307.48804	8.40966
3305.55947	8.50903
3303.63091	8.59101
3301.70234	8.61812
3299.77378	8.65131
3297.84521	8.61505
3295.91665	8.55340
3293.98809	8.56731
3292.05952	8.61295
3290.13096	8.64428
3288.20239	8.65393
3286.27383	8.64900
3284.34526	8.62254
3282.41670	8.62466
3280.48813	8.70824
3278.55957	8.86850
3276.63101	8.94588
3274.70244	8.79293
3272.77388	8.57637
3270.84531	8.47893
3268.91675	8.52938
3266.98818	8.61603
3265.05962	8.61477
3263.13105	8.57870
3261.20249	8.60715
3259.27393	8.64021
3257.34536	8.65648
3255.41680	8.70615
3253.48823	8.73188
3251.55967	8.68362
3249.63110	8.60330
3247.70254	8.55431
3245.77397	8.57383
3243.84541	8.59837
3241.91685	8.51255
3239.98828	8.42850
3238.05972	8.45526
3236.13115	8.55901
3234.20259	8.65153
3232.27402	8.64976
3230.34546	8.63728
3228.41689	8.62226
3226.48833	8.54685
3224.55977	8.45954
3222.63120	8.43172
3220.70264	8.47757
3218.77407	8.48301
3216.84551	8.40556
3214.91694	8.34911
3212.98838	8.36696
3211.05981	8.42913
3209.13125	8.43728
3207.20269	8.31512
3205.27412	8.13482
3203.34556	8.03421
3201.41699	8.08207
3199.48843	8.20214
3197.55986	8.20815
3195.63130	8.10990
3193.70273	8.06076
3191.77417	8.03615
3189.84561	7.97091
3187.91704	7.87907
3185.98848	7.77679
3184.05991	7.69257
3182.13135	7.62738
3180.20278	7.57458
3178.27422	7.54971
3176.34565	7.51725
3174.41709	7.44451
3172.48853	7.35885
3170.55996	7.26961
3168.63140	7.18874
3166.70283	7.13470
3164.77427	7.08450
3162.84570	7.00071
3160.91714	6.89290
3158.98857	6.81368
3157.06001	6.77263
3155.13145	6.72331
3153.20288	6.63565
3151.27432	6.54230
3149.34575	6.47252
3147.41719	6.41231
3145.48862	6.35295
3143.56006	6.28156
3141.63149	6.18659
3139.70293	6.08794
3137.77437	6.00439
3135.84580	5.93559
3133.91724	5.87744
3131.98867	5.81643
3130.06011	5.73774
3128.13154	5.65082
3126.20298	5.56778
3124.27441	5.48861
3122.34585	5.41636
3120.41729	5.35081
3118.48872	5.27956
3116.56016	5.19942
3114.63159	5.12277
3112.70303	5.05335
3110.77446	4.98265
3108.84590	4.91029
3106.91733	4.84153
3104.98877	4.77275
3103.06021	4.69846
3101.13164	4.62184
3099.20308	4.55216
3097.27451	4.48939
3095.34595	4.42429
3093.41738	4.35356
3091.48882	4.28295
3089.56025	4.21687
3087.63169	4.15197
3085.70312	4.08667
3083.77456	4.02319
3081.84600	3.95963
3079.91743	3.89479
3077.98887	3.83214
3076.06030	3.77146
3074.13174	3.71064
3072.20317	3.65077
3070.27461	3.59211
3068.34604	3.53384
3066.41748	3.47492
3064.48892	3.41516
3062.56035	3.35648
3060.63179	3.30060
3058.70322	3.24682
3056.77466	3.19311
3054.84609	3.13847
3052.91753	3.08468
3050.98896	3.03285
3049.06040	2.98079
3047.13184	2.92915
3045.20327	2.87959
3043.27471	2.83017
3041.34614	2.78043
3039.41758	2.73183
3037.48901	2.68450
3035.56045	2.63808
3033.63188	2.59228
3031.70332	2.54670
3029.77476	2.50134
3027.84619	2.45651
3025.91763	2.41307
3023.98906	2.37148
3022.06050	2.33046
3020.13193	2.28933
3018.20337	2.24886
3016.27480	2.20924
3014.34624	2.17011
3012.41768	2.13131
3010.48911	2.09285
3008.56055	2.05480
3006.63198	2.01731
3004.70342	1.98073
3002.77485	1.94522
3000.84629	1.91034
2998.91772	1.87594
2996.98916	1.84244
2995.06060	1.80948
2993.13203	1.77633
2991.20347	1.74352
2989.27490	1.71167
2987.34634	1.68028
2985.41777	1.64907
2983.48921	1.61851
2981.56064	1.58891
2979.63208	1.55992
2977.70352	1.53101
2975.77495	1.50244
2973.84639	1.47446
2971.91782	1.44673
2969.98926	1.41946
2968.06069	1.39282
2966.13213	1.36672
2964.20356	1.34140
2962.27500	1.31662
2960.34644	1.29219
2958.41787	1.26839
2956.48931	1.24473
2954.56074	1.22121
2952.63218	1.19848
2950.70361	1.17648
2948.77505	1.15494
2946.84648	1.13349
2944.91792	1.11192
2942.98936	1.09050
2941.06079	1.06948
2939.13223	1.04901
2937.20366	1.02911
2935.27510	1.00970
2933.34653	0.99112
2931.41797	0.97352
2929.48940	0.95628
2927.56084	0.93923
2925.63228	0.92250
2923.70371	0.90596
2921.77515	0.88979
2919.84658	0.87396
2917.91802	0.85816
2915.98945	0.84240
2914.06089	0.82684
2912.13232	0.81160
2910.20376	0.79678
2908.27520	0.78205
2906.34663	0.76731
2904.41807	0.75319
2902.48950	0.74008
2900.56094	0.72765
2898.63237	0.71538
2896.70381	0.70292
2894.77524	0.69051
2892.84668	0.67851
2890.91812	0.66680
2888.98955	0.65512
2887.06099	0.64366
2885.13242	0.63260
2883.20386	0.62165
2881.27529	0.61071
2879.34673	0.60007
2877.41816	0.58974
2875.48960	0.57955
2873.56104	0.56956
2871.63247	0.55985
2869.70391	0.55009
2867.77534	0.54035
2865.84678	0.53100
2863.91821	0.52195
2861.98965	0.51305
2860.06108	0.50413
2858.13252	0.49530
2856.20396	0.48706
2854.27539	0.47968
2852.34683	0.47291
2850.41826	0.46601
2848.48970	0.45839
2846.56113	0.45031
2844.63257	0.44247
2842.70400	0.43528
2840.77544	0.42872
2838.84687	0.42252
2836.91831	0.41650
2834.98975	0.41069
2833.06118	0.40505
2831.13262	0.39935
2829.20405	0.39347
2827.27549	0.38757
2825.34692	0.38179
2823.41836	0.37622
2821.48979	0.37067
2819.56123	0.36496
2817.63267	0.35936
2815.70410	0.35412
2813.77554	0.34903
2811.84697	0.34380
2809.91841	0.33850
2807.98984	0.33344
2806.06128	0.32881
2804.13271	0.32449
2802.20415	0.32009
2800.27559	0.31556
2798.34702	0.31097
2796.41846	0.30641
2794.48989	0.30203
2792.56133	0.29793
2790.63276	0.29404
2788.70420	0.29012
2786.77563	0.28599
2784.84707	0.28179
2782.91851	0.27779
2780.98994	0.27407
2779.06138	0.27054
2777.13281	0.26700
2775.20425	0.26346
2773.27568	0.26001
2771.34712	0.25664
2769.41855	0.25339
2767.48999	0.25026
2765.56143	0.24711
2763.63286	0.24388
2761.70430	0.24078
2759.77573	0.23795
2757.84717	0.23516
2755.91860	0.23231
2753.99004	0.22962
2752.06147	0.22714
2750.13291	0.22480
2748.20435	0.22239
2746.27578	0.21969
2744.34722	0.21692
2742.41865	0.21437
2740.49009	0.21206
2738.56152	0.20982
2736.63296	0.20754
2734.70439	0.20528
2732.77583	0.20318
2730.84727	0.20113
2728.91870	0.19907
2726.99014	0.19704
2725.06157	0.19500
2723.13301	0.19305
2721.20444	0.19123
2719.27588	0.18943
2717.34731	0.18770
2715.41875	0.18598
2713.49019	0.18421
2711.56162	0.18255
2709.63306	0.18103
2707.70449	0.17949
2705.77593	0.17790
2703.84736	0.17637
2701.91880	0.17496
2699.99023	0.17371
2698.06167	0.17255
2696.13311	0.17131
2694.20454	0.17004
2692.27598	0.16881
2690.34741	0.16749
2688.41885	0.16614
2686.49028	0.16499
2684.56172	0.16399
2682.63315	0.16292
2680.70459	0.16176
2678.77603	0.16067
2676.84746	0.15972
2674.91890	0.15891
2672.99033	0.15807
2671.06177	0.15703
2669.13320	0.15597
2667.20464	0.15516
2665.27607	0.15444
2663.34751	0.15369
2661.41895	0.15306
2659.49038	0.15248
2657.56182	0.15174
2655.63325	0.15097
2653.70469	0.15040
2651.77612	0.15000
2649.84756	0.14972
2647.91899	0.14932
2645.99043	0.14863
2644.06187	0.14790
2642.13330	0.14747
2640.20474	0.14722
2638.27617	0.14693
2636.34761	0.14660
2634.41904	0.14626
2632.49048	0.14588
2630.56191	0.14561
2628.63335	0.14545
2626.70479	0.14521
2624.77622	0.14493
2622.84766	0.14467
2620.91909	0.14440
2618.99053	0.14415
2617.06196	0.14398
2615.13340	0.14400
2613.20483	0.14417
2611.27627	0.14430
2609.34771	0.14434
2607.41914	0.14426
2605.49058	0.14411
2603.56201	0.14405
2601.63345	0.14413
2599.70488	0.14429
2597.77632	0.14449
2595.84775	0.14475
2593.91919	0.14508
2591.99062	0.14528
2590.06206	0.14532
2588.13350	0.14545
2586.20493	0.14580
2584.27637	0.14626
2582.34780	0.14668
2580.41924	0.14700
2578.49067	0.14730
2576.56211	0.14761
2574.63354	0.14799
2572.70498	0.14842
2570.77642	0.14884
2568.84785	0.14919
2566.91929	0.14950
2564.99072	0.14992
2563.06216	0.15050
2561.13359	0.15116
2559.20503	0.15177
2557.27646	0.15230
2555.34790	0.15287
2553.41934	0.15347
2551.49077	0.15409
2549.56221	0.15481
2547.63364	0.15554
2545.70508	0.15624
2543.77651	0.15693
2541.84795	0.15759
2539.91938	0.15819
2537.99082	0.15883
2536.06226	0.15954
2534.13369	0.16017
2532.20513	0.16079
2530.27656	0.16161
2528.34800	0.16254
2526.41943	0.16337
2524.49087	0.16421
2522.56230	0.16511
2520.63374	0.16598
2518.70518	0.16667
2516.77661	0.16729
2514.84805	0.16806
2512.91948	0.16897
2510.99092	0.16987
2509.06235	0.17083
2507.13379	0.17172
2505.20522	0.17246
2503.27666	0.17328
2501.34810	0.17426
2499.41953	0.17527
2497.49097	0.17625
2495.56240	0.17720
2493.63384	0.17804
2491.70527	0.17888
2489.77671	0.17982
2487.84814	0.18076
2485.91958	0.18173
2483.99102	0.18274
2482.06245	0.18370
2480.13389	0.18463
2478.20532	0.18559
2476.27676	0.18651
2474.34819	0.18735
2472.41963	0.18820
2470.49106	0.18914
2468.56250	0.19019
2466.63394	0.19133
2464.70537	0.19257
2462.77681	0.19371
2460.84824	0.19458
2458.91968	0.19535
2456.99111	0.19627
2455.06255	0.19731
2453.13398	0.19842
2451.20542	0.19955
2449.27686	0.20055
2447.34829	0.20138
2445.41973	0.20224
2443.49116	0.20332
2441.56260	0.20444
2439.63403	0.20548
2437.70547	0.20666
2435.77690	0.20801
2433.84834	0.20931
2431.91978	0.21032
2429.99121	0.21121
2428.06265	0.21226
2426.13408	0.21341
2424.20552	0.21458
2422.27695	0.21580
2420.34839	0.21692
2418.41982	0.21795
2416.49126	0.21911
2414.56270	0.22039
2412.63413	0.22167
2410.70557	0.22286
2408.77700	0.22403
2406.84844	0.22518
2404.91987	0.22629
2402.99131	0.22752
2401.06274	0.22889
2399.13418	0.23019
2397.20562	0.23135
2395.27705	0.23251
2393.34849	0.23376
2391.41992	0.23506
2389.49136	0.23636
2387.56279	0.23775
2385.63423	0.23928
2383.70566	0.24094
2381.77710	0.24276
2379.84854	0.24477
2377.91997	0.24708
2375.99141	0.24964
2374.06284	0.25223
2372.13428	0.25473
2370.20571	0.25741
2368.27715	0.26038
2366.34858	0.26316
2364.42002	0.26525
2362.49146	0.26739
2360.56289	0.27026
2358.63433	0.27231
2356.70576	0.27277
2354.77720	0.27298
2352.84863	0.27338
2350.92007	0.27360
2348.99150	0.27390
2347.06294	0.27493
2345.13437	0.27729
2343.20581	0.28032
2341.27725	0.28246
2339.34868	0.28395
2337.42012	0.28537
2335.49155	0.28666
2333.56299	0.28797
2331.63442	0.28963
2329.70586	0.29128
2327.77729	0.29254
2325.84873	0.29362
2323.92017	0.29478
2321.99160	0.29602
2320.06304	0.29722
2318.13447	0.29820
2316.20591	0.29902
2314.27734	0.30006
2312.34878	0.30166
2310.42021	0.30354
2308.49165	0.30509
2306.56309	0.30627
2304.63452	0.30752
2302.70596	0.30903
2300.77739	0.31068
2298.84883	0.31230
2296.92026	0.31393
2294.99170	0.31561
2293.06313	0.31738
2291.13457	0.31914
2289.20601	0.32084
2287.27744	0.32251
2285.34888	0.32418
2283.42031	0.32602
2281.49175	0.32815
2279.56318	0.33040
2277.63462	0.33246
2275.70605	0.33447
2273.77749	0.33674
2271.84893	0.33900
2269.92036	0.34101
2267.99180	0.34292
2266.06323	0.34498
2264.13467	0.34722
2262.20610	0.34946
2260.27754	0.35157
2258.34897	0.35357
2256.42041	0.35551
2254.49185	0.35752
2252.56328	0.35968
2250.63472	0.36188
2248.70615	0.36401
2246.77759	0.36616
2244.84902	0.36836
2242.92046	0.37056
2240.99189	0.37285
2239.06333	0.37524
2237.13477	0.37762
2235.20620	0.37991
2233.27764	0.38215
2231.34907	0.38441
2229.42051	0.38662
2227.49194	0.38871
2225.56338	0.39085
2223.63481	0.39309
2221.70625	0.39530
2219.77769	0.39751
2217.84912	0.39980
2215.92056	0.40208
2213.99199	0.40422
2212.06343	0.40629
2210.13486	0.40834
2208.20630	0.41044
2206.27773	0.41268
2204.34917	0.41488
2202.42061	0.41688
2200.49204	0.41879
2198.56348	0.42074
2196.63491	0.42275
2194.70635	0.42475
2192.77778	0.42674
2190.84922	0.42869
2188.92065	0.43057
2186.99209	0.43239
2185.06353	0.43422
2183.13496	0.43603
2181.20640	0.43778
2179.27783	0.43939
2177.34927	0.44095
2175.42070	0.44254
2173.49214	0.44412
2171.56357	0.44556
2169.63501	0.44688
2167.70645	0.44826
2165.77788	0.44969
2163.84932	0.45099
2161.92075	0.45213
2159.99219	0.45323
2158.06362	0.45437
2156.13506	0.45536
2154.20649	0.45609
2152.27793	0.45675
2150.34937	0.45748
2148.42080	0.45823
2146.49224	0.45886
2144.56367	0.45938
2142.63511	0.45988
2140.70654	0.46023
2138.77798	0.46042
2136.84941	0.46056
2134.92085	0.46075
2132.99229	0.46095
2131.06372	0.46095
2129.13516	0.46073
2127.20659	0.46041
2125.27803	0.46002
2123.34946	0.45950
2121.42090	0.45893
2119.49233	0.45839
2117.56377	0.45779
2115.63521	0.45705
2113.70664	0.45623
2111.77808	0.45532
2109.84951	0.45437
2107.92095	0.45344
2105.99238	0.45246
2104.06382	0.45129
2102.13525	0.44996
2100.20669	0.44862
2098.27812	0.44728
2096.34956	0.44588
2094.42100	0.44439
2092.49243	0.44282
2090.56387	0.44117
2088.63530	0.43943
2086.70674	0.43766
2084.77817	0.43583
2082.84961	0.43385
2080.92104	0.43174
2078.99248	0.42972
2077.06392	0.42781
2075.13535	0.42584
2073.20679	0.42365
2071.27822	0.42126
2069.34966	0.41891
2067.42109	0.41663
2065.49253	0.41432
2063.56396	0.41188
2061.63540	0.40943
2059.70684	0.40707
2057.77827	0.40461
2055.84971	0.40201
2053.92114	0.39943
2051.99258	0.39691
2050.06401	0.39433
2048.13545	0.39168
2046.20688	0.38906
2044.27832	0.38646
2042.34976	0.38380
2040.42119	0.38113
2038.49263	0.37853
2036.56406	0.37583
2034.63550	0.37301
2032.70693	0.37017
2030.77837	0.36729
2028.84980	0.36436
2026.92124	0.36157
2024.99268	0.35887
2023.06411	0.35609
2021.13555	0.35332
2019.20698	0.35063
2017.27842	0.34791
2015.34985	0.34504
2013.42129	0.34214
2011.49272	0.33937
2009.56416	0.33675
2007.63560	0.33418
2005.70703	0.33159
2003.77847	0.32891
2001.84990	0.32616
1999.92134	0.32347
1997.99277	0.32080
1996.06421	0.31815
1994.13564	0.31562
1992.20708	0.31317
1990.27852	0.31064
1988.34995	0.30807
1986.42139	0.30548
1984.49282	0.30300
1982.56426	0.30073
1980.63569	0.29850
1978.70713	0.29621
1976.77856	0.29388
1974.85000	0.29162
1972.92144	0.28946
1970.99287	0.28737
1969.06431	0.28530
1967.13574	0.28322
1965.20718	0.28108
1963.27861	0.27900
1961.35005	0.27711
1959.42148	0.27527
1957.49292	0.27342
1955.56436	0.27156
1953.63579	0.26972
1951.70723	0.26788
1949.77866	0.26613
1947.85010	0.26459
1945.92153	0.26323
1943.99297	0.26192
1942.06440	0.26050
1940.13584	0.25892
1938.20728	0.25739
1936.27871	0.25602
1934.35015	0.25473
1932.42158	0.25347
1930.49302	0.25221
1928.56445	0.25102
1926.63589	0.24993
1924.70732	0.24899
1922.77876	0.24811
1920.85020	0.24716
1918.92163	0.24631
1916.99307	0.24552
1915.06450	0.24461
1913.13594	0.24365
1911.20737	0.24283
1909.27881	0.24213
1907.35024	0.24140
1905.42168	0.24064
1903.49312	0.24001
1901.56455	0.23945
1899.63599	0.23888
1897.70742	0.23846
1895.77886	0.23817
1893.85029	0.23790
1891.92173	0.23757
1889.99316	0.23733
1888.06460	0.23708
1886.13604	0.23677
1884.20747	0.23650
1882.27891	0.23625
1880.35034	0.23610
1878.42178	0.23605
1876.49321	0.23598
1874.56465	0.23584
1872.63608	0.23589
1870.70752	0.23626
1868.77896	0.23696
1866.85039	0.23743
1864.92183	0.23730
1862.99326	0.23713
1861.06470	0.23726
1859.13613	0.23772
1857.20757	0.23821
1855.27900	0.23861
1853.35044	0.23893
1851.42187	0.23938
1849.49331	0.24005
1847.56475	0.24088
1845.63618	0.24182
1843.70762	0.24290
1841.77905	0.24360
1839.85049	0.24387
1837.92192	0.24454
1835.99336	0.24552
1834.06479	0.24653
1832.13623	0.24762
1830.20767	0.24909
1828.27910	0.25052
1826.35054	0.25156
1824.42197	0.25286
1822.49341	0.25412
1820.56484	0.25523
1818.63628	0.25651
1816.70771	0.25809
1814.77915	0.25965
1812.85059	0.26138
1810.92202	0.26354
1808.99346	0.26566
1807.06489	0.26752
1805.13633	0.26939
1803.20776	0.27162
1801.27920	0.27420
1799.35063	0.27711
1797.42207	0.27971
1795.49351	0.28214
1793.56494	0.28505
1791.63638	0.28867
1789.70781	0.29198
1787.77925	0.29460
1785.85068	0.29781
1783.92212	0.30156
1781.99355	0.30553
1780.06499	0.30978
1778.13643	0.31420
1776.20786	0.31836
1774.27930	0.32278
1772.35073	0.32873
1770.42217	0.33512
1768.49360	0.34036
1766.56504	0.34535
1764.63647	0.35057
1762.70791	0.35653
1760.77935	0.36415
1758.85078	0.37124
1756.92222	0.37837
1754.99365	0.38623
1753.06509	0.39337
1751.13652	0.40190
1749.20796	0.41275
1747.27939	0.42333
1745.35083	0.43240
1743.42227	0.44203
1741.49370	0.45288
1739.56514	0.46567
1737.63657	0.47830
1735.70801	0.48945
1733.77944	0.50625
1731.85088	0.52599
1729.92231	0.54146
1727.99375	0.55722
1726.06519	0.57412
1724.13662	0.59255
1722.20806	0.61252
1720.27949	0.63107
1718.35093	0.65284
1716.42236	0.68511
1714.49380	0.71587
1712.56523	0.74048
1710.63667	0.76410
1708.70811	0.78953
1706.77954	0.81865
1704.85098	0.85335
1702.92241	0.88408
1700.99385	0.91427
1699.06528	0.95880
1697.13672	0.99937
1695.20815	1.04065
1693.27959	1.08045
1691.35103	1.11220
1689.42246	1.14865
1687.49390	1.18653
1685.56533	1.22246
1683.63677	1.27765
1681.70820	1.33448
1679.77964	1.37066
1677.85107	1.40568
1675.92251	1.44646
1673.99395	1.49608
1672.06538	1.53932
1670.13682	1.58162
1668.20825	1.63578
1666.27969	1.67838
1664.35112	1.71391
1662.42256	1.75792
1660.49399	1.80647
1658.56543	1.84417
1656.63687	1.87558
1654.70830	1.90699
1652.77974	1.96130
1650.85117	2.01309
1648.92261	2.03351
1646.99404	2.06286
1645.06548	2.09832
1643.13691	2.12033
1641.20835	2.13253
1639.27979	2.14452
1637.35122	2.15584
1635.42266	2.16191
1633.49409	2.15682
1631.56553	2.14532
1629.63696	2.13191
1627.70840	2.10918
1625.77983	2.08197
1623.85127	2.04736
1621.92271	2.00451
1619.99414	1.96545
1618.06558	1.92587
1616.13701	1.86790
1614.20845	1.80802
1612.27988	1.76238
1610.35132	1.71510
1608.42275	1.66416
1606.49419	1.61340
1604.56562	1.56531
1602.63706	1.51790
1600.70850	1.47127
1598.77993	1.42832
1596.85137	1.38794
1594.92280	1.34887
1592.99424	1.31111
1591.06567	1.27595
1589.13711	1.24228
1587.20854	1.21049
1585.27998	1.18084
1583.35142	1.15266
1581.42285	1.12629
1579.49429	1.10328
1577.56572	1.08234
1575.63716	1.05621
1573.70859	1.03225
1571.78003	1.01610
1569.85146	0.99847
1567.92290	0.97775
1565.99434	0.96083
1564.06577	0.94640
1562.13721	0.93451
1560.20864	0.92459
1558.28008	0.90628
1556.35151	0.88800
1554.42295	0.87674
1552.49438	0.86607
1550.56582	0.85572
1548.63726	0.84531
1546.70869	0.83615
1544.78013	0.82816
1542.85156	0.82061
1540.92300	0.81258
1538.99443	0.80101
1537.06587	0.79138
1535.13730	0.78480
1533.20874	0.77760
1531.28018	0.77004
1529.35161	0.76416
1527.42305	0.75868
1525.49448	0.75312
1523.56592	0.74802
1521.63735	0.74248
1519.70879	0.73617
1517.78022	0.73074
1515.85166	0.72507
1513.92310	0.71949
1511.99453	0.71513
1510.06597	0.71166
1508.13740	0.70887
1506.20884	0.70404
1504.28027	0.69806
1502.35171	0.69403
1500.42314	0.69078
1498.49458	0.68755
1496.56602	0.68388
1494.63745	0.68019
1492.70889	0.67723
1490.78032	0.67469
1488.85176	0.67158
1486.92319	0.66810
1484.99463	0.66493
1483.06606	0.66208
1481.13750	0.65933
1479.20894	0.65651
1477.28037	0.65383
1475.35181	0.65146
1473.42324	0.64912
1471.49468	0.64561
1469.56611	0.64184
1467.63755	0.63895
1465.70898	0.63661
1463.78042	0.63421
1461.85186	0.63194
1459.92329	0.63037
1457.99473	0.62915
1456.06616	0.62674
1454.13760	0.62359
1452.20903	0.62122
1450.28047	0.61929
1448.35190	0.61747
1446.42334	0.61548
1444.49478	0.61368
1442.56621	0.61231
1440.63765	0.61114
1438.70908	0.61008
1436.78052	0.60894
1434.85195	0.60742
1432.92339	0.60581
1430.99482	0.60441
1429.06626	0.60294
1427.13770	0.60128
1425.20913	0.59974
1423.28057	0.59827
1421.35200	0.59681
1419.42344	0.59550
1417.49487	0.59409
1415.56631	0.59232
1413.63774	0.59060
1411.70918	0.58906
1409.78062	0.58770
1407.85205	0.58653
1405.92349	0.58545
1403.99492	0.58420
1402.06636	0.58277
1400.13779	0.58159
1398.20923	0.58060
1396.28066	0.57942
1394.35210	0.57798
1392.42354	0.57642
1390.49497	0.57495
1388.56641	0.57379
1386.63784	0.57273
1384.70928	0.57138
1382.78071	0.56999
1380.85215	0.56887
1378.92358	0.56791
1376.99502	0.56703
1375.06646	0.56638
1373.13789	0.56554
1371.20933	0.56429
1369.28076	0.56309
1367.35220	0.56197
1365.42363	0.56088
1363.49507	0.56002
1361.56650	0.55924
1359.63794	0.55833
1357.70937	0.55750
1355.78081	0.55670
1353.85225	0.55582
1351.92368	0.55488
1349.99512	0.55398
1348.06655	0.55313
1346.13799	0.55228
1344.20942	0.55145
1342.28086	0.55068
1340.35229	0.54999
1338.42373	0.54925
1336.49517	0.54834
1334.56660	0.54736
1332.63804	0.54638
1330.70947	0.54539
1328.78091	0.54446
1326.85234	0.54371
1324.92378	0.54306
1322.99521	0.54231
1321.06665	0.54141
1319.13809	0.54054
1317.20952	0.53972
1315.28096	0.53888
1313.35239	0.53806
1311.42383	0.53728
1309.49526	0.53649
1307.56670	0.53570
1305.63813	0.53496
1303.70957	0.53422
1301.78101	0.53347
1299.85244	0.53271
1297.92388	0.53205
1295.99531	0.53150
1294.06675	0.53084
1292.13818	0.53008
1290.20962	0.52942
1288.28105	0.52891
1286.35249	0.52860
1284.42393	0.52832
1282.49536	0.52786
1280.56680	0.52744
1278.63823	0.52707
1276.70967	0.52659
1274.78110	0.52606
1272.85254	0.52556
1270.92397	0.52508
1268.99541	0.52461
1267.06685	0.52413
1265.13828	0.52370
1263.20972	0.52341
1261.28115	0.52313
1259.35259	0.52273
1257.42402	0.52222
1255.49546	0.52179
1253.56689	0.52155
1251.63833	0.52145
1249.70977	0.52136
1247.78120	0.52117
1245.85264	0.52091
1243.92407	0.52054
1241.99551	0.52008
1240.06694	0.51966
1238.13838	0.51928
1236.20981	0.51883
1234.28125	0.51823
1232.35269	0.51765
1230.42412	0.51717
1228.49556	0.51671
1226.56699	0.51619
1224.63843	0.51558
1222.70986	0.51494
1220.78130	0.51437
1218.85273	0.51385
1216.92417	0.51330
1214.99561	0.51267
1213.06704	0.51194
1211.13848	0.51131
1209.20991	0.51085
1207.28135	0.51027
1205.35278	0.50954
1203.42422	0.50889
1201.49565	0.50828
1199.56709	0.50772
1197.63853	0.50734
1195.70996	0.50701
1193.78140	0.50659
1191.85283	0.50614
1189.92427	0.50578
1187.99570	0.50556
1186.06714	0.50546
1184.13857	0.50535
1182.21001	0.50515
1180.28145	0.50512
1178.35288	0.50533
1176.42432	0.50566
1174.49575	0.50605
1172.56719	0.50650
1170.63862	0.50696
1168.71006	0.50727
1166.78149	0.50733
1164.85293	0.50737
1162.92437	0.50751
1160.99580	0.50751
1159.06724	0.50724
1157.13867	0.50667
1155.21011	0.50587
1153.28154	0.50495
1151.35298	0.50373
1149.42441	0.50201
1147.49585	0.49989
1145.56729	0.49758
1143.63872	0.49521
1141.71016	0.49299
1139.78159	0.49088
1137.85303	0.48873
1135.92446	0.48667
1133.99590	0.48475
1132.06733	0.48292
1130.13877	0.48115
1128.21021	0.47957
1126.28164	0.47828
1124.35308	0.47724
1122.42451	0.47636
1120.49595	0.47563
1118.56738	0.47510
1116.63882	0.47473
1114.71025	0.47449
1112.78169	0.47455
1110.85312	0.47500
1108.92456	0.47581
1106.99600	0.47682
1105.06743	0.47793
1103.13887	0.47928
1101.21030	0.48103
1099.28174	0.48320
1097.35317	0.48591
1095.42461	0.48928
1093.49604	0.49317
1091.56748	0.49749
1089.63892	0.50209
1087.71035	0.50715
1085.78179	0.51298
1083.85322	0.51942
1081.92466	0.52604
1079.99609	0.53192
1078.06753	0.53590
1076.13896	0.53712
1074.21040	0.53531
1072.28184	0.53111
1070.35327	0.52559
1068.42471	0.51936
1066.49614	0.51289
1064.56758	0.50681
1062.63901	0.50139
1060.71045	0.49642
1058.78188	0.49173
1056.85332	0.48760
1054.92476	0.48418
1052.99619	0.48116
1051.06763	0.47850
1049.13906	0.47636
1047.21050	0.47455
1045.28193	0.47295
1043.35337	0.47175
1041.42480	0.47096
1039.49624	0.47048
1037.56768	0.47022
1035.63911	0.47003
1033.71055	0.46979
1031.78198	0.46956
1029.85342	0.46965
1027.92485	0.47019
1025.99629	0.47073
1024.06772	0.47115
1022.13916	0.47178
1020.21060	0.47266
1018.28203	0.47371
1016.35347	0.47482
1014.42490	0.47588
1012.49634	0.47705
1010.56777	0.47852
1008.63921	0.48030
1006.71064	0.48222
1004.78208	0.48408
1002.85352	0.48617
1000.92495	0.48889
998.99639	0.49206
997.06782	0.49557
995.13926	0.49935
993.21069	0.50302
991.28213	0.50624
989.35356	0.50888
987.42500	0.51072
985.49644	0.51190
983.56787	0.51290
981.63931	0.51403
979.71074	0.51558
977.78218	0.51766
975.85361	0.52023
973.92505	0.52333
971.99648	0.52677
970.06792	0.53025
968.13936	0.53378
966.21079	0.53778
964.28223	0.54256
962.35366	0.54766
960.42510	0.55271
958.49653	0.55822
956.56797	0.56440
954.63940	0.57069
952.71084	0.57671
950.78228	0.58274
948.85371	0.58935
946.92515	0.59633
944.99658	0.60299
943.06802	0.60925
941.13945	0.61509
939.21089	0.62064
937.28232	0.62616
935.35376	0.63170
933.42520	0.63728
931.49663	0.64314
929.56807	0.64935
927.63950	0.65560
925.71094	0.66143
923.78237	0.66704
921.85381	0.67338
919.92524	0.68062
917.99668	0.68817
916.06812	0.69570
914.13955	0.70323
912.21099	0.71115
910.28242	0.71957
908.35386	0.72846
906.42529	0.73779
904.49673	0.74718
902.56816	0.75572
900.63960	0.76342
898.71104	0.77209
896.78247	0.78263
894.85391	0.79382
892.92534	0.80480
890.99678	0.81538
889.06821	0.82514
887.13965	0.83550
885.21108	0.84810
883.28252	0.86054
881.35396	0.87098
879.42539	0.88191
877.49683	0.89426
875.56826	0.90594
873.63970	0.91657
871.71113	0.92804
869.78257	0.94021
867.85400	0.95142
865.92544	0.96187
863.99687	0.97283
862.06831	0.98558
860.13975	1.00020
858.21118	1.01373
856.28262	1.02345
854.35405	1.03210
852.42549	1.04332
850.49692	1.05568
848.56836	1.06788
846.63979	1.08165
844.71123	1.09678
842.78267	1.11016
840.85410	1.12071
838.92554	1.13121
836.99697	1.14356
835.06841	1.15532
833.13984	1.16674
831.21128	1.17998
829.28271	1.19296
827.35415	1.20713
825.42559	1.22585
823.49702	1.24282
821.56846	1.25238
819.63989	1.26666
817.71133	1.29268
815.78276	1.31568
813.85420	1.32711
811.92563	1.33964
809.99707	1.36076
808.06851	1.38980
806.13994	1.42633
804.21138	1.44055
802.28281	1.43135
800.35425	1.44812
798.42568	1.50138
796.49712	1.57674
794.56855	1.69193
792.63999	1.82761
790.71143	1.86382
788.78286	1.92766
786.85430	2.37246
784.92573	4.70955
782.99717	4.69798
781.06860	1.90428
779.14004	1.63823
777.21147	1.67388
775.28291	1.80455
773.35435	1.93277
771.42578	2.03815
769.49722	1.83691
767.56865	1.56238
765.64009	1.39134
763.71152	1.30210
761.78296	1.23129
759.85439	1.15992
757.92583	1.10430
755.99727	1.05255
754.06870	1.01301
752.14014	0.97851
750.21157	0.92565
748.28301	0.87880
746.35444	0.86937
744.42588	0.89529
742.49731	0.91560
740.56875	0.85360
738.64019	0.74223
736.71162	0.65571
734.78306	0.60944
732.85449	0.57231
730.92593	0.47584
728.99736	0.35511
727.06880	0.27991
725.14023	0.24654
723.21167	0.22132
721.28311	0.16334
719.35454	0.13763
717.42598	0.16817
715.49741	0.16771
713.56885	0.15552
711.64028	0.13961
709.71172	0.08303
707.78315	-0.00646
705.85459	-0.04109
703.92603	0.01930
701.99746	0.10126
700.06890	0.09484
698.14033	0.05184
696.21177	0.08982
694.28320	0.16917
692.35464	0.20091
690.42607	0.15837
688.49751	0.10661
686.56895	0.10760
684.64038	0.11580
682.71182	0.10681
680.78325	0.09595
678.85469	0.07032
676.92612	0.08512
674.99756	0.15429
673.06899	0.16290
671.14043	0.14678
669.21187	0.14606
667.28330	0.11540
665.35474	0.10241
663.42617	0.12646
661.49761	0.11701
659.56904	0.07404
657.64048	0.05484
655.71191	0.06621
653.78335	0.10570
651.85479	0.17508
649.92622	0.20291
647.99766	0.15935
646.06909	0.14389
644.14053	0.18096
642.21196	0.25783
640.28340	0.29990
638.35483	0.25161
636.42627	0.20978
634.49771	0.22516
632.56914	0.20593
630.64058	0.12310
628.71201	0.07236
626.78345	0.09998
624.85488	0.15181
622.92632	0.13315
620.99775	0.09092
619.06919	0.10369
617.14062	0.13413
615.21206	0.13484
613.28350	0.12715
611.35493	0.10152
609.42637	0.06758
607.49780	0.08026
605.56924	0.09687
603.64067	0.05151
601.71211	0.02597
599.78354	0.02866
597.85498	0.04094
595.92642	0.09667
593.99785	0.12444
592.06929	0.08303
590.14072	0.06161
588.21216	0.07586
586.28359	0.09867
584.35503	0.10580
582.42646	0.09203
580.49790	0.07107
578.56934	0.05824
576.64077	0.08200
574.71221	0.14097
572.78364	0.17055
570.85508	0.14452
568.92651	0.12528
566.99795	0.14067
565.06938	0.17493
563.14082	0.18279
561.21226	0.15834
559.28369	0.13735
557.35513	0.12457
555.42656	0.11720
553.49800	0.12280
551.56943	0.12932
549.64087	0.12111
547.71230	0.09804
545.78374	0.07544
543.85518	0.08425
541.92661	0.10473
539.99805	0.11497
538.06948	0.10866
536.14092	0.08218
534.21235	0.08243
532.28379	0.11753
530.35522	0.12485
528.42666	0.10253
526.49810	0.09824
524.56953	0.12806
522.64097	0.15790
520.71240	0.11468
518.78384	0.03937
516.85527	0.00865
514.92671	0.01595
512.99814	0.06220
511.06958	0.12797
509.14102	0.15381
507.21245	0.12914
505.28389	0.09136
503.35532	0.06302
501.42676	0.04373
499.49819	0.04657
