3997.91411	0.05586
3995.98555	0.05610
3994.05698	0.05629
3992.12842	0.05654
3990.19985	0.05684
3988.27129	0.05699
3986.34272	0.05697
3984.41416	0.05703
3982.48560	0.05731
3980.55703	0.05753
3978.62847	0.05773
3976.69990	0.05845
3974.77134	0.05918
3972.84277	0.05909
3970.91421	0.05872
3968.98564	0.05897
3967.05708	0.05975
3965.12852	0.06024
3963.19995	0.06009
3961.27139	0.05984
3959.34282	0.05987
3957.41426	0.05995
3955.48569	0.06008
3953.55713	0.06030
3951.62856	0.06041
3949.70000	0.06040
3947.77144	0.06019
3945.84287	0.05994
3943.91431	0.05986
3941.98574	0.05986
3940.05718	0.05981
3938.12861	0.05990
3936.20005	0.06023
3934.27148	0.06035
3932.34292	0.06011
3930.41436	0.05978
3928.48579	0.05936
3926.55723	0.05906
3924.62866	0.05927
3922.70010	0.05971
3920.77153	0.05971
3918.84297	0.05926
3916.91440	0.05893
3914.98584	0.05889
3913.05728	0.05885
3911.12871	0.05906
3909.20015	0.05946
3907.27158	0.05944
3905.34302	0.05885
3903.41445	0.05802
3901.48589	0.05732
3899.55732	0.05756
3897.62876	0.05865
3895.70020	0.05914
3893.77163	0.05854
3891.84307	0.05778
3889.91450	0.05815
3887.98594	0.05879
3886.05737	0.05865
3884.12881	0.05836
3882.20024	0.05828
3880.27168	0.05826
3878.34312	0.05869
3876.41455	0.05917
3874.48599	0.05908
3872.55742	0.05878
3870.62886	0.05869
3868.70029	0.05905
3866.77173	0.06001
3864.84316	0.06071
3862.91460	0.06082
3860.98604	0.06093
3859.05747	0.06130
3857.12891	0.06141
3855.20034	0.06064
3853.27178	0.05915
3851.34321	0.05976
3849.41465	0.06225
3847.48608	0.06389
3845.55752	0.06459
3843.62896	0.06485
3841.70039	0.06496
3839.77183	0.06495
3837.84326	0.06524
3835.91470	0.06630
3833.98613	0.06734
3832.05757	0.06804
3830.12900	0.06888
3828.20044	0.06961
3826.27187	0.07021
3824.34331	0.07098
3822.41475	0.07120
3820.48618	0.07133
3818.55762	0.07253
3816.62905	0.07369
3814.70049	0.07485
3812.77192	0.07651
3810.84336	0.07802
3808.91479	0.07919
3806.98623	0.08002
3805.05767	0.08055
3803.12910	0.08084
3801.20054	0.08133
3799.27197	0.08262
3797.34341	0.08417
3795.41484	0.08609
3793.48628	0.08817
3791.55771	0.08965
3789.62915	0.09083
3787.70059	0.09202
3785.77202	0.09310
3783.84346	0.09421
3781.91489	0.09566
3779.98633	0.09734
3778.05776	0.09939
3776.12920	0.10164
3774.20063	0.10343
3772.27207	0.10455
3770.34351	0.10542
3768.41494	0.10701
3766.48638	0.10930
3764.55781	0.11159
3762.62925	0.11326
3760.70068	0.11433
3758.77212	0.11601
3756.84355	0.11904
3754.91499	0.12186
3752.98643	0.12320
3751.05786	0.12409
3749.12930	0.12673
3747.20073	0.12949
3745.27217	0.13124
3743.34360	0.13493
3741.41504	0.13957
3739.48647	0.14178
3737.55791	0.14260
3735.62935	0.14403
3733.70078	0.14789
3731.77222	0.15363
3729.84365	0.15886
3727.91509	0.16289
3725.98652	0.16745
3724.05796	0.17377
3722.12939	0.18151
3720.20083	0.19081
3718.27227	0.20080
3716.34370	0.21002
3714.41514	0.21791
3712.48657	0.22553
3710.55801	0.23549
3708.62944	0.24820
3706.70088	0.26070
3704.77231	0.27239
3702.84375	0.28495
3700.91519	0.30142
3698.98662	0.32051
3697.05806	0.33898
3695.12949	0.35801
3693.20093	0.37702
3691.27236	0.39664
3689.34380	0.42332
3687.41523	0.45914
3685.48667	0.49198
3683.55811	0.52000
3681.62954	0.54862
3679.70098	0.57915
3677.77241	0.61039
3675.84385	0.64758
3673.91528	0.70004
3671.98672	0.74463
3670.05815	0.78335
3668.12959	0.83687
3666.20103	0.88746
3664.27246	0.92939
3662.34390	0.97304
3660.41533	1.01965
3658.48677	1.06502
3656.55820	1.11279
3654.62964	1.16728
3652.70107	1.21367
3650.77251	1.25189
3648.84395	1.30332
3646.91538	1.37076
3644.98682	1.42362
3643.05825	1.46409
3641.12969	1.50444
3639.20112	1.54836
3637.27256	1.59218
3635.34399	1.63420
3633.41543	1.67524
3631.48687	1.71261
3629.55830	1.74982
3627.62974	1.80166
3625.70117	1.85491
3623.77261	1.89156
3621.84404	1.92449
3619.91548	1.96177
3617.98691	2.00773
3616.05835	2.05245
3614.12979	2.08982
3612.20122	2.12929
3610.27266	2.16880
3608.34409	2.20752
3606.41553	2.24935
3604.48696	2.28935
3602.55840	2.32434
3600.62983	2.36109
3598.70127	2.40180
3596.77271	2.44190
3594.84414	2.48095
3592.91558	2.52187
3590.98701	2.56307
3589.05845	2.60043
3587.12988	2.64234
3585.20132	2.69152
3583.27275	2.73542
3581.34419	2.77407
3579.41562	2.81434
3577.48706	2.85688
3575.55850	2.89907
3573.62993	2.94200
3571.70137	2.98381
3569.77280	3.02205
3567.84424	3.06100
3565.91567	3.11266
3563.98711	3.16820
3562.05854	3.21221
3560.12998	3.25171
3558.20142	3.29349
3556.27285	3.33835
3554.34429	3.38248
3552.41572	3.42724
3550.48716	3.47445
3548.55859	3.52124
3546.63003	3.56743
3544.70146	3.61630
3542.77290	3.66682
3540.84434	3.71507
3538.91577	3.76093
3536.98721	3.80720
3535.05864	3.85602
3533.13008	3.90229
3531.20151	3.94697
3529.27295	3.99541
3527.34438	4.04516
3525.41582	4.09004
3523.48726	4.13317
3521.55869	4.18389
3519.63013	4.23852
3517.70156	4.28827
3515.77300	4.33096
3513.84443	4.37065
3511.91587	4.41421
3509.98730	4.46408
3508.05874	4.51688
3506.13018	4.56739
3504.20161	4.61440
3502.27305	4.66384
3500.34448	4.71519
3498.41592	4.75920
3496.48735	4.80013
3494.55879	4.84783
3492.63022	4.89767
3490.70166	4.94286
3488.77310	4.98975
3486.84453	5.04276
3484.91597	5.09524
3482.98740	5.14296
3481.05884	5.18988
3479.13027	5.23624
3477.20171	5.28162
3475.27314	5.33127
3473.34458	5.38567
3471.41602	5.43593
3469.48745	5.47508
3467.55889	5.51500
3465.63032	5.57181
3463.70176	5.63752
3461.77319	5.69081
3459.84463	5.73382
3457.91606	5.78352
3455.98750	5.83398
3454.05894	5.86693
3452.13037	5.90284
3450.20181	5.96822
3448.27324	6.04425
3446.34468	6.09973
3444.41611	6.12131
3442.48755	6.14167
3440.55898	6.18785
3438.63042	6.24559
3436.70186	6.29657
3434.77329	6.33826
3432.84473	6.37615
3430.91616	6.41114
3428.98760	6.45341
3427.05903	6.50197
3425.13047	6.54803
3423.20190	6.59156
3421.27334	6.63297
3419.34478	6.67411
3417.41621	6.73410
3415.48765	6.79775
3413.55908	6.82551
3411.63052	6.85609
3409.70195	6.92456
3407.77339	7.00206
3405.84482	7.04533
3403.91626	7.05844
3401.98770	7.07054
3400.05913	7.10631
3398.13057	7.17409
3396.20200	7.24334
3394.27344	7.30413
3392.34487	7.33170
3390.41631	7.30914
3388.48774	7.30058
3386.55918	7.32906
3384.63062	7.32115
3382.70205	7.30066
3380.77349	7.36969
3378.84492	7.50379
3376.91636	7.56233
3374.98779	7.53762
3373.05923	7.58190
3371.13066	7.65974
3369.20210	7.66067
3367.27354	7.63342
3365.34497	7.64926
3363.41641	7.68016
3361.48784	7.66510
3359.55928	7.63129
3357.63071	7.63390
3355.70215	7.67358
3353.77358	7.70131
3351.84502	7.74986
3349.91646	7.82787
3347.98789	7.86860
3346.05933	7.89403
3344.13076	7.94679
3342.20220	7.99941
3340.27363	8.00025
3338.34507	7.96382
3336.41650	7.91668
3334.48794	7.87371
3332.55937	7.87182
3330.63081	7.93329
3328.70225	7.99598
3326.77368	8.03375
3324.84512	8.05829
3322.91655	8.02766
3320.98799	7.97468
3319.05942	7.92877
3317.13086	7.90210
3315.20229	7.91786
3313.27373	7.97664
3311.34517	8.00450
3309.41660	7.94534
3307.48804	7.88275
3305.55947	7.91309
3303.63091	7.99952
3301.70234	7.98014
3299.77378	7.88773
3297.84521	7.87549
3295.91665	7.97729
3293.98809	8.13041
3292.05952	8.24635
3290.13096	8.26171
3288.20239	8.14274
3286.27383	7.95462
3284.34526	7.83789
3282.41670	7.87958
3280.48813	7.99230
3278.55957	8.05573
3276.63101	8.06597
3274.70244	8.03939
3272.77388	8.00780
3270.84531	8.01331
3268.91675	8.00488
3266.98818	7.91512
3265.05962	7.84906
3263.13105	7.86858
3261.20249	7.91686
3259.27393	7.98538
3257.34536	8.07059
3255.41680	8.09012
3253.48823	7.99732
3251.55967	7.88818
3249.63110	7.86251
3247.70254	7.88256
3245.77397	7.87564
3243.84541	7.84749
3241.91685	7.80894
3239.98828	7.80467
3238.05972	7.85571
3236.13115	7.91402
3234.20259	7.94763
3232.27402	7.95619
3230.34546	7.95740
3228.41689	7.96332
3226.48833	8.02201
3224.55977	8.10446
3222.63120	8.08350
3220.70264	7.99528
3218.77407	7.93020
3216.84551	7.89356
3214.91694	7.85641
3212.98838	7.78144
3211.05981	7.72480
3209.13125	7.72252
3207.20269	7.69710
3205.27412	7.64789
3203.34556	7.63366
3201.41699	7.63630
3199.48843	7.60745
3197.55986	7.53101
3195.63130	7.44543
3193.70273	7.39626
3191.77417	7.38531
3189.84561	7.39442
3187.91704	7.38836
3185.98848	7.34691
3184.05991	7.28485
3182.13135	7.22194
3180.20278	7.18285
3178.27422	7.17607
3176.34565	7.17764
3174.41709	7.11818
3172.48853	6.99616
3170.55996	6.90873
3168.63140	6.86873
3166.70283	6.81743
3164.77427	6.76701
3162.84570	6.73261
3160.91714	6.66422
3158.98857	6.57438
3157.06001	6.51595
3155.13145	6.47487
3153.20288	6.41592
3151.27432	6.34735
3149.34575	6.28795
3147.41719	6.22212
3145.48862	6.13950
3143.56006	6.06485
3141.63149	6.00648
3139.70293	5.93504
3137.77437	5.85063
3135.84580	5.78370
3133.91724	5.73111
3131.98867	5.66896
3130.06011	5.59334
3128.13154	5.51537
3126.20298	5.44444
3124.27441	5.38728
3122.34585	5.33417
3120.41729	5.26795
3118.48872	5.19200
3116.56016	5.11795
3114.63159	5.04964
3112.70303	4.98379
3110.77446	4.91193
3108.84590	4.83630
3106.91733	4.76755
3104.98877	4.70300
3103.06021	4.63672
3101.13164	4.57100
3099.20308	4.50544
3097.27451	4.43609
3095.34595	4.36596
3093.41738	4.30179
3091.48882	4.24110
3089.56025	4.17805
3087.63169	4.11268
3085.70312	4.04795
3083.77456	3.98621
3081.84600	3.92641
3079.91743	3.86671
3077.98887	3.80744
3076.06030	3.74795
3074.13174	3.68812
3072.20317	3.62905
3070.27461	3.57176
3068.34604	3.51632
3066.41748	3.45990
3064.48892	3.40197
3062.56035	3.34519
3060.63179	3.29094
3058.70322	3.23810
3056.77466	3.18378
3054.84609	3.12907
3052.91753	3.07693
3050.98896	3.02590
3049.06040	2.97474
3047.13184	2.92454
3045.20327	2.87475
3043.27471	2.82510
3041.34614	2.77716
3039.41758	2.73071
3037.48901	2.68428
3035.56045	2.63811
3033.63188	2.59328
3031.70332	2.54928
3029.77476	2.50496
3027.84619	2.46075
3025.91763	2.41747
3023.98906	2.37521
3022.06050	2.33387
3020.13193	2.29286
3018.20337	2.25158
3016.27480	2.21102
3014.34624	2.17240
3012.41768	2.13468
3010.48911	2.09692
3008.56055	2.05993
3006.63198	2.02348
3004.70342	1.98677
3002.77485	1.95072
3000.84629	1.91631
2998.91772	1.88305
2996.98916	1.85036
2995.06060	1.81801
2993.13203	1.78604
2991.20347	1.75469
2989.27490	1.72377
2987.34634	1.69351
2985.41777	1.66393
2983.48921	1.63457
2981.56064	1.60572
2979.63208	1.57793
2977.70352	1.55098
2975.77495	1.52456
2973.84639	1.49838
2971.91782	1.47199
2969.98926	1.44549
2968.06069	1.41949
2966.13213	1.39442
2964.20356	1.37017
2962.27500	1.34649
2960.34644	1.32314
2958.41787	1.29975
2956.48931	1.27681
2954.56074	1.25474
2952.63218	1.23258
2950.70361	1.20979
2948.77505	1.18707
2946.84648	1.16498
2944.91792	1.14382
2942.98936	1.12342
2941.06079	1.10320
2939.13223	1.08316
2937.20366	1.06365
2935.27510	1.04449
2933.34653	1.02547
2931.41797	1.00670
2929.48940	0.98803
2927.56084	0.96948
2925.63228	0.95171
2923.70371	0.93486
2921.77515	0.91821
2919.84658	0.90148
2917.91802	0.88506
2915.98945	0.86900
2914.06089	0.85311
2912.13232	0.83772
2910.20376	0.82307
2908.27520	0.80873
2906.34663	0.79447
2904.41807	0.78047
2902.48950	0.76664
2900.56094	0.75298
2898.63237	0.73973
2896.70381	0.72694
2894.77524	0.71467
2892.84668	0.70283
2890.91812	0.69115
2888.98955	0.67968
2887.06099	0.66883
2885.13242	0.65835
2883.20386	0.64737
2881.27529	0.63630
2879.34673	0.62602
2877.41816	0.61626
2875.48960	0.60658
2873.56104	0.59687
2871.63247	0.58692
2869.70391	0.57654
2867.77534	0.56592
2865.84678	0.55535
2863.91821	0.54490
2861.98965	0.53472
2860.06108	0.52486
2858.13252	0.51526
2856.20396	0.50593
2854.27539	0.49711
2852.34683	0.48887
2850.41826	0.48099
2848.48970	0.47305
2846.56113	0.46487
2844.63257	0.45706
2842.70400	0.45017
2840.77544	0.44385
2838.84687	0.43767
2836.91831	0.43164
2834.98975	0.42565
2833.06118	0.41951
2831.13262	0.41332
2829.20405	0.40713
2827.27549	0.40101
2825.34692	0.39518
2823.41836	0.38962
2821.48979	0.38402
2819.56123	0.37823
2817.63267	0.37251
2815.70410	0.36703
2813.77554	0.36169
2811.84697	0.35632
2809.91841	0.35092
2807.98984	0.34567
2806.06128	0.34060
2804.13271	0.33557
2802.20415	0.33051
2800.27559	0.32551
2798.34702	0.32074
2796.41846	0.31626
2794.48989	0.31197
2792.56133	0.30775
2790.63276	0.30343
2788.70420	0.29899
2786.77563	0.29471
2784.84707	0.29054
2782.91851	0.28636
2780.98994	0.28229
2779.06138	0.27841
2777.13281	0.27476
2775.20425	0.27123
2773.27568	0.26750
2771.34712	0.26364
2769.41855	0.26009
2767.48999	0.25682
2765.56143	0.25353
2763.63286	0.25023
2761.70430	0.24704
2759.77573	0.24394
2757.84717	0.24093
2755.91860	0.23794
2753.99004	0.23491
2752.06147	0.23187
2750.13291	0.22891
2748.20435	0.22611
2746.27578	0.22347
2744.34722	0.22083
2742.41865	0.21822
2740.49009	0.21576
2738.56152	0.21336
2736.63296	0.21098
2734.70439	0.20870
2732.77583	0.20653
2730.84727	0.20447
2728.91870	0.20245
2726.99014	0.20028
2725.06157	0.19804
2723.13301	0.19592
2721.20444	0.19399
2719.27588	0.19216
2717.34731	0.19025
2715.41875	0.18826
2713.49019	0.18632
2711.56162	0.18459
2709.63306	0.18296
2707.70449	0.18123
2705.77593	0.17956
2703.84736	0.17808
2701.91880	0.17669
2699.99023	0.17532
2698.06167	0.17390
2696.13311	0.17242
2694.20454	0.17093
2692.27598	0.16956
2690.34741	0.16832
2688.41885	0.16700
2686.49028	0.16559
2684.56172	0.16425
2682.63315	0.16309
2680.70459	0.16212
2678.77603	0.16113
2676.84746	0.15998
2674.91890	0.15888
2672.99033	0.15791
2671.06177	0.15695
2669.13320	0.15599
2667.20464	0.15519
2665.27607	0.15447
2663.34751	0.15355
2661.41895	0.15254
2659.49038	0.15162
2657.56182	0.15083
2655.63325	0.15010
2653.70469	0.14938
2651.77612	0.14868
2649.84756	0.14799
2647.91899	0.14741
2645.99043	0.14693
2644.06187	0.14640
2642.13330	0.14581
2640.20474	0.14523
2638.27617	0.14473
2636.34761	0.14434
2634.41904	0.14397
2632.49048	0.14354
2630.56191	0.14311
2628.63335	0.14276
2626.70479	0.14248
2624.77622	0.14221
2622.84766	0.14192
2620.91909	0.14167
2618.99053	0.14139
2617.06196	0.14102
2615.13340	0.14077
2613.20483	0.14072
2611.27627	0.14075
2609.34771	0.14078
2607.41914	0.14072
2605.49058	0.14053
2603.56201	0.14037
2601.63345	0.14040
2599.70488	0.14045
2597.77632	0.14049
2595.84775	0.14067
2593.91919	0.14091
2591.99062	0.14101
2590.06206	0.14104
2588.13350	0.14127
2586.20493	0.14161
2584.27637	0.14180
2582.34780	0.14185
2580.41924	0.14204
2578.49067	0.14242
2576.56211	0.14286
2574.63354	0.14336
2572.70498	0.14380
2570.77642	0.14403
2568.84785	0.14414
2566.91929	0.14436
2564.99072	0.14476
2563.06216	0.14525
2561.13359	0.14578
2559.20503	0.14640
2557.27646	0.14699
2555.34790	0.14743
2553.41934	0.14783
2551.49077	0.14828
2549.56221	0.14883
2547.63364	0.14943
2545.70508	0.15003
2543.77651	0.15061
2541.84795	0.15123
2539.91938	0.15198
2537.99082	0.15276
2536.06226	0.15346
2534.13369	0.15404
2532.20513	0.15458
2530.27656	0.15512
2528.34800	0.15581
2526.41943	0.15665
2524.49087	0.15752
2522.56230	0.15832
2520.63374	0.15896
2518.70518	0.15963
2516.77661	0.16047
2514.84805	0.16130
2512.91948	0.16206
2510.99092	0.16281
2509.06235	0.16367
2507.13379	0.16459
2505.20522	0.16542
2503.27666	0.16622
2501.34810	0.16707
2499.41953	0.16784
2497.49097	0.16853
2495.56240	0.16932
2493.63384	0.17026
2491.70527	0.17123
2489.77671	0.17212
2487.84814	0.17289
2485.91958	0.17372
2483.99102	0.17469
2482.06245	0.17570
2480.13389	0.17670
2478.20532	0.17767
2476.27676	0.17854
2474.34819	0.17930
2472.41963	0.18008
2470.49106	0.18100
2468.56250	0.18197
2466.63394	0.18277
2464.70537	0.18350
2462.77681	0.18446
2460.84824	0.18553
2458.91968	0.18652
2456.99111	0.18752
2455.06255	0.18859
2453.13398	0.18963
2451.20542	0.19053
2449.27686	0.19131
2447.34829	0.19222
2445.41973	0.19332
2443.49116	0.19441
2441.56260	0.19536
2439.63403	0.19622
2437.70547	0.19710
2435.77690	0.19815
2433.84834	0.19940
2431.91978	0.20061
2429.99121	0.20169
2428.06265	0.20277
2426.13408	0.20384
2424.20552	0.20481
2422.27695	0.20578
2420.34839	0.20684
2418.41982	0.20797
2416.49126	0.20914
2414.56270	0.21036
2412.63413	0.21158
2410.70557	0.21273
2408.77700	0.21390
2406.84844	0.21514
2404.91987	0.21633
2402.99131	0.21744
2401.06274	0.21857
2399.13418	0.21973
2397.20562	0.22092
2395.27705	0.22217
2393.34849	0.22346
2391.41992	0.22468
2389.49136	0.22566
2387.56279	0.22619
2385.63423	0.22603
2383.70566	0.22480
2381.77710	0.22237
2379.84854	0.21881
2377.91997	0.21430
2375.99141	0.20879
2374.06284	0.20212
2372.13428	0.19417
2370.20571	0.18530
2368.27715	0.17615
2366.34858	0.16739
2364.42002	0.15960
2362.49146	0.15407
2360.56289	0.15246
2358.63433	0.15501
2356.70576	0.16206
2354.77720	0.17324
2352.84863	0.18704
2350.92007	0.20087
2348.99150	0.20950
2347.06294	0.21035
2345.13437	0.20433
2343.20581	0.19647
2341.27725	0.19361
2339.34868	0.19570
2337.42012	0.19929
2335.49155	0.20293
2333.56299	0.20666
2331.63442	0.21062
2329.70586	0.21459
2327.77729	0.21850
2325.84873	0.22299
2323.92017	0.22842
2321.99160	0.23466
2320.06304	0.24132
2318.13447	0.24779
2316.20591	0.25355
2314.27734	0.25824
2312.34878	0.26202
2310.42021	0.26584
2308.49165	0.27027
2306.56309	0.27490
2304.63452	0.27921
2302.70596	0.28291
2300.77739	0.28607
2298.84883	0.28916
2296.92026	0.29239
2294.99170	0.29557
2293.06313	0.29864
2291.13457	0.30166
2289.20601	0.30462
2287.27744	0.30757
2285.34888	0.31051
2283.42031	0.31318
2281.49175	0.31526
2279.56318	0.31692
2277.63462	0.31852
2275.70605	0.32025
2273.77749	0.32216
2271.84893	0.32421
2269.92036	0.32638
2267.99180	0.32863
2266.06323	0.33086
2264.13467	0.33308
2262.20610	0.33542
2260.27754	0.33777
2258.34897	0.34007
2256.42041	0.34244
2254.49185	0.34489
2252.56328	0.34728
2250.63472	0.34960
2248.70615	0.35187
2246.77759	0.35414
2244.84902	0.35650
2242.92046	0.35895
2240.99189	0.36137
2239.06333	0.36366
2237.13477	0.36591
2235.20620	0.36825
2233.27764	0.37054
2231.34907	0.37273
2229.42051	0.37496
2227.49194	0.37722
2225.56338	0.37939
2223.63481	0.38158
2221.70625	0.38380
2219.77769	0.38590
2217.84912	0.38796
2215.92056	0.39013
2213.99199	0.39227
2212.06343	0.39436
2210.13486	0.39650
2208.20630	0.39866
2206.27773	0.40080
2204.34917	0.40293
2202.42061	0.40504
2200.49204	0.40705
2198.56348	0.40894
2196.63491	0.41084
2194.70635	0.41288
2192.77778	0.41495
2190.84922	0.41687
2188.92065	0.41866
2186.99209	0.42044
2185.06353	0.42219
2183.13496	0.42389
2181.20640	0.42564
2179.27783	0.42736
2177.34927	0.42891
2175.42070	0.43032
2173.49214	0.43184
2171.56357	0.43344
2169.63501	0.43494
2167.70645	0.43632
2165.77788	0.43758
2163.84932	0.43873
2161.92075	0.43983
2159.99219	0.44096
2158.06362	0.44203
2156.13506	0.44302
2154.20649	0.44386
2152.27793	0.44457
2150.34937	0.44529
2148.42080	0.44600
2146.49224	0.44655
2144.56367	0.44701
2142.63511	0.44755
2140.70654	0.44810
2138.77798	0.44846
2136.84941	0.44854
2134.92085	0.44854
2132.99229	0.44857
2131.06372	0.44857
2129.13516	0.44848
2127.20659	0.44833
2125.27803	0.44809
2123.34946	0.44773
2121.42090	0.44731
2119.49233	0.44672
2117.56377	0.44598
2115.63521	0.44521
2113.70664	0.44446
2111.77808	0.44370
2109.84951	0.44288
2107.92095	0.44192
2105.99238	0.44079
2104.06382	0.43953
2102.13525	0.43819
2100.20669	0.43685
2098.27812	0.43548
2096.34956	0.43402
2094.42100	0.43254
2092.49243	0.43107
2090.56387	0.42954
2088.63530	0.42781
2086.70674	0.42594
2084.77817	0.42404
2082.84961	0.42221
2080.92104	0.42035
2078.99248	0.41835
2077.06392	0.41621
2075.13535	0.41403
2073.20679	0.41190
2071.27822	0.40977
2069.34966	0.40764
2067.42109	0.40549
2065.49253	0.40317
2063.56396	0.40068
2061.63540	0.39829
2059.70684	0.39599
2057.77827	0.39357
2055.84971	0.39104
2053.92114	0.38845
2051.99258	0.38576
2050.06401	0.38303
2048.13545	0.38049
2046.20688	0.37801
2044.27832	0.37542
2042.34976	0.37272
2040.42119	0.36998
2038.49263	0.36727
2036.56406	0.36457
2034.63550	0.36190
2032.70693	0.35919
2030.77837	0.35637
2028.84980	0.35351
2026.92124	0.35075
2024.99268	0.34804
2023.06411	0.34537
2021.13555	0.34268
2019.20698	0.33991
2017.27842	0.33705
2015.34985	0.33420
2013.42129	0.33147
2011.49272	0.32887
2009.56416	0.32630
2007.63560	0.32365
2005.70703	0.32097
2003.77847	0.31827
2001.84990	0.31558
1999.92134	0.31297
1997.99277	0.31036
1996.06421	0.30776
1994.13564	0.30523
1992.20708	0.30268
1990.27852	0.30007
1988.34995	0.29754
1986.42139	0.29515
1984.49282	0.29286
1982.56426	0.29059
1980.63569	0.28832
1978.70713	0.28612
1976.77856	0.28391
1974.85000	0.28171
1972.92144	0.27957
1970.99287	0.27750
1969.06431	0.27547
1967.13574	0.27341
1965.20718	0.27129
1963.27861	0.26924
1961.35005	0.26731
1959.42148	0.26542
1957.49292	0.26352
1955.56436	0.26161
1953.63579	0.25985
1951.70723	0.25826
1949.77866	0.25671
1947.85010	0.25507
1945.92153	0.25345
1943.99297	0.25191
1942.06440	0.25044
1940.13584	0.24905
1938.20728	0.24771
1936.27871	0.24637
1934.35015	0.24501
1932.42158	0.24372
1930.49302	0.24255
1928.56445	0.24147
1926.63589	0.24041
1924.70732	0.23934
1922.77876	0.23827
1920.85020	0.23731
1918.92163	0.23644
1916.99307	0.23558
1915.06450	0.23474
1913.13594	0.23385
1911.20737	0.23303
1909.27881	0.23237
1907.35024	0.23178
1905.42168	0.23118
1903.49312	0.23062
1901.56455	0.23007
1899.63599	0.22952
1897.70742	0.22908
1895.77886	0.22867
1893.85029	0.22824
1891.92173	0.22777
1889.99316	0.22742
1888.06460	0.22720
1886.13604	0.22707
1884.20747	0.22698
1882.27891	0.22686
1880.35034	0.22669
1878.42178	0.22661
1876.49321	0.22669
1874.56465	0.22674
1872.63608	0.22670
1870.70752	0.22653
1868.77896	0.22655
1866.85039	0.22690
1864.92183	0.22726
1862.99326	0.22755
1861.06470	0.22788
1859.13613	0.22833
1857.20757	0.22875
1855.27900	0.22914
1853.35044	0.22951
1851.42187	0.22994
1849.49331	0.23045
1847.56475	0.23102
1845.63618	0.23160
1843.70762	0.23242
1841.77905	0.23345
1839.85049	0.23418
1837.92192	0.23496
1835.99336	0.23587
1834.06479	0.23679
1832.13623	0.23751
1830.20767	0.23844
1828.27910	0.23985
1826.35054	0.24120
1824.42197	0.24268
1822.49341	0.24428
1820.56484	0.24579
1818.63628	0.24720
1816.70771	0.24873
1814.77915	0.25028
1812.85059	0.25181
1810.92202	0.25359
1808.99346	0.25575
1807.06489	0.25797
1805.13633	0.25994
1803.20776	0.26196
1801.27920	0.26424
1799.35063	0.26700
1797.42207	0.26961
1795.49351	0.27187
1793.56494	0.27424
1791.63638	0.27765
1789.70781	0.28159
1787.77925	0.28468
1785.85068	0.28785
1783.92212	0.29145
1781.99355	0.29525
1780.06499	0.29925
1778.13643	0.30355
1776.20786	0.30758
1774.27930	0.31153
1772.35073	0.31678
1770.42217	0.32305
1768.49360	0.32883
1766.56504	0.33444
1764.63647	0.33994
1762.70791	0.34558
1760.77935	0.35280
1758.85078	0.35985
1756.92222	0.36693
1754.99365	0.37474
1753.06509	0.38168
1751.13652	0.38946
1749.20796	0.39943
1747.27939	0.40994
1745.35083	0.41950
1743.42227	0.42938
1741.49370	0.43985
1739.56514	0.45204
1737.63657	0.46436
1735.70801	0.47487
1733.77944	0.49074
1731.85088	0.51085
1729.92231	0.52714
1727.99375	0.54337
1726.06519	0.56053
1724.13662	0.57893
1722.20806	0.59864
1720.27949	0.61638
1718.35093	0.63658
1716.42236	0.66775
1714.49380	0.69918
1712.56523	0.72489
1710.63667	0.74923
1708.70811	0.77485
1706.77954	0.80355
1704.85098	0.83809
1702.92241	0.86922
1700.99385	0.89933
1699.06528	0.94400
1697.13672	0.98617
1695.20815	1.03063
1693.27959	1.07398
1691.35103	1.10815
1689.42246	1.14689
1687.49390	1.18755
1685.56533	1.22594
1683.63677	1.28561
1681.70820	1.34992
1679.77964	1.39213
1677.85107	1.43172
1675.92251	1.47601
1673.99395	1.53022
1672.06538	1.57855
1670.13682	1.62592
1668.20825	1.68805
1666.27969	1.73852
1664.35112	1.77983
1662.42256	1.83071
1660.49399	1.89019
1658.56543	1.93886
1656.63687	1.97747
1654.70830	2.00947
1652.77974	2.06055
1650.85117	2.11491
1648.92261	2.13554
1646.99404	2.16111
1645.06548	2.19305
1643.13691	2.21583
1641.20835	2.22901
1639.27979	2.23935
1637.35122	2.24507
1635.42266	2.24421
1633.49409	2.23769
1631.56553	2.22696
1629.63696	2.21217
1627.70840	2.18503
1625.77983	2.15311
1623.85127	2.11437
1621.92271	2.06707
1619.99414	2.02375
1618.06558	1.98024
1616.13701	1.91903
1614.20845	1.85755
1612.27988	1.81053
1610.35132	1.76085
1608.42275	1.70670
1606.49419	1.65359
1604.56562	1.60500
1602.63706	1.55811
1600.70850	1.51231
1598.77993	1.46996
1596.85137	1.42948
1594.92280	1.38978
1592.99424	1.35156
1591.06567	1.31657
1589.13711	1.28362
1587.20854	1.25246
1585.27998	1.22323
1583.35142	1.19597
1581.42285	1.17100
1579.49429	1.14911
1577.56572	1.12887
1575.63716	1.10467
1573.70859	1.08397
1571.78003	1.07023
1569.85146	1.05525
1567.92290	1.03869
1565.99434	1.02639
1564.06577	1.01639
1562.13721	1.00768
1560.20864	1.00005
1558.28008	0.99011
1556.35151	0.98385
1554.42295	0.98039
1552.49438	0.97635
1550.56582	0.97109
1548.63726	0.96418
1546.70869	0.95652
1544.78013	0.94726
1542.85156	0.93540
1540.92300	0.91981
1538.99443	0.89969
1537.06587	0.88631
1535.13730	0.87660
1533.20874	0.86325
1531.28018	0.84918
1529.35161	0.83872
1527.42305	0.82818
1525.49448	0.81685
1523.56592	0.80690
1521.63735	0.79731
1519.70879	0.78843
1517.78022	0.78145
1515.85166	0.77360
1513.92310	0.76554
1511.99453	0.75809
1510.06597	0.75037
1508.13740	0.74219
1506.20884	0.73189
1504.28027	0.72493
1502.35171	0.72090
1500.42314	0.71654
1498.49458	0.71137
1496.56602	0.70575
1494.63745	0.70091
1492.70889	0.69689
1490.78032	0.69246
1488.85176	0.68756
1486.92319	0.68415
1484.99463	0.68179
1483.06606	0.67958
1481.13750	0.67744
1479.20894	0.67558
1477.28037	0.67410
1475.35181	0.67263
1473.42324	0.67109
1471.49468	0.66973
1469.56611	0.66847
1467.63755	0.66672
1465.70898	0.66454
1463.78042	0.66255
1461.85186	0.66120
1459.92329	0.65992
1457.99473	0.65824
1456.06616	0.65624
1454.13760	0.65419
1452.20903	0.65213
1450.28047	0.64992
1448.35190	0.64761
1446.42334	0.64530
1444.49478	0.64316
1442.56621	0.64110
1440.63765	0.63889
1438.70908	0.63632
1436.78052	0.63316
1434.85195	0.63039
1432.92339	0.62849
1430.99482	0.62683
1429.06626	0.62551
1427.13770	0.62471
1425.20913	0.62397
1423.28057	0.62325
1421.35200	0.62276
1419.42344	0.62216
1417.49487	0.62138
1415.56631	0.62055
1413.63774	0.61962
1411.70918	0.61876
1409.78062	0.61838
1407.85205	0.61833
1405.92349	0.61816
1403.99492	0.61771
1402.06636	0.61683
1400.13779	0.61548
1398.20923	0.61380
1396.28066	0.61194
1394.35210	0.60967
1392.42354	0.60720
1390.49497	0.60479
1388.56641	0.60209
1386.63784	0.59900
1384.70928	0.59613
1382.78071	0.59360
1380.85215	0.59110
1378.92358	0.58877
1376.99502	0.58673
1375.06646	0.58506
1373.13789	0.58409
1371.20933	0.58369
1369.28076	0.58323
1367.35220	0.58226
1365.42363	0.58087
1363.49507	0.57949
1361.56650	0.57843
1359.63794	0.57751
1357.70937	0.57645
1355.78081	0.57523
1353.85225	0.57406
1351.92368	0.57309
1349.99512	0.57215
1348.06655	0.57110
1346.13799	0.57006
1344.20942	0.56911
1342.28086	0.56816
1340.35229	0.56719
1338.42373	0.56638
1336.49517	0.56583
1334.56660	0.56535
1332.63804	0.56487
1330.70947	0.56455
1328.78091	0.56435
1326.85234	0.56416
1324.92378	0.56406
1322.99521	0.56400
1321.06665	0.56384
1319.13809	0.56362
1317.20952	0.56331
1315.28096	0.56287
1313.35239	0.56244
1311.42383	0.56199
1309.49526	0.56132
1307.56670	0.56045
1305.63813	0.55957
1303.70957	0.55867
1301.78101	0.55770
1299.85244	0.55667
1297.92388	0.55569
1295.99531	0.55477
1294.06675	0.55378
1292.13818	0.55270
1290.20962	0.55167
1288.28105	0.55086
1286.35249	0.55014
1284.42393	0.54938
1282.49536	0.54860
1280.56680	0.54768
1278.63823	0.54661
1276.70967	0.54567
1274.78110	0.54493
1272.85254	0.54428
1270.92397	0.54371
1268.99541	0.54311
1267.06685	0.54239
1265.13828	0.54167
1263.20972	0.54115
1261.28115	0.54070
1259.35259	0.54020
1257.42402	0.53970
1255.49546	0.53924
1253.56689	0.53889
1251.63833	0.53881
1249.70977	0.53885
1247.78120	0.53873
1245.85264	0.53840
1243.92407	0.53792
1241.99551	0.53727
1240.06694	0.53641
1238.13838	0.53541
1236.20981	0.53429
1234.28125	0.53297
1232.35269	0.53147
1230.42412	0.53000
1228.49556	0.52869
1226.56699	0.52743
1224.63843	0.52619
1222.70986	0.52501
1220.78130	0.52383
1218.85273	0.52267
1216.92417	0.52165
1214.99561	0.52085
1213.06704	0.52019
1211.13848	0.51959
1209.20991	0.51909
1207.28135	0.51859
1205.35278	0.51794
1203.42422	0.51719
1201.49565	0.51642
1199.56709	0.51565
1197.63853	0.51491
1195.70996	0.51427
1193.78140	0.51370
1191.85283	0.51314
1189.92427	0.51270
1187.99570	0.51235
1186.06714	0.51201
1184.13857	0.51186
1182.21001	0.51213
1180.28145	0.51286
1178.35288	0.51381
1176.42432	0.51480
1174.49575	0.51583
1172.56719	0.51680
1170.63862	0.51768
1168.71006	0.51840
1166.78149	0.51890
1164.85293	0.51936
1162.92437	0.51994
1160.99580	0.52046
1159.06724	0.52072
1157.13867	0.52047
1155.21011	0.51967
1153.28154	0.51850
1151.35298	0.51695
1149.42441	0.51485
1147.49585	0.51224
1145.56729	0.50942
1143.63872	0.50665
1141.71016	0.50417
1139.78159	0.50216
1137.85303	0.50054
1135.92446	0.49928
1133.99590	0.49840
1132.06733	0.49782
1130.13877	0.49730
1128.21021	0.49676
1126.28164	0.49615
1124.35308	0.49538
1122.42451	0.49478
1120.49595	0.49461
1118.56738	0.49463
1116.63882	0.49484
1114.71025	0.49521
1112.78169	0.49563
1110.85312	0.49629
1108.92456	0.49719
1106.99600	0.49816
1105.06743	0.49922
1103.13887	0.50027
1101.21030	0.50122
1099.28174	0.50251
1097.35317	0.50452
1095.42461	0.50731
1093.49604	0.51104
1091.56748	0.51594
1089.63892	0.52202
1087.71035	0.52915
1085.78179	0.53712
1083.85322	0.54552
1081.92466	0.55332
1079.99609	0.55908
1078.06753	0.56215
1076.13896	0.56243
1074.21040	0.55969
1072.28184	0.55425
1070.35327	0.54730
1068.42471	0.53999
1066.49614	0.53291
1064.56758	0.52647
1062.63901	0.52101
1060.71045	0.51643
1058.78188	0.51245
1056.85332	0.50891
1054.92476	0.50567
1052.99619	0.50272
1051.06763	0.50046
1049.13906	0.49912
1047.21050	0.49825
1045.28193	0.49755
1043.35337	0.49724
1041.42480	0.49739
1039.49624	0.49764
1037.56768	0.49774
1035.63911	0.49780
1033.71055	0.49769
1031.78198	0.49710
1029.85342	0.49591
1027.92485	0.49439
1025.99629	0.49302
1024.06772	0.49210
1022.13916	0.49153
1020.21060	0.49131
1018.28203	0.49135
1016.35347	0.49125
1014.42490	0.49092
1012.49634	0.49065
1010.56777	0.49079
1008.63921	0.49126
1006.71064	0.49187
1004.78208	0.49283
1002.85352	0.49446
1000.92495	0.49693
998.99639	0.50023
997.06782	0.50423
995.13926	0.50851
993.21069	0.51260
991.28213	0.51586
989.35356	0.51790
987.42500	0.51881
985.49644	0.51885
983.56787	0.51863
981.63931	0.51887
979.71074	0.51982
977.78218	0.52141
975.85361	0.52347
973.92505	0.52584
971.99648	0.52851
970.06792	0.53154
968.13936	0.53497
966.21079	0.53903
964.28223	0.54378
962.35366	0.54884
960.42510	0.55400
958.49653	0.55947
956.56797	0.56520
954.63940	0.57101
952.71084	0.57686
950.78228	0.58259
948.85371	0.58852
946.92515	0.59508
944.99658	0.60170
943.06802	0.60763
941.13945	0.61315
939.21089	0.61864
937.28232	0.62411
935.35376	0.62974
933.42520	0.63564
931.49663	0.64155
929.56807	0.64741
927.63950	0.65334
925.71094	0.65960
923.78237	0.66606
921.85381	0.67239
919.92524	0.67879
917.99668	0.68565
916.06812	0.69286
914.13955	0.70002
912.21099	0.70736
910.28242	0.71515
908.35386	0.72318
906.42529	0.73164
904.49673	0.74041
902.56816	0.74922
900.63960	0.75817
898.71104	0.76743
896.78247	0.77759
894.85391	0.78856
892.92534	0.79896
890.99678	0.80783
889.06821	0.81645
887.13965	0.82681
885.21108	0.83842
883.28252	0.84897
881.35396	0.85895
879.42539	0.87110
877.49683	0.88415
875.56826	0.89482
873.63970	0.90440
871.71113	0.91553
869.78257	0.92781
867.85400	0.94047
865.92544	0.95292
863.99687	0.96469
862.06831	0.97699
860.13975	0.98923
858.21118	0.99904
856.28262	1.00811
854.35405	1.02026
852.42549	1.03334
850.49692	1.04302
848.56836	1.05177
846.63979	1.06297
844.71123	1.07464
842.78267	1.08528
840.85410	1.09610
838.92554	1.10727
836.99697	1.11795
835.06841	1.12533
833.13984	1.13073
831.21128	1.14199
829.28271	1.15783
827.35415	1.16886
825.42559	1.17425
823.49702	1.17994
821.56846	1.18622
819.63989	1.19306
817.71133	1.20256
815.78276	1.21104
813.85420	1.21461
811.92563	1.21917
809.99707	1.23573
808.06851	1.25735
806.13994	1.25925
804.21138	1.23909
802.28281	1.23060
800.35425	1.25368
798.42568	1.27719
796.49712	1.26203
794.56855	1.23164
792.63999	1.22751
790.71143	1.24851
788.78286	1.25683
786.85430	1.22791
784.92573	1.18591
782.99717	1.16634
781.06860	1.18479
779.14004	1.21085
777.21147	1.19393
775.28291	1.15831
773.35435	1.13712
771.42578	1.12904
769.49722	1.13706
767.56865	1.16183
765.64009	1.16414
763.71152	1.11998
761.78296	1.07889
759.85439	1.04831
757.92583	1.01662
755.99727	1.02034
754.06870	1.05476
752.14014	1.05633
750.21157	1.02230
748.28301	0.97968
746.35444	0.90625
744.42588	0.82417
742.49731	0.78780
740.56875	0.76916
738.64019	0.70452
736.71162	0.61486
734.78306	0.54135
732.85449	0.48775
730.92593	0.41707
728.99736	0.26852
727.06880	0.05199
725.14023	-0.18066
723.21167	-0.29567
721.28311	-0.27292
719.35454	-0.18064
717.42598	-0.11197
715.49741	-0.12465
713.56885	-0.09262
711.64028	0.02423
709.71172	0.11836
707.78315	0.15994
705.85459	0.17486
703.92603	0.18067
701.99746	0.21374
700.06890	0.28903
698.14033	0.35450
696.21177	0.35058
694.28320	0.28658
692.35464	0.22665
690.42607	0.22053
688.49751	0.26321
686.56895	0.32015
684.64038	0.29456
682.71182	0.17432
680.78325	0.08495
678.85469	0.06620
676.92612	0.11117
674.99756	0.18830
673.06899	0.25552
671.14043	0.27276
669.21187	0.23955
667.28330	0.19202
665.35474	0.16967
663.42617	0.16572
661.49761	0.18641
659.56904	0.24278
657.64048	0.26881
655.71191	0.23792
653.78335	0.22474
651.85479	0.23810
649.92622	0.24572
647.99766	0.25281
646.06909	0.29062
644.14053	0.33832
642.21196	0.32993
640.28340	0.26567
638.35483	0.21049
636.42627	0.19681
634.49771	0.21403
632.56914	0.21755
630.64058	0.20696
628.71201	0.23104
626.78345	0.28811
624.85488	0.32727
622.92632	0.32095
620.99775	0.26583
619.06919	0.20470
617.14062	0.18219
615.21206	0.16209
613.28350	0.15147
611.35493	0.17225
609.42637	0.19921
607.49780	0.20633
605.56924	0.20573
603.64067	0.22988
601.71211	0.24394
599.78354	0.20112
597.85498	0.16535
595.92642	0.17307
593.99785	0.17734
592.06929	0.16957
590.14072	0.19937
588.21216	0.25434
586.28359	0.26650
584.35503	0.23339
582.42646	0.19318
580.49790	0.17775
578.56934	0.20163
576.64077	0.22303
574.71221	0.21740
572.78364	0.19360
570.85508	0.15555
568.92651	0.14586
566.99795	0.17467
565.06938	0.20424
563.14082	0.19924
561.21226	0.16728
559.28369	0.14208
557.35513	0.13632
555.42656	0.13340
553.49800	0.12194
551.56943	0.10298
549.64087	0.09586
547.71230	0.14034
545.78374	0.22566
543.85518	0.25828
541.92661	0.19270
539.99805	0.13352
538.06948	0.13204
536.14092	0.15994
534.21235	0.17541
532.28379	0.18513
530.35522	0.19569
528.42666	0.19605
526.49810	0.18209
524.56953	0.17602
522.64097	0.20020
520.71240	0.21570
518.78384	0.20741
516.85527	0.20873
514.92671	0.20050
512.99814	0.18139
511.06958	0.18663
509.14102	0.20056
507.21245	0.19088
505.28389	0.15851
503.35532	0.12328
501.42676	0.11808
499.49819	0.13419
