3997.91411	0.05745
3995.98555	0.05789
3994.05698	0.05822
3992.12842	0.05850
3990.19985	0.05874
3988.27129	0.05911
3986.34272	0.05946
3984.41416	0.05953
3982.48560	0.05978
3980.55703	0.06048
3978.62847	0.06090
3976.69990	0.06069
3974.77134	0.06039
3972.84277	0.06057
3970.91421	0.06122
3968.98564	0.06165
3967.05708	0.06155
3965.12852	0.06170
3963.19995	0.06265
3961.27139	0.06364
3959.34282	0.06371
3957.41426	0.06316
3955.48569	0.06273
3953.55713	0.06255
3951.62856	0.06265
3949.70000	0.06308
3947.77144	0.06378
3945.84287	0.06417
3943.91431	0.06425
3941.98574	0.06449
3940.05718	0.06431
3938.12861	0.06359
3936.20005	0.06292
3934.27148	0.06284
3932.34292	0.06373
3930.41436	0.06481
3928.48579	0.06479
3926.55723	0.06436
3924.62866	0.06466
3922.70010	0.06500
3920.77153	0.06469
3918.84297	0.06431
3916.91440	0.06418
3914.98584	0.06398
3913.05728	0.06347
3911.12871	0.06283
3909.20015	0.06238
3907.27158	0.06266
3905.34302	0.06428
3903.41445	0.06669
3901.48589	0.06797
3899.55732	0.06764
3897.62876	0.06657
3895.70020	0.06547
3893.77163	0.06511
3891.84307	0.06551
3889.91450	0.06556
3887.98594	0.06511
3886.05737	0.06548
3884.12881	0.06635
3882.20024	0.06664
3880.27168	0.06681
3878.34312	0.06636
3876.41455	0.06543
3874.48599	0.06561
3872.55742	0.06685
3870.62886	0.06814
3868.70029	0.06869
3866.77173	0.06843
3864.84316	0.06915
3862.91460	0.07047
3860.98604	0.06999
3859.05747	0.06892
3857.12891	0.06938
3855.20034	0.07159
3853.27178	0.07490
3851.34321	0.07561
3849.41465	0.07285
3847.48608	0.07096
3845.55752	0.07079
3843.62896	0.07190
3841.70039	0.07405
3839.77183	0.07684
3837.84326	0.07903
3835.91470	0.07925
3833.98613	0.07833
3832.05757	0.07773
3830.12900	0.07743
3828.20044	0.07730
3826.27187	0.07821
3824.34331	0.08012
3822.41475	0.08239
3820.48618	0.08529
3818.55762	0.08679
3816.62905	0.08639
3814.70049	0.08557
3812.77192	0.08461
3810.84336	0.08458
3808.91479	0.08587
3806.98623	0.08793
3805.05767	0.08982
3803.12910	0.09171
3801.20054	0.09429
3799.27197	0.09563
3797.34341	0.09530
3795.41484	0.09498
3793.48628	0.09459
3791.55771	0.09457
3789.62915	0.09531
3787.70059	0.09686
3785.77202	0.09927
3783.84346	0.10151
3781.91489	0.10283
3779.98633	0.10430
3778.05776	0.10614
3776.12920	0.10714
3774.20063	0.10807
3772.27207	0.10990
3770.34351	0.11257
3768.41494	0.11541
3766.48638	0.11762
3764.55781	0.11954
3762.62925	0.12120
3760.70068	0.12330
3758.77212	0.12675
3756.84355	0.13000
3754.91499	0.13178
3752.98643	0.13403
3751.05786	0.13851
3749.12930	0.14361
3747.20073	0.14636
3745.27217	0.14890
3743.34360	0.15241
3741.41504	0.15487
3739.48647	0.15710
3737.55791	0.16095
3735.62935	0.16701
3733.70078	0.17348
3731.77222	0.17687
3729.84365	0.17886
3727.91509	0.18229
3725.98652	0.18809
3724.05796	0.19516
3722.12939	0.20195
3720.20083	0.20873
3718.27227	0.21561
3716.34370	0.22244
3714.41514	0.22983
3712.48657	0.24005
3710.55801	0.25441
3708.62944	0.26765
3706.70088	0.27750
3704.77231	0.28787
3702.84375	0.30102
3700.91519	0.31803
3698.98662	0.33610
3697.05806	0.35300
3695.12949	0.37136
3693.20093	0.39160
3691.27236	0.41427
3689.34380	0.44323
3687.41523	0.47674
3685.48667	0.50516
3683.55811	0.53034
3681.62954	0.55818
3679.70098	0.59022
3677.77241	0.62479
3675.84385	0.66574
3673.91528	0.71837
3671.98672	0.76033
3670.05815	0.79855
3668.12959	0.85092
3666.20103	0.89793
3664.27246	0.93729
3662.34390	0.98033
3660.41533	1.02745
3658.48677	1.07425
3656.55820	1.12411
3654.62964	1.17887
3652.70107	1.22458
3650.77251	1.26558
3648.84395	1.32333
3646.91538	1.39203
3644.98682	1.44011
3643.05825	1.47709
3641.12969	1.51646
3639.20112	1.56044
3637.27256	1.60471
3635.34399	1.64800
3633.41543	1.69125
3631.48687	1.73224
3629.55830	1.77535
3627.62974	1.83070
3625.70117	1.87969
3623.77261	1.91216
3621.84404	1.94416
3619.91548	1.98265
3617.98691	2.03040
3616.05835	2.07544
3614.12979	2.11211
3612.20122	2.15069
3610.27266	2.18969
3608.34409	2.22898
3606.41553	2.27084
3604.48696	2.30992
3602.55840	2.34510
3600.62983	2.38319
3598.70127	2.42455
3596.77271	2.46463
3594.84414	2.50500
3592.91558	2.54711
3590.98701	2.58758
3589.05845	2.62608
3587.12988	2.67164
3585.20132	2.72001
3583.27275	2.75999
3581.34419	2.79728
3579.41562	2.83666
3577.48706	2.87755
3575.55850	2.91976
3573.62993	2.96389
3571.70137	3.00701
3569.77280	3.04890
3567.84424	3.09472
3565.91567	3.14992
3563.98711	3.20095
3562.05854	3.24106
3560.12998	3.28080
3558.20142	3.32331
3556.27285	3.36670
3554.34429	3.41036
3552.41572	3.45866
3550.48716	3.50968
3548.55859	3.55583
3546.63003	3.59879
3544.70146	3.64545
3542.77290	3.69381
3540.84434	3.74205
3538.91577	3.79286
3536.98721	3.84247
3535.05864	3.89024
3533.13008	3.93756
3531.20151	3.98375
3529.27295	4.03102
3527.34438	4.08348
3525.41582	4.13682
3523.48726	4.18517
3521.55869	4.23076
3519.63013	4.27663
3517.70156	4.32470
3515.77300	4.37178
3513.84443	4.41472
3511.91587	4.45861
3509.98730	4.51057
3508.05874	4.56610
3506.13018	4.61756
3504.20161	4.66677
3502.27305	4.71745
3500.34448	4.76861
3498.41592	4.81443
3496.48735	4.85757
3494.55879	4.90539
3492.63022	4.95478
3490.70166	5.00344
3488.77310	5.05742
3486.84453	5.11273
3484.91597	5.16205
3482.98740	5.20995
3481.05884	5.25825
3479.13027	5.30478
3477.20171	5.35659
3475.27314	5.41430
3473.34458	5.46495
3471.41602	5.50383
3469.48745	5.53873
3467.55889	5.58098
3465.63032	5.63661
3463.70176	5.69952
3461.77319	5.76164
3459.84463	5.82055
3457.91606	5.86667
3455.98750	5.90516
3454.05894	5.95899
3452.13037	6.01850
3450.20181	6.05924
3448.27324	6.10618
3446.34468	6.18227
3444.41611	6.24732
3442.48755	6.29912
3440.55898	6.36008
3438.63042	6.40924
3436.70186	6.44395
3434.77329	6.47922
3432.84473	6.52124
3430.91616	6.56997
3428.98760	6.62217
3427.05903	6.67961
3425.13047	6.74526
3423.20190	6.80267
3421.27334	6.84707
3419.34478	6.88667
3417.41621	6.92980
3415.48765	6.97718
3413.55908	7.01488
3411.63052	7.05535
3409.70195	7.10646
3407.77339	7.17290
3405.84482	7.25482
3403.91626	7.31525
3401.98770	7.32083
3400.05913	7.30096
3398.13057	7.31984
3396.20200	7.41831
3394.27344	7.53316
3392.34487	7.55663
3390.41631	7.55828
3388.48774	7.61204
3386.55918	7.66517
3384.63062	7.66869
3382.70205	7.66948
3380.77349	7.72389
3378.84492	7.80802
3376.91636	7.84545
3374.98779	7.81489
3373.05923	7.81671
3371.13066	7.86167
3369.20210	7.90411
3367.27354	7.94665
3365.34497	7.96992
3363.41641	7.95849
3361.48784	7.96841
3359.55928	8.03606
3357.63071	8.11190
3355.70215	8.19221
3353.77358	8.25584
3351.84502	8.24133
3349.91646	8.18767
3347.98789	8.20146
3346.05933	8.24474
3344.13076	8.20290
3342.20220	8.13949
3340.27363	8.15905
3338.34507	8.21330
3336.41650	8.18585
3334.48794	8.16264
3332.55937	8.22400
3330.63081	8.28680
3328.70225	8.25218
3326.77368	8.17401
3324.84512	8.18495
3322.91655	8.24983
3320.98799	8.30757
3319.05942	8.39051
3317.13086	8.43185
3315.20229	8.33093
3313.27373	8.22973
3311.34517	8.25682
3309.41660	8.38412
3307.48804	8.50647
3305.55947	8.52138
3303.63091	8.49876
3301.70234	8.50270
3299.77378	8.48624
3297.84521	8.45433
3295.91665	8.48569
3293.98809	8.51358
3292.05952	8.50893
3290.13096	8.58182
3288.20239	8.63607
3286.27383	8.54075
3284.34526	8.39717
3282.41670	8.33323
3280.48813	8.35693
3278.55957	8.45691
3276.63101	8.56183
3274.70244	8.52484
3272.77388	8.43262
3270.84531	8.44534
3268.91675	8.49221
3266.98818	8.45989
3265.05962	8.43567
3263.13105	8.47031
3261.20249	8.45265
3259.27393	8.36392
3257.34536	8.38119
3255.41680	8.54987
3253.48823	8.64481
3251.55967	8.57847
3249.63110	8.51530
3247.70254	8.49697
3245.77397	8.52250
3243.84541	8.56794
3241.91685	8.52916
3239.98828	8.44562
3238.05972	8.38049
3236.13115	8.33781
3234.20259	8.35134
3232.27402	8.42599
3230.34546	8.50166
3228.41689	8.54553
3226.48833	8.60005
3224.55977	8.60340
3222.63120	8.50031
3220.70264	8.33490
3218.77407	8.19185
3216.84551	8.18968
3214.91694	8.31388
3212.98838	8.37130
3211.05981	8.24995
3209.13125	8.10525
3207.20269	8.05254
3205.27412	8.06550
3203.34556	8.08261
3201.41699	8.05574
3199.48843	8.01678
3197.55986	7.99908
3195.63130	7.97215
3193.70273	7.89236
3191.77417	7.75009
3189.84561	7.63834
3187.91704	7.61752
3185.98848	7.64603
3184.05991	7.65484
3182.13135	7.59945
3180.20278	7.52306
3178.27422	7.47309
3176.34565	7.43220
3174.41709	7.35012
3172.48853	7.23351
3170.55996	7.15062
3168.63140	7.11871
3166.70283	7.10969
3164.77427	7.07793
3162.84570	6.98854
3160.91714	6.87855
3158.98857	6.79896
3157.06001	6.73666
3155.13145	6.66025
3153.20288	6.58142
3151.27432	6.51871
3149.34575	6.45725
3147.41719	6.38259
3145.48862	6.30160
3143.56006	6.22242
3141.63149	6.14894
3139.70293	6.07375
3137.77437	5.99721
3135.84580	5.93175
3133.91724	5.86881
3131.98867	5.79265
3130.06011	5.71326
3128.13154	5.64028
3126.20298	5.56309
3124.27441	5.48586
3122.34585	5.41944
3120.41729	5.34967
3118.48872	5.26925
3116.56016	5.19638
3114.63159	5.13310
3112.70303	5.06403
3110.77446	4.98727
3108.84590	4.91073
3106.91733	4.84021
3104.98877	4.77350
3103.06021	4.70780
3101.13164	4.64290
3099.20308	4.57604
3097.27451	4.50854
3095.34595	4.44294
3093.41738	4.37575
3091.48882	4.30611
3089.56025	4.23854
3087.63169	4.17353
3085.70312	4.11032
3083.77456	4.04949
3081.84600	3.98827
3079.91743	3.92539
3077.98887	3.86334
3076.06030	3.80307
3074.13174	3.74360
3072.20317	3.68553
3070.27461	3.63072
3068.34604	3.57696
3066.41748	3.52010
3064.48892	3.46126
3062.56035	3.40274
3060.63179	3.34552
3058.70322	3.29122
3056.77466	3.23827
3054.84609	3.18445
3052.91753	3.13122
3050.98896	3.07982
3049.06040	3.02887
3047.13184	2.97715
3045.20327	2.92568
3043.27471	2.87653
3041.34614	2.82915
3039.41758	2.78181
3037.48901	2.73464
3035.56045	2.68821
3033.63188	2.64230
3031.70332	2.59650
3029.77476	2.55140
3027.84619	2.50762
3025.91763	2.46413
3023.98906	2.42079
3022.06050	2.37839
3020.13193	2.33645
3018.20337	2.29514
3016.27480	2.25503
3014.34624	2.21577
3012.41768	2.17716
3010.48911	2.13872
3008.56055	2.10048
3006.63198	2.06334
3004.70342	2.02739
3002.77485	1.99220
3000.84629	1.95768
2998.91772	1.92374
2996.98916	1.89034
2995.06060	1.85770
2993.13203	1.82607
2991.20347	1.79537
2989.27490	1.76534
2987.34634	1.73582
2985.41777	1.70655
2983.48921	1.67762
2981.56064	1.64946
2979.63208	1.62195
2977.70352	1.59481
2975.77495	1.56833
2973.84639	1.54267
2971.91782	1.51766
2969.98926	1.49314
2968.06069	1.46895
2966.13213	1.44509
2964.20356	1.42145
2962.27500	1.39785
2960.34644	1.37401
2958.41787	1.34966
2956.48931	1.32523
2954.56074	1.30140
2952.63218	1.27821
2950.70361	1.25532
2948.77505	1.23264
2946.84648	1.21033
2944.91792	1.18868
2942.98936	1.16773
2941.06079	1.14728
2939.13223	1.12698
2937.20366	1.10653
2935.27510	1.08599
2933.34653	1.06564
2931.41797	1.04585
2929.48940	1.02658
2927.56084	1.00733
2925.63228	0.98816
2923.70371	0.97016
2921.77515	0.95353
2919.84658	0.93691
2917.91802	0.92026
2915.98945	0.90415
2914.06089	0.88750
2912.13232	0.87063
2910.20376	0.85471
2908.27520	0.83920
2906.34663	0.82403
2904.41807	0.80964
2902.48950	0.79544
2900.56094	0.78132
2898.63237	0.76805
2896.70381	0.75544
2894.77524	0.74274
2892.84668	0.73000
2890.91812	0.71779
2888.98955	0.70620
2887.06099	0.69507
2885.13242	0.68453
2883.20386	0.67449
2881.27529	0.66463
2879.34673	0.65475
2877.41816	0.64493
2875.48960	0.63522
2873.56104	0.62533
2871.63247	0.61479
2869.70391	0.60354
2867.77534	0.59210
2865.84678	0.58088
2863.91821	0.56971
2861.98965	0.55834
2860.06108	0.54727
2858.13252	0.53715
2856.20396	0.52779
2854.27539	0.51874
2852.34683	0.50987
2850.41826	0.50135
2848.48970	0.49299
2846.56113	0.48455
2844.63257	0.47651
2842.70400	0.46914
2840.77544	0.46227
2838.84687	0.45592
2836.91831	0.45004
2834.98975	0.44415
2833.06118	0.43808
2831.13262	0.43192
2829.20405	0.42582
2827.27549	0.41994
2825.34692	0.41412
2823.41836	0.40812
2821.48979	0.40207
2819.56123	0.39616
2817.63267	0.39041
2815.70410	0.38475
2813.77554	0.37911
2811.84697	0.37358
2809.91841	0.36821
2807.98984	0.36290
2806.06128	0.35761
2804.13271	0.35251
2802.20415	0.34756
2800.27559	0.34252
2798.34702	0.33742
2796.41846	0.33252
2794.48989	0.32793
2792.56133	0.32350
2790.63276	0.31896
2788.70420	0.31445
2786.77563	0.31013
2784.84707	0.30587
2782.91851	0.30167
2780.98994	0.29753
2779.06138	0.29345
2777.13281	0.28942
2775.20425	0.28543
2773.27568	0.28158
2771.34712	0.27784
2769.41855	0.27419
2767.48999	0.27071
2765.56143	0.26736
2763.63286	0.26405
2761.70430	0.26076
2759.77573	0.25751
2757.84717	0.25431
2755.91860	0.25119
2753.99004	0.24813
2752.06147	0.24509
2750.13291	0.24204
2748.20435	0.23909
2746.27578	0.23629
2744.34722	0.23351
2742.41865	0.23070
2740.49009	0.22807
2738.56152	0.22559
2736.63296	0.22293
2734.70439	0.22021
2732.77583	0.21776
2730.84727	0.21565
2728.91870	0.21366
2726.99014	0.21145
2725.06157	0.20907
2723.13301	0.20679
2721.20444	0.20462
2719.27588	0.20258
2717.34731	0.20067
2715.41875	0.19885
2713.49019	0.19713
2711.56162	0.19544
2709.63306	0.19366
2707.70449	0.19184
2705.77593	0.19022
2703.84736	0.18869
2701.91880	0.18696
2699.99023	0.18517
2698.06167	0.18371
2696.13311	0.18245
2694.20454	0.18107
2692.27598	0.17965
2690.34741	0.17837
2688.41885	0.17716
2686.49028	0.17588
2684.56172	0.17450
2682.63315	0.17325
2680.70459	0.17222
2678.77603	0.17119
2676.84746	0.16999
2674.91890	0.16877
2672.99033	0.16770
2671.06177	0.16685
2669.13320	0.16602
2667.20464	0.16509
2665.27607	0.16416
2663.34751	0.16322
2661.41895	0.16222
2659.49038	0.16118
2657.56182	0.16022
2655.63325	0.15948
2653.70469	0.15900
2651.77612	0.15852
2649.84756	0.15786
2647.91899	0.15720
2645.99043	0.15663
2644.06187	0.15605
2642.13330	0.15543
2640.20474	0.15479
2638.27617	0.15419
2636.34761	0.15376
2634.41904	0.15345
2632.49048	0.15313
2630.56191	0.15268
2628.63335	0.15206
2626.70479	0.15155
2624.77622	0.15136
2622.84766	0.15124
2620.91909	0.15094
2618.99053	0.15065
2617.06196	0.15044
2615.13340	0.15020
2613.20483	0.14994
2611.27627	0.14977
2609.34771	0.14973
2607.41914	0.14970
2605.49058	0.14960
2603.56201	0.14947
2601.63345	0.14938
2599.70488	0.14928
2597.77632	0.14928
2595.84775	0.14951
2593.91919	0.14981
2591.99062	0.14997
2590.06206	0.14998
2588.13350	0.14998
2586.20493	0.15015
2584.27637	0.15048
2582.34780	0.15074
2580.41924	0.15088
2578.49067	0.15110
2576.56211	0.15147
2574.63354	0.15183
2572.70498	0.15219
2570.77642	0.15253
2568.84785	0.15286
2566.91929	0.15318
2564.99072	0.15344
2563.06216	0.15368
2561.13359	0.15401
2559.20503	0.15455
2557.27646	0.15519
2555.34790	0.15575
2553.41934	0.15631
2551.49077	0.15688
2549.56221	0.15734
2547.63364	0.15768
2545.70508	0.15804
2543.77651	0.15856
2541.84795	0.15931
2539.91938	0.16017
2537.99082	0.16091
2536.06226	0.16152
2534.13369	0.16216
2532.20513	0.16283
2530.27656	0.16350
2528.34800	0.16426
2526.41943	0.16502
2524.49087	0.16566
2522.56230	0.16626
2520.63374	0.16692
2518.70518	0.16760
2516.77661	0.16830
2514.84805	0.16905
2512.91948	0.16987
2510.99092	0.17070
2509.06235	0.17154
2507.13379	0.17240
2505.20522	0.17318
2503.27666	0.17397
2501.34810	0.17486
2499.41953	0.17576
2497.49097	0.17654
2495.56240	0.17729
2493.63384	0.17813
2491.70527	0.17899
2489.77671	0.17985
2487.84814	0.18079
2485.91958	0.18177
2483.99102	0.18255
2482.06245	0.18321
2480.13389	0.18396
2478.20532	0.18489
2476.27676	0.18590
2474.34819	0.18686
2472.41963	0.18774
2470.49106	0.18859
2468.56250	0.18940
2466.63394	0.19017
2464.70537	0.19115
2462.77681	0.19235
2460.84824	0.19346
2458.91968	0.19433
2456.99111	0.19515
2455.06255	0.19599
2453.13398	0.19680
2451.20542	0.19776
2449.27686	0.19881
2447.34829	0.19972
2445.41973	0.20055
2443.49116	0.20152
2441.56260	0.20270
2439.63403	0.20390
2437.70547	0.20491
2435.77690	0.20585
2433.84834	0.20685
2431.91978	0.20795
2429.99121	0.20913
2428.06265	0.21025
2426.13408	0.21120
2424.20552	0.21219
2422.27695	0.21341
2420.34839	0.21465
2418.41982	0.21572
2416.49126	0.21668
2414.56270	0.21775
2412.63413	0.21906
2410.70557	0.22037
2408.77700	0.22143
2406.84844	0.22244
2404.91987	0.22361
2402.99131	0.22484
2401.06274	0.22607
2399.13418	0.22738
2397.20562	0.22874
2395.27705	0.22997
2393.34849	0.23110
2391.41992	0.23232
2389.49136	0.23365
2387.56279	0.23499
2385.63423	0.23644
2383.70566	0.23820
2381.77710	0.24012
2379.84854	0.24207
2377.91997	0.24416
2375.99141	0.24631
2374.06284	0.24846
2372.13428	0.25094
2370.20571	0.25394
2368.27715	0.25704
2366.34858	0.25991
2364.42002	0.26232
2362.49146	0.26463
2360.56289	0.26728
2358.63433	0.26884
2356.70576	0.26864
2354.77720	0.26841
2352.84863	0.26889
2350.92007	0.26930
2348.99150	0.26969
2347.06294	0.27074
2345.13437	0.27291
2343.20581	0.27574
2341.27725	0.27801
2339.34868	0.27966
2337.42012	0.28099
2335.49155	0.28196
2333.56299	0.28275
2331.63442	0.28397
2329.70586	0.28586
2327.77729	0.28777
2325.84873	0.28912
2323.92017	0.29025
2321.99160	0.29165
2320.06304	0.29321
2318.13447	0.29463
2316.20591	0.29582
2314.27734	0.29711
2312.34878	0.29876
2310.42021	0.30046
2308.49165	0.30208
2306.56309	0.30375
2304.63452	0.30528
2302.70596	0.30660
2300.77739	0.30800
2298.84883	0.30951
2296.92026	0.31115
2294.99170	0.31309
2293.06313	0.31508
2291.13457	0.31676
2289.20601	0.31828
2287.27744	0.31994
2285.34888	0.32173
2283.42031	0.32358
2281.49175	0.32565
2279.56318	0.32788
2277.63462	0.33005
2275.70605	0.33222
2273.77749	0.33437
2271.84893	0.33639
2269.92036	0.33836
2267.99180	0.34041
2266.06323	0.34256
2264.13467	0.34475
2262.20610	0.34695
2260.27754	0.34913
2258.34897	0.35122
2256.42041	0.35325
2254.49185	0.35526
2252.56328	0.35729
2250.63472	0.35935
2248.70615	0.36153
2246.77759	0.36381
2244.84902	0.36609
2242.92046	0.36830
2240.99189	0.37053
2239.06333	0.37288
2237.13477	0.37526
2235.20620	0.37752
2233.27764	0.37971
2231.34907	0.38188
2229.42051	0.38409
2227.49194	0.38639
2225.56338	0.38865
2223.63481	0.39078
2221.70625	0.39298
2219.77769	0.39530
2217.84912	0.39756
2215.92056	0.39962
2213.99199	0.40157
2212.06343	0.40361
2210.13486	0.40589
2208.20630	0.40820
2206.27773	0.41023
2204.34917	0.41218
2202.42061	0.41427
2200.49204	0.41637
2198.56348	0.41839
2196.63491	0.42038
2194.70635	0.42229
2192.77778	0.42418
2190.84922	0.42612
2188.92065	0.42801
2186.99209	0.42980
2185.06353	0.43159
2183.13496	0.43341
2181.20640	0.43520
2179.27783	0.43679
2177.34927	0.43821
2175.42070	0.43962
2173.49214	0.44112
2171.56357	0.44267
2169.63501	0.44416
2167.70645	0.44552
2165.77788	0.44681
2163.84932	0.44801
2161.92075	0.44906
2159.99219	0.45011
2158.06362	0.45124
2156.13506	0.45228
2154.20649	0.45303
2152.27793	0.45362
2150.34937	0.45435
2148.42080	0.45518
2146.49224	0.45583
2144.56367	0.45627
2142.63511	0.45661
2140.70654	0.45690
2138.77798	0.45717
2136.84941	0.45739
2134.92085	0.45748
2132.99229	0.45753
2131.06372	0.45755
2129.13516	0.45739
2127.20659	0.45704
2125.27803	0.45666
2123.34946	0.45621
2121.42090	0.45566
2119.49233	0.45510
2117.56377	0.45456
2115.63521	0.45392
2113.70664	0.45315
2111.77808	0.45230
2109.84951	0.45137
2107.92095	0.45029
2105.99238	0.44909
2104.06382	0.44785
2102.13525	0.44652
2100.20669	0.44519
2098.27812	0.44393
2096.34956	0.44253
2094.42100	0.44094
2092.49243	0.43931
2090.56387	0.43763
2088.63530	0.43582
2086.70674	0.43393
2084.77817	0.43193
2082.84961	0.42993
2080.92104	0.42795
2078.99248	0.42592
2077.06392	0.42380
2075.13535	0.42170
2073.20679	0.41971
2071.27822	0.41763
2069.34966	0.41531
2067.42109	0.41290
2065.49253	0.41053
2063.56396	0.40815
2061.63540	0.40571
2059.70684	0.40327
2057.77827	0.40087
2055.84971	0.39835
2053.92114	0.39564
2051.99258	0.39288
2050.06401	0.39014
2048.13545	0.38744
2046.20688	0.38484
2044.27832	0.38228
2042.34976	0.37969
2040.42119	0.37697
2038.49263	0.37409
2036.56406	0.37112
2034.63550	0.36825
2032.70693	0.36557
2030.77837	0.36305
2028.84980	0.36047
2026.92124	0.35769
2024.99268	0.35475
2023.06411	0.35185
2021.13555	0.34911
2019.20698	0.34649
2017.27842	0.34384
2015.34985	0.34101
2013.42129	0.33812
2011.49272	0.33535
2009.56416	0.33266
2007.63560	0.32988
2005.70703	0.32715
2003.77847	0.32454
2001.84990	0.32192
1999.92134	0.31931
1997.99277	0.31675
1996.06421	0.31423
1994.13564	0.31188
1992.20708	0.30956
1990.27852	0.30698
1988.34995	0.30432
1986.42139	0.30173
1984.49282	0.29923
1982.56426	0.29681
1980.63569	0.29442
1978.70713	0.29212
1976.77856	0.28991
1974.85000	0.28771
1972.92144	0.28548
1970.99287	0.28338
1969.06431	0.28156
1967.13574	0.27978
1965.20718	0.27769
1963.27861	0.27550
1961.35005	0.27354
1959.42148	0.27170
1957.49292	0.26989
1955.56436	0.26816
1953.63579	0.26649
1951.70723	0.26480
1949.77866	0.26313
1947.85010	0.26157
1945.92153	0.26018
1943.99297	0.25892
1942.06440	0.25747
1940.13584	0.25573
1938.20728	0.25411
1936.27871	0.25275
1934.35015	0.25144
1932.42158	0.25016
1930.49302	0.24892
1928.56445	0.24780
1926.63589	0.24684
1924.70732	0.24613
1922.77876	0.24537
1920.85020	0.24433
1918.92163	0.24333
1916.99307	0.24240
1915.06450	0.24133
1913.13594	0.24040
1911.20737	0.23985
1909.27881	0.23937
1907.35024	0.23867
1905.42168	0.23783
1903.49312	0.23706
1901.56455	0.23640
1899.63599	0.23588
1897.70742	0.23550
1895.77886	0.23519
1893.85029	0.23491
1891.92173	0.23469
1889.99316	0.23465
1888.06460	0.23445
1886.13604	0.23406
1884.20747	0.23373
1882.27891	0.23345
1880.35034	0.23325
1878.42178	0.23318
1876.49321	0.23316
1874.56465	0.23318
1872.63608	0.23344
1870.70752	0.23409
1868.77896	0.23505
1866.85039	0.23535
1864.92183	0.23483
1862.99326	0.23450
1861.06470	0.23467
1859.13613	0.23510
1857.20757	0.23547
1855.27900	0.23587
1853.35044	0.23632
1851.42187	0.23687
1849.49331	0.23762
1847.56475	0.23864
1845.63618	0.23982
1843.70762	0.24089
1841.77905	0.24131
1839.85049	0.24141
1837.92192	0.24203
1835.99336	0.24300
1834.06479	0.24405
1832.13623	0.24527
1830.20767	0.24699
1828.27910	0.24855
1826.35054	0.24953
1824.42197	0.25076
1822.49341	0.25193
1820.56484	0.25297
1818.63628	0.25427
1816.70771	0.25586
1814.77915	0.25747
1812.85059	0.25930
1810.92202	0.26151
1808.99346	0.26362
1807.06489	0.26550
1805.13633	0.26737
1803.20776	0.26972
1801.27920	0.27253
1799.35063	0.27540
1797.42207	0.27776
1795.49351	0.28019
1793.56494	0.28328
1791.63638	0.28708
1789.70781	0.29019
1787.77925	0.29240
1785.85068	0.29538
1783.92212	0.29914
1781.99355	0.30319
1780.06499	0.30743
1778.13643	0.31164
1776.20786	0.31574
1774.27930	0.32055
1772.35073	0.32697
1770.42217	0.33323
1768.49360	0.33807
1766.56504	0.34283
1764.63647	0.34797
1762.70791	0.35394
1760.77935	0.36154
1758.85078	0.36862
1756.92222	0.37559
1754.99365	0.38310
1753.06509	0.39009
1751.13652	0.39877
1749.20796	0.40974
1747.27939	0.42020
1745.35083	0.42919
1743.42227	0.43877
1741.49370	0.44939
1739.56514	0.46188
1737.63657	0.47433
1735.70801	0.48553
1733.77944	0.50243
1731.85088	0.52185
1729.92231	0.53685
1727.99375	0.55209
1726.06519	0.56864
1724.13662	0.58704
1722.20806	0.60708
1720.27949	0.62574
1718.35093	0.64776
1716.42236	0.67995
1714.49380	0.71029
1712.56523	0.73475
1710.63667	0.75846
1708.70811	0.78414
1706.77954	0.81357
1704.85098	0.84883
1702.92241	0.88045
1700.99385	0.91194
1699.06528	0.95870
1697.13672	1.00159
1695.20815	1.04520
1693.27959	1.08786
1691.35103	1.12280
1689.42246	1.16338
1687.49390	1.20641
1685.56533	1.24855
1683.63677	1.31364
1681.70820	1.38064
1679.77964	1.42296
1677.85107	1.46316
1675.92251	1.51024
1673.99395	1.56919
1672.06538	1.62165
1670.13682	1.67348
1668.20825	1.74155
1666.27969	1.79722
1664.35112	1.84526
1662.42256	1.90725
1660.49399	1.97785
1658.56543	2.03333
1656.63687	2.07883
1654.70830	2.12061
1652.77974	2.18212
1650.85117	2.23698
1648.92261	2.25555
1646.99404	2.27925
1645.06548	2.30375
1643.13691	2.31925
1641.20835	2.32750
1639.27979	2.33595
1637.35122	2.34236
1635.42266	2.34075
1633.49409	2.32792
1631.56553	2.31090
1629.63696	2.29322
1627.70840	2.26480
1625.77983	2.22987
1623.85127	2.18473
1621.92271	2.12989
1619.99414	2.08233
1618.06558	2.03833
1616.13701	1.97524
1614.20845	1.90816
1612.27988	1.85632
1610.35132	1.80306
1608.42275	1.74562
1606.49419	1.68902
1604.56562	1.63723
1602.63706	1.58834
1600.70850	1.54118
1598.77993	1.49720
1596.85137	1.45535
1594.92280	1.41468
1592.99424	1.37606
1591.06567	1.34158
1589.13711	1.30974
1587.20854	1.28025
1585.27998	1.25304
1583.35142	1.22764
1581.42285	1.20460
1579.49429	1.18556
1577.56572	1.16966
1575.63716	1.15089
1573.70859	1.13376
1571.78003	1.12270
1569.85146	1.11231
1567.92290	1.10141
1565.99434	1.09375
1564.06577	1.08893
1562.13721	1.08602
1560.20864	1.08605
1558.28008	1.09077
1556.35151	1.09490
1554.42295	1.09615
1552.49438	1.09702
1550.56582	1.09663
1548.63726	1.09412
1546.70869	1.08934
1544.78013	1.08188
1542.85156	1.07115
1540.92300	1.05333
1538.99443	1.02274
1537.06587	0.99953
1535.13730	0.98424
1533.20874	0.96450
1531.28018	0.94311
1529.35161	0.92760
1527.42305	0.91368
1525.49448	0.89950
1523.56592	0.88731
1521.63735	0.87554
1519.70879	0.86329
1517.78022	0.85293
1515.85166	0.84078
1513.92310	0.82755
1511.99453	0.81642
1510.06597	0.80730
1508.13740	0.79900
1506.20884	0.78449
1504.28027	0.77014
1502.35171	0.76215
1500.42314	0.75597
1498.49458	0.74997
1496.56602	0.74260
1494.63745	0.73436
1492.70889	0.72796
1490.78032	0.72300
1488.85176	0.71744
1486.92319	0.71153
1484.99463	0.70661
1483.06606	0.70298
1481.13750	0.70019
1479.20894	0.69812
1477.28037	0.69731
1475.35181	0.69772
1473.42324	0.69838
1471.49468	0.69718
1469.56611	0.69428
1467.63755	0.69175
1465.70898	0.69014
1463.78042	0.68902
1461.85186	0.68837
1459.92329	0.68876
1457.99473	0.69004
1456.06616	0.68975
1454.13760	0.68706
1452.20903	0.68432
1450.28047	0.68178
1448.35190	0.67944
1446.42334	0.67697
1444.49478	0.67439
1442.56621	0.67203
1440.63765	0.66977
1438.70908	0.66747
1436.78052	0.66440
1434.85195	0.66039
1432.92339	0.65711
1430.99482	0.65509
1429.06626	0.65396
1427.13770	0.65361
1425.20913	0.65416
1423.28057	0.65522
1421.35200	0.65602
1419.42344	0.65675
1417.49487	0.65685
1415.56631	0.65552
1413.63774	0.65420
1411.70918	0.65389
1409.78062	0.65468
1407.85205	0.65615
1405.92349	0.65799
1403.99492	0.65951
1402.06636	0.65986
1400.13779	0.65925
1398.20923	0.65780
1396.28066	0.65536
1394.35210	0.65154
1392.42354	0.64683
1390.49497	0.64263
1388.56641	0.63886
1386.63784	0.63430
1384.70928	0.62897
1382.78071	0.62387
1380.85215	0.61933
1378.92358	0.61562
1376.99502	0.61297
1375.06646	0.61124
1373.13789	0.60991
1371.20933	0.60874
1369.28076	0.60781
1367.35220	0.60675
1365.42363	0.60543
1363.49507	0.60418
1361.56650	0.60274
1359.63794	0.60092
1357.70937	0.59926
1355.78081	0.59792
1353.85225	0.59678
1351.92368	0.59588
1349.99512	0.59525
1348.06655	0.59462
1346.13799	0.59375
1344.20942	0.59276
1342.28086	0.59202
1340.35229	0.59163
1338.42373	0.59114
1336.49517	0.59034
1334.56660	0.58964
1332.63804	0.58933
1330.70947	0.58940
1328.78091	0.58971
1326.85234	0.59030
1324.92378	0.59110
1322.99521	0.59190
1321.06665	0.59265
1319.13809	0.59331
1317.20952	0.59365
1315.28096	0.59365
1313.35239	0.59335
1311.42383	0.59268
1309.49526	0.59188
1307.56670	0.59120
1305.63813	0.59066
1303.70957	0.59010
1301.78101	0.58949
1299.85244	0.58867
1297.92388	0.58755
1295.99531	0.58624
1294.06675	0.58498
1292.13818	0.58387
1290.20962	0.58267
1288.28105	0.58119
1286.35249	0.57964
1284.42393	0.57835
1282.49536	0.57713
1280.56680	0.57587
1278.63823	0.57467
1276.70967	0.57343
1274.78110	0.57210
1272.85254	0.57102
1270.92397	0.57028
1268.99541	0.56959
1267.06685	0.56883
1265.13828	0.56808
1263.20972	0.56722
1261.28115	0.56630
1259.35259	0.56551
1257.42402	0.56486
1255.49546	0.56449
1253.56689	0.56447
1251.63833	0.56462
1249.70977	0.56474
1247.78120	0.56468
1245.85264	0.56435
1243.92407	0.56367
1241.99551	0.56272
1240.06694	0.56155
1238.13838	0.55995
1236.20981	0.55794
1234.28125	0.55570
1232.35269	0.55335
1230.42412	0.55117
1228.49556	0.54933
1226.56699	0.54752
1224.63843	0.54550
1222.70986	0.54357
1220.78130	0.54193
1218.85273	0.54049
1216.92417	0.53920
1214.99561	0.53803
1213.06704	0.53706
1211.13848	0.53638
1209.20991	0.53585
1207.28135	0.53528
1205.35278	0.53451
1203.42422	0.53351
1201.49565	0.53257
1199.56709	0.53181
1197.63853	0.53113
1195.70996	0.53041
1193.78140	0.52952
1191.85283	0.52853
1189.92427	0.52778
1187.99570	0.52745
1186.06714	0.52734
1184.13857	0.52736
1182.21001	0.52772
1180.28145	0.52856
1178.35288	0.52984
1176.42432	0.53130
1174.49575	0.53256
1172.56719	0.53347
1170.63862	0.53404
1168.71006	0.53426
1166.78149	0.53413
1164.85293	0.53393
1162.92437	0.53397
1160.99580	0.53404
1159.06724	0.53367
1157.13867	0.53291
1155.21011	0.53198
1153.28154	0.53083
1151.35298	0.52918
1149.42441	0.52693
1147.49585	0.52430
1145.56729	0.52157
1143.63872	0.51895
1141.71016	0.51656
1139.78159	0.51464
1137.85303	0.51341
1135.92446	0.51272
1133.99590	0.51217
1132.06733	0.51157
1130.13877	0.51107
1128.21021	0.51077
1126.28164	0.51045
1124.35308	0.50993
1122.42451	0.50928
1120.49595	0.50883
1118.56738	0.50881
1116.63882	0.50919
1114.71025	0.50983
1112.78169	0.51065
1110.85312	0.51154
1108.92456	0.51245
1106.99600	0.51332
1105.06743	0.51411
1103.13887	0.51503
1101.21030	0.51636
1099.28174	0.51800
1097.35317	0.51987
1095.42461	0.52225
1093.49604	0.52553
1091.56748	0.53000
1089.63892	0.53588
1087.71035	0.54309
1085.78179	0.55106
1083.85322	0.55897
1081.92466	0.56602
1079.99609	0.57138
1078.06753	0.57434
1076.13896	0.57440
1074.21040	0.57139
1072.28184	0.56580
1070.35327	0.55884
1068.42471	0.55167
1066.49614	0.54493
1064.56758	0.53868
1062.63901	0.53302
1060.71045	0.52823
1058.78188	0.52418
1056.85332	0.52043
1054.92476	0.51684
1052.99619	0.51364
1051.06763	0.51106
1049.13906	0.50920
1047.21050	0.50803
1045.28193	0.50729
1043.35337	0.50680
1041.42480	0.50652
1039.49624	0.50623
1037.56768	0.50609
1035.63911	0.50630
1033.71055	0.50618
1031.78198	0.50526
1029.85342	0.50386
1027.92485	0.50239
1025.99629	0.50107
1024.06772	0.50002
1022.13916	0.49923
1020.21060	0.49873
1018.28203	0.49872
1016.35347	0.49899
1014.42490	0.49921
1012.49634	0.49944
1010.56777	0.49965
1008.63921	0.49989
1006.71064	0.50052
1004.78208	0.50162
1002.85352	0.50314
1000.92495	0.50543
998.99639	0.50885
997.06782	0.51315
995.13926	0.51770
993.21069	0.52205
991.28213	0.52562
989.35356	0.52775
987.42500	0.52844
985.49644	0.52837
983.56787	0.52829
981.63931	0.52876
979.71074	0.52989
977.78218	0.53149
975.85361	0.53340
973.92505	0.53556
971.99648	0.53815
970.06792	0.54135
968.13936	0.54501
966.21079	0.54913
964.28223	0.55376
962.35366	0.55872
960.42510	0.56381
958.49653	0.56901
956.56797	0.57453
954.63940	0.58052
952.71084	0.58689
950.78228	0.59336
948.85371	0.59970
946.92515	0.60608
944.99658	0.61257
943.06802	0.61894
941.13945	0.62524
939.21089	0.63162
937.28232	0.63784
935.35376	0.64361
933.42520	0.64934
931.49663	0.65538
929.56807	0.66135
927.63950	0.66705
925.71094	0.67289
923.78237	0.67931
921.85381	0.68630
919.92524	0.69345
917.99668	0.70044
916.06812	0.70782
914.13955	0.71604
912.21099	0.72398
910.28242	0.73155
908.35386	0.73999
906.42529	0.74879
904.49673	0.75721
902.56816	0.76598
900.63960	0.77614
898.71104	0.78732
896.78247	0.79820
894.85391	0.80835
892.92534	0.81752
890.99678	0.82646
889.06821	0.83659
887.13965	0.84783
885.21108	0.85921
883.28252	0.87047
881.35396	0.88239
879.42539	0.89516
877.49683	0.90811
875.56826	0.92097
873.63970	0.93365
871.71113	0.94500
869.78257	0.95465
867.85400	0.96433
865.92544	0.97533
863.99687	0.98756
862.06831	1.00011
860.13975	1.01204
858.21118	1.02353
856.28262	1.03552
854.35405	1.04833
852.42549	1.06075
850.49692	1.07248
848.56836	1.08512
846.63979	1.09866
844.71123	1.11239
842.78267	1.12643
840.85410	1.13932
838.92554	1.15149
836.99697	1.16543
835.06841	1.17752
833.13984	1.18812
831.21128	1.20350
829.28271	1.21920
827.35415	1.23144
825.42559	1.24668
823.49702	1.26637
821.56846	1.28389
819.63989	1.29379
817.71133	1.29921
815.78276	1.31002
813.85420	1.32449
811.92563	1.33442
809.99707	1.34834
808.06851	1.37128
806.13994	1.39210
804.21138	1.40141
802.28281	1.40882
800.35425	1.42686
798.42568	1.44397
796.49712	1.45007
794.56855	1.45483
792.63999	1.47970
790.71143	1.56263
788.78286	1.72778
786.85430	1.95097
784.92573	2.07238
782.99717	1.97595
781.06860	1.74551
779.14004	1.60337
777.21147	1.60249
775.28291	1.65207
773.35435	1.59727
771.42578	1.53572
769.49722	1.54934
767.56865	1.48052
765.64009	1.34424
763.71152	1.29134
761.78296	1.32896
759.85439	1.32995
757.92583	1.24965
755.99727	1.17123
754.06870	1.11017
752.14014	1.10894
750.21157	1.15214
748.28301	1.09102
746.35444	1.00006
744.42588	1.00048
742.49731	0.97413
740.56875	0.86673
738.64019	0.80118
736.71162	0.76030
734.78306	0.68062
732.85449	0.54612
730.92593	0.41410
728.99736	0.33349
727.06880	0.25908
725.14023	0.07767
723.21167	-0.13734
721.28311	-0.23126
719.35454	-0.22256
717.42598	-0.17813
715.49741	-0.06641
713.56885	0.14289
711.64028	0.24557
709.71172	0.23092
707.78315	0.25727
705.85459	0.18077
703.92603	0.09663
701.99746	0.08942
700.06890	0.12176
698.14033	0.14423
696.21177	0.16430
694.28320	0.18056
692.35464	0.17382
690.42607	0.18385
688.49751	0.25236
686.56895	0.33794
684.64038	0.41807
682.71182	0.36546
680.78325	0.21620
678.85469	0.16622
676.92612	0.17468
674.99756	0.16538
673.06899	0.15973
671.14043	0.18854
669.21187	0.22770
667.28330	0.25067
665.35474	0.25116
663.42617	0.24185
661.49761	0.25698
659.56904	0.30738
657.64048	0.35649
655.71191	0.33556
653.78335	0.25612
651.85479	0.21620
649.92622	0.22956
647.99766	0.22861
646.06909	0.20432
644.14053	0.25210
642.21196	0.47982
640.28340	0.62799
638.35483	0.30129
636.42627	0.15940
634.49771	0.15854
632.56914	0.18831
630.64058	0.17373
628.71201	0.14886
626.78345	0.17290
624.85488	0.24883
622.92632	0.27881
620.99775	0.24817
619.06919	0.23995
617.14062	0.25412
615.21206	0.24651
613.28350	0.20842
611.35493	0.16540
609.42637	0.13639
607.49780	0.15146
605.56924	0.20135
603.64067	0.22036
601.71211	0.19502
599.78354	0.14391
597.85498	0.08313
595.92642	0.04726
593.99785	0.07451
592.06929	0.17104
590.14072	0.23768
588.21216	0.22303
586.28359	0.23773
584.35503	0.23730
582.42646	0.18243
580.49790	0.17344
578.56934	0.21406
576.64077	0.20854
574.71221	0.20779
572.78364	0.24597
570.85508	0.27011
568.92651	0.24094
566.99795	0.21022
565.06938	0.23489
563.14082	0.27564
561.21226	0.25949
559.28369	0.21023
557.35513	0.20891
555.42656	0.24431
553.49800	0.23474
551.56943	0.17740
549.64087	0.12903
547.71230	0.11375
545.78374	0.10800
543.85518	0.13457
541.92661	0.21265
539.99805	0.25582
538.06948	0.23746
536.14092	0.22386
534.21235	0.19717
532.28379	0.15749
530.35522	0.15717
528.42666	0.19408
526.49810	0.19849
524.56953	0.17278
522.64097	0.13165
520.71240	0.07380
518.78384	0.04339
516.85527	0.06931
514.92671	0.13335
512.99814	0.20091
511.06958	0.24471
509.14102	0.22307
507.21245	0.15121
505.28389	0.10053
503.35532	0.09718
501.42676	0.12528
499.49819	0.14571
