3997.91411	0.05579
3995.98555	0.05589
3994.05698	0.05620
3992.12842	0.05647
3990.19985	0.05687
3988.27129	0.05758
3986.34272	0.05810
3984.41416	0.05809
3982.48560	0.05785
3980.55703	0.05802
3978.62847	0.05834
3976.69990	0.05855
3974.77134	0.05899
3972.84277	0.05957
3970.91421	0.05992
3968.98564	0.06002
3967.05708	0.06002
3965.12852	0.06003
3963.19995	0.06017
3961.27139	0.06043
3959.34282	0.06042
3957.41426	0.06001
3955.48569	0.05978
3953.55713	0.06008
3951.62856	0.06073
3949.70000	0.06131
3947.77144	0.06138
3945.84287	0.06098
3943.91431	0.06064
3941.98574	0.06065
3940.05718	0.06066
3938.12861	0.06053
3936.20005	0.06042
3934.27148	0.06038
3932.34292	0.06044
3930.41436	0.06047
3928.48579	0.06033
3926.55723	0.06046
3924.62866	0.06091
3922.70010	0.06084
3920.77153	0.06031
3918.84297	0.06017
3916.91440	0.06033
3914.98584	0.06026
3913.05728	0.05993
3911.12871	0.05989
3909.20015	0.06015
3907.27158	0.06033
3905.34302	0.06053
3903.41445	0.06082
3901.48589	0.06108
3899.55732	0.06116
3897.62876	0.06080
3895.70020	0.06038
3893.77163	0.06046
3891.84307	0.06096
3889.91450	0.06130
3887.98594	0.06107
3886.05737	0.06089
3884.12881	0.06115
3882.20024	0.06152
3880.27168	0.06184
3878.34312	0.06192
3876.41455	0.06197
3874.48599	0.06222
3872.55742	0.06220
3870.62886	0.06213
3868.70029	0.06232
3866.77173	0.06222
3864.84316	0.06221
3862.91460	0.06246
3860.98604	0.06274
3859.05747	0.06336
3857.12891	0.06386
3855.20034	0.06382
3853.27178	0.06370
3851.34321	0.06413
3849.41465	0.06486
3847.48608	0.06590
3845.55752	0.06722
3843.62896	0.06845
3841.70039	0.06935
3839.77183	0.06985
3837.84326	0.07004
3835.91470	0.07048
3833.98613	0.07112
3832.05757	0.07140
3830.12900	0.07178
3828.20044	0.07267
3826.27187	0.07363
3824.34331	0.07427
3822.41475	0.07478
3820.48618	0.07568
3818.55762	0.07691
3816.62905	0.07802
3814.70049	0.07887
3812.77192	0.07947
3810.84336	0.08025
3808.91479	0.08144
3806.98623	0.08283
3805.05767	0.08391
3803.12910	0.08493
3801.20054	0.08627
3799.27197	0.08735
3797.34341	0.08835
3795.41484	0.08971
3793.48628	0.09067
3791.55771	0.09132
3789.62915	0.09242
3787.70059	0.09394
3785.77202	0.09549
3783.84346	0.09704
3781.91489	0.09859
3779.98633	0.10005
3778.05776	0.10153
3776.12920	0.10286
3774.20063	0.10414
3772.27207	0.10584
3770.34351	0.10800
3768.41494	0.11017
3766.48638	0.11208
3764.55781	0.11424
3762.62925	0.11644
3760.70068	0.11848
3758.77212	0.12080
3756.84355	0.12329
3754.91499	0.12555
3752.98643	0.12763
3751.05786	0.12987
3749.12930	0.13260
3747.20073	0.13529
3745.27217	0.13782
3743.34360	0.14078
3741.41504	0.14343
3739.48647	0.14542
3737.55791	0.14765
3735.62935	0.15094
3733.70078	0.15521
3731.77222	0.15897
3729.84365	0.16231
3727.91509	0.16622
3725.98652	0.17157
3724.05796	0.17834
3722.12939	0.18575
3720.20083	0.19385
3718.27227	0.20284
3716.34370	0.21230
3714.41514	0.22128
3712.48657	0.23034
3710.55801	0.24154
3708.62944	0.25409
3706.70088	0.26565
3704.77231	0.27691
3702.84375	0.28985
3700.91519	0.30657
3698.98662	0.32519
3697.05806	0.34319
3695.12949	0.36224
3693.20093	0.38229
3691.27236	0.40384
3689.34380	0.43183
3687.41523	0.46689
3685.48667	0.49795
3683.55811	0.52485
3681.62954	0.55378
3679.70098	0.58578
3677.77241	0.61851
3675.84385	0.65675
3673.91528	0.70871
3671.98672	0.75224
3670.05815	0.79131
3668.12959	0.84438
3666.20103	0.89298
3664.27246	0.93390
3662.34390	0.97786
3660.41533	1.02492
3658.48677	1.07083
3656.55820	1.11975
3654.62964	1.17480
3652.70107	1.22110
3650.77251	1.26036
3648.84395	1.31368
3646.91538	1.38076
3644.98682	1.43231
3643.05825	1.47256
3641.12969	1.51265
3639.20112	1.55569
3637.27256	1.59896
3635.34399	1.64103
3633.41543	1.68256
3631.48687	1.72131
3629.55830	1.76104
3627.62974	1.81423
3625.70117	1.86478
3623.77261	1.89941
3621.84404	1.93307
3619.91548	1.97185
3617.98691	2.01877
3616.05835	2.06387
3614.12979	2.10048
3612.20122	2.13851
3610.27266	2.17806
3608.34409	2.21857
3606.41553	2.26075
3604.48696	2.29931
3602.55840	2.33359
3600.62983	2.37050
3598.70127	2.41145
3596.77271	2.45182
3594.84414	2.49237
3592.91558	2.53547
3590.98701	2.57702
3589.05845	2.61394
3587.12988	2.65587
3585.20132	2.70392
3583.27275	2.74650
3581.34419	2.78510
3579.41562	2.82542
3577.48706	2.86806
3575.55850	2.91114
3573.62993	2.95420
3571.70137	2.99608
3569.77280	3.03661
3567.84424	3.07796
3565.91567	3.12860
3563.98711	3.18181
3562.05854	3.22641
3560.12998	3.26869
3558.20142	3.31161
3556.27285	3.35518
3554.34429	3.40011
3552.41572	3.44778
3550.48716	3.49642
3548.55859	3.54318
3546.63003	3.58906
3544.70146	3.63762
3542.77290	3.68574
3540.84434	3.73006
3538.91577	3.77380
3536.98721	3.81931
3535.05864	3.86870
3533.13008	3.91825
3531.20151	3.96592
3529.27295	4.01447
3527.34438	4.06433
3525.41582	4.11029
3523.48726	4.15268
3521.55869	4.19976
3519.63013	4.25068
3517.70156	4.30151
3515.77300	4.34863
3513.84443	4.39334
3511.91587	4.44348
3509.98730	4.49873
3508.05874	4.55000
3506.13018	4.59406
3504.20161	4.63742
3502.27305	4.68644
3500.34448	4.73837
3498.41592	4.78402
3496.48735	4.82677
3494.55879	4.87801
3492.63022	4.93466
3490.70166	4.98836
3488.77310	5.03983
3486.84453	5.08541
3484.91597	5.12262
3482.98740	5.16116
3481.05884	5.21036
3479.13027	5.26795
3477.20171	5.32280
3475.27314	5.37202
3473.34458	5.42425
3471.41602	5.47848
3469.48745	5.52566
3467.55889	5.56970
3465.63032	5.62225
3463.70176	5.68023
3461.77319	5.72502
3459.84463	5.76089
3457.91606	5.79934
3455.98750	5.84148
3454.05894	5.89346
3452.13037	5.94763
3450.20181	5.99425
3448.27324	6.04410
3446.34468	6.10726
3444.41611	6.16839
3442.48755	6.21909
3440.55898	6.26275
3438.63042	6.30231
3436.70186	6.34695
3434.77329	6.39299
3432.84473	6.44210
3430.91616	6.51323
3428.98760	6.59417
3427.05903	6.64464
3425.13047	6.67297
3423.20190	6.70816
3421.27334	6.75607
3419.34478	6.81570
3417.41621	6.88301
3415.48765	6.92942
3413.55908	6.93756
3411.63052	6.93797
3409.70195	6.96113
3407.77339	7.01876
3405.84482	7.07919
3403.91626	7.11958
3401.98770	7.14729
3400.05913	7.18636
3398.13057	7.26325
3396.20200	7.32950
3394.27344	7.32929
3392.34487	7.30931
3390.41631	7.33508
3388.48774	7.39867
3386.55918	7.49791
3384.63062	7.60890
3382.70205	7.67537
3380.77349	7.68086
3378.84492	7.65821
3376.91636	7.68544
3374.98779	7.74533
3373.05923	7.75902
3371.13066	7.76302
3369.20210	7.81669
3367.27354	7.84881
3365.34497	7.84341
3363.41641	7.85317
3361.48784	7.85768
3359.55928	7.85844
3357.63071	7.89647
3355.70215	7.95770
3353.77358	7.93448
3351.84502	7.85280
3349.91646	7.84278
3347.98789	7.93750
3346.05933	8.04709
3344.13076	8.12111
3342.20220	8.18562
3340.27363	8.13438
3338.34507	8.00611
3336.41650	8.02520
3334.48794	8.17161
3332.55937	8.15837
3330.63081	8.02662
3328.70225	7.98516
3326.77368	8.02721
3324.84512	8.09219
3322.91655	8.13621
3320.98799	8.17030
3319.05942	8.19741
3317.13086	8.20051
3315.20229	8.18492
3313.27373	8.17981
3311.34517	8.17205
3309.41660	8.17153
3307.48804	8.20795
3305.55947	8.23839
3303.63091	8.23650
3301.70234	8.20557
3299.77378	8.20661
3297.84521	8.25074
3295.91665	8.26058
3293.98809	8.21242
3292.05952	8.21050
3290.13096	8.26156
3288.20239	8.27262
3286.27383	8.29060
3284.34526	8.27176
3282.41670	8.20796
3280.48813	8.23588
3278.55957	8.30518
3276.63101	8.26834
3274.70244	8.20779
3272.77388	8.22311
3270.84531	8.24207
3268.91675	8.25585
3266.98818	8.31248
3265.05962	8.35979
3263.13105	8.35678
3261.20249	8.32303
3259.27393	8.22397
3257.34536	8.13354
3255.41680	8.14397
3253.48823	8.18075
3251.55967	8.17567
3249.63110	8.14832
3247.70254	8.11668
3245.77397	8.09333
3243.84541	8.11316
3241.91685	8.16534
3239.98828	8.19295
3238.05972	8.16865
3236.13115	8.15724
3234.20259	8.19279
3232.27402	8.16387
3230.34546	8.11001
3228.41689	8.14149
3226.48833	8.18167
3224.55977	8.20188
3222.63120	8.21875
3220.70264	8.14414
3218.77407	8.04285
3216.84551	8.02526
3214.91694	8.02948
3212.98838	8.00937
3211.05981	7.99653
3209.13125	8.00120
3207.20269	7.99550
3205.27412	7.91644
3203.34556	7.80439
3201.41699	7.78722
3199.48843	7.85227
3197.55986	7.85111
3195.63130	7.75918
3193.70273	7.69125
3191.77417	7.67760
3189.84561	7.68527
3187.91704	7.68684
3185.98848	7.62923
3184.05991	7.51626
3182.13135	7.41811
3180.20278	7.34308
3178.27422	7.28263
3176.34565	7.25873
3174.41709	7.23347
3172.48853	7.17326
3170.55996	7.11071
3168.63140	7.04761
3166.70283	6.97865
3164.77427	6.92020
3162.84570	6.85751
3160.91714	6.77559
3158.98857	6.69916
3157.06001	6.64440
3155.13145	6.58511
3153.20288	6.50144
3151.27432	6.42845
3149.34575	6.38349
3147.41719	6.33480
3145.48862	6.26865
3143.56006	6.18853
3141.63149	6.09694
3139.70293	6.01475
3137.77437	5.95537
3135.84580	5.89407
3133.91724	5.81817
3131.98867	5.74334
3130.06011	5.67158
3128.13154	5.59896
3126.20298	5.52968
3124.27441	5.46278
3122.34585	5.38621
3120.41729	5.30095
3118.48872	5.22714
3116.56016	5.16974
3114.63159	5.11025
3112.70303	5.03868
3110.77446	4.96314
3108.84590	4.88855
3106.91733	4.81536
3104.98877	4.74796
3103.06021	4.68499
3101.13164	4.61768
3099.20308	4.54694
3097.27451	4.47829
3095.34595	4.41171
3093.41738	4.34530
3091.48882	4.27760
3089.56025	4.20981
3087.63169	4.14368
3085.70312	4.08091
3083.77456	4.02064
3081.84600	3.95872
3079.91743	3.89496
3077.98887	3.83358
3076.06030	3.77463
3074.13174	3.71533
3072.20317	3.65627
3070.27461	3.59824
3068.34604	3.54057
3066.41748	3.48191
3064.48892	3.42349
3062.56035	3.36778
3060.63179	3.31332
3058.70322	3.25878
3056.77466	3.20495
3054.84609	3.15178
3052.91753	3.09971
3050.98896	3.04869
3049.06040	2.99655
3047.13184	2.94367
3045.20327	2.89193
3043.27471	2.84184
3041.34614	2.79430
3039.41758	2.74857
3037.48901	2.70263
3035.56045	2.65605
3033.63188	2.60963
3031.70332	2.56352
3029.77476	2.51724
3027.84619	2.47175
3025.91763	2.42872
3023.98906	2.38798
3022.06050	2.34746
3020.13193	2.30599
3018.20337	2.26462
3016.27480	2.22423
3014.34624	2.18474
3012.41768	2.14611
3010.48911	2.10794
3008.56055	2.07002
3006.63198	2.03304
3004.70342	1.99735
3002.77485	1.96213
3000.84629	1.92700
2998.91772	1.89277
2996.98916	1.85991
2995.06060	1.82768
2993.13203	1.79520
2991.20347	1.76289
2989.27490	1.73160
2987.34634	1.70133
2985.41777	1.67192
2983.48921	1.64291
2981.56064	1.61376
2979.63208	1.58460
2977.70352	1.55588
2975.77495	1.52796
2973.84639	1.50072
2971.91782	1.47409
2969.98926	1.44825
2968.06069	1.42253
2966.13213	1.39658
2964.20356	1.37121
2962.27500	1.34653
2960.34644	1.32184
2958.41787	1.29745
2956.48931	1.27399
2954.56074	1.25090
2952.63218	1.22756
2950.70361	1.20455
2948.77505	1.18243
2946.84648	1.16068
2944.91792	1.13889
2942.98936	1.11754
2941.06079	1.09678
2939.13223	1.07612
2937.20366	1.05530
2935.27510	1.03399
2933.34653	1.01237
2931.41797	0.99141
2929.48940	0.97125
2927.56084	0.95184
2925.63228	0.93338
2923.70371	0.91575
2921.77515	0.89920
2919.84658	0.88405
2917.91802	0.86971
2915.98945	0.85566
2914.06089	0.84145
2912.13232	0.82682
2910.20376	0.81218
2908.27520	0.79804
2906.34663	0.78417
2904.41807	0.77046
2902.48950	0.75729
2900.56094	0.74458
2898.63237	0.73203
2896.70381	0.71993
2894.77524	0.70823
2892.84668	0.69667
2890.91812	0.68525
2888.98955	0.67404
2887.06099	0.66301
2885.13242	0.65223
2883.20386	0.64153
2881.27529	0.63084
2879.34673	0.62039
2877.41816	0.61024
2875.48960	0.60026
2873.56104	0.59024
2871.63247	0.58011
2869.70391	0.56999
2867.77534	0.55967
2865.84678	0.54896
2863.91821	0.53794
2861.98965	0.52663
2860.06108	0.51538
2858.13252	0.50472
2856.20396	0.49486
2854.27539	0.48585
2852.34683	0.47771
2850.41826	0.47049
2848.48970	0.46377
2846.56113	0.45711
2844.63257	0.45065
2842.70400	0.44449
2840.77544	0.43864
2838.84687	0.43304
2836.91831	0.42732
2834.98975	0.42144
2833.06118	0.41561
2831.13262	0.40982
2829.20405	0.40408
2827.27549	0.39842
2825.34692	0.39271
2823.41836	0.38684
2821.48979	0.38101
2819.56123	0.37542
2817.63267	0.36989
2815.70410	0.36441
2813.77554	0.35914
2811.84697	0.35387
2809.91841	0.34840
2807.98984	0.34290
2806.06128	0.33769
2804.13271	0.33289
2802.20415	0.32824
2800.27559	0.32350
2798.34702	0.31877
2796.41846	0.31431
2794.48989	0.30997
2792.56133	0.30549
2790.63276	0.30099
2788.70420	0.29658
2786.77563	0.29223
2784.84707	0.28812
2782.91851	0.28424
2780.98994	0.28043
2779.06138	0.27663
2777.13281	0.27283
2775.20425	0.26910
2773.27568	0.26546
2771.34712	0.26181
2769.41855	0.25826
2767.48999	0.25496
2765.56143	0.25176
2763.63286	0.24853
2761.70430	0.24523
2759.77573	0.24198
2757.84717	0.23896
2755.91860	0.23608
2753.99004	0.23308
2752.06147	0.23013
2750.13291	0.22741
2748.20435	0.22468
2746.27578	0.22181
2744.34722	0.21902
2742.41865	0.21648
2740.49009	0.21406
2738.56152	0.21162
2736.63296	0.20914
2734.70439	0.20674
2732.77583	0.20454
2730.84727	0.20245
2728.91870	0.20031
2726.99014	0.19818
2725.06157	0.19610
2723.13301	0.19413
2721.20444	0.19224
2719.27588	0.19033
2717.34731	0.18847
2715.41875	0.18667
2713.49019	0.18494
2711.56162	0.18331
2709.63306	0.18154
2707.70449	0.17963
2705.77593	0.17792
2703.84736	0.17638
2701.91880	0.17487
2699.99023	0.17344
2698.06167	0.17200
2696.13311	0.17062
2694.20454	0.16935
2692.27598	0.16812
2690.34741	0.16691
2688.41885	0.16568
2686.49028	0.16443
2684.56172	0.16327
2682.63315	0.16212
2680.70459	0.16099
2678.77603	0.15991
2676.84746	0.15880
2674.91890	0.15771
2672.99033	0.15660
2671.06177	0.15547
2669.13320	0.15450
2667.20464	0.15368
2665.27607	0.15289
2663.34751	0.15209
2661.41895	0.15128
2659.49038	0.15044
2657.56182	0.14962
2655.63325	0.14889
2653.70469	0.14816
2651.77612	0.14738
2649.84756	0.14674
2647.91899	0.14631
2645.99043	0.14577
2644.06187	0.14514
2642.13330	0.14471
2640.20474	0.14438
2638.27617	0.14397
2636.34761	0.14360
2634.41904	0.14327
2632.49048	0.14287
2630.56191	0.14246
2628.63335	0.14206
2626.70479	0.14168
2624.77622	0.14146
2622.84766	0.14127
2620.91909	0.14099
2618.99053	0.14070
2617.06196	0.14049
2615.13340	0.14033
2613.20483	0.14015
2611.27627	0.14001
2609.34771	0.13993
2607.41914	0.13993
2605.49058	0.14002
2603.56201	0.14014
2601.63345	0.14024
2599.70488	0.14033
2597.77632	0.14039
2595.84775	0.14043
2593.91919	0.14051
2591.99062	0.14064
2590.06206	0.14077
2588.13350	0.14097
2586.20493	0.14130
2584.27637	0.14166
2582.34780	0.14199
2580.41924	0.14225
2578.49067	0.14241
2576.56211	0.14259
2574.63354	0.14291
2572.70498	0.14341
2570.77642	0.14394
2568.84785	0.14433
2566.91929	0.14466
2564.99072	0.14513
2563.06216	0.14569
2561.13359	0.14614
2559.20503	0.14647
2557.27646	0.14685
2555.34790	0.14741
2553.41934	0.14818
2551.49077	0.14901
2549.56221	0.14958
2547.63364	0.14994
2545.70508	0.15041
2543.77651	0.15111
2541.84795	0.15182
2539.91938	0.15245
2537.99082	0.15311
2536.06226	0.15381
2534.13369	0.15445
2532.20513	0.15518
2530.27656	0.15600
2528.34800	0.15673
2526.41943	0.15743
2524.49087	0.15821
2522.56230	0.15895
2520.63374	0.15967
2518.70518	0.16044
2516.77661	0.16124
2514.84805	0.16204
2512.91948	0.16281
2510.99092	0.16357
2509.06235	0.16443
2507.13379	0.16542
2505.20522	0.16638
2503.27666	0.16717
2501.34810	0.16791
2499.41953	0.16865
2497.49097	0.16946
2495.56240	0.17040
2493.63384	0.17132
2491.70527	0.17216
2489.77671	0.17297
2487.84814	0.17373
2485.91958	0.17463
2483.99102	0.17575
2482.06245	0.17687
2480.13389	0.17790
2478.20532	0.17883
2476.27676	0.17961
2474.34819	0.18033
2472.41963	0.18113
2470.49106	0.18210
2468.56250	0.18315
2466.63394	0.18409
2464.70537	0.18489
2462.77681	0.18576
2460.84824	0.18677
2458.91968	0.18780
2456.99111	0.18882
2455.06255	0.18982
2453.13398	0.19083
2451.20542	0.19185
2449.27686	0.19296
2447.34829	0.19415
2445.41973	0.19520
2443.49116	0.19612
2441.56260	0.19710
2439.63403	0.19813
2437.70547	0.19919
2435.77690	0.20027
2433.84834	0.20135
2431.91978	0.20243
2429.99121	0.20348
2428.06265	0.20447
2426.13408	0.20546
2424.20552	0.20645
2422.27695	0.20749
2420.34839	0.20862
2418.41982	0.20986
2416.49126	0.21119
2414.56270	0.21247
2412.63413	0.21359
2410.70557	0.21470
2408.77700	0.21591
2406.84844	0.21711
2404.91987	0.21830
2402.99131	0.21952
2401.06274	0.22065
2399.13418	0.22171
2397.20562	0.22280
2395.27705	0.22407
2393.34849	0.22541
2391.41992	0.22665
2389.49136	0.22766
2387.56279	0.22820
2385.63423	0.22778
2383.70566	0.22602
2381.77710	0.22277
2379.84854	0.21828
2377.91997	0.21303
2375.99141	0.20694
2374.06284	0.19946
2372.13428	0.19043
2370.20571	0.18025
2368.27715	0.16974
2366.34858	0.16018
2364.42002	0.15236
2362.49146	0.14728
2360.56289	0.14595
2358.63433	0.14797
2356.70576	0.15376
2354.77720	0.16464
2352.84863	0.18016
2350.92007	0.19612
2348.99150	0.20596
2347.06294	0.20693
2345.13437	0.20023
2343.20581	0.19181
2341.27725	0.18897
2339.34868	0.19148
2337.42012	0.19549
2335.49155	0.19930
2333.56299	0.20314
2331.63442	0.20663
2329.70586	0.20986
2327.77729	0.21383
2325.84873	0.21903
2323.92017	0.22503
2321.99160	0.23137
2320.06304	0.23826
2318.13447	0.24548
2316.20591	0.25199
2314.27734	0.25720
2312.34878	0.26141
2310.42021	0.26552
2308.49165	0.27014
2306.56309	0.27509
2304.63452	0.27986
2302.70596	0.28393
2300.77739	0.28739
2298.84883	0.29067
2296.92026	0.29396
2294.99170	0.29732
2293.06313	0.30069
2291.13457	0.30397
2289.20601	0.30715
2287.27744	0.31023
2285.34888	0.31326
2283.42031	0.31606
2281.49175	0.31827
2279.56318	0.32007
2277.63462	0.32185
2275.70605	0.32364
2273.77749	0.32558
2271.84893	0.32774
2269.92036	0.32986
2267.99180	0.33195
2266.06323	0.33417
2264.13467	0.33645
2262.20610	0.33877
2260.27754	0.34111
2258.34897	0.34353
2256.42041	0.34606
2254.49185	0.34854
2252.56328	0.35083
2250.63472	0.35301
2248.70615	0.35520
2246.77759	0.35756
2244.84902	0.36006
2242.92046	0.36252
2240.99189	0.36487
2239.06333	0.36718
2237.13477	0.36950
2235.20620	0.37184
2233.27764	0.37419
2231.34907	0.37653
2229.42051	0.37887
2227.49194	0.38113
2225.56338	0.38326
2223.63481	0.38532
2221.70625	0.38743
2219.77769	0.38967
2217.84912	0.39198
2215.92056	0.39427
2213.99199	0.39655
2212.06343	0.39875
2210.13486	0.40088
2208.20630	0.40301
2206.27773	0.40510
2204.34917	0.40713
2202.42061	0.40921
2200.49204	0.41130
2198.56348	0.41330
2196.63491	0.41524
2194.70635	0.41724
2192.77778	0.41929
2190.84922	0.42129
2188.92065	0.42313
2186.99209	0.42477
2185.06353	0.42636
2183.13496	0.42806
2181.20640	0.42980
2179.27783	0.43148
2177.34927	0.43314
2175.42070	0.43481
2173.49214	0.43641
2171.56357	0.43788
2169.63501	0.43930
2167.70645	0.44064
2165.77788	0.44186
2163.84932	0.44311
2161.92075	0.44438
2159.99219	0.44544
2158.06362	0.44636
2156.13506	0.44736
2154.20649	0.44842
2152.27793	0.44940
2150.34937	0.45017
2148.42080	0.45074
2146.49224	0.45123
2144.56367	0.45174
2142.63511	0.45221
2140.70654	0.45248
2138.77798	0.45263
2136.84941	0.45278
2134.92085	0.45283
2132.99229	0.45285
2131.06372	0.45285
2129.13516	0.45274
2127.20659	0.45249
2125.27803	0.45214
2123.34946	0.45170
2121.42090	0.45118
2119.49233	0.45060
2117.56377	0.45007
2115.63521	0.44953
2113.70664	0.44874
2111.77808	0.44777
2109.84951	0.44684
2107.92095	0.44590
2105.99238	0.44480
2104.06382	0.44361
2102.13525	0.44233
2100.20669	0.44095
2098.27812	0.43951
2096.34956	0.43801
2094.42100	0.43644
2092.49243	0.43485
2090.56387	0.43322
2088.63530	0.43149
2086.70674	0.42969
2084.77817	0.42778
2082.84961	0.42585
2080.92104	0.42399
2078.99248	0.42198
2077.06392	0.41989
2075.13535	0.41789
2073.20679	0.41588
2071.27822	0.41359
2069.34966	0.41116
2067.42109	0.40876
2065.49253	0.40635
2063.56396	0.40390
2061.63540	0.40148
2059.70684	0.39906
2057.77827	0.39660
2055.84971	0.39408
2053.92114	0.39152
2051.99258	0.38898
2050.06401	0.38645
2048.13545	0.38390
2046.20688	0.38123
2044.27832	0.37845
2042.34976	0.37571
2040.42119	0.37305
2038.49263	0.37035
2036.56406	0.36754
2034.63550	0.36474
2032.70693	0.36200
2030.77837	0.35931
2028.84980	0.35659
2026.92124	0.35383
2024.99268	0.35104
2023.06411	0.34831
2021.13555	0.34565
2019.20698	0.34290
2017.27842	0.34004
2015.34985	0.33720
2013.42129	0.33442
2011.49272	0.33158
2009.56416	0.32879
2007.63560	0.32617
2005.70703	0.32358
2003.77847	0.32092
2001.84990	0.31823
1999.92134	0.31559
1997.99277	0.31303
1996.06421	0.31051
1994.13564	0.30802
1992.20708	0.30558
1990.27852	0.30311
1988.34995	0.30054
1986.42139	0.29790
1984.49282	0.29544
1982.56426	0.29320
1980.63569	0.29096
1978.70713	0.28865
1976.77856	0.28636
1974.85000	0.28416
1972.92144	0.28197
1970.99287	0.27978
1969.06431	0.27769
1967.13574	0.27571
1965.20718	0.27373
1963.27861	0.27171
1961.35005	0.26978
1959.42148	0.26796
1957.49292	0.26615
1955.56436	0.26435
1953.63579	0.26260
1951.70723	0.26083
1949.77866	0.25915
1947.85010	0.25758
1945.92153	0.25607
1943.99297	0.25465
1942.06440	0.25318
1940.13584	0.25156
1938.20728	0.25003
1936.27871	0.24869
1934.35015	0.24746
1932.42158	0.24625
1930.49302	0.24505
1928.56445	0.24393
1926.63589	0.24288
1924.70732	0.24193
1922.77876	0.24101
1920.85020	0.24005
1918.92163	0.23911
1916.99307	0.23820
1915.06450	0.23737
1913.13594	0.23658
1911.20737	0.23586
1909.27881	0.23512
1907.35024	0.23430
1905.42168	0.23353
1903.49312	0.23294
1901.56455	0.23248
1899.63599	0.23205
1897.70742	0.23159
1895.77886	0.23116
1893.85029	0.23084
1891.92173	0.23048
1889.99316	0.23023
1888.06460	0.22999
1886.13604	0.22967
1884.20747	0.22942
1882.27891	0.22927
1880.35034	0.22914
1878.42178	0.22906
1876.49321	0.22909
1874.56465	0.22914
1872.63608	0.22920
1870.70752	0.22935
1868.77896	0.22974
1866.85039	0.23004
1864.92183	0.23008
1862.99326	0.23020
1861.06470	0.23047
1859.13613	0.23085
1857.20757	0.23121
1855.27900	0.23163
1853.35044	0.23210
1851.42187	0.23263
1849.49331	0.23314
1847.56475	0.23372
1845.63618	0.23456
1843.70762	0.23570
1841.77905	0.23660
1839.85049	0.23709
1837.92192	0.23780
1835.99336	0.23879
1834.06479	0.23983
1832.13623	0.24076
1830.20767	0.24199
1828.27910	0.24354
1826.35054	0.24472
1824.42197	0.24590
1822.49341	0.24714
1820.56484	0.24842
1818.63628	0.24978
1816.70771	0.25139
1814.77915	0.25306
1812.85059	0.25477
1810.92202	0.25668
1808.99346	0.25873
1807.06489	0.26081
1805.13633	0.26284
1803.20776	0.26508
1801.27920	0.26757
1799.35063	0.27036
1797.42207	0.27293
1795.49351	0.27533
1793.56494	0.27795
1791.63638	0.28140
1789.70781	0.28506
1787.77925	0.28793
1785.85068	0.29103
1783.92212	0.29463
1781.99355	0.29854
1780.06499	0.30267
1778.13643	0.30695
1776.20786	0.31098
1774.27930	0.31521
1772.35073	0.32083
1770.42217	0.32716
1768.49360	0.33273
1766.56504	0.33799
1764.63647	0.34319
1762.70791	0.34879
1760.77935	0.35601
1758.85078	0.36296
1756.92222	0.36987
1754.99365	0.37741
1753.06509	0.38424
1751.13652	0.39207
1749.20796	0.40187
1747.27939	0.41197
1745.35083	0.42121
1743.42227	0.43094
1741.49370	0.44147
1739.56514	0.45393
1737.63657	0.46668
1735.70801	0.47785
1733.77944	0.49434
1731.85088	0.51415
1729.92231	0.53000
1727.99375	0.54618
1726.06519	0.56343
1724.13662	0.58193
1722.20806	0.60186
1720.27949	0.62029
1718.35093	0.64167
1716.42236	0.67346
1714.49380	0.70432
1712.56523	0.72946
1710.63667	0.75362
1708.70811	0.77939
1706.77954	0.80848
1704.85098	0.84310
1702.92241	0.87395
1700.99385	0.90421
1699.06528	0.94936
1697.13672	0.99146
1695.20815	1.03480
1693.27959	1.07676
1691.35103	1.11007
1689.42246	1.14810
1687.49390	1.18837
1685.56533	1.22718
1683.63677	1.28683
1681.70820	1.34961
1679.77964	1.39035
1677.85107	1.42873
1675.92251	1.47205
1673.99395	1.52496
1672.06538	1.57212
1670.13682	1.61912
1668.20825	1.68105
1666.27969	1.73156
1664.35112	1.77365
1662.42256	1.82596
1660.49399	1.88534
1658.56543	1.93168
1656.63687	1.96858
1654.70830	2.00186
1652.77974	2.05532
1650.85117	2.10995
1648.92261	2.13238
1646.99404	2.15935
1645.06548	2.18940
1643.13691	2.20926
1641.20835	2.21963
1639.27979	2.22814
1637.35122	2.23433
1635.42266	2.23568
1633.49409	2.22890
1631.56553	2.21515
1629.63696	2.19808
1627.70840	2.17107
1625.77983	2.14032
1623.85127	2.10156
1621.92271	2.05311
1619.99414	2.01030
1618.06558	1.96915
1616.13701	1.90962
1614.20845	1.84795
1612.27988	1.80070
1610.35132	1.75113
1608.42275	1.69696
1606.49419	1.64353
1604.56562	1.59442
1602.63706	1.54715
1600.70850	1.50099
1598.77993	1.45807
1596.85137	1.41719
1594.92280	1.37768
1592.99424	1.34022
1591.06567	1.30580
1589.13711	1.27336
1587.20854	1.24342
1585.27998	1.21577
1583.35142	1.18967
1581.42285	1.16559
1579.49429	1.14474
1577.56572	1.12593
1575.63716	1.10353
1573.70859	1.08365
1571.78003	1.06990
1569.85146	1.05531
1567.92290	1.03946
1565.99434	1.02731
1564.06577	1.01745
1562.13721	1.00948
1560.20864	1.00310
1558.28008	0.99394
1556.35151	0.98637
1554.42295	0.98186
1552.49438	0.97754
1550.56582	0.97248
1548.63726	0.96580
1546.70869	0.95835
1544.78013	0.94949
1542.85156	0.93813
1540.92300	0.92288
1538.99443	0.90216
1537.06587	0.88789
1535.13730	0.87800
1533.20874	0.86441
1531.28018	0.84967
1529.35161	0.83897
1527.42305	0.82877
1525.49448	0.81770
1523.56592	0.80809
1521.63735	0.79946
1519.70879	0.79097
1517.78022	0.78350
1515.85166	0.77500
1513.92310	0.76633
1511.99453	0.75874
1510.06597	0.75168
1508.13740	0.74477
1506.20884	0.73485
1504.28027	0.72670
1502.35171	0.72202
1500.42314	0.71769
1498.49458	0.71289
1496.56602	0.70707
1494.63745	0.70129
1492.70889	0.69700
1490.78032	0.69333
1488.85176	0.68888
1486.92319	0.68433
1484.99463	0.68064
1483.06606	0.67777
1481.13750	0.67524
1479.20894	0.67285
1477.28037	0.67083
1475.35181	0.66917
1473.42324	0.66767
1471.49468	0.66557
1469.56611	0.66302
1467.63755	0.66054
1465.70898	0.65831
1463.78042	0.65670
1461.85186	0.65574
1459.92329	0.65509
1457.99473	0.65450
1456.06616	0.65328
1454.13760	0.65129
1452.20903	0.64927
1450.28047	0.64716
1448.35190	0.64496
1446.42334	0.64273
1444.49478	0.64073
1442.56621	0.63894
1440.63765	0.63725
1438.70908	0.63562
1436.78052	0.63368
1434.85195	0.63136
1432.92339	0.62923
1430.99482	0.62760
1429.06626	0.62658
1427.13770	0.62604
1425.20913	0.62570
1423.28057	0.62542
1421.35200	0.62507
1419.42344	0.62464
1417.49487	0.62391
1415.56631	0.62263
1413.63774	0.62133
1411.70918	0.62043
1409.78062	0.62003
1407.85205	0.61988
1405.92349	0.61963
1403.99492	0.61913
1402.06636	0.61836
1400.13779	0.61731
1398.20923	0.61580
1396.28066	0.61398
1394.35210	0.61172
1392.42354	0.60900
1390.49497	0.60640
1388.56641	0.60386
1386.63784	0.60099
1384.70928	0.59796
1382.78071	0.59503
1380.85215	0.59223
1378.92358	0.58983
1376.99502	0.58796
1375.06646	0.58663
1373.13789	0.58581
1371.20933	0.58525
1369.28076	0.58467
1367.35220	0.58380
1365.42363	0.58270
1363.49507	0.58154
1361.56650	0.58023
1359.63794	0.57888
1357.70937	0.57779
1355.78081	0.57685
1353.85225	0.57588
1351.92368	0.57493
1349.99512	0.57401
1348.06655	0.57298
1346.13799	0.57194
1344.20942	0.57106
1342.28086	0.57020
1340.35229	0.56928
1338.42373	0.56834
1336.49517	0.56748
1334.56660	0.56680
1332.63804	0.56630
1330.70947	0.56601
1328.78091	0.56590
1326.85234	0.56576
1324.92378	0.56556
1322.99521	0.56557
1321.06665	0.56569
1319.13809	0.56559
1317.20952	0.56522
1315.28096	0.56478
1313.35239	0.56431
1311.42383	0.56368
1309.49526	0.56288
1307.56670	0.56196
1305.63813	0.56095
1303.70957	0.55991
1301.78101	0.55888
1299.85244	0.55784
1297.92388	0.55686
1295.99531	0.55589
1294.06675	0.55478
1292.13818	0.55368
1290.20962	0.55269
1288.28105	0.55179
1286.35249	0.55100
1284.42393	0.55020
1282.49536	0.54925
1280.56680	0.54813
1278.63823	0.54704
1276.70967	0.54614
1274.78110	0.54539
1272.85254	0.54465
1270.92397	0.54391
1268.99541	0.54326
1267.06685	0.54277
1265.13828	0.54230
1263.20972	0.54170
1261.28115	0.54093
1259.35259	0.54020
1257.42402	0.53974
1255.49546	0.53941
1253.56689	0.53911
1251.63833	0.53895
1249.70977	0.53889
1247.78120	0.53873
1245.85264	0.53838
1243.92407	0.53797
1241.99551	0.53746
1240.06694	0.53655
1238.13838	0.53530
1236.20981	0.53404
1234.28125	0.53273
1232.35269	0.53125
1230.42412	0.52975
1228.49556	0.52844
1226.56699	0.52727
1224.63843	0.52607
1222.70986	0.52484
1220.78130	0.52366
1218.85273	0.52251
1216.92417	0.52147
1214.99561	0.52066
1213.06704	0.51994
1211.13848	0.51920
1209.20991	0.51850
1207.28135	0.51781
1205.35278	0.51707
1203.42422	0.51641
1201.49565	0.51584
1199.56709	0.51512
1197.63853	0.51415
1195.70996	0.51331
1193.78140	0.51281
1191.85283	0.51245
1189.92427	0.51205
1187.99570	0.51153
1186.06714	0.51108
1184.13857	0.51086
1182.21001	0.51088
1180.28145	0.51121
1178.35288	0.51187
1176.42432	0.51268
1174.49575	0.51358
1172.56719	0.51449
1170.63862	0.51512
1168.71006	0.51543
1166.78149	0.51564
1164.85293	0.51587
1162.92437	0.51609
1160.99580	0.51639
1159.06724	0.51671
1157.13867	0.51668
1155.21011	0.51599
1153.28154	0.51464
1151.35298	0.51289
1149.42441	0.51089
1147.49585	0.50849
1145.56729	0.50574
1143.63872	0.50329
1141.71016	0.50135
1139.78159	0.49955
1137.85303	0.49786
1135.92446	0.49670
1133.99590	0.49611
1132.06733	0.49563
1130.13877	0.49513
1128.21021	0.49482
1126.28164	0.49454
1124.35308	0.49398
1122.42451	0.49321
1120.49595	0.49241
1118.56738	0.49181
1116.63882	0.49178
1114.71025	0.49234
1112.78169	0.49319
1110.85312	0.49405
1108.92456	0.49490
1106.99600	0.49596
1105.06743	0.49698
1103.13887	0.49778
1101.21030	0.49882
1099.28174	0.50032
1097.35317	0.50221
1095.42461	0.50468
1093.49604	0.50796
1091.56748	0.51228
1089.63892	0.51803
1087.71035	0.52534
1085.78179	0.53365
1083.85322	0.54199
1081.92466	0.54959
1079.99609	0.55536
1078.06753	0.55820
1076.13896	0.55790
1074.21040	0.55488
1072.28184	0.54977
1070.35327	0.54332
1068.42471	0.53633
1066.49614	0.52951
1064.56758	0.52326
1062.63901	0.51774
1060.71045	0.51300
1058.78188	0.50890
1056.85332	0.50524
1054.92476	0.50201
1052.99619	0.49918
1051.06763	0.49682
1049.13906	0.49532
1047.21050	0.49481
1045.28193	0.49482
1043.35337	0.49492
1041.42480	0.49513
1039.49624	0.49546
1037.56768	0.49560
1035.63911	0.49541
1033.71055	0.49492
1031.78198	0.49416
1029.85342	0.49304
1027.92485	0.49155
1025.99629	0.49001
1024.06772	0.48889
1022.13916	0.48849
1020.21060	0.48864
1018.28203	0.48882
1016.35347	0.48879
1014.42490	0.48886
1012.49634	0.48918
1010.56777	0.48949
1008.63921	0.48986
1006.71064	0.49059
1004.78208	0.49163
1002.85352	0.49316
1000.92495	0.49566
998.99639	0.49905
997.06782	0.50301
995.13926	0.50731
993.21069	0.51138
991.28213	0.51450
989.35356	0.51639
987.42500	0.51729
985.49644	0.51776
983.56787	0.51815
981.63931	0.51865
979.71074	0.51957
977.78218	0.52108
975.85361	0.52309
973.92505	0.52549
971.99648	0.52833
970.06792	0.53176
968.13936	0.53580
966.21079	0.54015
964.28223	0.54450
962.35366	0.54896
960.42510	0.55385
958.49653	0.55920
956.56797	0.56492
954.63940	0.57103
952.71084	0.57748
950.78228	0.58404
948.85371	0.59030
946.92515	0.59635
944.99658	0.60248
943.06802	0.60860
941.13945	0.61454
939.21089	0.62050
937.28232	0.62664
935.35376	0.63271
933.42520	0.63849
931.49663	0.64403
929.56807	0.64960
927.63950	0.65526
925.71094	0.66086
923.78237	0.66680
921.85381	0.67357
919.92524	0.68057
917.99668	0.68759
916.06812	0.69506
914.13955	0.70249
912.21099	0.70978
910.28242	0.71763
908.35386	0.72611
906.42529	0.73486
904.49673	0.74360
902.56816	0.75221
900.63960	0.76112
898.71104	0.77063
896.78247	0.78074
894.85391	0.79167
892.92534	0.80271
890.99678	0.81268
889.06821	0.82245
887.13965	0.83360
885.21108	0.84587
883.28252	0.85778
881.35396	0.86858
879.42539	0.87887
877.49683	0.88984
875.56826	0.90184
873.63970	0.91353
871.71113	0.92433
869.78257	0.93516
867.85400	0.94633
865.92544	0.95829
863.99687	0.97108
862.06831	0.98380
860.13975	0.99524
858.21118	1.00538
856.28262	1.01651
854.35405	1.02814
852.42549	1.03792
850.49692	1.04835
848.56836	1.06170
846.63979	1.07511
844.71123	1.08598
842.78267	1.09580
840.85410	1.10775
838.92554	1.12210
836.99697	1.13555
835.06841	1.14425
833.13984	1.14838
831.21128	1.15312
829.28271	1.16172
827.35415	1.17251
825.42559	1.18392
823.49702	1.19709
821.56846	1.21151
819.63989	1.22401
817.71133	1.23213
815.78276	1.24016
813.85420	1.25452
811.92563	1.26943
809.99707	1.27344
808.06851	1.27384
806.13994	1.29181
804.21138	1.33328
802.28281	1.37322
800.35425	1.37405
798.42568	1.35341
796.49712	1.35088
794.56855	1.36950
792.63999	1.40346
790.71143	1.44126
788.78286	1.44732
786.85430	1.42314
784.92573	1.40086
782.99717	1.33959
781.06860	1.27865
779.14004	1.27215
777.21147	1.28258
775.28291	1.27921
773.35435	1.27398
771.42578	1.29572
769.49722	1.32306
767.56865	1.32270
765.64009	1.35411
763.71152	1.42007
761.78296	1.36317
759.85439	1.22989
757.92583	1.14660
755.99727	1.10733
754.06870	1.10132
752.14014	1.08832
750.21157	1.05515
748.28301	1.05273
746.35444	1.05047
744.42588	1.00160
742.49731	0.93993
740.56875	0.88535
738.64019	0.83931
736.71162	0.77904
734.78306	0.72001
732.85449	0.65306
730.92593	0.47224
728.99736	0.29245
727.06880	0.20179
725.14023	0.05278
723.21167	-0.20833
721.28311	-0.73777
719.35454	-0.59053
717.42598	-0.45796
715.49741	-0.47468
713.56885	-0.20057
711.64028	0.02742
709.71172	0.14393
707.78315	0.19469
705.85459	0.27134
703.92603	0.43981
701.99746	0.55869
700.06890	0.48138
698.14033	0.35743
696.21177	0.24317
694.28320	0.19391
692.35464	0.23389
690.42607	0.32765
688.49751	0.40514
686.56895	0.41349
684.64038	0.40425
682.71182	0.45359
680.78325	0.53152
678.85469	0.58855
676.92612	0.62168
674.99756	0.57202
673.06899	0.48858
671.14043	0.42023
669.21187	0.35324
667.28330	0.29576
665.35474	0.27272
663.42617	0.31065
661.49761	0.35777
659.56904	0.31041
657.64048	0.24859
655.71191	0.24663
653.78335	0.28034
651.85479	0.32168
649.92622	0.30967
647.99766	0.26548
646.06909	0.27282
644.14053	0.34774
642.21196	0.37656
640.28340	0.30360
638.35483	0.23008
636.42627	0.22414
634.49771	0.28050
632.56914	0.32548
630.64058	0.30491
628.71201	0.26679
626.78345	0.29598
624.85488	0.37226
622.92632	0.36699
620.99775	0.31183
619.06919	0.32151
617.14062	0.37268
615.21206	0.36964
613.28350	0.30024
611.35493	0.26755
609.42637	0.28232
607.49780	0.30052
605.56924	0.31577
603.64067	0.36413
601.71211	0.39386
599.78354	0.30831
597.85498	0.23140
595.92642	0.22874
593.99785	0.25211
592.06929	0.30151
590.14072	0.36590
588.21216	0.37593
586.28359	0.34322
584.35503	0.33942
582.42646	0.37371
580.49790	0.35686
578.56934	0.29987
576.64077	0.32013
574.71221	0.41921
572.78364	0.44934
570.85508	0.35207
568.92651	0.28982
566.99795	0.27318
565.06938	0.27328
563.14082	0.30022
561.21226	0.36101
559.28369	0.40304
557.35513	0.36037
555.42656	0.25686
553.49800	0.20502
551.56943	0.23539
549.64087	0.30523
547.71230	0.37616
545.78374	0.38888
543.85518	0.32244
541.92661	0.26909
539.99805	0.23457
538.06948	0.22422
536.14092	0.25758
534.21235	0.29495
532.28379	0.31752
530.35522	0.33925
528.42666	0.32674
526.49810	0.27227
524.56953	0.21890
522.64097	0.19431
520.71240	0.20462
518.78384	0.22188
516.85527	0.22370
514.92671	0.22684
512.99814	0.23134
511.06958	0.25254
509.14102	0.28867
507.21245	0.27342
505.28389	0.22512
503.35532	0.19395
501.42676	0.19233
499.49819	0.21183
