3997.91411	0.07273
3995.98555	0.07323
3994.05698	0.07356
3992.12842	0.07379
3990.19985	0.07400
3988.27129	0.07416
3986.34272	0.07417
3984.41416	0.07432
3982.48560	0.07481
3980.55703	0.07522
3978.62847	0.07530
3976.69990	0.07530
3974.77134	0.07563
3972.84277	0.07610
3970.91421	0.07615
3968.98564	0.07605
3967.05708	0.07612
3965.12852	0.07613
3963.19995	0.07651
3961.27139	0.07737
3959.34282	0.07792
3957.41426	0.07802
3955.48569	0.07807
3953.55713	0.07829
3951.62856	0.07896
3949.70000	0.07977
3947.77144	0.07987
3945.84287	0.07912
3943.91431	0.07891
3941.98574	0.07954
3940.05718	0.07941
3938.12861	0.07839
3936.20005	0.07777
3934.27148	0.07819
3932.34292	0.07958
3930.41436	0.08075
3928.48579	0.08028
3926.55723	0.07940
3924.62866	0.07984
3922.70010	0.08040
3920.77153	0.08004
3918.84297	0.08017
3916.91440	0.08098
3914.98584	0.08054
3913.05728	0.07866
3911.12871	0.07709
3909.20015	0.07651
3907.27158	0.07742
3905.34302	0.08056
3903.41445	0.08470
3901.48589	0.08675
3899.55732	0.08586
3897.62876	0.08291
3895.70020	0.07981
3893.77163	0.07922
3891.84307	0.08123
3889.91450	0.08235
3887.98594	0.08148
3886.05737	0.08192
3884.12881	0.08322
3882.20024	0.08355
3880.27168	0.08396
3878.34312	0.08316
3876.41455	0.08141
3874.48599	0.08194
3872.55742	0.08462
3870.62886	0.08752
3868.70029	0.08883
3866.77173	0.08768
3864.84316	0.08736
3862.91460	0.08800
3860.98604	0.08658
3859.05747	0.08476
3857.12891	0.08527
3855.20034	0.08876
3853.27178	0.09517
3851.34321	0.09749
3849.41465	0.09189
3847.48608	0.08686
3845.55752	0.08547
3843.62896	0.08762
3841.70039	0.09169
3839.77183	0.09592
3837.84326	0.09894
3835.91470	0.09827
3833.98613	0.09542
3832.05757	0.09340
3830.12900	0.09238
3828.20044	0.09245
3826.27187	0.09390
3824.34331	0.09581
3822.41475	0.09890
3820.48618	0.10389
3818.55762	0.10550
3816.62905	0.10386
3814.70049	0.10204
3812.77192	0.09900
3810.84336	0.09694
3808.91479	0.09833
3806.98623	0.10286
3805.05767	0.10700
3803.12910	0.10963
3801.20054	0.11297
3799.27197	0.11409
3797.34341	0.11244
3795.41484	0.11085
3793.48628	0.10888
3791.55771	0.10778
3789.62915	0.10855
3787.70059	0.11032
3785.77202	0.11276
3783.84346	0.11528
3781.91489	0.11699
3779.98633	0.11907
3778.05776	0.12127
3776.12920	0.12152
3774.20063	0.12145
3772.27207	0.12310
3770.34351	0.12662
3768.41494	0.13033
3766.48638	0.13248
3764.55781	0.13417
3762.62925	0.13572
3760.70068	0.13808
3758.77212	0.14231
3756.84355	0.14594
3754.91499	0.14805
3752.98643	0.15183
3751.05786	0.15946
3749.12930	0.16702
3747.20073	0.16908
3745.27217	0.17028
3743.34360	0.17379
3741.41504	0.17716
3739.48647	0.18038
3737.55791	0.18630
3735.62935	0.19627
3733.70078	0.20611
3731.77222	0.20988
3729.84365	0.21136
3727.91509	0.21465
3725.98652	0.22050
3724.05796	0.22724
3722.12939	0.23247
3720.20083	0.23592
3718.27227	0.23851
3716.34370	0.24181
3714.41514	0.24795
3712.48657	0.26021
3710.55801	0.27951
3708.62944	0.29593
3706.70088	0.30503
3704.77231	0.31404
3702.84375	0.32702
3700.91519	0.34430
3698.98662	0.36185
3697.05806	0.37803
3695.12949	0.39598
3693.20093	0.41593
3691.27236	0.43851
3689.34380	0.46765
3687.41523	0.50051
3685.48667	0.52682
3683.55811	0.54988
3681.62954	0.57668
3679.70098	0.60898
3677.77241	0.64484
3675.84385	0.68773
3673.91528	0.74136
3671.98672	0.78234
3670.05815	0.81951
3668.12959	0.87082
3666.20103	0.91631
3664.27246	0.95457
3662.34390	0.99698
3660.41533	1.04381
3658.48677	1.09066
3656.55820	1.14098
3654.62964	1.19666
3652.70107	1.24372
3650.77251	1.28738
3648.84395	1.34870
3646.91538	1.41681
3644.98682	1.46102
3643.05825	1.49609
3641.12969	1.53574
3639.20112	1.58107
3637.27256	1.62689
3635.34399	1.67195
3633.41543	1.71727
3631.48687	1.76010
3629.55830	1.80463
3627.62974	1.86098
3625.70117	1.90943
3623.77261	1.94058
3621.84404	1.97163
3619.91548	2.00885
3617.98691	2.05441
3616.05835	2.09779
3614.12979	2.13389
3612.20122	2.17207
3610.27266	2.21071
3608.34409	2.25149
3606.41553	2.29593
3604.48696	2.33515
3602.55840	2.36982
3600.62983	2.40907
3598.70127	2.45092
3596.77271	2.48937
3594.84414	2.52861
3592.91558	2.57057
3590.98701	2.60974
3589.05845	2.64641
3587.12988	2.69067
3585.20132	2.73678
3583.27275	2.77318
3581.34419	2.80826
3579.41562	2.84945
3577.48706	2.89424
3575.55850	2.93752
3573.62993	2.97953
3571.70137	3.02033
3569.77280	3.06078
3567.84424	3.10552
3565.91567	3.16136
3563.98711	3.21412
3562.05854	3.25323
3560.12998	3.29087
3558.20142	3.33342
3556.27285	3.37879
3554.34429	3.42412
3552.41572	3.47235
3550.48716	3.52142
3548.55859	3.56559
3546.63003	3.61044
3544.70146	3.66227
3542.77290	3.71169
3540.84434	3.75413
3538.91577	3.79580
3536.98721	3.83998
3535.05864	3.89051
3533.13008	3.94335
3531.20151	3.99345
3529.27295	4.04189
3527.34438	4.09077
3525.41582	4.13950
3523.48726	4.18704
3521.55869	4.23513
3519.63013	4.28370
3517.70156	4.33276
3515.77300	4.37933
3513.84443	4.42249
3511.91587	4.46821
3509.98730	4.52036
3508.05874	4.57322
3506.13018	4.62029
3504.20161	4.66485
3502.27305	4.71465
3500.34448	4.76780
3498.41592	4.81434
3496.48735	4.85657
3494.55879	4.90273
3492.63022	4.95433
3490.70166	5.00527
3488.77310	5.05471
3486.84453	5.10928
3484.91597	5.16392
3482.98740	5.21009
3481.05884	5.25223
3479.13027	5.29501
3477.20171	5.33874
3475.27314	5.38417
3473.34458	5.43309
3471.41602	5.48699
3469.48745	5.54421
3467.55889	5.60148
3465.63032	5.65443
3463.70176	5.70239
3461.77319	5.74950
3459.84463	5.79870
3457.91606	5.84508
3455.98750	5.89194
3454.05894	5.94952
3452.13037	6.01007
3450.20181	6.05398
3448.27324	6.08428
3446.34468	6.12757
3444.41611	6.18206
3442.48755	6.23553
3440.55898	6.29763
3438.63042	6.37461
3436.70186	6.44647
3434.77329	6.48907
3432.84473	6.51568
3430.91616	6.54460
3428.98760	6.57078
3427.05903	6.60826
3425.13047	6.68225
3423.20190	6.76231
3421.27334	6.82657
3419.34478	6.88954
3417.41621	6.94194
3415.48765	6.97365
3413.55908	7.00474
3411.63052	7.04959
3409.70195	7.09323
3407.77339	7.14962
3405.84482	7.21452
3403.91626	7.26058
3401.98770	7.27244
3400.05913	7.28765
3398.13057	7.35044
3396.20200	7.40786
3394.27344	7.43749
3392.34487	7.47125
3390.41631	7.51056
3388.48774	7.54484
3386.55918	7.57857
3384.63062	7.59231
3382.70205	7.60056
3380.77349	7.65932
3378.84492	7.74059
3376.91636	7.77766
3374.98779	7.78119
3373.05923	7.80199
3371.13066	7.84749
3369.20210	7.90727
3367.27354	7.93596
3365.34497	7.95863
3363.41641	8.00601
3361.48784	8.03627
3359.55928	8.04165
3357.63071	8.02393
3355.70215	8.06126
3353.77358	8.14373
3351.84502	8.15545
3349.91646	8.11636
3347.98789	8.12796
3346.05933	8.20600
3344.13076	8.29378
3342.20220	8.33887
3340.27363	8.33593
3338.34507	8.35008
3336.41650	8.38047
3334.48794	8.36948
3332.55937	8.27914
3330.63081	8.19911
3328.70225	8.22135
3326.77368	8.28886
3324.84512	8.32183
3322.91655	8.31704
3320.98799	8.32206
3319.05942	8.36989
3317.13086	8.45567
3315.20229	8.48910
3313.27373	8.45068
3311.34517	8.39996
3309.41660	8.36702
3307.48804	8.36842
3305.55947	8.36552
3303.63091	8.34448
3301.70234	8.33557
3299.77378	8.36509
3297.84521	8.41757
3295.91665	8.48076
3293.98809	8.48494
3292.05952	8.37886
3290.13096	8.28288
3288.20239	8.26796
3286.27383	8.30167
3284.34526	8.35508
3282.41670	8.37794
3280.48813	8.35775
3278.55957	8.37018
3276.63101	8.38278
3274.70244	8.36860
3272.77388	8.35792
3270.84531	8.35063
3268.91675	8.34775
3266.98818	8.34785
3265.05962	8.37424
3263.13105	8.38911
3261.20249	8.40121
3259.27393	8.42995
3257.34536	8.45384
3255.41680	8.47991
3253.48823	8.42461
3251.55967	8.31964
3249.63110	8.36639
3247.70254	8.55615
3245.77397	8.59623
3243.84541	8.43468
3241.91685	8.33011
3239.98828	8.35897
3238.05972	8.40001
3236.13115	8.40643
3234.20259	8.39646
3232.27402	8.30834
3230.34546	8.25165
3228.41689	8.31224
3226.48833	8.31945
3224.55977	8.20997
3222.63120	8.14047
3220.70264	8.15314
3218.77407	8.19289
3216.84551	8.21308
3214.91694	8.22206
3212.98838	8.23856
3211.05981	8.18480
3209.13125	8.06577
3207.20269	7.99806
3205.27412	8.01423
3203.34556	8.02667
3201.41699	7.95603
3199.48843	7.87901
3197.55986	7.85649
3195.63130	7.84243
3193.70273	7.83639
3191.77417	7.83617
3189.84561	7.77858
3187.91704	7.67818
3185.98848	7.60007
3184.05991	7.57727
3182.13135	7.58808
3180.20278	7.52176
3178.27422	7.35242
3176.34565	7.21945
3174.41709	7.19403
3172.48853	7.20579
3170.55996	7.16819
3168.63140	7.10252
3166.70283	7.04831
3164.77427	6.99781
3162.84570	6.94611
3160.91714	6.87241
3158.98857	6.77652
3157.06001	6.67916
3155.13145	6.58584
3153.20288	6.51210
3151.27432	6.45084
3149.34575	6.38577
3147.41719	6.33205
3145.48862	6.27988
3143.56006	6.20832
3141.63149	6.12881
3139.70293	6.05060
3137.77437	5.98730
3135.84580	5.93736
3133.91724	5.86954
3131.98867	5.78520
3130.06011	5.70891
3128.13154	5.63554
3126.20298	5.55658
3124.27441	5.47768
3122.34585	5.40025
3120.41729	5.32884
3118.48872	5.26211
3116.56016	5.18877
3114.63159	5.10853
3112.70303	5.03075
3110.77446	4.95932
3108.84590	4.89206
3106.91733	4.82493
3104.98877	4.75437
3103.06021	4.68394
3101.13164	4.61861
3099.20308	4.55557
3097.27451	4.49008
3095.34595	4.42294
3093.41738	4.35485
3091.48882	4.28589
3089.56025	4.21957
3087.63169	4.15717
3085.70312	4.09596
3083.77456	4.03279
3081.84600	3.96772
3079.91743	3.90375
3077.98887	3.84402
3076.06030	3.78678
3074.13174	3.72766
3072.20317	3.66697
3070.27461	3.60856
3068.34604	3.55433
3066.41748	3.49983
3064.48892	3.44155
3062.56035	3.38249
3060.63179	3.32571
3058.70322	3.27058
3056.77466	3.21528
3054.84609	3.16105
3052.91753	3.10937
3050.98896	3.05896
3049.06040	3.00813
3047.13184	2.95645
3045.20327	2.90500
3043.27471	2.85540
3041.34614	2.80767
3039.41758	2.76064
3037.48901	2.71366
3035.56045	2.66675
3033.63188	2.62070
3031.70332	2.57509
3029.77476	2.52930
3027.84619	2.48500
3025.91763	2.44243
3023.98906	2.40015
3022.06050	2.35835
3020.13193	2.31731
3018.20337	2.27675
3016.27480	2.23691
3014.34624	2.19784
3012.41768	2.15919
3010.48911	2.12111
3008.56055	2.08371
3006.63198	2.04681
3004.70342	2.01072
3002.77485	1.97509
3000.84629	1.93918
2998.91772	1.90409
2996.98916	1.87097
2995.06060	1.83872
2993.13203	1.80646
2991.20347	1.77490
2989.27490	1.74428
2987.34634	1.71397
2985.41777	1.68396
2983.48921	1.65466
2981.56064	1.62591
2979.63208	1.59741
2977.70352	1.56941
2975.77495	1.54218
2973.84639	1.51535
2971.91782	1.48882
2969.98926	1.46283
2968.06069	1.43686
2966.13213	1.41073
2964.20356	1.38511
2962.27500	1.36000
2960.34644	1.33536
2958.41787	1.31136
2956.48931	1.28769
2954.56074	1.26408
2952.63218	1.24043
2950.70361	1.21715
2948.77505	1.19474
2946.84648	1.17281
2944.91792	1.15090
2942.98936	1.12924
2941.06079	1.10818
2939.13223	1.08742
2937.20366	1.06637
2935.27510	1.04526
2933.34653	1.02463
2931.41797	1.00438
2929.48940	0.98464
2927.56084	0.96578
2925.63228	0.94755
2923.70371	0.92978
2921.77515	0.91280
2919.84658	0.89704
2917.91802	0.88222
2915.98945	0.86770
2914.06089	0.85343
2912.13232	0.83904
2910.20376	0.82425
2908.27520	0.80938
2906.34663	0.79505
2904.41807	0.78139
2902.48950	0.76819
2900.56094	0.75530
2898.63237	0.74241
2896.70381	0.72948
2894.77524	0.71711
2892.84668	0.70547
2890.91812	0.69401
2888.98955	0.68273
2887.06099	0.67191
2885.13242	0.66119
2883.20386	0.65041
2881.27529	0.64004
2879.34673	0.63026
2877.41816	0.62045
2875.48960	0.61034
2873.56104	0.60015
2871.63247	0.58979
2869.70391	0.57914
2867.77534	0.56844
2865.84678	0.55770
2863.91821	0.54669
2861.98965	0.53568
2860.06108	0.52489
2858.13252	0.51429
2856.20396	0.50438
2854.27539	0.49560
2852.34683	0.48760
2850.41826	0.48008
2848.48970	0.47310
2846.56113	0.46649
2844.63257	0.46014
2842.70400	0.45412
2840.77544	0.44837
2838.84687	0.44267
2836.91831	0.43679
2834.98975	0.43082
2833.06118	0.42503
2831.13262	0.41943
2829.20405	0.41392
2827.27549	0.40845
2825.34692	0.40271
2823.41836	0.39667
2821.48979	0.39075
2819.56123	0.38514
2817.63267	0.37975
2815.70410	0.37447
2813.77554	0.36914
2811.84697	0.36369
2809.91841	0.35833
2807.98984	0.35320
2806.06128	0.34834
2804.13271	0.34364
2802.20415	0.33891
2800.27559	0.33411
2798.34702	0.32921
2796.41846	0.32439
2794.48989	0.31981
2792.56133	0.31543
2790.63276	0.31123
2788.70420	0.30714
2786.77563	0.30297
2784.84707	0.29878
2782.91851	0.29471
2780.98994	0.29072
2779.06138	0.28686
2777.13281	0.28313
2775.20425	0.27936
2773.27568	0.27559
2771.34712	0.27203
2769.41855	0.26859
2767.48999	0.26522
2765.56143	0.26201
2763.63286	0.25877
2761.70430	0.25547
2759.77573	0.25233
2757.84717	0.24935
2755.91860	0.24645
2753.99004	0.24360
2752.06147	0.24079
2750.13291	0.23816
2748.20435	0.23561
2746.27578	0.23282
2744.34722	0.22990
2742.41865	0.22720
2740.49009	0.22470
2738.56152	0.22228
2736.63296	0.21987
2734.70439	0.21751
2732.77583	0.21516
2730.84727	0.21282
2728.91870	0.21058
2726.99014	0.20849
2725.06157	0.20650
2723.13301	0.20455
2721.20444	0.20260
2719.27588	0.20063
2717.34731	0.19877
2715.41875	0.19694
2713.49019	0.19510
2711.56162	0.19339
2709.63306	0.19173
2707.70449	0.19001
2705.77593	0.18836
2703.84736	0.18684
2701.91880	0.18543
2699.99023	0.18416
2698.06167	0.18294
2696.13311	0.18166
2694.20454	0.18026
2692.27598	0.17880
2690.34741	0.17732
2688.41885	0.17595
2686.49028	0.17479
2684.56172	0.17384
2682.63315	0.17289
2680.70459	0.17174
2678.77603	0.17053
2676.84746	0.16943
2674.91890	0.16842
2672.99033	0.16743
2671.06177	0.16631
2669.13320	0.16520
2667.20464	0.16439
2665.27607	0.16369
2663.34751	0.16289
2661.41895	0.16212
2659.49038	0.16136
2657.56182	0.16051
2655.63325	0.15972
2653.70469	0.15910
2651.77612	0.15861
2649.84756	0.15812
2647.91899	0.15757
2645.99043	0.15692
2644.06187	0.15621
2642.13330	0.15565
2640.20474	0.15529
2638.27617	0.15495
2636.34761	0.15456
2634.41904	0.15409
2632.49048	0.15362
2630.56191	0.15332
2628.63335	0.15306
2626.70479	0.15269
2624.77622	0.15230
2622.84766	0.15193
2620.91909	0.15157
2618.99053	0.15135
2617.06196	0.15130
2615.13340	0.15130
2613.20483	0.15124
2611.27627	0.15112
2609.34771	0.15116
2607.41914	0.15131
2605.49058	0.15130
2603.56201	0.15111
2601.63345	0.15091
2599.70488	0.15090
2597.77632	0.15116
2595.84775	0.15152
2593.91919	0.15170
2591.99062	0.15169
2590.06206	0.15173
2588.13350	0.15191
2586.20493	0.15218
2584.27637	0.15246
2582.34780	0.15270
2580.41924	0.15294
2578.49067	0.15320
2576.56211	0.15352
2574.63354	0.15397
2572.70498	0.15436
2570.77642	0.15461
2568.84785	0.15486
2566.91929	0.15520
2564.99072	0.15563
2563.06216	0.15609
2561.13359	0.15661
2559.20503	0.15723
2557.27646	0.15783
2555.34790	0.15836
2553.41934	0.15881
2551.49077	0.15928
2549.56221	0.15986
2547.63364	0.16045
2545.70508	0.16107
2543.77651	0.16172
2541.84795	0.16225
2539.91938	0.16283
2537.99082	0.16357
2536.06226	0.16429
2534.13369	0.16498
2532.20513	0.16574
2530.27656	0.16647
2528.34800	0.16717
2526.41943	0.16794
2524.49087	0.16871
2522.56230	0.16944
2520.63374	0.17019
2518.70518	0.17091
2516.77661	0.17155
2514.84805	0.17225
2512.91948	0.17303
2510.99092	0.17385
2509.06235	0.17473
2507.13379	0.17559
2505.20522	0.17645
2503.27666	0.17736
2501.34810	0.17825
2499.41953	0.17910
2497.49097	0.17997
2495.56240	0.18081
2493.63384	0.18163
2491.70527	0.18250
2489.77671	0.18346
2487.84814	0.18435
2485.91958	0.18512
2483.99102	0.18591
2482.06245	0.18684
2480.13389	0.18790
2478.20532	0.18887
2476.27676	0.18959
2474.34819	0.19032
2472.41963	0.19116
2470.49106	0.19209
2468.56250	0.19312
2466.63394	0.19422
2464.70537	0.19538
2462.77681	0.19654
2460.84824	0.19755
2458.91968	0.19834
2456.99111	0.19916
2455.06255	0.20015
2453.13398	0.20121
2451.20542	0.20221
2449.27686	0.20309
2447.34829	0.20391
2445.41973	0.20478
2443.49116	0.20582
2441.56260	0.20695
2439.63403	0.20802
2437.70547	0.20902
2435.77690	0.21001
2433.84834	0.21102
2431.91978	0.21211
2429.99121	0.21325
2428.06265	0.21441
2426.13408	0.21546
2424.20552	0.21646
2422.27695	0.21763
2420.34839	0.21886
2418.41982	0.22000
2416.49126	0.22116
2414.56270	0.22237
2412.63413	0.22350
2410.70557	0.22456
2408.77700	0.22574
2406.84844	0.22696
2404.91987	0.22816
2402.99131	0.22933
2401.06274	0.23044
2399.13418	0.23157
2397.20562	0.23281
2395.27705	0.23415
2393.34849	0.23553
2391.41992	0.23694
2389.49136	0.23863
2387.56279	0.24122
2385.63423	0.24553
2383.70566	0.25239
2381.77710	0.26209
2379.84854	0.27402
2377.91997	0.28750
2375.99141	0.30290
2374.06284	0.32076
2372.13428	0.34087
2370.20571	0.36269
2368.27715	0.38513
2366.34858	0.40640
2364.42002	0.42437
2362.49146	0.43767
2360.56289	0.44600
2358.63433	0.44754
2356.70576	0.43943
2354.77720	0.42271
2352.84863	0.40124
2350.92007	0.37912
2348.99150	0.36525
2347.06294	0.36601
2345.13437	0.38113
2343.20581	0.40039
2341.27725	0.41027
2339.34868	0.41086
2337.42012	0.40809
2335.49155	0.40538
2333.56299	0.40342
2331.63442	0.40261
2329.70586	0.40142
2327.77729	0.39796
2325.84873	0.39278
2323.92017	0.38748
2321.99160	0.38213
2320.06304	0.37530
2318.13447	0.36700
2316.20591	0.35959
2314.27734	0.35489
2312.34878	0.35242
2310.42021	0.35028
2308.49165	0.34693
2306.56309	0.34265
2304.63452	0.33887
2302.70596	0.33646
2300.77739	0.33513
2298.84883	0.33412
2296.92026	0.33312
2294.99170	0.33222
2293.06313	0.33157
2291.13457	0.33108
2289.20601	0.33071
2287.27744	0.33041
2285.34888	0.33022
2283.42031	0.33070
2281.49175	0.33234
2279.56318	0.33484
2277.63462	0.33752
2275.70605	0.34012
2273.77749	0.34259
2271.84893	0.34479
2269.92036	0.34667
2267.99180	0.34843
2266.06323	0.35030
2264.13467	0.35227
2262.20610	0.35415
2260.27754	0.35591
2258.34897	0.35770
2256.42041	0.35949
2254.49185	0.36113
2252.56328	0.36275
2250.63472	0.36455
2248.70615	0.36647
2246.77759	0.36846
2244.84902	0.37051
2242.92046	0.37262
2240.99189	0.37476
2239.06333	0.37687
2237.13477	0.37898
2235.20620	0.38115
2233.27764	0.38331
2231.34907	0.38540
2229.42051	0.38745
2227.49194	0.38949
2225.56338	0.39169
2223.63481	0.39404
2221.70625	0.39630
2219.77769	0.39844
2217.84912	0.40057
2215.92056	0.40272
2213.99199	0.40493
2212.06343	0.40713
2210.13486	0.40928
2208.20630	0.41137
2206.27773	0.41343
2204.34917	0.41555
2202.42061	0.41764
2200.49204	0.41955
2198.56348	0.42141
2196.63491	0.42340
2194.70635	0.42541
2192.77778	0.42735
2190.84922	0.42928
2188.92065	0.43122
2186.99209	0.43312
2185.06353	0.43498
2183.13496	0.43675
2181.20640	0.43847
2179.27783	0.44015
2177.34927	0.44171
2175.42070	0.44314
2173.49214	0.44459
2171.56357	0.44607
2169.63501	0.44751
2167.70645	0.44888
2165.77788	0.45009
2163.84932	0.45120
2161.92075	0.45234
2159.99219	0.45352
2158.06362	0.45466
2156.13506	0.45572
2154.20649	0.45661
2152.27793	0.45736
2150.34937	0.45808
2148.42080	0.45874
2146.49224	0.45932
2144.56367	0.45990
2142.63511	0.46041
2140.70654	0.46070
2138.77798	0.46078
2136.84941	0.46076
2134.92085	0.46080
2132.99229	0.46091
2131.06372	0.46098
2129.13516	0.46092
2127.20659	0.46063
2125.27803	0.46019
2123.34946	0.45978
2121.42090	0.45934
2119.49233	0.45879
2117.56377	0.45815
2115.63521	0.45738
2113.70664	0.45648
2111.77808	0.45555
2109.84951	0.45455
2107.92095	0.45343
2105.99238	0.45225
2104.06382	0.45113
2102.13525	0.44999
2100.20669	0.44876
2098.27812	0.44746
2096.34956	0.44609
2094.42100	0.44458
2092.49243	0.44296
2090.56387	0.44127
2088.63530	0.43950
2086.70674	0.43771
2084.77817	0.43590
2082.84961	0.43394
2080.92104	0.43186
2078.99248	0.42982
2077.06392	0.42779
2075.13535	0.42565
2073.20679	0.42342
2071.27822	0.42111
2069.34966	0.41879
2067.42109	0.41663
2065.49253	0.41453
2063.56396	0.41218
2061.63540	0.40961
2059.70684	0.40700
2057.77827	0.40439
2055.84971	0.40182
2053.92114	0.39928
2051.99258	0.39675
2050.06401	0.39419
2048.13545	0.39160
2046.20688	0.38897
2044.27832	0.38636
2042.34976	0.38376
2040.42119	0.38110
2038.49263	0.37833
2036.56406	0.37549
2034.63550	0.37269
2032.70693	0.36995
2030.77837	0.36721
2028.84980	0.36438
2026.92124	0.36152
2024.99268	0.35865
2023.06411	0.35581
2021.13555	0.35308
2019.20698	0.35052
2017.27842	0.34795
2015.34985	0.34503
2013.42129	0.34200
2011.49272	0.33922
2009.56416	0.33664
2007.63560	0.33404
2005.70703	0.33138
2003.77847	0.32866
2001.84990	0.32599
1999.92134	0.32339
1997.99277	0.32077
1996.06421	0.31818
1994.13564	0.31592
1992.20708	0.31378
1990.27852	0.31119
1988.34995	0.30831
1986.42139	0.30556
1984.49282	0.30302
1982.56426	0.30065
1980.63569	0.29836
1978.70713	0.29609
1976.77856	0.29381
1974.85000	0.29162
1972.92144	0.28949
1970.99287	0.28745
1969.06431	0.28571
1967.13574	0.28400
1965.20718	0.28180
1963.27861	0.27939
1961.35005	0.27728
1959.42148	0.27539
1957.49292	0.27360
1955.56436	0.27191
1953.63579	0.27022
1951.70723	0.26843
1949.77866	0.26661
1947.85010	0.26501
1945.92153	0.26382
1943.99297	0.26291
1942.06440	0.26168
1940.13584	0.25969
1938.20728	0.25764
1936.27871	0.25609
1934.35015	0.25482
1932.42158	0.25359
1930.49302	0.25239
1928.56445	0.25125
1926.63589	0.25026
1924.70732	0.24967
1922.77876	0.24927
1920.85020	0.24843
1918.92163	0.24743
1916.99307	0.24648
1915.06450	0.24523
1913.13594	0.24408
1911.20737	0.24350
1909.27881	0.24315
1907.35024	0.24245
1905.42168	0.24141
1903.49312	0.24050
1901.56455	0.23982
1899.63599	0.23931
1897.70742	0.23910
1895.77886	0.23902
1893.85029	0.23872
1891.92173	0.23835
1889.99316	0.23830
1888.06460	0.23806
1886.13604	0.23749
1884.20747	0.23704
1882.27891	0.23671
1880.35034	0.23644
1878.42178	0.23632
1876.49321	0.23631
1874.56465	0.23636
1872.63608	0.23670
1870.70752	0.23779
1868.77896	0.23947
1866.85039	0.23980
1864.92183	0.23862
1862.99326	0.23777
1861.06470	0.23772
1859.13613	0.23811
1857.20757	0.23849
1855.27900	0.23875
1853.35044	0.23905
1851.42187	0.23965
1849.49331	0.24059
1847.56475	0.24186
1845.63618	0.24348
1843.70762	0.24495
1841.77905	0.24509
1839.85049	0.24472
1837.92192	0.24527
1835.99336	0.24624
1834.06479	0.24713
1832.13623	0.24852
1830.20767	0.25083
1828.27910	0.25255
1826.35054	0.25323
1824.42197	0.25426
1822.49341	0.25514
1820.56484	0.25586
1818.63628	0.25700
1816.70771	0.25856
1814.77915	0.26018
1812.85059	0.26227
1810.92202	0.26488
1808.99346	0.26700
1807.06489	0.26847
1805.13633	0.27011
1803.20776	0.27262
1801.27920	0.27580
1799.35063	0.27895
1797.42207	0.28146
1795.49351	0.28409
1793.56494	0.28761
1791.63638	0.29164
1789.70781	0.29416
1787.77925	0.29565
1785.85068	0.29844
1783.92212	0.30238
1781.99355	0.30666
1780.06499	0.31099
1778.13643	0.31515
1776.20786	0.31935
1774.27930	0.32463
1772.35073	0.33172
1770.42217	0.33801
1768.49360	0.34215
1766.56504	0.34620
1764.63647	0.35102
1762.70791	0.35718
1760.77935	0.36497
1758.85078	0.37181
1756.92222	0.37858
1754.99365	0.38591
1753.06509	0.39288
1751.13652	0.40207
1749.20796	0.41372
1747.27939	0.42413
1745.35083	0.43260
1743.42227	0.44188
1741.49370	0.45253
1739.56514	0.46504
1737.63657	0.47757
1735.70801	0.48937
1733.77944	0.50738
1731.85088	0.52694
1729.92231	0.54118
1727.99375	0.55580
1726.06519	0.57212
1724.13662	0.59072
1722.20806	0.61102
1720.27949	0.63007
1718.35093	0.65329
1716.42236	0.68692
1714.49380	0.71687
1712.56523	0.74022
1710.63667	0.76345
1708.70811	0.78929
1706.77954	0.81932
1704.85098	0.85512
1702.92241	0.88670
1700.99385	0.91835
1699.06528	0.96550
1697.13672	1.00763
1695.20815	1.04924
1693.27959	1.08930
1691.35103	1.12251
1689.42246	1.16222
1687.49390	1.20459
1685.56533	1.24608
1683.63677	1.30882
1681.70820	1.37064
1679.77964	1.40889
1677.85107	1.44616
1675.92251	1.49009
1673.99395	1.54470
1672.06538	1.59339
1670.13682	1.64189
1668.20825	1.70376
1666.27969	1.75285
1664.35112	1.79617
1662.42256	1.85194
1660.49399	1.91224
1658.56543	1.95782
1656.63687	1.99638
1654.70830	2.03368
1652.77974	2.08937
1650.85117	2.13975
1648.92261	2.15956
1646.99404	2.18743
1645.06548	2.21798
1643.13691	2.23626
1641.20835	2.24636
1639.27979	2.25566
1637.35122	2.26163
1635.42266	2.26267
1633.49409	2.25642
1631.56553	2.24236
1629.63696	2.22491
1627.70840	2.19816
1625.77983	2.16779
1623.85127	2.12903
1621.92271	2.07977
1619.99414	2.03526
1618.06558	1.99282
1616.13701	1.93160
1614.20845	1.86674
1612.27988	1.81718
1610.35132	1.76697
1608.42275	1.71284
1606.49419	1.65932
1604.56562	1.60989
1602.63706	1.56179
1600.70850	1.51425
1598.77993	1.47032
1596.85137	1.42970
1594.92280	1.39080
1592.99424	1.35288
1591.06567	1.31796
1589.13711	1.28557
1587.20854	1.25533
1585.27998	1.22718
1583.35142	1.20096
1581.42285	1.17709
1579.49429	1.15693
1577.56572	1.13944
1575.63716	1.11779
1573.70859	1.09718
1571.78003	1.08362
1569.85146	1.07070
1567.92290	1.05578
1565.99434	1.04351
1564.06577	1.03415
1562.13721	1.02745
1560.20864	1.02422
1558.28008	1.02041
1556.35151	1.01334
1554.42295	1.00735
1552.49438	1.00191
1550.56582	0.99633
1548.63726	0.98962
1546.70869	0.98246
1544.78013	0.97533
1542.85156	0.96770
1540.92300	0.95578
1538.99443	0.93226
1537.06587	0.91304
1535.13730	0.90139
1533.20874	0.88757
1531.28018	0.87200
1529.35161	0.86055
1527.42305	0.85072
1525.49448	0.84071
1523.56592	0.83206
1521.63735	0.82373
1519.70879	0.81414
1517.78022	0.80540
1515.85166	0.79545
1513.92310	0.78491
1511.99453	0.77634
1510.06597	0.76980
1508.13740	0.76478
1506.20884	0.75485
1504.28027	0.74267
1502.35171	0.73543
1500.42314	0.73039
1498.49458	0.72595
1496.56602	0.72028
1494.63745	0.71349
1492.70889	0.70840
1490.78032	0.70519
1488.85176	0.70123
1486.92319	0.69539
1484.99463	0.68991
1483.06606	0.68606
1481.13750	0.68321
1479.20894	0.68068
1477.28037	0.67912
1475.35181	0.67887
1473.42324	0.67870
1471.49468	0.67585
1469.56611	0.67123
1467.63755	0.66788
1465.70898	0.66609
1463.78042	0.66455
1461.85186	0.66300
1459.92329	0.66283
1457.99473	0.66431
1456.06616	0.66413
1454.13760	0.66024
1452.20903	0.65644
1450.28047	0.65366
1448.35190	0.65167
1446.42334	0.64946
1444.49478	0.64693
1442.56621	0.64466
1440.63765	0.64259
1438.70908	0.64087
1436.78052	0.63921
1434.85195	0.63677
1432.92339	0.63436
1430.99482	0.63283
1429.06626	0.63166
1427.13770	0.63061
1425.20913	0.63030
1423.28057	0.63056
1421.35200	0.63085
1419.42344	0.63129
1417.49487	0.63065
1415.56631	0.62844
1413.63774	0.62653
1411.70918	0.62546
1409.78062	0.62504
1407.85205	0.62522
1405.92349	0.62593
1403.99492	0.62631
1402.06636	0.62582
1400.13779	0.62532
1398.20923	0.62463
1396.28066	0.62289
1394.35210	0.61988
1392.42354	0.61604
1390.49497	0.61268
1388.56641	0.61007
1386.63784	0.60708
1384.70928	0.60338
1382.78071	0.59987
1380.85215	0.59676
1378.92358	0.59398
1376.99502	0.59191
1375.06646	0.59077
1373.13789	0.58975
1371.20933	0.58839
1369.28076	0.58726
1367.35220	0.58618
1365.42363	0.58500
1363.49507	0.58416
1361.56650	0.58305
1359.63794	0.58131
1357.70937	0.57990
1355.78081	0.57892
1353.85225	0.57793
1351.92368	0.57698
1349.99512	0.57625
1348.06655	0.57555
1346.13799	0.57475
1344.20942	0.57397
1342.28086	0.57349
1340.35229	0.57335
1338.42373	0.57280
1336.49517	0.57147
1334.56660	0.57017
1332.63804	0.56946
1330.70947	0.56919
1328.78091	0.56914
1326.85234	0.56920
1324.92378	0.56928
1322.99521	0.56942
1321.06665	0.56973
1319.13809	0.57002
1317.20952	0.56985
1315.28096	0.56931
1313.35239	0.56875
1311.42383	0.56816
1309.49526	0.56746
1307.56670	0.56668
1305.63813	0.56591
1303.70957	0.56518
1301.78101	0.56435
1299.85244	0.56338
1297.92388	0.56243
1295.99531	0.56138
1294.06675	0.56022
1292.13818	0.55933
1290.20962	0.55866
1288.28105	0.55772
1286.35249	0.55655
1284.42393	0.55548
1282.49536	0.55451
1280.56680	0.55358
1278.63823	0.55260
1276.70967	0.55165
1274.78110	0.55091
1272.85254	0.55046
1270.92397	0.55005
1268.99541	0.54935
1267.06685	0.54851
1265.13828	0.54784
1263.20972	0.54728
1261.28115	0.54666
1259.35259	0.54598
1257.42402	0.54527
1255.49546	0.54469
1253.56689	0.54450
1251.63833	0.54461
1249.70977	0.54475
1247.78120	0.54477
1245.85264	0.54450
1243.92407	0.54390
1241.99551	0.54320
1240.06694	0.54238
1238.13838	0.54122
1236.20981	0.53982
1234.28125	0.53836
1232.35269	0.53687
1230.42412	0.53540
1228.49556	0.53399
1226.56699	0.53269
1224.63843	0.53149
1222.70986	0.53038
1220.78130	0.52930
1218.85273	0.52814
1216.92417	0.52703
1214.99561	0.52620
1213.06704	0.52552
1211.13848	0.52483
1209.20991	0.52419
1207.28135	0.52370
1205.35278	0.52313
1203.42422	0.52234
1201.49565	0.52143
1199.56709	0.52058
1197.63853	0.51996
1195.70996	0.51946
1193.78140	0.51887
1191.85283	0.51822
1189.92427	0.51767
1187.99570	0.51726
1186.06714	0.51701
1184.13857	0.51702
1182.21001	0.51735
1180.28145	0.51800
1178.35288	0.51889
1176.42432	0.51985
1174.49575	0.52055
1172.56719	0.52088
1170.63862	0.52110
1168.71006	0.52115
1166.78149	0.52100
1164.85293	0.52102
1162.92437	0.52117
1160.99580	0.52112
1159.06724	0.52080
1157.13867	0.52009
1155.21011	0.51901
1153.28154	0.51771
1151.35298	0.51613
1149.42441	0.51419
1147.49585	0.51206
1145.56729	0.50991
1143.63872	0.50772
1141.71016	0.50550
1139.78159	0.50333
1137.85303	0.50156
1135.92446	0.50030
1133.99590	0.49917
1132.06733	0.49806
1130.13877	0.49717
1128.21021	0.49642
1126.28164	0.49555
1124.35308	0.49465
1122.42451	0.49392
1120.49595	0.49328
1118.56738	0.49261
1116.63882	0.49212
1114.71025	0.49199
1112.78169	0.49213
1110.85312	0.49240
1108.92456	0.49290
1106.99600	0.49372
1105.06743	0.49488
1103.13887	0.49632
1101.21030	0.49798
1099.28174	0.50000
1097.35317	0.50251
1095.42461	0.50561
1093.49604	0.50948
1091.56748	0.51399
1089.63892	0.51892
1087.71035	0.52431
1085.78179	0.53029
1083.85322	0.53683
1081.92466	0.54358
1079.99609	0.54935
1078.06753	0.55265
1076.13896	0.55305
1074.21040	0.55093
1072.28184	0.54670
1070.35327	0.54104
1068.42471	0.53470
1066.49614	0.52817
1064.56758	0.52181
1062.63901	0.51594
1060.71045	0.51067
1058.78188	0.50586
1056.85332	0.50150
1054.92476	0.49790
1052.99619	0.49505
1051.06763	0.49259
1049.13906	0.49044
1047.21050	0.48862
1045.28193	0.48710
1043.35337	0.48583
1041.42480	0.48484
1039.49624	0.48405
1037.56768	0.48334
1035.63911	0.48279
1033.71055	0.48242
1031.78198	0.48212
1029.85342	0.48191
1027.92485	0.48176
1025.99629	0.48161
1024.06772	0.48162
1022.13916	0.48187
1020.21060	0.48214
1018.28203	0.48251
1016.35347	0.48338
1014.42490	0.48459
1012.49634	0.48557
1010.56777	0.48646
1008.63921	0.48783
1006.71064	0.48959
1004.78208	0.49151
1002.85352	0.49380
1000.92495	0.49658
998.99639	0.49977
997.06782	0.50342
995.13926	0.50751
993.21069	0.51160
991.28213	0.51503
989.35356	0.51740
987.42500	0.51882
985.49644	0.51966
983.56787	0.52029
981.63931	0.52115
979.71074	0.52255
977.78218	0.52442
975.85361	0.52663
973.92505	0.52937
971.99648	0.53269
970.06792	0.53628
968.13936	0.54014
966.21079	0.54431
964.28223	0.54872
962.35366	0.55362
960.42510	0.55905
958.49653	0.56456
956.56797	0.57012
954.63940	0.57612
952.71084	0.58236
950.78228	0.58847
948.85371	0.59480
946.92515	0.60158
944.99658	0.60823
943.06802	0.61435
941.13945	0.62004
939.21089	0.62558
937.28232	0.63120
935.35376	0.63709
933.42520	0.64315
931.49663	0.64887
929.56807	0.65422
927.63950	0.65987
925.71094	0.66632
923.78237	0.67321
921.85381	0.67966
919.92524	0.68561
917.99668	0.69173
916.06812	0.69867
914.13955	0.70680
912.21099	0.71571
910.28242	0.72455
908.35386	0.73327
906.42529	0.74216
904.49673	0.75089
902.56816	0.75921
900.63960	0.76794
898.71104	0.77800
896.78247	0.78843
894.85391	0.79821
892.92534	0.80803
890.99678	0.81879
889.06821	0.83032
887.13965	0.84202
885.21108	0.85406
883.28252	0.86597
881.35396	0.87637
879.42539	0.88606
877.49683	0.89727
875.56826	0.90927
873.63970	0.92041
871.71113	0.93162
869.78257	0.94325
867.85400	0.95444
865.92544	0.96518
863.99687	0.97629
862.06831	0.98806
860.13975	1.00001
858.21118	1.01163
856.28262	1.02272
854.35405	1.03474
852.42549	1.04815
850.49692	1.06145
848.56836	1.07354
846.63979	1.08456
844.71123	1.09505
842.78267	1.10491
840.85410	1.11642
838.92554	1.13108
836.99697	1.14621
835.06841	1.15865
833.13984	1.16768
831.21128	1.17709
829.28271	1.19030
827.35415	1.20534
825.42559	1.22077
823.49702	1.23902
821.56846	1.25849
819.63989	1.27052
817.71133	1.26669
815.78276	1.26259
813.85420	1.28253
811.92563	1.31271
809.99707	1.32573
808.06851	1.33233
806.13994	1.34884
804.21138	1.37330
802.28281	1.39208
800.35425	1.38824
798.42568	1.38557
796.49712	1.39725
794.56855	1.38849
792.63999	1.36591
790.71143	1.38100
788.78286	1.46309
786.85430	1.57254
784.92573	1.62230
782.99717	1.60505
781.06860	1.59435
779.14004	1.66053
777.21147	1.75322
775.28291	1.73784
773.35435	1.70899
771.42578	1.69869
769.49722	1.62498
767.56865	1.54799
765.64009	1.42302
763.71152	1.33630
761.78296	1.35282
759.85439	1.40015
757.92583	1.49059
755.99727	1.90100
754.06870	3.03695
752.14014	1.45162
750.21157	1.15191
748.28301	1.09814
746.35444	1.23080
744.42588	1.34501
742.49731	1.14967
740.56875	0.97848
738.64019	0.93487
736.71162	0.94512
734.78306	0.87990
732.85449	0.77514
730.92593	0.72152
728.99736	0.70416
727.06880	0.65514
725.14023	0.56669
723.21167	0.49874
721.28311	0.45584
719.35454	0.45418
717.42598	0.47893
715.49741	0.48544
713.56885	0.49332
711.64028	0.44530
709.71172	0.33445
707.78315	0.27316
705.85459	0.30736
703.92603	0.36231
701.99746	0.40463
700.06890	0.44212
698.14033	0.41116
696.21177	0.36611
694.28320	0.38334
692.35464	0.47268
690.42607	0.74881
688.49751	4.13099
686.56895	1.03352
684.64038	0.62346
682.71182	0.43576
680.78325	0.31001
678.85469	0.24055
676.92612	0.24035
674.99756	0.33866
673.06899	0.47544
671.14043	0.53526
669.21187	0.49545
667.28330	0.42060
665.35474	0.38746
663.42617	0.34535
661.49761	0.22943
659.56904	0.15240
657.64048	0.16982
655.71191	0.19469
653.78335	0.21650
651.85479	0.28467
649.92622	0.40620
647.99766	0.57018
646.06909	0.51838
644.14053	0.34325
642.21196	0.31456
640.28340	0.41906
638.35483	0.45686
636.42627	0.32940
634.49771	0.23631
632.56914	0.22710
630.64058	0.29947
628.71201	0.44378
626.78345	0.46031
624.85488	0.38063
622.92632	0.41464
620.99775	0.43426
619.06919	0.35560
617.14062	0.41204
615.21206	0.60822
613.28350	0.45062
611.35493	0.20907
609.42637	0.13445
607.49780	0.17955
605.56924	0.20497
603.64067	0.16626
601.71211	0.19330
599.78354	0.28427
597.85498	0.34933
595.92642	0.36361
593.99785	0.38513
592.06929	0.44130
590.14072	0.52405
588.21216	0.57856
586.28359	0.49077
584.35503	0.38331
582.42646	0.31310
580.49790	0.25839
578.56934	0.22560
576.64077	0.22949
574.71221	0.27037
572.78364	0.31506
570.85508	0.29651
568.92651	0.23564
566.99795	0.20147
565.06938	0.20031
563.14082	0.19718
561.21226	0.19291
559.28369	0.20843
557.35513	0.24273
555.42656	0.30479
553.49800	0.37620
551.56943	0.35085
549.64087	0.27953
547.71230	0.22043
545.78374	0.20152
543.85518	0.27230
541.92661	0.33582
539.99805	0.30994
538.06948	0.26189
536.14092	0.21621
534.21235	0.21349
532.28379	0.24125
530.35522	0.25101
528.42666	0.27691
526.49810	0.31869
524.56953	0.29652
522.64097	0.25016
520.71240	0.21665
518.78384	0.19001
516.85527	0.17874
514.92671	0.15648
512.99814	0.14466
511.06958	0.19904
509.14102	0.31925
507.21245	0.45198
505.28389	0.45521
503.35532	0.35687
501.42676	0.28034
499.49819	0.24037
