3997.91411	0.05573
3995.98555	0.05584
3994.05698	0.05646
3992.12842	0.05717
3990.19985	0.05766
3988.27129	0.05794
3986.34272	0.05796
3984.41416	0.05789
3982.48560	0.05805
3980.55703	0.05840
3978.62847	0.05848
3976.69990	0.05860
3974.77134	0.05928
3972.84277	0.05999
3970.91421	0.06033
3968.98564	0.06047
3967.05708	0.06035
3965.12852	0.06030
3963.19995	0.06097
3961.27139	0.06200
3959.34282	0.06229
3957.41426	0.06179
3955.48569	0.06147
3953.55713	0.06191
3951.62856	0.06292
3949.70000	0.06405
3947.77144	0.06470
3945.84287	0.06423
3943.91431	0.06375
3941.98574	0.06413
3940.05718	0.06370
3938.12861	0.06231
3936.20005	0.06164
3934.27148	0.06230
3932.34292	0.06397
3930.41436	0.06516
3928.48579	0.06433
3926.55723	0.06313
3924.62866	0.06368
3922.70010	0.06458
3920.77153	0.06431
3918.84297	0.06423
3916.91440	0.06462
3914.98584	0.06394
3913.05728	0.06223
3911.12871	0.06111
3909.20015	0.06115
3907.27158	0.06247
3905.34302	0.06557
3903.41445	0.06947
3901.48589	0.07135
3899.55732	0.07036
3897.62876	0.06724
3895.70020	0.06397
3893.77163	0.06341
3891.84307	0.06540
3889.91450	0.06615
3887.98594	0.06477
3886.05737	0.06493
3884.12881	0.06692
3882.20024	0.06836
3880.27168	0.06870
3878.34312	0.06729
3876.41455	0.06602
3874.48599	0.06753
3872.55742	0.07038
3870.62886	0.07253
3868.70029	0.07311
3866.77173	0.07185
3864.84316	0.07190
3862.91460	0.07287
3860.98604	0.07130
3859.05747	0.06917
3857.12891	0.06959
3855.20034	0.07302
3853.27178	0.07885
3851.34321	0.08066
3849.41465	0.07581
3847.48608	0.07170
3845.55752	0.07073
3843.62896	0.07281
3841.70039	0.07689
3839.77183	0.08134
3837.84326	0.08411
3835.91470	0.08335
3833.98613	0.08107
3832.05757	0.07935
3830.12900	0.07813
3828.20044	0.07796
3826.27187	0.07921
3824.34331	0.08099
3822.41475	0.08388
3820.48618	0.08832
3818.55762	0.08997
3816.62905	0.08917
3814.70049	0.08786
3812.77192	0.08495
3810.84336	0.08298
3808.91479	0.08415
3806.98623	0.08800
3805.05767	0.09136
3803.12910	0.09363
3801.20054	0.09701
3799.27197	0.09827
3797.34341	0.09686
3795.41484	0.09581
3793.48628	0.09429
3791.55771	0.09313
3789.62915	0.09365
3787.70059	0.09536
3785.77202	0.09788
3783.84346	0.10034
3781.91489	0.10184
3779.98633	0.10364
3778.05776	0.10563
3776.12920	0.10587
3774.20063	0.10591
3772.27207	0.10785
3770.34351	0.11157
3768.41494	0.11542
3766.48638	0.11781
3764.55781	0.11920
3762.62925	0.12037
3760.70068	0.12297
3758.77212	0.12767
3756.84355	0.13162
3754.91499	0.13384
3752.98643	0.13767
3751.05786	0.14509
3749.12930	0.15169
3747.20073	0.15309
3745.27217	0.15460
3743.34360	0.15813
3741.41504	0.16072
3739.48647	0.16360
3737.55791	0.16957
3735.62935	0.17926
3733.70078	0.18834
3731.77222	0.19145
3729.84365	0.19241
3727.91509	0.19561
3725.98652	0.20192
3724.05796	0.20889
3722.12939	0.21393
3720.20083	0.21773
3718.27227	0.22132
3716.34370	0.22575
3714.41514	0.23259
3712.48657	0.24478
3710.55801	0.26308
3708.62944	0.27824
3706.70088	0.28690
3704.77231	0.29609
3702.84375	0.30924
3700.91519	0.32650
3698.98662	0.34416
3697.05806	0.36076
3695.12949	0.37921
3693.20093	0.39982
3691.27236	0.42340
3689.34380	0.45311
3687.41523	0.48590
3685.48667	0.51267
3683.55811	0.53653
3681.62954	0.56396
3679.70098	0.59632
3677.77241	0.63170
3675.84385	0.67441
3673.91528	0.72844
3671.98672	0.76950
3670.05815	0.80703
3668.12959	0.85862
3666.20103	0.90314
3664.27246	0.94059
3662.34390	0.98307
3660.41533	1.03018
3658.48677	1.07731
3656.55820	1.12810
3654.62964	1.18433
3652.70107	1.23183
3650.77251	1.27530
3648.84395	1.33553
3646.91538	1.40408
3644.98682	1.44998
3643.05825	1.48509
3641.12969	1.52319
3639.20112	1.56670
3637.27256	1.61124
3635.34399	1.65570
3633.41543	1.70155
3631.48687	1.74515
3629.55830	1.78934
3627.62974	1.84458
3625.70117	1.89235
3623.77261	1.92349
3621.84404	1.95489
3619.91548	1.99342
3617.98691	2.04107
3616.05835	2.08494
3614.12979	2.11967
3612.20122	2.15607
3610.27266	2.19389
3608.34409	2.23386
3606.41553	2.27596
3604.48696	2.31327
3602.55840	2.34783
3600.62983	2.38844
3598.70127	2.43318
3596.77271	2.47431
3594.84414	2.51367
3592.91558	2.55384
3590.98701	2.59181
3589.05845	2.62772
3587.12988	2.67142
3585.20132	2.71982
3583.27275	2.75973
3581.34419	2.79572
3579.41562	2.83495
3577.48706	2.87675
3575.55850	2.91826
3573.62993	2.96065
3571.70137	3.00316
3569.77280	3.04536
3567.84424	3.09152
3565.91567	3.14637
3563.98711	3.19567
3562.05854	3.23362
3560.12998	3.27121
3558.20142	3.31246
3556.27285	3.35696
3554.34429	3.40217
3552.41572	3.44994
3550.48716	3.49955
3548.55859	3.54678
3546.63003	3.59273
3544.70146	3.64074
3542.77290	3.68800
3540.84434	3.73253
3538.91577	3.77813
3536.98721	3.82676
3535.05864	3.87839
3533.13008	3.92770
3531.20151	3.97423
3529.27295	4.02112
3527.34438	4.06661
3525.41582	4.10889
3523.48726	4.15331
3521.55869	4.20553
3519.63013	4.25843
3517.70156	4.30597
3515.77300	4.35000
3513.84443	4.39304
3511.91587	4.43835
3509.98730	4.49065
3508.05874	4.54663
3506.13018	4.59441
3504.20161	4.63659
3502.27305	4.68814
3500.34448	4.74525
3498.41592	4.79222
3496.48735	4.83375
3494.55879	4.88266
3492.63022	4.93606
3490.70166	4.98128
3488.77310	5.02247
3486.84453	5.07418
3484.91597	5.13489
3482.98740	5.19220
3481.05884	5.24028
3479.13027	5.28273
3477.20171	5.32895
3475.27314	5.38135
3473.34458	5.43419
3471.41602	5.48499
3469.48745	5.53568
3467.55889	5.58390
3465.63032	5.62828
3463.70176	5.67405
3461.77319	5.71605
3459.84463	5.75593
3457.91606	5.80231
3455.98750	5.85153
3454.05894	5.90844
3452.13037	5.97793
3450.20181	6.03620
3448.27324	6.06933
3446.34468	6.10971
3444.41611	6.17648
3442.48755	6.25403
3440.55898	6.31581
3438.63042	6.34899
3436.70186	6.37584
3434.77329	6.41775
3432.84473	6.46959
3430.91616	6.52195
3428.98760	6.56898
3427.05903	6.60213
3425.13047	6.64647
3423.20190	6.71769
3421.27334	6.78811
3419.34478	6.83649
3417.41621	6.88206
3415.48765	6.93685
3413.55908	6.98399
3411.63052	7.02281
3409.70195	7.05626
3407.77339	7.10822
3405.84482	7.17616
3403.91626	7.22228
3401.98770	7.25533
3400.05913	7.30703
3398.13057	7.36589
3396.20200	7.40563
3394.27344	7.42922
3392.34487	7.43635
3390.41631	7.44360
3388.48774	7.47983
3386.55918	7.55246
3384.63062	7.60898
3382.70205	7.62732
3380.77349	7.63696
3378.84492	7.66023
3376.91636	7.72396
3374.98779	7.77772
3373.05923	7.80456
3371.13066	7.84699
3369.20210	7.91515
3367.27354	7.98541
3365.34497	7.99683
3363.41641	7.93824
3361.48784	7.90070
3359.55928	7.94490
3357.63071	8.01510
3355.70215	8.03603
3353.77358	8.00672
3351.84502	8.00378
3349.91646	8.05662
3347.98789	8.10014
3346.05933	8.06672
3344.13076	8.02834
3342.20220	8.04290
3340.27363	8.03226
3338.34507	8.01974
3336.41650	8.10808
3334.48794	8.28614
3332.55937	8.40705
3330.63081	8.42680
3328.70225	8.40596
3326.77368	8.33212
3324.84512	8.22903
3322.91655	8.19437
3320.98799	8.25823
3319.05942	8.33206
3317.13086	8.35168
3315.20229	8.31443
3313.27373	8.26846
3311.34517	8.19302
3309.41660	8.10425
3307.48804	8.10499
3305.55947	8.15205
3303.63091	8.17781
3301.70234	8.25601
3299.77378	8.38834
3297.84521	8.38581
3295.91665	8.24933
3293.98809	8.12803
3292.05952	8.09598
3290.13096	8.14711
3288.20239	8.20061
3286.27383	8.26426
3284.34526	8.34428
3282.41670	8.37538
3280.48813	8.34594
3278.55957	8.32362
3276.63101	8.34923
3274.70244	8.37174
3272.77388	8.33411
3270.84531	8.29569
3268.91675	8.27135
3266.98818	8.22539
3265.05962	8.22676
3263.13105	8.25754
3261.20249	8.29104
3259.27393	8.37187
3257.34536	8.45432
3255.41680	8.48490
3253.48823	8.48903
3251.55967	8.46232
3249.63110	8.34296
3247.70254	8.21644
3245.77397	8.24682
3243.84541	8.39805
3241.91685	8.47294
3239.98828	8.47982
3238.05972	8.47879
3236.13115	8.37668
3234.20259	8.21833
3232.27402	8.16119
3230.34546	8.21910
3228.41689	8.26066
3226.48833	8.26558
3224.55977	8.30687
3222.63120	8.34230
3220.70264	8.30869
3218.77407	8.21696
3216.84551	8.09620
3214.91694	8.00578
3212.98838	8.00696
3211.05981	8.11141
3209.13125	8.24380
3207.20269	8.21391
3205.27412	8.04946
3203.34556	7.99130
3201.41699	8.01342
3199.48843	7.92840
3197.55986	7.79285
3195.63130	7.72854
3193.70273	7.72057
3191.77417	7.71573
3189.84561	7.68303
3187.91704	7.62820
3185.98848	7.55633
3184.05991	7.46997
3182.13135	7.40732
3180.20278	7.36922
3178.27422	7.29616
3176.34565	7.21952
3174.41709	7.21406
3172.48853	7.22725
3170.55996	7.16947
3168.63140	7.07942
3166.70283	7.00949
3164.77427	6.93220
3162.84570	6.85449
3160.91714	6.80683
3158.98857	6.76032
3157.06001	6.68227
3155.13145	6.59885
3153.20288	6.53498
3151.27432	6.48419
3149.34575	6.43962
3147.41719	6.37748
3145.48862	6.28332
3143.56006	6.18533
3141.63149	6.10826
3139.70293	6.04659
3137.77437	5.97703
3135.84580	5.89148
3133.91724	5.81665
3131.98867	5.76525
3130.06011	5.70976
3128.13154	5.63088
3126.20298	5.54197
3124.27441	5.46244
3122.34585	5.39449
3120.41729	5.32783
3118.48872	5.25537
3116.56016	5.17937
3114.63159	5.10703
3112.70303	5.04186
3110.77446	4.97805
3108.84590	4.91015
3106.91733	4.84020
3104.98877	4.76902
3103.06021	4.69722
3101.13164	4.62536
3099.20308	4.55236
3097.27451	4.47965
3095.34595	4.41133
3093.41738	4.34738
3091.48882	4.28117
3089.56025	4.21215
3087.63169	4.14696
3085.70312	4.08588
3083.77456	4.02400
3081.84600	3.96043
3079.91743	3.89527
3077.98887	3.82935
3076.06030	3.76706
3074.13174	3.70943
3072.20317	3.65139
3070.27461	3.58994
3068.34604	3.52862
3066.41748	3.46937
3064.48892	3.41075
3062.56035	3.35376
3060.63179	3.29953
3058.70322	3.24679
3056.77466	3.19278
3054.84609	3.13661
3052.91753	3.08157
3050.98896	3.02954
3049.06040	2.97893
3047.13184	2.92889
3045.20327	2.87902
3043.27471	2.82902
3041.34614	2.77968
3039.41758	2.73169
3037.48901	2.68453
3035.56045	2.63732
3033.63188	2.59089
3031.70332	2.54626
3029.77476	2.50181
3027.84619	2.45643
3025.91763	2.41238
3023.98906	2.37069
3022.06050	2.32942
3020.13193	2.28825
3018.20337	2.24770
3016.27480	2.20677
3014.34624	2.16595
3012.41768	2.12673
3010.48911	2.08849
3008.56055	2.05037
3006.63198	2.01314
3004.70342	1.97727
3002.77485	1.94203
3000.84629	1.90689
2998.91772	1.87167
2996.98916	1.83699
2995.06060	1.80370
2993.13203	1.77128
2991.20347	1.73916
2989.27490	1.70752
2987.34634	1.67631
2985.41777	1.64542
2983.48921	1.61461
2981.56064	1.58380
2979.63208	1.55366
2977.70352	1.52478
2975.77495	1.49664
2973.84639	1.46839
2971.91782	1.44000
2969.98926	1.41191
2968.06069	1.38426
2966.13213	1.35700
2964.20356	1.33027
2962.27500	1.30425
2960.34644	1.27909
2958.41787	1.25469
2956.48931	1.23096
2954.56074	1.20815
2952.63218	1.18596
2950.70361	1.16381
2948.77505	1.14184
2946.84648	1.12006
2944.91792	1.09815
2942.98936	1.07616
2941.06079	1.05450
2939.13223	1.03325
2937.20366	1.01223
2935.27510	0.99157
2933.34653	0.97115
2931.41797	0.95086
2929.48940	0.93109
2927.56084	0.91217
2925.63228	0.89403
2923.70371	0.87667
2921.77515	0.86058
2919.84658	0.84621
2917.91802	0.83306
2915.98945	0.82004
2914.06089	0.80682
2912.13232	0.79332
2910.20376	0.77954
2908.27520	0.76603
2906.34663	0.75284
2904.41807	0.73978
2902.48950	0.72711
2900.56094	0.71480
2898.63237	0.70287
2896.70381	0.69134
2894.77524	0.67995
2892.84668	0.66859
2890.91812	0.65727
2888.98955	0.64598
2887.06099	0.63463
2885.13242	0.62330
2883.20386	0.61218
2881.27529	0.60135
2879.34673	0.59067
2877.41816	0.58019
2875.48960	0.57016
2873.56104	0.56039
2871.63247	0.55054
2869.70391	0.54060
2867.77534	0.53050
2865.84678	0.52037
2863.91821	0.51036
2861.98965	0.50027
2860.06108	0.49009
2858.13252	0.48019
2856.20396	0.47076
2854.27539	0.46208
2852.34683	0.45451
2850.41826	0.44796
2848.48970	0.44170
2846.56113	0.43544
2844.63257	0.42949
2842.70400	0.42390
2840.77544	0.41844
2838.84687	0.41282
2836.91831	0.40717
2834.98975	0.40178
2833.06118	0.39651
2831.13262	0.39104
2829.20405	0.38538
2827.27549	0.37984
2825.34692	0.37433
2823.41836	0.36851
2821.48979	0.36253
2819.56123	0.35677
2817.63267	0.35134
2815.70410	0.34626
2813.77554	0.34139
2811.84697	0.33630
2809.91841	0.33090
2807.98984	0.32564
2806.06128	0.32076
2804.13271	0.31607
2802.20415	0.31145
2800.27559	0.30684
2798.34702	0.30226
2796.41846	0.29785
2794.48989	0.29365
2792.56133	0.28957
2790.63276	0.28551
2788.70420	0.28136
2786.77563	0.27717
2784.84707	0.27320
2782.91851	0.26956
2780.98994	0.26595
2779.06138	0.26225
2777.13281	0.25859
2775.20425	0.25495
2773.27568	0.25134
2771.34712	0.24793
2769.41855	0.24484
2767.48999	0.24179
2765.56143	0.23850
2763.63286	0.23519
2761.70430	0.23211
2759.77573	0.22927
2757.84717	0.22657
2755.91860	0.22386
2753.99004	0.22100
2752.06147	0.21804
2750.13291	0.21523
2748.20435	0.21268
2746.27578	0.21020
2744.34722	0.20773
2742.41865	0.20531
2740.49009	0.20298
2738.56152	0.20063
2736.63296	0.19822
2734.70439	0.19599
2732.77583	0.19401
2730.84727	0.19200
2728.91870	0.18981
2726.99014	0.18766
2725.06157	0.18566
2723.13301	0.18378
2721.20444	0.18194
2719.27588	0.18012
2717.34731	0.17837
2715.41875	0.17664
2713.49019	0.17495
2711.56162	0.17338
2709.63306	0.17187
2707.70449	0.17039
2705.77593	0.16892
2703.84736	0.16744
2701.91880	0.16601
2699.99023	0.16458
2698.06167	0.16310
2696.13311	0.16173
2694.20454	0.16046
2692.27598	0.15914
2690.34741	0.15783
2688.41885	0.15664
2686.49028	0.15550
2684.56172	0.15441
2682.63315	0.15341
2680.70459	0.15238
2678.77603	0.15135
2676.84746	0.15040
2674.91890	0.14941
2672.99033	0.14828
2671.06177	0.14711
2669.13320	0.14607
2667.20464	0.14517
2665.27607	0.14445
2663.34751	0.14380
2661.41895	0.14313
2659.49038	0.14245
2657.56182	0.14171
2655.63325	0.14096
2653.70469	0.14027
2651.77612	0.13970
2649.84756	0.13928
2647.91899	0.13878
2645.99043	0.13813
2644.06187	0.13760
2642.13330	0.13725
2640.20474	0.13687
2638.27617	0.13641
2636.34761	0.13600
2634.41904	0.13564
2632.49048	0.13529
2630.56191	0.13495
2628.63335	0.13480
2626.70479	0.13486
2624.77622	0.13482
2622.84766	0.13449
2620.91909	0.13405
2618.99053	0.13373
2617.06196	0.13358
2615.13340	0.13355
2613.20483	0.13353
2611.27627	0.13359
2609.34771	0.13375
2607.41914	0.13383
2605.49058	0.13378
2603.56201	0.13370
2601.63345	0.13374
2599.70488	0.13403
2597.77632	0.13446
2595.84775	0.13471
2593.91919	0.13477
2591.99062	0.13487
2590.06206	0.13507
2588.13350	0.13531
2586.20493	0.13561
2584.27637	0.13593
2582.34780	0.13627
2580.41924	0.13653
2578.49067	0.13670
2576.56211	0.13701
2574.63354	0.13746
2572.70498	0.13785
2570.77642	0.13825
2568.84785	0.13885
2566.91929	0.13949
2564.99072	0.13999
2563.06216	0.14047
2561.13359	0.14101
2559.20503	0.14164
2557.27646	0.14233
2555.34790	0.14288
2553.41934	0.14339
2551.49077	0.14404
2549.56221	0.14471
2547.63364	0.14527
2545.70508	0.14579
2543.77651	0.14629
2541.84795	0.14686
2539.91938	0.14758
2537.99082	0.14842
2536.06226	0.14923
2534.13369	0.14994
2532.20513	0.15069
2530.27656	0.15152
2528.34800	0.15230
2526.41943	0.15311
2524.49087	0.15399
2522.56230	0.15484
2520.63374	0.15563
2518.70518	0.15641
2516.77661	0.15715
2514.84805	0.15791
2512.91948	0.15876
2510.99092	0.15971
2509.06235	0.16072
2507.13379	0.16167
2505.20522	0.16250
2503.27666	0.16333
2501.34810	0.16424
2499.41953	0.16521
2497.49097	0.16611
2495.56240	0.16697
2493.63384	0.16794
2491.70527	0.16895
2489.77671	0.16983
2487.84814	0.17061
2485.91958	0.17152
2483.99102	0.17258
2482.06245	0.17370
2480.13389	0.17474
2478.20532	0.17557
2476.27676	0.17625
2474.34819	0.17704
2472.41963	0.17805
2470.49106	0.17925
2468.56250	0.18042
2466.63394	0.18138
2464.70537	0.18223
2462.77681	0.18318
2460.84824	0.18425
2458.91968	0.18534
2456.99111	0.18646
2455.06255	0.18752
2453.13398	0.18842
2451.20542	0.18932
2449.27686	0.19036
2447.34829	0.19142
2445.41973	0.19247
2443.49116	0.19361
2441.56260	0.19478
2439.63403	0.19583
2437.70547	0.19684
2435.77690	0.19791
2433.84834	0.19901
2431.91978	0.20010
2429.99121	0.20116
2428.06265	0.20218
2426.13408	0.20318
2424.20552	0.20421
2422.27695	0.20535
2420.34839	0.20658
2418.41982	0.20780
2416.49126	0.20904
2414.56270	0.21026
2412.63413	0.21133
2410.70557	0.21246
2408.77700	0.21381
2406.84844	0.21522
2404.91987	0.21659
2402.99131	0.21780
2401.06274	0.21881
2399.13418	0.21984
2397.20562	0.22110
2395.27705	0.22252
2393.34849	0.22390
2391.41992	0.22528
2389.49136	0.22687
2387.56279	0.22895
2385.63423	0.23205
2383.70566	0.23688
2381.77710	0.24365
2379.84854	0.25195
2377.91997	0.26160
2375.99141	0.27278
2374.06284	0.28550
2372.13428	0.29944
2370.20571	0.31435
2368.27715	0.32957
2366.34858	0.34381
2364.42002	0.35594
2362.49146	0.36544
2360.56289	0.37133
2358.63433	0.37223
2356.70576	0.36781
2354.77720	0.35839
2352.84863	0.34509
2350.92007	0.33076
2348.99150	0.32179
2347.06294	0.32246
2345.13437	0.33296
2343.20581	0.34697
2341.27725	0.35506
2339.34868	0.35702
2337.42012	0.35651
2335.49155	0.35549
2333.56299	0.35425
2331.63442	0.35331
2329.70586	0.35262
2327.77729	0.35110
2325.84873	0.34813
2323.92017	0.34436
2321.99160	0.34033
2320.06304	0.33614
2318.13447	0.33184
2316.20591	0.32796
2314.27734	0.32533
2312.34878	0.32396
2310.42021	0.32286
2308.49165	0.32107
2306.56309	0.31880
2304.63452	0.31692
2302.70596	0.31594
2300.77739	0.31586
2298.84883	0.31627
2296.92026	0.31673
2294.99170	0.31699
2293.06313	0.31712
2291.13457	0.31736
2289.20601	0.31779
2287.27744	0.31822
2285.34888	0.31869
2283.42031	0.31967
2281.49175	0.32142
2279.56318	0.32379
2277.63462	0.32645
2275.70605	0.32897
2273.77749	0.33126
2271.84893	0.33353
2269.92036	0.33573
2267.99180	0.33775
2266.06323	0.33971
2264.13467	0.34166
2262.20610	0.34361
2260.27754	0.34550
2258.34897	0.34723
2256.42041	0.34897
2254.49185	0.35089
2252.56328	0.35281
2250.63472	0.35468
2248.70615	0.35666
2246.77759	0.35872
2244.84902	0.36080
2242.92046	0.36291
2240.99189	0.36501
2239.06333	0.36713
2237.13477	0.36936
2235.20620	0.37164
2233.27764	0.37387
2231.34907	0.37608
2229.42051	0.37833
2227.49194	0.38060
2225.56338	0.38274
2223.63481	0.38476
2221.70625	0.38687
2219.77769	0.38913
2217.84912	0.39148
2215.92056	0.39383
2213.99199	0.39606
2212.06343	0.39815
2210.13486	0.40025
2208.20630	0.40253
2206.27773	0.40483
2204.34917	0.40692
2202.42061	0.40893
2200.49204	0.41098
2198.56348	0.41298
2196.63491	0.41490
2194.70635	0.41691
2192.77778	0.41900
2190.84922	0.42102
2188.92065	0.42292
2186.99209	0.42476
2185.06353	0.42656
2183.13496	0.42823
2181.20640	0.42983
2179.27783	0.43146
2177.34927	0.43305
2175.42070	0.43466
2173.49214	0.43642
2171.56357	0.43809
2169.63501	0.43946
2167.70645	0.44070
2165.77788	0.44192
2163.84932	0.44314
2161.92075	0.44430
2159.99219	0.44533
2158.06362	0.44636
2156.13506	0.44742
2154.20649	0.44837
2152.27793	0.44927
2150.34937	0.45016
2148.42080	0.45088
2146.49224	0.45135
2144.56367	0.45175
2142.63511	0.45229
2140.70654	0.45277
2138.77798	0.45306
2136.84941	0.45327
2134.92085	0.45336
2132.99229	0.45326
2131.06372	0.45313
2129.13516	0.45300
2127.20659	0.45272
2125.27803	0.45229
2123.34946	0.45180
2121.42090	0.45124
2119.49233	0.45062
2117.56377	0.45010
2115.63521	0.44970
2113.70664	0.44914
2111.77808	0.44825
2109.84951	0.44718
2107.92095	0.44610
2105.99238	0.44502
2104.06382	0.44388
2102.13525	0.44268
2100.20669	0.44138
2098.27812	0.43991
2096.34956	0.43834
2094.42100	0.43674
2092.49243	0.43518
2090.56387	0.43362
2088.63530	0.43195
2086.70674	0.43017
2084.77817	0.42824
2082.84961	0.42627
2080.92104	0.42432
2078.99248	0.42231
2077.06392	0.42024
2075.13535	0.41815
2073.20679	0.41596
2071.27822	0.41366
2069.34966	0.41144
2067.42109	0.40935
2065.49253	0.40714
2063.56396	0.40467
2061.63540	0.40209
2059.70684	0.39954
2057.77827	0.39709
2055.84971	0.39468
2053.92114	0.39219
2051.99258	0.38951
2050.06401	0.38674
2048.13545	0.38409
2046.20688	0.38148
2044.27832	0.37880
2042.34976	0.37619
2040.42119	0.37354
2038.49263	0.37066
2036.56406	0.36775
2034.63550	0.36503
2032.70693	0.36240
2030.77837	0.35974
2028.84980	0.35701
2026.92124	0.35421
2024.99268	0.35137
2023.06411	0.34855
2021.13555	0.34582
2019.20698	0.34329
2017.27842	0.34071
2015.34985	0.33772
2013.42129	0.33463
2011.49272	0.33180
2009.56416	0.32923
2007.63560	0.32667
2005.70703	0.32396
2003.77847	0.32123
2001.84990	0.31852
1999.92134	0.31582
1997.99277	0.31320
1996.06421	0.31076
1994.13564	0.30857
1992.20708	0.30643
1990.27852	0.30388
1988.34995	0.30107
1986.42139	0.29833
1984.49282	0.29571
1982.56426	0.29326
1980.63569	0.29091
1978.70713	0.28862
1976.77856	0.28640
1974.85000	0.28411
1972.92144	0.28180
1970.99287	0.27967
1969.06431	0.27787
1967.13574	0.27621
1965.20718	0.27418
1963.27861	0.27188
1961.35005	0.26981
1959.42148	0.26799
1957.49292	0.26624
1955.56436	0.26449
1953.63579	0.26270
1951.70723	0.26084
1949.77866	0.25911
1947.85010	0.25760
1945.92153	0.25631
1943.99297	0.25531
1942.06440	0.25409
1940.13584	0.25215
1938.20728	0.25016
1936.27871	0.24866
1934.35015	0.24739
1932.42158	0.24614
1930.49302	0.24491
1928.56445	0.24377
1926.63589	0.24278
1924.70732	0.24221
1922.77876	0.24178
1920.85020	0.24090
1918.92163	0.24001
1916.99307	0.23911
1915.06450	0.23771
1913.13594	0.23644
1911.20737	0.23590
1909.27881	0.23553
1907.35024	0.23470
1905.42168	0.23370
1903.49312	0.23292
1901.56455	0.23229
1899.63599	0.23174
1897.70742	0.23141
1895.77886	0.23132
1893.85029	0.23114
1891.92173	0.23088
1889.99316	0.23095
1888.06460	0.23071
1886.13604	0.22996
1884.20747	0.22946
1882.27891	0.22923
1880.35034	0.22902
1878.42178	0.22888
1876.49321	0.22883
1874.56465	0.22885
1872.63608	0.22922
1870.70752	0.23037
1868.77896	0.23206
1866.85039	0.23233
1864.92183	0.23113
1862.99326	0.23034
1861.06470	0.23037
1859.13613	0.23072
1857.20757	0.23096
1855.27900	0.23124
1853.35044	0.23170
1851.42187	0.23240
1849.49331	0.23340
1847.56475	0.23478
1845.63618	0.23648
1843.70762	0.23789
1841.77905	0.23797
1839.85049	0.23757
1837.92192	0.23809
1835.99336	0.23911
1834.06479	0.24012
1832.13623	0.24156
1830.20767	0.24393
1828.27910	0.24584
1826.35054	0.24654
1824.42197	0.24727
1822.49341	0.24788
1820.56484	0.24859
1818.63628	0.24983
1816.70771	0.25149
1814.77915	0.25324
1812.85059	0.25539
1810.92202	0.25799
1808.99346	0.26010
1807.06489	0.26160
1805.13633	0.26328
1803.20776	0.26584
1801.27920	0.26909
1799.35063	0.27223
1797.42207	0.27462
1795.49351	0.27714
1793.56494	0.28071
1791.63638	0.28494
1789.70781	0.28759
1787.77925	0.28908
1785.85068	0.29186
1783.92212	0.29579
1781.99355	0.30006
1780.06499	0.30443
1778.13643	0.30860
1776.20786	0.31284
1774.27930	0.31826
1772.35073	0.32545
1770.42217	0.33167
1768.49360	0.33579
1766.56504	0.33986
1764.63647	0.34466
1762.70791	0.35079
1760.77935	0.35860
1758.85078	0.36557
1756.92222	0.37252
1754.99365	0.37993
1753.06509	0.38682
1751.13652	0.39581
1749.20796	0.40720
1747.27939	0.41749
1745.35083	0.42598
1743.42227	0.43522
1741.49370	0.44576
1739.56514	0.45827
1737.63657	0.47083
1735.70801	0.48243
1733.77944	0.50023
1731.85088	0.51996
1729.92231	0.53441
1727.99375	0.54926
1726.06519	0.56581
1724.13662	0.58443
1722.20806	0.60476
1720.27949	0.62412
1718.35093	0.64786
1716.42236	0.68198
1714.49380	0.71189
1712.56523	0.73494
1710.63667	0.75801
1708.70811	0.78381
1706.77954	0.81373
1704.85098	0.84917
1702.92241	0.88021
1700.99385	0.91086
1699.06528	0.95648
1697.13672	0.99749
1695.20815	1.03761
1693.27959	1.07558
1691.35103	1.10658
1689.42246	1.14341
1687.49390	1.18244
1685.56533	1.22030
1683.63677	1.27821
1681.70820	1.33631
1679.77964	1.37227
1677.85107	1.40698
1675.92251	1.44763
1673.99395	1.49774
1672.06538	1.54190
1670.13682	1.58491
1668.20825	1.63883
1666.27969	1.68042
1664.35112	1.71541
1662.42256	1.75954
1660.49399	1.80831
1658.56543	1.84594
1656.63687	1.87745
1654.70830	1.90899
1652.77974	1.96359
1650.85117	2.01691
1648.92261	2.03879
1646.99404	2.06799
1645.06548	2.09996
1643.13691	2.12064
1641.20835	2.13476
1639.27979	2.14805
1637.35122	2.15858
1635.42266	2.16480
1633.49409	2.16132
1631.56553	2.14999
1629.63696	2.13610
1627.70840	2.11342
1625.77983	2.08782
1623.85127	2.05514
1621.92271	2.01280
1619.99414	1.97395
1618.06558	1.93529
1616.13701	1.87719
1614.20845	1.81596
1612.27988	1.77029
1610.35132	1.72385
1608.42275	1.67339
1606.49419	1.62273
1604.56562	1.57516
1602.63706	1.52896
1600.70850	1.48358
1598.77993	1.44132
1596.85137	1.40127
1594.92280	1.36217
1592.99424	1.32390
1591.06567	1.28828
1589.13711	1.25420
1587.20854	1.22176
1585.27998	1.19140
1583.35142	1.16255
1581.42285	1.13558
1579.49429	1.11229
1577.56572	1.09136
1575.63716	1.06471
1573.70859	1.03947
1571.78003	1.02258
1569.85146	1.00512
1567.92290	0.98438
1565.99434	0.96690
1564.06577	0.95197
1562.13721	0.93985
1560.20864	0.93053
1558.28008	0.91289
1556.35151	0.89322
1554.42295	0.88058
1552.49438	0.86901
1550.56582	0.85807
1548.63726	0.84702
1546.70869	0.83797
1544.78013	0.83147
1542.85156	0.82572
1540.92300	0.81817
1538.99443	0.80422
1537.06587	0.79228
1535.13730	0.78545
1533.20874	0.77825
1531.28018	0.76963
1529.35161	0.76310
1527.42305	0.75800
1525.49448	0.75289
1523.56592	0.74807
1521.63735	0.74288
1519.70879	0.73609
1517.78022	0.72995
1515.85166	0.72378
1513.92310	0.71764
1511.99453	0.71329
1510.06597	0.71073
1508.13740	0.70964
1506.20884	0.70542
1504.28027	0.69753
1502.35171	0.69248
1500.42314	0.68948
1498.49458	0.68726
1496.56602	0.68411
1494.63745	0.67983
1492.70889	0.67678
1490.78032	0.67571
1488.85176	0.67447
1486.92319	0.67094
1484.99463	0.66700
1483.06606	0.66410
1481.13750	0.66184
1479.20894	0.65978
1477.28037	0.65832
1475.35181	0.65759
1473.42324	0.65673
1471.49468	0.65325
1469.56611	0.64811
1467.63755	0.64435
1465.70898	0.64204
1463.78042	0.63977
1461.85186	0.63746
1459.92329	0.63666
1457.99473	0.63698
1456.06616	0.63432
1454.13760	0.62917
1452.20903	0.62554
1450.28047	0.62313
1448.35190	0.62116
1446.42334	0.61879
1444.49478	0.61635
1442.56621	0.61443
1440.63765	0.61296
1438.70908	0.61222
1436.78052	0.61185
1434.85195	0.61032
1432.92339	0.60825
1430.99482	0.60678
1429.06626	0.60520
1427.13770	0.60329
1425.20913	0.60196
1423.28057	0.60106
1421.35200	0.60004
1419.42344	0.59905
1417.49487	0.59728
1415.56631	0.59448
1413.63774	0.59201
1411.70918	0.59011
1409.78062	0.58838
1407.85205	0.58689
1405.92349	0.58578
1403.99492	0.58441
1402.06636	0.58273
1400.13779	0.58163
1398.20923	0.58100
1396.28066	0.58022
1394.35210	0.57858
1392.42354	0.57621
1390.49497	0.57448
1388.56641	0.57378
1386.63784	0.57294
1384.70928	0.57120
1382.78071	0.56950
1380.85215	0.56841
1378.92358	0.56766
1376.99502	0.56720
1375.06646	0.56716
1373.13789	0.56663
1371.20933	0.56534
1369.28076	0.56434
1367.35220	0.56355
1365.42363	0.56270
1363.49507	0.56221
1361.56650	0.56155
1359.63794	0.56006
1357.70937	0.55867
1355.78081	0.55779
1353.85225	0.55694
1351.92368	0.55588
1349.99512	0.55482
1348.06655	0.55376
1346.13799	0.55264
1344.20942	0.55164
1342.28086	0.55103
1340.35229	0.55078
1338.42373	0.55004
1336.49517	0.54847
1334.56660	0.54693
1332.63804	0.54584
1330.70947	0.54492
1328.78091	0.54397
1326.85234	0.54308
1324.92378	0.54230
1322.99521	0.54160
1321.06665	0.54104
1319.13809	0.54053
1317.20952	0.53972
1315.28096	0.53860
1313.35239	0.53754
1311.42383	0.53662
1309.49526	0.53573
1307.56670	0.53479
1305.63813	0.53372
1303.70957	0.53267
1301.78101	0.53172
1299.85244	0.53089
1297.92388	0.53027
1295.99531	0.52966
1294.06675	0.52883
1292.13818	0.52795
1290.20962	0.52732
1288.28105	0.52689
1286.35249	0.52642
1284.42393	0.52597
1282.49536	0.52552
1280.56680	0.52494
1278.63823	0.52432
1276.70967	0.52374
1274.78110	0.52317
1272.85254	0.52267
1270.92397	0.52220
1268.99541	0.52171
1267.06685	0.52125
1265.13828	0.52080
1263.20972	0.52039
1261.28115	0.52012
1259.35259	0.51995
1257.42402	0.51969
1255.49546	0.51930
1253.56689	0.51884
1251.63833	0.51840
1249.70977	0.51809
1247.78120	0.51781
1245.85264	0.51743
1243.92407	0.51699
1241.99551	0.51660
1240.06694	0.51627
1238.13838	0.51597
1236.20981	0.51557
1234.28125	0.51500
1232.35269	0.51441
1230.42412	0.51378
1228.49556	0.51305
1226.56699	0.51234
1224.63843	0.51169
1222.70986	0.51103
1220.78130	0.51038
1218.85273	0.50969
1216.92417	0.50900
1214.99561	0.50840
1213.06704	0.50790
1211.13848	0.50741
1209.20991	0.50689
1207.28135	0.50642
1205.35278	0.50604
1203.42422	0.50562
1201.49565	0.50510
1199.56709	0.50452
1197.63853	0.50398
1195.70996	0.50343
1193.78140	0.50273
1191.85283	0.50198
1189.92427	0.50150
1187.99570	0.50125
1186.06714	0.50101
1184.13857	0.50076
1182.21001	0.50070
1180.28145	0.50082
1178.35288	0.50104
1176.42432	0.50149
1174.49575	0.50209
1172.56719	0.50272
1170.63862	0.50358
1168.71006	0.50452
1166.78149	0.50521
1164.85293	0.50592
1162.92437	0.50694
1160.99580	0.50773
1159.06724	0.50791
1157.13867	0.50765
1155.21011	0.50702
1153.28154	0.50590
1151.35298	0.50434
1149.42441	0.50241
1147.49585	0.50011
1145.56729	0.49764
1143.63872	0.49525
1141.71016	0.49290
1139.78159	0.49052
1137.85303	0.48829
1135.92446	0.48644
1133.99590	0.48498
1132.06733	0.48365
1130.13877	0.48232
1128.21021	0.48113
1126.28164	0.48007
1124.35308	0.47908
1122.42451	0.47826
1120.49595	0.47774
1118.56738	0.47752
1116.63882	0.47754
1114.71025	0.47781
1112.78169	0.47831
1110.85312	0.47897
1108.92456	0.47980
1106.99600	0.48077
1105.06743	0.48177
1103.13887	0.48283
1101.21030	0.48406
1099.28174	0.48545
1097.35317	0.48722
1095.42461	0.48984
1093.49604	0.49352
1091.56748	0.49821
1089.63892	0.50397
1087.71035	0.51097
1085.78179	0.51894
1083.85322	0.52700
1081.92466	0.53439
1079.99609	0.54035
1078.06753	0.54386
1076.13896	0.54435
1074.21040	0.54198
1072.28184	0.53721
1070.35327	0.53080
1068.42471	0.52379
1066.49614	0.51711
1064.56758	0.51110
1062.63901	0.50561
1060.71045	0.50066
1058.78188	0.49654
1056.85332	0.49306
1054.92476	0.48991
1052.99619	0.48708
1051.06763	0.48480
1049.13906	0.48330
1047.21050	0.48260
1045.28193	0.48249
1043.35337	0.48262
1041.42480	0.48280
1039.49624	0.48301
1037.56768	0.48314
1035.63911	0.48308
1033.71055	0.48296
1031.78198	0.48270
1029.85342	0.48198
1027.92485	0.48104
1025.99629	0.48015
1024.06772	0.47945
1022.13916	0.47920
1020.21060	0.47929
1018.28203	0.47959
1016.35347	0.48009
1014.42490	0.48060
1012.49634	0.48101
1010.56777	0.48142
1008.63921	0.48202
1006.71064	0.48290
1004.78208	0.48421
1002.85352	0.48615
1000.92495	0.48878
998.99639	0.49206
997.06782	0.49598
995.13926	0.50034
993.21069	0.50437
991.28213	0.50741
989.35356	0.50945
987.42500	0.51059
985.49644	0.51117
983.56787	0.51166
981.63931	0.51232
979.71074	0.51336
977.78218	0.51506
975.85361	0.51745
973.92505	0.52014
971.99648	0.52304
970.06792	0.52632
968.13936	0.52994
966.21079	0.53399
964.28223	0.53873
962.35366	0.54403
960.42510	0.54942
958.49653	0.55463
956.56797	0.55998
954.63940	0.56593
952.71084	0.57250
950.78228	0.57924
948.85371	0.58558
946.92515	0.59160
944.99658	0.59767
943.06802	0.60375
941.13945	0.60965
939.21089	0.61519
937.28232	0.62029
935.35376	0.62559
933.42520	0.63165
931.49663	0.63769
929.56807	0.64339
927.63950	0.64934
925.71094	0.65534
923.78237	0.66105
921.85381	0.66716
919.92524	0.67451
917.99668	0.68256
916.06812	0.69064
914.13955	0.69855
912.21099	0.70600
910.28242	0.71302
908.35386	0.72036
906.42529	0.72936
904.49673	0.73987
902.56816	0.74997
900.63960	0.75916
898.71104	0.76804
896.78247	0.77667
894.85391	0.78658
892.92534	0.79856
890.99678	0.80995
889.06821	0.81958
887.13965	0.82941
885.21108	0.84021
883.28252	0.85132
881.35396	0.86188
879.42539	0.87171
877.49683	0.88259
875.56826	0.89501
873.63970	0.90670
871.71113	0.91814
869.78257	0.93086
867.85400	0.94337
865.92544	0.95512
863.99687	0.96608
862.06831	0.97517
860.13975	0.98360
858.21118	0.99405
856.28262	1.00661
854.35405	1.02039
852.42549	1.03421
850.49692	1.04626
848.56836	1.05728
846.63979	1.06914
844.71123	1.08155
842.78267	1.09333
840.85410	1.10401
838.92554	1.11301
836.99697	1.12272
835.06841	1.13613
833.13984	1.15138
831.21128	1.16509
829.28271	1.17254
827.35415	1.17495
825.42559	1.18316
823.49702	1.20141
821.56846	1.21975
819.63989	1.23019
817.71133	1.23906
815.78276	1.25420
813.85420	1.27178
811.92563	1.28208
809.99707	1.28156
808.06851	1.27475
806.13994	1.27276
804.21138	1.27940
802.28281	1.29313
800.35425	1.30838
798.42568	1.31681
796.49712	1.33018
794.56855	1.35825
792.63999	1.40456
790.71143	1.45817
788.78286	1.45025
786.85430	1.38422
784.92573	1.35642
782.99717	1.37837
781.06860	1.37252
779.14004	1.32492
777.21147	1.30399
775.28291	1.32994
773.35435	1.37265
771.42578	1.37148
769.49722	1.31934
767.56865	1.30178
765.64009	1.35200
763.71152	1.41116
761.78296	1.39154
759.85439	1.25635
757.92583	1.12946
755.99727	1.10781
754.06870	1.19425
752.14014	1.37266
750.21157	1.46393
748.28301	1.25971
746.35444	1.06795
744.42588	0.92785
742.49731	0.86690
740.56875	0.91581
738.64019	0.91909
736.71162	0.79974
734.78306	0.73389
732.85449	0.69271
730.92593	0.57460
728.99736	0.37331
727.06880	0.15200
725.14023	-0.03838
723.21167	-0.23003
721.28311	-0.74509
719.35454	-0.58743
717.42598	-0.32722
715.49741	-0.20345
713.56885	0.11200
711.64028	0.40513
709.71172	0.55358
707.78315	0.44239
705.85459	0.29584
703.92603	0.26513
701.99746	0.31514
700.06890	0.36113
698.14033	0.37925
696.21177	0.38710
694.28320	0.36866
692.35464	0.32287
690.42607	0.31476
688.49751	0.39705
686.56895	0.54177
684.64038	0.55268
682.71182	0.42825
680.78325	0.40287
678.85469	0.48437
676.92612	0.57607
674.99756	0.55746
673.06899	0.50017
671.14043	0.48108
669.21187	0.42609
667.28330	0.33770
665.35474	0.30796
663.42617	0.37560
661.49761	0.46486
659.56904	0.46489
657.64048	0.40750
655.71191	0.37712
653.78335	0.37437
651.85479	0.39081
649.92622	0.43281
647.99766	0.52303
646.06909	0.67489
644.14053	0.70309
642.21196	0.55702
640.28340	0.45556
638.35483	0.39919
636.42627	0.35665
634.49771	0.33133
632.56914	0.32400
630.64058	0.33706
628.71201	0.37264
626.78345	0.39060
624.85488	0.38200
622.92632	0.37412
620.99775	0.39639
619.06919	0.43521
617.14062	0.42816
615.21206	0.41032
613.28350	0.40672
611.35493	0.35146
609.42637	0.30219
607.49780	0.31071
605.56924	0.33031
603.64067	0.36121
601.71211	0.42288
599.78354	0.42228
597.85498	0.36967
595.92642	0.34898
593.99785	0.33745
592.06929	0.33860
590.14072	0.33369
588.21216	0.29151
586.28359	0.27091
584.35503	0.29675
582.42646	0.34789
580.49790	0.45103
578.56934	0.57182
576.64077	0.46261
574.71221	0.33502
572.78364	0.33731
570.85508	0.40686
568.92651	0.41920
566.99795	0.37089
565.06938	0.34446
563.14082	0.39311
561.21226	0.43402
559.28369	0.35734
557.35513	0.29441
555.42656	0.29579
553.49800	0.30997
551.56943	0.32794
549.64087	0.37139
547.71230	0.41051
545.78374	0.40274
543.85518	0.36332
541.92661	0.34692
539.99805	0.35007
538.06948	0.33737
536.14092	0.28670
534.21235	0.22755
532.28379	0.20439
530.35522	0.22208
528.42666	0.25734
526.49810	0.28895
524.56953	0.28991
522.64097	0.26652
520.71240	0.27514
518.78384	0.34561
516.85527	0.40166
514.92671	0.37762
512.99814	0.33031
511.06958	0.27748
509.14102	0.24164
507.21245	0.25254
505.28389	0.26462
503.35532	0.24969
501.42676	0.27388
499.49819	0.38136
