3997.91411	0.06454
3995.98555	0.06453
3994.05698	0.06460
3992.12842	0.06480
3990.19985	0.06511
3988.27129	0.06534
3986.34272	0.06557
3984.41416	0.06596
3982.48560	0.06624
3980.55703	0.06623
3978.62847	0.06630
3976.69990	0.06689
3974.77134	0.06760
3972.84277	0.06785
3970.91421	0.06794
3968.98564	0.06820
3967.05708	0.06837
3965.12852	0.06818
3963.19995	0.06790
3961.27139	0.06791
3959.34282	0.06810
3957.41426	0.06824
3955.48569	0.06844
3953.55713	0.06868
3951.62856	0.06896
3949.70000	0.06932
3947.77144	0.06948
3945.84287	0.06915
3943.91431	0.06878
3941.98574	0.06890
3940.05718	0.06901
3938.12861	0.06887
3936.20005	0.06906
3934.27148	0.06951
3932.34292	0.06950
3930.41436	0.06917
3928.48579	0.06890
3926.55723	0.06860
3924.62866	0.06859
3922.70010	0.06888
3920.77153	0.06871
3918.84297	0.06824
3916.91440	0.06824
3914.98584	0.06843
3913.05728	0.06824
3911.12871	0.06814
3909.20015	0.06819
3907.27158	0.06819
3905.34302	0.06852
3903.41445	0.06927
3901.48589	0.06973
3899.55732	0.06963
3897.62876	0.06906
3895.70020	0.06828
3893.77163	0.06790
3891.84307	0.06814
3889.91450	0.06849
3887.98594	0.06823
3886.05737	0.06826
3884.12881	0.06916
3882.20024	0.06962
3880.27168	0.06937
3878.34312	0.06921
3876.41455	0.06918
3874.48599	0.06928
3872.55742	0.06962
3870.62886	0.07017
3868.70029	0.07095
3866.77173	0.07141
3864.84316	0.07151
3862.91460	0.07151
3860.98604	0.07139
3859.05747	0.07159
3857.12891	0.07212
3855.20034	0.07255
3853.27178	0.07299
3851.34321	0.07361
3849.41465	0.07373
3847.48608	0.07375
3845.55752	0.07411
3843.62896	0.07481
3841.70039	0.07560
3839.77183	0.07666
3837.84326	0.07818
3835.91470	0.07896
3833.98613	0.07902
3832.05757	0.07929
3830.12900	0.07960
3828.20044	0.07987
3826.27187	0.08076
3824.34331	0.08203
3822.41475	0.08265
3820.48618	0.08329
3818.55762	0.08446
3816.62905	0.08522
3814.70049	0.08593
3812.77192	0.08655
3810.84336	0.08703
3808.91479	0.08785
3806.98623	0.08932
3805.05767	0.09093
3803.12910	0.09205
3801.20054	0.09348
3799.27197	0.09491
3797.34341	0.09574
3795.41484	0.09697
3793.48628	0.09793
3791.55771	0.09825
3789.62915	0.09895
3787.70059	0.10042
3785.77202	0.10231
3783.84346	0.10403
3781.91489	0.10541
3779.98633	0.10713
3778.05776	0.10927
3776.12920	0.11064
3774.20063	0.11157
3772.27207	0.11292
3770.34351	0.11482
3768.41494	0.11722
3766.48638	0.11956
3764.55781	0.12175
3762.62925	0.12355
3760.70068	0.12513
3758.77212	0.12741
3756.84355	0.13020
3754.91499	0.13263
3752.98643	0.13508
3751.05786	0.13851
3749.12930	0.14260
3747.20073	0.14483
3745.27217	0.14619
3743.34360	0.14984
3741.41504	0.15460
3739.48647	0.15766
3737.55791	0.16020
3735.62935	0.16396
3733.70078	0.16965
3731.77222	0.17568
3729.84365	0.18042
3727.91509	0.18406
3725.98652	0.18872
3724.05796	0.19536
3722.12939	0.20267
3720.20083	0.21006
3718.27227	0.21742
3716.34370	0.22467
3714.41514	0.23182
3712.48657	0.24047
3710.55801	0.25349
3708.62944	0.26809
3706.70088	0.27983
3704.77231	0.29071
3702.84375	0.30348
3700.91519	0.32019
3698.98662	0.33868
3697.05806	0.35643
3695.12949	0.37519
3693.20093	0.39449
3691.27236	0.41486
3689.34380	0.44190
3687.41523	0.47690
3685.48667	0.50846
3683.55811	0.53515
3681.62954	0.56270
3679.70098	0.59320
3677.77241	0.62561
3675.84385	0.66471
3673.91528	0.71795
3671.98672	0.76144
3670.05815	0.79992
3668.12959	0.85332
3666.20103	0.90202
3664.27246	0.94218
3662.34390	0.98544
3660.41533	1.03256
3658.48677	1.07874
3656.55820	1.12754
3654.62964	1.18237
3652.70107	1.22848
3650.77251	1.26781
3648.84395	1.32196
3646.91538	1.39032
3644.98682	1.44192
3643.05825	1.48161
3641.12969	1.52169
3639.20112	1.56563
3637.27256	1.61011
3635.34399	1.65350
3633.41543	1.69633
3631.48687	1.73560
3629.55830	1.77462
3627.62974	1.82726
3625.70117	1.87888
3623.77261	1.91410
3621.84404	1.94715
3619.91548	1.98416
3617.98691	2.02802
3616.05835	2.07147
3614.12979	2.10940
3612.20122	2.14870
3610.27266	2.18710
3608.34409	2.22627
3606.41553	2.26969
3604.48696	2.30992
3602.55840	2.34433
3600.62983	2.38138
3598.70127	2.42270
3596.77271	2.46304
3594.84414	2.50366
3592.91558	2.54605
3590.98701	2.58612
3589.05845	2.62319
3587.12988	2.66734
3585.20132	2.71566
3583.27275	2.75554
3581.34419	2.79253
3579.41562	2.83313
3577.48706	2.87630
3575.55850	2.91975
3573.62993	2.96390
3571.70137	3.00585
3569.77280	3.04391
3567.84424	3.08364
3565.91567	3.13508
3563.98711	3.18741
3562.05854	3.23042
3560.12998	3.27243
3558.20142	3.31587
3556.27285	3.36002
3554.34429	3.40363
3552.41572	3.44850
3550.48716	3.49422
3548.55859	3.53755
3546.63003	3.58163
3544.70146	3.63280
3542.77290	3.68702
3540.84434	3.73685
3538.91577	3.78281
3536.98721	3.82742
3535.05864	3.87443
3533.13008	3.92190
3531.20151	3.96779
3529.27295	4.01443
3527.34438	4.06301
3525.41582	4.11115
3523.48726	4.15965
3521.55869	4.21223
3519.63013	4.26552
3517.70156	4.31554
3515.77300	4.36118
3513.84443	4.40408
3511.91587	4.44820
3509.98730	4.49608
3508.05874	4.54586
3506.13018	4.59583
3504.20161	4.64492
3502.27305	4.69242
3500.34448	4.74307
3498.41592	4.79596
3496.48735	4.84332
3494.55879	4.88564
3492.63022	4.93190
3490.70166	4.98342
3488.77310	5.03260
3486.84453	5.07717
3484.91597	5.12366
3482.98740	5.17523
3481.05884	5.22673
3479.13027	5.27194
3477.20171	5.31548
3475.27314	5.36829
3473.34458	5.43165
3471.41602	5.48946
3469.48745	5.53236
3467.55889	5.57759
3465.63032	5.62762
3463.70176	5.67245
3461.77319	5.72364
3459.84463	5.78623
3457.91606	5.84544
3455.98750	5.89532
3454.05894	5.94062
3452.13037	5.98713
3450.20181	6.02924
3448.27324	6.06679
3446.34468	6.12570
3444.41611	6.19661
3442.48755	6.24595
3440.55898	6.28014
3438.63042	6.32325
3436.70186	6.37231
3434.77329	6.41669
3432.84473	6.46695
3430.91616	6.51925
3428.98760	6.56487
3427.05903	6.60692
3425.13047	6.65261
3423.20190	6.70494
3421.27334	6.76270
3419.34478	6.81434
3417.41621	6.85375
3415.48765	6.89374
3413.55908	6.95288
3411.63052	7.02635
3409.70195	7.06987
3407.77339	7.09970
3405.84482	7.15357
3403.91626	7.20833
3401.98770	7.23292
3400.05913	7.26072
3398.13057	7.32932
3396.20200	7.39003
3394.27344	7.40159
3392.34487	7.41893
3390.41631	7.48659
3388.48774	7.53980
3386.55918	7.57171
3384.63062	7.62912
3382.70205	7.67285
3380.77349	7.65907
3378.84492	7.65170
3376.91636	7.72314
3374.98779	7.82099
3373.05923	7.87314
3371.13066	7.85513
3369.20210	7.83172
3367.27354	7.84534
3365.34497	7.86759
3363.41641	7.88765
3361.48784	7.88518
3359.55928	7.87240
3357.63071	7.88305
3355.70215	7.93284
3353.77358	7.99654
3351.84502	8.03821
3349.91646	8.03293
3347.98789	8.00007
3346.05933	7.97657
3344.13076	8.02674
3342.20220	8.15815
3340.27363	8.19178
3338.34507	8.10848
3336.41650	8.06337
3334.48794	8.07374
3332.55937	8.09161
3330.63081	8.13126
3328.70225	8.15349
3326.77368	8.14070
3324.84512	8.17983
3322.91655	8.24154
3320.98799	8.27349
3319.05942	8.28651
3317.13086	8.28348
3315.20229	8.26665
3313.27373	8.24990
3311.34517	8.23609
3309.41660	8.25469
3307.48804	8.30483
3305.55947	8.32188
3303.63091	8.32911
3301.70234	8.30924
3299.77378	8.23289
3297.84521	8.17658
3295.91665	8.16376
3293.98809	8.20077
3292.05952	8.32081
3290.13096	8.42353
3288.20239	8.46044
3286.27383	8.51656
3284.34526	8.49804
3282.41670	8.36666
3280.48813	8.27803
3278.55957	8.31962
3276.63101	8.38247
3274.70244	8.34520
3272.77388	8.30170
3270.84531	8.34635
3268.91675	8.43254
3266.98818	8.44747
3265.05962	8.37471
3263.13105	8.30755
3261.20249	8.31767
3259.27393	8.38676
3257.34536	8.44003
3255.41680	8.45552
3253.48823	8.48317
3251.55967	8.52602
3249.63110	8.58086
3247.70254	8.63774
3245.77397	8.60155
3243.84541	8.47631
3241.91685	8.36004
3239.98828	8.24864
3238.05972	8.14025
3236.13115	8.14610
3234.20259	8.25410
3232.27402	8.29121
3230.34546	8.21088
3228.41689	8.12125
3226.48833	8.07364
3224.55977	8.06081
3222.63120	8.09810
3220.70264	8.14750
3218.77407	8.18365
3216.84551	8.20798
3214.91694	8.17073
3212.98838	8.08988
3211.05981	8.03280
3209.13125	8.03593
3207.20269	8.11130
3205.27412	8.18093
3203.34556	8.11414
3201.41699	7.99047
3199.48843	7.91735
3197.55986	7.87991
3195.63130	7.87440
3193.70273	7.84644
3191.77417	7.74235
3189.84561	7.64170
3187.91704	7.58009
3185.98848	7.51748
3184.05991	7.45856
3182.13135	7.37453
3180.20278	7.28891
3178.27422	7.27979
3176.34565	7.29295
3174.41709	7.26809
3172.48853	7.21754
3170.55996	7.12582
3168.63140	7.02832
3166.70283	6.96761
3164.77427	6.90496
3162.84570	6.82390
3160.91714	6.75617
3158.98857	6.69838
3157.06001	6.63314
3155.13145	6.56110
3153.20288	6.48663
3151.27432	6.41970
3149.34575	6.36327
3147.41719	6.31212
3145.48862	6.25478
3143.56006	6.18177
3141.63149	6.10033
3139.70293	6.02169
3137.77437	5.95484
3135.84580	5.89358
3133.91724	5.82819
3131.98867	5.75261
3130.06011	5.66453
3128.13154	5.58050
3126.20298	5.50767
3124.27441	5.44449
3122.34585	5.38714
3120.41729	5.32023
3118.48872	5.24638
3116.56016	5.17437
3114.63159	5.09595
3112.70303	5.01718
3110.77446	4.94880
3108.84590	4.88269
3106.91733	4.81319
3104.98877	4.74322
3103.06021	4.67455
3101.13164	4.60804
3099.20308	4.54517
3097.27451	4.48154
3095.34595	4.41090
3093.41738	4.33805
3091.48882	4.26872
3089.56025	4.20286
3087.63169	4.14038
3085.70312	4.07886
3083.77456	4.01631
3081.84600	3.95377
3079.91743	3.89215
3077.98887	3.83271
3076.06030	3.77446
3074.13174	3.71424
3072.20317	3.65240
3070.27461	3.59177
3068.34604	3.53329
3066.41748	3.47687
3064.48892	3.42223
3062.56035	3.36709
3060.63179	3.31031
3058.70322	3.25405
3056.77466	3.19969
3054.84609	3.14621
3052.91753	3.09345
3050.98896	3.04192
3049.06040	2.99057
3047.13184	2.93925
3045.20327	2.88890
3043.27471	2.83981
3041.34614	2.79201
3039.41758	2.74522
3037.48901	2.69870
3035.56045	2.65236
3033.63188	2.60689
3031.70332	2.56188
3029.77476	2.51654
3027.84619	2.47165
3025.91763	2.42816
3023.98906	2.38546
3022.06050	2.34317
3020.13193	2.30196
3018.20337	2.26176
3016.27480	2.22191
3014.34624	2.18249
3012.41768	2.14339
3010.48911	2.10473
3008.56055	2.06777
3006.63198	2.03228
3004.70342	1.99662
3002.77485	1.96067
3000.84629	1.92530
2998.91772	1.89074
2996.98916	1.85700
2995.06060	1.82407
2993.13203	1.79189
2991.20347	1.76038
2989.27490	1.72898
2987.34634	1.69812
2985.41777	1.66856
2983.48921	1.63946
2981.56064	1.61022
2979.63208	1.58147
2977.70352	1.55325
2975.77495	1.52515
2973.84639	1.49769
2971.91782	1.47100
2969.98926	1.44442
2968.06069	1.41826
2966.13213	1.39300
2964.20356	1.36786
2962.27500	1.34236
2960.34644	1.31719
2958.41787	1.29294
2956.48931	1.26962
2954.56074	1.24658
2952.63218	1.22348
2950.70361	1.20075
2948.77505	1.17814
2946.84648	1.15564
2944.91792	1.13386
2942.98936	1.11248
2941.06079	1.09111
2939.13223	1.07011
2937.20366	1.04955
2935.27510	1.02909
2933.34653	1.00843
2931.41797	0.98783
2929.48940	0.96772
2927.56084	0.94827
2925.63228	0.92952
2923.70371	0.91163
2921.77515	0.89489
2919.84658	0.87966
2917.91802	0.86556
2915.98945	0.85151
2914.06089	0.83713
2912.13232	0.82297
2910.20376	0.80903
2908.27520	0.79483
2906.34663	0.78085
2904.41807	0.76765
2902.48950	0.75477
2900.56094	0.74184
2898.63237	0.72907
2896.70381	0.71655
2894.77524	0.70440
2892.84668	0.69271
2890.91812	0.68142
2888.98955	0.67032
2887.06099	0.65932
2885.13242	0.64858
2883.20386	0.63802
2881.27529	0.62753
2879.34673	0.61730
2877.41816	0.60730
2875.48960	0.59716
2873.56104	0.58690
2871.63247	0.57673
2869.70391	0.56646
2867.77534	0.55599
2865.84678	0.54540
2863.91821	0.53476
2861.98965	0.52403
2860.06108	0.51318
2858.13252	0.50244
2856.20396	0.49234
2854.27539	0.48332
2852.34683	0.47522
2850.41826	0.46800
2848.48970	0.46154
2846.56113	0.45528
2844.63257	0.44907
2842.70400	0.44320
2840.77544	0.43759
2838.84687	0.43206
2836.91831	0.42665
2834.98975	0.42118
2833.06118	0.41541
2831.13262	0.40956
2829.20405	0.40384
2827.27549	0.39822
2825.34692	0.39262
2823.41836	0.38698
2821.48979	0.38131
2819.56123	0.37573
2817.63267	0.37035
2815.70410	0.36500
2813.77554	0.35960
2811.84697	0.35438
2809.91841	0.34936
2807.98984	0.34442
2806.06128	0.33940
2804.13271	0.33421
2802.20415	0.32899
2800.27559	0.32408
2798.34702	0.31962
2796.41846	0.31527
2794.48989	0.31083
2792.56133	0.30649
2790.63276	0.30223
2788.70420	0.29796
2786.77563	0.29383
2784.84707	0.28981
2782.91851	0.28582
2780.98994	0.28196
2779.06138	0.27826
2777.13281	0.27458
2775.20425	0.27091
2773.27568	0.26727
2771.34712	0.26370
2769.41855	0.26022
2767.48999	0.25686
2765.56143	0.25356
2763.63286	0.25030
2761.70430	0.24721
2759.77573	0.24430
2757.84717	0.24147
2755.91860	0.23858
2753.99004	0.23559
2752.06147	0.23264
2750.13291	0.22980
2748.20435	0.22700
2746.27578	0.22419
2744.34722	0.22139
2742.41865	0.21872
2740.49009	0.21628
2738.56152	0.21403
2736.63296	0.21179
2734.70439	0.20947
2732.77583	0.20723
2730.84727	0.20517
2728.91870	0.20313
2726.99014	0.20100
2725.06157	0.19884
2723.13301	0.19687
2721.20444	0.19510
2719.27588	0.19327
2717.34731	0.19129
2715.41875	0.18930
2713.49019	0.18744
2711.56162	0.18568
2709.63306	0.18391
2707.70449	0.18222
2705.77593	0.18074
2703.84736	0.17927
2701.91880	0.17772
2699.99023	0.17624
2698.06167	0.17489
2696.13311	0.17355
2694.20454	0.17225
2692.27598	0.17106
2690.34741	0.16981
2688.41885	0.16846
2686.49028	0.16711
2684.56172	0.16581
2682.63315	0.16468
2680.70459	0.16374
2678.77603	0.16281
2676.84746	0.16181
2674.91890	0.16081
2672.99033	0.15984
2671.06177	0.15887
2669.13320	0.15791
2667.20464	0.15705
2665.27607	0.15627
2663.34751	0.15541
2661.41895	0.15453
2659.49038	0.15377
2657.56182	0.15313
2655.63325	0.15255
2653.70469	0.15193
2651.77612	0.15125
2649.84756	0.15063
2647.91899	0.15012
2645.99043	0.14965
2644.06187	0.14913
2642.13330	0.14859
2640.20474	0.14812
2638.27617	0.14755
2636.34761	0.14696
2634.41904	0.14655
2632.49048	0.14624
2630.56191	0.14594
2628.63335	0.14574
2626.70479	0.14556
2624.77622	0.14527
2622.84766	0.14496
2620.91909	0.14475
2618.99053	0.14452
2617.06196	0.14421
2615.13340	0.14403
2613.20483	0.14403
2611.27627	0.14406
2609.34771	0.14399
2607.41914	0.14392
2605.49058	0.14388
2603.56201	0.14389
2601.63345	0.14397
2599.70488	0.14401
2597.77632	0.14402
2595.84775	0.14418
2593.91919	0.14441
2591.99062	0.14448
2590.06206	0.14450
2588.13350	0.14482
2586.20493	0.14528
2584.27637	0.14562
2582.34780	0.14586
2580.41924	0.14607
2578.49067	0.14638
2576.56211	0.14680
2574.63354	0.14721
2572.70498	0.14755
2570.77642	0.14788
2568.84785	0.14816
2566.91929	0.14845
2564.99072	0.14886
2563.06216	0.14931
2561.13359	0.14976
2559.20503	0.15034
2557.27646	0.15101
2555.34790	0.15166
2553.41934	0.15220
2551.49077	0.15258
2549.56221	0.15300
2547.63364	0.15360
2545.70508	0.15431
2543.77651	0.15500
2541.84795	0.15566
2539.91938	0.15629
2537.99082	0.15694
2536.06226	0.15764
2534.13369	0.15828
2532.20513	0.15883
2530.27656	0.15958
2528.34800	0.16053
2526.41943	0.16142
2524.49087	0.16219
2522.56230	0.16284
2520.63374	0.16342
2518.70518	0.16414
2516.77661	0.16500
2514.84805	0.16586
2512.91948	0.16667
2510.99092	0.16746
2509.06235	0.16835
2507.13379	0.16931
2505.20522	0.17010
2503.27666	0.17085
2501.34810	0.17174
2499.41953	0.17261
2497.49097	0.17332
2495.56240	0.17407
2493.63384	0.17499
2491.70527	0.17596
2489.77671	0.17684
2487.84814	0.17763
2485.91958	0.17847
2483.99102	0.17940
2482.06245	0.18042
2480.13389	0.18148
2478.20532	0.18244
2476.27676	0.18327
2474.34819	0.18418
2472.41963	0.18527
2470.49106	0.18631
2468.56250	0.18719
2466.63394	0.18800
2464.70537	0.18883
2462.77681	0.18979
2460.84824	0.19081
2458.91968	0.19180
2456.99111	0.19290
2455.06255	0.19403
2453.13398	0.19499
2451.20542	0.19581
2449.27686	0.19668
2447.34829	0.19770
2445.41973	0.19882
2443.49116	0.19990
2441.56260	0.20086
2439.63403	0.20168
2437.70547	0.20253
2435.77690	0.20359
2433.84834	0.20480
2431.91978	0.20600
2429.99121	0.20715
2428.06265	0.20828
2426.13408	0.20934
2424.20552	0.21040
2422.27695	0.21151
2420.34839	0.21263
2418.41982	0.21375
2416.49126	0.21488
2414.56270	0.21611
2412.63413	0.21744
2410.70557	0.21864
2408.77700	0.21972
2406.84844	0.22088
2404.91987	0.22205
2402.99131	0.22320
2401.06274	0.22443
2399.13418	0.22567
2397.20562	0.22691
2395.27705	0.22811
2393.34849	0.22929
2391.41992	0.23053
2389.49136	0.23182
2387.56279	0.23321
2385.63423	0.23481
2383.70566	0.23665
2381.77710	0.23873
2379.84854	0.24108
2377.91997	0.24354
2375.99141	0.24595
2374.06284	0.24862
2372.13428	0.25172
2370.20571	0.25481
2368.27715	0.25775
2366.34858	0.26063
2364.42002	0.26303
2362.49146	0.26501
2360.56289	0.26674
2358.63433	0.26815
2356.70576	0.26966
2354.77720	0.27096
2352.84863	0.27164
2350.92007	0.27150
2348.99150	0.27103
2347.06294	0.27151
2345.13437	0.27389
2343.20581	0.27727
2341.27725	0.27954
2339.34868	0.28099
2337.42012	0.28258
2335.49155	0.28427
2333.56299	0.28566
2331.63442	0.28722
2329.70586	0.28888
2327.77729	0.29011
2325.84873	0.29108
2323.92017	0.29207
2321.99160	0.29331
2320.06304	0.29456
2318.13447	0.29533
2316.20591	0.29595
2314.27734	0.29702
2312.34878	0.29849
2310.42021	0.29989
2308.49165	0.30101
2306.56309	0.30209
2304.63452	0.30342
2302.70596	0.30498
2300.77739	0.30664
2298.84883	0.30836
2296.92026	0.31000
2294.99170	0.31159
2293.06313	0.31319
2291.13457	0.31474
2289.20601	0.31637
2287.27744	0.31813
2285.34888	0.31983
2283.42031	0.32150
2281.49175	0.32329
2279.56318	0.32533
2277.63462	0.32756
2275.70605	0.32978
2273.77749	0.33189
2271.84893	0.33399
2269.92036	0.33612
2267.99180	0.33815
2266.06323	0.34010
2264.13467	0.34217
2262.20610	0.34437
2260.27754	0.34659
2258.34897	0.34875
2256.42041	0.35086
2254.49185	0.35303
2252.56328	0.35518
2250.63472	0.35724
2248.70615	0.35920
2246.77759	0.36117
2244.84902	0.36336
2242.92046	0.36576
2240.99189	0.36808
2239.06333	0.37023
2237.13477	0.37240
2235.20620	0.37468
2233.27764	0.37693
2231.34907	0.37913
2229.42051	0.38136
2227.49194	0.38360
2225.56338	0.38574
2223.63481	0.38786
2221.70625	0.39013
2219.77769	0.39244
2217.84912	0.39460
2215.92056	0.39674
2213.99199	0.39892
2212.06343	0.40112
2210.13486	0.40334
2208.20630	0.40549
2206.27773	0.40752
2204.34917	0.40947
2202.42061	0.41144
2200.49204	0.41343
2198.56348	0.41540
2196.63491	0.41735
2194.70635	0.41941
2192.77778	0.42157
2190.84922	0.42346
2188.92065	0.42504
2186.99209	0.42673
2185.06353	0.42866
2183.13496	0.43051
2181.20640	0.43220
2179.27783	0.43382
2177.34927	0.43546
2175.42070	0.43708
2173.49214	0.43864
2171.56357	0.44016
2169.63501	0.44165
2167.70645	0.44304
2165.77788	0.44428
2163.84932	0.44539
2161.92075	0.44646
2159.99219	0.44754
2158.06362	0.44854
2156.13506	0.44944
2154.20649	0.45032
2152.27793	0.45122
2150.34937	0.45205
2148.42080	0.45272
2146.49224	0.45327
2144.56367	0.45381
2142.63511	0.45439
2140.70654	0.45486
2138.77798	0.45518
2136.84941	0.45539
2134.92085	0.45544
2132.99229	0.45544
2131.06372	0.45549
2129.13516	0.45538
2127.20659	0.45497
2125.27803	0.45452
2123.34946	0.45415
2121.42090	0.45371
2119.49233	0.45311
2117.56377	0.45237
2115.63521	0.45152
2113.70664	0.45071
2111.77808	0.44998
2109.84951	0.44921
2107.92095	0.44821
2105.99238	0.44700
2104.06382	0.44577
2102.13525	0.44448
2100.20669	0.44318
2098.27812	0.44189
2096.34956	0.44051
2094.42100	0.43896
2092.49243	0.43735
2090.56387	0.43571
2088.63530	0.43398
2086.70674	0.43219
2084.77817	0.43043
2082.84961	0.42862
2080.92104	0.42669
2078.99248	0.42470
2077.06392	0.42264
2075.13535	0.42047
2073.20679	0.41821
2071.27822	0.41590
2069.34966	0.41360
2067.42109	0.41127
2065.49253	0.40890
2063.56396	0.40651
2061.63540	0.40410
2059.70684	0.40168
2057.77827	0.39922
2055.84971	0.39671
2053.92114	0.39420
2051.99258	0.39167
2050.06401	0.38910
2048.13545	0.38649
2046.20688	0.38387
2044.27832	0.38123
2042.34976	0.37848
2040.42119	0.37560
2038.49263	0.37277
2036.56406	0.37012
2034.63550	0.36750
2032.70693	0.36476
2030.77837	0.36200
2028.84980	0.35926
2026.92124	0.35652
2024.99268	0.35376
2023.06411	0.35098
2021.13555	0.34814
2019.20698	0.34530
2017.27842	0.34258
2015.34985	0.33984
2013.42129	0.33707
2011.49272	0.33437
2009.56416	0.33171
2007.63560	0.32899
2005.70703	0.32615
2003.77847	0.32336
2001.84990	0.32074
1999.92134	0.31823
1997.99277	0.31567
1996.06421	0.31306
1994.13564	0.31056
1992.20708	0.30812
1990.27852	0.30560
1988.34995	0.30310
1986.42139	0.30062
1984.49282	0.29817
1982.56426	0.29583
1980.63569	0.29358
1978.70713	0.29133
1976.77856	0.28906
1974.85000	0.28676
1972.92144	0.28450
1970.99287	0.28244
1969.06431	0.28053
1967.13574	0.27856
1965.20718	0.27642
1963.27861	0.27430
1961.35005	0.27229
1959.42148	0.27036
1957.49292	0.26856
1955.56436	0.26683
1953.63579	0.26510
1951.70723	0.26336
1949.77866	0.26168
1947.85010	0.26005
1945.92153	0.25853
1943.99297	0.25717
1942.06440	0.25579
1940.13584	0.25423
1938.20728	0.25272
1936.27871	0.25141
1934.35015	0.25014
1932.42158	0.24882
1930.49302	0.24753
1928.56445	0.24636
1926.63589	0.24534
1924.70732	0.24443
1922.77876	0.24350
1920.85020	0.24254
1918.92163	0.24163
1916.99307	0.24075
1915.06450	0.23984
1913.13594	0.23897
1911.20737	0.23827
1909.27881	0.23764
1907.35024	0.23701
1905.42168	0.23633
1903.49312	0.23566
1901.56455	0.23501
1899.63599	0.23443
1897.70742	0.23400
1895.77886	0.23364
1893.85029	0.23329
1891.92173	0.23290
1889.99316	0.23260
1888.06460	0.23232
1886.13604	0.23200
1884.20747	0.23177
1882.27891	0.23163
1880.35034	0.23156
1878.42178	0.23156
1876.49321	0.23163
1874.56465	0.23165
1872.63608	0.23168
1870.70752	0.23185
1868.77896	0.23231
1866.85039	0.23267
1864.92183	0.23270
1862.99326	0.23273
1861.06470	0.23288
1859.13613	0.23319
1857.20757	0.23352
1855.27900	0.23391
1853.35044	0.23436
1851.42187	0.23492
1849.49331	0.23555
1847.56475	0.23628
1845.63618	0.23716
1843.70762	0.23815
1841.77905	0.23887
1839.85049	0.23929
1837.92192	0.24000
1835.99336	0.24091
1834.06479	0.24183
1832.13623	0.24275
1830.20767	0.24413
1828.27910	0.24573
1826.35054	0.24685
1824.42197	0.24803
1822.49341	0.24927
1820.56484	0.25054
1818.63628	0.25193
1816.70771	0.25351
1814.77915	0.25512
1812.85059	0.25686
1810.92202	0.25894
1808.99346	0.26111
1807.06489	0.26306
1805.13633	0.26492
1803.20776	0.26707
1801.27920	0.26961
1799.35063	0.27252
1797.42207	0.27507
1795.49351	0.27735
1793.56494	0.27999
1791.63638	0.28356
1789.70781	0.28721
1787.77925	0.28996
1785.85068	0.29306
1783.92212	0.29670
1781.99355	0.30058
1780.06499	0.30468
1778.13643	0.30899
1776.20786	0.31301
1774.27930	0.31711
1772.35073	0.32266
1770.42217	0.32904
1768.49360	0.33458
1766.56504	0.33985
1764.63647	0.34522
1762.70791	0.35098
1760.77935	0.35820
1758.85078	0.36502
1756.92222	0.37193
1754.99365	0.37948
1753.06509	0.38617
1751.13652	0.39399
1749.20796	0.40407
1747.27939	0.41436
1745.35083	0.42365
1743.42227	0.43360
1741.49370	0.44440
1739.56514	0.45690
1737.63657	0.46944
1735.70801	0.48039
1733.77944	0.49685
1731.85088	0.51688
1729.92231	0.53286
1727.99375	0.54887
1726.06519	0.56603
1724.13662	0.58482
1722.20806	0.60498
1720.27949	0.62324
1718.35093	0.64444
1716.42236	0.67633
1714.49380	0.70714
1712.56523	0.73205
1710.63667	0.75607
1708.70811	0.78169
1706.77954	0.81059
1704.85098	0.84537
1702.92241	0.87655
1700.99385	0.90702
1699.06528	0.95272
1697.13672	0.99519
1695.20815	1.03863
1693.27959	1.08065
1691.35103	1.11412
1689.42246	1.15251
1687.49390	1.19282
1685.56533	1.23097
1683.63677	1.29014
1681.70820	1.35295
1679.77964	1.39314
1677.85107	1.43095
1675.92251	1.47465
1673.99395	1.52901
1672.06538	1.57694
1670.13682	1.62361
1668.20825	1.68443
1666.27969	1.73349
1664.35112	1.77520
1662.42256	1.82798
1660.49399	1.88685
1658.56543	1.93229
1656.63687	1.96991
1654.70830	2.00527
1652.77974	2.05929
1650.85117	2.11001
1648.92261	2.12953
1646.99404	2.15641
1645.06548	2.18746
1643.13691	2.20671
1641.20835	2.21719
1639.27979	2.22709
1637.35122	2.23417
1635.42266	2.23517
1633.49409	2.22885
1631.56553	2.21673
1629.63696	2.20092
1627.70840	2.17438
1625.77983	2.14342
1623.85127	2.10458
1621.92271	2.05711
1619.99414	2.01475
1618.06558	1.97230
1616.13701	1.91098
1614.20845	1.84946
1612.27988	1.80282
1610.35132	1.75304
1608.42275	1.69840
1606.49419	1.64425
1604.56562	1.59406
1602.63706	1.54574
1600.70850	1.49878
1598.77993	1.45560
1596.85137	1.41518
1594.92280	1.37595
1592.99424	1.33798
1591.06567	1.30311
1589.13711	1.27026
1587.20854	1.23969
1585.27998	1.21152
1583.35142	1.18487
1581.42285	1.16009
1579.49429	1.13872
1577.56572	1.11943
1575.63716	1.09600
1573.70859	1.07542
1571.78003	1.06176
1569.85146	1.04732
1567.92290	1.03154
1565.99434	1.01939
1564.06577	1.00918
1562.13721	1.00080
1560.20864	0.99439
1558.28008	0.98470
1556.35151	0.97642
1554.42295	0.97169
1552.49438	0.96681
1550.56582	0.96117
1548.63726	0.95418
1546.70869	0.94653
1544.78013	0.93793
1542.85156	0.92799
1540.92300	0.91502
1538.99443	0.89521
1537.06587	0.88036
1535.13730	0.87044
1533.20874	0.85785
1531.28018	0.84425
1529.35161	0.83396
1527.42305	0.82404
1525.49448	0.81375
1523.56592	0.80493
1521.63735	0.79636
1519.70879	0.78759
1517.78022	0.78028
1515.85166	0.77218
1513.92310	0.76388
1511.99453	0.75671
1510.06597	0.75017
1508.13740	0.74376
1506.20884	0.73397
1504.28027	0.72548
1502.35171	0.72060
1500.42314	0.71625
1498.49458	0.71148
1496.56602	0.70580
1494.63745	0.70018
1492.70889	0.69575
1490.78032	0.69169
1488.85176	0.68713
1486.92319	0.68282
1484.99463	0.67913
1483.06606	0.67594
1481.13750	0.67305
1479.20894	0.67053
1477.28037	0.66858
1475.35181	0.66691
1473.42324	0.66508
1471.49468	0.66239
1469.56611	0.65952
1467.63755	0.65698
1465.70898	0.65461
1463.78042	0.65245
1461.85186	0.65089
1459.92329	0.64991
1457.99473	0.64921
1456.06616	0.64821
1454.13760	0.64631
1452.20903	0.64420
1450.28047	0.64214
1448.35190	0.64018
1446.42334	0.63809
1444.49478	0.63595
1442.56621	0.63393
1440.63765	0.63200
1438.70908	0.63018
1436.78052	0.62793
1434.85195	0.62527
1432.92339	0.62312
1430.99482	0.62164
1429.06626	0.62066
1427.13770	0.61998
1425.20913	0.61943
1423.28057	0.61887
1421.35200	0.61812
1419.42344	0.61740
1417.49487	0.61662
1415.56631	0.61558
1413.63774	0.61473
1411.70918	0.61410
1409.78062	0.61354
1407.85205	0.61314
1405.92349	0.61302
1403.99492	0.61294
1402.06636	0.61245
1400.13779	0.61167
1398.20923	0.61050
1396.28066	0.60865
1394.35210	0.60622
1392.42354	0.60357
1390.49497	0.60092
1388.56641	0.59823
1386.63784	0.59530
1384.70928	0.59228
1382.78071	0.58947
1380.85215	0.58690
1378.92358	0.58472
1376.99502	0.58300
1375.06646	0.58159
1373.13789	0.58028
1371.20933	0.57918
1369.28076	0.57826
1367.35220	0.57728
1365.42363	0.57618
1363.49507	0.57512
1361.56650	0.57405
1359.63794	0.57275
1357.70937	0.57143
1355.78081	0.57035
1353.85225	0.56947
1351.92368	0.56862
1349.99512	0.56780
1348.06655	0.56704
1346.13799	0.56622
1344.20942	0.56540
1342.28086	0.56466
1340.35229	0.56405
1338.42373	0.56337
1336.49517	0.56252
1334.56660	0.56186
1332.63804	0.56146
1330.70947	0.56110
1328.78091	0.56081
1326.85234	0.56066
1324.92378	0.56055
1322.99521	0.56051
1321.06665	0.56048
1319.13809	0.56029
1317.20952	0.55982
1315.28096	0.55923
1313.35239	0.55872
1311.42383	0.55823
1309.49526	0.55761
1307.56670	0.55693
1305.63813	0.55627
1303.70957	0.55551
1301.78101	0.55468
1299.85244	0.55389
1297.92388	0.55304
1295.99531	0.55198
1294.06675	0.55089
1292.13818	0.54996
1290.20962	0.54903
1288.28105	0.54810
1286.35249	0.54728
1284.42393	0.54662
1282.49536	0.54596
1280.56680	0.54512
1278.63823	0.54414
1276.70967	0.54323
1274.78110	0.54250
1272.85254	0.54185
1270.92397	0.54118
1268.99541	0.54059
1267.06685	0.54009
1265.13828	0.53959
1263.20972	0.53903
1261.28115	0.53845
1259.35259	0.53798
1257.42402	0.53751
1255.49546	0.53697
1253.56689	0.53655
1251.63833	0.53634
1249.70977	0.53624
1247.78120	0.53621
1245.85264	0.53626
1243.92407	0.53621
1241.99551	0.53577
1240.06694	0.53488
1238.13838	0.53367
1236.20981	0.53238
1234.28125	0.53110
1232.35269	0.52982
1230.42412	0.52858
1228.49556	0.52745
1226.56699	0.52640
1224.63843	0.52532
1222.70986	0.52419
1220.78130	0.52308
1218.85273	0.52208
1216.92417	0.52123
1214.99561	0.52048
1213.06704	0.51974
1211.13848	0.51908
1209.20991	0.51858
1207.28135	0.51806
1205.35278	0.51738
1203.42422	0.51668
1201.49565	0.51600
1199.56709	0.51521
1197.63853	0.51442
1195.70996	0.51387
1193.78140	0.51349
1191.85283	0.51303
1189.92427	0.51255
1187.99570	0.51221
1186.06714	0.51209
1184.13857	0.51216
1182.21001	0.51237
1180.28145	0.51265
1178.35288	0.51308
1176.42432	0.51382
1174.49575	0.51470
1172.56719	0.51534
1170.63862	0.51570
1168.71006	0.51591
1166.78149	0.51595
1164.85293	0.51580
1162.92437	0.51553
1160.99580	0.51525
1159.06724	0.51507
1157.13867	0.51478
1155.21011	0.51408
1153.28154	0.51292
1151.35298	0.51129
1149.42441	0.50926
1147.49585	0.50699
1145.56729	0.50453
1143.63872	0.50212
1141.71016	0.49998
1139.78159	0.49799
1137.85303	0.49620
1135.92446	0.49477
1133.99590	0.49360
1132.06733	0.49264
1130.13877	0.49171
1128.21021	0.49053
1126.28164	0.48914
1124.35308	0.48793
1122.42451	0.48716
1120.49595	0.48650
1118.56738	0.48587
1116.63882	0.48566
1114.71025	0.48574
1112.78169	0.48589
1110.85312	0.48628
1108.92456	0.48709
1106.99600	0.48828
1105.06743	0.48955
1103.13887	0.49074
1101.21030	0.49207
1099.28174	0.49394
1097.35317	0.49652
1095.42461	0.49965
1093.49604	0.50332
1091.56748	0.50774
1089.63892	0.51292
1087.71035	0.51868
1085.78179	0.52492
1083.85322	0.53150
1081.92466	0.53812
1079.99609	0.54402
1078.06753	0.54803
1076.13896	0.54938
1074.21040	0.54784
1072.28184	0.54351
1070.35327	0.53719
1068.42471	0.53026
1066.49614	0.52368
1064.56758	0.51755
1062.63901	0.51160
1060.71045	0.50598
1058.78188	0.50114
1056.85332	0.49711
1054.92476	0.49367
1052.99619	0.49080
1051.06763	0.48834
1049.13906	0.48596
1047.21050	0.48382
1045.28193	0.48239
1043.35337	0.48159
1041.42480	0.48092
1039.49624	0.48013
1037.56768	0.47940
1035.63911	0.47885
1033.71055	0.47841
1031.78198	0.47817
1029.85342	0.47819
1027.92485	0.47819
1025.99629	0.47799
1024.06772	0.47780
1022.13916	0.47789
1020.21060	0.47843
1018.28203	0.47928
1016.35347	0.48007
1014.42490	0.48079
1012.49634	0.48174
1010.56777	0.48296
1008.63921	0.48426
1006.71064	0.48574
1004.78208	0.48756
1002.85352	0.48991
1000.92495	0.49286
998.99639	0.49616
997.06782	0.49980
995.13926	0.50380
993.21069	0.50767
991.28213	0.51108
989.35356	0.51372
987.42500	0.51527
985.49644	0.51611
983.56787	0.51686
981.63931	0.51790
979.71074	0.51937
977.78218	0.52123
975.85361	0.52345
973.92505	0.52602
971.99648	0.52884
970.06792	0.53191
968.13936	0.53550
966.21079	0.53966
964.28223	0.54436
962.35366	0.54957
960.42510	0.55503
958.49653	0.56049
956.56797	0.56606
954.63940	0.57185
952.71084	0.57781
950.78228	0.58421
948.85371	0.59112
946.92515	0.59783
944.99658	0.60409
943.06802	0.61016
941.13945	0.61577
939.21089	0.62089
937.28232	0.62644
935.35376	0.63279
933.42520	0.63920
931.49663	0.64482
929.56807	0.64992
927.63950	0.65566
925.71094	0.66207
923.78237	0.66804
921.85381	0.67346
919.92524	0.67967
917.99668	0.68702
916.06812	0.69465
914.13955	0.70229
912.21099	0.71030
910.28242	0.71879
908.35386	0.72689
906.42529	0.73434
904.49673	0.74249
902.56816	0.75204
900.63960	0.76217
898.71104	0.77218
896.78247	0.78260
894.85391	0.79341
892.92534	0.80366
890.99678	0.81393
889.06821	0.82507
887.13965	0.83626
885.21108	0.84751
883.28252	0.85898
881.35396	0.86983
879.42539	0.88073
877.49683	0.89180
875.56826	0.90200
873.63970	0.91182
871.71113	0.92304
869.78257	0.93595
867.85400	0.94883
865.92544	0.96059
863.99687	0.97215
862.06831	0.98412
860.13975	0.99495
858.21118	1.00485
856.28262	1.01609
854.35405	1.02842
852.42549	1.03981
850.49692	1.05087
848.56836	1.06352
846.63979	1.07704
844.71123	1.08953
842.78267	1.10011
840.85410	1.11050
838.92554	1.12222
836.99697	1.13413
835.06841	1.14580
833.13984	1.15650
831.21128	1.16425
829.28271	1.17323
827.35415	1.18931
825.42559	1.20433
823.49702	1.21206
821.56846	1.22322
819.63989	1.23960
817.71133	1.24997
815.78276	1.25788
813.85420	1.27071
811.92563	1.28436
809.99707	1.29925
808.06851	1.31285
806.13994	1.32990
804.21138	1.35493
802.28281	1.36986
800.35425	1.36921
798.42568	1.37075
796.49712	1.38737
794.56855	1.39754
792.63999	1.38855
790.71143	1.38432
788.78286	1.38579
786.85430	1.41506
784.92573	1.48628
782.99717	1.50113
781.06860	1.46131
779.14004	1.52706
777.21147	1.74854
775.28291	1.82467
773.35435	1.64819
771.42578	1.60169
769.49722	1.58569
767.56865	1.48637
765.64009	1.43752
763.71152	1.47517
761.78296	1.49206
759.85439	1.42498
757.92583	1.27230
755.99727	1.10608
754.06870	1.02397
752.14014	1.00667
750.21157	1.02653
748.28301	1.10172
746.35444	1.22314
744.42588	1.22627
742.49731	1.08595
740.56875	0.94921
738.64019	0.86452
736.71162	0.81784
734.78306	0.75455
732.85449	0.62569
730.92593	0.47348
728.99736	0.33509
727.06880	0.19861
725.14023	0.05355
723.21167	-0.08266
721.28311	-0.18183
719.35454	-0.12767
717.42598	-0.02002
715.49741	-0.02133
713.56885	0.01122
711.64028	0.12135
709.71172	0.18506
707.78315	0.23610
705.85459	0.30272
703.92603	0.31717
701.99746	0.29016
700.06890	0.29853
698.14033	0.33907
696.21177	0.35719
694.28320	0.36986
692.35464	0.39863
690.42607	0.40912
688.49751	0.44212
686.56895	0.48720
684.64038	0.41299
682.71182	0.30463
680.78325	0.22636
678.85469	0.17925
676.92612	0.19424
674.99756	0.25035
673.06899	0.30445
671.14043	0.33001
669.21187	0.30876
667.28330	0.25568
665.35474	0.24141
663.42617	0.28483
661.49761	0.31742
659.56904	0.34664
657.64048	0.40347
655.71191	0.41728
653.78335	0.37374
651.85479	0.35544
649.92622	0.36096
647.99766	0.33961
646.06909	0.31039
644.14053	0.31025
642.21196	0.31430
640.28340	0.31247
638.35483	0.30653
636.42627	0.32098
634.49771	0.38464
632.56914	0.43015
630.64058	0.37452
628.71201	0.32638
626.78345	0.35274
624.85488	0.39296
622.92632	0.39201
620.99775	0.36507
619.06919	0.32097
617.14062	0.26803
615.21206	0.27093
613.28350	0.35949
611.35493	0.47639
609.42637	0.49396
607.49780	0.45369
605.56924	0.44164
603.64067	0.44798
601.71211	0.44883
599.78354	0.42269
597.85498	0.37498
595.92642	0.34391
593.99785	0.34091
592.06929	0.34468
590.14072	0.35827
588.21216	0.38827
586.28359	0.39486
584.35503	0.34608
582.42646	0.26867
580.49790	0.23233
578.56934	0.24836
576.64077	0.27527
574.71221	0.30853
572.78364	0.37152
570.85508	0.40892
568.92651	0.36638
566.99795	0.33611
565.06938	0.31534
563.14082	0.27164
561.21226	0.24147
559.28369	0.22792
557.35513	0.23545
555.42656	0.26115
553.49800	0.27849
551.56943	0.28318
549.64087	0.27205
547.71230	0.25606
545.78374	0.25681
543.85518	0.25528
541.92661	0.24486
539.99805	0.24079
538.06948	0.22404
536.14092	0.19112
534.21235	0.17720
532.28379	0.21360
530.35522	0.30811
528.42666	0.38065
526.49810	0.35928
524.56953	0.32181
522.64097	0.26386
520.71240	0.20828
518.78384	0.20329
516.85527	0.20498
514.92671	0.18057
512.99814	0.19200
511.06958	0.23924
509.14102	0.26417
507.21245	0.28846
505.28389	0.32290
503.35532	0.29970
501.42676	0.25325
499.49819	0.23073
