3997.91411	0.06736
3995.98555	0.06768
3994.05698	0.06785
3992.12842	0.06814
3990.19985	0.06868
3988.27129	0.06886
3986.34272	0.06856
3984.41416	0.06855
3982.48560	0.06883
3980.55703	0.06906
3978.62847	0.06941
3976.69990	0.06996
3974.77134	0.07047
3972.84277	0.07100
3970.91421	0.07142
3968.98564	0.07141
3967.05708	0.07122
3965.12852	0.07119
3963.19995	0.07111
3961.27139	0.07098
3959.34282	0.07122
3957.41426	0.07202
3955.48569	0.07288
3953.55713	0.07322
3951.62856	0.07336
3949.70000	0.07375
3947.77144	0.07396
3945.84287	0.07377
3943.91431	0.07393
3941.98574	0.07428
3940.05718	0.07375
3938.12861	0.07285
3936.20005	0.07249
3934.27148	0.07279
3932.34292	0.07391
3930.41436	0.07501
3928.48579	0.07466
3926.55723	0.07351
3924.62866	0.07311
3922.70010	0.07314
3920.77153	0.07301
3918.84297	0.07342
3916.91440	0.07410
3914.98584	0.07369
3913.05728	0.07230
3911.12871	0.07120
3909.20015	0.07112
3907.27158	0.07224
3905.34302	0.07437
3903.41445	0.07670
3901.48589	0.07785
3899.55732	0.07747
3897.62876	0.07585
3895.70020	0.07391
3893.77163	0.07324
3891.84307	0.07417
3889.91450	0.07506
3887.98594	0.07465
3886.05737	0.07468
3884.12881	0.07582
3882.20024	0.07649
3880.27168	0.07638
3878.34312	0.07527
3876.41455	0.07398
3874.48599	0.07452
3872.55742	0.07669
3870.62886	0.07899
3868.70029	0.08020
3866.77173	0.07979
3864.84316	0.07997
3862.91460	0.08068
3860.98604	0.07944
3859.05747	0.07771
3857.12891	0.07785
3855.20034	0.08016
3853.27178	0.08456
3851.34321	0.08643
3849.41465	0.08290
3847.48608	0.07991
3845.55752	0.07936
3843.62896	0.08071
3841.70039	0.08320
3839.77183	0.08610
3837.84326	0.08825
3835.91470	0.08803
3833.98613	0.08658
3832.05757	0.08597
3830.12900	0.08609
3828.20044	0.08632
3826.27187	0.08703
3824.34331	0.08823
3822.41475	0.09023
3820.48618	0.09339
3818.55762	0.09479
3816.62905	0.09451
3814.70049	0.09438
3812.77192	0.09314
3810.84336	0.09179
3808.91479	0.09235
3806.98623	0.09532
3805.05767	0.09840
3803.12910	0.09999
3801.20054	0.10196
3799.27197	0.10320
3797.34341	0.10311
3795.41484	0.10317
3793.48628	0.10254
3791.55771	0.10194
3789.62915	0.10259
3787.70059	0.10420
3785.77202	0.10654
3783.84346	0.10885
3781.91489	0.11022
3779.98633	0.11186
3778.05776	0.11396
3776.12920	0.11458
3774.20063	0.11488
3772.27207	0.11674
3770.34351	0.12017
3768.41494	0.12370
3766.48638	0.12583
3764.55781	0.12711
3762.62925	0.12809
3760.70068	0.13025
3758.77212	0.13426
3756.84355	0.13758
3754.91499	0.13946
3752.98643	0.14280
3751.05786	0.14921
3749.12930	0.15537
3747.20073	0.15756
3745.27217	0.15936
3743.34360	0.16278
3741.41504	0.16592
3739.48647	0.16873
3737.55791	0.17329
3735.62935	0.18080
3733.70078	0.18866
3731.77222	0.19261
3729.84365	0.19472
3727.91509	0.19790
3725.98652	0.20349
3724.05796	0.21051
3722.12939	0.21664
3720.20083	0.22181
3718.27227	0.22684
3716.34370	0.23217
3714.41514	0.23870
3712.48657	0.24927
3710.55801	0.26556
3708.62944	0.28080
3706.70088	0.29107
3704.77231	0.30101
3702.84375	0.31368
3700.91519	0.33019
3698.98662	0.34777
3697.05806	0.36445
3695.12949	0.38258
3693.20093	0.40260
3691.27236	0.42532
3689.34380	0.45439
3687.41523	0.48777
3685.48667	0.51573
3683.55811	0.54021
3681.62954	0.56731
3679.70098	0.59877
3677.77241	0.63324
3675.84385	0.67498
3673.91528	0.72867
3671.98672	0.77003
3670.05815	0.80712
3668.12959	0.85885
3666.20103	0.90532
3664.27246	0.94440
3662.34390	0.98723
3660.41533	1.03385
3658.48677	1.08002
3656.55820	1.12943
3654.62964	1.18470
3652.70107	1.23136
3650.77251	1.27273
3648.84395	1.33095
3646.91538	1.40051
3644.98682	1.44828
3643.05825	1.48443
3641.12969	1.52342
3639.20112	1.56781
3637.27256	1.61231
3635.34399	1.65528
3633.41543	1.69871
3631.48687	1.74011
3629.55830	1.78285
3627.62974	1.83855
3625.70117	1.88914
3623.77261	1.92228
3621.84404	1.95390
3619.91548	1.99087
3617.98691	2.03610
3616.05835	2.07865
3614.12979	2.11373
3612.20122	2.15236
3610.27266	2.19313
3608.34409	2.23494
3606.41553	2.27829
3604.48696	2.31677
3602.55840	2.35097
3600.62983	2.38901
3598.70127	2.43056
3596.77271	2.47107
3594.84414	2.51345
3592.91558	2.55706
3590.98701	2.59569
3589.05845	2.63093
3587.12988	2.67412
3585.20132	2.72151
3583.27275	2.76069
3581.34419	2.79640
3579.41562	2.83499
3577.48706	2.87726
3575.55850	2.92098
3573.62993	2.96506
3571.70137	3.00670
3569.77280	3.04589
3567.84424	3.08894
3565.91567	3.14273
3563.98711	3.19448
3562.05854	3.23626
3560.12998	3.27683
3558.20142	3.31914
3556.27285	3.36172
3554.34429	3.40411
3552.41572	3.45074
3550.48716	3.49962
3548.55859	3.54577
3546.63003	3.59152
3544.70146	3.63949
3542.77290	3.68680
3540.84434	3.73254
3538.91577	3.77877
3536.98721	3.82548
3535.05864	3.87418
3533.13008	3.92257
3531.20151	3.96971
3529.27295	4.01838
3527.34438	4.06805
3525.41582	4.11517
3523.48726	4.16126
3521.55869	4.20915
3519.63013	4.25587
3517.70156	4.30195
3515.77300	4.34872
3513.84443	4.39598
3511.91587	4.44607
3509.98730	4.50011
3508.05874	4.55320
3506.13018	4.60131
3504.20161	4.64534
3502.27305	4.68881
3500.34448	4.73561
3498.41592	4.78380
3496.48735	4.83298
3494.55879	4.88504
3492.63022	4.93485
3490.70166	4.97793
3488.77310	5.01849
3486.84453	5.06095
3484.91597	5.11107
3482.98740	5.16747
3481.05884	5.22085
3479.13027	5.27338
3477.20171	5.32358
3475.27314	5.36331
3473.34458	5.40274
3471.41602	5.45111
3469.48745	5.50143
3467.55889	5.54844
3465.63032	5.59187
3463.70176	5.63734
3461.77319	5.68763
3459.84463	5.74158
3457.91606	5.80118
3455.98750	5.86039
3454.05894	5.90274
3452.13037	5.93384
3450.20181	5.97799
3448.27324	6.04620
3446.34468	6.13130
3444.41611	6.19295
3442.48755	6.22126
3440.55898	6.25121
3438.63042	6.29021
3436.70186	6.32302
3434.77329	6.34776
3432.84473	6.38072
3430.91616	6.43719
3428.98760	6.51326
3427.05903	6.59104
3425.13047	6.66438
3423.20190	6.70802
3421.27334	6.71868
3419.34478	6.73416
3417.41621	6.76422
3415.48765	6.80987
3413.55908	6.87881
3411.63052	6.95764
3409.70195	7.02299
3407.77339	7.07968
3405.84482	7.12636
3403.91626	7.15435
3401.98770	7.16056
3400.05913	7.17345
3398.13057	7.20184
3396.20200	7.22038
3394.27344	7.25835
3392.34487	7.31071
3390.41631	7.34853
3388.48774	7.39491
3386.55918	7.48097
3384.63062	7.55653
3382.70205	7.57063
3380.77349	7.58945
3378.84492	7.63795
3376.91636	7.67675
3374.98779	7.71186
3373.05923	7.74829
3371.13066	7.75841
3369.20210	7.75327
3367.27354	7.72496
3365.34497	7.72657
3363.41641	7.80459
3361.48784	7.86878
3359.55928	7.86960
3357.63071	7.84382
3355.70215	7.82890
3353.77358	7.82999
3351.84502	7.86356
3349.91646	7.91628
3347.98789	7.94955
3346.05933	7.95593
3344.13076	7.95318
3342.20220	7.95386
3340.27363	7.93118
3338.34507	7.89577
3336.41650	7.89620
3334.48794	7.94590
3332.55937	7.96833
3330.63081	7.95797
3328.70225	7.95446
3326.77368	7.94236
3324.84512	7.97122
3322.91655	8.07272
3320.98799	8.16082
3319.05942	8.16550
3317.13086	8.15120
3315.20229	8.13123
3313.27373	8.08354
3311.34517	8.01665
3309.41660	7.98905
3307.48804	8.00949
3305.55947	8.00185
3303.63091	8.02835
3301.70234	8.07534
3299.77378	8.03052
3297.84521	7.96486
3295.91665	7.94595
3293.98809	7.92468
3292.05952	7.91128
3290.13096	7.95001
3288.20239	7.99461
3286.27383	7.98498
3284.34526	7.96972
3282.41670	8.02320
3280.48813	8.08525
3278.55957	8.06462
3276.63101	8.01291
3274.70244	8.03334
3272.77388	8.07444
3270.84531	8.06004
3268.91675	8.07113
3266.98818	8.12133
3265.05962	8.13598
3263.13105	8.11818
3261.20249	8.11794
3259.27393	8.12101
3257.34536	8.16145
3255.41680	8.23205
3253.48823	8.20146
3251.55967	8.11528
3249.63110	8.09132
3247.70254	8.14481
3245.77397	8.27379
3243.84541	8.38096
3241.91685	8.33829
3239.98828	8.28472
3238.05972	8.30126
3236.13115	8.27287
3234.20259	8.17934
3232.27402	8.10693
3230.34546	8.09584
3228.41689	8.05926
3226.48833	7.97421
3224.55977	7.91176
3222.63120	7.84655
3220.70264	7.80309
3218.77407	7.84598
3216.84551	7.89401
3214.91694	7.85626
3212.98838	7.80224
3211.05981	7.80953
3209.13125	7.84288
3207.20269	7.86242
3205.27412	7.87057
3203.34556	7.86103
3201.41699	7.84118
3199.48843	7.78942
3197.55986	7.70768
3195.63130	7.63240
3193.70273	7.56793
3191.77417	7.53278
3189.84561	7.51203
3187.91704	7.44421
3185.98848	7.37341
3184.05991	7.34704
3182.13135	7.29717
3180.20278	7.22853
3178.27422	7.18784
3176.34565	7.14685
3174.41709	7.08337
3172.48853	7.02390
3170.55996	6.99774
3168.63140	6.98725
3166.70283	6.96433
3164.77427	6.92247
3162.84570	6.85736
3160.91714	6.76057
3158.98857	6.64847
3157.06001	6.56170
3155.13145	6.50987
3153.20288	6.47460
3151.27432	6.43725
3149.34575	6.37939
3147.41719	6.30030
3145.48862	6.21770
3143.56006	6.14309
3141.63149	6.07711
3139.70293	6.01062
3137.77437	5.93696
3135.84580	5.86322
3133.91724	5.79527
3131.98867	5.72838
3130.06011	5.65530
3128.13154	5.57756
3126.20298	5.50802
3124.27441	5.44685
3122.34585	5.37879
3120.41729	5.30471
3118.48872	5.22843
3116.56016	5.14781
3114.63159	5.06963
3112.70303	4.99592
3110.77446	4.92388
3108.84590	4.85782
3106.91733	4.79918
3104.98877	4.73978
3103.06021	4.67417
3101.13164	4.60514
3099.20308	4.53628
3097.27451	4.46846
3095.34595	4.40328
3093.41738	4.34222
3091.48882	4.28125
3089.56025	4.21532
3087.63169	4.14806
3085.70312	4.08560
3083.77456	4.02377
3081.84600	3.95910
3079.91743	3.89675
3077.98887	3.83669
3076.06030	3.77550
3074.13174	3.71596
3072.20317	3.65858
3070.27461	3.59981
3068.34604	3.54073
3066.41748	3.48323
3064.48892	3.42663
3062.56035	3.37101
3060.63179	3.31650
3058.70322	3.26292
3056.77466	3.20989
3054.84609	3.15700
3052.91753	3.10445
3050.98896	3.05233
3049.06040	3.00039
3047.13184	2.94882
3045.20327	2.89785
3043.27471	2.84796
3041.34614	2.80024
3039.41758	2.75430
3037.48901	2.70815
3035.56045	2.66207
3033.63188	2.61704
3031.70332	2.57167
3029.77476	2.52589
3027.84619	2.48149
3025.91763	2.43842
3023.98906	2.39610
3022.06050	2.35440
3020.13193	2.31313
3018.20337	2.27245
3016.27480	2.23221
3014.34624	2.19263
3012.41768	2.15383
3010.48911	2.11520
3008.56055	2.07751
3006.63198	2.04168
3004.70342	2.00675
3002.77485	1.97180
3000.84629	1.93700
2998.91772	1.90224
2996.98916	1.86798
2995.06060	1.83513
2993.13203	1.80351
2991.20347	1.77254
2989.27490	1.74215
2987.34634	1.71229
2985.41777	1.68272
2983.48921	1.65337
2981.56064	1.62454
2979.63208	1.59643
2977.70352	1.56868
2975.77495	1.54135
2973.84639	1.51463
2971.91782	1.48805
2969.98926	1.46194
2968.06069	1.43677
2966.13213	1.41190
2964.20356	1.38711
2962.27500	1.36280
2960.34644	1.33888
2958.41787	1.31500
2956.48931	1.29115
2954.56074	1.26762
2952.63218	1.24450
2950.70361	1.22170
2948.77505	1.19959
2946.84648	1.17831
2944.91792	1.15742
2942.98936	1.13662
2941.06079	1.11611
2939.13223	1.09586
2937.20366	1.07555
2935.27510	1.05518
2933.34653	1.03534
2931.41797	1.01632
2929.48940	0.99752
2927.56084	0.97867
2925.63228	0.96034
2923.70371	0.94303
2921.77515	0.92654
2919.84658	0.91044
2917.91802	0.89435
2915.98945	0.87829
2914.06089	0.86270
2912.13232	0.84756
2910.20376	0.83263
2908.27520	0.81807
2906.34663	0.80402
2904.41807	0.79040
2902.48950	0.77717
2900.56094	0.76404
2898.63237	0.75094
2896.70381	0.73804
2894.77524	0.72564
2892.84668	0.71388
2890.91812	0.70230
2888.98955	0.69064
2887.06099	0.67950
2885.13242	0.66890
2883.20386	0.65821
2881.27529	0.64750
2879.34673	0.63713
2877.41816	0.62716
2875.48960	0.61745
2873.56104	0.60755
2871.63247	0.59721
2869.70391	0.58656
2867.77534	0.57592
2865.84678	0.56550
2863.91821	0.55498
2861.98965	0.54413
2860.06108	0.53340
2858.13252	0.52327
2856.20396	0.51378
2854.27539	0.50508
2852.34683	0.49717
2850.41826	0.48954
2848.48970	0.48187
2846.56113	0.47422
2844.63257	0.46685
2842.70400	0.46005
2840.77544	0.45374
2838.84687	0.44762
2836.91831	0.44146
2834.98975	0.43531
2833.06118	0.42927
2831.13262	0.42343
2829.20405	0.41764
2827.27549	0.41172
2825.34692	0.40561
2823.41836	0.39950
2821.48979	0.39369
2819.56123	0.38807
2817.63267	0.38233
2815.70410	0.37668
2813.77554	0.37136
2811.84697	0.36609
2809.91841	0.36074
2807.98984	0.35546
2806.06128	0.35018
2804.13271	0.34499
2802.20415	0.34020
2800.27559	0.33570
2798.34702	0.33109
2796.41846	0.32628
2794.48989	0.32153
2792.56133	0.31700
2790.63276	0.31259
2788.70420	0.30833
2786.77563	0.30432
2784.84707	0.30044
2782.91851	0.29642
2780.98994	0.29222
2779.06138	0.28817
2777.13281	0.28443
2775.20425	0.28074
2773.27568	0.27699
2771.34712	0.27331
2769.41855	0.26968
2767.48999	0.26615
2765.56143	0.26288
2763.63286	0.25984
2761.70430	0.25676
2759.77573	0.25357
2757.84717	0.25038
2755.91860	0.24724
2753.99004	0.24420
2752.06147	0.24125
2750.13291	0.23833
2748.20435	0.23555
2746.27578	0.23296
2744.34722	0.23041
2742.41865	0.22782
2740.49009	0.22534
2738.56152	0.22292
2736.63296	0.22055
2734.70439	0.21820
2732.77583	0.21583
2730.84727	0.21350
2728.91870	0.21127
2726.99014	0.20916
2725.06157	0.20709
2723.13301	0.20501
2721.20444	0.20297
2719.27588	0.20101
2717.34731	0.19918
2715.41875	0.19733
2713.49019	0.19536
2711.56162	0.19353
2709.63306	0.19195
2707.70449	0.19030
2705.77593	0.18856
2703.84736	0.18697
2701.91880	0.18560
2699.99023	0.18428
2698.06167	0.18290
2696.13311	0.18144
2694.20454	0.18002
2692.27598	0.17878
2690.34741	0.17748
2688.41885	0.17603
2686.49028	0.17470
2684.56172	0.17353
2682.63315	0.17241
2680.70459	0.17129
2678.77603	0.17014
2676.84746	0.16898
2674.91890	0.16781
2672.99033	0.16661
2671.06177	0.16549
2669.13320	0.16454
2667.20464	0.16376
2665.27607	0.16306
2663.34751	0.16228
2661.41895	0.16140
2659.49038	0.16048
2657.56182	0.15971
2655.63325	0.15910
2653.70469	0.15842
2651.77612	0.15762
2649.84756	0.15689
2647.91899	0.15626
2645.99043	0.15572
2644.06187	0.15528
2642.13330	0.15485
2640.20474	0.15439
2638.27617	0.15388
2636.34761	0.15326
2634.41904	0.15272
2632.49048	0.15241
2630.56191	0.15217
2628.63335	0.15182
2626.70479	0.15140
2624.77622	0.15100
2622.84766	0.15073
2620.91909	0.15049
2618.99053	0.15020
2617.06196	0.14994
2615.13340	0.14978
2613.20483	0.14963
2611.27627	0.14956
2609.34771	0.14962
2607.41914	0.14965
2605.49058	0.14952
2603.56201	0.14936
2601.63345	0.14933
2599.70488	0.14939
2597.77632	0.14955
2595.84775	0.14972
2593.91919	0.14980
2591.99062	0.14986
2590.06206	0.15000
2588.13350	0.15020
2586.20493	0.15037
2584.27637	0.15044
2582.34780	0.15050
2580.41924	0.15071
2578.49067	0.15105
2576.56211	0.15141
2574.63354	0.15184
2572.70498	0.15237
2570.77642	0.15283
2568.84785	0.15316
2566.91929	0.15345
2564.99072	0.15370
2563.06216	0.15400
2561.13359	0.15451
2559.20503	0.15511
2557.27646	0.15558
2555.34790	0.15608
2553.41934	0.15673
2551.49077	0.15732
2549.56221	0.15782
2547.63364	0.15837
2545.70508	0.15898
2543.77651	0.15962
2541.84795	0.16033
2539.91938	0.16096
2537.99082	0.16141
2536.06226	0.16185
2534.13369	0.16253
2532.20513	0.16342
2530.27656	0.16430
2528.34800	0.16506
2526.41943	0.16572
2524.49087	0.16633
2522.56230	0.16695
2520.63374	0.16764
2518.70518	0.16843
2516.77661	0.16923
2514.84805	0.17007
2512.91948	0.17097
2510.99092	0.17183
2509.06235	0.17263
2507.13379	0.17337
2505.20522	0.17412
2503.27666	0.17500
2501.34810	0.17591
2499.41953	0.17669
2497.49097	0.17747
2495.56240	0.17834
2493.63384	0.17926
2491.70527	0.18018
2489.77671	0.18111
2487.84814	0.18203
2485.91958	0.18284
2483.99102	0.18351
2482.06245	0.18427
2480.13389	0.18525
2478.20532	0.18631
2476.27676	0.18728
2474.34819	0.18818
2472.41963	0.18898
2470.49106	0.18972
2468.56250	0.19058
2466.63394	0.19163
2464.70537	0.19268
2462.77681	0.19367
2460.84824	0.19466
2458.91968	0.19556
2456.99111	0.19647
2455.06255	0.19750
2453.13398	0.19850
2451.20542	0.19946
2449.27686	0.20043
2447.34829	0.20142
2445.41973	0.20242
2443.49116	0.20347
2441.56260	0.20453
2439.63403	0.20558
2437.70547	0.20662
2435.77690	0.20761
2433.84834	0.20851
2431.91978	0.20952
2429.99121	0.21057
2428.06265	0.21153
2426.13408	0.21257
2424.20552	0.21373
2422.27695	0.21490
2420.34839	0.21603
2418.41982	0.21702
2416.49126	0.21791
2414.56270	0.21894
2412.63413	0.22015
2410.70557	0.22137
2408.77700	0.22262
2406.84844	0.22389
2404.91987	0.22501
2402.99131	0.22606
2401.06274	0.22730
2399.13418	0.22872
2397.20562	0.23007
2395.27705	0.23132
2393.34849	0.23250
2391.41992	0.23377
2389.49136	0.23534
2387.56279	0.23740
2385.63423	0.24017
2383.70566	0.24415
2381.77710	0.24967
2379.84854	0.25628
2377.91997	0.26351
2375.99141	0.27174
2374.06284	0.28157
2372.13428	0.29256
2370.20571	0.30358
2368.27715	0.31401
2366.34858	0.32436
2364.42002	0.33467
2362.49146	0.34331
2360.56289	0.34877
2358.63433	0.35031
2356.70576	0.34764
2354.77720	0.34080
2352.84863	0.33101
2350.92007	0.32066
2348.99150	0.31414
2347.06294	0.31463
2345.13437	0.32274
2343.20581	0.33376
2341.27725	0.33996
2339.34868	0.34144
2337.42012	0.34131
2335.49155	0.34041
2333.56299	0.33916
2331.63442	0.33872
2329.70586	0.33897
2327.77729	0.33869
2325.84873	0.33715
2323.92017	0.33502
2321.99160	0.33297
2320.06304	0.33039
2318.13447	0.32720
2316.20591	0.32459
2314.27734	0.32342
2312.34878	0.32325
2310.42021	0.32309
2308.49165	0.32239
2306.56309	0.32118
2304.63452	0.32006
2302.70596	0.31973
2300.77739	0.32003
2298.84883	0.32040
2296.92026	0.32077
2294.99170	0.32136
2293.06313	0.32203
2291.13457	0.32258
2289.20601	0.32314
2287.27744	0.32386
2285.34888	0.32480
2283.42031	0.32611
2281.49175	0.32784
2279.56318	0.32994
2277.63462	0.33223
2275.70605	0.33449
2273.77749	0.33660
2271.84893	0.33870
2269.92036	0.34087
2267.99180	0.34297
2266.06323	0.34488
2264.13467	0.34671
2262.20610	0.34866
2260.27754	0.35067
2258.34897	0.35263
2256.42041	0.35461
2254.49185	0.35658
2252.56328	0.35845
2250.63472	0.36034
2248.70615	0.36239
2246.77759	0.36453
2244.84902	0.36658
2242.92046	0.36860
2240.99189	0.37075
2239.06333	0.37300
2237.13477	0.37522
2235.20620	0.37733
2233.27764	0.37949
2231.34907	0.38174
2229.42051	0.38395
2227.49194	0.38610
2225.56338	0.38828
2223.63481	0.39047
2221.70625	0.39261
2219.77769	0.39478
2217.84912	0.39703
2215.92056	0.39937
2213.99199	0.40171
2212.06343	0.40393
2210.13486	0.40607
2208.20630	0.40813
2206.27773	0.41013
2204.34917	0.41213
2202.42061	0.41423
2200.49204	0.41636
2198.56348	0.41844
2196.63491	0.42044
2194.70635	0.42241
2192.77778	0.42436
2190.84922	0.42618
2188.92065	0.42790
2186.99209	0.42974
2185.06353	0.43160
2183.13496	0.43337
2181.20640	0.43511
2179.27783	0.43683
2177.34927	0.43856
2175.42070	0.44027
2173.49214	0.44175
2171.56357	0.44300
2169.63501	0.44426
2167.70645	0.44560
2165.77788	0.44700
2163.84932	0.44833
2161.92075	0.44944
2159.99219	0.45045
2158.06362	0.45152
2156.13506	0.45260
2154.20649	0.45348
2152.27793	0.45419
2150.34937	0.45488
2148.42080	0.45552
2146.49224	0.45597
2144.56367	0.45635
2142.63511	0.45686
2140.70654	0.45730
2138.77798	0.45752
2136.84941	0.45765
2134.92085	0.45772
2132.99229	0.45769
2131.06372	0.45765
2129.13516	0.45757
2127.20659	0.45738
2125.27803	0.45708
2123.34946	0.45667
2121.42090	0.45621
2119.49233	0.45563
2117.56377	0.45488
2115.63521	0.45412
2113.70664	0.45339
2111.77808	0.45257
2109.84951	0.45169
2107.92095	0.45086
2105.99238	0.44993
2104.06382	0.44872
2102.13525	0.44734
2100.20669	0.44594
2098.27812	0.44443
2096.34956	0.44286
2094.42100	0.44142
2092.49243	0.44004
2090.56387	0.43848
2088.63530	0.43669
2086.70674	0.43481
2084.77817	0.43293
2082.84961	0.43109
2080.92104	0.42921
2078.99248	0.42726
2077.06392	0.42517
2075.13535	0.42293
2073.20679	0.42071
2071.27822	0.41850
2069.34966	0.41624
2067.42109	0.41394
2065.49253	0.41172
2063.56396	0.40940
2061.63540	0.40688
2059.70684	0.40439
2057.77827	0.40201
2055.84971	0.39956
2053.92114	0.39691
2051.99258	0.39426
2050.06401	0.39167
2048.13545	0.38911
2046.20688	0.38647
2044.27832	0.38377
2042.34976	0.38109
2040.42119	0.37845
2038.49263	0.37579
2036.56406	0.37305
2034.63550	0.37021
2032.70693	0.36731
2030.77837	0.36455
2028.84980	0.36187
2026.92124	0.35909
2024.99268	0.35627
2023.06411	0.35354
2021.13555	0.35090
2019.20698	0.34833
2017.27842	0.34568
2015.34985	0.34278
2013.42129	0.33981
2011.49272	0.33699
2009.56416	0.33432
2007.63560	0.33172
2005.70703	0.32901
2003.77847	0.32622
2001.84990	0.32351
1999.92134	0.32088
1997.99277	0.31826
1996.06421	0.31576
1994.13564	0.31350
1992.20708	0.31121
1990.27852	0.30865
1988.34995	0.30601
1986.42139	0.30346
1984.49282	0.30100
1982.56426	0.29863
1980.63569	0.29630
1978.70713	0.29398
1976.77856	0.29170
1974.85000	0.28946
1972.92144	0.28724
1970.99287	0.28514
1969.06431	0.28329
1967.13574	0.28147
1965.20718	0.27939
1963.27861	0.27728
1961.35005	0.27539
1959.42148	0.27351
1957.49292	0.27158
1955.56436	0.26972
1953.63579	0.26793
1951.70723	0.26616
1949.77866	0.26449
1947.85010	0.26305
1945.92153	0.26183
1943.99297	0.26067
1942.06440	0.25930
1940.13584	0.25747
1938.20728	0.25560
1936.27871	0.25404
1934.35015	0.25272
1932.42158	0.25157
1930.49302	0.25043
1928.56445	0.24925
1926.63589	0.24821
1924.70732	0.24755
1922.77876	0.24694
1920.85020	0.24593
1918.92163	0.24495
1916.99307	0.24403
1915.06450	0.24290
1913.13594	0.24193
1911.20737	0.24135
1909.27881	0.24081
1907.35024	0.24000
1905.42168	0.23906
1903.49312	0.23829
1901.56455	0.23774
1899.63599	0.23732
1897.70742	0.23700
1895.77886	0.23678
1893.85029	0.23653
1891.92173	0.23623
1889.99316	0.23611
1888.06460	0.23587
1886.13604	0.23539
1884.20747	0.23501
1882.27891	0.23478
1880.35034	0.23465
1878.42178	0.23457
1876.49321	0.23451
1874.56465	0.23447
1872.63608	0.23474
1870.70752	0.23558
1868.77896	0.23682
1866.85039	0.23709
1864.92183	0.23628
1862.99326	0.23571
1861.06470	0.23570
1859.13613	0.23603
1857.20757	0.23639
1855.27900	0.23686
1853.35044	0.23738
1851.42187	0.23796
1849.49331	0.23870
1847.56475	0.23975
1845.63618	0.24110
1843.70762	0.24235
1841.77905	0.24276
1839.85049	0.24274
1837.92192	0.24333
1835.99336	0.24428
1834.06479	0.24521
1832.13623	0.24642
1830.20767	0.24841
1828.27910	0.25020
1826.35054	0.25106
1824.42197	0.25199
1822.49341	0.25291
1820.56484	0.25388
1818.63628	0.25521
1816.70771	0.25686
1814.77915	0.25848
1812.85059	0.26035
1810.92202	0.26266
1808.99346	0.26476
1807.06489	0.26646
1805.13633	0.26821
1803.20776	0.27057
1801.27920	0.27347
1799.35063	0.27648
1797.42207	0.27902
1795.49351	0.28161
1793.56494	0.28493
1791.63638	0.28886
1789.70781	0.29166
1787.77925	0.29347
1785.85068	0.29641
1783.92212	0.30030
1781.99355	0.30444
1780.06499	0.30868
1778.13643	0.31285
1776.20786	0.31693
1774.27930	0.32184
1772.35073	0.32851
1770.42217	0.33483
1768.49360	0.33936
1766.56504	0.34382
1764.63647	0.34889
1762.70791	0.35499
1760.77935	0.36268
1758.85078	0.36959
1756.92222	0.37646
1754.99365	0.38392
1753.06509	0.39094
1751.13652	0.39997
1749.20796	0.41145
1747.27939	0.42201
1745.35083	0.43063
1743.42227	0.43982
1741.49370	0.45034
1739.56514	0.46294
1737.63657	0.47542
1735.70801	0.48652
1733.77944	0.50359
1731.85088	0.52338
1729.92231	0.53833
1727.99375	0.55333
1726.06519	0.56975
1724.13662	0.58811
1722.20806	0.60808
1720.27949	0.62676
1718.35093	0.64936
1716.42236	0.68265
1714.49380	0.71281
1712.56523	0.73631
1710.63667	0.75957
1708.70811	0.78538
1706.77954	0.81521
1704.85098	0.85072
1702.92241	0.88197
1700.99385	0.91273
1699.06528	0.95880
1697.13672	1.00088
1695.20815	1.04321
1693.27959	1.08415
1691.35103	1.11750
1689.42246	1.15640
1687.49390	1.19744
1685.56533	1.23715
1683.63677	1.29822
1681.70820	1.36045
1679.77964	1.39948
1677.85107	1.43684
1675.92251	1.48013
1673.99395	1.53378
1672.06538	1.58198
1670.13682	1.63028
1668.20825	1.69279
1666.27969	1.74245
1664.35112	1.78380
1662.42256	1.83592
1660.49399	1.89507
1658.56543	1.94106
1656.63687	1.97851
1654.70830	2.01404
1652.77974	2.07031
1650.85117	2.12302
1648.92261	2.14239
1646.99404	2.16843
1645.06548	2.20043
1643.13691	2.22144
1641.20835	2.23131
1639.27979	2.23921
1637.35122	2.24497
1635.42266	2.24539
1633.49409	2.23720
1631.56553	2.22263
1629.63696	2.20552
1627.70840	2.17922
1625.77983	2.14881
1623.85127	2.11035
1621.92271	2.06309
1619.99414	2.02038
1618.06558	1.97823
1616.13701	1.91815
1614.20845	1.85630
1612.27988	1.80873
1610.35132	1.75921
1608.42275	1.70516
1606.49419	1.65126
1604.56562	1.60188
1602.63706	1.55432
1600.70850	1.50702
1598.77993	1.46333
1596.85137	1.42309
1594.92280	1.38435
1592.99424	1.34668
1591.06567	1.31215
1589.13711	1.27985
1587.20854	1.24964
1585.27998	1.22159
1583.35142	1.19536
1581.42285	1.17151
1579.49429	1.15140
1577.56572	1.13367
1575.63716	1.11139
1573.70859	1.09055
1571.78003	1.07691
1569.85146	1.06326
1567.92290	1.04765
1565.99434	1.03539
1564.06577	1.02587
1562.13721	1.01858
1560.20864	1.01388
1558.28008	1.00729
1556.35151	0.99952
1554.42295	0.99381
1552.49438	0.98850
1550.56582	0.98282
1548.63726	0.97558
1546.70869	0.96772
1544.78013	0.95965
1542.85156	0.95065
1540.92300	0.93798
1538.99443	0.91637
1537.06587	0.89925
1535.13730	0.88816
1533.20874	0.87448
1531.28018	0.85942
1529.35161	0.84831
1527.42305	0.83844
1525.49448	0.82845
1523.56592	0.81986
1521.63735	0.81151
1519.70879	0.80232
1517.78022	0.79414
1515.85166	0.78500
1513.92310	0.77565
1511.99453	0.76798
1510.06597	0.76174
1508.13740	0.75640
1506.20884	0.74652
1504.28027	0.73560
1502.35171	0.72919
1500.42314	0.72449
1498.49458	0.72009
1496.56602	0.71454
1494.63745	0.70831
1492.70889	0.70364
1490.78032	0.70036
1488.85176	0.69634
1486.92319	0.69106
1484.99463	0.68633
1483.06606	0.68301
1481.13750	0.68057
1479.20894	0.67839
1477.28037	0.67686
1475.35181	0.67626
1473.42324	0.67586
1471.49468	0.67396
1469.56611	0.67092
1467.63755	0.66838
1465.70898	0.66669
1463.78042	0.66539
1461.85186	0.66429
1459.92329	0.66407
1457.99473	0.66477
1456.06616	0.66380
1454.13760	0.66035
1452.20903	0.65734
1450.28047	0.65493
1448.35190	0.65277
1446.42334	0.65042
1444.49478	0.64799
1442.56621	0.64583
1440.63765	0.64391
1438.70908	0.64234
1436.78052	0.64065
1434.85195	0.63807
1432.92339	0.63563
1430.99482	0.63410
1429.06626	0.63298
1427.13770	0.63202
1425.20913	0.63169
1423.28057	0.63187
1421.35200	0.63199
1419.42344	0.63206
1417.49487	0.63129
1415.56631	0.62934
1413.63774	0.62765
1411.70918	0.62662
1409.78062	0.62608
1407.85205	0.62586
1405.92349	0.62589
1403.99492	0.62577
1402.06636	0.62520
1400.13779	0.62445
1398.20923	0.62334
1396.28066	0.62145
1394.35210	0.61858
1392.42354	0.61525
1390.49497	0.61249
1388.56641	0.61014
1386.63784	0.60728
1384.70928	0.60382
1382.78071	0.60063
1380.85215	0.59805
1378.92358	0.59602
1376.99502	0.59451
1375.06646	0.59354
1373.13789	0.59268
1371.20933	0.59172
1369.28076	0.59099
1367.35220	0.59015
1365.42363	0.58903
1363.49507	0.58804
1361.56650	0.58689
1359.63794	0.58529
1357.70937	0.58375
1355.78081	0.58242
1353.85225	0.58126
1351.92368	0.58027
1349.99512	0.57936
1348.06655	0.57845
1346.13799	0.57760
1344.20942	0.57680
1342.28086	0.57608
1340.35229	0.57549
1338.42373	0.57464
1336.49517	0.57341
1334.56660	0.57237
1332.63804	0.57175
1330.70947	0.57139
1328.78091	0.57121
1326.85234	0.57119
1324.92378	0.57118
1322.99521	0.57110
1321.06665	0.57115
1319.13809	0.57135
1317.20952	0.57131
1315.28096	0.57094
1313.35239	0.57046
1311.42383	0.56973
1309.49526	0.56871
1307.56670	0.56774
1305.63813	0.56694
1303.70957	0.56605
1301.78101	0.56504
1299.85244	0.56406
1297.92388	0.56319
1295.99531	0.56222
1294.06675	0.56108
1292.13818	0.55998
1290.20962	0.55914
1288.28105	0.55841
1286.35249	0.55749
1284.42393	0.55643
1282.49536	0.55546
1280.56680	0.55463
1278.63823	0.55372
1276.70967	0.55269
1274.78110	0.55179
1272.85254	0.55113
1270.92397	0.55057
1268.99541	0.55001
1267.06685	0.54937
1265.13828	0.54862
1263.20972	0.54791
1261.28115	0.54727
1259.35259	0.54666
1257.42402	0.54610
1255.49546	0.54569
1253.56689	0.54546
1251.63833	0.54539
1249.70977	0.54537
1247.78120	0.54520
1245.85264	0.54477
1243.92407	0.54412
1241.99551	0.54340
1240.06694	0.54260
1238.13838	0.54153
1236.20981	0.54009
1234.28125	0.53849
1232.35269	0.53704
1230.42412	0.53576
1228.49556	0.53452
1226.56699	0.53323
1224.63843	0.53186
1222.70986	0.53053
1220.78130	0.52933
1218.85273	0.52819
1216.92417	0.52710
1214.99561	0.52616
1213.06704	0.52534
1211.13848	0.52460
1209.20991	0.52393
1207.28135	0.52340
1205.35278	0.52289
1203.42422	0.52220
1201.49565	0.52131
1199.56709	0.52046
1197.63853	0.51976
1195.70996	0.51918
1193.78140	0.51854
1191.85283	0.51780
1189.92427	0.51726
1187.99570	0.51693
1186.06714	0.51663
1184.13857	0.51646
1182.21001	0.51662
1180.28145	0.51697
1178.35288	0.51749
1176.42432	0.51841
1174.49575	0.51948
1172.56719	0.52040
1170.63862	0.52119
1168.71006	0.52173
1166.78149	0.52196
1164.85293	0.52225
1162.92437	0.52278
1160.99580	0.52332
1159.06724	0.52354
1157.13867	0.52314
1155.21011	0.52220
1153.28154	0.52093
1151.35298	0.51945
1149.42441	0.51778
1147.49585	0.51564
1145.56729	0.51295
1143.63872	0.51011
1141.71016	0.50760
1139.78159	0.50563
1137.85303	0.50426
1135.92446	0.50351
1133.99590	0.50318
1132.06733	0.50291
1130.13877	0.50251
1128.21021	0.50200
1126.28164	0.50133
1124.35308	0.50048
1122.42451	0.49986
1120.49595	0.49972
1118.56738	0.49973
1116.63882	0.49970
1114.71025	0.49998
1112.78169	0.50071
1110.85312	0.50153
1108.92456	0.50232
1106.99600	0.50307
1105.06743	0.50367
1103.13887	0.50436
1101.21030	0.50551
1099.28174	0.50699
1097.35317	0.50879
1095.42461	0.51139
1093.49604	0.51510
1091.56748	0.51994
1089.63892	0.52593
1087.71035	0.53302
1085.78179	0.54103
1083.85322	0.54954
1081.92466	0.55746
1079.99609	0.56319
1078.06753	0.56584
1076.13896	0.56559
1074.21040	0.56258
1072.28184	0.55721
1070.35327	0.55053
1068.42471	0.54355
1066.49614	0.53675
1064.56758	0.53043
1062.63901	0.52495
1060.71045	0.52032
1058.78188	0.51626
1056.85332	0.51260
1054.92476	0.50924
1052.99619	0.50629
1051.06763	0.50406
1049.13906	0.50261
1047.21050	0.50180
1045.28193	0.50149
1043.35337	0.50156
1041.42480	0.50178
1039.49624	0.50195
1037.56768	0.50202
1035.63911	0.50200
1033.71055	0.50168
1031.78198	0.50075
1029.85342	0.49943
1027.92485	0.49817
1025.99629	0.49690
1024.06772	0.49576
1022.13916	0.49511
1020.21060	0.49491
1018.28203	0.49486
1016.35347	0.49478
1014.42490	0.49468
1012.49634	0.49472
1010.56777	0.49505
1008.63921	0.49557
1006.71064	0.49615
1004.78208	0.49698
1002.85352	0.49852
1000.92495	0.50100
998.99639	0.50435
997.06782	0.50844
995.13926	0.51275
993.21069	0.51670
991.28213	0.52006
989.35356	0.52247
987.42500	0.52346
985.49644	0.52334
983.56787	0.52298
981.63931	0.52330
979.71074	0.52458
977.78218	0.52640
975.85361	0.52851
973.92505	0.53100
971.99648	0.53401
970.06792	0.53744
968.13936	0.54110
966.21079	0.54509
964.28223	0.54952
962.35366	0.55422
960.42510	0.55906
958.49653	0.56414
956.56797	0.56958
954.63940	0.57553
952.71084	0.58203
950.78228	0.58877
948.85371	0.59533
946.92515	0.60176
944.99658	0.60791
943.06802	0.61351
941.13945	0.61925
939.21089	0.62523
937.28232	0.63061
935.35376	0.63571
933.42520	0.64148
931.49663	0.64759
929.56807	0.65331
927.63950	0.65923
925.71094	0.66567
923.78237	0.67185
921.85381	0.67802
919.92524	0.68486
917.99668	0.69175
916.06812	0.69816
914.13955	0.70510
912.21099	0.71317
910.28242	0.72128
908.35386	0.72909
906.42529	0.73756
904.49673	0.74663
902.56816	0.75542
900.63960	0.76408
898.71104	0.77355
896.78247	0.78417
894.85391	0.79500
892.92534	0.80489
890.99678	0.81401
889.06821	0.82368
887.13965	0.83433
885.21108	0.84539
883.28252	0.85734
881.35396	0.86982
879.42539	0.88063
877.49683	0.88966
875.56826	0.89977
873.63970	0.91197
871.71113	0.92422
869.78257	0.93518
867.85400	0.94604
865.92544	0.95834
863.99687	0.97103
862.06831	0.98194
860.13975	0.99180
858.21118	1.00260
856.28262	1.01385
854.35405	1.02549
852.42549	1.03807
850.49692	1.05036
848.56836	1.06158
846.63979	1.07309
844.71123	1.08707
842.78267	1.10150
840.85410	1.11179
838.92554	1.11919
836.99697	1.12904
835.06841	1.14245
833.13984	1.15445
831.21128	1.15997
829.28271	1.16369
827.35415	1.17432
825.42559	1.18831
823.49702	1.20121
821.56846	1.21541
819.63989	1.22529
817.71133	1.23036
815.78276	1.24076
813.85420	1.24941
811.92563	1.24640
809.99707	1.24496
808.06851	1.25320
806.13994	1.26483
804.21138	1.27550
802.28281	1.28415
800.35425	1.29006
798.42568	1.29308
796.49712	1.29275
794.56855	1.28754
792.63999	1.27408
790.71143	1.26902
788.78286	1.28589
786.85430	1.28539
784.92573	1.26282
782.99717	1.26202
781.06860	1.27509
779.14004	1.28528
777.21147	1.29283
775.28291	1.27044
773.35435	1.24575
771.42578	1.26511
769.49722	1.27036
767.56865	1.23138
765.64009	1.22503
763.71152	1.27589
761.78296	1.30651
759.85439	1.25120
757.92583	1.20864
755.99727	1.20309
754.06870	1.14341
752.14014	1.07555
750.21157	1.06329
748.28301	1.01637
746.35444	0.90838
744.42588	0.82984
742.49731	0.81183
740.56875	0.84218
738.64019	0.90910
736.71162	0.92509
734.78306	0.73743
732.85449	0.51116
730.92593	0.38174
728.99736	0.33587
727.06880	0.32922
725.14023	0.33538
723.21167	0.31735
721.28311	0.24685
719.35454	0.16647
717.42598	0.12393
715.49741	0.16679
713.56885	0.23595
711.64028	0.25924
709.71172	0.27359
707.78315	0.25190
705.85459	0.20640
703.92603	0.21955
701.99746	0.30733
700.06890	0.32586
698.14033	0.27719
696.21177	0.25121
694.28320	0.26234
692.35464	0.33203
690.42607	0.43325
688.49751	0.39682
686.56895	0.24362
684.64038	0.13248
682.71182	0.08262
680.78325	0.09134
678.85469	0.12430
676.92612	0.17940
674.99756	0.28195
673.06899	0.42245
671.14043	0.53015
669.21187	0.45810
667.28330	0.34504
665.35474	0.30695
663.42617	0.26837
661.49761	0.18626
659.56904	0.13771
657.64048	0.16005
655.71191	0.23970
653.78335	0.28644
651.85479	0.23132
649.92622	0.20893
647.99766	0.24210
646.06909	0.29319
644.14053	0.34297
642.21196	0.35701
640.28340	0.33046
638.35483	0.28030
636.42627	0.20621
634.49771	0.15696
632.56914	0.16521
630.64058	0.20968
628.71201	0.23638
626.78345	0.22462
624.85488	0.22759
622.92632	0.26939
620.99775	0.30278
619.06919	0.31104
617.14062	0.33115
615.21206	0.30177
613.28350	0.23207
611.35493	0.20144
609.42637	0.19897
607.49780	0.21085
605.56924	0.25176
603.64067	0.30536
601.71211	0.31859
599.78354	0.28470
597.85498	0.27276
595.92642	0.28876
593.99785	0.25396
592.06929	0.15873
590.14072	0.09233
588.21216	0.10183
586.28359	0.14414
584.35503	0.18627
582.42646	0.24333
580.49790	0.27466
578.56934	0.21146
576.64077	0.16278
574.71221	0.17830
572.78364	0.19769
570.85508	0.21331
568.92651	0.24553
566.99795	0.29248
565.06938	0.31762
563.14082	0.25094
561.21226	0.18234
559.28369	0.19131
557.35513	0.25741
555.42656	0.32353
553.49800	0.31020
551.56943	0.28370
549.64087	0.29345
547.71230	0.31336
545.78374	0.30872
543.85518	0.26602
541.92661	0.21799
539.99805	0.18372
538.06948	0.19434
536.14092	0.26253
534.21235	0.32359
532.28379	0.29316
530.35522	0.23396
528.42666	0.20318
526.49810	0.21604
524.56953	0.24000
522.64097	0.22008
520.71240	0.20050
518.78384	0.20362
516.85527	0.20905
514.92671	0.21781
512.99814	0.22936
511.06958	0.24024
509.14102	0.26111
507.21245	0.25516
505.28389	0.21174
503.35532	0.17464
501.42676	0.16385
499.49819	0.19051
