3997.91411	0.06199
3995.98555	0.06197
3994.05698	0.06192
3992.12842	0.06211
3990.19985	0.06258
3988.27129	0.06304
3986.34272	0.06352
3984.41416	0.06392
3982.48560	0.06410
3980.55703	0.06422
3978.62847	0.06424
3976.69990	0.06428
3974.77134	0.06468
3972.84277	0.06518
3970.91421	0.06542
3968.98564	0.06562
3967.05708	0.06595
3965.12852	0.06598
3963.19995	0.06578
3961.27139	0.06587
3959.34282	0.06612
3957.41426	0.06616
3955.48569	0.06614
3953.55713	0.06613
3951.62856	0.06622
3949.70000	0.06666
3947.77144	0.06720
3945.84287	0.06730
3943.91431	0.06693
3941.98574	0.06638
3940.05718	0.06584
3938.12861	0.06564
3936.20005	0.06582
3934.27148	0.06621
3932.34292	0.06695
3930.41436	0.06765
3928.48579	0.06767
3926.55723	0.06743
3924.62866	0.06739
3922.70010	0.06717
3920.77153	0.06663
3918.84297	0.06623
3916.91440	0.06629
3914.98584	0.06657
3913.05728	0.06661
3911.12871	0.06649
3909.20015	0.06633
3907.27158	0.06610
3905.34302	0.06622
3903.41445	0.06715
3901.48589	0.06814
3899.55732	0.06810
3897.62876	0.06740
3895.70020	0.06683
3893.77163	0.06681
3891.84307	0.06740
3889.91450	0.06810
3887.98594	0.06821
3886.05737	0.06809
3884.12881	0.06800
3882.20024	0.06776
3880.27168	0.06774
3878.34312	0.06776
3876.41455	0.06758
3874.48599	0.06792
3872.55742	0.06874
3870.62886	0.06951
3868.70029	0.07015
3866.77173	0.07012
3864.84316	0.07018
3862.91460	0.07089
3860.98604	0.07114
3859.05747	0.07066
3857.12891	0.07036
3855.20034	0.07093
3853.27178	0.07269
3851.34321	0.07430
3849.41465	0.07399
3847.48608	0.07325
3845.55752	0.07321
3843.62896	0.07420
3841.70039	0.07564
3839.77183	0.07680
3837.84326	0.07768
3835.91470	0.07806
3833.98613	0.07811
3832.05757	0.07824
3830.12900	0.07868
3828.20044	0.07947
3826.27187	0.08041
3824.34331	0.08122
3822.41475	0.08205
3820.48618	0.08373
3818.55762	0.08535
3816.62905	0.08585
3814.70049	0.08603
3812.77192	0.08632
3810.84336	0.08695
3808.91479	0.08806
3806.98623	0.08972
3805.05767	0.09109
3803.12910	0.09182
3801.20054	0.09323
3799.27197	0.09473
3797.34341	0.09533
3795.41484	0.09631
3793.48628	0.09757
3791.55771	0.09849
3789.62915	0.09938
3787.70059	0.10062
3785.77202	0.10240
3783.84346	0.10432
3781.91489	0.10569
3779.98633	0.10689
3778.05776	0.10864
3776.12920	0.11039
3774.20063	0.11181
3772.27207	0.11331
3770.34351	0.11537
3768.41494	0.11785
3766.48638	0.11963
3764.55781	0.12095
3762.62925	0.12225
3760.70068	0.12377
3758.77212	0.12642
3756.84355	0.12982
3754.91499	0.13262
3752.98643	0.13530
3751.05786	0.13861
3749.12930	0.14200
3747.20073	0.14436
3745.27217	0.14639
3743.34360	0.14978
3741.41504	0.15381
3739.48647	0.15692
3737.55791	0.15995
3735.62935	0.16395
3733.70078	0.16889
3731.77222	0.17344
3729.84365	0.17752
3727.91509	0.18185
3725.98652	0.18734
3724.05796	0.19375
3722.12939	0.20059
3720.20083	0.20821
3718.27227	0.21608
3716.34370	0.22381
3714.41514	0.23149
3712.48657	0.24069
3710.55801	0.25384
3708.62944	0.26799
3706.70088	0.27949
3704.77231	0.29057
3702.84375	0.30343
3700.91519	0.31981
3698.98662	0.33812
3697.05806	0.35602
3695.12949	0.37501
3693.20093	0.39487
3691.27236	0.41621
3689.34380	0.44426
3687.41523	0.47929
3685.48667	0.50993
3683.55811	0.53635
3681.62954	0.56475
3679.70098	0.59641
3677.77241	0.62964
3675.84385	0.66890
3673.91528	0.72146
3671.98672	0.76508
3670.05815	0.80426
3668.12959	0.85780
3666.20103	0.90677
3664.27246	0.94756
3662.34390	0.99105
3660.41533	1.03789
3658.48677	1.08396
3656.55820	1.13303
3654.62964	1.18787
3652.70107	1.23372
3650.77251	1.27309
3648.84395	1.32716
3646.91538	1.39394
3644.98682	1.44472
3643.05825	1.48520
3641.12969	1.52592
3639.20112	1.56919
3637.27256	1.61224
3635.34399	1.65461
3633.41543	1.69770
3631.48687	1.73851
3629.55830	1.77900
3627.62974	1.83105
3625.70117	1.88086
3623.77261	1.91517
3621.84404	1.94771
3619.91548	1.98482
3617.98691	2.02958
3616.05835	2.07273
3614.12979	2.10931
3612.20122	2.14879
3610.27266	2.18924
3608.34409	2.22958
3606.41553	2.27156
3604.48696	2.31011
3602.55840	2.34449
3600.62983	2.38150
3598.70127	2.42203
3596.77271	2.46198
3594.84414	2.50238
3592.91558	2.54386
3590.98701	2.58205
3589.05845	2.61680
3587.12988	2.66006
3585.20132	2.71069
3583.27275	2.75384
3581.34419	2.79179
3579.41562	2.83110
3577.48706	2.87348
3575.55850	2.91737
3573.62993	2.96109
3571.70137	3.00153
3569.77280	3.03833
3567.84424	3.07753
3565.91567	3.12978
3563.98711	3.18435
3562.05854	3.22871
3560.12998	3.27043
3558.20142	3.31249
3556.27285	3.35478
3554.34429	3.39764
3552.41572	3.44224
3550.48716	3.48776
3548.55859	3.53301
3546.63003	3.57897
3544.70146	3.62866
3542.77290	3.67976
3540.84434	3.72717
3538.91577	3.77102
3536.98721	3.81561
3535.05864	3.86517
3533.13008	3.91432
3531.20151	3.96189
3529.27295	4.01171
3527.34438	4.06155
3525.41582	4.10695
3523.48726	4.15029
3521.55869	4.19611
3519.63013	4.24297
3517.70156	4.29188
3515.77300	4.34317
3513.84443	4.39385
3511.91587	4.44216
3509.98730	4.49056
3508.05874	4.53794
3506.13018	4.58074
3504.20161	4.62525
3502.27305	4.67561
3500.34448	4.72503
3498.41592	4.77039
3496.48735	4.81545
3494.55879	4.86267
3492.63022	4.91356
3490.70166	4.96309
3488.77310	5.00817
3486.84453	5.05380
3484.91597	5.09993
3482.98740	5.14775
3481.05884	5.20119
3479.13027	5.25262
3477.20171	5.29682
3475.27314	5.34008
3473.34458	5.38322
3471.41602	5.42470
3469.48745	5.47672
3467.55889	5.54185
3465.63032	5.60073
3463.70176	5.65450
3461.77319	5.71507
3459.84463	5.77179
3457.91606	5.81433
3455.98750	5.85183
3454.05894	5.89276
3452.13037	5.94322
3450.20181	6.00065
3448.27324	6.04590
3446.34468	6.08384
3444.41611	6.13784
3442.48755	6.21413
3440.55898	6.28382
3438.63042	6.32147
3436.70186	6.34749
3434.77329	6.38298
3432.84473	6.42355
3430.91616	6.47262
3428.98760	6.54527
3427.05903	6.61911
3425.13047	6.66520
3423.20190	6.68447
3421.27334	6.70228
3419.34478	6.74489
3417.41621	6.81737
3415.48765	6.90200
3413.55908	6.96780
3411.63052	7.01394
3409.70195	7.05566
3407.77339	7.11304
3405.84482	7.18294
3403.91626	7.22735
3401.98770	7.22858
3400.05913	7.22905
3398.13057	7.25904
3396.20200	7.29560
3394.27344	7.33338
3392.34487	7.38549
3390.41631	7.46733
3388.48774	7.56086
3386.55918	7.61176
3384.63062	7.59202
3382.70205	7.56524
3380.77349	7.57064
3378.84492	7.57365
3376.91636	7.58594
3374.98779	7.62983
3373.05923	7.68676
3371.13066	7.71633
3369.20210	7.73813
3367.27354	7.77384
3365.34497	7.80161
3363.41641	7.80030
3361.48784	7.78663
3359.55928	7.81177
3357.63071	7.86814
3355.70215	7.92312
3353.77358	7.95146
3351.84502	7.94611
3349.91646	7.92438
3347.98789	7.92109
3346.05933	7.93373
3344.13076	7.97413
3342.20220	8.05669
3340.27363	8.11768
3338.34507	8.12131
3336.41650	8.05536
3334.48794	7.99099
3332.55937	7.98899
3330.63081	8.00588
3328.70225	8.01710
3326.77368	8.02398
3324.84512	7.99882
3322.91655	7.98049
3320.98799	8.02350
3319.05942	8.04041
3317.13086	7.98590
3315.20229	7.92638
3313.27373	7.93049
3311.34517	7.98742
3309.41660	8.02865
3307.48804	8.03037
3305.55947	8.00029
3303.63091	7.98599
3301.70234	8.01921
3299.77378	8.08073
3297.84521	8.11799
3295.91665	8.10721
3293.98809	8.06712
3292.05952	8.03279
3290.13096	8.04484
3288.20239	8.12151
3286.27383	8.19013
3284.34526	8.16628
3282.41670	8.08663
3280.48813	7.98147
3278.55957	7.93090
3276.63101	8.00757
3274.70244	8.12177
3272.77388	8.11656
3270.84531	8.06655
3268.91675	8.13079
3266.98818	8.23862
3265.05962	8.21510
3263.13105	8.08295
3261.20249	8.06033
3259.27393	8.18249
3257.34536	8.29900
3255.41680	8.37091
3253.48823	8.40205
3251.55967	8.35500
3249.63110	8.27835
3247.70254	8.23871
3245.77397	8.20892
3243.84541	8.17179
3241.91685	8.18361
3239.98828	8.21779
3238.05972	8.17061
3236.13115	8.09683
3234.20259	8.08256
3232.27402	8.09507
3230.34546	8.12844
3228.41689	8.22307
3226.48833	8.35033
3224.55977	8.34360
3222.63120	8.17040
3220.70264	8.05453
3218.77407	8.07762
3216.84551	8.08407
3214.91694	8.00339
3212.98838	7.92811
3211.05981	7.85537
3209.13125	7.76883
3207.20269	7.74427
3205.27412	7.80538
3203.34556	7.83635
3201.41699	7.79085
3199.48843	7.76404
3197.55986	7.74641
3195.63130	7.68806
3193.70273	7.64216
3191.77417	7.62353
3189.84561	7.58218
3187.91704	7.53590
3185.98848	7.52299
3184.05991	7.50549
3182.13135	7.43685
3180.20278	7.33280
3178.27422	7.24606
3176.34565	7.21361
3174.41709	7.19421
3172.48853	7.12609
3170.55996	7.03750
3168.63140	6.98146
3166.70283	6.94712
3164.77427	6.89735
3162.84570	6.82685
3160.91714	6.77016
3158.98857	6.73476
3157.06001	6.66806
3155.13145	6.57237
3153.20288	6.49618
3151.27432	6.43054
3149.34575	6.34913
3147.41719	6.26889
3145.48862	6.21687
3143.56006	6.17416
3141.63149	6.10191
3139.70293	6.01245
3137.77437	5.94483
3135.84580	5.88961
3133.91724	5.82377
3131.98867	5.75344
3130.06011	5.67761
3128.13154	5.59528
3126.20298	5.52069
3124.27441	5.45485
3122.34585	5.38391
3120.41729	5.30686
3118.48872	5.23194
3116.56016	5.16064
3114.63159	5.09072
3112.70303	5.02255
3110.77446	4.95569
3108.84590	4.88558
3106.91733	4.81001
3104.98877	4.73361
3103.06021	4.66309
3101.13164	4.59729
3099.20308	4.53196
3097.27451	4.46614
3095.34595	4.40006
3093.41738	4.33319
3091.48882	4.26449
3089.56025	4.19798
3087.63169	4.13640
3085.70312	4.07388
3083.77456	4.00631
3081.84600	3.93859
3079.91743	3.87498
3077.98887	3.81471
3076.06030	3.75550
3074.13174	3.69462
3072.20317	3.63299
3070.27461	3.57320
3068.34604	3.51390
3066.41748	3.45385
3064.48892	3.39514
3062.56035	3.33923
3060.63179	3.28585
3058.70322	3.23275
3056.77466	3.17697
3054.84609	3.12021
3052.91753	3.06600
3050.98896	3.01401
3049.06040	2.96220
3047.13184	2.91100
3045.20327	2.86195
3043.27471	2.81411
3041.34614	2.76601
3039.41758	2.71788
3037.48901	2.67035
3035.56045	2.62378
3033.63188	2.57853
3031.70332	2.53403
3029.77476	2.48939
3027.84619	2.44504
3025.91763	2.40162
3023.98906	2.35950
3022.06050	2.31864
3020.13193	2.27789
3018.20337	2.23661
3016.27480	2.19530
3014.34624	2.15494
3012.41768	2.11623
3010.48911	2.07862
3008.56055	2.04156
3006.63198	2.00508
3004.70342	1.96876
3002.77485	1.93266
3000.84629	1.89761
2998.91772	1.86356
2996.98916	1.82991
2995.06060	1.79645
2993.13203	1.76326
2991.20347	1.73072
2989.27490	1.69907
2987.34634	1.66784
2985.41777	1.63682
2983.48921	1.60640
2981.56064	1.57645
2979.63208	1.54694
2977.70352	1.51816
2975.77495	1.48973
2973.84639	1.46128
2971.91782	1.43302
2969.98926	1.40538
2968.06069	1.37874
2966.13213	1.35290
2964.20356	1.32727
2962.27500	1.30176
2960.34644	1.27683
2958.41787	1.25275
2956.48931	1.22910
2954.56074	1.20546
2952.63218	1.18219
2950.70361	1.15975
2948.77505	1.13794
2946.84648	1.11635
2944.91792	1.09499
2942.98936	1.07415
2941.06079	1.05364
2939.13223	1.03299
2937.20366	1.01247
2935.27510	0.99256
2933.34653	0.97319
2931.41797	0.95435
2929.48940	0.93640
2927.56084	0.91931
2925.63228	0.90261
2923.70371	0.88619
2921.77515	0.87031
2919.84658	0.85517
2917.91802	0.84035
2915.98945	0.82506
2914.06089	0.80932
2912.13232	0.79383
2910.20376	0.77909
2908.27520	0.76493
2906.34663	0.75103
2904.41807	0.73729
2902.48950	0.72394
2900.56094	0.71127
2898.63237	0.69909
2896.70381	0.68686
2894.77524	0.67454
2892.84668	0.66275
2890.91812	0.65157
2888.98955	0.64031
2887.06099	0.62879
2885.13242	0.61744
2883.20386	0.60642
2881.27529	0.59564
2879.34673	0.58507
2877.41816	0.57469
2875.48960	0.56437
2873.56104	0.55425
2871.63247	0.54448
2869.70391	0.53484
2867.77534	0.52540
2865.84678	0.51621
2863.91821	0.50702
2861.98965	0.49771
2860.06108	0.48836
2858.13252	0.47939
2856.20396	0.47134
2854.27539	0.46413
2852.34683	0.45707
2850.41826	0.44982
2848.48970	0.44258
2846.56113	0.43548
2844.63257	0.42842
2842.70400	0.42158
2840.77544	0.41513
2838.84687	0.40903
2836.91831	0.40329
2834.98975	0.39759
2833.06118	0.39180
2831.13262	0.38617
2829.20405	0.38062
2827.27549	0.37498
2825.34692	0.36937
2823.41836	0.36386
2821.48979	0.35830
2819.56123	0.35274
2817.63267	0.34742
2815.70410	0.34216
2813.77554	0.33679
2811.84697	0.33160
2809.91841	0.32655
2807.98984	0.32141
2806.06128	0.31648
2804.13271	0.31197
2802.20415	0.30766
2800.27559	0.30332
2798.34702	0.29882
2796.41846	0.29427
2794.48989	0.29001
2792.56133	0.28601
2790.63276	0.28200
2788.70420	0.27798
2786.77563	0.27403
2784.84707	0.27015
2782.91851	0.26632
2780.98994	0.26264
2779.06138	0.25911
2777.13281	0.25571
2775.20425	0.25251
2773.27568	0.24920
2771.34712	0.24569
2769.41855	0.24227
2767.48999	0.23900
2765.56143	0.23582
2763.63286	0.23276
2761.70430	0.22980
2759.77573	0.22688
2757.84717	0.22409
2755.91860	0.22146
2753.99004	0.21893
2752.06147	0.21647
2750.13291	0.21398
2748.20435	0.21137
2746.27578	0.20870
2744.34722	0.20610
2742.41865	0.20363
2740.49009	0.20125
2738.56152	0.19888
2736.63296	0.19657
2734.70439	0.19442
2732.77583	0.19245
2730.84727	0.19048
2728.91870	0.18836
2726.99014	0.18635
2725.06157	0.18458
2723.13301	0.18283
2721.20444	0.18102
2719.27588	0.17917
2717.34731	0.17734
2715.41875	0.17567
2713.49019	0.17413
2711.56162	0.17259
2709.63306	0.17103
2707.70449	0.16952
2705.77593	0.16808
2703.84736	0.16659
2701.91880	0.16512
2699.99023	0.16372
2698.06167	0.16223
2696.13311	0.16071
2694.20454	0.15941
2692.27598	0.15834
2690.34741	0.15736
2688.41885	0.15637
2686.49028	0.15528
2684.56172	0.15416
2682.63315	0.15305
2680.70459	0.15203
2678.77603	0.15116
2676.84746	0.15024
2674.91890	0.14927
2672.99033	0.14845
2671.06177	0.14769
2669.13320	0.14684
2667.20464	0.14601
2665.27607	0.14532
2663.34751	0.14467
2661.41895	0.14396
2659.49038	0.14326
2657.56182	0.14265
2655.63325	0.14216
2653.70469	0.14177
2651.77612	0.14128
2649.84756	0.14064
2647.91899	0.14002
2645.99043	0.13946
2644.06187	0.13899
2642.13330	0.13872
2640.20474	0.13848
2638.27617	0.13804
2636.34761	0.13754
2634.41904	0.13707
2632.49048	0.13665
2630.56191	0.13651
2628.63335	0.13654
2626.70479	0.13642
2624.77622	0.13624
2622.84766	0.13619
2620.91909	0.13616
2618.99053	0.13605
2617.06196	0.13580
2615.13340	0.13554
2613.20483	0.13549
2611.27627	0.13556
2609.34771	0.13564
2607.41914	0.13582
2605.49058	0.13600
2603.56201	0.13608
2601.63345	0.13618
2599.70488	0.13630
2597.77632	0.13634
2595.84775	0.13642
2593.91919	0.13666
2591.99062	0.13700
2590.06206	0.13730
2588.13350	0.13751
2586.20493	0.13777
2584.27637	0.13812
2582.34780	0.13850
2580.41924	0.13880
2578.49067	0.13906
2576.56211	0.13943
2574.63354	0.13999
2572.70498	0.14063
2570.77642	0.14120
2568.84785	0.14169
2566.91929	0.14212
2564.99072	0.14249
2563.06216	0.14298
2561.13359	0.14349
2559.20503	0.14391
2557.27646	0.14434
2555.34790	0.14486
2553.41934	0.14555
2551.49077	0.14629
2549.56221	0.14695
2547.63364	0.14757
2545.70508	0.14815
2543.77651	0.14877
2541.84795	0.14958
2539.91938	0.15047
2537.99082	0.15129
2536.06226	0.15204
2534.13369	0.15271
2532.20513	0.15346
2530.27656	0.15437
2528.34800	0.15529
2526.41943	0.15608
2524.49087	0.15678
2522.56230	0.15750
2520.63374	0.15834
2518.70518	0.15927
2516.77661	0.16020
2514.84805	0.16103
2512.91948	0.16178
2510.99092	0.16263
2509.06235	0.16359
2507.13379	0.16446
2505.20522	0.16521
2503.27666	0.16608
2501.34810	0.16713
2499.41953	0.16816
2497.49097	0.16903
2495.56240	0.16985
2493.63384	0.17079
2491.70527	0.17180
2489.77671	0.17280
2487.84814	0.17372
2485.91958	0.17452
2483.99102	0.17538
2482.06245	0.17644
2480.13389	0.17758
2478.20532	0.17866
2476.27676	0.17972
2474.34819	0.18075
2472.41963	0.18167
2470.49106	0.18252
2468.56250	0.18338
2466.63394	0.18429
2464.70537	0.18526
2462.77681	0.18636
2460.84824	0.18757
2458.91968	0.18869
2456.99111	0.18966
2455.06255	0.19059
2453.13398	0.19159
2451.20542	0.19269
2449.27686	0.19386
2447.34829	0.19495
2445.41973	0.19602
2443.49116	0.19710
2441.56260	0.19814
2439.63403	0.19920
2437.70547	0.20029
2435.77690	0.20133
2433.84834	0.20231
2431.91978	0.20339
2429.99121	0.20460
2428.06265	0.20582
2426.13408	0.20701
2424.20552	0.20817
2422.27695	0.20932
2420.34839	0.21045
2418.41982	0.21154
2416.49126	0.21262
2414.56270	0.21378
2412.63413	0.21515
2410.70557	0.21650
2408.77700	0.21759
2406.84844	0.21871
2404.91987	0.22005
2402.99131	0.22133
2401.06274	0.22253
2399.13418	0.22379
2397.20562	0.22505
2395.27705	0.22630
2393.34849	0.22758
2391.41992	0.22890
2389.49136	0.23021
2387.56279	0.23146
2385.63423	0.23252
2383.70566	0.23334
2381.77710	0.23385
2379.84854	0.23404
2377.91997	0.23403
2375.99141	0.23383
2374.06284	0.23334
2372.13428	0.23241
2370.20571	0.23088
2368.27715	0.22907
2366.34858	0.22804
2364.42002	0.22778
2362.49146	0.22772
2360.56289	0.22837
2358.63433	0.23042
2356.70576	0.23414
2354.77720	0.23882
2352.84863	0.24345
2350.92007	0.24763
2348.99150	0.25051
2347.06294	0.25137
2345.13437	0.25073
2343.20581	0.25045
2341.27725	0.25147
2339.34868	0.25340
2337.42012	0.25623
2335.49155	0.25922
2333.56299	0.26145
2331.63442	0.26316
2329.70586	0.26499
2327.77729	0.26701
2325.84873	0.26901
2323.92017	0.27127
2321.99160	0.27396
2320.06304	0.27684
2318.13447	0.27967
2316.20591	0.28229
2314.27734	0.28478
2312.34878	0.28735
2310.42021	0.29000
2308.49165	0.29250
2306.56309	0.29479
2304.63452	0.29703
2302.70596	0.29921
2300.77739	0.30135
2298.84883	0.30351
2296.92026	0.30563
2294.99170	0.30772
2293.06313	0.30993
2291.13457	0.31224
2289.20601	0.31453
2287.27744	0.31675
2285.34888	0.31891
2283.42031	0.32090
2281.49175	0.32284
2279.56318	0.32481
2277.63462	0.32673
2275.70605	0.32872
2273.77749	0.33086
2271.84893	0.33308
2269.92036	0.33526
2267.99180	0.33733
2266.06323	0.33930
2264.13467	0.34126
2262.20610	0.34337
2260.27754	0.34574
2258.34897	0.34814
2256.42041	0.35033
2254.49185	0.35252
2252.56328	0.35492
2250.63472	0.35740
2248.70615	0.35974
2246.77759	0.36189
2244.84902	0.36397
2242.92046	0.36607
2240.99189	0.36821
2239.06333	0.37044
2237.13477	0.37275
2235.20620	0.37502
2233.27764	0.37722
2231.34907	0.37945
2229.42051	0.38177
2227.49194	0.38404
2225.56338	0.38622
2223.63481	0.38839
2221.70625	0.39066
2219.77769	0.39302
2217.84912	0.39531
2215.92056	0.39747
2213.99199	0.39962
2212.06343	0.40184
2210.13486	0.40397
2208.20630	0.40599
2206.27773	0.40812
2204.34917	0.41037
2202.42061	0.41252
2200.49204	0.41453
2198.56348	0.41652
2196.63491	0.41848
2194.70635	0.42032
2192.77778	0.42211
2190.84922	0.42402
2188.92065	0.42601
2186.99209	0.42798
2185.06353	0.42982
2183.13496	0.43152
2181.20640	0.43322
2179.27783	0.43489
2177.34927	0.43647
2175.42070	0.43806
2173.49214	0.43959
2171.56357	0.44102
2169.63501	0.44248
2167.70645	0.44396
2165.77788	0.44531
2163.84932	0.44648
2161.92075	0.44766
2159.99219	0.44891
2158.06362	0.45001
2156.13506	0.45094
2154.20649	0.45180
2152.27793	0.45254
2150.34937	0.45322
2148.42080	0.45393
2146.49224	0.45456
2144.56367	0.45511
2142.63511	0.45563
2140.70654	0.45604
2138.77798	0.45634
2136.84941	0.45652
2134.92085	0.45656
2132.99229	0.45651
2131.06372	0.45637
2129.13516	0.45619
2127.20659	0.45605
2125.27803	0.45584
2123.34946	0.45542
2121.42090	0.45487
2119.49233	0.45426
2117.56377	0.45360
2115.63521	0.45294
2113.70664	0.45220
2111.77808	0.45130
2109.84951	0.45035
2107.92095	0.44946
2105.99238	0.44852
2104.06382	0.44737
2102.13525	0.44599
2100.20669	0.44457
2098.27812	0.44316
2096.34956	0.44162
2094.42100	0.44002
2092.49243	0.43849
2090.56387	0.43689
2088.63530	0.43512
2086.70674	0.43330
2084.77817	0.43147
2082.84961	0.42956
2080.92104	0.42758
2078.99248	0.42563
2077.06392	0.42362
2075.13535	0.42148
2073.20679	0.41931
2071.27822	0.41708
2069.34966	0.41478
2067.42109	0.41250
2065.49253	0.41028
2063.56396	0.40791
2061.63540	0.40547
2059.70684	0.40300
2057.77827	0.40046
2055.84971	0.39790
2053.92114	0.39536
2051.99258	0.39271
2050.06401	0.39000
2048.13545	0.38738
2046.20688	0.38483
2044.27832	0.38223
2042.34976	0.37951
2040.42119	0.37672
2038.49263	0.37397
2036.56406	0.37132
2034.63550	0.36874
2032.70693	0.36600
2030.77837	0.36310
2028.84980	0.36023
2026.92124	0.35746
2024.99268	0.35469
2023.06411	0.35191
2021.13555	0.34913
2019.20698	0.34641
2017.27842	0.34374
2015.34985	0.34102
2013.42129	0.33827
2011.49272	0.33554
2009.56416	0.33286
2007.63560	0.33022
2005.70703	0.32753
2003.77847	0.32477
2001.84990	0.32205
1999.92134	0.31937
1997.99277	0.31668
1996.06421	0.31404
1994.13564	0.31157
1992.20708	0.30916
1990.27852	0.30671
1988.34995	0.30424
1986.42139	0.30167
1984.49282	0.29911
1982.56426	0.29676
1980.63569	0.29447
1978.70713	0.29214
1976.77856	0.28984
1974.85000	0.28760
1972.92144	0.28538
1970.99287	0.28330
1969.06431	0.28136
1967.13574	0.27939
1965.20718	0.27730
1963.27861	0.27524
1961.35005	0.27331
1959.42148	0.27148
1957.49292	0.26965
1955.56436	0.26780
1953.63579	0.26601
1951.70723	0.26434
1949.77866	0.26271
1947.85010	0.26102
1945.92153	0.25944
1943.99297	0.25811
1942.06440	0.25680
1940.13584	0.25528
1938.20728	0.25372
1936.27871	0.25227
1934.35015	0.25089
1932.42158	0.24962
1930.49302	0.24844
1928.56445	0.24740
1926.63589	0.24646
1924.70732	0.24552
1922.77876	0.24452
1920.85020	0.24347
1918.92163	0.24247
1916.99307	0.24154
1915.06450	0.24062
1913.13594	0.23976
1911.20737	0.23906
1909.27881	0.23849
1907.35024	0.23793
1905.42168	0.23719
1903.49312	0.23641
1901.56455	0.23580
1899.63599	0.23528
1897.70742	0.23486
1895.77886	0.23453
1893.85029	0.23416
1891.92173	0.23363
1889.99316	0.23324
1888.06460	0.23307
1886.13604	0.23295
1884.20747	0.23279
1882.27891	0.23265
1880.35034	0.23257
1878.42178	0.23247
1876.49321	0.23239
1874.56465	0.23236
1872.63608	0.23238
1870.70752	0.23254
1868.77896	0.23307
1866.85039	0.23347
1864.92183	0.23345
1862.99326	0.23347
1861.06470	0.23373
1859.13613	0.23419
1857.20757	0.23466
1855.27900	0.23510
1853.35044	0.23550
1851.42187	0.23598
1849.49331	0.23653
1847.56475	0.23723
1845.63618	0.23811
1843.70762	0.23911
1841.77905	0.23985
1839.85049	0.24029
1837.92192	0.24100
1835.99336	0.24187
1834.06479	0.24281
1832.13623	0.24384
1830.20767	0.24514
1828.27910	0.24661
1826.35054	0.24789
1824.42197	0.24924
1822.49341	0.25047
1820.56484	0.25173
1818.63628	0.25314
1816.70771	0.25479
1814.77915	0.25644
1812.85059	0.25815
1810.92202	0.26018
1808.99346	0.26234
1807.06489	0.26435
1805.13633	0.26617
1803.20776	0.26826
1801.27920	0.27077
1799.35063	0.27365
1797.42207	0.27624
1795.49351	0.27863
1793.56494	0.28144
1791.63638	0.28518
1789.70781	0.28883
1787.77925	0.29150
1785.85068	0.29457
1783.92212	0.29824
1781.99355	0.30224
1780.06499	0.30655
1778.13643	0.31099
1776.20786	0.31507
1774.27930	0.31926
1772.35073	0.32492
1770.42217	0.33130
1768.49360	0.33678
1766.56504	0.34204
1764.63647	0.34742
1762.70791	0.35325
1760.77935	0.36059
1758.85078	0.36762
1756.92222	0.37479
1754.99365	0.38262
1753.06509	0.38970
1751.13652	0.39803
1749.20796	0.40857
1747.27939	0.41915
1745.35083	0.42862
1743.42227	0.43861
1741.49370	0.44946
1739.56514	0.46210
1737.63657	0.47475
1735.70801	0.48562
1733.77944	0.50180
1731.85088	0.52155
1729.92231	0.53734
1727.99375	0.55325
1726.06519	0.57030
1724.13662	0.58882
1722.20806	0.60875
1720.27949	0.62714
1718.35093	0.64844
1716.42236	0.67994
1714.49380	0.71058
1712.56523	0.73571
1710.63667	0.75979
1708.70811	0.78531
1706.77954	0.81398
1704.85098	0.84799
1702.92241	0.87833
1700.99385	0.90808
1699.06528	0.95225
1697.13672	0.99308
1695.20815	1.03458
1693.27959	1.07449
1691.35103	1.10619
1689.42246	1.14232
1687.49390	1.17984
1685.56533	1.21503
1683.63677	1.26895
1681.70820	1.32629
1679.77964	1.36387
1677.85107	1.39914
1675.92251	1.43857
1673.99395	1.48665
1672.06538	1.52966
1670.13682	1.57207
1668.20825	1.62659
1666.27969	1.66961
1664.35112	1.70406
1662.42256	1.74616
1660.49399	1.79439
1658.56543	1.83239
1656.63687	1.86284
1654.70830	1.89142
1652.77974	1.94209
1650.85117	1.99592
1648.92261	2.01844
1646.99404	2.04597
1645.06548	2.07909
1643.13691	2.10263
1641.20835	2.11797
1639.27979	2.13045
1637.35122	2.13661
1635.42266	2.13764
1633.49409	2.13683
1631.56553	2.12940
1629.63696	2.11635
1627.70840	2.09339
1625.77983	2.06708
1623.85127	2.03367
1621.92271	1.99130
1619.99414	1.95277
1618.06558	1.91409
1616.13701	1.85746
1614.20845	1.79945
1612.27988	1.75529
1610.35132	1.70856
1608.42275	1.65734
1606.49419	1.60634
1604.56562	1.55877
1602.63706	1.51235
1600.70850	1.46626
1598.77993	1.42364
1596.85137	1.38367
1594.92280	1.34429
1592.99424	1.30584
1591.06567	1.27063
1589.13711	1.23753
1587.20854	1.20628
1585.27998	1.17688
1583.35142	1.14873
1581.42285	1.12229
1579.49429	1.09905
1577.56572	1.07745
1575.63716	1.05072
1573.70859	1.02700
1571.78003	1.01097
1569.85146	0.99311
1567.92290	0.97270
1565.99434	0.95652
1564.06577	0.94240
1562.13721	0.93017
1560.20864	0.91898
1558.28008	0.89915
1556.35151	0.88205
1554.42295	0.87219
1552.49438	0.86213
1550.56582	0.85197
1548.63726	0.84150
1546.70869	0.83209
1544.78013	0.82365
1542.85156	0.81538
1540.92300	0.80634
1538.99443	0.79442
1537.06587	0.78570
1535.13730	0.77972
1533.20874	0.77251
1531.28018	0.76502
1529.35161	0.75931
1527.42305	0.75374
1525.49448	0.74773
1523.56592	0.74201
1521.63735	0.73598
1519.70879	0.72954
1517.78022	0.72407
1515.85166	0.71870
1513.92310	0.71369
1511.99453	0.70954
1510.06597	0.70575
1508.13740	0.70205
1506.20884	0.69691
1504.28027	0.69227
1502.35171	0.68900
1500.42314	0.68584
1498.49458	0.68257
1496.56602	0.67910
1494.63745	0.67579
1492.70889	0.67298
1490.78032	0.67035
1488.85176	0.66722
1486.92319	0.66388
1484.99463	0.66080
1483.06606	0.65796
1481.13750	0.65505
1479.20894	0.65217
1477.28037	0.64960
1475.35181	0.64696
1473.42324	0.64390
1471.49468	0.64028
1469.56611	0.63707
1467.63755	0.63468
1465.70898	0.63261
1463.78042	0.63028
1461.85186	0.62789
1459.92329	0.62588
1457.99473	0.62396
1456.06616	0.62142
1454.13760	0.61865
1452.20903	0.61642
1450.28047	0.61463
1448.35190	0.61301
1446.42334	0.61124
1444.49478	0.60955
1442.56621	0.60805
1440.63765	0.60664
1438.70908	0.60541
1436.78052	0.60415
1434.85195	0.60273
1432.92339	0.60137
1430.99482	0.60008
1429.06626	0.59868
1427.13770	0.59728
1425.20913	0.59585
1423.28057	0.59434
1421.35200	0.59302
1419.42344	0.59180
1417.49487	0.59014
1415.56631	0.58820
1413.63774	0.58650
1411.70918	0.58504
1409.78062	0.58366
1407.85205	0.58229
1405.92349	0.58093
1403.99492	0.57959
1402.06636	0.57832
1400.13779	0.57715
1398.20923	0.57591
1396.28066	0.57458
1394.35210	0.57311
1392.42354	0.57161
1390.49497	0.57040
1388.56641	0.56941
1386.63784	0.56827
1384.70928	0.56692
1382.78071	0.56558
1380.85215	0.56441
1378.92358	0.56346
1376.99502	0.56256
1375.06646	0.56162
1373.13789	0.56063
1371.20933	0.55965
1369.28076	0.55872
1367.35220	0.55785
1365.42363	0.55700
1363.49507	0.55611
1361.56650	0.55512
1359.63794	0.55408
1357.70937	0.55317
1355.78081	0.55241
1353.85225	0.55166
1351.92368	0.55081
1349.99512	0.54995
1348.06655	0.54920
1346.13799	0.54845
1344.20942	0.54761
1342.28086	0.54674
1340.35229	0.54600
1338.42373	0.54519
1336.49517	0.54411
1334.56660	0.54304
1332.63804	0.54218
1330.70947	0.54139
1328.78091	0.54049
1326.85234	0.53957
1324.92378	0.53881
1322.99521	0.53821
1321.06665	0.53758
1319.13809	0.53674
1317.20952	0.53578
1315.28096	0.53492
1313.35239	0.53413
1311.42383	0.53327
1309.49526	0.53241
1307.56670	0.53171
1305.63813	0.53112
1303.70957	0.53049
1301.78101	0.52980
1299.85244	0.52903
1297.92388	0.52832
1295.99531	0.52767
1294.06675	0.52699
1292.13818	0.52629
1290.20962	0.52559
1288.28105	0.52506
1286.35249	0.52469
1284.42393	0.52434
1282.49536	0.52396
1280.56680	0.52343
1278.63823	0.52270
1276.70967	0.52213
1274.78110	0.52192
1272.85254	0.52172
1270.92397	0.52130
1268.99541	0.52072
1267.06685	0.52013
1265.13828	0.51966
1263.20972	0.51935
1261.28115	0.51905
1259.35259	0.51863
1257.42402	0.51815
1255.49546	0.51776
1253.56689	0.51747
1251.63833	0.51724
1249.70977	0.51708
1247.78120	0.51702
1245.85264	0.51689
1243.92407	0.51646
1241.99551	0.51588
1240.06694	0.51536
1238.13838	0.51496
1236.20981	0.51455
1234.28125	0.51405
1232.35269	0.51355
1230.42412	0.51303
1228.49556	0.51247
1226.56699	0.51192
1224.63843	0.51136
1222.70986	0.51067
1220.78130	0.50995
1218.85273	0.50932
1216.92417	0.50876
1214.99561	0.50825
1213.06704	0.50775
1211.13848	0.50720
1209.20991	0.50656
1207.28135	0.50590
1205.35278	0.50531
1203.42422	0.50479
1201.49565	0.50435
1199.56709	0.50388
1197.63853	0.50323
1195.70996	0.50255
1193.78140	0.50205
1191.85283	0.50168
1189.92427	0.50136
1187.99570	0.50108
1186.06714	0.50087
1184.13857	0.50070
1182.21001	0.50059
1180.28145	0.50058
1178.35288	0.50081
1176.42432	0.50118
1174.49575	0.50148
1172.56719	0.50162
1170.63862	0.50168
1168.71006	0.50190
1166.78149	0.50220
1164.85293	0.50242
1162.92437	0.50254
1160.99580	0.50245
1159.06724	0.50202
1157.13867	0.50132
1155.21011	0.50049
1153.28154	0.49940
1151.35298	0.49791
1149.42441	0.49610
1147.49585	0.49423
1145.56729	0.49239
1143.63872	0.49028
1141.71016	0.48780
1139.78159	0.48532
1137.85303	0.48301
1135.92446	0.48074
1133.99590	0.47856
1132.06733	0.47667
1130.13877	0.47497
1128.21021	0.47334
1126.28164	0.47185
1124.35308	0.47053
1122.42451	0.46946
1120.49595	0.46874
1118.56738	0.46835
1116.63882	0.46792
1114.71025	0.46731
1112.78169	0.46700
1110.85312	0.46736
1108.92456	0.46827
1106.99600	0.46937
1105.06743	0.47032
1103.13887	0.47148
1101.21030	0.47317
1099.28174	0.47542
1097.35317	0.47830
1095.42461	0.48149
1093.49604	0.48470
1091.56748	0.48841
1089.63892	0.49301
1087.71035	0.49837
1085.78179	0.50422
1083.85322	0.51042
1081.92466	0.51672
1079.99609	0.52230
1078.06753	0.52611
1076.13896	0.52748
1074.21040	0.52609
1072.28184	0.52220
1070.35327	0.51661
1068.42471	0.51011
1066.49614	0.50327
1064.56758	0.49678
1062.63901	0.49129
1060.71045	0.48666
1058.78188	0.48238
1056.85332	0.47829
1054.92476	0.47465
1052.99619	0.47159
1051.06763	0.46906
1049.13906	0.46720
1047.21050	0.46576
1045.28193	0.46438
1043.35337	0.46323
1041.42480	0.46240
1039.49624	0.46167
1037.56768	0.46109
1035.63911	0.46084
1033.71055	0.46083
1031.78198	0.46105
1029.85342	0.46138
1027.92485	0.46166
1025.99629	0.46200
1024.06772	0.46274
1022.13916	0.46399
1020.21060	0.46535
1018.28203	0.46650
1016.35347	0.46757
1014.42490	0.46878
1012.49634	0.47025
1010.56777	0.47190
1008.63921	0.47366
1006.71064	0.47566
1004.78208	0.47793
1002.85352	0.48032
1000.92495	0.48290
998.99639	0.48583
997.06782	0.48922
995.13926	0.49310
993.21069	0.49708
991.28213	0.50057
989.35356	0.50329
987.42500	0.50522
985.49644	0.50650
983.56787	0.50753
981.63931	0.50881
979.71074	0.51062
977.78218	0.51294
975.85361	0.51569
973.92505	0.51867
971.99648	0.52177
970.06792	0.52528
968.13936	0.52939
966.21079	0.53393
964.28223	0.53865
962.35366	0.54341
960.42510	0.54850
958.49653	0.55423
956.56797	0.56026
954.63940	0.56615
952.71084	0.57215
950.78228	0.57855
948.85371	0.58507
946.92515	0.59152
944.99658	0.59772
943.06802	0.60361
941.13945	0.60931
939.21089	0.61495
937.28232	0.62079
935.35376	0.62680
933.42520	0.63257
931.49663	0.63799
929.56807	0.64339
927.63950	0.64924
925.71094	0.65536
923.78237	0.66094
921.85381	0.66617
919.92524	0.67228
917.99668	0.67985
916.06812	0.68846
914.13955	0.69722
912.21099	0.70485
910.28242	0.71135
908.35386	0.71819
906.42529	0.72637
904.49673	0.73601
902.56816	0.74604
900.63960	0.75539
898.71104	0.76467
896.78247	0.77435
894.85391	0.78431
892.92534	0.79469
890.99678	0.80476
889.06821	0.81457
887.13965	0.82542
885.21108	0.83739
883.28252	0.84922
881.35396	0.86020
879.42539	0.87141
877.49683	0.88354
875.56826	0.89499
873.63970	0.90501
871.71113	0.91543
869.78257	0.92656
867.85400	0.93669
865.92544	0.94626
863.99687	0.95760
862.06831	0.97111
860.13975	0.98442
858.21118	0.99595
856.28262	1.00600
854.35405	1.01621
852.42549	1.02817
850.49692	1.04001
848.56836	1.05000
846.63979	1.05917
844.71123	1.06697
842.78267	1.07456
840.85410	1.08645
838.92554	1.10154
836.99697	1.11398
835.06841	1.12422
833.13984	1.13684
831.21128	1.15043
829.28271	1.16134
827.35415	1.16947
825.42559	1.17386
823.49702	1.17890
821.56846	1.19164
819.63989	1.20544
817.71133	1.21085
815.78276	1.21664
813.85420	1.22749
811.92563	1.23228
809.99707	1.23695
808.06851	1.25662
806.13994	1.28328
804.21138	1.30038
802.28281	1.31269
800.35425	1.32061
798.42568	1.30913
796.49712	1.28534
794.56855	1.27320
792.63999	1.28753
790.71143	1.31846
788.78286	1.31579
786.85430	1.25950
784.92573	1.21989
782.99717	1.22907
781.06860	1.25489
779.14004	1.27442
777.21147	1.27537
775.28291	1.24428
773.35435	1.22621
771.42578	1.26589
769.49722	1.29305
767.56865	1.21265
765.64009	1.11744
763.71152	1.07830
761.78296	1.08456
759.85439	1.11722
757.92583	1.14576
755.99727	1.15008
754.06870	1.15787
752.14014	1.13335
750.21157	1.05823
748.28301	1.00161
746.35444	1.00981
744.42588	1.02980
742.49731	0.95301
740.56875	0.85255
738.64019	0.80067
736.71162	0.76380
734.78306	0.71046
732.85449	0.63541
730.92593	0.55782
728.99736	0.52025
727.06880	0.50972
725.14023	0.48610
723.21167	0.47386
721.28311	0.46356
719.35454	0.39823
717.42598	0.29253
715.49741	0.18825
713.56885	0.12122
711.64028	0.09598
709.71172	0.12471
707.78315	0.19878
705.85459	0.15829
703.92603	0.03127
701.99746	-0.00722
700.06890	0.08904
698.14033	0.17018
696.21177	0.13709
694.28320	0.06064
692.35464	0.01384
690.42607	0.06281
688.49751	0.17575
686.56895	0.25339
684.64038	0.22495
682.71182	0.11691
680.78325	0.04132
678.85469	0.00642
676.92612	-0.02509
674.99756	-0.01960
673.06899	0.05034
671.14043	0.11764
669.21187	0.09599
667.28330	0.03167
665.35474	0.01458
663.42617	0.05887
661.49761	0.16100
659.56904	0.21064
657.64048	0.15052
655.71191	0.08852
653.78335	0.09519
651.85479	0.16231
649.92622	0.24017
647.99766	0.26627
646.06909	0.20733
644.14053	0.09613
642.21196	0.04444
640.28340	0.08217
638.35483	0.17421
636.42627	0.21111
634.49771	0.13534
632.56914	0.09899
630.64058	0.10385
628.71201	0.08004
626.78345	0.07837
624.85488	0.13523
622.92632	0.20826
620.99775	0.27495
619.06919	0.27202
617.14062	0.14834
615.21206	0.05977
613.28350	0.04584
611.35493	0.07784
609.42637	0.14233
607.49780	0.20675
605.56924	0.24431
603.64067	0.22878
601.71211	0.16658
599.78354	0.11419
597.85498	0.09597
595.92642	0.10958
593.99785	0.13680
592.06929	0.13100
590.14072	0.09859
588.21216	0.08458
586.28359	0.08814
584.35503	0.05307
582.42646	0.01641
580.49790	0.05524
578.56934	0.13368
576.64077	0.16020
574.71221	0.15700
572.78364	0.17720
570.85508	0.18924
568.92651	0.15231
566.99795	0.08440
565.06938	0.03433
563.14082	0.03836
561.21226	0.05690
559.28369	0.05655
557.35513	0.08199
555.42656	0.13292
553.49800	0.14248
551.56943	0.15692
549.64087	0.20060
547.71230	0.23262
545.78374	0.22919
543.85518	0.20920
541.92661	0.18924
539.99805	0.18257
538.06948	0.16285
536.14092	0.13358
534.21235	0.12769
532.28379	0.13631
530.35522	0.12416
528.42666	0.07446
526.49810	0.03242
524.56953	0.00565
522.64097	0.02019
520.71240	0.11274
518.78384	0.19544
516.85527	0.17559
514.92671	0.15024
512.99814	0.14096
511.06958	0.10248
509.14102	0.05002
507.21245	0.05322
505.28389	0.10616
503.35532	0.12642
501.42676	0.11635
499.49819	0.14372
