3997.91411	0.07721
3995.98555	0.07772
3994.05698	0.07843
3992.12842	0.07900
3990.19985	0.07932
3988.27129	0.07955
3986.34272	0.07964
3984.41416	0.07984
3982.48560	0.08020
3980.55703	0.08034
3978.62847	0.08046
3976.69990	0.08091
3974.77134	0.08140
3972.84277	0.08169
3970.91421	0.08173
3968.98564	0.08156
3967.05708	0.08116
3965.12852	0.08087
3963.19995	0.08161
3961.27139	0.08310
3959.34282	0.08394
3957.41426	0.08380
3955.48569	0.08350
3953.55713	0.08370
3951.62856	0.08449
3949.70000	0.08557
3947.77144	0.08619
3945.84287	0.08591
3943.91431	0.08593
3941.98574	0.08643
3940.05718	0.08552
3938.12861	0.08366
3936.20005	0.08271
3934.27148	0.08344
3932.34292	0.08559
3930.41436	0.08731
3928.48579	0.08669
3926.55723	0.08577
3924.62866	0.08686
3922.70010	0.08770
3920.77153	0.08681
3918.84297	0.08675
3916.91440	0.08774
3914.98584	0.08694
3913.05728	0.08412
3911.12871	0.08168
3909.20015	0.08101
3907.27158	0.08298
3905.34302	0.08794
3903.41445	0.09372
3901.48589	0.09652
3899.55732	0.09557
3897.62876	0.09153
3895.70020	0.08702
3893.77163	0.08605
3891.84307	0.08869
3889.91450	0.08977
3887.98594	0.08788
3886.05737	0.08839
3884.12881	0.09107
3882.20024	0.09226
3880.27168	0.09266
3878.34312	0.09106
3876.41455	0.08857
3874.48599	0.08953
3872.55742	0.09330
3870.62886	0.09706
3868.70029	0.09848
3866.77173	0.09667
3864.84316	0.09617
3862.91460	0.09690
3860.98604	0.09453
3859.05747	0.09166
3857.12891	0.09247
3855.20034	0.09809
3853.27178	0.10804
3851.34321	0.11087
3849.41465	0.10185
3847.48608	0.09426
3845.55752	0.09227
3843.62896	0.09522
3841.70039	0.10065
3839.77183	0.10642
3837.84326	0.11017
3835.91470	0.10863
3833.98613	0.10484
3832.05757	0.10228
3830.12900	0.10028
3828.20044	0.09943
3826.27187	0.10082
3824.34331	0.10327
3822.41475	0.10759
3820.48618	0.11472
3818.55762	0.11698
3816.62905	0.11437
3814.70049	0.11122
3812.77192	0.10635
3810.84336	0.10297
3808.91479	0.10401
3806.98623	0.10909
3805.05767	0.11409
3803.12910	0.11753
3801.20054	0.12183
3799.27197	0.12264
3797.34341	0.11990
3795.41484	0.11788
3793.48628	0.11534
3791.55771	0.11329
3789.62915	0.11348
3787.70059	0.11540
3785.77202	0.11862
3783.84346	0.12172
3781.91489	0.12327
3779.98633	0.12527
3778.05776	0.12752
3776.12920	0.12710
3774.20063	0.12640
3772.27207	0.12840
3770.34351	0.13314
3768.41494	0.13797
3766.48638	0.14030
3764.55781	0.14151
3762.62925	0.14260
3760.70068	0.14514
3758.77212	0.14990
3756.84355	0.15368
3754.91499	0.15624
3752.98643	0.16156
3751.05786	0.17160
3749.12930	0.18073
3747.20073	0.18266
3745.27217	0.18417
3743.34360	0.18870
3741.41504	0.19221
3739.48647	0.19563
3737.55791	0.20363
3735.62935	0.21768
3733.70078	0.23059
3731.77222	0.23432
3729.84365	0.23511
3727.91509	0.23847
3725.98652	0.24513
3724.05796	0.25209
3722.12939	0.25577
3720.20083	0.25622
3718.27227	0.25493
3716.34370	0.25479
3714.41514	0.25954
3712.48657	0.27318
3710.55801	0.29558
3708.62944	0.31348
3706.70088	0.32186
3704.77231	0.33028
3702.84375	0.34344
3700.91519	0.36079
3698.98662	0.37789
3697.05806	0.39348
3695.12949	0.41067
3693.20093	0.43033
3691.27236	0.45367
3689.34380	0.48306
3687.41523	0.51369
3685.48667	0.53697
3683.55811	0.55790
3681.62954	0.58376
3679.70098	0.61619
3677.77241	0.65252
3675.84385	0.69619
3673.91528	0.75048
3671.98672	0.79107
3670.05815	0.82806
3668.12959	0.87819
3666.20103	0.92063
3664.27246	0.95689
3662.34390	0.99907
3660.41533	1.04618
3658.48677	1.09358
3656.55820	1.14499
3654.62964	1.20126
3652.70107	1.24844
3650.77251	1.29363
3648.84395	1.35800
3646.91538	1.42754
3644.98682	1.47010
3643.05825	1.50282
3641.12969	1.54138
3639.20112	1.58746
3637.27256	1.63416
3635.34399	1.67924
3633.41543	1.72569
3631.48687	1.77086
3629.55830	1.81765
3627.62974	1.87634
3625.70117	1.92536
3623.77261	1.95539
3621.84404	1.98566
3619.91548	2.02316
3617.98691	2.06839
3616.05835	2.10904
3614.12979	2.14197
3612.20122	2.17846
3610.27266	2.21792
3608.34409	2.26067
3606.41553	2.30595
3604.48696	2.34533
3602.55840	2.38027
3600.62983	2.41974
3598.70127	2.46305
3596.77271	2.50472
3594.84414	2.54621
3592.91558	2.58692
3590.98701	2.62359
3589.05845	2.66003
3587.12988	2.70554
3585.20132	2.75109
3583.27275	2.78524
3581.34419	2.81797
3579.41562	2.85639
3577.48706	2.89966
3575.55850	2.94490
3573.62993	2.98965
3571.70137	3.03105
3569.77280	3.07198
3567.84424	3.11846
3565.91567	3.17448
3563.98711	3.22524
3562.05854	3.26405
3560.12998	3.30348
3558.20142	3.34618
3556.27285	3.38848
3554.34429	3.43166
3552.41572	3.48085
3550.48716	3.53177
3548.55859	3.57835
3546.63003	3.62461
3544.70146	3.67323
3542.77290	3.71991
3540.84434	3.76564
3538.91577	3.81273
3536.98721	3.85864
3535.05864	3.90473
3533.13008	3.95147
3531.20151	3.99828
3529.27295	4.04838
3527.34438	4.10370
3525.41582	4.15744
3523.48726	4.20606
3521.55869	4.25180
3519.63013	4.29703
3517.70156	4.34685
3515.77300	4.39769
3513.84443	4.44614
3511.91587	4.49601
3509.98730	4.54893
3508.05874	4.59985
3506.13018	4.64379
3504.20161	4.68651
3502.27305	4.73494
3500.34448	4.78546
3498.41592	4.83447
3496.48735	4.88514
3494.55879	4.93386
3492.63022	4.98024
3490.70166	5.03200
3488.77310	5.08586
3486.84453	5.13345
3484.91597	5.17913
3482.98740	5.23012
3481.05884	5.28458
3479.13027	5.33903
3477.20171	5.39374
3475.27314	5.44350
3473.34458	5.48365
3471.41602	5.52287
3469.48745	5.56558
3467.55889	5.61089
3465.63032	5.66554
3463.70176	5.72564
3461.77319	5.77789
3459.84463	5.82490
3457.91606	5.87363
3455.98750	5.93351
3454.05894	6.00357
3452.13037	6.06163
3450.20181	6.10126
3448.27324	6.13393
3446.34468	6.17216
3444.41611	6.22598
3442.48755	6.29012
3440.55898	6.34066
3438.63042	6.38355
3436.70186	6.44375
3434.77329	6.51386
3432.84473	6.57147
3430.91616	6.62167
3428.98760	6.68245
3427.05903	6.73221
3425.13047	6.76925
3423.20190	6.81182
3421.27334	6.85819
3419.34478	6.90237
3417.41621	6.94743
3415.48765	7.00194
3413.55908	7.04890
3411.63052	7.07670
3409.70195	7.09715
3407.77339	7.12216
3405.84482	7.15487
3403.91626	7.22306
3401.98770	7.32443
3400.05913	7.41332
3398.13057	7.45911
3396.20200	7.47011
3394.27344	7.49223
3392.34487	7.52745
3390.41631	7.57660
3388.48774	7.64370
3386.55918	7.70481
3384.63062	7.74225
3382.70205	7.79584
3380.77349	7.86251
3378.84492	7.87252
3376.91636	7.86923
3374.98779	7.90120
3373.05923	7.94211
3371.13066	7.94761
3369.20210	7.94281
3367.27354	7.98985
3365.34497	8.08284
3363.41641	8.15544
3361.48784	8.19750
3359.55928	8.24832
3357.63071	8.29303
3355.70215	8.31058
3353.77358	8.29243
3351.84502	8.29585
3349.91646	8.30818
3347.98789	8.30576
3346.05933	8.34590
3344.13076	8.40188
3342.20220	8.42108
3340.27363	8.42914
3338.34507	8.45439
3336.41650	8.47811
3334.48794	8.50683
3332.55937	8.47448
3330.63081	8.39671
3328.70225	8.37464
3326.77368	8.42327
3324.84512	8.47853
3322.91655	8.46796
3320.98799	8.48630
3319.05942	8.55931
3317.13086	8.62103
3315.20229	8.67402
3313.27373	8.71827
3311.34517	8.70020
3309.41660	8.63882
3307.48804	8.64909
3305.55947	8.69353
3303.63091	8.68507
3301.70234	8.64791
3299.77378	8.56796
3297.84521	8.43518
3295.91665	8.36336
3293.98809	8.41409
3292.05952	8.60243
3290.13096	8.86507
3288.20239	8.93502
3286.27383	8.81415
3284.34526	8.71677
3282.41670	8.65532
3280.48813	8.64757
3278.55957	8.71379
3276.63101	8.69504
3274.70244	8.62603
3272.77388	8.67662
3270.84531	8.70900
3268.91675	8.61430
3266.98818	8.55200
3265.05962	8.58107
3263.13105	8.60221
3261.20249	8.59498
3259.27393	8.57202
3257.34536	8.53560
3255.41680	8.61374
3253.48823	8.84169
3251.55967	8.96085
3249.63110	8.87419
3247.70254	8.85880
3245.77397	8.97043
3243.84541	9.01003
3241.91685	8.90164
3239.98828	8.77483
3238.05972	8.68904
3236.13115	8.60653
3234.20259	8.51949
3232.27402	8.49187
3230.34546	8.49030
3228.41689	8.44913
3226.48833	8.45012
3224.55977	8.54845
3222.63120	8.70646
3220.70264	8.80156
3218.77407	8.69992
3216.84551	8.50927
3214.91694	8.42187
3212.98838	8.41130
3211.05981	8.36777
3209.13125	8.31595
3207.20269	8.27881
3205.27412	8.20815
3203.34556	8.11095
3201.41699	8.07324
3199.48843	8.08632
3197.55986	8.10108
3195.63130	8.12478
3193.70273	8.08104
3191.77417	7.96914
3189.84561	7.90606
3187.91704	7.88125
3185.98848	7.83128
3184.05991	7.74746
3182.13135	7.64129
3180.20278	7.55491
3178.27422	7.49158
3176.34565	7.42914
3174.41709	7.38521
3172.48853	7.35420
3170.55996	7.29854
3168.63140	7.22465
3166.70283	7.16567
3164.77427	7.10510
3162.84570	7.01102
3160.91714	6.90686
3158.98857	6.83317
3157.06001	6.78371
3155.13145	6.72465
3153.20288	6.63822
3151.27432	6.53835
3149.34575	6.45330
3147.41719	6.39456
3145.48862	6.34248
3143.56006	6.27181
3141.63149	6.19426
3139.70293	6.12747
3137.77437	6.06251
3135.84580	5.98647
3133.91724	5.90567
3131.98867	5.82438
3130.06011	5.73460
3128.13154	5.64547
3126.20298	5.56662
3124.27441	5.49473
3122.34585	5.42416
3120.41729	5.34819
3118.48872	5.27078
3116.56016	5.20114
3114.63159	5.13704
3112.70303	5.07144
3110.77446	5.00262
3108.84590	4.93438
3106.91733	4.86738
3104.98877	4.79541
3103.06021	4.71730
3101.13164	4.63885
3099.20308	4.56543
3097.27451	4.49816
3095.34595	4.43730
3093.41738	4.38027
3091.48882	4.31834
3089.56025	4.25002
3087.63169	4.18230
3085.70312	4.11902
3083.77456	4.05796
3081.84600	3.99784
3079.91743	3.93850
3077.98887	3.87629
3076.06030	3.81113
3074.13174	3.74738
3072.20317	3.68802
3070.27461	3.63255
3068.34604	3.57690
3066.41748	3.51897
3064.48892	3.46122
3062.56035	3.40552
3060.63179	3.35122
3058.70322	3.29770
3056.77466	3.24458
3054.84609	3.19120
3052.91753	3.13774
3050.98896	3.08494
3049.06040	3.03321
3047.13184	2.98231
3045.20327	2.93146
3043.27471	2.88074
3041.34614	2.83185
3039.41758	2.78564
3037.48901	2.74005
3035.56045	2.69316
3033.63188	2.64607
3031.70332	2.60038
3029.77476	2.55554
3027.84619	2.51062
3025.91763	2.46616
3023.98906	2.42312
3022.06050	2.38171
3020.13193	2.34115
3018.20337	2.30021
3016.27480	2.25886
3014.34624	2.21866
3012.41768	2.18022
3010.48911	2.14261
3008.56055	2.10557
3006.63198	2.06926
3004.70342	2.03318
3002.77485	1.99693
3000.84629	1.96121
2998.91772	1.92698
2996.98916	1.89445
2995.06060	1.86289
2993.13203	1.83138
2991.20347	1.79995
2989.27490	1.76907
2987.34634	1.73913
2985.41777	1.70975
2983.48921	1.68054
2981.56064	1.65202
2979.63208	1.62427
2977.70352	1.59685
2975.77495	1.57008
2973.84639	1.54442
2971.91782	1.51945
2969.98926	1.49446
2968.06069	1.46942
2966.13213	1.44469
2964.20356	1.42019
2962.27500	1.39541
2960.34644	1.37029
2958.41787	1.34546
2956.48931	1.32144
2954.56074	1.29826
2952.63218	1.27532
2950.70361	1.25210
2948.77505	1.22898
2946.84648	1.20638
2944.91792	1.18430
2942.98936	1.16268
2941.06079	1.14156
2939.13223	1.12086
2937.20366	1.09997
2935.27510	1.07863
2933.34653	1.05747
2931.41797	1.03697
2929.48940	1.01744
2927.56084	0.99876
2925.63228	0.97972
2923.70371	0.96047
2921.77515	0.94290
2919.84658	0.92757
2917.91802	0.91300
2915.98945	0.89791
2914.06089	0.88240
2912.13232	0.86696
2910.20376	0.85173
2908.27520	0.83675
2906.34663	0.82224
2904.41807	0.80857
2902.48950	0.79569
2900.56094	0.78290
2898.63237	0.76982
2896.70381	0.75670
2894.77524	0.74408
2892.84668	0.73221
2890.91812	0.72073
2888.98955	0.70942
2887.06099	0.69841
2885.13242	0.68773
2883.20386	0.67725
2881.27529	0.66702
2879.34673	0.65726
2877.41816	0.64773
2875.48960	0.63799
2873.56104	0.62780
2871.63247	0.61716
2869.70391	0.60611
2867.77534	0.59483
2865.84678	0.58330
2863.91821	0.57133
2861.98965	0.55936
2860.06108	0.54791
2858.13252	0.53693
2856.20396	0.52663
2854.27539	0.51742
2852.34683	0.50924
2850.41826	0.50182
2848.48970	0.49472
2846.56113	0.48767
2844.63257	0.48088
2842.70400	0.47436
2840.77544	0.46809
2838.84687	0.46227
2836.91831	0.45671
2834.98975	0.45109
2833.06118	0.44523
2831.13262	0.43922
2829.20405	0.43341
2827.27549	0.42778
2825.34692	0.42195
2823.41836	0.41589
2821.48979	0.40990
2819.56123	0.40401
2817.63267	0.39822
2815.70410	0.39278
2813.77554	0.38743
2811.84697	0.38180
2809.91841	0.37621
2807.98984	0.37100
2806.06128	0.36606
2804.13271	0.36117
2802.20415	0.35624
2800.27559	0.35127
2798.34702	0.34623
2796.41846	0.34128
2794.48989	0.33665
2792.56133	0.33222
2790.63276	0.32787
2788.70420	0.32358
2786.77563	0.31916
2784.84707	0.31467
2782.91851	0.31035
2780.98994	0.30618
2779.06138	0.30216
2777.13281	0.29834
2775.20425	0.29459
2773.27568	0.29092
2771.34712	0.28734
2769.41855	0.28368
2767.48999	0.28003
2765.56143	0.27658
2763.63286	0.27321
2761.70430	0.26990
2759.77573	0.26673
2757.84717	0.26357
2755.91860	0.26035
2753.99004	0.25724
2752.06147	0.25436
2750.13291	0.25169
2748.20435	0.24902
2746.27578	0.24609
2744.34722	0.24310
2742.41865	0.24034
2740.49009	0.23770
2738.56152	0.23512
2736.63296	0.23268
2734.70439	0.23027
2732.77583	0.22778
2730.84727	0.22526
2728.91870	0.22284
2726.99014	0.22061
2725.06157	0.21856
2723.13301	0.21660
2721.20444	0.21453
2719.27588	0.21245
2717.34731	0.21052
2715.41875	0.20861
2713.49019	0.20670
2711.56162	0.20490
2709.63306	0.20321
2707.70449	0.20158
2705.77593	0.19993
2703.84736	0.19831
2701.91880	0.19680
2699.99023	0.19538
2698.06167	0.19396
2696.13311	0.19252
2694.20454	0.19109
2692.27598	0.18965
2690.34741	0.18813
2688.41885	0.18663
2686.49028	0.18547
2684.56172	0.18453
2682.63315	0.18343
2680.70459	0.18212
2678.77603	0.18087
2676.84746	0.17978
2674.91890	0.17873
2672.99033	0.17767
2671.06177	0.17654
2669.13320	0.17540
2667.20464	0.17450
2665.27607	0.17380
2663.34751	0.17298
2661.41895	0.17212
2659.49038	0.17124
2657.56182	0.17024
2655.63325	0.16935
2653.70469	0.16871
2651.77612	0.16819
2649.84756	0.16768
2647.91899	0.16712
2645.99043	0.16639
2644.06187	0.16559
2642.13330	0.16495
2640.20474	0.16445
2638.27617	0.16399
2636.34761	0.16365
2634.41904	0.16334
2632.49048	0.16292
2630.56191	0.16244
2628.63335	0.16198
2626.70479	0.16156
2624.77622	0.16117
2622.84766	0.16077
2620.91909	0.16037
2618.99053	0.16009
2617.06196	0.15995
2615.13340	0.15979
2613.20483	0.15964
2611.27627	0.15950
2609.34771	0.15931
2607.41914	0.15915
2605.49058	0.15902
2603.56201	0.15889
2601.63345	0.15881
2599.70488	0.15884
2597.77632	0.15894
2595.84775	0.15906
2593.91919	0.15922
2591.99062	0.15938
2590.06206	0.15949
2588.13350	0.15960
2586.20493	0.15975
2584.27637	0.15994
2582.34780	0.16016
2580.41924	0.16035
2578.49067	0.16054
2576.56211	0.16080
2574.63354	0.16117
2572.70498	0.16153
2570.77642	0.16180
2568.84785	0.16210
2566.91929	0.16242
2564.99072	0.16269
2563.06216	0.16300
2561.13359	0.16344
2559.20503	0.16400
2557.27646	0.16455
2555.34790	0.16499
2553.41934	0.16545
2551.49077	0.16608
2549.56221	0.16680
2547.63364	0.16745
2545.70508	0.16796
2543.77651	0.16831
2541.84795	0.16865
2539.91938	0.16922
2537.99082	0.17005
2536.06226	0.17086
2534.13369	0.17145
2532.20513	0.17188
2530.27656	0.17241
2528.34800	0.17311
2526.41943	0.17387
2524.49087	0.17471
2522.56230	0.17570
2520.63374	0.17661
2518.70518	0.17719
2516.77661	0.17763
2514.84805	0.17821
2512.91948	0.17897
2510.99092	0.17979
2509.06235	0.18061
2507.13379	0.18142
2505.20522	0.18221
2503.27666	0.18297
2501.34810	0.18380
2499.41953	0.18475
2497.49097	0.18570
2495.56240	0.18654
2493.63384	0.18724
2491.70527	0.18800
2489.77671	0.18893
2487.84814	0.18985
2485.91958	0.19063
2483.99102	0.19145
2482.06245	0.19246
2480.13389	0.19347
2478.20532	0.19426
2476.27676	0.19492
2474.34819	0.19568
2472.41963	0.19652
2470.49106	0.19737
2468.56250	0.19827
2466.63394	0.19921
2464.70537	0.20017
2462.77681	0.20120
2460.84824	0.20222
2458.91968	0.20310
2456.99111	0.20391
2455.06255	0.20481
2453.13398	0.20582
2451.20542	0.20681
2449.27686	0.20770
2447.34829	0.20854
2445.41973	0.20950
2443.49116	0.21057
2441.56260	0.21165
2439.63403	0.21268
2437.70547	0.21368
2435.77690	0.21469
2433.84834	0.21570
2431.91978	0.21674
2429.99121	0.21784
2428.06265	0.21900
2426.13408	0.22011
2424.20552	0.22112
2422.27695	0.22216
2420.34839	0.22324
2418.41982	0.22432
2416.49126	0.22548
2414.56270	0.22666
2412.63413	0.22773
2410.70557	0.22877
2408.77700	0.22993
2406.84844	0.23111
2404.91987	0.23221
2402.99131	0.23335
2401.06274	0.23457
2399.13418	0.23577
2397.20562	0.23695
2395.27705	0.23818
2393.34849	0.23954
2391.41992	0.24120
2389.49136	0.24350
2387.56279	0.24726
2385.63423	0.25406
2383.70566	0.26560
2381.77710	0.28241
2379.84854	0.30363
2377.91997	0.32815
2375.99141	0.35603
2374.06284	0.38812
2372.13428	0.42445
2370.20571	0.46391
2368.27715	0.50440
2366.34858	0.54270
2364.42002	0.57588
2362.49146	0.60069
2360.56289	0.61408
2358.63433	0.61451
2356.70576	0.59909
2354.77720	0.56708
2352.84863	0.52442
2350.92007	0.48089
2348.99150	0.45379
2347.06294	0.45436
2345.13437	0.48212
2343.20581	0.51777
2341.27725	0.53495
2339.34868	0.53485
2337.42012	0.52917
2335.49155	0.52312
2333.56299	0.51796
2331.63442	0.51464
2329.70586	0.51030
2327.77729	0.50187
2325.84873	0.49057
2323.92017	0.47869
2321.99160	0.46597
2320.06304	0.45068
2318.13447	0.43377
2316.20591	0.41902
2314.27734	0.40901
2312.34878	0.40274
2310.42021	0.39685
2308.49165	0.38887
2306.56309	0.37928
2304.63452	0.37048
2302.70596	0.36444
2300.77739	0.36063
2298.84883	0.35725
2296.92026	0.35392
2294.99170	0.35091
2293.06313	0.34800
2291.13457	0.34512
2289.20601	0.34256
2287.27744	0.34030
2285.34888	0.33838
2283.42031	0.33757
2281.49175	0.33870
2279.56318	0.34140
2277.63462	0.34459
2275.70605	0.34769
2273.77749	0.35052
2271.84893	0.35284
2269.92036	0.35464
2267.99180	0.35627
2266.06323	0.35800
2264.13467	0.35969
2262.20610	0.36118
2260.27754	0.36256
2258.34897	0.36394
2256.42041	0.36529
2254.49185	0.36664
2252.56328	0.36804
2250.63472	0.36948
2248.70615	0.37095
2246.77759	0.37259
2244.84902	0.37444
2242.92046	0.37630
2240.99189	0.37810
2239.06333	0.38005
2237.13477	0.38223
2235.20620	0.38444
2233.27764	0.38653
2231.34907	0.38851
2229.42051	0.39050
2227.49194	0.39254
2225.56338	0.39469
2223.63481	0.39695
2221.70625	0.39919
2219.77769	0.40137
2217.84912	0.40357
2215.92056	0.40580
2213.99199	0.40800
2212.06343	0.41015
2210.13486	0.41223
2208.20630	0.41428
2206.27773	0.41635
2204.34917	0.41848
2202.42061	0.42053
2200.49204	0.42243
2198.56348	0.42443
2196.63491	0.42657
2194.70635	0.42858
2192.77778	0.43037
2190.84922	0.43220
2188.92065	0.43415
2186.99209	0.43609
2185.06353	0.43797
2183.13496	0.43973
2181.20640	0.44135
2179.27783	0.44286
2177.34927	0.44427
2175.42070	0.44573
2173.49214	0.44735
2171.56357	0.44896
2169.63501	0.45044
2167.70645	0.45177
2165.77788	0.45293
2163.84932	0.45398
2161.92075	0.45509
2159.99219	0.45625
2158.06362	0.45730
2156.13506	0.45826
2154.20649	0.45906
2152.27793	0.45979
2150.34937	0.46047
2148.42080	0.46106
2146.49224	0.46164
2144.56367	0.46219
2142.63511	0.46264
2140.70654	0.46296
2138.77798	0.46318
2136.84941	0.46331
2134.92085	0.46337
2132.99229	0.46335
2131.06372	0.46328
2129.13516	0.46311
2127.20659	0.46280
2125.27803	0.46244
2123.34946	0.46205
2121.42090	0.46160
2119.49233	0.46111
2117.56377	0.46059
2115.63521	0.45992
2113.70664	0.45902
2111.77808	0.45809
2109.84951	0.45713
2107.92095	0.45605
2105.99238	0.45485
2104.06382	0.45367
2102.13525	0.45247
2100.20669	0.45111
2098.27812	0.44971
2096.34956	0.44838
2094.42100	0.44690
2092.49243	0.44526
2090.56387	0.44361
2088.63530	0.44191
2086.70674	0.44006
2084.77817	0.43812
2082.84961	0.43616
2080.92104	0.43417
2078.99248	0.43225
2077.06392	0.43033
2075.13535	0.42818
2073.20679	0.42577
2071.27822	0.42331
2069.34966	0.42099
2067.42109	0.41891
2065.49253	0.41683
2063.56396	0.41433
2061.63540	0.41164
2059.70684	0.40912
2057.77827	0.40660
2055.84971	0.40398
2053.92114	0.40137
2051.99258	0.39882
2050.06401	0.39624
2048.13545	0.39360
2046.20688	0.39098
2044.27832	0.38848
2042.34976	0.38592
2040.42119	0.38317
2038.49263	0.38035
2036.56406	0.37758
2034.63550	0.37483
2032.70693	0.37202
2030.77837	0.36915
2028.84980	0.36630
2026.92124	0.36351
2024.99268	0.36069
2023.06411	0.35789
2021.13555	0.35522
2019.20698	0.35278
2017.27842	0.35030
2015.34985	0.34731
2013.42129	0.34419
2011.49272	0.34139
2009.56416	0.33878
2007.63560	0.33617
2005.70703	0.33350
2003.77847	0.33076
2001.84990	0.32805
1999.92134	0.32540
1997.99277	0.32278
1996.06421	0.32027
1994.13564	0.31816
1992.20708	0.31622
1990.27852	0.31367
1988.34995	0.31067
1986.42139	0.30780
1984.49282	0.30514
1982.56426	0.30270
1980.63569	0.30040
1978.70713	0.29819
1976.77856	0.29603
1974.85000	0.29386
1972.92144	0.29164
1970.99287	0.28953
1969.06431	0.28780
1967.13574	0.28618
1965.20718	0.28395
1963.27861	0.28144
1961.35005	0.27934
1959.42148	0.27753
1957.49292	0.27578
1955.56436	0.27406
1953.63579	0.27234
1951.70723	0.27051
1949.77866	0.26873
1947.85010	0.26725
1945.92153	0.26618
1943.99297	0.26541
1942.06440	0.26425
1940.13584	0.26214
1938.20728	0.25990
1936.27871	0.25822
1934.35015	0.25682
1932.42158	0.25560
1930.49302	0.25445
1928.56445	0.25332
1926.63589	0.25243
1924.70732	0.25216
1922.77876	0.25196
1920.85020	0.25100
1918.92163	0.24999
1916.99307	0.24909
1915.06450	0.24761
1913.13594	0.24627
1911.20737	0.24576
1909.27881	0.24550
1907.35024	0.24475
1905.42168	0.24363
1903.49312	0.24271
1901.56455	0.24203
1899.63599	0.24147
1897.70742	0.24119
1895.77886	0.24113
1893.85029	0.24092
1891.92173	0.24074
1889.99316	0.24095
1888.06460	0.24063
1886.13604	0.23969
1884.20747	0.23907
1882.27891	0.23870
1880.35034	0.23845
1878.42178	0.23837
1876.49321	0.23838
1874.56465	0.23843
1872.63608	0.23891
1870.70752	0.24047
1868.77896	0.24277
1866.85039	0.24314
1864.92183	0.24141
1862.99326	0.24013
1861.06470	0.23995
1859.13613	0.24032
1857.20757	0.24063
1855.27900	0.24085
1853.35044	0.24121
1851.42187	0.24186
1849.49331	0.24294
1847.56475	0.24458
1845.63618	0.24669
1843.70762	0.24837
1841.77905	0.24807
1839.85049	0.24721
1837.92192	0.24763
1835.99336	0.24862
1834.06479	0.24953
1832.13623	0.25118
1830.20767	0.25400
1828.27910	0.25594
1826.35054	0.25649
1824.42197	0.25729
1822.49341	0.25773
1820.56484	0.25804
1818.63628	0.25910
1816.70771	0.26084
1814.77915	0.26262
1812.85059	0.26484
1810.92202	0.26751
1808.99346	0.26944
1807.06489	0.27069
1805.13633	0.27237
1803.20776	0.27518
1801.27920	0.27868
1799.35063	0.28184
1797.42207	0.28416
1795.49351	0.28683
1793.56494	0.29071
1791.63638	0.29502
1789.70781	0.29717
1787.77925	0.29816
1785.85068	0.30079
1783.92212	0.30472
1781.99355	0.30906
1780.06499	0.31349
1778.13643	0.31765
1776.20786	0.32196
1774.27930	0.32783
1772.35073	0.33570
1770.42217	0.34193
1768.49360	0.34530
1766.56504	0.34868
1764.63647	0.35320
1762.70791	0.35951
1760.77935	0.36746
1758.85078	0.37422
1756.92222	0.38096
1754.99365	0.38821
1753.06509	0.39524
1751.13652	0.40504
1749.20796	0.41730
1747.27939	0.42766
1745.35083	0.43584
1743.42227	0.44484
1741.49370	0.45515
1739.56514	0.46742
1737.63657	0.47977
1735.70801	0.49170
1733.77944	0.51037
1731.85088	0.52998
1729.92231	0.54343
1727.99375	0.55726
1726.06519	0.57311
1724.13662	0.59163
1722.20806	0.61218
1720.27949	0.63194
1718.35093	0.65655
1716.42236	0.69123
1714.49380	0.72031
1712.56523	0.74239
1710.63667	0.76508
1708.70811	0.79124
1706.77954	0.82215
1704.85098	0.85870
1702.92241	0.89062
1700.99385	0.92297
1699.06528	0.97145
1697.13672	1.01471
1695.20815	1.05708
1693.27959	1.09748
1691.35103	1.13133
1689.42246	1.17254
1687.49390	1.21675
1685.56533	1.26040
1683.63677	1.32703
1681.70820	1.39219
1679.77964	1.43204
1677.85107	1.47165
1675.92251	1.51901
1673.99395	1.57802
1672.06538	1.63115
1670.13682	1.68428
1668.20825	1.75103
1666.27969	1.80274
1664.35112	1.84758
1662.42256	1.90712
1660.49399	1.97490
1658.56543	2.02751
1656.63687	2.07179
1654.70830	2.11652
1652.77974	2.18394
1650.85117	2.23699
1648.92261	2.25362
1646.99404	2.27791
1645.06548	2.29941
1643.13691	2.31180
1641.20835	2.32059
1639.27979	2.33093
1637.35122	2.33938
1635.42266	2.34051
1633.49409	2.32955
1631.56553	2.31154
1629.63696	2.29182
1627.70840	2.26346
1625.77983	2.23220
1623.85127	2.19129
1621.92271	2.13737
1619.99414	2.08914
1618.06558	2.04506
1616.13701	1.98077
1614.20845	1.91157
1612.27988	1.85908
1610.35132	1.80700
1608.42275	1.75170
1606.49419	1.69659
1604.56562	1.64516
1602.63706	1.59548
1600.70850	1.54745
1598.77993	1.50369
1596.85137	1.46274
1594.92280	1.42280
1592.99424	1.38382
1591.06567	1.34796
1589.13711	1.31466
1587.20854	1.28380
1585.27998	1.25505
1583.35142	1.22834
1581.42285	1.20461
1579.49429	1.18533
1577.56572	1.16939
1575.63716	1.14943
1573.70859	1.12968
1571.78003	1.11711
1569.85146	1.10633
1567.92290	1.09410
1565.99434	1.08417
1564.06577	1.07751
1562.13721	1.07395
1560.20864	1.07537
1558.28008	1.08102
1556.35151	1.08012
1554.42295	1.07677
1552.49438	1.07484
1550.56582	1.07279
1548.63726	1.06896
1546.70869	1.06338
1544.78013	1.05649
1542.85156	1.04832
1540.92300	1.03545
1538.99443	1.00832
1537.06587	0.98430
1535.13730	0.96921
1533.20874	0.95121
1531.28018	0.93075
1529.35161	0.91590
1527.42305	0.90365
1525.49448	0.89156
1523.56592	0.88164
1521.63735	0.87238
1519.70879	0.86075
1517.78022	0.84975
1515.85166	0.83745
1513.92310	0.82430
1511.99453	0.81386
1510.06597	0.80657
1508.13740	0.80133
1506.20884	0.78846
1504.28027	0.77170
1502.35171	0.76217
1500.42314	0.75598
1498.49458	0.75076
1496.56602	0.74405
1494.63745	0.73576
1492.70889	0.72973
1490.78032	0.72651
1488.85176	0.72266
1486.92319	0.71614
1484.99463	0.70988
1483.06606	0.70570
1481.13750	0.70302
1479.20894	0.70103
1477.28037	0.70036
1475.35181	0.70154
1473.42324	0.70345
1471.49468	0.70219
1469.56611	0.69755
1467.63755	0.69386
1465.70898	0.69205
1463.78042	0.69045
1461.85186	0.68895
1459.92329	0.68959
1457.99473	0.69264
1456.06616	0.69275
1454.13760	0.68753
1452.20903	0.68293
1450.28047	0.68002
1448.35190	0.67793
1446.42334	0.67502
1444.49478	0.67150
1442.56621	0.66854
1440.63765	0.66625
1438.70908	0.66474
1436.78052	0.66302
1434.85195	0.65929
1432.92339	0.65559
1430.99482	0.65359
1429.06626	0.65225
1427.13770	0.65110
1425.20913	0.65108
1423.28057	0.65195
1421.35200	0.65291
1419.42344	0.65411
1417.49487	0.65357
1415.56631	0.65067
1413.63774	0.64850
1411.70918	0.64799
1409.78062	0.64846
1407.85205	0.64947
1405.92349	0.65117
1403.99492	0.65257
1402.06636	0.65283
1400.13779	0.65299
1398.20923	0.65285
1396.28066	0.65114
1394.35210	0.64736
1392.42354	0.64223
1390.49497	0.63769
1388.56641	0.63407
1386.63784	0.62990
1384.70928	0.62472
1382.78071	0.61988
1380.85215	0.61587
1378.92358	0.61263
1376.99502	0.61035
1375.06646	0.60911
1373.13789	0.60796
1371.20933	0.60648
1369.28076	0.60526
1367.35220	0.60389
1365.42363	0.60247
1363.49507	0.60172
1361.56650	0.60057
1359.63794	0.59835
1357.70937	0.59640
1355.78081	0.59506
1353.85225	0.59385
1351.92368	0.59276
1349.99512	0.59202
1348.06655	0.59139
1346.13799	0.59053
1344.20942	0.58962
1342.28086	0.58924
1340.35229	0.58953
1338.42373	0.58930
1336.49517	0.58801
1334.56660	0.58671
1332.63804	0.58604
1330.70947	0.58594
1328.78091	0.58621
1326.85234	0.58657
1324.92378	0.58693
1322.99521	0.58745
1321.06665	0.58815
1319.13809	0.58873
1317.20952	0.58890
1315.28096	0.58883
1313.35239	0.58856
1311.42383	0.58784
1309.49526	0.58693
1307.56670	0.58623
1305.63813	0.58569
1303.70957	0.58507
1301.78101	0.58429
1299.85244	0.58338
1297.92388	0.58243
1295.99531	0.58148
1294.06675	0.58045
1292.13818	0.57929
1290.20962	0.57801
1288.28105	0.57678
1286.35249	0.57571
1284.42393	0.57452
1282.49536	0.57318
1280.56680	0.57199
1278.63823	0.57090
1276.70967	0.56974
1274.78110	0.56860
1272.85254	0.56775
1270.92397	0.56718
1268.99541	0.56654
1267.06685	0.56566
1265.13828	0.56471
1263.20972	0.56391
1261.28115	0.56332
1259.35259	0.56273
1257.42402	0.56208
1255.49546	0.56152
1253.56689	0.56113
1251.63833	0.56100
1249.70977	0.56111
1247.78120	0.56117
1245.85264	0.56099
1243.92407	0.56047
1241.99551	0.55958
1240.06694	0.55839
1238.13838	0.55692
1236.20981	0.55514
1234.28125	0.55319
1232.35269	0.55123
1230.42412	0.54931
1228.49556	0.54740
1226.56699	0.54556
1224.63843	0.54389
1222.70986	0.54240
1220.78130	0.54095
1218.85273	0.53958
1216.92417	0.53843
1214.99561	0.53738
1213.06704	0.53637
1211.13848	0.53560
1209.20991	0.53502
1207.28135	0.53443
1205.35278	0.53378
1203.42422	0.53301
1201.49565	0.53208
1199.56709	0.53114
1197.63853	0.53036
1195.70996	0.52965
1193.78140	0.52893
1191.85283	0.52833
1189.92427	0.52789
1187.99570	0.52752
1186.06714	0.52738
1184.13857	0.52757
1182.21001	0.52803
1180.28145	0.52880
1178.35288	0.52990
1176.42432	0.53138
1174.49575	0.53293
1172.56719	0.53387
1170.63862	0.53408
1168.71006	0.53410
1166.78149	0.53419
1164.85293	0.53442
1162.92437	0.53464
1160.99580	0.53453
1159.06724	0.53412
1157.13867	0.53355
1155.21011	0.53282
1153.28154	0.53177
1151.35298	0.53007
1149.42441	0.52778
1147.49585	0.52530
1145.56729	0.52266
1143.63872	0.51994
1141.71016	0.51760
1139.78159	0.51573
1137.85303	0.51411
1135.92446	0.51273
1133.99590	0.51170
1132.06733	0.51090
1130.13877	0.51014
1128.21021	0.50937
1126.28164	0.50855
1124.35308	0.50781
1122.42451	0.50739
1120.49595	0.50727
1118.56738	0.50742
1116.63882	0.50792
1114.71025	0.50857
1112.78169	0.50908
1110.85312	0.50958
1108.92456	0.51039
1106.99600	0.51147
1105.06743	0.51259
1103.13887	0.51378
1101.21030	0.51523
1099.28174	0.51694
1097.35317	0.51896
1095.42461	0.52163
1093.49604	0.52526
1091.56748	0.52995
1089.63892	0.53565
1087.71035	0.54240
1085.78179	0.55000
1083.85322	0.55782
1081.92466	0.56490
1079.99609	0.57026
1078.06753	0.57312
1076.13896	0.57316
1074.21040	0.57057
1072.28184	0.56587
1070.35327	0.55979
1068.42471	0.55300
1066.49614	0.54603
1064.56758	0.53944
1062.63901	0.53371
1060.71045	0.52867
1058.78188	0.52395
1056.85332	0.51978
1054.92476	0.51638
1052.99619	0.51348
1051.06763	0.51086
1049.13906	0.50863
1047.21050	0.50696
1045.28193	0.50572
1043.35337	0.50465
1041.42480	0.50394
1039.49624	0.50380
1037.56768	0.50389
1035.63911	0.50375
1033.71055	0.50309
1031.78198	0.50210
1029.85342	0.50125
1027.92485	0.50039
1025.99629	0.49928
1024.06772	0.49831
1022.13916	0.49786
1020.21060	0.49777
1018.28203	0.49781
1016.35347	0.49788
1014.42490	0.49803
1012.49634	0.49859
1010.56777	0.49942
1008.63921	0.50001
1006.71064	0.50055
1004.78208	0.50173
1002.85352	0.50371
1000.92495	0.50629
998.99639	0.50950
997.06782	0.51342
995.13926	0.51773
993.21069	0.52196
991.28213	0.52552
989.35356	0.52792
987.42500	0.52911
985.49644	0.52945
983.56787	0.52949
981.63931	0.52987
979.71074	0.53093
977.78218	0.53253
975.85361	0.53451
973.92505	0.53698
971.99648	0.53999
970.06792	0.54321
968.13936	0.54652
966.21079	0.55018
964.28223	0.55450
962.35366	0.55951
960.42510	0.56485
958.49653	0.57018
956.56797	0.57570
954.63940	0.58194
952.71084	0.58878
950.78228	0.59549
948.85371	0.60181
946.92515	0.60819
944.99658	0.61483
943.06802	0.62133
941.13945	0.62750
939.21089	0.63332
937.28232	0.63890
935.35376	0.64463
933.42520	0.65070
931.49663	0.65665
929.56807	0.66230
927.63950	0.66798
925.71094	0.67392
923.78237	0.68014
921.85381	0.68673
919.92524	0.69361
917.99668	0.70056
916.06812	0.70803
914.13955	0.71625
912.21099	0.72477
910.28242	0.73341
908.35386	0.74216
906.42529	0.75062
904.49673	0.75881
902.56816	0.76767
900.63960	0.77780
898.71104	0.78828
896.78247	0.79789
894.85391	0.80699
892.92534	0.81701
890.99678	0.82823
889.06821	0.84011
887.13965	0.85225
885.21108	0.86350
883.28252	0.87376
881.35396	0.88480
879.42539	0.89644
877.49683	0.90774
875.56826	0.91917
873.63970	0.93066
871.71113	0.94274
869.78257	0.95590
867.85400	0.96869
865.92544	0.98014
863.99687	0.99083
862.06831	1.00146
860.13975	1.01228
858.21118	1.02352
856.28262	1.03545
854.35405	1.04773
852.42549	1.05994
850.49692	1.07293
848.56836	1.08689
846.63979	1.09937
844.71123	1.10943
842.78267	1.12033
840.85410	1.13314
838.92554	1.14563
836.99697	1.15802
835.06841	1.16988
833.13984	1.18195
831.21128	1.19726
829.28271	1.21492
827.35415	1.23356
825.42559	1.25288
823.49702	1.27324
821.56846	1.29193
819.63989	1.30089
817.71133	1.30471
815.78276	1.31917
813.85420	1.33998
811.92563	1.34894
809.99707	1.35551
808.06851	1.38879
806.13994	1.44055
804.21138	1.46062
802.28281	1.45913
800.35425	1.48539
798.42568	1.55021
796.49712	1.63729
794.56855	1.64908
792.63999	1.57624
790.71143	1.59322
788.78286	1.76342
786.85430	1.83938
784.92573	1.66077
782.99717	1.62428
781.06860	1.72554
779.14004	1.74350
777.21147	1.67385
775.28291	1.56610
773.35435	1.44542
771.42578	1.39292
769.49722	1.36776
767.56865	1.32598
765.64009	1.26810
763.71152	1.21493
761.78296	1.17114
759.85439	1.12642
757.92583	1.09711
755.99727	1.07625
754.06870	1.07007
752.14014	1.07765
750.21157	1.05606
748.28301	1.01684
746.35444	0.96096
744.42588	0.85815
742.49731	0.74740
740.56875	0.68161
738.64019	0.66075
736.71162	0.61669
734.78306	0.54344
732.85449	0.52449
730.92593	0.58091
728.99736	0.56957
727.06880	0.42762
725.14023	0.29806
723.21167	0.20972
721.28311	0.14123
719.35454	0.09962
717.42598	0.06937
715.49741	0.04158
713.56885	0.03268
711.64028	0.02343
709.71172	0.01914
707.78315	0.06495
705.85459	0.18452
703.92603	0.26063
701.99746	0.17727
700.06890	0.05910
698.14033	0.02161
696.21177	0.04591
694.28320	0.07352
692.35464	0.11575
690.42607	0.13522
688.49751	0.12304
686.56895	0.14971
684.64038	0.15715
682.71182	0.08188
680.78325	0.00314
678.85469	-0.01182
676.92612	0.04443
674.99756	0.15570
673.06899	0.21877
671.14043	0.19700
669.21187	0.16804
667.28330	0.16279
665.35474	0.14501
663.42617	0.10359
661.49761	0.05496
659.56904	0.00445
657.64048	-0.01303
655.71191	0.02688
653.78335	0.12497
651.85479	0.23939
649.92622	0.27424
647.99766	0.24931
646.06909	0.20400
644.14053	0.13880
642.21196	0.11596
640.28340	0.13962
638.35483	0.14079
636.42627	0.09620
634.49771	0.08846
632.56914	0.15264
630.64058	0.18448
628.71201	0.13197
626.78345	0.11159
624.85488	0.15933
622.92632	0.17544
620.99775	0.13480
619.06919	0.11972
617.14062	0.14207
615.21206	0.14312
613.28350	0.12031
611.35493	0.11092
609.42637	0.11921
607.49780	0.12128
605.56924	0.11645
603.64067	0.11086
601.71211	0.12069
599.78354	0.12949
597.85498	0.09647
595.92642	0.06451
593.99785	0.08959
592.06929	0.13812
590.14072	0.15340
588.21216	0.13282
586.28359	0.10332
584.35503	0.08115
582.42646	0.08134
580.49790	0.09496
578.56934	0.08033
576.64077	0.07088
574.71221	0.11910
572.78364	0.17794
570.85508	0.14115
568.92651	0.07688
566.99795	0.06976
565.06938	0.10427
563.14082	0.14481
561.21226	0.18317
559.28369	0.20559
557.35513	0.20944
555.42656	0.19488
553.49800	0.13777
551.56943	0.09104
549.64087	0.08756
547.71230	0.09260
545.78374	0.11206
543.85518	0.17278
541.92661	0.18289
539.99805	0.10595
538.06948	0.05396
536.14092	0.06723
534.21235	0.10741
532.28379	0.11601
530.35522	0.10649
528.42666	0.09596
526.49810	0.09354
524.56953	0.10271
522.64097	0.08346
520.71240	0.04990
518.78384	0.05905
516.85527	0.10233
514.92671	0.11328
512.99814	0.09137
511.06958	0.08288
509.14102	0.08026
507.21245	0.07209
505.28389	0.07734
503.35532	0.09016
501.42676	0.08697
499.49819	0.09317
