3997.91411	0.05845
3995.98555	0.05876
3994.05698	0.05891
3992.12842	0.05950
3990.19985	0.06035
3988.27129	0.06061
3986.34272	0.06032
3984.41416	0.06041
3982.48560	0.06082
3980.55703	0.06094
3978.62847	0.06094
3976.69990	0.06125
3974.77134	0.06182
3972.84277	0.06234
3970.91421	0.06264
3968.98564	0.06274
3967.05708	0.06282
3965.12852	0.06294
3963.19995	0.06322
3961.27139	0.06375
3959.34282	0.06408
3957.41426	0.06382
3955.48569	0.06337
3953.55713	0.06325
3951.62856	0.06363
3949.70000	0.06441
3947.77144	0.06521
3945.84287	0.06540
3943.91431	0.06509
3941.98574	0.06499
3940.05718	0.06491
3938.12861	0.06439
3936.20005	0.06403
3934.27148	0.06429
3932.34292	0.06479
3930.41436	0.06509
3928.48579	0.06491
3926.55723	0.06449
3924.62866	0.06445
3922.70010	0.06461
3920.77153	0.06443
3918.84297	0.06424
3916.91440	0.06436
3914.98584	0.06430
3913.05728	0.06388
3911.12871	0.06358
3909.20015	0.06344
3907.27158	0.06346
3905.34302	0.06394
3903.41445	0.06484
3901.48589	0.06539
3899.55732	0.06567
3897.62876	0.06583
3895.70020	0.06521
3893.77163	0.06452
3891.84307	0.06470
3889.91450	0.06488
3887.98594	0.06430
3886.05737	0.06431
3884.12881	0.06521
3882.20024	0.06596
3880.27168	0.06638
3878.34312	0.06627
3876.41455	0.06566
3874.48599	0.06565
3872.55742	0.06677
3870.62886	0.06821
3868.70029	0.06895
3866.77173	0.06856
3864.84316	0.06815
3862.91460	0.06856
3860.98604	0.06884
3859.05747	0.06859
3857.12891	0.06845
3855.20034	0.06881
3853.27178	0.07043
3851.34321	0.07268
3849.41465	0.07228
3847.48608	0.07076
3845.55752	0.07026
3843.62896	0.07125
3841.70039	0.07330
3839.77183	0.07539
3837.84326	0.07660
3835.91470	0.07683
3833.98613	0.07643
3832.05757	0.07571
3830.12900	0.07559
3828.20044	0.07631
3826.27187	0.07711
3824.34331	0.07757
3822.41475	0.07830
3820.48618	0.08029
3818.55762	0.08216
3816.62905	0.08310
3814.70049	0.08432
3812.77192	0.08460
3810.84336	0.08400
3808.91479	0.08420
3806.98623	0.08585
3805.05767	0.08810
3803.12910	0.08989
3801.20054	0.09193
3799.27197	0.09364
3797.34341	0.09374
3795.41484	0.09372
3793.48628	0.09434
3791.55771	0.09518
3789.62915	0.09596
3787.70059	0.09694
3785.77202	0.09864
3783.84346	0.10076
3781.91489	0.10249
3779.98633	0.10399
3778.05776	0.10569
3776.12920	0.10709
3774.20063	0.10824
3772.27207	0.10964
3770.34351	0.11166
3768.41494	0.11431
3766.48638	0.11663
3764.55781	0.11843
3762.62925	0.11998
3760.70068	0.12184
3758.77212	0.12477
3756.84355	0.12800
3754.91499	0.13043
3752.98643	0.13292
3751.05786	0.13651
3749.12930	0.14057
3747.20073	0.14309
3745.27217	0.14527
3743.34360	0.14926
3741.41504	0.15349
3739.48647	0.15681
3737.55791	0.16086
3735.62935	0.16695
3733.70078	0.17448
3731.77222	0.18041
3729.84365	0.18469
3727.91509	0.18890
3725.98652	0.19451
3724.05796	0.20128
3722.12939	0.20768
3720.20083	0.21370
3718.27227	0.21947
3716.34370	0.22521
3714.41514	0.23158
3712.48657	0.24050
3710.55801	0.25453
3708.62944	0.26989
3706.70088	0.28180
3704.77231	0.29277
3702.84375	0.30562
3700.91519	0.32215
3698.98662	0.34007
3697.05806	0.35701
3695.12949	0.37526
3693.20093	0.39502
3691.27236	0.41628
3689.34380	0.44321
3687.41523	0.47686
3685.48667	0.50703
3683.55811	0.53289
3681.62954	0.56044
3679.70098	0.59144
3677.77241	0.62396
3675.84385	0.66261
3673.91528	0.71536
3671.98672	0.75848
3670.05815	0.79632
3668.12959	0.84908
3666.20103	0.89781
3664.27246	0.93835
3662.34390	0.98160
3660.41533	1.02813
3658.48677	1.07399
3656.55820	1.12326
3654.62964	1.17870
3652.70107	1.22512
3650.77251	1.26545
3648.84395	1.32193
3646.91538	1.39063
3644.98682	1.44008
3643.05825	1.47835
3641.12969	1.51827
3639.20112	1.56261
3637.27256	1.60708
3635.34399	1.65023
3633.41543	1.69366
3631.48687	1.73463
3629.55830	1.77578
3627.62974	1.82910
3625.70117	1.87946
3623.77261	1.91395
3621.84404	1.94687
3619.91548	1.98442
3617.98691	2.02982
3616.05835	2.07389
3614.12979	2.11063
3612.20122	2.14847
3610.27266	2.18640
3608.34409	2.22623
3606.41553	2.27097
3604.48696	2.31293
3602.55840	2.34912
3600.62983	2.38679
3598.70127	2.42700
3596.77271	2.46629
3594.84414	2.50719
3592.91558	2.54981
3590.98701	2.58879
3589.05845	2.62442
3587.12988	2.66705
3585.20132	2.71422
3583.27275	2.75505
3581.34419	2.79273
3579.41562	2.83182
3577.48706	2.87360
3575.55850	2.91671
3573.62993	2.95983
3571.70137	3.00061
3569.77280	3.03947
3567.84424	3.08205
3565.91567	3.13503
3563.98711	3.18619
3562.05854	3.22857
3560.12998	3.27126
3558.20142	3.31638
3556.27285	3.36229
3554.34429	3.40721
3552.41572	3.45319
3550.48716	3.50014
3548.55859	3.54573
3546.63003	3.59112
3544.70146	3.63965
3542.77290	3.68961
3540.84434	3.73749
3538.91577	3.78381
3536.98721	3.82969
3535.05864	3.87698
3533.13008	3.92363
3531.20151	3.97046
3529.27295	4.01901
3527.34438	4.06781
3525.41582	4.11498
3523.48726	4.16184
3521.55869	4.21086
3519.63013	4.25911
3517.70156	4.30764
3515.77300	4.35764
3513.84443	4.40714
3511.91587	4.45655
3509.98730	4.50688
3508.05874	4.55797
3506.13018	4.60585
3504.20161	4.64600
3502.27305	4.68708
3500.34448	4.73825
3498.41592	4.79166
3496.48735	4.84275
3494.55879	4.89343
3492.63022	4.94301
3490.70166	4.98797
3488.77310	5.02871
3486.84453	5.07314
3484.91597	5.12296
3482.98740	5.17312
3481.05884	5.22710
3479.13027	5.28572
3477.20171	5.33943
3475.27314	5.38728
3473.34458	5.43245
3471.41602	5.47463
3469.48745	5.51877
3467.55889	5.56655
3465.63032	5.61305
3463.70176	5.66315
3461.77319	5.72424
3459.84463	5.78582
3457.91606	5.83009
3455.98750	5.86549
3454.05894	5.90682
3452.13037	5.95791
3450.20181	6.01638
3448.27324	6.06917
3446.34468	6.11563
3444.41611	6.15794
3442.48755	6.20447
3440.55898	6.26531
3438.63042	6.32811
3436.70186	6.38783
3434.77329	6.45884
3432.84473	6.53323
3430.91616	6.58326
3428.98760	6.61280
3427.05903	6.64827
3425.13047	6.69437
3423.20190	6.72512
3421.27334	6.75194
3419.34478	6.80517
3417.41621	6.87972
3415.48765	6.95289
3413.55908	7.00210
3411.63052	7.03022
3409.70195	7.07113
3407.77339	7.16718
3405.84482	7.28182
3403.91626	7.33424
3401.98770	7.31374
3400.05913	7.30662
3398.13057	7.35981
3396.20200	7.39211
3394.27344	7.37131
3392.34487	7.36526
3390.41631	7.41134
3388.48774	7.46334
3386.55918	7.51856
3384.63062	7.61805
3382.70205	7.68776
3380.77349	7.66336
3378.84492	7.65622
3376.91636	7.71692
3374.98779	7.75597
3373.05923	7.76842
3371.13066	7.78797
3369.20210	7.81316
3367.27354	7.82934
3365.34497	7.84195
3363.41641	7.88583
3361.48784	7.96600
3359.55928	8.02582
3357.63071	8.04910
3355.70215	8.10436
3353.77358	8.12831
3351.84502	8.07246
3349.91646	8.04982
3347.98789	8.13384
3346.05933	8.22032
3344.13076	8.21138
3342.20220	8.15145
3340.27363	8.06769
3338.34507	8.04567
3336.41650	8.11214
3334.48794	8.15931
3332.55937	8.13081
3330.63081	8.12131
3328.70225	8.16081
3326.77368	8.18412
3324.84512	8.18191
3322.91655	8.18501
3320.98799	8.18642
3319.05942	8.14514
3317.13086	8.12671
3315.20229	8.14136
3313.27373	8.15759
3311.34517	8.21052
3309.41660	8.25323
3307.48804	8.21052
3305.55947	8.16241
3303.63091	8.20029
3301.70234	8.20614
3299.77378	8.15432
3297.84521	8.18585
3295.91665	8.26029
3293.98809	8.22260
3292.05952	8.16780
3290.13096	8.25381
3288.20239	8.33653
3286.27383	8.30253
3284.34526	8.33425
3282.41670	8.41741
3280.48813	8.35568
3278.55957	8.27972
3276.63101	8.33130
3274.70244	8.37670
3272.77388	8.33954
3270.84531	8.33228
3268.91675	8.38490
3266.98818	8.41287
3265.05962	8.37066
3263.13105	8.34235
3261.20249	8.38588
3259.27393	8.39086
3257.34536	8.36159
3255.41680	8.39937
3253.48823	8.44324
3251.55967	8.43483
3249.63110	8.40968
3247.70254	8.32462
3245.77397	8.19095
3243.84541	8.15028
3241.91685	8.22358
3239.98828	8.33065
3238.05972	8.41101
3236.13115	8.46597
3234.20259	8.44858
3232.27402	8.30027
3230.34546	8.19959
3228.41689	8.23940
3226.48833	8.25654
3224.55977	8.19631
3222.63120	8.19915
3220.70264	8.29843
3218.77407	8.40783
3216.84551	8.42590
3214.91694	8.34633
3212.98838	8.26342
3211.05981	8.23234
3209.13125	8.22908
3207.20269	8.18089
3205.27412	8.06337
3203.34556	7.96337
3201.41699	7.91730
3199.48843	7.85170
3197.55986	7.76240
3195.63130	7.68431
3193.70273	7.63007
3191.77417	7.63172
3189.84561	7.64598
3187.91704	7.59794
3185.98848	7.52975
3184.05991	7.49429
3182.13135	7.45716
3180.20278	7.40178
3178.27422	7.36004
3176.34565	7.33999
3174.41709	7.29262
3172.48853	7.18272
3170.55996	7.08082
3168.63140	7.04752
3166.70283	7.01070
3164.77427	6.92387
3162.84570	6.85848
3160.91714	6.80780
3158.98857	6.73011
3157.06001	6.65861
3155.13145	6.59727
3153.20288	6.52691
3151.27432	6.45623
3149.34575	6.38521
3147.41719	6.31718
3145.48862	6.25388
3143.56006	6.18572
3141.63149	6.11600
3139.70293	6.03316
3137.77437	5.94199
3135.84580	5.87803
3133.91724	5.83019
3131.98867	5.76099
3130.06011	5.67770
3128.13154	5.60170
3126.20298	5.52822
3124.27441	5.45084
3122.34585	5.37664
3120.41729	5.30947
3118.48872	5.24003
3116.56016	5.16273
3114.63159	5.08309
3112.70303	5.00732
3110.77446	4.93784
3108.84590	4.87146
3106.91733	4.80441
3104.98877	4.73868
3103.06021	4.67575
3101.13164	4.61049
3099.20308	4.54099
3097.27451	4.46965
3095.34595	4.39852
3093.41738	4.33066
3091.48882	4.26635
3089.56025	4.20381
3087.63169	4.14046
3085.70312	4.07511
3083.77456	4.01154
3081.84600	3.95210
3079.91743	3.89262
3077.98887	3.82968
3076.06030	3.76576
3074.13174	3.70416
3072.20317	3.64547
3070.27461	3.58918
3068.34604	3.53309
3066.41748	3.47461
3064.48892	3.41587
3062.56035	3.35989
3060.63179	3.30589
3058.70322	3.25234
3056.77466	3.19819
3054.84609	3.14315
3052.91753	3.08864
3050.98896	3.03639
3049.06040	2.98622
3047.13184	2.93659
3045.20327	2.88662
3043.27471	2.83675
3041.34614	2.78778
3039.41758	2.73980
3037.48901	2.69242
3035.56045	2.64557
3033.63188	2.59976
3031.70332	2.55503
3029.77476	2.51036
3027.84619	2.46601
3025.91763	2.42311
3023.98906	2.38108
3022.06050	2.33876
3020.13193	2.29659
3018.20337	2.25589
3016.27480	2.21686
3014.34624	2.17875
3012.41768	2.14063
3010.48911	2.10220
3008.56055	2.06408
3006.63198	2.02654
3004.70342	1.99012
3002.77485	1.95523
3000.84629	1.92111
2998.91772	1.88693
2996.98916	1.85318
2995.06060	1.82067
2993.13203	1.78905
2991.20347	1.75781
2989.27490	1.72680
2987.34634	1.69607
2985.41777	1.66605
2983.48921	1.63687
2981.56064	1.60806
2979.63208	1.57955
2977.70352	1.55155
2975.77495	1.52389
2973.84639	1.49666
2971.91782	1.47016
2969.98926	1.44415
2968.06069	1.41857
2966.13213	1.39351
2964.20356	1.36875
2962.27500	1.34407
2960.34644	1.31951
2958.41787	1.29512
2956.48931	1.27097
2954.56074	1.24738
2952.63218	1.22456
2950.70361	1.20246
2948.77505	1.18039
2946.84648	1.15798
2944.91792	1.13630
2942.98936	1.11562
2941.06079	1.09506
2939.13223	1.07476
2937.20366	1.05482
2935.27510	1.03471
2933.34653	1.01481
2931.41797	0.99566
2929.48940	0.97708
2927.56084	0.95873
2925.63228	0.94055
2923.70371	0.92296
2921.77515	0.90614
2919.84658	0.88969
2917.91802	0.87333
2915.98945	0.85691
2914.06089	0.84080
2912.13232	0.82573
2910.20376	0.81162
2908.27520	0.79773
2906.34663	0.78368
2904.41807	0.76977
2902.48950	0.75661
2900.56094	0.74404
2898.63237	0.73158
2896.70381	0.71929
2894.77524	0.70728
2892.84668	0.69543
2890.91812	0.68384
2888.98955	0.67261
2887.06099	0.66165
2885.13242	0.65081
2883.20386	0.64024
2881.27529	0.63008
2879.34673	0.62014
2877.41816	0.61024
2875.48960	0.60040
2873.56104	0.59045
2871.63247	0.58014
2869.70391	0.56936
2867.77534	0.55863
2865.84678	0.54849
2863.91821	0.53841
2861.98965	0.52795
2860.06108	0.51748
2858.13252	0.50721
2856.20396	0.49725
2854.27539	0.48804
2852.34683	0.47976
2850.41826	0.47189
2848.48970	0.46406
2846.56113	0.45668
2844.63257	0.45003
2842.70400	0.44382
2840.77544	0.43781
2838.84687	0.43214
2836.91831	0.42675
2834.98975	0.42122
2833.06118	0.41549
2831.13262	0.40983
2829.20405	0.40430
2827.27549	0.39876
2825.34692	0.39304
2823.41836	0.38723
2821.48979	0.38148
2819.56123	0.37580
2817.63267	0.37031
2815.70410	0.36504
2813.77554	0.35972
2811.84697	0.35417
2809.91841	0.34866
2807.98984	0.34354
2806.06128	0.33869
2804.13271	0.33377
2802.20415	0.32876
2800.27559	0.32385
2798.34702	0.31921
2796.41846	0.31479
2794.48989	0.31037
2792.56133	0.30587
2790.63276	0.30153
2788.70420	0.29751
2786.77563	0.29354
2784.84707	0.28944
2782.91851	0.28535
2780.98994	0.28141
2779.06138	0.27764
2777.13281	0.27385
2775.20425	0.26990
2773.27568	0.26601
2771.34712	0.26247
2769.41855	0.25916
2767.48999	0.25576
2765.56143	0.25234
2763.63286	0.24905
2761.70430	0.24584
2759.77573	0.24272
2757.84717	0.23968
2755.91860	0.23667
2753.99004	0.23382
2752.06147	0.23110
2750.13291	0.22841
2748.20435	0.22577
2746.27578	0.22317
2744.34722	0.22053
2742.41865	0.21776
2740.49009	0.21495
2738.56152	0.21247
2736.63296	0.21027
2734.70439	0.20808
2732.77583	0.20583
2730.84727	0.20358
2728.91870	0.20141
2726.99014	0.19937
2725.06157	0.19726
2723.13301	0.19500
2721.20444	0.19286
2719.27588	0.19100
2717.34731	0.18924
2715.41875	0.18747
2713.49019	0.18585
2711.56162	0.18430
2709.63306	0.18256
2707.70449	0.18073
2705.77593	0.17910
2703.84736	0.17760
2701.91880	0.17602
2699.99023	0.17445
2698.06167	0.17299
2696.13311	0.17155
2694.20454	0.17012
2692.27598	0.16877
2690.34741	0.16754
2688.41885	0.16640
2686.49028	0.16521
2684.56172	0.16404
2682.63315	0.16297
2680.70459	0.16192
2678.77603	0.16074
2676.84746	0.15947
2674.91890	0.15831
2672.99033	0.15726
2671.06177	0.15630
2669.13320	0.15539
2667.20464	0.15446
2665.27607	0.15353
2663.34751	0.15277
2661.41895	0.15211
2659.49038	0.15133
2657.56182	0.15050
2655.63325	0.14980
2653.70469	0.14919
2651.77612	0.14861
2649.84756	0.14803
2647.91899	0.14739
2645.99043	0.14668
2644.06187	0.14605
2642.13330	0.14556
2640.20474	0.14505
2638.27617	0.14450
2636.34761	0.14409
2634.41904	0.14379
2632.49048	0.14341
2630.56191	0.14306
2628.63335	0.14286
2626.70479	0.14268
2624.77622	0.14237
2622.84766	0.14202
2620.91909	0.14171
2618.99053	0.14151
2617.06196	0.14144
2615.13340	0.14134
2613.20483	0.14116
2611.27627	0.14101
2609.34771	0.14089
2607.41914	0.14078
2605.49058	0.14072
2603.56201	0.14061
2601.63345	0.14051
2599.70488	0.14063
2597.77632	0.14087
2595.84775	0.14106
2593.91919	0.14124
2591.99062	0.14143
2590.06206	0.14153
2588.13350	0.14159
2586.20493	0.14177
2584.27637	0.14210
2582.34780	0.14238
2580.41924	0.14254
2578.49067	0.14273
2576.56211	0.14303
2574.63354	0.14345
2572.70498	0.14390
2570.77642	0.14425
2568.84785	0.14451
2566.91929	0.14484
2564.99072	0.14542
2563.06216	0.14619
2561.13359	0.14675
2559.20503	0.14700
2557.27646	0.14727
2555.34790	0.14782
2553.41934	0.14852
2551.49077	0.14917
2549.56221	0.14978
2547.63364	0.15034
2545.70508	0.15081
2543.77651	0.15131
2541.84795	0.15199
2539.91938	0.15272
2537.99082	0.15343
2536.06226	0.15417
2534.13369	0.15487
2532.20513	0.15552
2530.27656	0.15615
2528.34800	0.15684
2526.41943	0.15758
2524.49087	0.15834
2522.56230	0.15909
2520.63374	0.15988
2518.70518	0.16067
2516.77661	0.16135
2514.84805	0.16209
2512.91948	0.16298
2510.99092	0.16394
2509.06235	0.16489
2507.13379	0.16580
2505.20522	0.16660
2503.27666	0.16725
2501.34810	0.16795
2499.41953	0.16888
2497.49097	0.16982
2495.56240	0.17058
2493.63384	0.17130
2491.70527	0.17221
2489.77671	0.17321
2487.84814	0.17407
2485.91958	0.17485
2483.99102	0.17574
2482.06245	0.17676
2480.13389	0.17773
2478.20532	0.17857
2476.27676	0.17948
2474.34819	0.18045
2472.41963	0.18134
2470.49106	0.18217
2468.56250	0.18305
2466.63394	0.18397
2464.70537	0.18492
2462.77681	0.18589
2460.84824	0.18691
2458.91968	0.18793
2456.99111	0.18890
2455.06255	0.18986
2453.13398	0.19081
2451.20542	0.19168
2449.27686	0.19260
2447.34829	0.19361
2445.41973	0.19461
2443.49116	0.19566
2441.56260	0.19681
2439.63403	0.19796
2437.70547	0.19901
2435.77690	0.20001
2433.84834	0.20103
2431.91978	0.20207
2429.99121	0.20306
2428.06265	0.20405
2426.13408	0.20518
2424.20552	0.20639
2422.27695	0.20752
2420.34839	0.20857
2418.41982	0.20971
2416.49126	0.21089
2414.56270	0.21196
2412.63413	0.21304
2410.70557	0.21412
2408.77700	0.21517
2406.84844	0.21631
2404.91987	0.21755
2402.99131	0.21880
2401.06274	0.22004
2399.13418	0.22130
2397.20562	0.22256
2395.27705	0.22383
2393.34849	0.22514
2391.41992	0.22658
2389.49136	0.22821
2387.56279	0.23011
2385.63423	0.23254
2383.70566	0.23604
2381.77710	0.24091
2379.84854	0.24693
2377.91997	0.25379
2375.99141	0.26145
2374.06284	0.26997
2372.13428	0.27920
2370.20571	0.28885
2368.27715	0.29851
2366.34858	0.30787
2364.42002	0.31680
2362.49146	0.32459
2360.56289	0.32961
2358.63433	0.33053
2356.70576	0.32700
2354.77720	0.32070
2352.84863	0.31316
2350.92007	0.30495
2348.99150	0.29980
2347.06294	0.30080
2345.13437	0.30823
2343.20581	0.31799
2341.27725	0.32352
2339.34868	0.32474
2337.42012	0.32501
2335.49155	0.32539
2333.56299	0.32515
2331.63442	0.32492
2329.70586	0.32487
2327.77729	0.32398
2325.84873	0.32230
2323.92017	0.32080
2321.99160	0.31938
2320.06304	0.31731
2318.13447	0.31505
2316.20591	0.31351
2314.27734	0.31288
2312.34878	0.31274
2310.42021	0.31251
2308.49165	0.31187
2306.56309	0.31087
2304.63452	0.31007
2302.70596	0.31013
2300.77739	0.31078
2298.84883	0.31144
2296.92026	0.31216
2294.99170	0.31305
2293.06313	0.31398
2291.13457	0.31482
2289.20601	0.31567
2287.27744	0.31653
2285.34888	0.31738
2283.42031	0.31857
2281.49175	0.32045
2279.56318	0.32274
2277.63462	0.32501
2275.70605	0.32728
2273.77749	0.32962
2271.84893	0.33193
2269.92036	0.33409
2267.99180	0.33611
2266.06323	0.33803
2264.13467	0.33985
2262.20610	0.34168
2260.27754	0.34368
2258.34897	0.34572
2256.42041	0.34768
2254.49185	0.34967
2252.56328	0.35173
2250.63472	0.35377
2248.70615	0.35577
2246.77759	0.35785
2244.84902	0.35998
2242.92046	0.36211
2240.99189	0.36424
2239.06333	0.36635
2237.13477	0.36841
2235.20620	0.37048
2233.27764	0.37269
2231.34907	0.37502
2229.42051	0.37727
2227.49194	0.37937
2225.56338	0.38150
2223.63481	0.38376
2221.70625	0.38612
2219.77769	0.38842
2217.84912	0.39056
2215.92056	0.39265
2213.99199	0.39482
2212.06343	0.39698
2210.13486	0.39900
2208.20630	0.40100
2206.27773	0.40317
2204.34917	0.40548
2202.42061	0.40769
2200.49204	0.40974
2198.56348	0.41172
2196.63491	0.41361
2194.70635	0.41542
2192.77778	0.41733
2190.84922	0.41936
2188.92065	0.42134
2186.99209	0.42310
2185.06353	0.42473
2183.13496	0.42646
2181.20640	0.42822
2179.27783	0.42986
2177.34927	0.43146
2175.42070	0.43298
2173.49214	0.43447
2171.56357	0.43607
2169.63501	0.43759
2167.70645	0.43877
2165.77788	0.43983
2163.84932	0.44104
2161.92075	0.44229
2159.99219	0.44344
2158.06362	0.44451
2156.13506	0.44555
2154.20649	0.44657
2152.27793	0.44743
2150.34937	0.44803
2148.42080	0.44857
2146.49224	0.44916
2144.56367	0.44963
2142.63511	0.45003
2140.70654	0.45041
2138.77798	0.45073
2136.84941	0.45103
2134.92085	0.45130
2132.99229	0.45139
2131.06372	0.45125
2129.13516	0.45098
2127.20659	0.45064
2125.27803	0.45028
2123.34946	0.44980
2121.42090	0.44922
2119.49233	0.44866
2117.56377	0.44818
2115.63521	0.44767
2113.70664	0.44699
2111.77808	0.44608
2109.84951	0.44512
2107.92095	0.44416
2105.99238	0.44303
2104.06382	0.44178
2102.13525	0.44054
2100.20669	0.43925
2098.27812	0.43780
2096.34956	0.43623
2094.42100	0.43466
2092.49243	0.43317
2090.56387	0.43165
2088.63530	0.42998
2086.70674	0.42823
2084.77817	0.42631
2082.84961	0.42428
2080.92104	0.42227
2078.99248	0.42032
2077.06392	0.41836
2075.13535	0.41629
2073.20679	0.41408
2071.27822	0.41181
2069.34966	0.40954
2067.42109	0.40726
2065.49253	0.40499
2063.56396	0.40265
2061.63540	0.40024
2059.70684	0.39770
2057.77827	0.39510
2055.84971	0.39255
2053.92114	0.38997
2051.99258	0.38737
2050.06401	0.38480
2048.13545	0.38225
2046.20688	0.37966
2044.27832	0.37706
2042.34976	0.37448
2040.42119	0.37187
2038.49263	0.36919
2036.56406	0.36640
2034.63550	0.36347
2032.70693	0.36054
2030.77837	0.35772
2028.84980	0.35499
2026.92124	0.35229
2024.99268	0.34956
2023.06411	0.34686
2021.13555	0.34425
2019.20698	0.34166
2017.27842	0.33888
2015.34985	0.33593
2013.42129	0.33309
2011.49272	0.33041
2009.56416	0.32775
2007.63560	0.32500
2005.70703	0.32220
2003.77847	0.31960
2001.84990	0.31715
1999.92134	0.31457
1997.99277	0.31182
1996.06421	0.30916
1994.13564	0.30672
1992.20708	0.30433
1990.27852	0.30182
1988.34995	0.29927
1986.42139	0.29670
1984.49282	0.29423
1982.56426	0.29195
1980.63569	0.28973
1978.70713	0.28745
1976.77856	0.28517
1974.85000	0.28288
1972.92144	0.28057
1970.99287	0.27842
1969.06431	0.27650
1967.13574	0.27463
1965.20718	0.27258
1963.27861	0.27042
1961.35005	0.26833
1959.42148	0.26638
1957.49292	0.26461
1955.56436	0.26290
1953.63579	0.26110
1951.70723	0.25928
1949.77866	0.25763
1947.85010	0.25617
1945.92153	0.25483
1943.99297	0.25355
1942.06440	0.25213
1940.13584	0.25041
1938.20728	0.24872
1936.27871	0.24741
1934.35015	0.24628
1932.42158	0.24507
1930.49302	0.24382
1928.56445	0.24262
1926.63589	0.24151
1924.70732	0.24067
1922.77876	0.23993
1920.85020	0.23892
1918.92163	0.23781
1916.99307	0.23685
1915.06450	0.23599
1913.13594	0.23519
1911.20737	0.23450
1909.27881	0.23388
1907.35024	0.23324
1905.42168	0.23255
1903.49312	0.23187
1901.56455	0.23122
1899.63599	0.23062
1897.70742	0.23022
1895.77886	0.23000
1893.85029	0.22972
1891.92173	0.22931
1889.99316	0.22908
1888.06460	0.22890
1886.13604	0.22863
1884.20747	0.22839
1882.27891	0.22820
1880.35034	0.22800
1878.42178	0.22789
1876.49321	0.22787
1874.56465	0.22785
1872.63608	0.22792
1870.70752	0.22825
1868.77896	0.22894
1866.85039	0.22932
1864.92183	0.22915
1862.99326	0.22907
1861.06470	0.22922
1859.13613	0.22953
1857.20757	0.22987
1855.27900	0.23035
1853.35044	0.23096
1851.42187	0.23162
1849.49331	0.23224
1847.56475	0.23296
1845.63618	0.23395
1843.70762	0.23508
1841.77905	0.23577
1839.85049	0.23607
1837.92192	0.23671
1835.99336	0.23766
1834.06479	0.23864
1832.13623	0.23963
1830.20767	0.24112
1828.27910	0.24280
1826.35054	0.24395
1824.42197	0.24515
1822.49341	0.24633
1820.56484	0.24745
1818.63628	0.24874
1816.70771	0.25036
1814.77915	0.25203
1812.85059	0.25385
1810.92202	0.25600
1808.99346	0.25811
1807.06489	0.25996
1805.13633	0.26177
1803.20776	0.26402
1801.27920	0.26668
1799.35063	0.26960
1797.42207	0.27223
1795.49351	0.27467
1793.56494	0.27749
1791.63638	0.28115
1789.70781	0.28457
1787.77925	0.28711
1785.85068	0.29021
1783.92212	0.29393
1781.99355	0.29786
1780.06499	0.30202
1778.13643	0.30624
1776.20786	0.31014
1774.27930	0.31440
1772.35073	0.32031
1770.42217	0.32677
1768.49360	0.33213
1766.56504	0.33717
1764.63647	0.34233
1762.70791	0.34818
1760.77935	0.35573
1758.85078	0.36275
1756.92222	0.36962
1754.99365	0.37709
1753.06509	0.38395
1751.13652	0.39221
1749.20796	0.40266
1747.27939	0.41287
1745.35083	0.42170
1743.42227	0.43099
1741.49370	0.44125
1739.56514	0.45355
1737.63657	0.46605
1735.70801	0.47702
1733.77944	0.49374
1731.85088	0.51395
1729.92231	0.52956
1727.99375	0.54503
1726.06519	0.56178
1724.13662	0.58038
1722.20806	0.60066
1720.27949	0.61929
1718.35093	0.64090
1716.42236	0.67305
1714.49380	0.70387
1712.56523	0.72887
1710.63667	0.75303
1708.70811	0.77881
1706.77954	0.80791
1704.85098	0.84269
1702.92241	0.87362
1700.99385	0.90394
1699.06528	0.94957
1697.13672	0.99210
1695.20815	1.03538
1693.27959	1.07705
1691.35103	1.11051
1689.42246	1.14928
1687.49390	1.19036
1685.56533	1.22972
1683.63677	1.29052
1681.70820	1.35453
1679.77964	1.39549
1677.85107	1.43383
1675.92251	1.47775
1673.99395	1.53251
1672.06538	1.58152
1670.13682	1.62941
1668.20825	1.69118
1666.27969	1.74101
1664.35112	1.78297
1662.42256	1.83480
1660.49399	1.89292
1658.56543	1.93891
1656.63687	1.97639
1654.70830	2.00961
1652.77974	2.06183
1650.85117	2.11529
1648.92261	2.13784
1646.99404	2.16630
1645.06548	2.19662
1643.13691	2.21680
1641.20835	2.22972
1639.27979	2.24040
1637.35122	2.24724
1635.42266	2.25044
1633.49409	2.24570
1631.56553	2.23240
1629.63696	2.21586
1627.70840	2.18913
1625.77983	2.15755
1623.85127	2.11802
1621.92271	2.07031
1619.99414	2.02813
1618.06558	1.98682
1616.13701	1.92592
1614.20845	1.86150
1612.27988	1.81220
1610.35132	1.76224
1608.42275	1.70947
1606.49419	1.65789
1604.56562	1.60947
1602.63706	1.56156
1600.70850	1.51449
1598.77993	1.47124
1596.85137	1.43081
1594.92280	1.39183
1592.99424	1.35387
1591.06567	1.31857
1589.13711	1.28530
1587.20854	1.25415
1585.27998	1.22500
1583.35142	1.19721
1581.42285	1.17151
1579.49429	1.14972
1577.56572	1.13048
1575.63716	1.10695
1573.70859	1.08568
1571.78003	1.07161
1569.85146	1.05702
1567.92290	1.04073
1565.99434	1.02800
1564.06577	1.01743
1562.13721	1.00882
1560.20864	1.00259
1558.28008	0.99430
1556.35151	0.98665
1554.42295	0.98147
1552.49438	0.97611
1550.56582	0.97006
1548.63726	0.96301
1546.70869	0.95557
1544.78013	0.94686
1542.85156	0.93613
1540.92300	0.92227
1538.99443	0.90220
1537.06587	0.88732
1535.13730	0.87733
1533.20874	0.86411
1531.28018	0.84944
1529.35161	0.83869
1527.42305	0.82886
1525.49448	0.81853
1523.56592	0.80934
1521.63735	0.80043
1519.70879	0.79140
1517.78022	0.78389
1515.85166	0.77545
1513.92310	0.76645
1511.99453	0.75884
1510.06597	0.75251
1508.13740	0.74653
1506.20884	0.73651
1504.28027	0.72735
1502.35171	0.72217
1500.42314	0.71779
1498.49458	0.71330
1496.56602	0.70810
1494.63745	0.70267
1492.70889	0.69838
1490.78032	0.69499
1488.85176	0.69127
1486.92319	0.68728
1484.99463	0.68384
1483.06606	0.68118
1481.13750	0.67899
1479.20894	0.67704
1477.28037	0.67561
1475.35181	0.67475
1473.42324	0.67395
1471.49468	0.67203
1469.56611	0.66929
1467.63755	0.66672
1465.70898	0.66451
1463.78042	0.66268
1461.85186	0.66136
1459.92329	0.66061
1457.99473	0.65995
1456.06616	0.65808
1454.13760	0.65522
1452.20903	0.65251
1450.28047	0.65002
1448.35190	0.64772
1446.42334	0.64524
1444.49478	0.64276
1442.56621	0.64052
1440.63765	0.63844
1438.70908	0.63666
1436.78052	0.63455
1434.85195	0.63173
1432.92339	0.62924
1430.99482	0.62752
1429.06626	0.62623
1427.13770	0.62516
1425.20913	0.62441
1423.28057	0.62399
1421.35200	0.62368
1419.42344	0.62351
1417.49487	0.62291
1415.56631	0.62140
1413.63774	0.61982
1411.70918	0.61870
1409.78062	0.61805
1407.85205	0.61760
1405.92349	0.61733
1403.99492	0.61716
1402.06636	0.61665
1400.13779	0.61570
1398.20923	0.61426
1396.28066	0.61231
1394.35210	0.60974
1392.42354	0.60677
1390.49497	0.60409
1388.56641	0.60169
1386.63784	0.59895
1384.70928	0.59577
1382.78071	0.59277
1380.85215	0.59022
1378.92358	0.58815
1376.99502	0.58659
1375.06646	0.58544
1373.13789	0.58438
1371.20933	0.58346
1369.28076	0.58279
1367.35220	0.58192
1365.42363	0.58078
1363.49507	0.57968
1361.56650	0.57855
1359.63794	0.57721
1357.70937	0.57595
1355.78081	0.57485
1353.85225	0.57383
1351.92368	0.57290
1349.99512	0.57203
1348.06655	0.57113
1346.13799	0.57014
1344.20942	0.56914
1342.28086	0.56829
1340.35229	0.56761
1338.42373	0.56680
1336.49517	0.56576
1334.56660	0.56485
1332.63804	0.56428
1330.70947	0.56393
1328.78091	0.56366
1326.85234	0.56352
1324.92378	0.56348
1322.99521	0.56338
1321.06665	0.56328
1319.13809	0.56327
1317.20952	0.56301
1315.28096	0.56236
1313.35239	0.56153
1311.42383	0.56070
1309.49526	0.55993
1307.56670	0.55915
1305.63813	0.55830
1303.70957	0.55732
1301.78101	0.55635
1299.85244	0.55553
1297.92388	0.55478
1295.99531	0.55390
1294.06675	0.55284
1292.13818	0.55173
1290.20962	0.55077
1288.28105	0.54995
1286.35249	0.54912
1284.42393	0.54832
1282.49536	0.54750
1280.56680	0.54656
1278.63823	0.54555
1276.70967	0.54460
1274.78110	0.54379
1272.85254	0.54320
1270.92397	0.54271
1268.99541	0.54217
1267.06685	0.54162
1265.13828	0.54103
1263.20972	0.54044
1261.28115	0.53998
1259.35259	0.53954
1257.42402	0.53918
1255.49546	0.53896
1253.56689	0.53867
1251.63833	0.53833
1249.70977	0.53821
1247.78120	0.53814
1245.85264	0.53790
1243.92407	0.53743
1241.99551	0.53673
1240.06694	0.53576
1238.13838	0.53466
1236.20981	0.53356
1234.28125	0.53233
1232.35269	0.53096
1230.42412	0.52963
1228.49556	0.52841
1226.56699	0.52719
1224.63843	0.52588
1222.70986	0.52455
1220.78130	0.52332
1218.85273	0.52228
1216.92417	0.52144
1214.99561	0.52076
1213.06704	0.52019
1211.13848	0.51962
1209.20991	0.51894
1207.28135	0.51829
1205.35278	0.51776
1203.42422	0.51722
1201.49565	0.51650
1199.56709	0.51573
1197.63853	0.51503
1195.70996	0.51432
1193.78140	0.51353
1191.85283	0.51286
1189.92427	0.51253
1187.99570	0.51238
1186.06714	0.51226
1184.13857	0.51219
1182.21001	0.51224
1180.28145	0.51264
1178.35288	0.51343
1176.42432	0.51440
1174.49575	0.51539
1172.56719	0.51626
1170.63862	0.51690
1168.71006	0.51739
1166.78149	0.51792
1164.85293	0.51846
1162.92437	0.51886
1160.99580	0.51918
1159.06724	0.51933
1157.13867	0.51899
1155.21011	0.51820
1153.28154	0.51713
1151.35298	0.51561
1149.42441	0.51353
1147.49585	0.51112
1145.56729	0.50856
1143.63872	0.50592
1141.71016	0.50333
1139.78159	0.50101
1137.85303	0.49916
1135.92446	0.49788
1133.99590	0.49706
1132.06733	0.49643
1130.13877	0.49580
1128.21021	0.49509
1126.28164	0.49428
1124.35308	0.49354
1122.42451	0.49307
1120.49595	0.49280
1118.56738	0.49272
1116.63882	0.49283
1114.71025	0.49306
1112.78169	0.49347
1110.85312	0.49423
1108.92456	0.49522
1106.99600	0.49623
1105.06743	0.49736
1103.13887	0.49852
1101.21030	0.49961
1099.28174	0.50096
1097.35317	0.50284
1095.42461	0.50525
1093.49604	0.50852
1091.56748	0.51319
1089.63892	0.51938
1087.71035	0.52676
1085.78179	0.53499
1083.85322	0.54346
1081.92466	0.55115
1079.99609	0.55694
1078.06753	0.55992
1076.13896	0.55968
1074.21040	0.55665
1072.28184	0.55162
1070.35327	0.54512
1068.42471	0.53797
1066.49614	0.53102
1064.56758	0.52476
1062.63901	0.51920
1060.71045	0.51416
1058.78188	0.50964
1056.85332	0.50584
1054.92476	0.50287
1052.99619	0.50050
1051.06763	0.49832
1049.13906	0.49654
1047.21050	0.49554
1045.28193	0.49513
1043.35337	0.49503
1041.42480	0.49514
1039.49624	0.49539
1037.56768	0.49572
1035.63911	0.49600
1033.71055	0.49599
1031.78198	0.49536
1029.85342	0.49403
1027.92485	0.49245
1025.99629	0.49115
1024.06772	0.49026
1022.13916	0.48958
1020.21060	0.48910
1018.28203	0.48908
1016.35347	0.48930
1014.42490	0.48925
1012.49634	0.48900
1010.56777	0.48910
1008.63921	0.48974
1006.71064	0.49069
1004.78208	0.49179
1002.85352	0.49329
1000.92495	0.49546
998.99639	0.49847
997.06782	0.50237
995.13926	0.50691
993.21069	0.51140
991.28213	0.51494
989.35356	0.51700
987.42500	0.51769
985.49644	0.51768
983.56787	0.51765
981.63931	0.51798
979.71074	0.51887
977.78218	0.52066
975.85361	0.52320
973.92505	0.52605
971.99648	0.52912
970.06792	0.53232
968.13936	0.53576
966.21079	0.53979
964.28223	0.54422
962.35366	0.54887
960.42510	0.55409
958.49653	0.55979
956.56797	0.56549
954.63940	0.57137
952.71084	0.57751
950.78228	0.58369
948.85371	0.58996
946.92515	0.59622
944.99658	0.60251
943.06802	0.60879
941.13945	0.61478
939.21089	0.62088
937.28232	0.62721
935.35376	0.63315
933.42520	0.63856
931.49663	0.64391
929.56807	0.64958
927.63950	0.65562
925.71094	0.66185
923.78237	0.66822
921.85381	0.67480
919.92524	0.68149
917.99668	0.68855
916.06812	0.69601
914.13955	0.70344
912.21099	0.71121
910.28242	0.71922
908.35386	0.72681
906.42529	0.73478
904.49673	0.74378
902.56816	0.75323
900.63960	0.76282
898.71104	0.77286
896.78247	0.78282
894.85391	0.79182
892.92534	0.80061
890.99678	0.81019
889.06821	0.82104
887.13965	0.83290
885.21108	0.84421
883.28252	0.85444
881.35396	0.86500
879.42539	0.87704
877.49683	0.88978
875.56826	0.90217
873.63970	0.91443
871.71113	0.92709
869.78257	0.93995
867.85400	0.95171
865.92544	0.96238
863.99687	0.97347
862.06831	0.98470
860.13975	0.99574
858.21118	1.00796
856.28262	1.02043
854.35405	1.03071
852.42549	1.04069
850.49692	1.05317
848.56836	1.06588
846.63979	1.07714
844.71123	1.08903
842.78267	1.10074
840.85410	1.11024
838.92554	1.11988
836.99697	1.13292
835.06841	1.14758
833.13984	1.16000
831.21128	1.17053
829.28271	1.18246
827.35415	1.19688
825.42559	1.21184
823.49702	1.22348
821.56846	1.22979
819.63989	1.23890
817.71133	1.25275
815.78276	1.26505
813.85420	1.27896
811.92563	1.29182
809.99707	1.29530
808.06851	1.30084
806.13994	1.31883
804.21138	1.33649
802.28281	1.34746
800.35425	1.35286
798.42568	1.35589
796.49712	1.36118
794.56855	1.36619
792.63999	1.37995
790.71143	1.40893
788.78286	1.43215
786.85430	1.42735
784.92573	1.42686
782.99717	1.43176
781.06860	1.40486
779.14004	1.39145
777.21147	1.41539
775.28291	1.40345
773.35435	1.34181
771.42578	1.29254
769.49722	1.25162
767.56865	1.24535
765.64009	1.28943
763.71152	1.31130
761.78296	1.30583
759.85439	1.35404
757.92583	1.39835
755.99727	1.29188
754.06870	1.18638
752.14014	1.14712
750.21157	1.10672
748.28301	1.03014
746.35444	0.92899
744.42588	0.85278
742.49731	0.80736
740.56875	0.75759
738.64019	0.67826
736.71162	0.56303
734.78306	0.42986
732.85449	0.28097
730.92593	0.11500
728.99736	-0.23848
727.06880	4.36241
725.14023	4.35084
723.21167	4.33927
721.28311	4.32770
719.35454	-0.32100
717.42598	0.08381
715.49741	0.19379
713.56885	0.26347
711.64028	0.33430
709.71172	0.38306
707.78315	0.39490
705.85459	0.41320
703.92603	0.47377
701.99746	0.57463
700.06890	0.60968
698.14033	0.56814
696.21177	0.54710
694.28320	0.53509
692.35464	0.51179
690.42607	0.50246
688.49751	0.48457
686.56895	0.45301
684.64038	0.47030
682.71182	0.53663
680.78325	0.57402
678.85469	0.57915
676.92612	0.57743
674.99756	0.51791
673.06899	0.41685
671.14043	0.36685
669.21187	0.37755
667.28330	0.39840
665.35474	0.44302
663.42617	0.53774
661.49761	0.60319
659.56904	0.57708
657.64048	0.53063
655.71191	0.51859
653.78335	0.55747
651.85479	0.62637
649.92622	0.67164
647.99766	0.64100
646.06909	0.54334
644.14053	0.49978
642.21196	0.57978
640.28340	0.70842
638.35483	0.68584
636.42627	0.58545
634.49771	0.51842
632.56914	0.49578
630.64058	0.53567
628.71201	0.62161
626.78345	0.61875
624.85488	0.49253
622.92632	0.41799
620.99775	0.42204
619.06919	0.41756
617.14062	0.38227
615.21206	0.38183
613.28350	0.37661
611.35493	0.31849
609.42637	0.29072
607.49780	0.31736
605.56924	0.35441
603.64067	0.37824
601.71211	0.41641
599.78354	0.49900
597.85498	0.53629
595.92642	0.45445
593.99785	0.40699
592.06929	0.45417
590.14072	0.51300
588.21216	0.47204
586.28359	0.41933
584.35503	0.39479
582.42646	0.37343
580.49790	0.34772
578.56934	0.32795
576.64077	0.32668
574.71221	0.34213
572.78364	0.37866
570.85508	0.41738
568.92651	0.40968
566.99795	0.40449
565.06938	0.45060
563.14082	0.50060
561.21226	0.49321
559.28369	0.42499
557.35513	0.34964
555.42656	0.32556
553.49800	0.33515
551.56943	0.31834
549.64087	0.31763
547.71230	0.36363
545.78374	0.37474
543.85518	0.33171
541.92661	0.31444
539.99805	0.37381
538.06948	0.44874
536.14092	0.41292
534.21235	0.36707
532.28379	0.38118
530.35522	0.39166
528.42666	0.36114
526.49810	0.35624
524.56953	0.38798
522.64097	0.39860
520.71240	0.38289
518.78384	0.35576
516.85527	0.33403
514.92671	0.34799
512.99814	0.37265
511.06958	0.39670
509.14102	0.44024
507.21245	0.43856
505.28389	0.37928
503.35532	0.33712
501.42676	0.31368
499.49819	0.30401
