3997.91411	0.03834
3995.98555	0.03914
3994.05698	0.03952
3992.12842	0.03973
3990.19985	0.03993
3988.27129	0.04018
3986.34272	0.04055
3984.41416	0.04090
3982.48560	0.04125
3980.55703	0.04167
3978.62847	0.04186
3976.69990	0.04173
3974.77134	0.04172
3972.84277	0.04214
3970.91421	0.04281
3968.98564	0.04321
3967.05708	0.04325
3965.12852	0.04336
3963.19995	0.04372
3961.27139	0.04400
3959.34282	0.04394
3957.41426	0.04378
3955.48569	0.04371
3953.55713	0.04358
3951.62856	0.04345
3949.70000	0.04371
3947.77144	0.04414
3945.84287	0.04427
3943.91431	0.04445
3941.98574	0.04475
3940.05718	0.04442
3938.12861	0.04356
3936.20005	0.04288
3934.27148	0.04300
3932.34292	0.04403
3930.41436	0.04498
3928.48579	0.04486
3926.55723	0.04436
3924.62866	0.04447
3922.70010	0.04472
3920.77153	0.04468
3918.84297	0.04475
3916.91440	0.04491
3914.98584	0.04479
3913.05728	0.04444
3911.12871	0.04390
3909.20015	0.04338
3907.27158	0.04374
3905.34302	0.04529
3903.41445	0.04683
3901.48589	0.04700
3899.55732	0.04632
3897.62876	0.04554
3895.70020	0.04506
3893.77163	0.04519
3891.84307	0.04556
3889.91450	0.04549
3887.98594	0.04530
3886.05737	0.04582
3884.12881	0.04655
3882.20024	0.04671
3880.27168	0.04651
3878.34312	0.04587
3876.41455	0.04567
3874.48599	0.04673
3872.55742	0.04818
3870.62886	0.04895
3868.70029	0.04916
3866.77173	0.04944
3864.84316	0.05027
3862.91460	0.05075
3860.98604	0.05007
3859.05747	0.04942
3857.12891	0.04976
3855.20034	0.05118
3853.27178	0.05334
3851.34321	0.05383
3849.41465	0.05216
3847.48608	0.05116
3845.55752	0.05135
3843.62896	0.05240
3841.70039	0.05402
3839.77183	0.05574
3837.84326	0.05717
3835.91470	0.05779
3833.98613	0.05791
3832.05757	0.05825
3830.12900	0.05847
3828.20044	0.05857
3826.27187	0.05924
3824.34331	0.06029
3822.41475	0.06164
3820.48618	0.06381
3818.55762	0.06536
3816.62905	0.06580
3814.70049	0.06585
3812.77192	0.06534
3810.84336	0.06523
3808.91479	0.06613
3806.98623	0.06787
3805.05767	0.06969
3803.12910	0.07127
3801.20054	0.07329
3799.27197	0.07509
3797.34341	0.07588
3795.41484	0.07595
3793.48628	0.07561
3791.55771	0.07587
3789.62915	0.07699
3787.70059	0.07841
3785.77202	0.08005
3783.84346	0.08193
3781.91489	0.08373
3779.98633	0.08540
3778.05776	0.08700
3776.12920	0.08815
3774.20063	0.08925
3772.27207	0.09083
3770.34351	0.09302
3768.41494	0.09565
3766.48638	0.09812
3764.55781	0.10031
3762.62925	0.10210
3760.70068	0.10404
3758.77212	0.10703
3756.84355	0.11029
3754.91499	0.11263
3752.98643	0.11493
3751.05786	0.11852
3749.12930	0.12334
3747.20073	0.12720
3745.27217	0.13000
3743.34360	0.13313
3741.41504	0.13666
3739.48647	0.14055
3737.55791	0.14556
3735.62935	0.15213
3733.70078	0.15888
3731.77222	0.16387
3729.84365	0.16831
3727.91509	0.17328
3725.98652	0.17941
3724.05796	0.18603
3722.12939	0.19158
3720.20083	0.19640
3718.27227	0.20139
3716.34370	0.20691
3714.41514	0.21346
3712.48657	0.22325
3710.55801	0.23842
3708.62944	0.25407
3706.70088	0.26582
3704.77231	0.27683
3702.84375	0.28980
3700.91519	0.30636
3698.98662	0.32474
3697.05806	0.34228
3695.12949	0.36033
3693.20093	0.37951
3691.27236	0.40070
3689.34380	0.42731
3687.41523	0.45936
3685.48667	0.48850
3683.55811	0.51438
3681.62954	0.54223
3679.70098	0.57382
3677.77241	0.60713
3675.84385	0.64578
3673.91528	0.69687
3671.98672	0.73924
3670.05815	0.77746
3668.12959	0.82979
3666.20103	0.87824
3664.27246	0.91891
3662.34390	0.96196
3660.41533	1.00842
3658.48677	1.05444
3656.55820	1.10292
3654.62964	1.15694
3652.70107	1.20317
3650.77251	1.24329
3648.84395	1.29774
3646.91538	1.36504
3644.98682	1.41569
3643.05825	1.45516
3641.12969	1.49543
3639.20112	1.53971
3637.27256	1.58444
3635.34399	1.62791
3633.41543	1.67146
3631.48687	1.71249
3629.55830	1.75319
3627.62974	1.80529
3625.70117	1.85539
3623.77261	1.89014
3621.84404	1.92246
3619.91548	1.95899
3617.98691	2.00395
3616.05835	2.04763
3614.12979	2.08327
3612.20122	2.12052
3610.27266	2.15871
3608.34409	2.19771
3606.41553	2.24043
3604.48696	2.28130
3602.55840	2.31796
3600.62983	2.35706
3598.70127	2.39852
3596.77271	2.43765
3594.84414	2.47682
3592.91558	2.51757
3590.98701	2.55659
3589.05845	2.59284
3587.12988	2.63477
3585.20132	2.68144
3583.27275	2.72231
3581.34419	2.76018
3579.41562	2.79929
3577.48706	2.83913
3575.55850	2.88066
3573.62993	2.92520
3571.70137	2.96820
3569.77280	3.00701
3567.84424	3.04566
3565.91567	3.09381
3563.98711	3.14467
3562.05854	3.18811
3560.12998	3.23135
3558.20142	3.27787
3556.27285	3.32357
3554.34429	3.36491
3552.41572	3.40704
3550.48716	3.45395
3548.55859	3.50130
3546.63003	3.54610
3544.70146	3.59263
3542.77290	3.64086
3540.84434	3.68715
3538.91577	3.73224
3536.98721	3.77795
3535.05864	3.82609
3533.13008	3.87327
3531.20151	3.92029
3529.27295	3.96887
3527.34438	4.01683
3525.41582	4.06441
3523.48726	4.11279
3521.55869	4.16043
3519.63013	4.20500
3517.70156	4.24909
3515.77300	4.29275
3513.84443	4.33559
3511.91587	4.38185
3509.98730	4.43311
3508.05874	4.48446
3506.13018	4.53072
3504.20161	4.57373
3502.27305	4.62197
3500.34448	4.67379
3498.41592	4.71874
3496.48735	4.76222
3494.55879	4.81220
3492.63022	4.86447
3490.70166	4.91296
3488.77310	4.96090
3486.84453	5.00913
3484.91597	5.04887
3482.98740	5.08627
3481.05884	5.13762
3479.13027	5.19916
3477.20171	5.25322
3475.27314	5.29389
3473.34458	5.33200
3471.41602	5.37725
3469.48745	5.42540
3467.55889	5.46854
3465.63032	5.51021
3463.70176	5.56100
3461.77319	5.61205
3459.84463	5.65445
3457.91606	5.69813
3455.98750	5.74634
3454.05894	5.79393
3452.13037	5.84276
3450.20181	5.89271
3448.27324	5.93658
3446.34468	5.97778
3444.41611	6.02252
3442.48755	6.06820
3440.55898	6.10763
3438.63042	6.14627
3436.70186	6.18469
3434.77329	6.22025
3432.84473	6.26377
3430.91616	6.31309
3428.98760	6.36333
3427.05903	6.41116
3425.13047	6.46372
3423.20190	6.51865
3421.27334	6.55880
3419.34478	6.59443
3417.41621	6.64089
3415.48765	6.68508
3413.55908	6.72486
3411.63052	6.78015
3409.70195	6.83193
3407.77339	6.85399
3405.84482	6.86008
3403.91626	6.87936
3401.98770	6.90915
3400.05913	6.94047
3398.13057	6.97111
3396.20200	6.98997
3394.27344	7.00272
3392.34487	7.00404
3390.41631	7.02431
3388.48774	7.09870
3386.55918	7.17975
3384.63062	7.21264
3382.70205	7.22934
3380.77349	7.25694
3378.84492	7.27446
3376.91636	7.28874
3374.98779	7.31714
3373.05923	7.35081
3371.13066	7.37020
3369.20210	7.38791
3367.27354	7.37870
3365.34497	7.35238
3363.41641	7.38950
3361.48784	7.46431
3359.55928	7.48016
3357.63071	7.44881
3355.70215	7.46119
3353.77358	7.52039
3351.84502	7.55122
3349.91646	7.52956
3347.98789	7.52205
3346.05933	7.53144
3344.13076	7.52111
3342.20220	7.50569
3340.27363	7.49585
3338.34507	7.50639
3336.41650	7.52617
3334.48794	7.54241
3332.55937	7.52764
3330.63081	7.50022
3328.70225	7.52324
3326.77368	7.58098
3324.84512	7.60220
3322.91655	7.55722
3320.98799	7.51034
3319.05942	7.50572
3317.13086	7.54318
3315.20229	7.60080
3313.27373	7.64013
3311.34517	7.65735
3309.41660	7.66607
3307.48804	7.62767
3305.55947	7.55866
3303.63091	7.56082
3301.70234	7.61848
3299.77378	7.64082
3297.84521	7.62140
3295.91665	7.61067
3293.98809	7.61771
3292.05952	7.61986
3290.13096	7.59577
3288.20239	7.55557
3286.27383	7.53545
3284.34526	7.54302
3282.41670	7.56433
3280.48813	7.58383
3278.55957	7.60695
3276.63101	7.62353
3274.70244	7.63635
3272.77388	7.64250
3270.84531	7.63704
3268.91675	7.65797
3266.98818	7.67897
3265.05962	7.65377
3263.13105	7.61481
3261.20249	7.63102
3259.27393	7.66952
3257.34536	7.64341
3255.41680	7.59531
3253.48823	7.57570
3251.55967	7.53595
3249.63110	7.49341
3247.70254	7.52647
3245.77397	7.59307
3243.84541	7.60203
3241.91685	7.55725
3239.98828	7.53464
3238.05972	7.56604
3236.13115	7.61668
3234.20259	7.66759
3232.27402	7.69896
3230.34546	7.68251
3228.41689	7.62476
3226.48833	7.54299
3224.55977	7.46862
3222.63120	7.46534
3220.70264	7.51771
3218.77407	7.50599
3216.84551	7.41474
3214.91694	7.36068
3212.98838	7.39354
3211.05981	7.44701
3209.13125	7.45371
3207.20269	7.42071
3205.27412	7.36951
3203.34556	7.31857
3201.41699	7.28931
3199.48843	7.28827
3197.55986	7.29321
3195.63130	7.26597
3193.70273	7.21230
3191.77417	7.16311
3189.84561	7.12702
3187.91704	7.09713
3185.98848	7.06572
3184.05991	7.05255
3182.13135	7.06543
3180.20278	7.04945
3178.27422	6.97920
3176.34565	6.90527
3174.41709	6.84391
3172.48853	6.78430
3170.55996	6.74454
3168.63140	6.71531
3166.70283	6.66779
3164.77427	6.62241
3162.84570	6.59263
3160.91714	6.55329
3158.98857	6.50309
3157.06001	6.44250
3155.13145	6.36622
3153.20288	6.29763
3151.27432	6.25027
3149.34575	6.20130
3147.41719	6.13658
3145.48862	6.07359
3143.56006	6.01765
3141.63149	5.95397
3139.70293	5.88093
3137.77437	5.81141
3135.84580	5.74746
3133.91724	5.68761
3131.98867	5.63554
3130.06011	5.58019
3128.13154	5.50983
3126.20298	5.43535
3124.27441	5.36747
3122.34585	5.30304
3120.41729	5.23614
3118.48872	5.16000
3116.56016	5.08255
3114.63159	5.01684
3112.70303	4.95639
3110.77446	4.89265
3108.84590	4.82976
3106.91733	4.76932
3104.98877	4.70357
3103.06021	4.63386
3101.13164	4.56545
3099.20308	4.49649
3097.27451	4.43040
3095.34595	4.36938
3093.41738	4.30795
3091.48882	4.24429
3089.56025	4.18010
3087.63169	4.11545
3085.70312	4.05115
3083.77456	3.98754
3081.84600	3.92488
3079.91743	3.86482
3077.98887	3.80642
3076.06030	3.74795
3074.13174	3.68985
3072.20317	3.63143
3070.27461	3.57293
3068.34604	3.51657
3066.41748	3.46185
3064.48892	3.40694
3062.56035	3.35143
3060.63179	3.29612
3058.70322	3.24174
3056.77466	3.18781
3054.84609	3.13391
3052.91753	3.08115
3050.98896	3.03041
3049.06040	2.98030
3047.13184	2.93018
3045.20327	2.88061
3043.27471	2.83168
3041.34614	2.78401
3039.41758	2.73725
3037.48901	2.69044
3035.56045	2.64371
3033.63188	2.59739
3031.70332	2.55172
3029.77476	2.50682
3027.84619	2.46317
3025.91763	2.42062
3023.98906	2.37808
3022.06050	2.33575
3020.13193	2.29426
3018.20337	2.25370
3016.27480	2.21401
3014.34624	2.17477
3012.41768	2.13587
3010.48911	2.09757
3008.56055	2.06025
3006.63198	2.02436
3004.70342	1.98886
3002.77485	1.95251
3000.84629	1.91644
2998.91772	1.88215
2996.98916	1.84951
2995.06060	1.81757
2993.13203	1.78580
2991.20347	1.75446
2989.27490	1.72384
2987.34634	1.69365
2985.41777	1.66368
2983.48921	1.63429
2981.56064	1.60559
2979.63208	1.57756
2977.70352	1.55023
2975.77495	1.52312
2973.84639	1.49609
2971.91782	1.46953
2969.98926	1.44384
2968.06069	1.41907
2966.13213	1.39457
2964.20356	1.36995
2962.27500	1.34541
2960.34644	1.32112
2958.41787	1.29709
2956.48931	1.27342
2954.56074	1.25004
2952.63218	1.22643
2950.70361	1.20267
2948.77505	1.17978
2946.84648	1.15778
2944.91792	1.13615
2942.98936	1.11506
2941.06079	1.09440
2939.13223	1.07366
2937.20366	1.05291
2935.27510	1.03248
2933.34653	1.01277
2931.41797	0.99422
2929.48940	0.97626
2927.56084	0.95808
2925.63228	0.93990
2923.70371	0.92260
2921.77515	0.90633
2919.84658	0.89014
2917.91802	0.87339
2915.98945	0.85612
2914.06089	0.83893
2912.13232	0.82306
2910.20376	0.80850
2908.27520	0.79384
2906.34663	0.77911
2904.41807	0.76519
2902.48950	0.75175
2900.56094	0.73814
2898.63237	0.72491
2896.70381	0.71248
2894.77524	0.70024
2892.84668	0.68809
2890.91812	0.67619
2888.98955	0.66427
2887.06099	0.65277
2885.13242	0.64206
2883.20386	0.63169
2881.27529	0.62133
2879.34673	0.61103
2877.41816	0.60095
2875.48960	0.59121
2873.56104	0.58166
2871.63247	0.57175
2869.70391	0.56116
2867.77534	0.55028
2865.84678	0.53951
2863.91821	0.52896
2861.98965	0.51868
2860.06108	0.50878
2858.13252	0.49950
2856.20396	0.49080
2854.27539	0.48237
2852.34683	0.47422
2850.41826	0.46637
2848.48970	0.45836
2846.56113	0.45017
2844.63257	0.44228
2842.70400	0.43487
2840.77544	0.42810
2838.84687	0.42221
2836.91831	0.41681
2834.98975	0.41107
2833.06118	0.40487
2831.13262	0.39877
2829.20405	0.39293
2827.27549	0.38722
2825.34692	0.38148
2823.41836	0.37570
2821.48979	0.36994
2819.56123	0.36418
2817.63267	0.35858
2815.70410	0.35334
2813.77554	0.34824
2811.84697	0.34291
2809.91841	0.33743
2807.98984	0.33209
2806.06128	0.32705
2804.13271	0.32231
2802.20415	0.31761
2800.27559	0.31273
2798.34702	0.30784
2796.41846	0.30317
2794.48989	0.29875
2792.56133	0.29445
2790.63276	0.29012
2788.70420	0.28583
2786.77563	0.28171
2784.84707	0.27766
2782.91851	0.27362
2780.98994	0.26968
2779.06138	0.26584
2777.13281	0.26206
2775.20425	0.25834
2773.27568	0.25458
2771.34712	0.25087
2769.41855	0.24743
2767.48999	0.24426
2765.56143	0.24114
2763.63286	0.23796
2761.70430	0.23487
2759.77573	0.23181
2757.84717	0.22868
2755.91860	0.22565
2753.99004	0.22280
2752.06147	0.21990
2750.13291	0.21691
2748.20435	0.21407
2746.27578	0.21139
2744.34722	0.20878
2742.41865	0.20623
2740.49009	0.20373
2738.56152	0.20121
2736.63296	0.19867
2734.70439	0.19627
2732.77583	0.19407
2730.84727	0.19200
2728.91870	0.18995
2726.99014	0.18782
2725.06157	0.18566
2723.13301	0.18354
2721.20444	0.18145
2719.27588	0.17941
2717.34731	0.17751
2715.41875	0.17579
2713.49019	0.17414
2711.56162	0.17233
2709.63306	0.17049
2707.70449	0.16888
2705.77593	0.16753
2703.84736	0.16619
2701.91880	0.16462
2699.99023	0.16299
2698.06167	0.16152
2696.13311	0.16018
2694.20454	0.15891
2692.27598	0.15785
2690.34741	0.15680
2688.41885	0.15561
2686.49028	0.15439
2684.56172	0.15325
2682.63315	0.15220
2680.70459	0.15117
2678.77603	0.15009
2676.84746	0.14895
2674.91890	0.14787
2672.99033	0.14691
2671.06177	0.14603
2669.13320	0.14517
2667.20464	0.14432
2665.27607	0.14342
2663.34751	0.14249
2661.41895	0.14161
2659.49038	0.14086
2657.56182	0.14023
2655.63325	0.13962
2653.70469	0.13904
2651.77612	0.13858
2649.84756	0.13812
2647.91899	0.13751
2645.99043	0.13678
2644.06187	0.13621
2642.13330	0.13595
2640.20474	0.13577
2638.27617	0.13542
2636.34761	0.13498
2634.41904	0.13459
2632.49048	0.13427
2630.56191	0.13392
2628.63335	0.13348
2626.70479	0.13307
2624.77622	0.13283
2622.84766	0.13269
2620.91909	0.13255
2618.99053	0.13248
2617.06196	0.13247
2615.13340	0.13226
2613.20483	0.13184
2611.27627	0.13159
2609.34771	0.13161
2607.41914	0.13164
2605.49058	0.13157
2603.56201	0.13166
2601.63345	0.13188
2599.70488	0.13196
2597.77632	0.13196
2595.84775	0.13198
2593.91919	0.13207
2591.99062	0.13230
2590.06206	0.13252
2588.13350	0.13268
2586.20493	0.13297
2584.27637	0.13335
2582.34780	0.13363
2580.41924	0.13389
2578.49067	0.13422
2576.56211	0.13450
2574.63354	0.13475
2572.70498	0.13512
2570.77642	0.13554
2568.84785	0.13589
2566.91929	0.13622
2564.99072	0.13661
2563.06216	0.13706
2561.13359	0.13758
2559.20503	0.13810
2557.27646	0.13857
2555.34790	0.13916
2553.41934	0.13996
2551.49077	0.14075
2549.56221	0.14134
2547.63364	0.14174
2545.70508	0.14210
2543.77651	0.14266
2541.84795	0.14345
2539.91938	0.14430
2537.99082	0.14498
2536.06226	0.14560
2534.13369	0.14631
2532.20513	0.14699
2530.27656	0.14769
2528.34800	0.14849
2526.41943	0.14931
2524.49087	0.15005
2522.56230	0.15073
2520.63374	0.15141
2518.70518	0.15215
2516.77661	0.15301
2514.84805	0.15395
2512.91948	0.15485
2510.99092	0.15571
2509.06235	0.15654
2507.13379	0.15729
2505.20522	0.15807
2503.27666	0.15898
2501.34810	0.15991
2499.41953	0.16073
2497.49097	0.16147
2495.56240	0.16229
2493.63384	0.16329
2491.70527	0.16431
2489.77671	0.16517
2487.84814	0.16598
2485.91958	0.16690
2483.99102	0.16781
2482.06245	0.16864
2480.13389	0.16949
2478.20532	0.17045
2476.27676	0.17151
2474.34819	0.17251
2472.41963	0.17341
2470.49106	0.17433
2468.56250	0.17535
2466.63394	0.17630
2464.70537	0.17720
2462.77681	0.17829
2460.84824	0.17940
2458.91968	0.18027
2456.99111	0.18111
2455.06255	0.18208
2453.13398	0.18309
2451.20542	0.18405
2449.27686	0.18494
2447.34829	0.18590
2445.41973	0.18708
2443.49116	0.18839
2441.56260	0.18962
2439.63403	0.19065
2437.70547	0.19160
2435.77690	0.19257
2433.84834	0.19356
2431.91978	0.19465
2429.99121	0.19581
2428.06265	0.19688
2426.13408	0.19781
2424.20552	0.19884
2422.27695	0.20014
2420.34839	0.20143
2418.41982	0.20248
2416.49126	0.20343
2414.56270	0.20455
2412.63413	0.20588
2410.70557	0.20717
2408.77700	0.20836
2406.84844	0.20954
2404.91987	0.21070
2402.99131	0.21185
2401.06274	0.21315
2399.13418	0.21462
2397.20562	0.21606
2395.27705	0.21731
2393.34849	0.21842
2391.41992	0.21969
2389.49136	0.22130
2387.56279	0.22342
2385.63423	0.22656
2383.70566	0.23133
2381.77710	0.23788
2379.84854	0.24595
2377.91997	0.25515
2375.99141	0.26524
2374.06284	0.27662
2372.13428	0.28972
2370.20571	0.30412
2368.27715	0.31883
2366.34858	0.33264
2364.42002	0.34446
2362.49146	0.35355
2360.56289	0.35921
2358.63433	0.35998
2356.70576	0.35478
2354.77720	0.34488
2352.84863	0.33244
2350.92007	0.31974
2348.99150	0.31208
2347.06294	0.31331
2345.13437	0.32342
2343.20581	0.33606
2341.27725	0.34294
2339.34868	0.34451
2337.42012	0.34422
2335.49155	0.34359
2333.56299	0.34274
2331.63442	0.34214
2329.70586	0.34153
2327.77729	0.33997
2325.84873	0.33742
2323.92017	0.33464
2321.99160	0.33167
2320.06304	0.32777
2318.13447	0.32331
2316.20591	0.31960
2314.27734	0.31741
2312.34878	0.31661
2310.42021	0.31599
2308.49165	0.31455
2306.56309	0.31261
2304.63452	0.31094
2302.70596	0.31016
2300.77739	0.31009
2298.84883	0.31009
2296.92026	0.31016
2294.99170	0.31052
2293.06313	0.31096
2291.13457	0.31126
2289.20601	0.31158
2287.27744	0.31209
2285.34888	0.31275
2283.42031	0.31369
2281.49175	0.31538
2279.56318	0.31788
2277.63462	0.32062
2275.70605	0.32316
2273.77749	0.32543
2271.84893	0.32745
2269.92036	0.32936
2267.99180	0.33137
2266.06323	0.33341
2264.13467	0.33537
2262.20610	0.33736
2260.27754	0.33938
2258.34897	0.34132
2256.42041	0.34321
2254.49185	0.34509
2252.56328	0.34696
2250.63472	0.34880
2248.70615	0.35070
2246.77759	0.35275
2244.84902	0.35486
2242.92046	0.35703
2240.99189	0.35929
2239.06333	0.36152
2237.13477	0.36365
2235.20620	0.36574
2233.27764	0.36785
2231.34907	0.37004
2229.42051	0.37235
2227.49194	0.37467
2225.56338	0.37695
2223.63481	0.37917
2221.70625	0.38127
2219.77769	0.38342
2217.84912	0.38574
2215.92056	0.38799
2213.99199	0.39013
2212.06343	0.39231
2210.13486	0.39451
2208.20630	0.39666
2206.27773	0.39877
2204.34917	0.40085
2202.42061	0.40294
2200.49204	0.40506
2198.56348	0.40722
2196.63491	0.40934
2194.70635	0.41133
2192.77778	0.41321
2190.84922	0.41506
2188.92065	0.41686
2186.99209	0.41858
2185.06353	0.42036
2183.13496	0.42224
2181.20640	0.42409
2179.27783	0.42577
2177.34927	0.42730
2175.42070	0.42883
2173.49214	0.43032
2171.56357	0.43165
2169.63501	0.43296
2167.70645	0.43434
2165.77788	0.43576
2163.84932	0.43715
2161.92075	0.43834
2159.99219	0.43928
2158.06362	0.44018
2156.13506	0.44117
2154.20649	0.44204
2152.27793	0.44272
2150.34937	0.44342
2148.42080	0.44421
2146.49224	0.44484
2144.56367	0.44535
2142.63511	0.44589
2140.70654	0.44632
2138.77798	0.44654
2136.84941	0.44664
2134.92085	0.44666
2132.99229	0.44666
2131.06372	0.44662
2129.13516	0.44646
2127.20659	0.44616
2125.27803	0.44585
2123.34946	0.44553
2121.42090	0.44508
2119.49233	0.44449
2117.56377	0.44397
2115.63521	0.44342
2113.70664	0.44264
2111.77808	0.44169
2109.84951	0.44067
2107.92095	0.43958
2105.99238	0.43846
2104.06382	0.43729
2102.13525	0.43603
2100.20669	0.43477
2098.27812	0.43339
2096.34956	0.43187
2094.42100	0.43037
2092.49243	0.42878
2090.56387	0.42700
2088.63530	0.42514
2086.70674	0.42328
2084.77817	0.42141
2082.84961	0.41958
2080.92104	0.41774
2078.99248	0.41575
2077.06392	0.41353
2075.13535	0.41123
2073.20679	0.40901
2071.27822	0.40681
2069.34966	0.40456
2067.42109	0.40232
2065.49253	0.40010
2063.56396	0.39774
2061.63540	0.39529
2059.70684	0.39287
2057.77827	0.39045
2055.84971	0.38799
2053.92114	0.38535
2051.99258	0.38259
2050.06401	0.37986
2048.13545	0.37718
2046.20688	0.37454
2044.27832	0.37194
2042.34976	0.36934
2040.42119	0.36666
2038.49263	0.36390
2036.56406	0.36119
2034.63550	0.35847
2032.70693	0.35566
2030.77837	0.35297
2028.84980	0.35031
2026.92124	0.34753
2024.99268	0.34465
2023.06411	0.34180
2021.13555	0.33908
2019.20698	0.33653
2017.27842	0.33401
2015.34985	0.33118
2013.42129	0.32811
2011.49272	0.32523
2009.56416	0.32263
2007.63560	0.32001
2005.70703	0.31724
2003.77847	0.31444
2001.84990	0.31173
1999.92134	0.30915
1997.99277	0.30658
1996.06421	0.30405
1994.13564	0.30170
1992.20708	0.29940
1990.27852	0.29690
1988.34995	0.29431
1986.42139	0.29180
1984.49282	0.28941
1982.56426	0.28707
1980.63569	0.28471
1978.70713	0.28237
1976.77856	0.28003
1974.85000	0.27776
1972.92144	0.27557
1970.99287	0.27346
1969.06431	0.27150
1967.13574	0.26959
1965.20718	0.26751
1963.27861	0.26540
1961.35005	0.26347
1959.42148	0.26164
1957.49292	0.25982
1955.56436	0.25808
1953.63579	0.25646
1951.70723	0.25481
1949.77866	0.25317
1947.85010	0.25160
1945.92153	0.25014
1943.99297	0.24877
1942.06440	0.24722
1940.13584	0.24551
1938.20728	0.24402
1936.27871	0.24278
1934.35015	0.24152
1932.42158	0.24024
1930.49302	0.23904
1928.56445	0.23793
1926.63589	0.23693
1924.70732	0.23621
1922.77876	0.23554
1920.85020	0.23453
1918.92163	0.23348
1916.99307	0.23252
1915.06450	0.23149
1913.13594	0.23059
1911.20737	0.22997
1909.27881	0.22944
1907.35024	0.22879
1905.42168	0.22804
1903.49312	0.22732
1901.56455	0.22672
1899.63599	0.22621
1897.70742	0.22582
1895.77886	0.22555
1893.85029	0.22523
1891.92173	0.22483
1889.99316	0.22466
1888.06460	0.22447
1886.13604	0.22417
1884.20747	0.22399
1882.27891	0.22381
1880.35034	0.22358
1878.42178	0.22341
1876.49321	0.22339
1874.56465	0.22347
1872.63608	0.22376
1870.70752	0.22433
1868.77896	0.22512
1866.85039	0.22541
1864.92183	0.22512
1862.99326	0.22498
1861.06470	0.22515
1859.13613	0.22546
1857.20757	0.22576
1855.27900	0.22617
1853.35044	0.22665
1851.42187	0.22724
1849.49331	0.22797
1847.56475	0.22880
1845.63618	0.22978
1843.70762	0.23083
1841.77905	0.23143
1839.85049	0.23175
1837.92192	0.23254
1835.99336	0.23354
1834.06479	0.23448
1832.13623	0.23557
1830.20767	0.23716
1828.27910	0.23879
1826.35054	0.23990
1824.42197	0.24107
1822.49341	0.24219
1820.56484	0.24332
1818.63628	0.24466
1816.70771	0.24627
1814.77915	0.24795
1812.85059	0.24985
1810.92202	0.25199
1808.99346	0.25402
1807.06489	0.25591
1805.13633	0.25784
1803.20776	0.26020
1801.27920	0.26297
1799.35063	0.26585
1797.42207	0.26830
1795.49351	0.27073
1793.56494	0.27373
1791.63638	0.27743
1789.70781	0.28062
1787.77925	0.28292
1785.85068	0.28593
1783.92212	0.28972
1781.99355	0.29385
1780.06499	0.29812
1778.13643	0.30244
1776.20786	0.30659
1774.27930	0.31108
1772.35073	0.31696
1770.42217	0.32324
1768.49360	0.32853
1766.56504	0.33359
1764.63647	0.33888
1762.70791	0.34484
1760.77935	0.35238
1758.85078	0.35951
1756.92222	0.36668
1754.99365	0.37436
1753.06509	0.38131
1751.13652	0.38972
1749.20796	0.40052
1747.27939	0.41121
1745.35083	0.42040
1743.42227	0.42990
1741.49370	0.44047
1739.56514	0.45310
1737.63657	0.46567
1735.70801	0.47650
1733.77944	0.49268
1731.85088	0.51221
1729.92231	0.52777
1727.99375	0.54338
1726.06519	0.56014
1724.13662	0.57862
1722.20806	0.59869
1720.27949	0.61723
1718.35093	0.63874
1716.42236	0.67035
1714.49380	0.70083
1712.56523	0.72589
1710.63667	0.75009
1708.70811	0.77572
1706.77954	0.80446
1704.85098	0.83883
1702.92241	0.86972
1700.99385	0.90000
1699.06528	0.94520
1697.13672	0.98751
1695.20815	1.03075
1693.27959	1.07289
1691.35103	1.10704
1689.42246	1.14614
1687.49390	1.18684
1685.56533	1.22517
1683.63677	1.28445
1681.70820	1.34809
1679.77964	1.38956
1677.85107	1.42839
1675.92251	1.47291
1673.99395	1.52804
1672.06538	1.57666
1670.13682	1.62375
1668.20825	1.68608
1666.27969	1.73787
1664.35112	1.78119
1662.42256	1.83495
1660.49399	1.89652
1658.56543	1.94466
1656.63687	1.98166
1654.70830	2.01186
1652.77974	2.06018
1650.85117	2.11608
1648.92261	2.14008
1646.99404	2.16686
1645.06548	2.19878
1643.13691	2.22043
1641.20835	2.23038
1639.27979	2.23655
1637.35122	2.23760
1635.42266	2.23439
1633.49409	2.23114
1631.56553	2.22233
1629.63696	2.20750
1627.70840	2.18082
1625.77983	2.14955
1623.85127	2.11081
1621.92271	2.06306
1619.99414	2.01940
1618.06558	1.97590
1616.13701	1.91474
1614.20845	1.85325
1612.27988	1.80594
1610.35132	1.75551
1608.42275	1.70053
1606.49419	1.64692
1604.56562	1.59797
1602.63706	1.55064
1600.70850	1.50382
1598.77993	1.46001
1596.85137	1.41901
1594.92280	1.37985
1592.99424	1.34214
1591.06567	1.30741
1589.13711	1.27504
1587.20854	1.24494
1585.27998	1.21678
1583.35142	1.19033
1581.42285	1.16645
1579.49429	1.14622
1577.56572	1.12758
1575.63716	1.10468
1573.70859	1.08526
1571.78003	1.07304
1569.85146	1.06025
1567.92290	1.04635
1565.99434	1.03620
1564.06577	1.02823
1562.13721	1.02155
1560.20864	1.01621
1558.28008	1.01078
1556.35151	1.00802
1554.42295	1.00612
1552.49438	1.00388
1550.56582	1.00050
1548.63726	0.99499
1546.70869	0.98815
1544.78013	0.97949
1542.85156	0.96775
1540.92300	0.95113
1538.99443	0.92832
1537.06587	0.91243
1535.13730	0.90109
1533.20874	0.88576
1531.28018	0.86952
1529.35161	0.85772
1527.42305	0.84643
1525.49448	0.83470
1523.56592	0.82481
1521.63735	0.81520
1519.70879	0.80521
1517.78022	0.79687
1515.85166	0.78761
1513.92310	0.77778
1511.99453	0.76894
1510.06597	0.76077
1508.13740	0.75282
1506.20884	0.74140
1504.28027	0.73198
1502.35171	0.72667
1500.42314	0.72185
1498.49458	0.71659
1496.56602	0.71038
1494.63745	0.70400
1492.70889	0.69907
1490.78032	0.69504
1488.85176	0.69036
1486.92319	0.68551
1484.99463	0.68157
1483.06606	0.67845
1481.13750	0.67559
1479.20894	0.67298
1477.28037	0.67113
1475.35181	0.67013
1473.42324	0.66943
1471.49468	0.66753
1469.56611	0.66468
1467.63755	0.66213
1465.70898	0.65990
1463.78042	0.65780
1461.85186	0.65626
1459.92329	0.65542
1457.99473	0.65483
1456.06616	0.65346
1454.13760	0.65111
1452.20903	0.64884
1450.28047	0.64679
1448.35190	0.64477
1446.42334	0.64250
1444.49478	0.64019
1442.56621	0.63807
1440.63765	0.63601
1438.70908	0.63390
1436.78052	0.63143
1434.85195	0.62872
1432.92339	0.62642
1430.99482	0.62467
1429.06626	0.62335
1427.13770	0.62247
1425.20913	0.62222
1423.28057	0.62242
1421.35200	0.62241
1419.42344	0.62220
1417.49487	0.62168
1415.56631	0.62052
1413.63774	0.61937
1411.70918	0.61866
1409.78062	0.61850
1407.85205	0.61888
1405.92349	0.61965
1403.99492	0.62032
1402.06636	0.62024
1400.13779	0.61944
1398.20923	0.61804
1396.28066	0.61598
1394.35210	0.61299
1392.42354	0.60952
1390.49497	0.60643
1388.56641	0.60345
1386.63784	0.59988
1384.70928	0.59591
1382.78071	0.59218
1380.85215	0.58898
1378.92358	0.58637
1376.99502	0.58425
1375.06646	0.58259
1373.13789	0.58121
1371.20933	0.58007
1369.28076	0.57904
1367.35220	0.57788
1365.42363	0.57664
1363.49507	0.57544
1361.56650	0.57417
1359.63794	0.57274
1357.70937	0.57145
1355.78081	0.57042
1353.85225	0.56959
1351.92368	0.56883
1349.99512	0.56818
1348.06655	0.56763
1346.13799	0.56694
1344.20942	0.56611
1342.28086	0.56539
1340.35229	0.56490
1338.42373	0.56439
1336.49517	0.56373
1334.56660	0.56308
1332.63804	0.56255
1330.70947	0.56222
1328.78091	0.56213
1326.85234	0.56213
1324.92378	0.56219
1322.99521	0.56249
1321.06665	0.56290
1319.13809	0.56305
1317.20952	0.56278
1315.28096	0.56240
1313.35239	0.56206
1311.42383	0.56149
1309.49526	0.56066
1307.56670	0.55994
1305.63813	0.55953
1303.70957	0.55912
1301.78101	0.55839
1299.85244	0.55743
1297.92388	0.55638
1295.99531	0.55522
1294.06675	0.55407
1292.13818	0.55307
1290.20962	0.55211
1288.28105	0.55109
1286.35249	0.55007
1284.42393	0.54907
1282.49536	0.54809
1280.56680	0.54729
1278.63823	0.54663
1276.70967	0.54577
1274.78110	0.54463
1272.85254	0.54357
1270.92397	0.54278
1268.99541	0.54214
1267.06685	0.54151
1265.13828	0.54079
1263.20972	0.54012
1261.28115	0.53969
1259.35259	0.53935
1257.42402	0.53889
1255.49546	0.53848
1253.56689	0.53835
1251.63833	0.53832
1249.70977	0.53820
1247.78120	0.53804
1245.85264	0.53793
1243.92407	0.53762
1241.99551	0.53692
1240.06694	0.53596
1238.13838	0.53487
1236.20981	0.53356
1234.28125	0.53208
1232.35269	0.53054
1230.42412	0.52898
1228.49556	0.52758
1226.56699	0.52623
1224.63843	0.52485
1222.70986	0.52369
1220.78130	0.52272
1218.85273	0.52158
1216.92417	0.52035
1214.99561	0.51946
1213.06704	0.51890
1211.13848	0.51829
1209.20991	0.51759
1207.28135	0.51686
1205.35278	0.51601
1203.42422	0.51518
1201.49565	0.51446
1199.56709	0.51378
1197.63853	0.51317
1195.70996	0.51264
1193.78140	0.51211
1191.85283	0.51154
1189.92427	0.51107
1187.99570	0.51080
1186.06714	0.51067
1184.13857	0.51056
1182.21001	0.51068
1180.28145	0.51130
1178.35288	0.51223
1176.42432	0.51323
1174.49575	0.51415
1172.56719	0.51480
1170.63862	0.51503
1168.71006	0.51490
1166.78149	0.51465
1164.85293	0.51443
1162.92437	0.51413
1160.99580	0.51358
1159.06724	0.51291
1157.13867	0.51221
1155.21011	0.51132
1153.28154	0.51006
1151.35298	0.50845
1149.42441	0.50654
1147.49585	0.50419
1145.56729	0.50146
1143.63872	0.49875
1141.71016	0.49635
1139.78159	0.49426
1137.85303	0.49241
1135.92446	0.49086
1133.99590	0.48957
1132.06733	0.48836
1130.13877	0.48705
1128.21021	0.48570
1126.28164	0.48453
1124.35308	0.48344
1122.42451	0.48239
1120.49595	0.48173
1118.56738	0.48144
1116.63882	0.48108
1114.71025	0.48085
1112.78169	0.48108
1110.85312	0.48164
1108.92456	0.48243
1106.99600	0.48340
1105.06743	0.48460
1103.13887	0.48616
1101.21030	0.48803
1099.28174	0.49006
1097.35317	0.49237
1095.42461	0.49523
1093.49604	0.49868
1091.56748	0.50267
1089.63892	0.50726
1087.71035	0.51249
1085.78179	0.51815
1083.85322	0.52403
1081.92466	0.52995
1079.99609	0.53526
1078.06753	0.53897
1076.13896	0.54037
1074.21040	0.53908
1072.28184	0.53519
1070.35327	0.52948
1068.42471	0.52314
1066.49614	0.51684
1064.56758	0.51067
1062.63901	0.50485
1060.71045	0.49963
1058.78188	0.49505
1056.85332	0.49118
1054.92476	0.48776
1052.99619	0.48444
1051.06763	0.48140
1049.13906	0.47894
1047.21050	0.47696
1045.28193	0.47514
1043.35337	0.47337
1041.42480	0.47187
1039.49624	0.47087
1037.56768	0.47032
1035.63911	0.47010
1033.71055	0.47006
1031.78198	0.47009
1029.85342	0.47013
1027.92485	0.47022
1025.99629	0.47044
1024.06772	0.47093
1022.13916	0.47162
1020.21060	0.47227
1018.28203	0.47284
1016.35347	0.47347
1014.42490	0.47435
1012.49634	0.47545
1010.56777	0.47669
1008.63921	0.47818
1006.71064	0.47993
1004.78208	0.48195
1002.85352	0.48443
1000.92495	0.48738
998.99639	0.49064
997.06782	0.49425
995.13926	0.49812
993.21069	0.50192
991.28213	0.50524
989.35356	0.50774
987.42500	0.50942
985.49644	0.51065
983.56787	0.51163
981.63931	0.51263
979.71074	0.51395
977.78218	0.51565
975.85361	0.51783
973.92505	0.52050
971.99648	0.52341
970.06792	0.52661
968.13936	0.53042
966.21079	0.53478
964.28223	0.53931
962.35366	0.54411
960.42510	0.54929
958.49653	0.55458
956.56797	0.56011
954.63940	0.56603
952.71084	0.57226
950.78228	0.57863
948.85371	0.58492
946.92515	0.59110
944.99658	0.59712
943.06802	0.60292
941.13945	0.60869
939.21089	0.61442
937.28232	0.61995
935.35376	0.62531
933.42520	0.63061
931.49663	0.63599
929.56807	0.64147
927.63950	0.64689
925.71094	0.65244
923.78237	0.65889
921.85381	0.66583
919.92524	0.67235
917.99668	0.67858
916.06812	0.68497
914.13955	0.69199
912.21099	0.69958
910.28242	0.70704
908.35386	0.71412
906.42529	0.72153
904.49673	0.73019
902.56816	0.73961
900.63960	0.74861
898.71104	0.75719
896.78247	0.76624
894.85391	0.77604
892.92534	0.78615
890.99678	0.79615
889.06821	0.80605
887.13965	0.81601
885.21108	0.82586
883.28252	0.83614
881.35396	0.84761
879.42539	0.85989
877.49683	0.87225
875.56826	0.88428
873.63970	0.89578
871.71113	0.90656
869.78257	0.91697
867.85400	0.92812
865.92544	0.94006
863.99687	0.95088
862.06831	0.96003
860.13975	0.96994
858.21118	0.98132
856.28262	0.99267
854.35405	1.00368
852.42549	1.01414
850.49692	1.02402
848.56836	1.03386
846.63979	1.04337
844.71123	1.05261
842.78267	1.06158
840.85410	1.07040
838.92554	1.07915
836.99697	1.08635
835.06841	1.09245
833.13984	1.09882
831.21128	1.10461
829.28271	1.11104
827.35415	1.11731
825.42559	1.11917
823.49702	1.12038
821.56846	1.12338
819.63989	1.12291
817.71133	1.11963
815.78276	1.12019
813.85420	1.12487
811.92563	1.12932
809.99707	1.13189
808.06851	1.12873
806.13994	1.12089
804.21138	1.11359
802.28281	1.10313
800.35425	1.08735
798.42568	1.07476
796.49712	1.07039
794.56855	1.06577
792.63999	1.05218
790.71143	1.02957
788.78286	1.00850
786.85430	1.00072
784.92573	0.99802
782.99717	0.98362
781.06860	0.95880
779.14004	0.94166
777.21147	0.93644
775.28291	0.91618
773.35435	0.87710
771.42578	0.85469
769.49722	0.85191
767.56865	0.82916
765.64009	0.78650
763.71152	0.76443
761.78296	0.76059
759.85439	0.75291
757.92583	0.74142
755.99727	0.71876
754.06870	0.68193
752.14014	0.64523
750.21157	0.61228
748.28301	0.58187
746.35444	0.55781
744.42588	0.53555
742.49731	0.50224
740.56875	0.44966
738.64019	0.37609
736.71162	0.30016
734.78306	0.23488
732.85449	0.14934
730.92593	0.04401
728.99736	-0.04732
727.06880	-0.14823
725.14023	-0.30238
723.21167	-0.44583
721.28311	-0.54205
719.35454	-0.60013
717.42598	-0.61223
715.49741	-0.60258
713.56885	-0.57192
711.64028	-0.56694
709.71172	-0.61292
707.78315	-0.57955
705.85459	-0.46843
703.92603	-0.37554
701.99746	-0.29204
700.06890	-0.22688
698.14033	-0.20284
696.21177	-0.20395
694.28320	-0.21295
692.35464	-0.22547
690.42607	-0.20439
688.49751	-0.14077
686.56895	-0.11501
684.64038	-0.15006
682.71182	-0.20036
680.78325	-0.22967
678.85469	-0.23308
676.92612	-0.22793
674.99756	-0.23701
673.06899	-0.24780
671.14043	-0.24754
669.21187	-0.24659
667.28330	-0.23670
665.35474	-0.21292
663.42617	-0.20059
661.49761	-0.20326
659.56904	-0.20306
657.64048	-0.19705
655.71191	-0.18136
653.78335	-0.17173
651.85479	-0.17771
649.92622	-0.18942
647.99766	-0.21294
646.06909	-0.23476
644.14053	-0.23243
642.21196	-0.22034
640.28340	-0.22283
638.35483	-0.23093
636.42627	-0.22969
634.49771	-0.21528
632.56914	-0.20025
630.64058	-0.20280
628.71201	-0.22292
626.78345	-0.24253
624.85488	-0.24119
622.92632	-0.22459
620.99775	-0.20074
619.06919	-0.17142
617.14062	-0.13979
615.21206	-0.12438
613.28350	-0.14288
611.35493	-0.17880
609.42637	-0.20687
607.49780	-0.20014
605.56924	-0.16806
603.64067	-0.16372
601.71211	-0.18159
599.78354	-0.19789
597.85498	-0.21813
595.92642	-0.22199
593.99785	-0.20611
592.06929	-0.18864
590.14072	-0.17585
588.21216	-0.17016
586.28359	-0.16223
584.35503	-0.15199
582.42646	-0.16437
580.49790	-0.20426
578.56934	-0.23499
576.64077	-0.22956
574.71221	-0.19589
572.78364	-0.14723
570.85508	-0.10073
568.92651	-0.08696
566.99795	-0.10832
565.06938	-0.12047
563.14082	-0.11596
561.21226	-0.12539
559.28369	-0.14904
557.35513	-0.15982
555.42656	-0.15717
553.49800	-0.16046
551.56943	-0.16516
549.64087	-0.15388
547.71230	-0.13674
545.78374	-0.13745
543.85518	-0.13881
541.92661	-0.12128
539.99805	-0.11275
538.06948	-0.12678
536.14092	-0.12928
534.21235	-0.11655
532.28379	-0.12210
530.35522	-0.14174
528.42666	-0.14273
526.49810	-0.11832
524.56953	-0.08860
522.64097	-0.08012
520.71240	-0.10221
518.78384	-0.12083
516.85527	-0.11295
514.92671	-0.10059
512.99814	-0.11122
511.06958	-0.14491
509.14102	-0.16827
507.21245	-0.16116
505.28389	-0.14735
503.35532	-0.13513
501.42676	-0.11703
499.49819	-0.11120
