3997.91411	0.05921
3995.98555	0.05965
3994.05698	0.06015
3992.12842	0.06057
3990.19985	0.06084
3988.27129	0.06105
3986.34272	0.06125
3984.41416	0.06156
3982.48560	0.06194
3980.55703	0.06212
3978.62847	0.06226
3976.69990	0.06268
3974.77134	0.06324
3972.84277	0.06378
3970.91421	0.06391
3968.98564	0.06360
3967.05708	0.06348
3965.12852	0.06363
3963.19995	0.06386
3961.27139	0.06429
3959.34282	0.06468
3957.41426	0.06475
3955.48569	0.06472
3953.55713	0.06475
3951.62856	0.06526
3949.70000	0.06626
3947.77144	0.06669
3945.84287	0.06636
3943.91431	0.06624
3941.98574	0.06658
3940.05718	0.06647
3938.12861	0.06568
3936.20005	0.06516
3934.27148	0.06541
3932.34292	0.06617
3930.41436	0.06664
3928.48579	0.06627
3926.55723	0.06578
3924.62866	0.06583
3922.70010	0.06589
3920.77153	0.06560
3918.84297	0.06539
3916.91440	0.06537
3914.98584	0.06505
3913.05728	0.06445
3911.12871	0.06412
3909.20015	0.06415
3907.27158	0.06466
3905.34302	0.06584
3903.41445	0.06701
3901.48589	0.06715
3899.55732	0.06694
3897.62876	0.06692
3895.70020	0.06636
3893.77163	0.06582
3891.84307	0.06613
3889.91450	0.06622
3887.98594	0.06565
3886.05737	0.06621
3884.12881	0.06763
3882.20024	0.06815
3880.27168	0.06790
3878.34312	0.06723
3876.41455	0.06665
3874.48599	0.06712
3872.55742	0.06840
3870.62886	0.06951
3868.70029	0.06985
3866.77173	0.06921
3864.84316	0.06904
3862.91460	0.06990
3860.98604	0.07022
3859.05747	0.06968
3857.12891	0.06923
3855.20034	0.06934
3853.27178	0.07077
3851.34321	0.07331
3849.41465	0.07355
3847.48608	0.07238
3845.55752	0.07187
3843.62896	0.07283
3841.70039	0.07475
3839.77183	0.07652
3837.84326	0.07774
3835.91470	0.07821
3833.98613	0.07788
3832.05757	0.07733
3830.12900	0.07722
3828.20044	0.07780
3826.27187	0.07883
3824.34331	0.07962
3822.41475	0.08026
3820.48618	0.08188
3818.55762	0.08326
3816.62905	0.08382
3814.70049	0.08510
3812.77192	0.08580
3810.84336	0.08535
3808.91479	0.08533
3806.98623	0.08677
3805.05767	0.08907
3803.12910	0.09114
3801.20054	0.09349
3799.27197	0.09541
3797.34341	0.09592
3795.41484	0.09605
3793.48628	0.09600
3791.55771	0.09615
3789.62915	0.09697
3787.70059	0.09822
3785.77202	0.09985
3783.84346	0.10180
3781.91489	0.10358
3779.98633	0.10531
3778.05776	0.10694
3776.12920	0.10788
3774.20063	0.10888
3772.27207	0.11060
3770.34351	0.11304
3768.41494	0.11597
3766.48638	0.11839
3764.55781	0.12006
3762.62925	0.12135
3760.70068	0.12324
3758.77212	0.12660
3756.84355	0.12994
3754.91499	0.13190
3752.98643	0.13402
3751.05786	0.13789
3749.12930	0.14272
3747.20073	0.14559
3745.27217	0.14795
3743.34360	0.15296
3741.41504	0.15883
3739.48647	0.16343
3737.55791	0.16870
3735.62935	0.17629
3733.70078	0.18492
3731.77222	0.19113
3729.84365	0.19589
3727.91509	0.20091
3725.98652	0.20698
3724.05796	0.21298
3722.12939	0.21756
3720.20083	0.22163
3718.27227	0.22564
3716.34370	0.23002
3714.41514	0.23582
3712.48657	0.24552
3710.55801	0.26149
3708.62944	0.27824
3706.70088	0.29051
3704.77231	0.30177
3702.84375	0.31481
3700.91519	0.33104
3698.98662	0.34888
3697.05806	0.36616
3695.12949	0.38426
3693.20093	0.40330
3691.27236	0.42368
3689.34380	0.44952
3687.41523	0.48229
3685.48667	0.51245
3683.55811	0.53851
3681.62954	0.56599
3679.70098	0.59673
3677.77241	0.62905
3675.84385	0.66779
3673.91528	0.72073
3671.98672	0.76380
3670.05815	0.80173
3668.12959	0.85469
3666.20103	0.90295
3664.27246	0.94254
3662.34390	0.98532
3660.41533	1.03205
3658.48677	1.07810
3656.55820	1.12731
3654.62964	1.18278
3652.70107	1.22945
3650.77251	1.26968
3648.84395	1.32523
3646.91538	1.39414
3644.98682	1.44480
3643.05825	1.48357
3641.12969	1.52324
3639.20112	1.56714
3637.27256	1.61214
3635.34399	1.65660
3633.41543	1.70121
3631.48687	1.74309
3629.55830	1.78521
3627.62974	1.83986
3625.70117	1.89066
3623.77261	1.92437
3621.84404	1.95590
3619.91548	1.99192
3617.98691	2.03616
3616.05835	2.07848
3614.12979	2.11260
3612.20122	2.14874
3610.27266	2.18727
3608.34409	2.22945
3606.41553	2.27570
3604.48696	2.31683
3602.55840	2.35244
3600.62983	2.39069
3598.70127	2.43133
3596.77271	2.47076
3594.84414	2.51147
3592.91558	2.55287
3590.98701	2.59017
3589.05845	2.62423
3587.12988	2.66579
3585.20132	2.71331
3583.27275	2.75387
3581.34419	2.78984
3579.41562	2.82803
3577.48706	2.87017
3575.55850	2.91390
3573.62993	2.95789
3571.70137	3.00019
3569.77280	3.04067
3567.84424	3.08336
3565.91567	3.13493
3563.98711	3.18524
3562.05854	3.22775
3560.12998	3.27094
3558.20142	3.31569
3556.27285	3.36030
3554.34429	3.40457
3552.41572	3.45015
3550.48716	3.49535
3548.55859	3.53898
3546.63003	3.58447
3544.70146	3.63405
3542.77290	3.68207
3540.84434	3.72504
3538.91577	3.76830
3536.98721	3.81553
3535.05864	3.86568
3533.13008	3.91397
3531.20151	3.96221
3529.27295	4.01291
3527.34438	4.06336
3525.41582	4.11011
3523.48726	4.15448
3521.55869	4.20293
3519.63013	4.25442
3517.70156	4.30374
3515.77300	4.35202
3513.84443	4.40129
3511.91587	4.44824
3509.98730	4.49374
3508.05874	4.54006
3506.13018	4.58608
3504.20161	4.63170
3502.27305	4.67818
3500.34448	4.72733
3498.41592	4.77526
3496.48735	4.82240
3494.55879	4.87616
3492.63022	4.93373
3490.70166	4.98629
3488.77310	5.03511
3486.84453	5.08431
3484.91597	5.13319
3482.98740	5.17934
3481.05884	5.22494
3479.13027	5.27361
3477.20171	5.32182
3475.27314	5.36839
3473.34458	5.41574
3471.41602	5.46234
3469.48745	5.50935
3467.55889	5.56029
3465.63032	5.61553
3463.70176	5.66882
3461.77319	5.71394
3459.84463	5.76238
3457.91606	5.81844
3455.98750	5.86992
3454.05894	5.91028
3452.13037	5.95418
3450.20181	6.01938
3448.27324	6.08748
3446.34468	6.13910
3444.41611	6.18021
3442.48755	6.21837
3440.55898	6.24987
3438.63042	6.27476
3436.70186	6.30713
3434.77329	6.36287
3432.84473	6.42923
3430.91616	6.48811
3428.98760	6.56042
3427.05903	6.64064
3425.13047	6.69878
3423.20190	6.74712
3421.27334	6.81946
3419.34478	6.88689
3417.41621	6.90271
3415.48765	6.90170
3413.55908	6.94119
3411.63052	7.02607
3409.70195	7.09018
3407.77339	7.11945
3405.84482	7.16452
3403.91626	7.23850
3401.98770	7.29714
3400.05913	7.32265
3398.13057	7.35340
3396.20200	7.37834
3394.27344	7.36394
3392.34487	7.33568
3390.41631	7.36058
3388.48774	7.43402
3386.55918	7.51450
3384.63062	7.58794
3382.70205	7.65454
3380.77349	7.72526
3378.84492	7.79827
3376.91636	7.84083
3374.98779	7.81584
3373.05923	7.78649
3371.13066	7.80481
3369.20210	7.84027
3367.27354	7.84932
3365.34497	7.86796
3363.41641	7.91950
3361.48784	7.94035
3359.55928	7.95012
3357.63071	8.00703
3355.70215	8.07586
3353.77358	8.06520
3351.84502	8.00018
3349.91646	7.97504
3347.98789	8.01412
3346.05933	8.05135
3344.13076	8.07120
3342.20220	8.09970
3340.27363	8.08987
3338.34507	8.07962
3336.41650	8.06905
3334.48794	8.02752
3332.55937	8.01930
3330.63081	8.08011
3328.70225	8.18227
3326.77368	8.25034
3324.84512	8.22291
3322.91655	8.17463
3320.98799	8.17456
3319.05942	8.18474
3317.13086	8.18252
3315.20229	8.14617
3313.27373	8.11790
3311.34517	8.13499
3309.41660	8.13302
3307.48804	8.06729
3305.55947	8.01051
3303.63091	8.04385
3301.70234	8.12373
3299.77378	8.17599
3297.84521	8.20804
3295.91665	8.28872
3293.98809	8.34409
3292.05952	8.29985
3290.13096	8.24344
3288.20239	8.23542
3286.27383	8.31293
3284.34526	8.37871
3282.41670	8.32535
3280.48813	8.25614
3278.55957	8.26602
3276.63101	8.33281
3274.70244	8.45405
3272.77388	8.53947
3270.84531	8.45840
3268.91675	8.37228
3266.98818	8.34172
3265.05962	8.27649
3263.13105	8.23916
3261.20249	8.31081
3259.27393	8.38767
3257.34536	8.32933
3255.41680	8.23866
3253.48823	8.28302
3251.55967	8.40246
3249.63110	8.42110
3247.70254	8.38242
3245.77397	8.43322
3243.84541	8.55943
3241.91685	8.54515
3239.98828	8.35772
3238.05972	8.22682
3236.13115	8.22709
3234.20259	8.26530
3232.27402	8.31142
3230.34546	8.38448
3228.41689	8.36655
3226.48833	8.26847
3224.55977	8.23381
3222.63120	8.27157
3220.70264	8.33155
3218.77407	8.33793
3216.84551	8.27129
3214.91694	8.18137
3212.98838	8.06997
3211.05981	7.99817
3209.13125	8.01398
3207.20269	8.02100
3205.27412	7.92989
3203.34556	7.82986
3201.41699	7.79998
3199.48843	7.77683
3197.55986	7.72596
3195.63130	7.70736
3193.70273	7.71477
3191.77417	7.68720
3189.84561	7.65525
3187.91704	7.63864
3185.98848	7.58528
3184.05991	7.50325
3182.13135	7.42381
3180.20278	7.34738
3178.27422	7.28198
3176.34565	7.23983
3174.41709	7.21308
3172.48853	7.18065
3170.55996	7.12247
3168.63140	7.05663
3166.70283	7.00737
3164.77427	6.95755
3162.84570	6.88801
3160.91714	6.79509
3158.98857	6.70264
3157.06001	6.62658
3155.13145	6.55888
3153.20288	6.50315
3151.27432	6.45429
3149.34575	6.39146
3147.41719	6.32040
3145.48862	6.25450
3143.56006	6.18633
3141.63149	6.12183
3139.70293	6.06101
3137.77437	5.98422
3135.84580	5.89455
3133.91724	5.80688
3131.98867	5.71909
3130.06011	5.63839
3128.13154	5.57360
3126.20298	5.50908
3124.27441	5.43570
3122.34585	5.35890
3120.41729	5.28262
3118.48872	5.20746
3116.56016	5.13696
3114.63159	5.07228
3112.70303	5.00830
3110.77446	4.94444
3108.84590	4.87806
3106.91733	4.80517
3104.98877	4.72842
3103.06021	4.65495
3101.13164	4.58835
3099.20308	4.52434
3097.27451	4.45836
3095.34595	4.38990
3093.41738	4.32124
3091.48882	4.25489
3089.56025	4.19123
3087.63169	4.12905
3085.70312	4.06620
3083.77456	4.00080
3081.84600	3.93479
3079.91743	3.87083
3077.98887	3.80881
3076.06030	3.74845
3074.13174	3.68979
3072.20317	3.63244
3070.27461	3.57569
3068.34604	3.51893
3066.41748	3.46072
3064.48892	3.40142
3062.56035	3.34343
3060.63179	3.28714
3058.70322	3.23216
3056.77466	3.17836
3054.84609	3.12635
3052.91753	3.07591
3050.98896	3.02485
3049.06040	2.97264
3047.13184	2.92071
3045.20327	2.87014
3043.27471	2.82058
3041.34614	2.77139
3039.41758	2.72351
3037.48901	2.67721
3035.56045	2.63100
3033.63188	2.58533
3031.70332	2.54086
3029.77476	2.49631
3027.84619	2.45175
3025.91763	2.40869
3023.98906	2.36703
3022.06050	2.32493
3020.13193	2.28223
3018.20337	2.24099
3016.27480	2.20132
3014.34624	2.16192
3012.41768	2.12310
3010.48911	2.08575
3008.56055	2.04949
3006.63198	2.01340
3004.70342	1.97731
3002.77485	1.94154
3000.84629	1.90620
2998.91772	1.87171
2996.98916	1.83849
2995.06060	1.80609
2993.13203	1.77384
2991.20347	1.74164
2989.27490	1.70982
2987.34634	1.67897
2985.41777	1.64911
2983.48921	1.61945
2981.56064	1.58986
2979.63208	1.56099
2977.70352	1.53278
2975.77495	1.50490
2973.84639	1.47746
2971.91782	1.45046
2969.98926	1.42399
2968.06069	1.39812
2966.13213	1.37262
2964.20356	1.34713
2962.27500	1.32153
2960.34644	1.29645
2958.41787	1.27226
2956.48931	1.24868
2954.56074	1.22553
2952.63218	1.20270
2950.70361	1.18008
2948.77505	1.15756
2946.84648	1.13530
2944.91792	1.11360
2942.98936	1.09224
2941.06079	1.07109
2939.13223	1.05062
2937.20366	1.03107
2935.27510	1.01199
2933.34653	0.99283
2931.41797	0.97355
2929.48940	0.95436
2927.56084	0.93581
2925.63228	0.91811
2923.70371	0.90063
2921.77515	0.88343
2919.84658	0.86686
2917.91802	0.85036
2915.98945	0.83398
2914.06089	0.81847
2912.13232	0.80407
2910.20376	0.79038
2908.27520	0.77668
2906.34663	0.76287
2904.41807	0.74952
2902.48950	0.73659
2900.56094	0.72352
2898.63237	0.71053
2896.70381	0.69830
2894.77524	0.68659
2892.84668	0.67501
2890.91812	0.66358
2888.98955	0.65220
2887.06099	0.64097
2885.13242	0.63021
2883.20386	0.61981
2881.27529	0.60955
2879.34673	0.59932
2877.41816	0.58903
2875.48960	0.57886
2873.56104	0.56893
2871.63247	0.55897
2869.70391	0.54886
2867.77534	0.53884
2865.84678	0.52888
2863.91821	0.51879
2861.98965	0.50875
2860.06108	0.49907
2858.13252	0.48985
2856.20396	0.48106
2854.27539	0.47260
2852.34683	0.46439
2850.41826	0.45631
2848.48970	0.44848
2846.56113	0.44111
2844.63257	0.43433
2842.70400	0.42828
2840.77544	0.42276
2838.84687	0.41737
2836.91831	0.41205
2834.98975	0.40670
2833.06118	0.40129
2831.13262	0.39583
2829.20405	0.39036
2827.27549	0.38495
2825.34692	0.37950
2823.41836	0.37391
2821.48979	0.36830
2819.56123	0.36279
2817.63267	0.35728
2815.70410	0.35180
2813.77554	0.34644
2811.84697	0.34118
2809.91841	0.33605
2807.98984	0.33111
2806.06128	0.32633
2804.13271	0.32163
2802.20415	0.31686
2800.27559	0.31202
2798.34702	0.30739
2796.41846	0.30310
2794.48989	0.29885
2792.56133	0.29450
2790.63276	0.29029
2788.70420	0.28636
2786.77563	0.28245
2784.84707	0.27841
2782.91851	0.27437
2780.98994	0.27046
2779.06138	0.26676
2777.13281	0.26322
2775.20425	0.25977
2773.27568	0.25634
2771.34712	0.25287
2769.41855	0.24933
2767.48999	0.24589
2765.56143	0.24279
2763.63286	0.23995
2761.70430	0.23699
2759.77573	0.23376
2757.84717	0.23066
2755.91860	0.22786
2753.99004	0.22513
2752.06147	0.22246
2750.13291	0.21986
2748.20435	0.21723
2746.27578	0.21452
2744.34722	0.21185
2742.41865	0.20923
2740.49009	0.20668
2738.56152	0.20430
2736.63296	0.20203
2734.70439	0.19973
2732.77583	0.19751
2730.84727	0.19553
2728.91870	0.19364
2726.99014	0.19171
2725.06157	0.18971
2723.13301	0.18762
2721.20444	0.18554
2719.27588	0.18356
2717.34731	0.18168
2715.41875	0.17994
2713.49019	0.17845
2711.56162	0.17704
2709.63306	0.17549
2707.70449	0.17393
2705.77593	0.17244
2703.84736	0.17089
2701.91880	0.16926
2699.99023	0.16772
2698.06167	0.16636
2696.13311	0.16511
2694.20454	0.16382
2692.27598	0.16257
2690.34741	0.16141
2688.41885	0.16013
2686.49028	0.15883
2684.56172	0.15781
2682.63315	0.15701
2680.70459	0.15609
2678.77603	0.15498
2676.84746	0.15386
2674.91890	0.15279
2672.99033	0.15173
2671.06177	0.15076
2669.13320	0.14984
2667.20464	0.14886
2665.27607	0.14803
2663.34751	0.14745
2661.41895	0.14686
2659.49038	0.14620
2657.56182	0.14558
2655.63325	0.14496
2653.70469	0.14435
2651.77612	0.14391
2649.84756	0.14359
2647.91899	0.14322
2645.99043	0.14272
2644.06187	0.14211
2642.13330	0.14160
2640.20474	0.14123
2638.27617	0.14085
2636.34761	0.14038
2634.41904	0.13983
2632.49048	0.13933
2630.56191	0.13908
2628.63335	0.13900
2626.70479	0.13887
2624.77622	0.13865
2622.84766	0.13838
2620.91909	0.13810
2618.99053	0.13793
2617.06196	0.13787
2615.13340	0.13779
2613.20483	0.13773
2611.27627	0.13781
2609.34771	0.13794
2607.41914	0.13793
2605.49058	0.13774
2603.56201	0.13754
2601.63345	0.13753
2599.70488	0.13771
2597.77632	0.13795
2595.84775	0.13817
2593.91919	0.13841
2591.99062	0.13868
2590.06206	0.13885
2588.13350	0.13893
2586.20493	0.13910
2584.27637	0.13943
2582.34780	0.13981
2580.41924	0.14011
2578.49067	0.14049
2576.56211	0.14097
2574.63354	0.14133
2572.70498	0.14160
2570.77642	0.14193
2568.84785	0.14225
2566.91929	0.14265
2564.99072	0.14327
2563.06216	0.14396
2561.13359	0.14450
2559.20503	0.14487
2557.27646	0.14530
2555.34790	0.14589
2553.41934	0.14642
2551.49077	0.14685
2549.56221	0.14748
2547.63364	0.14831
2545.70508	0.14905
2543.77651	0.14965
2541.84795	0.15023
2539.91938	0.15084
2537.99082	0.15155
2536.06226	0.15232
2534.13369	0.15304
2532.20513	0.15382
2530.27656	0.15462
2528.34800	0.15530
2526.41943	0.15594
2524.49087	0.15661
2522.56230	0.15732
2520.63374	0.15820
2518.70518	0.15908
2516.77661	0.15982
2514.84805	0.16058
2512.91948	0.16154
2510.99092	0.16262
2509.06235	0.16361
2507.13379	0.16438
2505.20522	0.16501
2503.27666	0.16570
2501.34810	0.16662
2499.41953	0.16771
2497.49097	0.16866
2495.56240	0.16936
2493.63384	0.17006
2491.70527	0.17094
2489.77671	0.17196
2487.84814	0.17295
2485.91958	0.17390
2483.99102	0.17492
2482.06245	0.17603
2480.13389	0.17707
2478.20532	0.17802
2476.27676	0.17894
2474.34819	0.17982
2472.41963	0.18068
2470.49106	0.18161
2468.56250	0.18260
2466.63394	0.18353
2464.70537	0.18430
2462.77681	0.18514
2460.84824	0.18628
2458.91968	0.18746
2456.99111	0.18838
2455.06255	0.18921
2453.13398	0.19018
2451.20542	0.19126
2449.27686	0.19235
2447.34829	0.19338
2445.41973	0.19436
2443.49116	0.19544
2441.56260	0.19663
2439.63403	0.19782
2437.70547	0.19889
2435.77690	0.19985
2433.84834	0.20083
2431.91978	0.20195
2429.99121	0.20313
2428.06265	0.20425
2426.13408	0.20535
2424.20552	0.20650
2422.27695	0.20770
2420.34839	0.20883
2418.41982	0.20985
2416.49126	0.21092
2414.56270	0.21206
2412.63413	0.21321
2410.70557	0.21434
2408.77700	0.21551
2406.84844	0.21675
2404.91987	0.21803
2402.99131	0.21920
2401.06274	0.22035
2399.13418	0.22161
2397.20562	0.22294
2395.27705	0.22425
2393.34849	0.22553
2391.41992	0.22698
2389.49136	0.22887
2387.56279	0.23158
2385.63423	0.23592
2383.70566	0.24277
2381.77710	0.25233
2379.84854	0.26414
2377.91997	0.27776
2375.99141	0.29335
2374.06284	0.31138
2372.13428	0.33175
2370.20571	0.35383
2368.27715	0.37659
2366.34858	0.39819
2364.42002	0.41672
2362.49146	0.43123
2360.56289	0.44049
2358.63433	0.44176
2356.70576	0.43278
2354.77720	0.41520
2352.84863	0.39308
2350.92007	0.37060
2348.99150	0.35667
2347.06294	0.35738
2345.13437	0.37263
2343.20581	0.39248
2341.27725	0.40283
2339.34868	0.40433
2337.42012	0.40319
2335.49155	0.40130
2333.56299	0.39860
2331.63442	0.39630
2329.70586	0.39427
2327.77729	0.39106
2325.84873	0.38601
2323.92017	0.37981
2321.99160	0.37308
2320.06304	0.36558
2318.13447	0.35766
2316.20591	0.35083
2314.27734	0.34634
2312.34878	0.34367
2310.42021	0.34111
2308.49165	0.33766
2306.56309	0.33347
2304.63452	0.32954
2302.70596	0.32702
2300.77739	0.32570
2298.84883	0.32470
2296.92026	0.32392
2294.99170	0.32334
2293.06313	0.32270
2291.13457	0.32208
2289.20601	0.32165
2287.27744	0.32138
2285.34888	0.32125
2283.42031	0.32170
2281.49175	0.32324
2279.56318	0.32568
2277.63462	0.32835
2275.70605	0.33094
2273.77749	0.33351
2271.84893	0.33591
2269.92036	0.33804
2267.99180	0.34004
2266.06323	0.34194
2264.13467	0.34364
2262.20610	0.34526
2260.27754	0.34698
2258.34897	0.34874
2256.42041	0.35045
2254.49185	0.35212
2252.56328	0.35382
2250.63472	0.35558
2248.70615	0.35739
2246.77759	0.35925
2244.84902	0.36124
2242.92046	0.36340
2240.99189	0.36555
2239.06333	0.36759
2237.13477	0.36957
2235.20620	0.37160
2233.27764	0.37382
2231.34907	0.37612
2229.42051	0.37827
2227.49194	0.38031
2225.56338	0.38246
2223.63481	0.38480
2221.70625	0.38718
2219.77769	0.38948
2217.84912	0.39158
2215.92056	0.39353
2213.99199	0.39561
2212.06343	0.39791
2210.13486	0.40018
2208.20630	0.40231
2206.27773	0.40442
2204.34917	0.40658
2202.42061	0.40868
2200.49204	0.41070
2198.56348	0.41274
2196.63491	0.41480
2194.70635	0.41676
2192.77778	0.41861
2190.84922	0.42047
2188.92065	0.42232
2186.99209	0.42407
2185.06353	0.42571
2183.13496	0.42737
2181.20640	0.42911
2179.27783	0.43093
2177.34927	0.43271
2175.42070	0.43423
2173.49214	0.43557
2171.56357	0.43704
2169.63501	0.43868
2167.70645	0.44018
2165.77788	0.44138
2163.84932	0.44243
2161.92075	0.44343
2159.99219	0.44448
2158.06362	0.44558
2156.13506	0.44666
2154.20649	0.44763
2152.27793	0.44851
2150.34937	0.44936
2148.42080	0.45009
2146.49224	0.45069
2144.56367	0.45115
2142.63511	0.45149
2140.70654	0.45174
2138.77798	0.45195
2136.84941	0.45216
2134.92085	0.45235
2132.99229	0.45239
2131.06372	0.45229
2129.13516	0.45209
2127.20659	0.45179
2125.27803	0.45139
2123.34946	0.45097
2121.42090	0.45053
2119.49233	0.45003
2117.56377	0.44946
2115.63521	0.44883
2113.70664	0.44803
2111.77808	0.44705
2109.84951	0.44610
2107.92095	0.44528
2105.99238	0.44433
2104.06382	0.44315
2102.13525	0.44190
2100.20669	0.44060
2098.27812	0.43910
2096.34956	0.43750
2094.42100	0.43592
2092.49243	0.43432
2090.56387	0.43279
2088.63530	0.43122
2086.70674	0.42942
2084.77817	0.42750
2082.84961	0.42564
2080.92104	0.42376
2078.99248	0.42180
2077.06392	0.41974
2075.13535	0.41759
2073.20679	0.41539
2071.27822	0.41324
2069.34966	0.41111
2067.42109	0.40883
2065.49253	0.40644
2063.56396	0.40405
2061.63540	0.40171
2059.70684	0.39935
2057.77827	0.39684
2055.84971	0.39415
2053.92114	0.39135
2051.99258	0.38862
2050.06401	0.38604
2048.13545	0.38357
2046.20688	0.38109
2044.27832	0.37854
2042.34976	0.37588
2040.42119	0.37318
2038.49263	0.37045
2036.56406	0.36764
2034.63550	0.36481
2032.70693	0.36205
2030.77837	0.35928
2028.84980	0.35643
2026.92124	0.35363
2024.99268	0.35089
2023.06411	0.34819
2021.13555	0.34552
2019.20698	0.34279
2017.27842	0.33996
2015.34985	0.33711
2013.42129	0.33439
2011.49272	0.33178
2009.56416	0.32913
2007.63560	0.32636
2005.70703	0.32356
2003.77847	0.32087
2001.84990	0.31830
1999.92134	0.31575
1997.99277	0.31314
1996.06421	0.31051
1994.13564	0.30800
1992.20708	0.30559
1990.27852	0.30310
1988.34995	0.30053
1986.42139	0.29797
1984.49282	0.29552
1982.56426	0.29320
1980.63569	0.29085
1978.70713	0.28844
1976.77856	0.28614
1974.85000	0.28398
1972.92144	0.28181
1970.99287	0.27971
1969.06431	0.27778
1967.13574	0.27592
1965.20718	0.27386
1963.27861	0.27165
1961.35005	0.26953
1959.42148	0.26756
1957.49292	0.26568
1955.56436	0.26386
1953.63579	0.26210
1951.70723	0.26044
1949.77866	0.25892
1947.85010	0.25746
1945.92153	0.25609
1943.99297	0.25480
1942.06440	0.25341
1940.13584	0.25173
1938.20728	0.25002
1936.27871	0.24861
1934.35015	0.24737
1932.42158	0.24614
1930.49302	0.24492
1928.56445	0.24382
1926.63589	0.24289
1924.70732	0.24215
1922.77876	0.24140
1920.85020	0.24031
1918.92163	0.23917
1916.99307	0.23818
1915.06450	0.23719
1913.13594	0.23625
1911.20737	0.23553
1909.27881	0.23498
1907.35024	0.23441
1905.42168	0.23371
1903.49312	0.23292
1901.56455	0.23215
1899.63599	0.23159
1897.70742	0.23131
1895.77886	0.23108
1893.85029	0.23076
1891.92173	0.23046
1889.99316	0.23035
1888.06460	0.23016
1886.13604	0.22978
1884.20747	0.22945
1882.27891	0.22923
1880.35034	0.22906
1878.42178	0.22894
1876.49321	0.22889
1874.56465	0.22886
1872.63608	0.22904
1870.70752	0.22956
1868.77896	0.23033
1866.85039	0.23056
1864.92183	0.23023
1862.99326	0.23013
1861.06470	0.23035
1859.13613	0.23074
1857.20757	0.23112
1855.27900	0.23154
1853.35044	0.23199
1851.42187	0.23254
1849.49331	0.23323
1847.56475	0.23413
1845.63618	0.23518
1843.70762	0.23623
1841.77905	0.23687
1839.85049	0.23723
1837.92192	0.23796
1835.99336	0.23888
1834.06479	0.23979
1832.13623	0.24086
1830.20767	0.24245
1828.27910	0.24401
1826.35054	0.24500
1824.42197	0.24613
1822.49341	0.24732
1820.56484	0.24846
1818.63628	0.24975
1816.70771	0.25135
1814.77915	0.25304
1812.85059	0.25491
1810.92202	0.25707
1808.99346	0.25911
1807.06489	0.26086
1805.13633	0.26261
1803.20776	0.26492
1801.27920	0.26778
1799.35063	0.27085
1797.42207	0.27339
1795.49351	0.27575
1793.56494	0.27869
1791.63638	0.28249
1789.70781	0.28580
1787.77925	0.28817
1785.85068	0.29123
1783.92212	0.29497
1781.99355	0.29894
1780.06499	0.30319
1778.13643	0.30759
1776.20786	0.31174
1774.27930	0.31626
1772.35073	0.32232
1770.42217	0.32860
1768.49360	0.33365
1766.56504	0.33856
1764.63647	0.34382
1762.70791	0.34981
1760.77935	0.35737
1758.85078	0.36437
1756.92222	0.37136
1754.99365	0.37901
1753.06509	0.38601
1751.13652	0.39448
1749.20796	0.40504
1747.27939	0.41520
1745.35083	0.42406
1743.42227	0.43349
1741.49370	0.44382
1739.56514	0.45596
1737.63657	0.46837
1735.70801	0.47961
1733.77944	0.49665
1731.85088	0.51680
1729.92231	0.53236
1727.99375	0.54790
1726.06519	0.56465
1724.13662	0.58311
1722.20806	0.60314
1720.27949	0.62168
1718.35093	0.64367
1716.42236	0.67637
1714.49380	0.70692
1712.56523	0.73120
1710.63667	0.75486
1708.70811	0.78044
1706.77954	0.80960
1704.85098	0.84449
1702.92241	0.87552
1700.99385	0.90591
1699.06528	0.95114
1697.13672	0.99234
1695.20815	1.03384
1693.27959	1.07442
1691.35103	1.10750
1689.42246	1.14563
1687.49390	1.18546
1685.56533	1.22340
1683.63677	1.28181
1681.70820	1.34278
1679.77964	1.38183
1677.85107	1.41863
1675.92251	1.46072
1673.99395	1.51316
1672.06538	1.56018
1670.13682	1.60591
1668.20825	1.66418
1666.27969	1.71010
1664.35112	1.74826
1662.42256	1.79712
1660.49399	1.85315
1658.56543	1.89648
1656.63687	1.93125
1654.70830	1.96443
1652.77974	2.01959
1650.85117	2.07218
1648.92261	2.09130
1646.99404	2.11746
1645.06548	2.14975
1643.13691	2.17151
1641.20835	2.18469
1639.27979	2.19586
1637.35122	2.20170
1635.42266	2.20225
1633.49409	2.19766
1631.56553	2.18598
1629.63696	2.17091
1627.70840	2.14701
1625.77983	2.11898
1623.85127	2.08184
1621.92271	2.03485
1619.99414	1.99281
1618.06558	1.95181
1616.13701	1.89276
1614.20845	1.83147
1612.27988	1.78409
1610.35132	1.73474
1608.42275	1.68166
1606.49419	1.62942
1604.56562	1.58066
1602.63706	1.53265
1600.70850	1.48549
1598.77993	1.44220
1596.85137	1.40132
1594.92280	1.36161
1592.99424	1.32346
1591.06567	1.28834
1589.13711	1.25522
1587.20854	1.22422
1585.27998	1.19533
1583.35142	1.16809
1581.42285	1.14299
1579.49429	1.12126
1577.56572	1.10142
1575.63716	1.07694
1573.70859	1.05531
1571.78003	1.04137
1569.85146	1.02651
1567.92290	1.00890
1565.99434	0.99468
1564.06577	0.98325
1562.13721	0.97414
1560.20864	0.96697
1558.28008	0.95555
1556.35151	0.94449
1554.42295	0.93707
1552.49438	0.92987
1550.56582	0.92261
1548.63726	0.91455
1546.70869	0.90647
1544.78013	0.89821
1542.85156	0.88923
1540.92300	0.87799
1538.99443	0.86074
1537.06587	0.84753
1535.13730	0.83893
1533.20874	0.82823
1531.28018	0.81627
1529.35161	0.80732
1527.42305	0.79911
1525.49448	0.79037
1523.56592	0.78260
1521.63735	0.77518
1519.70879	0.76723
1517.78022	0.76028
1515.85166	0.75270
1513.92310	0.74500
1511.99453	0.73864
1510.06597	0.73321
1508.13740	0.72804
1506.20884	0.71968
1504.28027	0.71196
1502.35171	0.70743
1500.42314	0.70349
1498.49458	0.69937
1496.56602	0.69454
1494.63745	0.68959
1492.70889	0.68573
1490.78032	0.68258
1488.85176	0.67871
1486.92319	0.67423
1484.99463	0.67031
1483.06606	0.66710
1481.13750	0.66424
1479.20894	0.66180
1477.28037	0.65993
1475.35181	0.65821
1473.42324	0.65610
1471.49468	0.65284
1469.56611	0.64931
1467.63755	0.64642
1465.70898	0.64396
1463.78042	0.64162
1461.85186	0.63973
1459.92329	0.63858
1457.99473	0.63757
1456.06616	0.63542
1454.13760	0.63304
1452.20903	0.63116
1450.28047	0.62931
1448.35190	0.62751
1446.42334	0.62559
1444.49478	0.62362
1442.56621	0.62181
1440.63765	0.62018
1438.70908	0.61868
1436.78052	0.61688
1434.85195	0.61470
1432.92339	0.61283
1430.99482	0.61143
1429.06626	0.61017
1427.13770	0.60888
1425.20913	0.60780
1423.28057	0.60693
1421.35200	0.60610
1419.42344	0.60532
1417.49487	0.60433
1415.56631	0.60286
1413.63774	0.60137
1411.70918	0.60023
1409.78062	0.59949
1407.85205	0.59902
1405.92349	0.59873
1403.99492	0.59829
1402.06636	0.59747
1400.13779	0.59661
1398.20923	0.59560
1396.28066	0.59413
1394.35210	0.59193
1392.42354	0.58939
1390.49497	0.58718
1388.56641	0.58526
1386.63784	0.58305
1384.70928	0.58032
1382.78071	0.57770
1380.85215	0.57549
1378.92358	0.57364
1376.99502	0.57215
1375.06646	0.57110
1373.13789	0.57011
1371.20933	0.56899
1369.28076	0.56787
1367.35220	0.56662
1365.42363	0.56543
1363.49507	0.56454
1361.56650	0.56354
1359.63794	0.56224
1357.70937	0.56114
1355.78081	0.56033
1353.85225	0.55959
1351.92368	0.55886
1349.99512	0.55820
1348.06655	0.55745
1346.13799	0.55652
1344.20942	0.55557
1342.28086	0.55480
1340.35229	0.55436
1338.42373	0.55377
1336.49517	0.55274
1334.56660	0.55177
1332.63804	0.55122
1330.70947	0.55084
1328.78091	0.55046
1326.85234	0.55014
1324.92378	0.54982
1322.99521	0.54937
1321.06665	0.54887
1319.13809	0.54841
1317.20952	0.54784
1315.28096	0.54713
1313.35239	0.54639
1311.42383	0.54567
1309.49526	0.54499
1307.56670	0.54436
1305.63813	0.54369
1303.70957	0.54298
1301.78101	0.54235
1299.85244	0.54179
1297.92388	0.54117
1295.99531	0.54034
1294.06675	0.53937
1292.13818	0.53846
1290.20962	0.53771
1288.28105	0.53702
1286.35249	0.53625
1284.42393	0.53561
1282.49536	0.53515
1280.56680	0.53459
1278.63823	0.53381
1276.70967	0.53301
1274.78110	0.53235
1272.85254	0.53177
1270.92397	0.53125
1268.99541	0.53079
1267.06685	0.53037
1265.13828	0.52984
1263.20972	0.52923
1261.28115	0.52869
1259.35259	0.52811
1257.42402	0.52751
1255.49546	0.52728
1253.56689	0.52737
1251.63833	0.52738
1249.70977	0.52715
1247.78120	0.52687
1245.85264	0.52673
1243.92407	0.52657
1241.99551	0.52620
1240.06694	0.52558
1238.13838	0.52478
1236.20981	0.52387
1234.28125	0.52296
1232.35269	0.52203
1230.42412	0.52104
1228.49556	0.52009
1226.56699	0.51926
1224.63843	0.51849
1222.70986	0.51762
1220.78130	0.51665
1218.85273	0.51570
1216.92417	0.51495
1214.99561	0.51438
1213.06704	0.51375
1211.13848	0.51311
1209.20991	0.51254
1207.28135	0.51198
1205.35278	0.51133
1203.42422	0.51055
1201.49565	0.50981
1199.56709	0.50924
1197.63853	0.50874
1195.70996	0.50820
1193.78140	0.50762
1191.85283	0.50706
1189.92427	0.50675
1187.99570	0.50660
1186.06714	0.50641
1184.13857	0.50632
1182.21001	0.50648
1180.28145	0.50677
1178.35288	0.50709
1176.42432	0.50759
1174.49575	0.50821
1172.56719	0.50880
1170.63862	0.50927
1168.71006	0.50946
1166.78149	0.50931
1164.85293	0.50904
1162.92437	0.50891
1160.99580	0.50883
1159.06724	0.50843
1157.13867	0.50759
1155.21011	0.50646
1153.28154	0.50509
1151.35298	0.50347
1149.42441	0.50167
1147.49585	0.49969
1145.56729	0.49748
1143.63872	0.49522
1141.71016	0.49297
1139.78159	0.49057
1137.85303	0.48825
1135.92446	0.48631
1133.99590	0.48464
1132.06733	0.48313
1130.13877	0.48181
1128.21021	0.48037
1126.28164	0.47877
1124.35308	0.47746
1122.42451	0.47653
1120.49595	0.47588
1118.56738	0.47541
1116.63882	0.47501
1114.71025	0.47481
1112.78169	0.47499
1110.85312	0.47555
1108.92456	0.47634
1106.99600	0.47724
1105.06743	0.47835
1103.13887	0.47981
1101.21030	0.48169
1099.28174	0.48408
1097.35317	0.48681
1095.42461	0.48971
1093.49604	0.49309
1091.56748	0.49713
1089.63892	0.50160
1087.71035	0.50674
1085.78179	0.51292
1083.85322	0.51966
1081.92466	0.52611
1079.99609	0.53156
1078.06753	0.53528
1076.13896	0.53647
1074.21040	0.53489
1072.28184	0.53089
1070.35327	0.52504
1068.42471	0.51818
1066.49614	0.51135
1064.56758	0.50522
1062.63901	0.49974
1060.71045	0.49467
1058.78188	0.49009
1056.85332	0.48603
1054.92476	0.48256
1052.99619	0.47957
1051.06763	0.47687
1049.13906	0.47462
1047.21050	0.47280
1045.28193	0.47120
1043.35337	0.46979
1041.42480	0.46856
1039.49624	0.46765
1037.56768	0.46716
1035.63911	0.46691
1033.71055	0.46680
1031.78198	0.46692
1029.85342	0.46719
1027.92485	0.46751
1025.99629	0.46793
1024.06772	0.46847
1022.13916	0.46916
1020.21060	0.47002
1018.28203	0.47094
1016.35347	0.47185
1014.42490	0.47281
1012.49634	0.47396
1010.56777	0.47534
1008.63921	0.47688
1006.71064	0.47867
1004.78208	0.48083
1002.85352	0.48333
1000.92495	0.48615
998.99639	0.48928
997.06782	0.49270
995.13926	0.49640
993.21069	0.50034
991.28213	0.50408
989.35356	0.50694
987.42500	0.50853
985.49644	0.50941
983.56787	0.51035
981.63931	0.51160
979.71074	0.51322
977.78218	0.51531
975.85361	0.51777
973.92505	0.52065
971.99648	0.52397
970.06792	0.52768
968.13936	0.53164
966.21079	0.53576
964.28223	0.54019
962.35366	0.54498
960.42510	0.55010
958.49653	0.55570
956.56797	0.56181
954.63940	0.56816
952.71084	0.57438
950.78228	0.58053
948.85371	0.58692
946.92515	0.59332
944.99658	0.59958
943.06802	0.60586
941.13945	0.61195
939.21089	0.61770
937.28232	0.62341
935.35376	0.62934
933.42520	0.63526
931.49663	0.64065
929.56807	0.64584
927.63950	0.65133
925.71094	0.65701
923.78237	0.66338
921.85381	0.67052
919.92524	0.67761
917.99668	0.68468
916.06812	0.69212
914.13955	0.69956
912.21099	0.70688
910.28242	0.71473
908.35386	0.72322
906.42529	0.73208
904.49673	0.74098
902.56816	0.74896
900.63960	0.75651
898.71104	0.76551
896.78247	0.77547
894.85391	0.78531
892.92534	0.79602
890.99678	0.80680
889.06821	0.81652
887.13965	0.82757
885.21108	0.84084
883.28252	0.85390
881.35396	0.86540
879.42539	0.87641
877.49683	0.88734
875.56826	0.89748
873.63970	0.90816
871.71113	0.92059
869.78257	0.93308
867.85400	0.94536
865.92544	0.95779
863.99687	0.96852
862.06831	0.97850
860.13975	0.99058
858.21118	1.00370
856.28262	1.01578
854.35405	1.02699
852.42549	1.03731
850.49692	1.04736
848.56836	1.05746
846.63979	1.06825
844.71123	1.08277
842.78267	1.09856
840.85410	1.10986
838.92554	1.11957
836.99697	1.13300
835.06841	1.14612
833.13984	1.15448
831.21128	1.16404
829.28271	1.17726
827.35415	1.18739
825.42559	1.19562
823.49702	1.20785
821.56846	1.22233
819.63989	1.23887
817.71133	1.25377
815.78276	1.26180
813.85420	1.27002
811.92563	1.28292
809.99707	1.29894
808.06851	1.32307
806.13994	1.35389
804.21138	1.37725
802.28281	1.39887
800.35425	1.42047
798.42568	1.42639
796.49712	1.43348
794.56855	1.44773
792.63999	1.44495
790.71143	1.44875
788.78286	1.47465
786.85430	1.46389
784.92573	1.41905
782.99717	1.39738
781.06860	1.42754
779.14004	1.51640
777.21147	1.60006
775.28291	1.59279
773.35435	1.54329
771.42578	1.53665
769.49722	1.56140
767.56865	1.54355
765.64009	1.47745
763.71152	1.49317
761.78296	1.71618
759.85439	2.37258
757.92583	1.81045
755.99727	1.39724
754.06870	1.32125
752.14014	1.35757
750.21157	1.30785
748.28301	1.29893
746.35444	1.48728
744.42588	1.44125
742.49731	1.14599
740.56875	1.02741
738.64019	1.07436
736.71162	1.65287
734.78306	4.40870
732.85449	4.39713
730.92593	4.38556
728.99736	0.53126
727.06880	4.36241
725.14023	4.35084
723.21167	4.33927
721.28311	4.32770
719.35454	0.11681
717.42598	0.40218
715.49741	0.38673
713.56885	0.42643
711.64028	0.51789
709.71172	0.53159
707.78315	0.52783
705.85459	0.62673
703.92603	0.78219
701.99746	0.87165
700.06890	0.83961
698.14033	0.74093
696.21177	0.67430
694.28320	0.68055
692.35464	0.69518
690.42607	0.66010
688.49751	0.64628
686.56895	0.69237
684.64038	0.70935
682.71182	0.63858
680.78325	0.59095
678.85469	0.61530
676.92612	0.67307
674.99756	0.67088
673.06899	0.65745
671.14043	0.69210
669.21187	0.65220
667.28330	0.55149
665.35474	0.51193
663.42617	0.53223
661.49761	0.60761
659.56904	0.78288
657.64048	0.96131
655.71191	0.82568
653.78335	0.64807
651.85479	0.56989
649.92622	0.53115
647.99766	0.47775
646.06909	0.44825
644.14053	0.47112
642.21196	0.55628
640.28340	0.70975
638.35483	0.75346
636.42627	0.64805
634.49771	0.60776
632.56914	0.61731
630.64058	0.61993
628.71201	0.60553
626.78345	0.59552
624.85488	0.63706
622.92632	0.68978
620.99775	0.69711
619.06919	0.67987
617.14062	0.57298
615.21206	0.45962
613.28350	0.42819
611.35493	0.43734
609.42637	0.48496
607.49780	0.63123
605.56924	0.70014
603.64067	0.57105
601.71211	0.52970
599.78354	0.60031
597.85498	0.68354
595.92642	0.66076
593.99785	0.60148
592.06929	0.52280
590.14072	0.47408
588.21216	0.50886
586.28359	0.56859
584.35503	0.60172
582.42646	0.61187
580.49790	0.57505
578.56934	0.52931
576.64077	0.48475
574.71221	0.44868
572.78364	0.45107
570.85508	0.47613
568.92651	0.52258
566.99795	0.67143
565.06938	1.01548
563.14082	0.92930
561.21226	0.72095
559.28369	0.68025
557.35513	0.63729
555.42656	0.53819
553.49800	0.46860
551.56943	0.46882
549.64087	0.49498
547.71230	0.49818
545.78374	0.55315
543.85518	0.65257
541.92661	0.56202
539.99805	0.46518
538.06948	0.46135
536.14092	0.46830
534.21235	0.45265
532.28379	0.46407
530.35522	0.51572
528.42666	0.55851
526.49810	0.59380
524.56953	0.60612
522.64097	0.49295
520.71240	0.40130
518.78384	0.40036
516.85527	0.41367
514.92671	0.36829
512.99814	0.33186
511.06958	0.34655
509.14102	0.40284
507.21245	0.48614
505.28389	0.56817
503.35532	0.52894
501.42676	0.45000
499.49819	0.42687
