3997.91411	0.06699
3995.98555	0.06714
3994.05698	0.06735
3992.12842	0.06791
3990.19985	0.06850
3988.27129	0.06896
3986.34272	0.06949
3984.41416	0.07013
3982.48560	0.07058
3980.55703	0.07065
3978.62847	0.07064
3976.69990	0.07072
3974.77134	0.07057
3972.84277	0.07033
3970.91421	0.07037
3968.98564	0.07079
3967.05708	0.07137
3965.12852	0.07164
3963.19995	0.07161
3961.27139	0.07172
3959.34282	0.07191
3957.41426	0.07198
3955.48569	0.07197
3953.55713	0.07175
3951.62856	0.07144
3949.70000	0.07145
3947.77144	0.07191
3945.84287	0.07237
3943.91431	0.07258
3941.98574	0.07268
3940.05718	0.07245
3938.12861	0.07197
3936.20005	0.07163
3934.27148	0.07171
3932.34292	0.07222
3930.41436	0.07256
3928.48579	0.07229
3926.55723	0.07211
3924.62866	0.07238
3922.70010	0.07233
3920.77153	0.07200
3918.84297	0.07181
3916.91440	0.07160
3914.98584	0.07146
3913.05728	0.07143
3911.12871	0.07125
3909.20015	0.07100
3907.27158	0.07106
3905.34302	0.07176
3903.41445	0.07284
3901.48589	0.07323
3899.55732	0.07299
3897.62876	0.07286
3895.70020	0.07246
3893.77163	0.07192
3891.84307	0.07179
3889.91450	0.07189
3887.98594	0.07183
3886.05737	0.07225
3884.12881	0.07304
3882.20024	0.07341
3880.27168	0.07385
3878.34312	0.07398
3876.41455	0.07327
3874.48599	0.07290
3872.55742	0.07348
3870.62886	0.07444
3868.70029	0.07513
3866.77173	0.07525
3864.84316	0.07519
3862.91460	0.07503
3860.98604	0.07472
3859.05747	0.07461
3857.12891	0.07475
3855.20034	0.07547
3853.27178	0.07733
3851.34321	0.07915
3849.41465	0.07904
3847.48608	0.07835
3845.55752	0.07816
3843.62896	0.07881
3841.70039	0.07989
3839.77183	0.08097
3837.84326	0.08231
3835.91470	0.08321
3833.98613	0.08326
3832.05757	0.08314
3830.12900	0.08309
3828.20044	0.08329
3826.27187	0.08413
3824.34331	0.08530
3822.41475	0.08655
3820.48618	0.08832
3818.55762	0.08974
3816.62905	0.09053
3814.70049	0.09108
3812.77192	0.09096
3810.84336	0.09113
3808.91479	0.09215
3806.98623	0.09368
3805.05767	0.09512
3803.12910	0.09614
3801.20054	0.09740
3799.27197	0.09895
3797.34341	0.10010
3795.41484	0.10119
3793.48628	0.10197
3791.55771	0.10248
3789.62915	0.10331
3787.70059	0.10459
3785.77202	0.10651
3783.84346	0.10877
3781.91489	0.11039
3779.98633	0.11162
3778.05776	0.11323
3776.12920	0.11455
3774.20063	0.11564
3772.27207	0.11724
3770.34351	0.11938
3768.41494	0.12174
3766.48638	0.12369
3764.55781	0.12534
3762.62925	0.12709
3760.70068	0.12932
3758.77212	0.13235
3756.84355	0.13518
3754.91499	0.13696
3752.98643	0.13899
3751.05786	0.14294
3749.12930	0.14795
3747.20073	0.15077
3745.27217	0.15268
3743.34360	0.15653
3741.41504	0.16118
3739.48647	0.16486
3737.55791	0.16926
3735.62935	0.17602
3733.70078	0.18396
3731.77222	0.19002
3729.84365	0.19463
3727.91509	0.19886
3725.98652	0.20395
3724.05796	0.21004
3722.12939	0.21587
3720.20083	0.22147
3718.27227	0.22700
3716.34370	0.23240
3714.41514	0.23858
3712.48657	0.24824
3710.55801	0.26384
3708.62944	0.28028
3706.70088	0.29245
3704.77231	0.30336
3702.84375	0.31596
3700.91519	0.33224
3698.98662	0.35044
3697.05806	0.36807
3695.12949	0.38650
3693.20093	0.40566
3691.27236	0.42647
3689.34380	0.45362
3687.41523	0.48700
3685.48667	0.51641
3683.55811	0.54207
3681.62954	0.56965
3679.70098	0.60068
3677.77241	0.63345
3675.84385	0.67218
3673.91528	0.72470
3671.98672	0.76849
3670.05815	0.80703
3668.12959	0.85925
3666.20103	0.90740
3664.27246	0.94811
3662.34390	0.99186
3660.41533	1.03919
3658.48677	1.08556
3656.55820	1.13437
3654.62964	1.18885
3652.70107	1.23469
3650.77251	1.27414
3648.84395	1.32873
3646.91538	1.39798
3644.98682	1.45035
3643.05825	1.48998
3641.12969	1.53004
3639.20112	1.57475
3637.27256	1.62009
3635.34399	1.66425
3633.41543	1.70862
3631.48687	1.74968
3629.55830	1.79005
3627.62974	1.84361
3625.70117	1.89541
3623.77261	1.93051
3621.84404	1.96336
3619.91548	2.00033
3617.98691	2.04469
3616.05835	2.08735
3614.12979	2.12249
3612.20122	2.15983
3610.27266	2.19885
3608.34409	2.23891
3606.41553	2.28169
3604.48696	2.32198
3602.55840	2.35831
3600.62983	2.39697
3598.70127	2.43870
3596.77271	2.47951
3594.84414	2.52027
3592.91558	2.56138
3590.98701	2.59912
3589.05845	2.63394
3587.12988	2.67683
3585.20132	2.72496
3583.27275	2.76484
3581.34419	2.80183
3579.41562	2.84240
3577.48706	2.88463
3575.55850	2.92607
3573.62993	2.96930
3571.70137	3.01300
3569.77280	3.05457
3567.84424	3.09745
3565.91567	3.14917
3563.98711	3.19835
3562.05854	3.23828
3560.12998	3.28011
3558.20142	3.32556
3556.27285	3.37067
3554.34429	3.41292
3552.41572	3.45726
3550.48716	3.50665
3548.55859	3.55485
3546.63003	3.60021
3544.70146	3.64813
3542.77290	3.69896
3540.84434	3.74837
3538.91577	3.79401
3536.98721	3.83763
3535.05864	3.88366
3533.13008	3.93018
3531.20151	3.97663
3529.27295	4.02438
3527.34438	4.07346
3525.41582	4.12447
3523.48726	4.17828
3521.55869	4.23106
3519.63013	4.27730
3517.70156	4.32178
3515.77300	4.36751
3513.84443	4.41372
3511.91587	4.46063
3509.98730	4.50718
3508.05874	4.55430
3506.13018	4.60329
3504.20161	4.65252
3502.27305	4.70264
3500.34448	4.75289
3498.41592	4.80081
3496.48735	4.85146
3494.55879	4.90500
3492.63022	4.95343
3490.70166	4.99644
3488.77310	5.03991
3486.84453	5.08516
3484.91597	5.13458
3482.98740	5.19010
3481.05884	5.24194
3479.13027	5.28424
3477.20171	5.32812
3475.27314	5.37513
3473.34458	5.41853
3471.41602	5.46459
3469.48745	5.51927
3467.55889	5.58109
3465.63032	5.64575
3463.70176	5.70447
3461.77319	5.75089
3459.84463	5.79195
3457.91606	5.83457
3455.98750	5.88033
3454.05894	5.92710
3452.13037	5.97388
3450.20181	6.02468
3448.27324	6.07085
3446.34468	6.11458
3444.41611	6.16945
3442.48755	6.23216
3440.55898	6.30083
3438.63042	6.36686
3436.70186	6.39761
3434.77329	6.40160
3432.84473	6.42398
3430.91616	6.47718
3428.98760	6.55153
3427.05903	6.62402
3425.13047	6.67587
3423.20190	6.70940
3421.27334	6.75048
3419.34478	6.81815
3417.41621	6.90364
3415.48765	6.97841
3413.55908	7.03480
3411.63052	7.09837
3409.70195	7.15138
3407.77339	7.17445
3405.84482	7.17509
3403.91626	7.16853
3401.98770	7.18040
3400.05913	7.23509
3398.13057	7.31652
3396.20200	7.37441
3394.27344	7.40380
3392.34487	7.45216
3390.41631	7.55105
3388.48774	7.63316
3386.55918	7.65104
3384.63062	7.63829
3382.70205	7.64546
3380.77349	7.69338
3378.84492	7.76015
3376.91636	7.81054
3374.98779	7.79771
3373.05923	7.76647
3371.13066	7.77945
3369.20210	7.82722
3367.27354	7.86933
3365.34497	7.92291
3363.41641	7.99702
3361.48784	8.03099
3359.55928	8.00499
3357.63071	7.95433
3355.70215	7.92536
3353.77358	7.95033
3351.84502	8.02597
3349.91646	8.06678
3347.98789	8.09825
3346.05933	8.14860
3344.13076	8.12815
3342.20220	8.07061
3340.27363	8.06535
3338.34507	8.14344
3336.41650	8.18421
3334.48794	8.13473
3332.55937	8.12557
3330.63081	8.21512
3328.70225	8.34877
3326.77368	8.42675
3324.84512	8.39393
3322.91655	8.30842
3320.98799	8.25747
3319.05942	8.24723
3317.13086	8.26108
3315.20229	8.26805
3313.27373	8.27859
3311.34517	8.27974
3309.41660	8.27569
3307.48804	8.29414
3305.55947	8.25504
3303.63091	8.20640
3301.70234	8.26028
3299.77378	8.35087
3297.84521	8.33459
3295.91665	8.30742
3293.98809	8.36862
3292.05952	8.39869
3290.13096	8.36051
3288.20239	8.30649
3286.27383	8.24092
3284.34526	8.22281
3282.41670	8.29396
3280.48813	8.38963
3278.55957	8.45053
3276.63101	8.44189
3274.70244	8.36915
3272.77388	8.28839
3270.84531	8.28216
3268.91675	8.30183
3266.98818	8.23129
3265.05962	8.17403
3263.13105	8.17582
3261.20249	8.17972
3259.27393	8.20990
3257.34536	8.30779
3255.41680	8.42621
3253.48823	8.48080
3251.55967	8.43621
3249.63110	8.30225
3247.70254	8.20107
3245.77397	8.18604
3243.84541	8.21218
3241.91685	8.22610
3239.98828	8.16278
3238.05972	8.11328
3236.13115	8.19687
3234.20259	8.26122
3232.27402	8.17639
3230.34546	8.12076
3228.41689	8.17427
3226.48833	8.23404
3224.55977	8.22426
3222.63120	8.17843
3220.70264	8.14268
3218.77407	8.14251
3216.84551	8.18294
3214.91694	8.24922
3212.98838	8.26721
3211.05981	8.19115
3209.13125	8.15322
3207.20269	8.16780
3205.27412	8.09400
3203.34556	7.97875
3201.41699	7.95467
3199.48843	7.97277
3197.55986	7.88347
3195.63130	7.74844
3193.70273	7.70472
3191.77417	7.70831
3189.84561	7.69409
3187.91704	7.68275
3185.98848	7.67295
3184.05991	7.61843
3182.13135	7.50239
3180.20278	7.37655
3178.27422	7.28397
3176.34565	7.23452
3174.41709	7.22547
3172.48853	7.22108
3170.55996	7.16172
3168.63140	7.06026
3166.70283	6.98273
3164.77427	6.94304
3162.84570	6.90691
3160.91714	6.83722
3158.98857	6.75529
3157.06001	6.70138
3155.13145	6.64350
3153.20288	6.54464
3151.27432	6.44067
3149.34575	6.36184
3147.41719	6.30118
3145.48862	6.24759
3143.56006	6.19539
3141.63149	6.14376
3139.70293	6.07978
3137.77437	5.99922
3135.84580	5.91512
3133.91724	5.83628
3131.98867	5.76278
3130.06011	5.69270
3128.13154	5.62504
3126.20298	5.55200
3124.27441	5.47560
3122.34585	5.40543
3120.41729	5.33555
3118.48872	5.26169
3116.56016	5.19147
3114.63159	5.12344
3112.70303	5.05553
3110.77446	4.98954
3108.84590	4.91742
3106.91733	4.83666
3104.98877	4.75882
3103.06021	4.69006
3101.13164	4.62342
3099.20308	4.55719
3097.27451	4.49345
3095.34595	4.42756
3093.41738	4.35681
3091.48882	4.28409
3089.56025	4.21481
3087.63169	4.15115
3085.70312	4.09008
3083.77456	4.02792
3081.84600	3.96438
3079.91743	3.90093
3077.98887	3.83895
3076.06030	3.77893
3074.13174	3.71863
3072.20317	3.65665
3070.27461	3.59385
3068.34604	3.53203
3066.41748	3.47424
3064.48892	3.42007
3062.56035	3.36461
3060.63179	3.30763
3058.70322	3.25265
3056.77466	3.19917
3054.84609	3.14572
3052.91753	3.09279
3050.98896	3.04023
3049.06040	2.98750
3047.13184	2.93543
3045.20327	2.88484
3043.27471	2.83547
3041.34614	2.78674
3039.41758	2.73883
3037.48901	2.69173
3035.56045	2.64491
3033.63188	2.59900
3031.70332	2.55381
3029.77476	2.50858
3027.84619	2.46399
3025.91763	2.42057
3023.98906	2.37824
3022.06050	2.33693
3020.13193	2.29601
3018.20337	2.25492
3016.27480	2.21395
3014.34624	2.17388
3012.41768	2.13544
3010.48911	2.09802
3008.56055	2.06094
3006.63198	2.02456
3004.70342	1.98836
3002.77485	1.95213
3000.84629	1.91692
2998.91772	1.88260
2996.98916	1.84874
2995.06060	1.81581
2993.13203	1.78355
2991.20347	1.75140
2989.27490	1.71959
2987.34634	1.68833
2985.41777	1.65755
2983.48921	1.62693
2981.56064	1.59675
2979.63208	1.56756
2977.70352	1.53877
2975.77495	1.51005
2973.84639	1.48187
2971.91782	1.45426
2969.98926	1.42703
2968.06069	1.40012
2966.13213	1.37352
2964.20356	1.34747
2962.27500	1.32245
2960.34644	1.29839
2958.41787	1.27463
2956.48931	1.25109
2954.56074	1.22805
2952.63218	1.20560
2950.70361	1.18373
2948.77505	1.16237
2946.84648	1.14129
2944.91792	1.12022
2942.98936	1.09934
2941.06079	1.07898
2939.13223	1.05905
2937.20366	1.03925
2935.27510	1.01938
2933.34653	0.99967
2931.41797	0.98058
2929.48940	0.96234
2927.56084	0.94468
2925.63228	0.92724
2923.70371	0.91028
2921.77515	0.89413
2919.84658	0.87884
2917.91802	0.86417
2915.98945	0.84935
2914.06089	0.83428
2912.13232	0.81962
2910.20376	0.80548
2908.27520	0.79152
2906.34663	0.77776
2904.41807	0.76425
2902.48950	0.75088
2900.56094	0.73790
2898.63237	0.72544
2896.70381	0.71330
2894.77524	0.70137
2892.84668	0.68953
2890.91812	0.67786
2888.98955	0.66653
2887.06099	0.65534
2885.13242	0.64411
2883.20386	0.63279
2881.27529	0.62166
2879.34673	0.61104
2877.41816	0.60072
2875.48960	0.59051
2873.56104	0.58056
2871.63247	0.57076
2869.70391	0.56087
2867.77534	0.55086
2865.84678	0.54095
2863.91821	0.53138
2861.98965	0.52193
2860.06108	0.51254
2858.13252	0.50343
2856.20396	0.49465
2854.27539	0.48628
2852.34683	0.47832
2850.41826	0.47055
2848.48970	0.46294
2846.56113	0.45556
2844.63257	0.44847
2842.70400	0.44193
2840.77544	0.43599
2838.84687	0.43026
2836.91831	0.42435
2834.98975	0.41823
2833.06118	0.41210
2831.13262	0.40606
2829.20405	0.40012
2827.27549	0.39420
2825.34692	0.38831
2823.41836	0.38264
2821.48979	0.37701
2819.56123	0.37116
2817.63267	0.36532
2815.70410	0.35993
2813.77554	0.35491
2811.84697	0.34984
2809.91841	0.34457
2807.98984	0.33924
2806.06128	0.33410
2804.13271	0.32941
2802.20415	0.32498
2800.27559	0.32039
2798.34702	0.31571
2796.41846	0.31131
2794.48989	0.30703
2792.56133	0.30262
2790.63276	0.29820
2788.70420	0.29383
2786.77563	0.28955
2784.84707	0.28561
2782.91851	0.28194
2780.98994	0.27822
2779.06138	0.27445
2777.13281	0.27064
2775.20425	0.26694
2773.27568	0.26350
2771.34712	0.26020
2769.41855	0.25685
2767.48999	0.25362
2765.56143	0.25059
2763.63286	0.24756
2761.70430	0.24449
2759.77573	0.24141
2757.84717	0.23836
2755.91860	0.23541
2753.99004	0.23251
2752.06147	0.22957
2750.13291	0.22672
2748.20435	0.22416
2746.27578	0.22182
2744.34722	0.21943
2742.41865	0.21704
2740.49009	0.21470
2738.56152	0.21227
2736.63296	0.20986
2734.70439	0.20759
2732.77583	0.20534
2730.84727	0.20315
2728.91870	0.20110
2726.99014	0.19922
2725.06157	0.19736
2723.13301	0.19541
2721.20444	0.19351
2719.27588	0.19166
2717.34731	0.18980
2715.41875	0.18799
2713.49019	0.18627
2711.56162	0.18466
2709.63306	0.18306
2707.70449	0.18139
2705.77593	0.17975
2703.84736	0.17818
2701.91880	0.17663
2699.99023	0.17520
2698.06167	0.17382
2696.13311	0.17239
2694.20454	0.17103
2692.27598	0.16976
2690.34741	0.16843
2688.41885	0.16718
2686.49028	0.16605
2684.56172	0.16477
2682.63315	0.16341
2680.70459	0.16226
2678.77603	0.16135
2676.84746	0.16053
2674.91890	0.15960
2672.99033	0.15850
2671.06177	0.15735
2669.13320	0.15627
2667.20464	0.15535
2665.27607	0.15458
2663.34751	0.15378
2661.41895	0.15292
2659.49038	0.15216
2657.56182	0.15151
2655.63325	0.15082
2653.70469	0.15011
2651.77612	0.14953
2649.84756	0.14903
2647.91899	0.14841
2645.99043	0.14766
2644.06187	0.14705
2642.13330	0.14661
2640.20474	0.14619
2638.27617	0.14573
2636.34761	0.14525
2634.41904	0.14482
2632.49048	0.14448
2630.56191	0.14426
2628.63335	0.14414
2626.70479	0.14404
2624.77622	0.14392
2622.84766	0.14371
2620.91909	0.14341
2618.99053	0.14304
2617.06196	0.14268
2615.13340	0.14252
2613.20483	0.14249
2611.27627	0.14250
2609.34771	0.14259
2607.41914	0.14276
2605.49058	0.14280
2603.56201	0.14272
2601.63345	0.14268
2599.70488	0.14268
2597.77632	0.14267
2595.84775	0.14277
2593.91919	0.14304
2591.99062	0.14334
2590.06206	0.14352
2588.13350	0.14367
2586.20493	0.14393
2584.27637	0.14424
2582.34780	0.14459
2580.41924	0.14503
2578.49067	0.14547
2576.56211	0.14585
2574.63354	0.14627
2572.70498	0.14673
2570.77642	0.14711
2568.84785	0.14742
2566.91929	0.14769
2564.99072	0.14802
2563.06216	0.14856
2561.13359	0.14919
2559.20503	0.14980
2557.27646	0.15034
2555.34790	0.15084
2553.41934	0.15135
2551.49077	0.15196
2549.56221	0.15264
2547.63364	0.15332
2545.70508	0.15400
2543.77651	0.15462
2541.84795	0.15518
2539.91938	0.15581
2537.99082	0.15659
2536.06226	0.15740
2534.13369	0.15807
2532.20513	0.15866
2530.27656	0.15935
2528.34800	0.16017
2526.41943	0.16103
2524.49087	0.16188
2522.56230	0.16271
2520.63374	0.16349
2518.70518	0.16420
2516.77661	0.16491
2514.84805	0.16576
2512.91948	0.16672
2510.99092	0.16762
2509.06235	0.16847
2507.13379	0.16935
2505.20522	0.17024
2503.27666	0.17104
2501.34810	0.17179
2499.41953	0.17269
2497.49097	0.17374
2495.56240	0.17473
2493.63384	0.17558
2491.70527	0.17636
2489.77671	0.17716
2487.84814	0.17801
2485.91958	0.17891
2483.99102	0.17987
2482.06245	0.18089
2480.13389	0.18184
2478.20532	0.18268
2476.27676	0.18355
2474.34819	0.18460
2472.41963	0.18570
2470.49106	0.18665
2468.56250	0.18754
2466.63394	0.18846
2464.70537	0.18941
2462.77681	0.19040
2460.84824	0.19135
2458.91968	0.19222
2456.99111	0.19318
2455.06255	0.19436
2453.13398	0.19553
2451.20542	0.19660
2449.27686	0.19766
2447.34829	0.19870
2445.41973	0.19971
2443.49116	0.20069
2441.56260	0.20157
2439.63403	0.20241
2437.70547	0.20340
2435.77690	0.20459
2433.84834	0.20573
2431.91978	0.20673
2429.99121	0.20777
2428.06265	0.20892
2426.13408	0.21010
2424.20552	0.21130
2422.27695	0.21244
2420.34839	0.21350
2418.41982	0.21457
2416.49126	0.21569
2414.56270	0.21685
2412.63413	0.21809
2410.70557	0.21937
2408.77700	0.22061
2406.84844	0.22178
2404.91987	0.22300
2402.99131	0.22427
2401.06274	0.22551
2399.13418	0.22678
2397.20562	0.22810
2395.27705	0.22936
2393.34849	0.23048
2391.41992	0.23171
2389.49136	0.23333
2387.56279	0.23556
2385.63423	0.23890
2383.70566	0.24384
2381.77710	0.25044
2379.84854	0.25839
2377.91997	0.26748
2375.99141	0.27784
2374.06284	0.28962
2372.13428	0.30288
2370.20571	0.31740
2368.27715	0.33228
2366.34858	0.34631
2364.42002	0.35847
2362.49146	0.36794
2360.56289	0.37363
2358.63433	0.37434
2356.70576	0.36946
2354.77720	0.36003
2352.84863	0.34772
2350.92007	0.33444
2348.99150	0.32590
2347.06294	0.32620
2345.13437	0.33599
2343.20581	0.34977
2341.27725	0.35752
2339.34868	0.35856
2337.42012	0.35764
2335.49155	0.35663
2333.56299	0.35556
2331.63442	0.35538
2329.70586	0.35574
2327.77729	0.35494
2325.84873	0.35224
2323.92017	0.34843
2321.99160	0.34440
2320.06304	0.34027
2318.13447	0.33612
2316.20591	0.33247
2314.27734	0.33026
2312.34878	0.32956
2310.42021	0.32892
2308.49165	0.32739
2306.56309	0.32540
2304.63452	0.32356
2302.70596	0.32254
2300.77739	0.32240
2298.84883	0.32254
2296.92026	0.32262
2294.99170	0.32268
2293.06313	0.32280
2291.13457	0.32308
2289.20601	0.32353
2287.27744	0.32402
2285.34888	0.32459
2283.42031	0.32556
2281.49175	0.32725
2279.56318	0.32957
2277.63462	0.33210
2275.70605	0.33461
2273.77749	0.33693
2271.84893	0.33902
2269.92036	0.34096
2267.99180	0.34289
2266.06323	0.34485
2264.13467	0.34682
2262.20610	0.34877
2260.27754	0.35067
2258.34897	0.35256
2256.42041	0.35450
2254.49185	0.35648
2252.56328	0.35834
2250.63472	0.36016
2248.70615	0.36209
2246.77759	0.36415
2244.84902	0.36625
2242.92046	0.36836
2240.99189	0.37053
2239.06333	0.37271
2237.13477	0.37488
2235.20620	0.37702
2233.27764	0.37910
2231.34907	0.38127
2229.42051	0.38359
2227.49194	0.38593
2225.56338	0.38820
2223.63481	0.39043
2221.70625	0.39267
2219.77769	0.39487
2217.84912	0.39692
2215.92056	0.39887
2213.99199	0.40095
2212.06343	0.40320
2210.13486	0.40552
2208.20630	0.40784
2206.27773	0.40995
2204.34917	0.41182
2202.42061	0.41371
2200.49204	0.41581
2198.56348	0.41805
2196.63491	0.42024
2194.70635	0.42227
2192.77778	0.42419
2190.84922	0.42603
2188.92065	0.42780
2186.99209	0.42966
2185.06353	0.43158
2183.13496	0.43335
2181.20640	0.43499
2179.27783	0.43661
2177.34927	0.43829
2175.42070	0.43995
2173.49214	0.44150
2171.56357	0.44292
2169.63501	0.44429
2167.70645	0.44569
2165.77788	0.44705
2163.84932	0.44835
2161.92075	0.44960
2159.99219	0.45065
2158.06362	0.45150
2156.13506	0.45238
2154.20649	0.45336
2152.27793	0.45434
2150.34937	0.45513
2148.42080	0.45568
2146.49224	0.45616
2144.56367	0.45669
2142.63511	0.45720
2140.70654	0.45757
2138.77798	0.45787
2136.84941	0.45812
2134.92085	0.45828
2132.99229	0.45832
2131.06372	0.45825
2129.13516	0.45800
2127.20659	0.45764
2125.27803	0.45740
2123.34946	0.45718
2121.42090	0.45679
2119.49233	0.45627
2117.56377	0.45567
2115.63521	0.45492
2113.70664	0.45408
2111.77808	0.45322
2109.84951	0.45225
2107.92095	0.45116
2105.99238	0.44996
2104.06382	0.44868
2102.13525	0.44746
2100.20669	0.44629
2098.27812	0.44496
2096.34956	0.44349
2094.42100	0.44203
2092.49243	0.44052
2090.56387	0.43883
2088.63530	0.43702
2086.70674	0.43526
2084.77817	0.43354
2082.84961	0.43174
2080.92104	0.42971
2078.99248	0.42756
2077.06392	0.42545
2075.13535	0.42337
2073.20679	0.42122
2071.27822	0.41899
2069.34966	0.41674
2067.42109	0.41447
2065.49253	0.41215
2063.56396	0.40975
2061.63540	0.40736
2059.70684	0.40501
2057.77827	0.40244
2055.84971	0.39971
2053.92114	0.39715
2051.99258	0.39471
2050.06401	0.39218
2048.13545	0.38955
2046.20688	0.38683
2044.27832	0.38412
2042.34976	0.38152
2040.42119	0.37895
2038.49263	0.37627
2036.56406	0.37348
2034.63550	0.37072
2032.70693	0.36792
2030.77837	0.36509
2028.84980	0.36228
2026.92124	0.35954
2024.99268	0.35684
2023.06411	0.35406
2021.13555	0.35121
2019.20698	0.34847
2017.27842	0.34578
2015.34985	0.34294
2013.42129	0.34001
2011.49272	0.33719
2009.56416	0.33454
2007.63560	0.33189
2005.70703	0.32921
2003.77847	0.32655
2001.84990	0.32394
1999.92134	0.32133
1997.99277	0.31866
1996.06421	0.31601
1994.13564	0.31348
1992.20708	0.31103
1990.27852	0.30852
1988.34995	0.30602
1986.42139	0.30358
1984.49282	0.30116
1982.56426	0.29874
1980.63569	0.29633
1978.70713	0.29399
1976.77856	0.29177
1974.85000	0.28965
1972.92144	0.28757
1970.99287	0.28552
1969.06431	0.28353
1967.13574	0.28152
1965.20718	0.27945
1963.27861	0.27736
1961.35005	0.27528
1959.42148	0.27324
1957.49292	0.27131
1955.56436	0.26948
1953.63579	0.26775
1951.70723	0.26606
1949.77866	0.26438
1947.85010	0.26282
1945.92153	0.26147
1943.99297	0.26016
1942.06440	0.25867
1940.13584	0.25704
1938.20728	0.25550
1936.27871	0.25410
1934.35015	0.25276
1932.42158	0.25153
1930.49302	0.25037
1928.56445	0.24923
1926.63589	0.24814
1924.70732	0.24718
1922.77876	0.24626
1920.85020	0.24525
1918.92163	0.24432
1916.99307	0.24349
1915.06450	0.24255
1913.13594	0.24154
1911.20737	0.24069
1909.27881	0.24003
1907.35024	0.23944
1905.42168	0.23881
1903.49312	0.23820
1901.56455	0.23759
1899.63599	0.23695
1897.70742	0.23647
1895.77886	0.23619
1893.85029	0.23594
1891.92173	0.23562
1889.99316	0.23542
1888.06460	0.23513
1886.13604	0.23464
1884.20747	0.23428
1882.27891	0.23413
1880.35034	0.23405
1878.42178	0.23398
1876.49321	0.23394
1874.56465	0.23392
1872.63608	0.23406
1870.70752	0.23444
1868.77896	0.23505
1866.85039	0.23535
1864.92183	0.23520
1862.99326	0.23517
1861.06470	0.23541
1859.13613	0.23579
1857.20757	0.23614
1855.27900	0.23656
1853.35044	0.23701
1851.42187	0.23749
1849.49331	0.23801
1847.56475	0.23871
1845.63618	0.23965
1843.70762	0.24067
1841.77905	0.24138
1839.85049	0.24182
1837.92192	0.24261
1835.99336	0.24359
1834.06479	0.24446
1832.13623	0.24537
1830.20767	0.24687
1828.27910	0.24853
1826.35054	0.24961
1824.42197	0.25079
1822.49341	0.25198
1820.56484	0.25311
1818.63628	0.25443
1816.70771	0.25609
1814.77915	0.25777
1812.85059	0.25955
1810.92202	0.26160
1808.99346	0.26369
1807.06489	0.26567
1805.13633	0.26761
1803.20776	0.26975
1801.27920	0.27216
1799.35063	0.27499
1797.42207	0.27767
1795.49351	0.28011
1793.56494	0.28283
1791.63638	0.28645
1789.70781	0.28998
1787.77925	0.29259
1785.85068	0.29566
1783.92212	0.29938
1781.99355	0.30344
1780.06499	0.30772
1778.13643	0.31204
1776.20786	0.31607
1774.27930	0.32031
1772.35073	0.32609
1770.42217	0.33260
1768.49360	0.33802
1766.56504	0.34310
1764.63647	0.34842
1762.70791	0.35437
1760.77935	0.36185
1758.85078	0.36881
1756.92222	0.37579
1754.99365	0.38353
1753.06509	0.39061
1751.13652	0.39891
1749.20796	0.40942
1747.27939	0.42004
1745.35083	0.42936
1743.42227	0.43903
1741.49370	0.44969
1739.56514	0.46232
1737.63657	0.47486
1735.70801	0.48557
1733.77944	0.50182
1731.85088	0.52181
1729.92231	0.53780
1727.99375	0.55372
1726.06519	0.57055
1724.13662	0.58897
1722.20806	0.60906
1720.27949	0.62762
1718.35093	0.64926
1716.42236	0.68137
1714.49380	0.71190
1712.56523	0.73648
1710.63667	0.76030
1708.70811	0.78588
1706.77954	0.81478
1704.85098	0.84931
1702.92241	0.88013
1700.99385	0.91018
1699.06528	0.95455
1697.13672	0.99527
1695.20815	1.03683
1693.27959	1.07659
1691.35103	1.10788
1689.42246	1.14386
1687.49390	1.18172
1685.56533	1.21740
1683.63677	1.27235
1681.70820	1.33074
1679.77964	1.36826
1677.85107	1.40326
1675.92251	1.44310
1673.99395	1.49238
1672.06538	1.53639
1670.13682	1.57946
1668.20825	1.63407
1666.27969	1.67645
1664.35112	1.71121
1662.42256	1.75488
1660.49399	1.80418
1658.56543	1.84226
1656.63687	1.87335
1654.70830	1.90354
1652.77974	1.95606
1650.85117	2.00903
1648.92261	2.03021
1646.99404	2.05754
1645.06548	2.09009
1643.13691	2.11288
1641.20835	2.12769
1639.27979	2.13978
1637.35122	2.14717
1635.42266	2.15049
1633.49409	2.14892
1631.56553	2.13997
1629.63696	2.12633
1627.70840	2.10262
1625.77983	2.07552
1623.85127	2.04182
1621.92271	1.99935
1619.99414	1.96057
1618.06558	1.92149
1616.13701	1.86479
1614.20845	1.80717
1612.27988	1.76315
1610.35132	1.71608
1608.42275	1.66446
1606.49419	1.61336
1604.56562	1.56560
1602.63706	1.51898
1600.70850	1.47329
1598.77993	1.43097
1596.85137	1.39112
1594.92280	1.35256
1592.99424	1.31499
1591.06567	1.28033
1589.13711	1.24774
1587.20854	1.21683
1585.27998	1.18777
1583.35142	1.16027
1581.42285	1.13466
1579.49429	1.11227
1577.56572	1.09147
1575.63716	1.06505
1573.70859	1.04122
1571.78003	1.02543
1569.85146	1.00785
1567.92290	0.98696
1565.99434	0.96986
1564.06577	0.95491
1562.13721	0.94219
1560.20864	0.93109
1558.28008	0.91113
1556.35151	0.89282
1554.42295	0.88168
1552.49438	0.87050
1550.56582	0.85972
1548.63726	0.84914
1546.70869	0.83986
1544.78013	0.83141
1542.85156	0.82293
1540.92300	0.81375
1538.99443	0.80145
1537.06587	0.79224
1535.13730	0.78611
1533.20874	0.77873
1531.28018	0.77079
1529.35161	0.76483
1527.42305	0.75910
1525.49448	0.75291
1523.56592	0.74745
1521.63735	0.74183
1519.70879	0.73534
1517.78022	0.72970
1515.85166	0.72403
1513.92310	0.71867
1511.99453	0.71444
1510.06597	0.71084
1508.13740	0.70754
1506.20884	0.70221
1504.28027	0.69681
1502.35171	0.69340
1500.42314	0.69042
1498.49458	0.68729
1496.56602	0.68372
1494.63745	0.68021
1492.70889	0.67734
1490.78032	0.67478
1488.85176	0.67188
1486.92319	0.66880
1484.99463	0.66588
1483.06606	0.66327
1481.13750	0.66088
1479.20894	0.65847
1477.28037	0.65605
1475.35181	0.65377
1473.42324	0.65172
1471.49468	0.64905
1469.56611	0.64613
1467.63755	0.64384
1465.70898	0.64204
1463.78042	0.64022
1461.85186	0.63846
1459.92329	0.63711
1457.99473	0.63578
1456.06616	0.63361
1454.13760	0.63128
1452.20903	0.62931
1450.28047	0.62734
1448.35190	0.62540
1446.42334	0.62349
1444.49478	0.62175
1442.56621	0.62028
1440.63765	0.61900
1438.70908	0.61795
1436.78052	0.61697
1434.85195	0.61573
1432.92339	0.61431
1430.99482	0.61299
1429.06626	0.61172
1427.13770	0.61043
1425.20913	0.60915
1423.28057	0.60790
1421.35200	0.60676
1419.42344	0.60579
1417.49487	0.60446
1415.56631	0.60244
1413.63774	0.60041
1411.70918	0.59859
1409.78062	0.59684
1407.85205	0.59511
1405.92349	0.59350
1403.99492	0.59182
1402.06636	0.59007
1400.13779	0.58848
1398.20923	0.58707
1396.28066	0.58580
1394.35210	0.58437
1392.42354	0.58281
1390.49497	0.58154
1388.56641	0.58058
1386.63784	0.57966
1384.70928	0.57861
1382.78071	0.57765
1380.85215	0.57683
1378.92358	0.57613
1376.99502	0.57550
1375.06646	0.57501
1373.13789	0.57456
1371.20933	0.57405
1369.28076	0.57364
1367.35220	0.57324
1365.42363	0.57252
1363.49507	0.57159
1361.56650	0.57071
1359.63794	0.56978
1357.70937	0.56867
1355.78081	0.56744
1353.85225	0.56619
1351.92368	0.56488
1349.99512	0.56358
1348.06655	0.56241
1346.13799	0.56146
1344.20942	0.56053
1342.28086	0.55953
1340.35229	0.55860
1338.42373	0.55762
1336.49517	0.55642
1334.56660	0.55531
1332.63804	0.55441
1330.70947	0.55347
1328.78091	0.55246
1326.85234	0.55163
1324.92378	0.55104
1322.99521	0.55048
1321.06665	0.54983
1319.13809	0.54917
1317.20952	0.54849
1315.28096	0.54772
1313.35239	0.54677
1311.42383	0.54560
1309.49526	0.54437
1307.56670	0.54324
1305.63813	0.54218
1303.70957	0.54107
1301.78101	0.53989
1299.85244	0.53880
1297.92388	0.53794
1295.99531	0.53712
1294.06675	0.53621
1292.13818	0.53531
1290.20962	0.53471
1288.28105	0.53447
1286.35249	0.53421
1284.42393	0.53365
1282.49536	0.53293
1280.56680	0.53224
1278.63823	0.53165
1276.70967	0.53112
1274.78110	0.53063
1272.85254	0.53008
1270.92397	0.52948
1268.99541	0.52903
1267.06685	0.52876
1265.13828	0.52838
1263.20972	0.52791
1261.28115	0.52749
1259.35259	0.52718
1257.42402	0.52699
1255.49546	0.52667
1253.56689	0.52613
1251.63833	0.52565
1249.70977	0.52542
1247.78120	0.52530
1245.85264	0.52503
1243.92407	0.52444
1241.99551	0.52375
1240.06694	0.52323
1238.13838	0.52272
1236.20981	0.52205
1234.28125	0.52136
1232.35269	0.52080
1230.42412	0.52027
1228.49556	0.51963
1226.56699	0.51891
1224.63843	0.51810
1222.70986	0.51713
1220.78130	0.51619
1218.85273	0.51539
1216.92417	0.51469
1214.99561	0.51403
1213.06704	0.51340
1211.13848	0.51284
1209.20991	0.51234
1207.28135	0.51187
1205.35278	0.51136
1203.42422	0.51075
1201.49565	0.51009
1199.56709	0.50950
1197.63853	0.50889
1195.70996	0.50815
1193.78140	0.50741
1191.85283	0.50675
1189.92427	0.50613
1187.99570	0.50553
1186.06714	0.50504
1184.13857	0.50477
1182.21001	0.50466
1180.28145	0.50461
1178.35288	0.50474
1176.42432	0.50523
1174.49575	0.50586
1172.56719	0.50653
1170.63862	0.50747
1168.71006	0.50868
1166.78149	0.50989
1164.85293	0.51091
1162.92437	0.51185
1160.99580	0.51272
1159.06724	0.51331
1157.13867	0.51334
1155.21011	0.51277
1153.28154	0.51174
1151.35298	0.51041
1149.42441	0.50867
1147.49585	0.50651
1145.56729	0.50415
1143.63872	0.50169
1141.71016	0.49917
1139.78159	0.49691
1137.85303	0.49521
1135.92446	0.49388
1133.99590	0.49282
1132.06733	0.49227
1130.13877	0.49214
1128.21021	0.49198
1126.28164	0.49163
1124.35308	0.49127
1122.42451	0.49098
1120.49595	0.49080
1118.56738	0.49079
1116.63882	0.49090
1114.71025	0.49133
1112.78169	0.49236
1110.85312	0.49355
1108.92456	0.49438
1106.99600	0.49499
1105.06743	0.49568
1103.13887	0.49639
1101.21030	0.49715
1099.28174	0.49819
1097.35317	0.49970
1095.42461	0.50194
1093.49604	0.50542
1091.56748	0.51042
1089.63892	0.51714
1087.71035	0.52546
1085.78179	0.53467
1083.85322	0.54380
1081.92466	0.55174
1079.99609	0.55751
1078.06753	0.56075
1076.13896	0.56105
1074.21040	0.55789
1072.28184	0.55205
1070.35327	0.54506
1068.42471	0.53802
1066.49614	0.53151
1064.56758	0.52561
1062.63901	0.52031
1060.71045	0.51565
1058.78188	0.51154
1056.85332	0.50787
1054.92476	0.50460
1052.99619	0.50184
1051.06763	0.49999
1049.13906	0.49940
1047.21050	0.49981
1045.28193	0.50068
1043.35337	0.50181
1041.42480	0.50293
1039.49624	0.50383
1037.56768	0.50463
1035.63911	0.50510
1033.71055	0.50480
1031.78198	0.50382
1029.85342	0.50233
1027.92485	0.50041
1025.99629	0.49840
1024.06772	0.49676
1022.13916	0.49566
1020.21060	0.49510
1018.28203	0.49487
1016.35347	0.49465
1014.42490	0.49434
1012.49634	0.49400
1010.56777	0.49367
1008.63921	0.49351
1006.71064	0.49382
1004.78208	0.49470
1002.85352	0.49607
1000.92495	0.49811
998.99639	0.50120
997.06782	0.50533
995.13926	0.50990
993.21069	0.51404
991.28213	0.51708
989.35356	0.51872
987.42500	0.51926
985.49644	0.51923
983.56787	0.51912
981.63931	0.51938
979.71074	0.52019
977.78218	0.52153
975.85361	0.52361
973.92505	0.52641
971.99648	0.52954
970.06792	0.53287
968.13936	0.53661
966.21079	0.54077
964.28223	0.54507
962.35366	0.54951
960.42510	0.55443
958.49653	0.55988
956.56797	0.56568
954.63940	0.57184
952.71084	0.57816
950.78228	0.58425
948.85371	0.59029
946.92515	0.59651
944.99658	0.60268
943.06802	0.60878
941.13945	0.61525
939.21089	0.62183
937.28232	0.62758
935.35376	0.63283
933.42520	0.63847
931.49663	0.64423
929.56807	0.64974
927.63950	0.65526
925.71094	0.66133
923.78237	0.66804
921.85381	0.67491
919.92524	0.68187
917.99668	0.68901
916.06812	0.69596
914.13955	0.70294
912.21099	0.71061
910.28242	0.71878
908.35386	0.72743
906.42529	0.73643
904.49673	0.74479
902.56816	0.75336
900.63960	0.76353
898.71104	0.77384
896.78247	0.78310
894.85391	0.79216
892.92534	0.80160
890.99678	0.81186
889.06821	0.82375
887.13965	0.83571
885.21108	0.84589
883.28252	0.85622
881.35396	0.86793
879.42539	0.87949
877.49683	0.89061
875.56826	0.90237
873.63970	0.91467
871.71113	0.92674
869.78257	0.93834
867.85400	0.95020
865.92544	0.96295
863.99687	0.97461
862.06831	0.98452
860.13975	0.99508
858.21118	1.00712
856.28262	1.01910
854.35405	1.03025
852.42549	1.04149
850.49692	1.05367
848.56836	1.06664
846.63979	1.07937
844.71123	1.09078
842.78267	1.10138
840.85410	1.11282
838.92554	1.12502
836.99697	1.13529
835.06841	1.14247
833.13984	1.15075
831.21128	1.16280
829.28271	1.17505
827.35415	1.18688
825.42559	1.20122
823.49702	1.21788
821.56846	1.23343
819.63989	1.24268
817.71133	1.24478
815.78276	1.25027
813.85420	1.26628
811.92563	1.28331
809.99707	1.29464
808.06851	1.30609
806.13994	1.32067
804.21138	1.33356
802.28281	1.33938
800.35425	1.34635
798.42568	1.37375
796.49712	1.40292
794.56855	1.39731
792.63999	1.37274
790.71143	1.34640
788.78286	1.34662
786.85430	1.40942
784.92573	1.51234
782.99717	1.57267
781.06860	1.57502
779.14004	1.52482
777.21147	1.42537
775.28291	1.39083
773.35435	1.50325
771.42578	1.71314
769.49722	1.67497
767.56865	1.58322
765.64009	1.64758
763.71152	1.69133
761.78296	1.54175
759.85439	1.44346
757.92583	1.35134
755.99727	1.18376
754.06870	1.12325
752.14014	1.27235
750.21157	1.62771
748.28301	1.44877
746.35444	1.17826
744.42588	1.06965
742.49731	0.97848
740.56875	0.88878
738.64019	0.84180
736.71162	0.77704
734.78306	0.66779
732.85449	0.58149
730.92593	0.51524
728.99736	0.44304
727.06880	0.40469
725.14023	0.40697
723.21167	0.32925
721.28311	0.18318
719.35454	0.08556
717.42598	0.08213
715.49741	0.14666
713.56885	0.15418
711.64028	0.06202
709.71172	0.01618
707.78315	-0.01885
705.85459	-0.12914
703.92603	-0.17422
701.99746	-0.01623
700.06890	0.14409
698.14033	0.15574
696.21177	0.12193
694.28320	0.14648
692.35464	0.21211
690.42607	0.25708
688.49751	0.24567
686.56895	0.21551
684.64038	0.21116
682.71182	0.28610
680.78325	0.36161
678.85469	0.38066
676.92612	0.37139
674.99756	0.28222
673.06899	0.15825
671.14043	0.09652
669.21187	0.11518
667.28330	0.19861
665.35474	0.23836
663.42617	0.27897
661.49761	0.36579
659.56904	0.38660
657.64048	0.33321
655.71191	0.28627
653.78335	0.27836
651.85479	0.26799
649.92622	0.24488
647.99766	0.20204
646.06909	0.12133
644.14053	0.11395
642.21196	0.15952
640.28340	0.17819
638.35483	0.18541
636.42627	0.16578
634.49771	0.17386
632.56914	0.20930
630.64058	0.18312
628.71201	0.16022
626.78345	0.21895
624.85488	0.30312
622.92632	0.29210
620.99775	0.19882
619.06919	0.13408
617.14062	0.13568
615.21206	0.18635
613.28350	0.22807
611.35493	0.17626
609.42637	0.10539
607.49780	0.12135
605.56924	0.16411
603.64067	0.15026
601.71211	0.11078
599.78354	0.12353
597.85498	0.21296
595.92642	0.27977
593.99785	0.29412
592.06929	0.27664
590.14072	0.21959
588.21216	0.20424
586.28359	0.23834
584.35503	0.22146
582.42646	0.17130
580.49790	0.13455
578.56934	0.11573
576.64077	0.13195
574.71221	0.15684
572.78364	0.11256
570.85508	0.03965
568.92651	0.06674
566.99795	0.20793
565.06938	0.27570
563.14082	0.19121
561.21226	0.09361
559.28369	0.11452
557.35513	0.21487
555.42656	0.24737
553.49800	0.19336
551.56943	0.15767
549.64087	0.18516
547.71230	0.21831
545.78374	0.22218
543.85518	0.19277
541.92661	0.18036
539.99805	0.21011
538.06948	0.19308
536.14092	0.12255
534.21235	0.11162
532.28379	0.14623
530.35522	0.19678
528.42666	0.21135
526.49810	0.15548
524.56953	0.10109
522.64097	0.08000
520.71240	0.08680
518.78384	0.11932
516.85527	0.15903
514.92671	0.16249
512.99814	0.12944
511.06958	0.13120
509.14102	0.17674
507.21245	0.18020
505.28389	0.15132
503.35532	0.15619
501.42676	0.18322
499.49819	0.18734
