3997.91411	0.06662
3995.98555	0.06701
3994.05698	0.06710
3992.12842	0.06724
3990.19985	0.06781
3988.27129	0.06841
3986.34272	0.06881
3984.41416	0.06920
3982.48560	0.06946
3980.55703	0.06951
3978.62847	0.06960
3976.69990	0.06974
3974.77134	0.06979
3972.84277	0.07001
3970.91421	0.07040
3968.98564	0.07067
3967.05708	0.07071
3965.12852	0.07064
3963.19995	0.07076
3961.27139	0.07109
3959.34282	0.07123
3957.41426	0.07114
3955.48569	0.07131
3953.55713	0.07159
3951.62856	0.07173
3949.70000	0.07205
3947.77144	0.07231
3945.84287	0.07213
3943.91431	0.07196
3941.98574	0.07188
3940.05718	0.07138
3938.12861	0.07083
3936.20005	0.07082
3934.27148	0.07134
3932.34292	0.07222
3930.41436	0.07296
3928.48579	0.07280
3926.55723	0.07240
3924.62866	0.07269
3922.70010	0.07291
3920.77153	0.07250
3918.84297	0.07211
3916.91440	0.07196
3914.98584	0.07169
3913.05728	0.07125
3911.12871	0.07095
3909.20015	0.07075
3907.27158	0.07066
3905.34302	0.07134
3903.41445	0.07290
3901.48589	0.07382
3899.55732	0.07358
3897.62876	0.07275
3895.70020	0.07163
3893.77163	0.07115
3891.84307	0.07194
3889.91450	0.07297
3887.98594	0.07272
3886.05737	0.07241
3884.12881	0.07299
3882.20024	0.07330
3880.27168	0.07324
3878.34312	0.07306
3876.41455	0.07274
3874.48599	0.07314
3872.55742	0.07424
3870.62886	0.07535
3868.70029	0.07607
3866.77173	0.07595
3864.84316	0.07606
3862.91460	0.07661
3860.98604	0.07627
3859.05747	0.07537
3857.12891	0.07516
3855.20034	0.07632
3853.27178	0.07933
3851.34321	0.08189
3849.41465	0.08083
3847.48608	0.07888
3845.55752	0.07799
3843.62896	0.07870
3841.70039	0.08042
3839.77183	0.08232
3837.84326	0.08395
3835.91470	0.08421
3833.98613	0.08352
3832.05757	0.08339
3830.12900	0.08390
3828.20044	0.08455
3826.27187	0.08535
3824.34331	0.08622
3822.41475	0.08754
3820.48618	0.09010
3818.55762	0.09157
3816.62905	0.09145
3814.70049	0.09147
3812.77192	0.09085
3810.84336	0.09025
3808.91479	0.09105
3806.98623	0.09325
3805.05767	0.09521
3803.12910	0.09630
3801.20054	0.09835
3799.27197	0.10029
3797.34341	0.10051
3795.41484	0.10090
3793.48628	0.10158
3791.55771	0.10210
3789.62915	0.10295
3787.70059	0.10441
3785.77202	0.10638
3783.84346	0.10831
3781.91489	0.10942
3779.98633	0.11047
3778.05776	0.11254
3776.12920	0.11438
3774.20063	0.11532
3772.27207	0.11649
3770.34351	0.11876
3768.41494	0.12157
3766.48638	0.12346
3764.55781	0.12500
3762.62925	0.12653
3760.70068	0.12799
3758.77212	0.13039
3756.84355	0.13361
3754.91499	0.13656
3752.98643	0.13982
3751.05786	0.14449
3749.12930	0.14975
3747.20073	0.15270
3745.27217	0.15482
3743.34360	0.15881
3741.41504	0.16269
3739.48647	0.16554
3737.55791	0.16952
3735.62935	0.17589
3733.70078	0.18357
3731.77222	0.18930
3729.84365	0.19336
3727.91509	0.19753
3725.98652	0.20312
3724.05796	0.20956
3722.12939	0.21528
3720.20083	0.22051
3718.27227	0.22571
3716.34370	0.23111
3714.41514	0.23730
3712.48657	0.24665
3710.55801	0.26166
3708.62944	0.27752
3706.70088	0.28924
3704.77231	0.29988
3702.84375	0.31259
3700.91519	0.32919
3698.98662	0.34723
3697.05806	0.36422
3695.12949	0.38222
3693.20093	0.40156
3691.27236	0.42291
3689.34380	0.45020
3687.41523	0.48320
3685.48667	0.51250
3683.55811	0.53821
3681.62954	0.56598
3679.70098	0.59736
3677.77241	0.63066
3675.84385	0.67042
3673.91528	0.72322
3671.98672	0.76545
3670.05815	0.80293
3668.12959	0.85553
3666.20103	0.90357
3664.27246	0.94296
3662.34390	0.98554
3660.41533	1.03260
3658.48677	1.07936
3656.55820	1.12875
3654.62964	1.18338
3652.70107	1.22929
3650.77251	1.27008
3648.84395	1.32657
3646.91538	1.39371
3644.98682	1.44236
3643.05825	1.48118
3641.12969	1.52184
3639.20112	1.56624
3637.27256	1.61090
3635.34399	1.65530
3633.41543	1.69996
3631.48687	1.74088
3629.55830	1.78148
3627.62974	1.83443
3625.70117	1.88417
3623.77261	1.91803
3621.84404	1.95045
3619.91548	1.98792
3617.98691	2.03355
3616.05835	2.07707
3614.12979	2.11221
3612.20122	2.14931
3610.27266	2.18940
3608.34409	2.23126
3606.41553	2.27425
3604.48696	2.31376
3602.55840	2.34969
3600.62983	2.38789
3598.70127	2.42890
3596.77271	2.46973
3594.84414	2.51130
3592.91558	2.55298
3590.98701	2.59165
3589.05845	2.62810
3587.12988	2.67140
3585.20132	2.71873
3583.27275	2.75889
3581.34419	2.79558
3579.41562	2.83428
3577.48706	2.87552
3575.55850	2.91783
3573.62993	2.96137
3571.70137	3.00385
3569.77280	3.04453
3567.84424	3.08753
3565.91567	3.13923
3563.98711	3.18924
3562.05854	3.23045
3560.12998	3.27186
3558.20142	3.31704
3556.27285	3.36344
3554.34429	3.40728
3552.41572	3.45289
3550.48716	3.50150
3548.55859	3.54745
3546.63003	3.59246
3544.70146	3.64138
3542.77290	3.69090
3540.84434	3.73738
3538.91577	3.78190
3536.98721	3.82584
3535.05864	3.87197
3533.13008	3.91783
3531.20151	3.96270
3529.27295	4.00917
3527.34438	4.05910
3525.41582	4.11087
3523.48726	4.16177
3521.55869	4.21518
3519.63013	4.26705
3517.70156	4.31144
3515.77300	4.35399
3513.84443	4.40130
3511.91587	4.45151
3509.98730	4.50081
3508.05874	4.54871
3506.13018	4.59514
3504.20161	4.64120
3502.27305	4.69055
3500.34448	4.74052
3498.41592	4.78801
3496.48735	4.83960
3494.55879	4.89389
3492.63022	4.94197
3490.70166	4.98792
3488.77310	5.03761
3486.84453	5.08582
3484.91597	5.13155
3482.98740	5.17833
3481.05884	5.22622
3479.13027	5.27446
3477.20171	5.32243
3475.27314	5.37053
3473.34458	5.42191
3471.41602	5.47590
3469.48745	5.52509
3467.55889	5.56926
3465.63032	5.61732
3463.70176	5.66797
3461.77319	5.71269
3459.84463	5.76607
3457.91606	5.83289
3455.98750	5.89344
3454.05894	5.94615
3452.13037	6.00405
3450.20181	6.05906
3448.27324	6.09213
3446.34468	6.12613
3444.41611	6.18640
3442.48755	6.25795
3440.55898	6.31266
3438.63042	6.34417
3436.70186	6.37670
3434.77329	6.42756
3432.84473	6.48758
3430.91616	6.53236
3428.98760	6.56811
3427.05903	6.62812
3425.13047	6.69980
3423.20190	6.74666
3421.27334	6.79847
3419.34478	6.87211
3417.41621	6.94403
3415.48765	6.98968
3413.55908	6.99103
3411.63052	7.00511
3409.70195	7.06216
3407.77339	7.13142
3405.84482	7.19811
3403.91626	7.25882
3401.98770	7.30247
3400.05913	7.34113
3398.13057	7.38037
3396.20200	7.40638
3394.27344	7.43588
3392.34487	7.47097
3390.41631	7.51854
3388.48774	7.57302
3386.55918	7.61200
3384.63062	7.63455
3382.70205	7.65747
3380.77349	7.69452
3378.84492	7.75512
3376.91636	7.82864
3374.98779	7.87539
3373.05923	7.90336
3371.13066	7.92399
3369.20210	7.93495
3367.27354	7.92250
3365.34497	7.90717
3363.41641	7.89691
3361.48784	7.90574
3359.55928	7.98885
3357.63071	8.08690
3355.70215	8.12245
3353.77358	8.10668
3351.84502	8.07252
3349.91646	8.01144
3347.98789	7.98215
3346.05933	8.04484
3344.13076	8.14033
3342.20220	8.18672
3340.27363	8.15473
3338.34507	8.13152
3336.41650	8.15535
3334.48794	8.17045
3332.55937	8.17249
3330.63081	8.22101
3328.70225	8.31098
3326.77368	8.37876
3324.84512	8.37142
3322.91655	8.29645
3320.98799	8.25584
3319.05942	8.26224
3317.13086	8.27635
3315.20229	8.31091
3313.27373	8.37744
3311.34517	8.38801
3309.41660	8.31718
3307.48804	8.26566
3305.55947	8.23851
3303.63091	8.21987
3301.70234	8.24105
3299.77378	8.28391
3297.84521	8.24281
3295.91665	8.19410
3293.98809	8.27641
3292.05952	8.40369
3290.13096	8.45376
3288.20239	8.46161
3286.27383	8.47717
3284.34526	8.46679
3282.41670	8.43026
3280.48813	8.42232
3278.55957	8.45912
3276.63101	8.48335
3274.70244	8.45320
3272.77388	8.35633
3270.84531	8.26867
3268.91675	8.26913
3266.98818	8.30581
3265.05962	8.38369
3263.13105	8.52055
3261.20249	8.64498
3259.27393	8.71821
3257.34536	8.77116
3255.41680	8.76327
3253.48823	8.65916
3251.55967	8.61113
3249.63110	8.62604
3247.70254	8.55321
3245.77397	8.47268
3243.84541	8.49194
3241.91685	8.51317
3239.98828	8.45673
3238.05972	8.35990
3236.13115	8.27762
3234.20259	8.22829
3232.27402	8.21503
3230.34546	8.23918
3228.41689	8.26079
3226.48833	8.26657
3224.55977	8.25262
3222.63120	8.23247
3220.70264	8.23126
3218.77407	8.21490
3216.84551	8.19975
3214.91694	8.21700
3212.98838	8.22338
3211.05981	8.19941
3209.13125	8.15840
3207.20269	8.09194
3205.27412	8.02503
3203.34556	8.02007
3201.41699	8.03761
3199.48843	7.98076
3197.55986	7.88879
3195.63130	7.83416
3193.70273	7.82807
3191.77417	7.83785
3189.84561	7.80936
3187.91704	7.72423
3185.98848	7.59749
3184.05991	7.47915
3182.13135	7.42234
3180.20278	7.40547
3178.27422	7.37369
3176.34565	7.32109
3174.41709	7.25950
3172.48853	7.20199
3170.55996	7.14111
3168.63140	7.07895
3166.70283	7.02768
3164.77427	6.95439
3162.84570	6.88390
3160.91714	6.84728
3158.98857	6.77786
3157.06001	6.66340
3155.13145	6.57660
3153.20288	6.52226
3151.27432	6.45528
3149.34575	6.37727
3147.41719	6.31271
3145.48862	6.25576
3143.56006	6.19332
3141.63149	6.12309
3139.70293	6.03711
3137.77437	5.95019
3135.84580	5.87720
3133.91724	5.80070
3131.98867	5.71868
3130.06011	5.65065
3128.13154	5.59536
3126.20298	5.53017
3124.27441	5.45233
3122.34585	5.38036
3120.41729	5.31413
3118.48872	5.24078
3116.56016	5.16549
3114.63159	5.09657
3112.70303	5.02750
3110.77446	4.95427
3108.84590	4.88334
3106.91733	4.81564
3104.98877	4.74473
3103.06021	4.67390
3101.13164	4.60669
3099.20308	4.53890
3097.27451	4.47201
3095.34595	4.40797
3093.41738	4.34367
3091.48882	4.27854
3089.56025	4.21377
3087.63169	4.14954
3085.70312	4.08627
3083.77456	4.02391
3081.84600	3.96349
3079.91743	3.90474
3077.98887	3.84545
3076.06030	3.78609
3074.13174	3.72597
3072.20317	3.66382
3070.27461	3.60412
3068.34604	3.54955
3066.41748	3.49547
3064.48892	3.43923
3062.56035	3.38259
3060.63179	3.32685
3058.70322	3.27199
3056.77466	3.21729
3054.84609	3.16289
3052.91753	3.11000
3050.98896	3.05883
3049.06040	3.00871
3047.13184	2.95959
3045.20327	2.91078
3043.27471	2.86102
3041.34614	2.81123
3039.41758	2.76342
3037.48901	2.71762
3035.56045	2.67256
3033.63188	2.62743
3031.70332	2.58183
3029.77476	2.53649
3027.84619	2.49257
3025.91763	2.44952
3023.98906	2.40614
3022.06050	2.36312
3020.13193	2.32173
3018.20337	2.28115
3016.27480	2.24070
3014.34624	2.20146
3012.41768	2.16315
3010.48911	2.12474
3008.56055	2.08658
3006.63198	2.04926
3004.70342	2.01310
3002.77485	1.97840
3000.84629	1.94476
2998.91772	1.91132
2996.98916	1.87790
2995.06060	1.84503
2993.13203	1.81305
2991.20347	1.78204
2989.27490	1.75199
2987.34634	1.72266
2985.41777	1.69408
2983.48921	1.66637
2981.56064	1.63900
2979.63208	1.61142
2977.70352	1.58396
2975.77495	1.55758
2973.84639	1.53245
2971.91782	1.50761
2969.98926	1.48281
2968.06069	1.45855
2966.13213	1.43450
2964.20356	1.41007
2962.27500	1.38563
2960.34644	1.36155
2958.41787	1.33762
2956.48931	1.31382
2954.56074	1.29018
2952.63218	1.26653
2950.70361	1.24281
2948.77505	1.21957
2946.84648	1.19713
2944.91792	1.17524
2942.98936	1.15406
2941.06079	1.13363
2939.13223	1.11296
2937.20366	1.09172
2935.27510	1.07113
2933.34653	1.05153
2931.41797	1.03209
2929.48940	1.01266
2927.56084	0.99334
2925.63228	0.97464
2923.70371	0.95721
2921.77515	0.94023
2919.84658	0.92295
2917.91802	0.90576
2915.98945	0.88913
2914.06089	0.87292
2912.13232	0.85689
2910.20376	0.84118
2908.27520	0.82591
2906.34663	0.81097
2904.41807	0.79641
2902.48950	0.78235
2900.56094	0.76872
2898.63237	0.75542
2896.70381	0.74232
2894.77524	0.72936
2892.84668	0.71700
2890.91812	0.70547
2888.98955	0.69427
2887.06099	0.68302
2885.13242	0.67202
2883.20386	0.66175
2881.27529	0.65208
2879.34673	0.64241
2877.41816	0.63266
2875.48960	0.62289
2873.56104	0.61285
2871.63247	0.60246
2869.70391	0.59164
2867.77534	0.58045
2865.84678	0.56912
2863.91821	0.55773
2861.98965	0.54639
2860.06108	0.53545
2858.13252	0.52498
2856.20396	0.51527
2854.27539	0.50677
2852.34683	0.49887
2850.41826	0.49091
2848.48970	0.48316
2846.56113	0.47567
2844.63257	0.46818
2842.70400	0.46096
2840.77544	0.45426
2838.84687	0.44790
2836.91831	0.44181
2834.98975	0.43596
2833.06118	0.43019
2831.13262	0.42440
2829.20405	0.41863
2827.27549	0.41297
2825.34692	0.40730
2823.41836	0.40153
2821.48979	0.39571
2819.56123	0.38993
2817.63267	0.38426
2815.70410	0.37878
2813.77554	0.37347
2811.84697	0.36812
2809.91841	0.36270
2807.98984	0.35730
2806.06128	0.35212
2804.13271	0.34709
2802.20415	0.34200
2800.27559	0.33705
2798.34702	0.33247
2796.41846	0.32807
2794.48989	0.32364
2792.56133	0.31914
2790.63276	0.31464
2788.70420	0.31019
2786.77563	0.30582
2784.84707	0.30156
2782.91851	0.29746
2780.98994	0.29345
2779.06138	0.28940
2777.13281	0.28541
2775.20425	0.28167
2773.27568	0.27801
2771.34712	0.27430
2769.41855	0.27074
2767.48999	0.26729
2765.56143	0.26384
2763.63286	0.26049
2761.70430	0.25714
2759.77573	0.25383
2757.84717	0.25074
2755.91860	0.24781
2753.99004	0.24486
2752.06147	0.24182
2750.13291	0.23879
2748.20435	0.23596
2746.27578	0.23335
2744.34722	0.23080
2742.41865	0.22824
2740.49009	0.22554
2738.56152	0.22273
2736.63296	0.22010
2734.70439	0.21768
2732.77583	0.21532
2730.84727	0.21306
2728.91870	0.21088
2726.99014	0.20872
2725.06157	0.20646
2723.13301	0.20426
2721.20444	0.20237
2719.27588	0.20053
2717.34731	0.19852
2715.41875	0.19657
2713.49019	0.19483
2711.56162	0.19316
2709.63306	0.19137
2707.70449	0.18957
2705.77593	0.18793
2703.84736	0.18638
2701.91880	0.18482
2699.99023	0.18331
2698.06167	0.18171
2696.13311	0.18007
2694.20454	0.17873
2692.27598	0.17763
2690.34741	0.17651
2688.41885	0.17536
2686.49028	0.17422
2684.56172	0.17306
2682.63315	0.17189
2680.70459	0.17078
2678.77603	0.16974
2676.84746	0.16868
2674.91890	0.16758
2672.99033	0.16664
2671.06177	0.16592
2669.13320	0.16520
2667.20464	0.16436
2665.27607	0.16349
2663.34751	0.16259
2661.41895	0.16157
2659.49038	0.16058
2657.56182	0.15973
2655.63325	0.15901
2653.70469	0.15844
2651.77612	0.15783
2649.84756	0.15716
2647.91899	0.15667
2645.99043	0.15626
2644.06187	0.15571
2642.13330	0.15516
2640.20474	0.15466
2638.27617	0.15414
2636.34761	0.15365
2634.41904	0.15317
2632.49048	0.15275
2630.56191	0.15246
2628.63335	0.15214
2626.70479	0.15182
2624.77622	0.15166
2622.84766	0.15158
2620.91909	0.15131
2618.99053	0.15094
2617.06196	0.15062
2615.13340	0.15033
2613.20483	0.15007
2611.27627	0.14988
2609.34771	0.14985
2607.41914	0.14990
2605.49058	0.14994
2603.56201	0.14995
2601.63345	0.14999
2599.70488	0.15003
2597.77632	0.15008
2595.84775	0.15016
2593.91919	0.15026
2591.99062	0.15032
2590.06206	0.15042
2588.13350	0.15055
2586.20493	0.15064
2584.27637	0.15071
2582.34780	0.15094
2580.41924	0.15133
2578.49067	0.15164
2576.56211	0.15176
2574.63354	0.15199
2572.70498	0.15247
2570.77642	0.15297
2568.84785	0.15336
2566.91929	0.15371
2564.99072	0.15403
2563.06216	0.15443
2561.13359	0.15486
2559.20503	0.15519
2557.27646	0.15550
2555.34790	0.15588
2553.41934	0.15636
2551.49077	0.15693
2549.56221	0.15754
2547.63364	0.15810
2545.70508	0.15862
2543.77651	0.15924
2541.84795	0.15995
2539.91938	0.16065
2537.99082	0.16135
2536.06226	0.16202
2534.13369	0.16263
2532.20513	0.16325
2530.27656	0.16394
2528.34800	0.16471
2526.41943	0.16554
2524.49087	0.16630
2522.56230	0.16699
2520.63374	0.16772
2518.70518	0.16853
2516.77661	0.16933
2514.84805	0.17004
2512.91948	0.17073
2510.99092	0.17148
2509.06235	0.17227
2507.13379	0.17301
2505.20522	0.17370
2503.27666	0.17451
2501.34810	0.17544
2499.41953	0.17629
2497.49097	0.17703
2495.56240	0.17782
2493.63384	0.17866
2491.70527	0.17955
2489.77671	0.18050
2487.84814	0.18140
2485.91958	0.18231
2483.99102	0.18322
2482.06245	0.18404
2480.13389	0.18483
2478.20532	0.18573
2476.27676	0.18674
2474.34819	0.18768
2472.41963	0.18847
2470.49106	0.18920
2468.56250	0.18996
2466.63394	0.19080
2464.70537	0.19175
2462.77681	0.19281
2460.84824	0.19394
2458.91968	0.19500
2456.99111	0.19600
2455.06255	0.19702
2453.13398	0.19794
2451.20542	0.19869
2449.27686	0.19946
2447.34829	0.20045
2445.41973	0.20158
2443.49116	0.20267
2441.56260	0.20363
2439.63403	0.20459
2437.70547	0.20561
2435.77690	0.20666
2433.84834	0.20772
2431.91978	0.20879
2429.99121	0.20987
2428.06265	0.21087
2426.13408	0.21180
2424.20552	0.21283
2422.27695	0.21403
2420.34839	0.21519
2418.41982	0.21624
2416.49126	0.21724
2414.56270	0.21831
2412.63413	0.21960
2410.70557	0.22097
2408.77700	0.22218
2406.84844	0.22331
2404.91987	0.22442
2402.99131	0.22548
2401.06274	0.22663
2399.13418	0.22792
2397.20562	0.22914
2395.27705	0.23026
2393.34849	0.23142
2391.41992	0.23277
2389.49136	0.23445
2387.56279	0.23667
2385.63423	0.23975
2383.70566	0.24408
2381.77710	0.25004
2379.84854	0.25754
2377.91997	0.26604
2375.99141	0.27534
2374.06284	0.28583
2372.13428	0.29752
2370.20571	0.30982
2368.27715	0.32263
2366.34858	0.33580
2364.42002	0.34765
2362.49146	0.35677
2360.56289	0.36275
2358.63433	0.36442
2356.70576	0.36052
2354.77720	0.35144
2352.84863	0.33934
2350.92007	0.32714
2348.99150	0.31966
2347.06294	0.32021
2345.13437	0.32921
2343.20581	0.34125
2341.27725	0.34771
2339.34868	0.34888
2337.42012	0.34880
2335.49155	0.34889
2333.56299	0.34880
2331.63442	0.34850
2329.70586	0.34783
2327.77729	0.34651
2325.84873	0.34443
2323.92017	0.34197
2321.99160	0.33912
2320.06304	0.33539
2318.13447	0.33130
2316.20591	0.32795
2314.27734	0.32617
2312.34878	0.32574
2310.42021	0.32537
2308.49165	0.32424
2306.56309	0.32269
2304.63452	0.32130
2302.70596	0.32063
2300.77739	0.32070
2298.84883	0.32101
2296.92026	0.32131
2294.99170	0.32159
2293.06313	0.32199
2291.13457	0.32253
2289.20601	0.32308
2287.27744	0.32365
2285.34888	0.32438
2283.42031	0.32546
2281.49175	0.32716
2279.56318	0.32941
2277.63462	0.33181
2275.70605	0.33417
2273.77749	0.33641
2271.84893	0.33855
2269.92036	0.34063
2267.99180	0.34260
2266.06323	0.34444
2264.13467	0.34622
2262.20610	0.34805
2260.27754	0.35002
2258.34897	0.35205
2256.42041	0.35397
2254.49185	0.35591
2252.56328	0.35796
2250.63472	0.36002
2248.70615	0.36196
2246.77759	0.36383
2244.84902	0.36578
2242.92046	0.36779
2240.99189	0.36988
2239.06333	0.37208
2237.13477	0.37436
2235.20620	0.37660
2233.27764	0.37869
2231.34907	0.38073
2229.42051	0.38291
2227.49194	0.38518
2225.56338	0.38746
2223.63481	0.38976
2221.70625	0.39202
2219.77769	0.39429
2217.84912	0.39669
2215.92056	0.39901
2213.99199	0.40104
2212.06343	0.40299
2210.13486	0.40501
2208.20630	0.40704
2206.27773	0.40921
2204.34917	0.41150
2202.42061	0.41366
2200.49204	0.41565
2198.56348	0.41759
2196.63491	0.41947
2194.70635	0.42133
2192.77778	0.42325
2190.84922	0.42523
2188.92065	0.42716
2186.99209	0.42892
2185.06353	0.43054
2183.13496	0.43216
2181.20640	0.43379
2179.27783	0.43546
2177.34927	0.43718
2175.42070	0.43883
2173.49214	0.44028
2171.56357	0.44157
2169.63501	0.44289
2167.70645	0.44428
2165.77788	0.44572
2163.84932	0.44716
2161.92075	0.44838
2159.99219	0.44928
2158.06362	0.45008
2156.13506	0.45099
2154.20649	0.45191
2152.27793	0.45268
2150.34937	0.45338
2148.42080	0.45421
2146.49224	0.45505
2144.56367	0.45562
2142.63511	0.45595
2140.70654	0.45627
2138.77798	0.45661
2136.84941	0.45681
2134.92085	0.45680
2132.99229	0.45667
2131.06372	0.45647
2129.13516	0.45618
2127.20659	0.45588
2125.27803	0.45567
2123.34946	0.45540
2121.42090	0.45504
2119.49233	0.45456
2117.56377	0.45393
2115.63521	0.45310
2113.70664	0.45211
2111.77808	0.45111
2109.84951	0.45018
2107.92095	0.44928
2105.99238	0.44834
2104.06382	0.44725
2102.13525	0.44595
2100.20669	0.44455
2098.27812	0.44311
2096.34956	0.44153
2094.42100	0.43991
2092.49243	0.43836
2090.56387	0.43677
2088.63530	0.43508
2086.70674	0.43335
2084.77817	0.43152
2082.84961	0.42958
2080.92104	0.42762
2078.99248	0.42569
2077.06392	0.42361
2075.13535	0.42135
2073.20679	0.41909
2071.27822	0.41686
2069.34966	0.41458
2067.42109	0.41233
2065.49253	0.41010
2063.56396	0.40768
2061.63540	0.40517
2059.70684	0.40276
2057.77827	0.40034
2055.84971	0.39781
2053.92114	0.39519
2051.99258	0.39251
2050.06401	0.38983
2048.13545	0.38720
2046.20688	0.38464
2044.27832	0.38216
2042.34976	0.37953
2040.42119	0.37664
2038.49263	0.37367
2036.56406	0.37084
2034.63550	0.36815
2032.70693	0.36546
2030.77837	0.36271
2028.84980	0.35998
2026.92124	0.35724
2024.99268	0.35446
2023.06411	0.35170
2021.13555	0.34902
2019.20698	0.34637
2017.27842	0.34364
2015.34985	0.34077
2013.42129	0.33793
2011.49272	0.33521
2009.56416	0.33259
2007.63560	0.32994
2005.70703	0.32723
2003.77847	0.32448
2001.84990	0.32178
1999.92134	0.31919
1997.99277	0.31660
1996.06421	0.31401
1994.13564	0.31155
1992.20708	0.30913
1990.27852	0.30668
1988.34995	0.30430
1986.42139	0.30188
1984.49282	0.29936
1982.56426	0.29693
1980.63569	0.29460
1978.70713	0.29228
1976.77856	0.29008
1974.85000	0.28797
1972.92144	0.28575
1970.99287	0.28351
1969.06431	0.28152
1967.13574	0.27965
1965.20718	0.27760
1963.27861	0.27548
1961.35005	0.27351
1959.42148	0.27158
1957.49292	0.26968
1955.56436	0.26787
1953.63579	0.26618
1951.70723	0.26450
1949.77866	0.26282
1947.85010	0.26123
1945.92153	0.25984
1943.99297	0.25865
1942.06440	0.25737
1940.13584	0.25575
1938.20728	0.25409
1936.27871	0.25261
1934.35015	0.25127
1932.42158	0.25006
1930.49302	0.24889
1928.56445	0.24775
1926.63589	0.24666
1924.70732	0.24570
1922.77876	0.24482
1920.85020	0.24393
1918.92163	0.24304
1916.99307	0.24207
1915.06450	0.24106
1913.13594	0.24022
1911.20737	0.23963
1909.27881	0.23903
1907.35024	0.23834
1905.42168	0.23756
1903.49312	0.23683
1901.56455	0.23621
1899.63599	0.23572
1897.70742	0.23540
1895.77886	0.23519
1893.85029	0.23489
1891.92173	0.23440
1889.99316	0.23410
1888.06460	0.23392
1886.13604	0.23363
1884.20747	0.23330
1882.27891	0.23306
1880.35034	0.23293
1878.42178	0.23283
1876.49321	0.23276
1874.56465	0.23278
1872.63608	0.23297
1870.70752	0.23336
1868.77896	0.23399
1866.85039	0.23432
1864.92183	0.23417
1862.99326	0.23407
1861.06470	0.23424
1859.13613	0.23461
1857.20757	0.23502
1855.27900	0.23547
1853.35044	0.23584
1851.42187	0.23626
1849.49331	0.23688
1847.56475	0.23770
1845.63618	0.23873
1843.70762	0.23988
1841.77905	0.24056
1839.85049	0.24081
1837.92192	0.24152
1835.99336	0.24252
1834.06479	0.24346
1832.13623	0.24448
1830.20767	0.24599
1828.27910	0.24761
1826.35054	0.24876
1824.42197	0.24997
1822.49341	0.25111
1820.56484	0.25223
1818.63628	0.25355
1816.70771	0.25520
1814.77915	0.25692
1812.85059	0.25868
1810.92202	0.26067
1808.99346	0.26272
1807.06489	0.26467
1805.13633	0.26656
1803.20776	0.26876
1801.27920	0.27132
1799.35063	0.27415
1797.42207	0.27666
1795.49351	0.27910
1793.56494	0.28204
1791.63638	0.28572
1789.70781	0.28903
1787.77925	0.29145
1785.85068	0.29446
1783.92212	0.29813
1781.99355	0.30211
1780.06499	0.30631
1778.13643	0.31064
1776.20786	0.31476
1774.27930	0.31913
1772.35073	0.32494
1770.42217	0.33132
1768.49360	0.33673
1766.56504	0.34182
1764.63647	0.34693
1762.70791	0.35260
1760.77935	0.35996
1758.85078	0.36695
1756.92222	0.37391
1754.99365	0.38147
1753.06509	0.38833
1751.13652	0.39657
1749.20796	0.40719
1747.27939	0.41783
1745.35083	0.42711
1743.42227	0.43674
1741.49370	0.44725
1739.56514	0.45966
1737.63657	0.47213
1735.70801	0.48305
1733.77944	0.49951
1731.85088	0.51924
1729.92231	0.53474
1727.99375	0.55026
1726.06519	0.56684
1724.13662	0.58505
1722.20806	0.60499
1720.27949	0.62354
1718.35093	0.64520
1716.42236	0.67708
1714.49380	0.70741
1712.56523	0.73191
1710.63667	0.75566
1708.70811	0.78135
1706.77954	0.81084
1704.85098	0.84630
1702.92241	0.87792
1700.99385	0.90913
1699.06528	0.95540
1697.13672	0.99789
1695.20815	1.04191
1693.27959	1.08530
1691.35103	1.12043
1689.42246	1.16099
1687.49390	1.20401
1685.56533	1.24589
1683.63677	1.31016
1681.70820	1.37655
1679.77964	1.41946
1677.85107	1.46068
1675.92251	1.50816
1673.99395	1.56691
1672.06538	1.61914
1670.13682	1.67029
1668.20825	1.73712
1666.27969	1.79235
1664.35112	1.84045
1662.42256	1.90207
1660.49399	1.97181
1658.56543	2.02569
1656.63687	2.06930
1654.70830	2.11033
1652.77974	2.17095
1650.85117	2.22426
1648.92261	2.24300
1646.99404	2.26714
1645.06548	2.29196
1643.13691	2.30828
1641.20835	2.31794
1639.27979	2.32646
1637.35122	2.33074
1635.42266	2.32795
1633.49409	2.31643
1631.56553	2.30005
1629.63696	2.28215
1627.70840	2.25311
1625.77983	2.21876
1623.85127	2.17630
1621.92271	2.12441
1619.99414	2.07763
1618.06558	2.03187
1616.13701	1.96663
1614.20845	1.89961
1612.27988	1.84861
1610.35132	1.79639
1608.42275	1.73974
1606.49419	1.68296
1604.56562	1.63050
1602.63706	1.58100
1600.70850	1.53358
1598.77993	1.48976
1596.85137	1.44825
1594.92280	1.40801
1592.99424	1.36949
1591.06567	1.33449
1589.13711	1.30197
1587.20854	1.27208
1585.27998	1.24491
1583.35142	1.21970
1581.42285	1.19675
1579.49429	1.17748
1577.56572	1.16072
1575.63716	1.14105
1573.70859	1.12402
1571.78003	1.11320
1569.85146	1.10274
1567.92290	1.09168
1565.99434	1.08403
1564.06577	1.07920
1562.13721	1.07600
1560.20864	1.07544
1558.28008	1.07952
1556.35151	1.08309
1554.42295	1.08421
1552.49438	1.08563
1550.56582	1.08583
1548.63726	1.08332
1546.70869	1.07812
1544.78013	1.06997
1542.85156	1.05873
1540.92300	1.04179
1538.99443	1.01364
1537.06587	0.99186
1535.13730	0.97704
1533.20874	0.95781
1531.28018	0.93714
1529.35161	0.92193
1527.42305	0.90779
1525.49448	0.89319
1523.56592	0.88063
1521.63735	0.86877
1519.70879	0.85690
1517.78022	0.84681
1515.85166	0.83514
1513.92310	0.82288
1511.99453	0.81214
1510.06597	0.80239
1508.13740	0.79298
1506.20884	0.77845
1504.28027	0.76533
1502.35171	0.75773
1500.42314	0.75125
1498.49458	0.74457
1496.56602	0.73678
1494.63745	0.72892
1492.70889	0.72289
1490.78032	0.71765
1488.85176	0.71153
1486.92319	0.70550
1484.99463	0.70057
1483.06606	0.69670
1481.13750	0.69365
1479.20894	0.69132
1477.28037	0.68991
1475.35181	0.68925
1473.42324	0.68893
1471.49468	0.68787
1469.56611	0.68565
1467.63755	0.68318
1465.70898	0.68114
1463.78042	0.67965
1461.85186	0.67878
1459.92329	0.67865
1457.99473	0.67926
1456.06616	0.67908
1454.13760	0.67670
1452.20903	0.67405
1450.28047	0.67180
1448.35190	0.66980
1446.42334	0.66746
1444.49478	0.66483
1442.56621	0.66224
1440.63765	0.65966
1438.70908	0.65705
1436.78052	0.65380
1434.85195	0.65007
1432.92339	0.64715
1430.99482	0.64515
1429.06626	0.64394
1427.13770	0.64351
1425.20913	0.64375
1423.28057	0.64451
1421.35200	0.64524
1419.42344	0.64588
1417.49487	0.64592
1415.56631	0.64485
1413.63774	0.64394
1411.70918	0.64389
1409.78062	0.64476
1407.85205	0.64623
1405.92349	0.64800
1403.99492	0.64959
1402.06636	0.65027
1400.13779	0.64994
1398.20923	0.64853
1396.28066	0.64602
1394.35210	0.64234
1392.42354	0.63794
1390.49497	0.63388
1388.56641	0.63002
1386.63784	0.62543
1384.70928	0.62012
1382.78071	0.61502
1380.85215	0.61034
1378.92358	0.60621
1376.99502	0.60306
1375.06646	0.60099
1373.13789	0.59948
1371.20933	0.59824
1369.28076	0.59721
1367.35220	0.59610
1365.42363	0.59478
1363.49507	0.59341
1361.56650	0.59201
1359.63794	0.59052
1357.70937	0.58913
1355.78081	0.58794
1353.85225	0.58700
1351.92368	0.58620
1349.99512	0.58543
1348.06655	0.58468
1346.13799	0.58397
1344.20942	0.58332
1342.28086	0.58275
1340.35229	0.58237
1338.42373	0.58190
1336.49517	0.58125
1334.56660	0.58081
1332.63804	0.58078
1330.70947	0.58103
1328.78091	0.58144
1326.85234	0.58194
1324.92378	0.58255
1322.99521	0.58321
1321.06665	0.58377
1319.13809	0.58427
1317.20952	0.58461
1315.28096	0.58458
1313.35239	0.58421
1311.42383	0.58371
1309.49526	0.58328
1307.56670	0.58297
1305.63813	0.58268
1303.70957	0.58229
1301.78101	0.58177
1299.85244	0.58110
1297.92388	0.58029
1295.99531	0.57925
1294.06675	0.57784
1292.13818	0.57625
1290.20962	0.57487
1288.28105	0.57377
1286.35249	0.57268
1284.42393	0.57143
1282.49536	0.57015
1280.56680	0.56902
1278.63823	0.56788
1276.70967	0.56671
1274.78110	0.56571
1272.85254	0.56474
1270.92397	0.56370
1268.99541	0.56275
1267.06685	0.56192
1265.13828	0.56105
1263.20972	0.56018
1261.28115	0.55952
1259.35259	0.55887
1257.42402	0.55816
1255.49546	0.55772
1253.56689	0.55769
1251.63833	0.55779
1249.70977	0.55783
1247.78120	0.55788
1245.85264	0.55790
1243.92407	0.55763
1241.99551	0.55689
1240.06694	0.55561
1238.13838	0.55378
1236.20981	0.55155
1234.28125	0.54921
1232.35269	0.54706
1230.42412	0.54516
1228.49556	0.54338
1226.56699	0.54167
1224.63843	0.54001
1222.70986	0.53843
1220.78130	0.53698
1218.85273	0.53559
1216.92417	0.53427
1214.99561	0.53321
1213.06704	0.53231
1211.13848	0.53148
1209.20991	0.53076
1207.28135	0.52999
1205.35278	0.52905
1203.42422	0.52806
1201.49565	0.52714
1199.56709	0.52627
1197.63853	0.52549
1195.70996	0.52484
1193.78140	0.52433
1191.85283	0.52396
1189.92427	0.52368
1187.99570	0.52342
1186.06714	0.52320
1184.13857	0.52310
1182.21001	0.52331
1180.28145	0.52405
1178.35288	0.52533
1176.42432	0.52682
1174.49575	0.52807
1172.56719	0.52876
1170.63862	0.52865
1168.71006	0.52789
1166.78149	0.52703
1164.85293	0.52637
1162.92437	0.52575
1160.99580	0.52502
1159.06724	0.52424
1157.13867	0.52341
1155.21011	0.52232
1153.28154	0.52087
1151.35298	0.51918
1149.42441	0.51727
1147.49585	0.51509
1145.56729	0.51280
1143.63872	0.51047
1141.71016	0.50813
1139.78159	0.50592
1137.85303	0.50409
1135.92446	0.50267
1133.99590	0.50148
1132.06733	0.50041
1130.13877	0.49958
1128.21021	0.49879
1126.28164	0.49771
1124.35308	0.49638
1122.42451	0.49521
1120.49595	0.49449
1118.56738	0.49417
1116.63882	0.49397
1114.71025	0.49374
1112.78169	0.49369
1110.85312	0.49401
1108.92456	0.49464
1106.99600	0.49562
1105.06743	0.49692
1103.13887	0.49824
1101.21030	0.49970
1099.28174	0.50178
1097.35317	0.50457
1095.42461	0.50771
1093.49604	0.51101
1091.56748	0.51465
1089.63892	0.51892
1087.71035	0.52397
1085.78179	0.52983
1083.85322	0.53599
1081.92466	0.54188
1079.99609	0.54718
1078.06753	0.55080
1076.13896	0.55142
1074.21040	0.54911
1072.28184	0.54470
1070.35327	0.53871
1068.42471	0.53185
1066.49614	0.52502
1064.56758	0.51872
1062.63901	0.51317
1060.71045	0.50827
1058.78188	0.50380
1056.85332	0.49964
1054.92476	0.49586
1052.99619	0.49264
1051.06763	0.48985
1049.13906	0.48727
1047.21050	0.48497
1045.28193	0.48304
1043.35337	0.48140
1041.42480	0.47988
1039.49624	0.47858
1037.56768	0.47769
1035.63911	0.47722
1033.71055	0.47698
1031.78198	0.47678
1029.85342	0.47657
1027.92485	0.47648
1025.99629	0.47649
1024.06772	0.47670
1022.13916	0.47739
1020.21060	0.47845
1018.28203	0.47959
1016.35347	0.48086
1014.42490	0.48222
1012.49634	0.48345
1010.56777	0.48457
1008.63921	0.48585
1006.71064	0.48755
1004.78208	0.48964
1002.85352	0.49197
1000.92495	0.49463
998.99639	0.49792
997.06782	0.50187
995.13926	0.50592
993.21069	0.50966
991.28213	0.51307
989.35356	0.51608
987.42500	0.51833
985.49644	0.51969
983.56787	0.52054
981.63931	0.52153
979.71074	0.52310
977.78218	0.52518
975.85361	0.52752
973.92505	0.53004
971.99648	0.53296
970.06792	0.53635
968.13936	0.54008
966.21079	0.54421
964.28223	0.54896
962.35366	0.55402
960.42510	0.55898
958.49653	0.56430
956.56797	0.57035
954.63940	0.57666
952.71084	0.58283
950.78228	0.58913
948.85371	0.59563
946.92515	0.60204
944.99658	0.60829
943.06802	0.61458
941.13945	0.62106
939.21089	0.62753
937.28232	0.63378
935.35376	0.63972
933.42520	0.64507
931.49663	0.64972
929.56807	0.65492
927.63950	0.66175
925.71094	0.66884
923.78237	0.67513
921.85381	0.68151
919.92524	0.68826
917.99668	0.69492
916.06812	0.70147
914.13955	0.70856
912.21099	0.71703
910.28242	0.72608
908.35386	0.73462
906.42529	0.74281
904.49673	0.75133
902.56816	0.76076
900.63960	0.77024
898.71104	0.77917
896.78247	0.78905
894.85391	0.79986
892.92534	0.80980
890.99678	0.81914
889.06821	0.82960
887.13965	0.84155
885.21108	0.85374
883.28252	0.86482
881.35396	0.87555
879.42539	0.88727
877.49683	0.89929
875.56826	0.91120
873.63970	0.92313
871.71113	0.93446
869.78257	0.94642
867.85400	0.95996
865.92544	0.97163
863.99687	0.98015
862.06831	0.99015
860.13975	1.00385
858.21118	1.01807
856.28262	1.03041
854.35405	1.04116
852.42549	1.05176
850.49692	1.06449
848.56836	1.07829
846.63979	1.09006
844.71123	1.10068
842.78267	1.11253
840.85410	1.12501
838.92554	1.13653
836.99697	1.14748
835.06841	1.15900
833.13984	1.17444
831.21128	1.19327
829.28271	1.20731
827.35415	1.21453
825.42559	1.21978
823.49702	1.22721
821.56846	1.23756
819.63989	1.25154
817.71133	1.27371
815.78276	1.29915
813.85420	1.31080
811.92563	1.31399
809.99707	1.33357
808.06851	1.36852
806.13994	1.39339
804.21138	1.40027
802.28281	1.41325
800.35425	1.45253
798.42568	1.50708
796.49712	1.51520
794.56855	1.46407
792.63999	1.42593
790.71143	1.41350
788.78286	1.42104
786.85430	1.46567
784.92573	1.58728
782.99717	1.79399
781.06860	1.93297
779.14004	1.93013
777.21147	1.87910
775.28291	1.77470
773.35435	1.63954
771.42578	1.55800
769.49722	1.61272
767.56865	1.87576
765.64009	1.98959
763.71152	1.76852
761.78296	1.70124
759.85439	1.58503
757.92583	1.42003
755.99727	1.32842
754.06870	1.28936
752.14014	1.26562
750.21157	1.24725
748.28301	1.18040
746.35444	1.09342
744.42588	1.07313
742.49731	1.12506
740.56875	1.16889
738.64019	1.13915
736.71162	1.06450
734.78306	0.98086
732.85449	0.86022
730.92593	0.81233
728.99736	0.82914
727.06880	0.78814
725.14023	0.82334
723.21167	0.86152
721.28311	0.66572
719.35454	0.50925
717.42598	0.45049
715.49741	0.36946
713.56885	0.24424
711.64028	0.14525
709.71172	0.11964
707.78315	0.17233
705.85459	0.18701
703.92603	0.15248
701.99746	0.16958
700.06890	0.19643
698.14033	0.17504
696.21177	0.18640
694.28320	0.19568
692.35464	0.15738
690.42607	0.15785
688.49751	0.19084
686.56895	0.16780
684.64038	0.09510
682.71182	0.06266
680.78325	0.07889
678.85469	0.14617
676.92612	0.25738
674.99756	0.33085
673.06899	0.26614
671.14043	0.16546
669.21187	0.13777
667.28330	0.17367
665.35474	0.19699
663.42617	0.20934
661.49761	0.18754
659.56904	0.12916
657.64048	0.11602
655.71191	0.14348
653.78335	0.22175
651.85479	0.31925
649.92622	0.28566
647.99766	0.21924
646.06909	0.19140
644.14053	0.18339
642.21196	0.20085
640.28340	0.17579
638.35483	0.13382
636.42627	0.10089
634.49771	0.09818
632.56914	0.19354
630.64058	0.28282
628.71201	0.27840
626.78345	0.29042
624.85488	0.33175
622.92632	0.32380
620.99775	0.26874
619.06919	0.15770
617.14062	0.07806
615.21206	0.12382
613.28350	0.20110
611.35493	0.25435
609.42637	0.29449
607.49780	0.29645
605.56924	0.31280
603.64067	0.36677
601.71211	0.38416
599.78354	0.31282
597.85498	0.22852
595.92642	0.15856
593.99785	0.10021
592.06929	0.11859
590.14072	0.21811
588.21216	0.31245
586.28359	0.32321
584.35503	0.27849
582.42646	0.18014
580.49790	0.09099
578.56934	0.08662
576.64077	0.16503
574.71221	0.24265
572.78364	0.22898
570.85508	0.16908
568.92651	0.14039
566.99795	0.14304
565.06938	0.10119
563.14082	0.04936
561.21226	0.05666
559.28369	0.10774
557.35513	0.18374
555.42656	0.21180
553.49800	0.18204
551.56943	0.14362
549.64087	0.10657
547.71230	0.09990
545.78374	0.14343
543.85518	0.17671
541.92661	0.17331
539.99805	0.14699
538.06948	0.11126
536.14092	0.10312
534.21235	0.11285
532.28379	0.12720
530.35522	0.14396
528.42666	0.11704
526.49810	0.06148
524.56953	0.03789
522.64097	0.07833
520.71240	0.18022
518.78384	0.19148
516.85527	0.09060
514.92671	0.05136
512.99814	0.09847
511.06958	0.15431
509.14102	0.14741
507.21245	0.12829
505.28389	0.13610
503.35532	0.10981
501.42676	0.03149
499.49819	-0.00516
