3997.91411	0.06435
3995.98555	0.06481
3994.05698	0.06574
3992.12842	0.06641
3990.19985	0.06633
3988.27129	0.06584
3986.34272	0.06542
3984.41416	0.06561
3982.48560	0.06650
3980.55703	0.06723
3978.62847	0.06736
3976.69990	0.06751
3974.77134	0.06789
3972.84277	0.06822
3970.91421	0.06837
3968.98564	0.06850
3967.05708	0.06837
3965.12852	0.06804
3963.19995	0.06856
3961.27139	0.06977
3959.34282	0.07014
3957.41426	0.06980
3955.48569	0.06967
3953.55713	0.06994
3951.62856	0.07098
3949.70000	0.07269
3947.77144	0.07358
3945.84287	0.07306
3943.91431	0.07312
3941.98574	0.07380
3940.05718	0.07257
3938.12861	0.07038
3936.20005	0.06970
3934.27148	0.07087
3932.34292	0.07333
3930.41436	0.07515
3928.48579	0.07434
3926.55723	0.07305
3924.62866	0.07387
3922.70010	0.07486
3920.77153	0.07456
3918.84297	0.07483
3916.91440	0.07553
3914.98584	0.07428
3913.05728	0.07117
3911.12871	0.06853
3909.20015	0.06768
3907.27158	0.06969
3905.34302	0.07527
3903.41445	0.08202
3901.48589	0.08511
3899.55732	0.08369
3897.62876	0.07936
3895.70020	0.07486
3893.77163	0.07405
3891.84307	0.07708
3889.91450	0.07854
3887.98594	0.07667
3886.05737	0.07698
3884.12881	0.07961
3882.20024	0.08089
3880.27168	0.08122
3878.34312	0.07932
3876.41455	0.07656
3874.48599	0.07755
3872.55742	0.08170
3870.62886	0.08597
3868.70029	0.08770
3866.77173	0.08566
3864.84316	0.08497
3862.91460	0.08601
3860.98604	0.08386
3859.05747	0.08091
3857.12891	0.08182
3855.20034	0.08748
3853.27178	0.09703
3851.34321	0.09953
3849.41465	0.09050
3847.48608	0.08278
3845.55752	0.08064
3843.62896	0.08380
3841.70039	0.08981
3839.77183	0.09624
3837.84326	0.10072
3835.91470	0.09942
3833.98613	0.09490
3832.05757	0.09147
3830.12900	0.08929
3828.20044	0.08876
3826.27187	0.09033
3824.34331	0.09272
3822.41475	0.09698
3820.48618	0.10386
3818.55762	0.10583
3816.62905	0.10321
3814.70049	0.10010
3812.77192	0.09523
3810.84336	0.09195
3808.91479	0.09320
3806.98623	0.09844
3805.05767	0.10351
3803.12910	0.10737
3801.20054	0.11245
3799.27197	0.11359
3797.34341	0.11052
3795.41484	0.10783
3793.48628	0.10446
3791.55771	0.10201
3789.62915	0.10215
3787.70059	0.10404
3785.77202	0.10724
3783.84346	0.11032
3781.91489	0.11215
3779.98633	0.11463
3778.05776	0.11685
3776.12920	0.11582
3774.20063	0.11458
3772.27207	0.11656
3770.34351	0.12186
3768.41494	0.12717
3766.48638	0.12931
3764.55781	0.13027
3762.62925	0.13132
3760.70068	0.13419
3758.77212	0.13990
3756.84355	0.14442
3754.91499	0.14685
3752.98643	0.15218
3751.05786	0.16292
3749.12930	0.17271
3747.20073	0.17494
3745.27217	0.17680
3743.34360	0.18198
3741.41504	0.18658
3739.48647	0.19127
3737.55791	0.20059
3735.62935	0.21631
3733.70078	0.23119
3731.77222	0.23622
3729.84365	0.23791
3727.91509	0.24235
3725.98652	0.24984
3724.05796	0.25645
3722.12939	0.25856
3720.20083	0.25692
3718.27227	0.25325
3716.34370	0.25076
3714.41514	0.25407
3712.48657	0.26823
3710.55801	0.29337
3708.62944	0.31352
3706.70088	0.32248
3704.77231	0.33116
3702.84375	0.34421
3700.91519	0.36095
3698.98662	0.37763
3697.05806	0.39296
3695.12949	0.40964
3693.20093	0.42901
3691.27236	0.45258
3689.34380	0.48179
3687.41523	0.51118
3685.48667	0.53343
3683.55811	0.55375
3681.62954	0.57902
3679.70098	0.61118
3677.77241	0.64791
3675.84385	0.69215
3673.91528	0.74617
3671.98672	0.78583
3670.05815	0.82210
3668.12959	0.87206
3666.20103	0.91488
3664.27246	0.95104
3662.34390	0.99250
3660.41533	1.03929
3658.48677	1.08708
3656.55820	1.13897
3654.62964	1.19528
3652.70107	1.24207
3650.77251	1.28700
3648.84395	1.35150
3646.91538	1.42083
3644.98682	1.46320
3643.05825	1.49667
3641.12969	1.53599
3639.20112	1.58218
3637.27256	1.62966
3635.34399	1.67700
3633.41543	1.72584
3631.48687	1.77236
3629.55830	1.81942
3627.62974	1.87751
3625.70117	1.92596
3623.77261	1.95566
3621.84404	1.98503
3619.91548	2.02077
3617.98691	2.06477
3616.05835	2.10583
3614.12979	2.13883
3612.20122	2.17436
3610.27266	2.21321
3608.34409	2.25673
3606.41553	2.30301
3604.48696	2.34247
3602.55840	2.37794
3600.62983	2.41867
3598.70127	2.46171
3596.77271	2.50141
3594.84414	2.54208
3592.91558	2.58374
3590.98701	2.62020
3589.05845	2.65276
3587.12988	2.69265
3585.20132	2.73658
3583.27275	2.77295
3581.34419	2.80809
3579.41562	2.84759
3577.48706	2.88964
3575.55850	2.93172
3573.62993	2.97366
3571.70137	3.01481
3569.77280	3.05687
3567.84424	3.10353
3565.91567	3.15754
3563.98711	3.20684
3562.05854	3.24701
3560.12998	3.28714
3558.20142	3.32998
3556.27285	3.37427
3554.34429	3.41812
3552.41572	3.46398
3550.48716	3.51090
3548.55859	3.55526
3546.63003	3.59951
3544.70146	3.64719
3542.77290	3.69443
3540.84434	3.73894
3538.91577	3.78363
3536.98721	3.82895
3535.05864	3.87481
3533.13008	3.92072
3531.20151	3.97045
3529.27295	4.02377
3527.34438	4.07540
3525.41582	4.12403
3523.48726	4.17243
3521.55869	4.22066
3519.63013	4.26273
3517.70156	4.30221
3515.77300	4.34943
3513.84443	4.40124
3511.91587	4.44699
3509.98730	4.49217
3508.05874	4.54346
3506.13018	4.59439
3504.20161	4.64322
3502.27305	4.68992
3500.34448	4.73329
3498.41592	4.77859
3496.48735	4.82878
3494.55879	4.88316
3492.63022	4.93962
3490.70166	4.98953
3488.77310	5.03174
3486.84453	5.07688
3484.91597	5.12603
3482.98740	5.17337
3481.05884	5.22067
3479.13027	5.26861
3477.20171	5.31708
3475.27314	5.36659
3473.34458	5.41346
3471.41602	5.45898
3469.48745	5.50619
3467.55889	5.55159
3465.63032	5.59454
3463.70176	5.64067
3461.77319	5.69509
3459.84463	5.75998
3457.91606	5.82366
3455.98750	5.87507
3454.05894	5.91237
3452.13037	5.94067
3450.20181	5.97608
3448.27324	6.02747
3446.34468	6.09405
3444.41611	6.15629
3442.48755	6.20125
3440.55898	6.25176
3438.63042	6.31615
3436.70186	6.36565
3434.77329	6.40141
3432.84473	6.43489
3430.91616	6.45914
3428.98760	6.49738
3427.05903	6.55395
3425.13047	6.61393
3423.20190	6.67548
3421.27334	6.73786
3419.34478	6.78408
3417.41621	6.80967
3415.48765	6.84335
3413.55908	6.89507
3411.63052	6.93748
3409.70195	6.95303
3407.77339	6.99107
3405.84482	7.06065
3403.91626	7.12254
3401.98770	7.15292
3400.05913	7.14908
3398.13057	7.14541
3396.20200	7.17547
3394.27344	7.24226
3392.34487	7.31697
3390.41631	7.37815
3388.48774	7.38200
3386.55918	7.35955
3384.63062	7.39309
3382.70205	7.46945
3380.77349	7.53007
3378.84492	7.54644
3376.91636	7.55224
3374.98779	7.58456
3373.05923	7.64404
3371.13066	7.69963
3369.20210	7.71634
3367.27354	7.68494
3365.34497	7.66232
3363.41641	7.69357
3361.48784	7.76359
3359.55928	7.80802
3357.63071	7.78649
3355.70215	7.79319
3353.77358	7.83093
3351.84502	7.81680
3349.91646	7.76891
3347.98789	7.77522
3346.05933	7.83539
3344.13076	7.86535
3342.20220	7.88405
3340.27363	7.92669
3338.34507	7.96038
3336.41650	7.96236
3334.48794	7.95060
3332.55937	7.91364
3330.63081	7.85976
3328.70225	7.83251
3326.77368	7.85920
3324.84512	7.92805
3322.91655	7.96959
3320.98799	7.95323
3319.05942	7.92538
3317.13086	7.93834
3315.20229	7.94704
3313.27373	7.91435
3311.34517	7.87728
3309.41660	7.89021
3307.48804	7.96926
3305.55947	8.04510
3303.63091	8.09437
3301.70234	8.12539
3299.77378	8.10528
3297.84521	8.02058
3295.91665	7.94156
3293.98809	7.91524
3292.05952	7.93185
3290.13096	7.98026
3288.20239	8.03115
3286.27383	8.05301
3284.34526	8.01876
3282.41670	7.97660
3280.48813	7.97198
3278.55957	7.98341
3276.63101	7.97840
3274.70244	7.93899
3272.77388	7.91922
3270.84531	7.97646
3268.91675	8.05209
3266.98818	8.06686
3265.05962	8.03211
3263.13105	7.96700
3261.20249	7.91534
3259.27393	7.92965
3257.34536	7.98278
3255.41680	7.99618
3253.48823	7.96871
3251.55967	7.96437
3249.63110	8.01930
3247.70254	8.06518
3245.77397	8.00643
3243.84541	7.96353
3241.91685	8.00920
3239.98828	8.01130
3238.05972	7.92576
3236.13115	7.82950
3234.20259	7.78826
3232.27402	7.83953
3230.34546	7.94670
3228.41689	8.05564
3226.48833	8.14501
3224.55977	8.17533
3222.63120	8.13946
3220.70264	8.00361
3218.77407	7.82179
3216.84551	7.75598
3214.91694	7.81452
3212.98838	7.86712
3211.05981	7.82338
3209.13125	7.75861
3207.20269	7.79023
3205.27412	7.84213
3203.34556	7.77368
3201.41699	7.67054
3199.48843	7.64818
3197.55986	7.67862
3195.63130	7.66533
3193.70273	7.58983
3191.77417	7.51152
3189.84561	7.45541
3187.91704	7.42558
3185.98848	7.40885
3184.05991	7.37462
3182.13135	7.32647
3180.20278	7.27559
3178.27422	7.20845
3176.34565	7.14184
3174.41709	7.12008
3172.48853	7.12802
3170.55996	7.08127
3168.63140	6.98126
3166.70283	6.91425
3164.77427	6.89272
3162.84570	6.85609
3160.91714	6.77699
3158.98857	6.70206
3157.06001	6.64649
3155.13145	6.58268
3153.20288	6.49697
3151.27432	6.40028
3149.34575	6.32501
3147.41719	6.26934
3145.48862	6.20633
3143.56006	6.14300
3141.63149	6.09203
3139.70293	6.03317
3137.77437	5.95658
3135.84580	5.87840
3133.91724	5.80976
3131.98867	5.74986
3130.06011	5.68548
3128.13154	5.60925
3126.20298	5.52719
3124.27441	5.44670
3122.34585	5.37148
3120.41729	5.29905
3118.48872	5.22930
3116.56016	5.16413
3114.63159	5.09801
3112.70303	5.03058
3110.77446	4.96346
3108.84590	4.89139
3106.91733	4.81596
3104.98877	4.74420
3103.06021	4.67897
3101.13164	4.61436
3099.20308	4.54668
3097.27451	4.47963
3095.34595	4.41224
3093.41738	4.34331
3091.48882	4.27648
3089.56025	4.21355
3087.63169	4.15192
3085.70312	4.08844
3083.77456	4.02267
3081.84600	3.95671
3079.91743	3.89171
3077.98887	3.82847
3076.06030	3.76846
3074.13174	3.70992
3072.20317	3.65141
3070.27461	3.59347
3068.34604	3.53446
3066.41748	3.47327
3064.48892	3.41309
3062.56035	3.35700
3060.63179	3.30372
3058.70322	3.25121
3056.77466	3.19904
3054.84609	3.14612
3052.91753	3.09195
3050.98896	3.03849
3049.06040	2.98646
3047.13184	2.93520
3045.20327	2.88493
3043.27471	2.83571
3041.34614	2.78726
3039.41758	2.73929
3037.48901	2.69182
3035.56045	2.64543
3033.63188	2.59966
3031.70332	2.55383
3029.77476	2.50889
3027.84619	2.46519
3025.91763	2.42168
3023.98906	2.37902
3022.06050	2.33823
3020.13193	2.29800
3018.20337	2.25694
3016.27480	2.21557
3014.34624	2.17560
3012.41768	2.13739
3010.48911	2.09980
3008.56055	2.06242
3006.63198	2.02547
3004.70342	1.98896
3002.77485	1.95318
3000.84629	1.91799
2998.91772	1.88316
2996.98916	1.84942
2995.06060	1.81675
2993.13203	1.78431
2991.20347	1.75227
2989.27490	1.72090
2987.34634	1.69008
2985.41777	1.65961
2983.48921	1.62923
2981.56064	1.59906
2979.63208	1.56929
2977.70352	1.53998
2975.77495	1.51140
2973.84639	1.48367
2971.91782	1.45636
2969.98926	1.42911
2968.06069	1.40203
2966.13213	1.37550
2964.20356	1.34945
2962.27500	1.32361
2960.34644	1.29842
2958.41787	1.27441
2956.48931	1.25106
2954.56074	1.22810
2952.63218	1.20572
2950.70361	1.18355
2948.77505	1.16156
2946.84648	1.13980
2944.91792	1.11788
2942.98936	1.09595
2941.06079	1.07438
2939.13223	1.05290
2937.20366	1.03182
2935.27510	1.01190
2933.34653	0.99261
2931.41797	0.97302
2929.48940	0.95335
2927.56084	0.93426
2925.63228	0.91599
2923.70371	0.89882
2921.77515	0.88305
2919.84658	0.86863
2917.91802	0.85484
2915.98945	0.84062
2914.06089	0.82617
2912.13232	0.81229
2910.20376	0.79886
2908.27520	0.78525
2906.34663	0.77156
2904.41807	0.75855
2902.48950	0.74613
2900.56094	0.73384
2898.63237	0.72174
2896.70381	0.70972
2894.77524	0.69769
2892.84668	0.68598
2890.91812	0.67456
2888.98955	0.66335
2887.06099	0.65250
2885.13242	0.64191
2883.20386	0.63129
2881.27529	0.62061
2879.34673	0.61012
2877.41816	0.60007
2875.48960	0.59026
2873.56104	0.58013
2871.63247	0.56962
2869.70391	0.55912
2867.77534	0.54882
2865.84678	0.53854
2863.91821	0.52819
2861.98965	0.51797
2860.06108	0.50792
2858.13252	0.49786
2856.20396	0.48790
2854.27539	0.47889
2852.34683	0.47150
2850.41826	0.46512
2848.48970	0.45875
2846.56113	0.45213
2844.63257	0.44552
2842.70400	0.43934
2840.77544	0.43373
2838.84687	0.42841
2836.91831	0.42314
2834.98975	0.41761
2833.06118	0.41162
2831.13262	0.40555
2829.20405	0.39988
2827.27549	0.39447
2825.34692	0.38894
2823.41836	0.38320
2821.48979	0.37738
2819.56123	0.37163
2817.63267	0.36605
2815.70410	0.36070
2813.77554	0.35556
2811.84697	0.35038
2809.91841	0.34510
2807.98984	0.34000
2806.06128	0.33524
2804.13271	0.33066
2802.20415	0.32601
2800.27559	0.32126
2798.34702	0.31649
2796.41846	0.31177
2794.48989	0.30727
2792.56133	0.30304
2790.63276	0.29904
2788.70420	0.29505
2786.77563	0.29082
2784.84707	0.28656
2782.91851	0.28257
2780.98994	0.27874
2779.06138	0.27497
2777.13281	0.27135
2775.20425	0.26774
2773.27568	0.26408
2771.34712	0.26057
2769.41855	0.25722
2767.48999	0.25393
2765.56143	0.25074
2763.63286	0.24757
2761.70430	0.24449
2759.77573	0.24159
2757.84717	0.23873
2755.91860	0.23585
2753.99004	0.23307
2752.06147	0.23033
2750.13291	0.22765
2748.20435	0.22508
2746.27578	0.22249
2744.34722	0.21984
2742.41865	0.21729
2740.49009	0.21492
2738.56152	0.21263
2736.63296	0.21028
2734.70439	0.20787
2732.77583	0.20550
2730.84727	0.20323
2728.91870	0.20113
2726.99014	0.19921
2725.06157	0.19734
2723.13301	0.19547
2721.20444	0.19355
2719.27588	0.19161
2717.34731	0.18981
2715.41875	0.18807
2713.49019	0.18632
2711.56162	0.18466
2709.63306	0.18308
2707.70449	0.18148
2705.77593	0.17993
2703.84736	0.17846
2701.91880	0.17696
2699.99023	0.17542
2698.06167	0.17390
2696.13311	0.17251
2694.20454	0.17124
2692.27598	0.16992
2690.34741	0.16853
2688.41885	0.16723
2686.49028	0.16612
2684.56172	0.16511
2682.63315	0.16404
2680.70459	0.16290
2678.77603	0.16181
2676.84746	0.16074
2674.91890	0.15970
2672.99033	0.15869
2671.06177	0.15759
2669.13320	0.15647
2667.20464	0.15555
2665.27607	0.15478
2663.34751	0.15415
2661.41895	0.15368
2659.49038	0.15302
2657.56182	0.15194
2655.63325	0.15093
2653.70469	0.15025
2651.77612	0.14969
2649.84756	0.14922
2647.91899	0.14883
2645.99043	0.14828
2644.06187	0.14764
2642.13330	0.14713
2640.20474	0.14672
2638.27617	0.14628
2636.34761	0.14585
2634.41904	0.14544
2632.49048	0.14507
2630.56191	0.14473
2628.63335	0.14443
2626.70479	0.14415
2624.77622	0.14382
2622.84766	0.14343
2620.91909	0.14310
2618.99053	0.14297
2617.06196	0.14305
2615.13340	0.14316
2613.20483	0.14309
2611.27627	0.14292
2609.34771	0.14285
2607.41914	0.14282
2605.49058	0.14277
2603.56201	0.14280
2601.63345	0.14277
2599.70488	0.14266
2597.77632	0.14278
2595.84775	0.14314
2593.91919	0.14341
2591.99062	0.14352
2590.06206	0.14363
2588.13350	0.14375
2586.20493	0.14393
2584.27637	0.14426
2582.34780	0.14469
2580.41924	0.14510
2578.49067	0.14545
2576.56211	0.14572
2574.63354	0.14602
2572.70498	0.14639
2570.77642	0.14677
2568.84785	0.14719
2566.91929	0.14760
2564.99072	0.14802
2563.06216	0.14851
2561.13359	0.14910
2559.20503	0.14973
2557.27646	0.15027
2555.34790	0.15075
2553.41934	0.15127
2551.49077	0.15180
2549.56221	0.15236
2547.63364	0.15300
2545.70508	0.15373
2543.77651	0.15446
2541.84795	0.15512
2539.91938	0.15575
2537.99082	0.15649
2536.06226	0.15729
2534.13369	0.15801
2532.20513	0.15863
2530.27656	0.15924
2528.34800	0.15996
2526.41943	0.16077
2524.49087	0.16160
2522.56230	0.16245
2520.63374	0.16330
2518.70518	0.16409
2516.77661	0.16479
2514.84805	0.16546
2512.91948	0.16620
2510.99092	0.16711
2509.06235	0.16812
2507.13379	0.16902
2505.20522	0.16981
2503.27666	0.17069
2501.34810	0.17166
2499.41953	0.17257
2497.49097	0.17343
2495.56240	0.17431
2493.63384	0.17518
2491.70527	0.17609
2489.77671	0.17703
2487.84814	0.17787
2485.91958	0.17873
2483.99102	0.17969
2482.06245	0.18062
2480.13389	0.18150
2478.20532	0.18246
2476.27676	0.18339
2474.34819	0.18418
2472.41963	0.18496
2470.49106	0.18588
2468.56250	0.18697
2466.63394	0.18815
2464.70537	0.18927
2462.77681	0.19028
2460.84824	0.19117
2458.91968	0.19197
2456.99111	0.19284
2455.06255	0.19386
2453.13398	0.19492
2451.20542	0.19591
2449.27686	0.19687
2447.34829	0.19786
2445.41973	0.19890
2443.49116	0.20004
2441.56260	0.20112
2439.63403	0.20215
2437.70547	0.20329
2435.77690	0.20440
2433.84834	0.20539
2431.91978	0.20643
2429.99121	0.20764
2428.06265	0.20889
2426.13408	0.20992
2424.20552	0.21082
2422.27695	0.21196
2420.34839	0.21318
2418.41982	0.21428
2416.49126	0.21537
2414.56270	0.21651
2412.63413	0.21762
2410.70557	0.21875
2408.77700	0.22004
2406.84844	0.22132
2404.91987	0.22245
2402.99131	0.22355
2401.06274	0.22473
2399.13418	0.22601
2397.20562	0.22733
2395.27705	0.22868
2393.34849	0.23014
2391.41992	0.23189
2389.49136	0.23452
2387.56279	0.23943
2385.63423	0.24880
2383.70566	0.26466
2381.77710	0.28750
2379.84854	0.31614
2377.91997	0.34931
2375.99141	0.38712
2374.06284	0.43040
2372.13428	0.47899
2370.20571	0.53168
2368.27715	0.58574
2366.34858	0.63641
2364.42002	0.67933
2362.49146	0.71095
2360.56289	0.72848
2358.63433	0.72905
2356.70576	0.70777
2354.77720	0.66484
2352.84863	0.60778
2350.92007	0.54925
2348.99150	0.51308
2347.06294	0.51370
2345.13437	0.54998
2343.20581	0.59714
2341.27725	0.62014
2339.34868	0.61929
2337.42012	0.61104
2335.49155	0.60292
2333.56299	0.59568
2331.63442	0.59020
2329.70586	0.58369
2327.77729	0.57255
2325.84873	0.55705
2323.92017	0.53971
2321.99160	0.52157
2320.06304	0.50097
2318.13447	0.47799
2316.20591	0.45716
2314.27734	0.44264
2312.34878	0.43358
2310.42021	0.42514
2308.49165	0.41364
2306.56309	0.39966
2304.63452	0.38666
2302.70596	0.37762
2300.77739	0.37173
2298.84883	0.36641
2296.92026	0.36116
2294.99170	0.35635
2293.06313	0.35161
2291.13457	0.34683
2289.20601	0.34235
2287.27744	0.33820
2285.34888	0.33456
2283.42031	0.33258
2281.49175	0.33343
2279.56318	0.33663
2277.63462	0.34045
2275.70605	0.34386
2273.77749	0.34673
2271.84893	0.34906
2269.92036	0.35090
2267.99180	0.35258
2266.06323	0.35419
2264.13467	0.35562
2262.20610	0.35688
2260.27754	0.35806
2258.34897	0.35909
2256.42041	0.36000
2254.49185	0.36097
2252.56328	0.36204
2250.63472	0.36315
2248.70615	0.36429
2246.77759	0.36568
2244.84902	0.36739
2242.92046	0.36917
2240.99189	0.37094
2239.06333	0.37279
2237.13477	0.37476
2235.20620	0.37684
2233.27764	0.37896
2231.34907	0.38106
2229.42051	0.38313
2227.49194	0.38516
2225.56338	0.38730
2223.63481	0.38962
2221.70625	0.39193
2219.77769	0.39420
2217.84912	0.39636
2215.92056	0.39840
2213.99199	0.40047
2212.06343	0.40267
2210.13486	0.40490
2208.20630	0.40705
2206.27773	0.40914
2204.34917	0.41124
2202.42061	0.41336
2200.49204	0.41544
2198.56348	0.41745
2196.63491	0.41942
2194.70635	0.42139
2192.77778	0.42334
2190.84922	0.42525
2188.92065	0.42715
2186.99209	0.42899
2185.06353	0.43076
2183.13496	0.43246
2181.20640	0.43413
2179.27783	0.43581
2177.34927	0.43746
2175.42070	0.43903
2173.49214	0.44056
2171.56357	0.44206
2169.63501	0.44350
2167.70645	0.44484
2165.77788	0.44603
2163.84932	0.44717
2161.92075	0.44841
2159.99219	0.44968
2158.06362	0.45085
2156.13506	0.45185
2154.20649	0.45273
2152.27793	0.45352
2150.34937	0.45426
2148.42080	0.45494
2146.49224	0.45544
2144.56367	0.45582
2142.63511	0.45623
2140.70654	0.45664
2138.77798	0.45696
2136.84941	0.45713
2134.92085	0.45721
2132.99229	0.45726
2131.06372	0.45722
2129.13516	0.45703
2127.20659	0.45674
2125.27803	0.45638
2123.34946	0.45600
2121.42090	0.45563
2119.49233	0.45518
2117.56377	0.45462
2115.63521	0.45396
2113.70664	0.45312
2111.77808	0.45211
2109.84951	0.45106
2107.92095	0.45007
2105.99238	0.44906
2104.06382	0.44789
2102.13525	0.44658
2100.20669	0.44521
2098.27812	0.44387
2096.34956	0.44257
2094.42100	0.44104
2092.49243	0.43932
2090.56387	0.43768
2088.63530	0.43598
2086.70674	0.43412
2084.77817	0.43221
2082.84961	0.43033
2080.92104	0.42846
2078.99248	0.42656
2077.06392	0.42447
2075.13535	0.42220
2073.20679	0.41989
2071.27822	0.41762
2069.34966	0.41544
2067.42109	0.41337
2065.49253	0.41133
2063.56396	0.40904
2061.63540	0.40653
2059.70684	0.40401
2057.77827	0.40141
2055.84971	0.39872
2053.92114	0.39612
2051.99258	0.39359
2050.06401	0.39093
2048.13545	0.38820
2046.20688	0.38556
2044.27832	0.38310
2042.34976	0.38072
2040.42119	0.37814
2038.49263	0.37533
2036.56406	0.37250
2034.63550	0.36978
2032.70693	0.36704
2030.77837	0.36419
2028.84980	0.36130
2026.92124	0.35844
2024.99268	0.35562
2023.06411	0.35287
2021.13555	0.35016
2019.20698	0.34767
2017.27842	0.34524
2015.34985	0.34233
2013.42129	0.33919
2011.49272	0.33631
2009.56416	0.33358
2007.63560	0.33086
2005.70703	0.32823
2003.77847	0.32563
2001.84990	0.32303
1999.92134	0.32042
1997.99277	0.31779
1996.06421	0.31523
1994.13564	0.31309
1992.20708	0.31118
1990.27852	0.30865
1988.34995	0.30560
1986.42139	0.30267
1984.49282	0.30001
1982.56426	0.29760
1980.63569	0.29530
1978.70713	0.29300
1976.77856	0.29074
1974.85000	0.28860
1972.92144	0.28656
1970.99287	0.28462
1969.06431	0.28298
1967.13574	0.28134
1965.20718	0.27904
1963.27861	0.27645
1961.35005	0.27422
1959.42148	0.27227
1957.49292	0.27048
1955.56436	0.26879
1953.63579	0.26694
1951.70723	0.26499
1949.77866	0.26327
1947.85010	0.26201
1945.92153	0.26115
1943.99297	0.26045
1942.06440	0.25924
1940.13584	0.25696
1938.20728	0.25463
1936.27871	0.25306
1934.35015	0.25183
1932.42158	0.25060
1930.49302	0.24937
1928.56445	0.24823
1926.63589	0.24732
1924.70732	0.24703
1922.77876	0.24690
1920.85020	0.24599
1918.92163	0.24502
1916.99307	0.24408
1915.06450	0.24249
1913.13594	0.24109
1911.20737	0.24065
1909.27881	0.24054
1907.35024	0.23975
1905.42168	0.23841
1903.49312	0.23737
1901.56455	0.23676
1899.63599	0.23631
1897.70742	0.23608
1895.77886	0.23609
1893.85029	0.23592
1891.92173	0.23566
1889.99316	0.23584
1888.06460	0.23556
1886.13604	0.23461
1884.20747	0.23394
1882.27891	0.23354
1880.35034	0.23327
1878.42178	0.23320
1876.49321	0.23324
1874.56465	0.23327
1872.63608	0.23378
1870.70752	0.23553
1868.77896	0.23801
1866.85039	0.23828
1864.92183	0.23634
1862.99326	0.23500
1861.06470	0.23482
1859.13613	0.23518
1857.20757	0.23551
1855.27900	0.23574
1853.35044	0.23599
1851.42187	0.23658
1849.49331	0.23779
1847.56475	0.23961
1845.63618	0.24188
1843.70762	0.24361
1841.77905	0.24324
1839.85049	0.24229
1837.92192	0.24273
1835.99336	0.24380
1834.06479	0.24473
1832.13623	0.24641
1830.20767	0.24934
1828.27910	0.25133
1826.35054	0.25178
1824.42197	0.25254
1822.49341	0.25297
1820.56484	0.25319
1818.63628	0.25419
1816.70771	0.25585
1814.77915	0.25760
1812.85059	0.25996
1810.92202	0.26292
1808.99346	0.26504
1807.06489	0.26625
1805.13633	0.26781
1803.20776	0.27055
1801.27920	0.27416
1799.35063	0.27750
1797.42207	0.27984
1795.49351	0.28251
1793.56494	0.28661
1791.63638	0.29112
1789.70781	0.29302
1787.77925	0.29367
1785.85068	0.29625
1783.92212	0.30036
1781.99355	0.30491
1780.06499	0.30949
1778.13643	0.31367
1776.20786	0.31796
1774.27930	0.32392
1772.35073	0.33201
1770.42217	0.33829
1768.49360	0.34147
1766.56504	0.34476
1764.63647	0.34937
1762.70791	0.35583
1760.77935	0.36385
1758.85078	0.37064
1756.92222	0.37740
1754.99365	0.38467
1753.06509	0.39181
1751.13652	0.40186
1749.20796	0.41449
1747.27939	0.42504
1745.35083	0.43311
1743.42227	0.44195
1741.49370	0.45234
1739.56514	0.46489
1737.63657	0.47752
1735.70801	0.48961
1733.77944	0.50831
1731.85088	0.52776
1729.92231	0.54108
1727.99375	0.55498
1726.06519	0.57103
1724.13662	0.58972
1722.20806	0.61026
1720.27949	0.62990
1718.35093	0.65457
1716.42236	0.68974
1714.49380	0.71897
1712.56523	0.74067
1710.63667	0.76304
1708.70811	0.78894
1706.77954	0.81959
1704.85098	0.85591
1702.92241	0.88753
1700.99385	0.91914
1699.06528	0.96625
1697.13672	1.00795
1695.20815	1.04795
1693.27959	1.08558
1691.35103	1.11689
1689.42246	1.15476
1687.49390	1.19484
1685.56533	1.23380
1683.63677	1.29308
1681.70820	1.35136
1679.77964	1.38715
1677.85107	1.42264
1675.92251	1.46517
1673.99395	1.51723
1672.06538	1.56243
1670.13682	1.60687
1668.20825	1.66313
1666.27969	1.70630
1664.35112	1.74218
1662.42256	1.78819
1660.49399	1.84033
1658.56543	1.88074
1656.63687	1.91458
1654.70830	1.94853
1652.77974	2.00322
1650.85117	2.05368
1648.92261	2.07377
1646.99404	2.10184
1645.06548	2.13312
1643.13691	2.15247
1641.20835	2.16509
1639.27979	2.17853
1637.35122	2.18962
1635.42266	2.19376
1633.49409	2.18805
1631.56553	2.17619
1629.63696	2.16234
1627.70840	2.13957
1625.77983	2.11240
1623.85127	2.07723
1621.92271	2.03269
1619.99414	1.99205
1618.06558	1.95239
1616.13701	1.89479
1614.20845	1.83336
1612.27988	1.78606
1610.35132	1.73823
1608.42275	1.68661
1606.49419	1.63488
1604.56562	1.58697
1602.63706	1.54070
1600.70850	1.49478
1598.77993	1.45177
1596.85137	1.41140
1594.92280	1.37232
1592.99424	1.33389
1591.06567	1.29783
1589.13711	1.26365
1587.20854	1.23143
1585.27998	1.20114
1583.35142	1.17247
1581.42285	1.14598
1579.49429	1.12349
1577.56572	1.10398
1575.63716	1.07888
1573.70859	1.05419
1571.78003	1.03802
1569.85146	1.02208
1567.92290	1.00270
1565.99434	0.98624
1564.06577	0.97278
1562.13721	0.96243
1560.20864	0.95588
1558.28008	0.94353
1556.35151	0.92683
1554.42295	0.91516
1552.49438	0.90452
1550.56582	0.89453
1548.63726	0.88442
1546.70869	0.87573
1544.78013	0.86931
1542.85156	0.86390
1540.92300	0.85671
1538.99443	0.84103
1537.06587	0.82639
1535.13730	0.81805
1533.20874	0.80945
1531.28018	0.79901
1529.35161	0.79139
1527.42305	0.78598
1525.49448	0.78047
1523.56592	0.77518
1521.63735	0.76987
1519.70879	0.76246
1517.78022	0.75513
1515.85166	0.74725
1513.92310	0.73921
1511.99453	0.73384
1510.06597	0.73149
1508.13740	0.73093
1506.20884	0.72486
1504.28027	0.71382
1502.35171	0.70719
1500.42314	0.70353
1498.49458	0.70120
1496.56602	0.69776
1494.63745	0.69254
1492.70889	0.68888
1490.78032	0.68792
1488.85176	0.68658
1486.92319	0.68174
1484.99463	0.67641
1483.06606	0.67299
1481.13750	0.67084
1479.20894	0.66893
1477.28037	0.66796
1475.35181	0.66832
1473.42324	0.66840
1471.49468	0.66474
1469.56611	0.65892
1467.63755	0.65516
1465.70898	0.65350
1463.78042	0.65150
1461.85186	0.64892
1459.92329	0.64830
1457.99473	0.64970
1456.06616	0.64812
1454.13760	0.64258
1452.20903	0.63826
1450.28047	0.63558
1448.35190	0.63376
1446.42334	0.63144
1444.49478	0.62860
1442.56621	0.62628
1440.63765	0.62474
1438.70908	0.62426
1436.78052	0.62408
1434.85195	0.62214
1432.92339	0.61954
1430.99482	0.61787
1429.06626	0.61618
1427.13770	0.61411
1425.20913	0.61287
1423.28057	0.61232
1421.35200	0.61179
1419.42344	0.61167
1417.49487	0.61037
1415.56631	0.60702
1413.63774	0.60400
1411.70918	0.60207
1409.78062	0.60061
1407.85205	0.59944
1405.92349	0.59891
1403.99492	0.59817
1402.06636	0.59684
1400.13779	0.59617
1398.20923	0.59608
1396.28066	0.59536
1394.35210	0.59324
1392.42354	0.59004
1390.49497	0.58758
1388.56641	0.58654
1386.63784	0.58540
1384.70928	0.58299
1382.78071	0.58064
1380.85215	0.57908
1378.92358	0.57817
1376.99502	0.57796
1375.06646	0.57822
1373.13789	0.57759
1371.20933	0.57594
1369.28076	0.57463
1367.35220	0.57353
1365.42363	0.57263
1363.49507	0.57242
1361.56650	0.57164
1359.63794	0.56969
1357.70937	0.56802
1355.78081	0.56691
1353.85225	0.56590
1351.92368	0.56488
1349.99512	0.56393
1348.06655	0.56286
1346.13799	0.56169
1344.20942	0.56072
1342.28086	0.56037
1340.35229	0.56054
1338.42373	0.55995
1336.49517	0.55815
1334.56660	0.55636
1332.63804	0.55520
1330.70947	0.55437
1328.78091	0.55354
1326.85234	0.55274
1324.92378	0.55211
1322.99521	0.55164
1321.06665	0.55130
1319.13809	0.55099
1317.20952	0.55036
1315.28096	0.54940
1313.35239	0.54841
1311.42383	0.54742
1309.49526	0.54650
1307.56670	0.54566
1305.63813	0.54469
1303.70957	0.54365
1301.78101	0.54275
1299.85244	0.54194
1297.92388	0.54106
1295.99531	0.54016
1294.06675	0.53937
1292.13818	0.53873
1290.20962	0.53826
1288.28105	0.53778
1286.35249	0.53707
1284.42393	0.53629
1282.49536	0.53565
1280.56680	0.53514
1278.63823	0.53451
1276.70967	0.53373
1274.78110	0.53309
1272.85254	0.53282
1270.92397	0.53263
1268.99541	0.53210
1267.06685	0.53140
1265.13828	0.53083
1263.20972	0.53044
1261.28115	0.53025
1259.35259	0.52999
1257.42402	0.52942
1255.49546	0.52888
1253.56689	0.52856
1251.63833	0.52831
1249.70977	0.52807
1247.78120	0.52787
1245.85264	0.52755
1243.92407	0.52700
1241.99551	0.52646
1240.06694	0.52610
1238.13838	0.52564
1236.20981	0.52485
1234.28125	0.52398
1232.35269	0.52322
1230.42412	0.52252
1228.49556	0.52173
1226.56699	0.52076
1224.63843	0.51980
1222.70986	0.51899
1220.78130	0.51824
1218.85273	0.51745
1216.92417	0.51671
1214.99561	0.51603
1213.06704	0.51531
1211.13848	0.51467
1209.20991	0.51417
1207.28135	0.51369
1205.35278	0.51324
1203.42422	0.51276
1201.49565	0.51215
1199.56709	0.51143
1197.63853	0.51066
1195.70996	0.50988
1193.78140	0.50913
1191.85283	0.50858
1189.92427	0.50826
1187.99570	0.50795
1186.06714	0.50763
1184.13857	0.50753
1182.21001	0.50776
1180.28145	0.50818
1178.35288	0.50860
1176.42432	0.50911
1174.49575	0.50996
1172.56719	0.51089
1170.63862	0.51160
1168.71006	0.51235
1166.78149	0.51321
1164.85293	0.51404
1162.92437	0.51481
1160.99580	0.51551
1159.06724	0.51600
1157.13867	0.51606
1155.21011	0.51556
1153.28154	0.51449
1151.35298	0.51277
1149.42441	0.51059
1147.49585	0.50823
1145.56729	0.50568
1143.63872	0.50298
1141.71016	0.50052
1139.78159	0.49837
1137.85303	0.49644
1135.92446	0.49486
1133.99590	0.49349
1132.06733	0.49213
1130.13877	0.49090
1128.21021	0.48986
1126.28164	0.48889
1124.35308	0.48808
1122.42451	0.48756
1120.49595	0.48725
1118.56738	0.48714
1116.63882	0.48741
1114.71025	0.48799
1112.78169	0.48865
1110.85312	0.48949
1108.92456	0.49075
1106.99600	0.49217
1105.06743	0.49326
1103.13887	0.49416
1101.21030	0.49542
1099.28174	0.49717
1097.35317	0.49922
1095.42461	0.50173
1093.49604	0.50530
1091.56748	0.51018
1089.63892	0.51622
1087.71035	0.52333
1085.78179	0.53125
1083.85322	0.53948
1081.92466	0.54718
1079.99609	0.55315
1078.06753	0.55641
1076.13896	0.55678
1074.21040	0.55436
1072.28184	0.54947
1070.35327	0.54315
1068.42471	0.53633
1066.49614	0.52954
1064.56758	0.52330
1062.63901	0.51784
1060.71045	0.51309
1058.78188	0.50901
1056.85332	0.50534
1054.92476	0.50185
1052.99619	0.49883
1051.06763	0.49667
1049.13906	0.49525
1047.21050	0.49423
1045.28193	0.49360
1043.35337	0.49349
1041.42480	0.49376
1039.49624	0.49414
1037.56768	0.49438
1035.63911	0.49439
1033.71055	0.49427
1031.78198	0.49385
1029.85342	0.49300
1027.92485	0.49184
1025.99629	0.49058
1024.06772	0.48966
1022.13916	0.48923
1020.21060	0.48905
1018.28203	0.48899
1016.35347	0.48914
1014.42490	0.48945
1012.49634	0.48971
1010.56777	0.48994
1008.63921	0.49035
1006.71064	0.49102
1004.78208	0.49209
1002.85352	0.49383
1000.92495	0.49629
998.99639	0.49948
997.06782	0.50337
995.13926	0.50759
993.21069	0.51157
991.28213	0.51467
989.35356	0.51649
987.42500	0.51724
985.49644	0.51760
983.56787	0.51802
981.63931	0.51859
979.71074	0.51949
977.78218	0.52096
975.85361	0.52303
973.92505	0.52566
971.99648	0.52879
970.06792	0.53230
968.13936	0.53609
966.21079	0.54011
964.28223	0.54436
962.35366	0.54883
960.42510	0.55377
958.49653	0.55932
956.56797	0.56516
954.63940	0.57111
952.71084	0.57725
950.78228	0.58371
948.85371	0.59025
946.92515	0.59640
944.99658	0.60238
943.06802	0.60862
941.13945	0.61474
939.21089	0.62031
937.28232	0.62566
935.35376	0.63116
933.42520	0.63682
931.49663	0.64243
929.56807	0.64793
927.63950	0.65377
925.71094	0.66020
923.78237	0.66679
921.85381	0.67337
919.92524	0.67998
917.99668	0.68678
916.06812	0.69368
914.13955	0.70009
912.21099	0.70657
910.28242	0.71402
908.35386	0.72221
906.42529	0.73075
904.49673	0.73965
902.56816	0.74821
900.63960	0.75624
898.71104	0.76589
896.78247	0.77732
894.85391	0.78783
892.92534	0.79735
890.99678	0.80703
889.06821	0.81651
887.13965	0.82641
885.21108	0.83806
883.28252	0.85142
881.35396	0.86501
879.42539	0.87704
877.49683	0.88669
875.56826	0.89523
873.63970	0.90512
871.71113	0.91715
869.78257	0.92968
867.85400	0.94112
865.92544	0.95118
863.99687	0.96104
862.06831	0.97202
860.13975	0.98365
858.21118	0.99533
856.28262	1.00671
854.35405	1.01794
852.42549	1.02923
850.49692	1.04027
848.56836	1.05221
846.63979	1.06624
844.71123	1.08042
842.78267	1.09118
840.85410	1.09931
838.92554	1.10881
836.99697	1.12090
835.06841	1.13200
833.13984	1.13826
831.21128	1.14223
829.28271	1.14676
827.35415	1.15357
825.42559	1.16458
823.49702	1.17659
821.56846	1.18708
819.63989	1.19448
817.71133	1.19854
815.78276	1.20512
813.85420	1.21465
811.92563	1.22303
809.99707	1.22689
808.06851	1.22925
806.13994	1.23525
804.21138	1.23337
802.28281	1.22437
800.35425	1.21922
798.42568	1.21635
796.49712	1.21327
794.56855	1.20699
792.63999	1.20551
790.71143	1.21160
788.78286	1.21732
786.85430	1.22165
784.92573	1.22166
782.99717	1.21067
781.06860	1.18397
779.14004	1.15429
777.21147	1.13354
775.28291	1.11530
773.35435	1.09368
771.42578	1.06930
769.49722	1.06483
767.56865	1.10098
765.64009	1.11248
763.71152	1.03784
761.78296	0.95248
759.85439	0.92777
757.92583	0.96959
755.99727	0.99795
754.06870	0.96478
752.14014	0.93907
750.21157	0.92717
748.28301	0.88754
746.35444	0.83427
744.42588	0.81122
742.49731	0.79320
740.56875	0.71335
738.64019	0.61485
736.71162	0.55322
734.78306	0.52170
732.85449	0.49985
730.92593	0.45833
728.99736	0.37810
727.06880	0.29564
725.14023	0.22051
723.21167	0.12701
721.28311	0.04531
719.35454	0.03480
717.42598	0.06297
715.49741	0.07281
713.56885	0.08015
711.64028	0.08045
709.71172	0.04894
707.78315	-0.02946
705.85459	-0.08524
703.92603	-0.06146
701.99746	-0.01960
700.06890	-0.01269
698.14033	0.01372
696.21177	0.08295
694.28320	0.11582
692.35464	0.07809
690.42607	0.03899
688.49751	0.05559
686.56895	0.11331
684.64038	0.12461
682.71182	0.07857
680.78325	0.03016
678.85469	0.00049
676.92612	0.00021
674.99756	0.04603
673.06899	0.10263
671.14043	0.12832
669.21187	0.10964
667.28330	0.07944
665.35474	0.08432
663.42617	0.09968
661.49761	0.07253
659.56904	0.01110
657.64048	-0.03058
655.71191	-0.01416
653.78335	0.02745
651.85479	0.04570
649.92622	0.03503
647.99766	0.03100
646.06909	0.06393
644.14053	0.10427
642.21196	0.11740
640.28340	0.11260
638.35483	0.11382
636.42627	0.12373
634.49771	0.13012
632.56914	0.15722
630.64058	0.19234
628.71201	0.16288
626.78345	0.09246
624.85488	0.07165
622.92632	0.07373
620.99775	0.06572
619.06919	0.07147
617.14062	0.08622
615.21206	0.08391
613.28350	0.07596
611.35493	0.06503
609.42637	0.04456
607.49780	0.02806
605.56924	0.01432
603.64067	-0.00556
601.71211	0.00894
599.78354	0.04385
597.85498	0.05464
595.92642	0.05233
593.99785	0.06224
592.06929	0.07987
590.14072	0.07732
588.21216	0.07365
586.28359	0.08773
584.35503	0.08838
582.42646	0.07223
580.49790	0.07042
578.56934	0.08690
576.64077	0.09473
574.71221	0.09097
572.78364	0.08439
570.85508	0.07931
568.92651	0.06301
566.99795	0.03057
565.06938	0.02367
563.14082	0.04217
561.21226	0.07310
559.28369	0.11138
557.35513	0.12291
555.42656	0.10354
553.49800	0.08056
551.56943	0.07881
549.64087	0.09110
547.71230	0.09001
545.78374	0.08145
543.85518	0.07417
541.92661	0.05702
539.99805	0.04064
538.06948	0.03131
536.14092	0.03921
534.21235	0.08552
532.28379	0.14450
530.35522	0.16697
528.42666	0.15441
526.49810	0.12371
524.56953	0.10289
522.64097	0.09016
520.71240	0.05445
518.78384	0.03057
516.85527	0.03709
514.92671	0.05375
512.99814	0.08356
511.06958	0.11266
509.14102	0.10863
507.21245	0.08074
505.28389	0.08082
503.35532	0.09978
501.42676	0.09628
499.49819	0.08778
