3997.91411	0.06294
3995.98555	0.06292
3994.05698	0.06321
3992.12842	0.06349
3990.19985	0.06359
3988.27129	0.06366
3986.34272	0.06379
3984.41416	0.06411
3982.48560	0.06454
3980.55703	0.06486
3978.62847	0.06493
3976.69990	0.06508
3974.77134	0.06561
3972.84277	0.06627
3970.91421	0.06674
3968.98564	0.06702
3967.05708	0.06714
3965.12852	0.06712
3963.19995	0.06724
3961.27139	0.06764
3959.34282	0.06772
3957.41426	0.06726
3955.48569	0.06715
3953.55713	0.06761
3951.62856	0.06808
3949.70000	0.06850
3947.77144	0.06882
3945.84287	0.06853
3943.91431	0.06808
3941.98574	0.06838
3940.05718	0.06871
3938.12861	0.06822
3936.20005	0.06759
3934.27148	0.06756
3932.34292	0.06812
3930.41436	0.06865
3928.48579	0.06844
3926.55723	0.06796
3924.62866	0.06814
3922.70010	0.06838
3920.77153	0.06803
3918.84297	0.06776
3916.91440	0.06769
3914.98584	0.06741
3913.05728	0.06716
3911.12871	0.06716
3909.20015	0.06708
3907.27158	0.06724
3905.34302	0.06838
3903.41445	0.07026
3901.48589	0.07155
3899.55732	0.07132
3897.62876	0.06967
3895.70020	0.06792
3893.77163	0.06738
3891.84307	0.06787
3889.91450	0.06806
3887.98594	0.06776
3886.05737	0.06829
3884.12881	0.06961
3882.20024	0.07035
3880.27168	0.07040
3878.34312	0.06998
3876.41455	0.06960
3874.48599	0.06991
3872.55742	0.07058
3870.62886	0.07132
3868.70029	0.07192
3866.77173	0.07189
3864.84316	0.07232
3862.91460	0.07301
3860.98604	0.07246
3859.05747	0.07159
3857.12891	0.07166
3855.20034	0.07288
3853.27178	0.07523
3851.34321	0.07677
3849.41465	0.07586
3847.48608	0.07485
3845.55752	0.07479
3843.62896	0.07566
3841.70039	0.07724
3839.77183	0.07915
3837.84326	0.08056
3835.91470	0.08075
3833.98613	0.08051
3832.05757	0.08051
3830.12900	0.08076
3828.20044	0.08153
3826.27187	0.08274
3824.34331	0.08374
3822.41475	0.08500
3820.48618	0.08705
3818.55762	0.08797
3816.62905	0.08803
3814.70049	0.08813
3812.77192	0.08756
3810.84336	0.08738
3808.91479	0.08855
3806.98623	0.09085
3805.05767	0.09265
3803.12910	0.09375
3801.20054	0.09583
3799.27197	0.09752
3797.34341	0.09792
3795.41484	0.09842
3793.48628	0.09839
3791.55771	0.09824
3789.62915	0.09913
3787.70059	0.10078
3785.77202	0.10259
3783.84346	0.10427
3781.91489	0.10565
3779.98633	0.10732
3778.05776	0.10947
3776.12920	0.11076
3774.20063	0.11146
3772.27207	0.11302
3770.34351	0.11579
3768.41494	0.11882
3766.48638	0.12093
3764.55781	0.12246
3762.62925	0.12383
3760.70068	0.12566
3758.77212	0.12855
3756.84355	0.13172
3754.91499	0.13435
3752.98643	0.13720
3751.05786	0.14102
3749.12930	0.14481
3747.20073	0.14714
3745.27217	0.14961
3743.34360	0.15313
3741.41504	0.15569
3739.48647	0.15780
3737.55791	0.16144
3735.62935	0.16708
3733.70078	0.17298
3731.77222	0.17654
3729.84365	0.17903
3727.91509	0.18248
3725.98652	0.18803
3724.05796	0.19496
3722.12939	0.20154
3720.20083	0.20813
3718.27227	0.21551
3716.34370	0.22350
3714.41514	0.23161
3712.48657	0.24128
3710.55801	0.25462
3708.62944	0.26833
3706.70088	0.27937
3704.77231	0.29027
3702.84375	0.30348
3700.91519	0.32061
3698.98662	0.33895
3697.05806	0.35607
3695.12949	0.37429
3693.20093	0.39412
3691.27236	0.41628
3689.34380	0.44477
3687.41523	0.47922
3685.48667	0.50987
3683.55811	0.53652
3681.62954	0.56475
3679.70098	0.59634
3677.77241	0.62941
3675.84385	0.66828
3673.91528	0.72071
3671.98672	0.76442
3670.05815	0.80366
3668.12959	0.85634
3666.20103	0.90368
3664.27246	0.94345
3662.34390	0.98677
3660.41533	1.03373
3658.48677	1.07970
3656.55820	1.12841
3654.62964	1.18290
3652.70107	1.22939
3650.77251	1.27067
3648.84395	1.32721
3646.91538	1.39523
3644.98682	1.44479
3643.05825	1.48284
3641.12969	1.52187
3639.20112	1.56556
3637.27256	1.61021
3635.34399	1.65368
3633.41543	1.69703
3631.48687	1.73762
3629.55830	1.77852
3627.62974	1.83196
3625.70117	1.88260
3623.77261	1.91706
3621.84404	1.94972
3619.91548	1.98752
3617.98691	2.03403
3616.05835	2.07915
3614.12979	2.11605
3612.20122	2.15317
3610.27266	2.19031
3608.34409	2.22891
3606.41553	2.27094
3604.48696	2.31067
3602.55840	2.34664
3600.62983	2.38511
3598.70127	2.42612
3596.77271	2.46553
3594.84414	2.50612
3592.91558	2.54978
3590.98701	2.59098
3589.05845	2.62790
3587.12988	2.67076
3585.20132	2.71838
3583.27275	2.75943
3581.34419	2.79682
3579.41562	2.83604
3577.48706	2.87773
3575.55850	2.92029
3573.62993	2.96467
3571.70137	3.00938
3569.77280	3.05236
3567.84424	3.09475
3565.91567	3.14277
3563.98711	3.19153
3562.05854	3.23473
3560.12998	3.27781
3558.20142	3.32159
3556.27285	3.36489
3554.34429	3.40919
3552.41572	3.45744
3550.48716	3.50530
3548.55859	3.54939
3546.63003	3.59546
3544.70146	3.64715
3542.77290	3.69914
3540.84434	3.74773
3538.91577	3.79336
3536.98721	3.83665
3535.05864	3.88273
3533.13008	3.93133
3531.20151	3.97836
3529.27295	4.02527
3527.34438	4.07555
3525.41582	4.12473
3523.48726	4.16997
3521.55869	4.21689
3519.63013	4.26588
3517.70156	4.31550
3515.77300	4.36534
3513.84443	4.41663
3511.91587	4.46789
3509.98730	4.51517
3508.05874	4.56045
3506.13018	4.60662
3504.20161	4.65361
3502.27305	4.70500
3500.34448	4.75968
3498.41592	4.81020
3496.48735	4.85579
3494.55879	4.89727
3492.63022	4.94047
3490.70166	4.99065
3488.77310	5.04269
3486.84453	5.09150
3484.91597	5.14182
3482.98740	5.19990
3481.05884	5.25835
3479.13027	5.30501
3477.20171	5.34318
3475.27314	5.38749
3473.34458	5.44150
3471.41602	5.49223
3469.48745	5.54163
3467.55889	5.59500
3465.63032	5.63943
3463.70176	5.68319
3461.77319	5.73962
3459.84463	5.79649
3457.91606	5.84658
3455.98750	5.89893
3454.05894	5.95012
3452.13037	5.99195
3450.20181	6.03338
3448.27324	6.08185
3446.34468	6.13713
3444.41611	6.19422
3442.48755	6.25122
3440.55898	6.30576
3438.63042	6.36083
3436.70186	6.41649
3434.77329	6.46120
3432.84473	6.51315
3430.91616	6.59458
3428.98760	6.67428
3427.05903	6.72797
3425.13047	6.78382
3423.20190	6.83905
3421.27334	6.87538
3419.34478	6.89375
3417.41621	6.91678
3415.48765	6.96414
3413.55908	7.02131
3411.63052	7.07282
3409.70195	7.11806
3407.77339	7.18506
3405.84482	7.26005
3403.91626	7.29550
3401.98770	7.27885
3400.05913	7.26577
3398.13057	7.31498
3396.20200	7.38638
3394.27344	7.43026
3392.34487	7.47045
3390.41631	7.55134
3388.48774	7.65132
3386.55918	7.72380
3384.63062	7.74411
3382.70205	7.74104
3380.77349	7.74092
3378.84492	7.72291
3376.91636	7.71715
3374.98779	7.73375
3373.05923	7.76188
3371.13066	7.81399
3369.20210	7.87171
3367.27354	7.91040
3365.34497	7.97985
3363.41641	8.04747
3361.48784	8.04233
3359.55928	8.06172
3357.63071	8.12788
3355.70215	8.14882
3353.77358	8.12226
3351.84502	8.13973
3349.91646	8.22228
3347.98789	8.30908
3346.05933	8.32745
3344.13076	8.32045
3342.20220	8.37576
3340.27363	8.41018
3338.34507	8.36257
3336.41650	8.36748
3334.48794	8.45924
3332.55937	8.43998
3330.63081	8.33627
3328.70225	8.28739
3326.77368	8.27493
3324.84512	8.26721
3322.91655	8.26440
3320.98799	8.31715
3319.05942	8.42549
3317.13086	8.49301
3315.20229	8.41959
3313.27373	8.35064
3311.34517	8.39082
3309.41660	8.45255
3307.48804	8.49303
3305.55947	8.47921
3303.63091	8.42847
3301.70234	8.39836
3299.77378	8.39528
3297.84521	8.35459
3295.91665	8.34182
3293.98809	8.47376
3292.05952	8.65341
3290.13096	8.74960
3288.20239	8.76827
3286.27383	8.70985
3284.34526	8.59329
3282.41670	8.48701
3280.48813	8.42391
3278.55957	8.43772
3276.63101	8.47940
3274.70244	8.51263
3272.77388	8.54533
3270.84531	8.46832
3268.91675	8.37983
3266.98818	8.43629
3265.05962	8.50830
3263.13105	8.48188
3261.20249	8.50855
3259.27393	8.61346
3257.34536	8.63726
3255.41680	8.52989
3253.48823	8.39659
3251.55967	8.37811
3249.63110	8.50069
3247.70254	8.59765
3245.77397	8.51835
3243.84541	8.41583
3241.91685	8.44619
3239.98828	8.52498
3238.05972	8.49717
3236.13115	8.42659
3234.20259	8.44881
3232.27402	8.52343
3230.34546	8.54792
3228.41689	8.46921
3226.48833	8.29704
3224.55977	8.14505
3222.63120	8.12971
3220.70264	8.22389
3218.77407	8.26581
3216.84551	8.21805
3214.91694	8.19478
3212.98838	8.18689
3211.05981	8.15057
3209.13125	8.13575
3207.20269	8.13275
3205.27412	8.09606
3203.34556	8.06906
3201.41699	8.07626
3199.48843	8.05168
3197.55986	7.96789
3195.63130	7.88698
3193.70273	7.83073
3191.77417	7.74233
3189.84561	7.64302
3187.91704	7.61449
3185.98848	7.64309
3184.05991	7.64695
3182.13135	7.57198
3180.20278	7.45218
3178.27422	7.36752
3176.34565	7.32920
3174.41709	7.28552
3172.48853	7.23283
3170.55996	7.18292
3168.63140	7.11485
3166.70283	7.03509
3164.77427	6.96905
3162.84570	6.92349
3160.91714	6.87459
3158.98857	6.80366
3157.06001	6.73219
3155.13145	6.65999
3153.20288	6.57116
3151.27432	6.49237
3149.34575	6.42229
3147.41719	6.34580
3145.48862	6.27815
3143.56006	6.20366
3141.63149	6.11773
3139.70293	6.04027
3137.77437	5.96640
3135.84580	5.89112
3133.91724	5.81690
3131.98867	5.74532
3130.06011	5.67903
3128.13154	5.61284
3126.20298	5.54524
3124.27441	5.47956
3122.34585	5.40889
3120.41729	5.33055
3118.48872	5.25098
3116.56016	5.17633
3114.63159	5.10660
3112.70303	5.03638
3110.77446	4.96253
3108.84590	4.88816
3106.91733	4.81905
3104.98877	4.75413
3103.06021	4.68947
3101.13164	4.62301
3099.20308	4.55568
3097.27451	4.48791
3095.34595	4.41789
3093.41738	4.34805
3091.48882	4.28022
3089.56025	4.21442
3087.63169	4.15200
3085.70312	4.09184
3083.77456	4.02964
3081.84600	3.96437
3079.91743	3.89985
3077.98887	3.83918
3076.06030	3.78147
3074.13174	3.72333
3072.20317	3.66433
3070.27461	3.60664
3068.34604	3.54936
3066.41748	3.49079
3064.48892	3.43228
3062.56035	3.37459
3060.63179	3.31812
3058.70322	3.26410
3056.77466	3.21089
3054.84609	3.15713
3052.91753	3.10499
3050.98896	3.05504
3049.06040	3.00489
3047.13184	2.95387
3045.20327	2.90311
3043.27471	2.85320
3041.34614	2.80395
3039.41758	2.75511
3037.48901	2.70723
3035.56045	2.66049
3033.63188	2.61456
3031.70332	2.56975
3029.77476	2.52620
3027.84619	2.48304
3025.91763	2.43984
3023.98906	2.39744
3022.06050	2.35619
3020.13193	2.31496
3018.20337	2.27331
3016.27480	2.23243
3014.34624	2.19308
3012.41768	2.15473
3010.48911	2.11669
3008.56055	2.07909
3006.63198	2.04242
3004.70342	2.00601
3002.77485	1.96936
3000.84629	1.93400
2998.91772	1.90073
2996.98916	1.86853
2995.06060	1.83657
2993.13203	1.80489
2991.20347	1.77366
2989.27490	1.74282
2987.34634	1.71261
2985.41777	1.68303
2983.48921	1.65387
2981.56064	1.62556
2979.63208	1.59801
2977.70352	1.57074
2975.77495	1.54370
2973.84639	1.51691
2971.91782	1.49051
2969.98926	1.46480
2968.06069	1.43949
2966.13213	1.41448
2964.20356	1.39010
2962.27500	1.36560
2960.34644	1.34036
2958.41787	1.31555
2956.48931	1.29170
2954.56074	1.26815
2952.63218	1.24458
2950.70361	1.22106
2948.77505	1.19818
2946.84648	1.17619
2944.91792	1.15417
2942.98936	1.13198
2941.06079	1.11064
2939.13223	1.08999
2937.20366	1.06915
2935.27510	1.04818
2933.34653	1.02733
2931.41797	1.00652
2929.48940	0.98616
2927.56084	0.96680
2925.63228	0.94813
2923.70371	0.92988
2921.77515	0.91290
2919.84658	0.89796
2917.91802	0.88370
2915.98945	0.86851
2914.06089	0.85291
2912.13232	0.83788
2910.20376	0.82336
2908.27520	0.80915
2906.34663	0.79521
2904.41807	0.78122
2902.48950	0.76735
2900.56094	0.75401
2898.63237	0.74112
2896.70381	0.72843
2894.77524	0.71618
2892.84668	0.70451
2890.91812	0.69304
2888.98955	0.68151
2887.06099	0.67028
2885.13242	0.65960
2883.20386	0.64919
2881.27529	0.63894
2879.34673	0.62914
2877.41816	0.61945
2875.48960	0.60964
2873.56104	0.59977
2871.63247	0.58950
2869.70391	0.57879
2867.77534	0.56776
2865.84678	0.55643
2863.91821	0.54495
2861.98965	0.53340
2860.06108	0.52187
2858.13252	0.51087
2856.20396	0.50093
2854.27539	0.49202
2852.34683	0.48400
2850.41826	0.47696
2848.48970	0.47031
2846.56113	0.46345
2844.63257	0.45673
2842.70400	0.45042
2840.77544	0.44453
2838.84687	0.43891
2836.91831	0.43338
2834.98975	0.42785
2833.06118	0.42225
2831.13262	0.41642
2829.20405	0.41054
2827.27549	0.40488
2825.34692	0.39922
2823.41836	0.39332
2821.48979	0.38739
2819.56123	0.38176
2817.63267	0.37640
2815.70410	0.37109
2813.77554	0.36583
2811.84697	0.36052
2809.91841	0.35509
2807.98984	0.34988
2806.06128	0.34493
2804.13271	0.33985
2802.20415	0.33479
2800.27559	0.32998
2798.34702	0.32529
2796.41846	0.32072
2794.48989	0.31633
2792.56133	0.31200
2790.63276	0.30763
2788.70420	0.30317
2786.77563	0.29872
2784.84707	0.29463
2782.91851	0.29086
2780.98994	0.28703
2779.06138	0.28317
2777.13281	0.27934
2775.20425	0.27545
2773.27568	0.27162
2771.34712	0.26802
2769.41855	0.26461
2767.48999	0.26122
2765.56143	0.25769
2763.63286	0.25419
2761.70430	0.25098
2759.77573	0.24798
2757.84717	0.24498
2755.91860	0.24205
2753.99004	0.23917
2752.06147	0.23612
2750.13291	0.23313
2748.20435	0.23034
2746.27578	0.22752
2744.34722	0.22471
2742.41865	0.22203
2740.49009	0.21947
2738.56152	0.21695
2736.63296	0.21440
2734.70439	0.21196
2732.77583	0.20976
2730.84727	0.20761
2728.91870	0.20536
2726.99014	0.20320
2725.06157	0.20120
2723.13301	0.19918
2721.20444	0.19711
2719.27588	0.19510
2717.34731	0.19325
2715.41875	0.19146
2713.49019	0.18969
2711.56162	0.18796
2709.63306	0.18637
2707.70449	0.18495
2705.77593	0.18353
2703.84736	0.18194
2701.91880	0.18019
2699.99023	0.17835
2698.06167	0.17662
2696.13311	0.17523
2694.20454	0.17411
2692.27598	0.17301
2690.34741	0.17175
2688.41885	0.17040
2686.49028	0.16928
2684.56172	0.16841
2682.63315	0.16746
2680.70459	0.16633
2678.77603	0.16519
2676.84746	0.16410
2674.91890	0.16297
2672.99033	0.16179
2671.06177	0.16076
2669.13320	0.15996
2667.20464	0.15922
2665.27607	0.15844
2663.34751	0.15761
2661.41895	0.15672
2659.49038	0.15590
2657.56182	0.15518
2655.63325	0.15441
2653.70469	0.15364
2651.77612	0.15294
2649.84756	0.15238
2647.91899	0.15195
2645.99043	0.15149
2644.06187	0.15093
2642.13330	0.15045
2640.20474	0.15013
2638.27617	0.14974
2636.34761	0.14922
2634.41904	0.14877
2632.49048	0.14835
2630.56191	0.14790
2628.63335	0.14756
2626.70479	0.14738
2624.77622	0.14726
2622.84766	0.14714
2620.91909	0.14688
2618.99053	0.14650
2617.06196	0.14622
2615.13340	0.14615
2613.20483	0.14609
2611.27627	0.14596
2609.34771	0.14581
2607.41914	0.14561
2605.49058	0.14549
2603.56201	0.14557
2601.63345	0.14569
2599.70488	0.14582
2597.77632	0.14607
2595.84775	0.14632
2593.91919	0.14638
2591.99062	0.14631
2590.06206	0.14628
2588.13350	0.14641
2586.20493	0.14668
2584.27637	0.14704
2582.34780	0.14736
2580.41924	0.14756
2578.49067	0.14771
2576.56211	0.14795
2574.63354	0.14831
2572.70498	0.14880
2570.77642	0.14931
2568.84785	0.14966
2566.91929	0.14996
2564.99072	0.15038
2563.06216	0.15084
2561.13359	0.15125
2559.20503	0.15172
2557.27646	0.15225
2555.34790	0.15271
2553.41934	0.15319
2551.49077	0.15387
2549.56221	0.15464
2547.63364	0.15528
2545.70508	0.15578
2543.77651	0.15624
2541.84795	0.15673
2539.91938	0.15729
2537.99082	0.15795
2536.06226	0.15867
2534.13369	0.15937
2532.20513	0.16016
2530.27656	0.16094
2528.34800	0.16162
2526.41943	0.16243
2524.49087	0.16330
2522.56230	0.16407
2520.63374	0.16478
2518.70518	0.16551
2516.77661	0.16627
2514.84805	0.16700
2512.91948	0.16772
2510.99092	0.16848
2509.06235	0.16932
2507.13379	0.17024
2505.20522	0.17112
2503.27666	0.17192
2501.34810	0.17278
2499.41953	0.17368
2497.49097	0.17452
2495.56240	0.17538
2493.63384	0.17628
2491.70527	0.17712
2489.77671	0.17785
2487.84814	0.17857
2485.91958	0.17947
2483.99102	0.18059
2482.06245	0.18171
2480.13389	0.18270
2478.20532	0.18347
2476.27676	0.18408
2474.34819	0.18485
2472.41963	0.18587
2470.49106	0.18689
2468.56250	0.18785
2466.63394	0.18886
2464.70537	0.18980
2462.77681	0.19061
2460.84824	0.19144
2458.91968	0.19239
2456.99111	0.19338
2455.06255	0.19435
2453.13398	0.19535
2451.20542	0.19636
2449.27686	0.19735
2447.34829	0.19842
2445.41973	0.19950
2443.49116	0.20052
2441.56260	0.20149
2439.63403	0.20251
2437.70547	0.20368
2435.77690	0.20485
2433.84834	0.20595
2431.91978	0.20705
2429.99121	0.20820
2428.06265	0.20925
2426.13408	0.21017
2424.20552	0.21108
2422.27695	0.21209
2420.34839	0.21315
2418.41982	0.21422
2416.49126	0.21536
2414.56270	0.21664
2412.63413	0.21789
2410.70557	0.21909
2408.77700	0.22031
2406.84844	0.22151
2404.91987	0.22278
2402.99131	0.22405
2401.06274	0.22506
2399.13418	0.22595
2397.20562	0.22705
2395.27705	0.22840
2393.34849	0.22983
2391.41992	0.23121
2389.49136	0.23247
2387.56279	0.23356
2385.63423	0.23442
2383.70566	0.23498
2381.77710	0.23523
2379.84854	0.23537
2377.91997	0.23551
2375.99141	0.23553
2374.06284	0.23535
2372.13428	0.23509
2370.20571	0.23491
2368.27715	0.23477
2366.34858	0.23475
2364.42002	0.23500
2362.49146	0.23598
2360.56289	0.23773
2358.63433	0.23929
2356.70576	0.24073
2354.77720	0.24328
2352.84863	0.24748
2350.92007	0.25164
2348.99150	0.25406
2347.06294	0.25487
2345.13437	0.25496
2343.20581	0.25557
2341.27725	0.25728
2339.34868	0.25940
2337.42012	0.26120
2335.49155	0.26287
2333.56299	0.26472
2331.63442	0.26662
2329.70586	0.26851
2327.77729	0.27026
2325.84873	0.27194
2323.92017	0.27398
2321.99160	0.27638
2320.06304	0.27903
2318.13447	0.28185
2316.20591	0.28442
2314.27734	0.28655
2312.34878	0.28851
2310.42021	0.29067
2308.49165	0.29302
2306.56309	0.29537
2304.63452	0.29764
2302.70596	0.29979
2300.77739	0.30193
2298.84883	0.30410
2296.92026	0.30629
2294.99170	0.30854
2293.06313	0.31081
2291.13457	0.31301
2289.20601	0.31526
2287.27744	0.31758
2285.34888	0.31983
2283.42031	0.32194
2281.49175	0.32385
2279.56318	0.32574
2277.63462	0.32774
2275.70605	0.32973
2273.77749	0.33175
2271.84893	0.33394
2269.92036	0.33615
2267.99180	0.33830
2266.06323	0.34045
2264.13467	0.34254
2262.20610	0.34467
2260.27754	0.34692
2258.34897	0.34919
2256.42041	0.35137
2254.49185	0.35349
2252.56328	0.35557
2250.63472	0.35764
2248.70615	0.35980
2246.77759	0.36205
2244.84902	0.36433
2242.92046	0.36665
2240.99189	0.36894
2239.06333	0.37114
2237.13477	0.37338
2235.20620	0.37568
2233.27764	0.37797
2231.34907	0.38022
2229.42051	0.38250
2227.49194	0.38472
2225.56338	0.38686
2223.63481	0.38899
2221.70625	0.39109
2219.77769	0.39328
2217.84912	0.39562
2215.92056	0.39794
2213.99199	0.40015
2212.06343	0.40227
2210.13486	0.40443
2208.20630	0.40668
2206.27773	0.40889
2204.34917	0.41097
2202.42061	0.41291
2200.49204	0.41475
2198.56348	0.41665
2196.63491	0.41867
2194.70635	0.42075
2192.77778	0.42276
2190.84922	0.42469
2188.92065	0.42663
2186.99209	0.42848
2185.06353	0.43015
2183.13496	0.43177
2181.20640	0.43339
2179.27783	0.43497
2177.34927	0.43655
2175.42070	0.43821
2173.49214	0.43989
2171.56357	0.44138
2169.63501	0.44268
2167.70645	0.44398
2165.77788	0.44532
2163.84932	0.44661
2161.92075	0.44782
2159.99219	0.44890
2158.06362	0.44980
2156.13506	0.45065
2154.20649	0.45157
2152.27793	0.45258
2150.34937	0.45345
2148.42080	0.45407
2146.49224	0.45459
2144.56367	0.45512
2142.63511	0.45558
2140.70654	0.45586
2138.77798	0.45603
2136.84941	0.45614
2134.92085	0.45618
2132.99229	0.45614
2131.06372	0.45609
2129.13516	0.45596
2127.20659	0.45569
2125.27803	0.45540
2123.34946	0.45500
2121.42090	0.45443
2119.49233	0.45384
2117.56377	0.45334
2115.63521	0.45278
2113.70664	0.45200
2111.77808	0.45101
2109.84951	0.44995
2107.92095	0.44888
2105.99238	0.44776
2104.06382	0.44659
2102.13525	0.44534
2100.20669	0.44403
2098.27812	0.44268
2096.34956	0.44126
2094.42100	0.43975
2092.49243	0.43820
2090.56387	0.43654
2088.63530	0.43478
2086.70674	0.43302
2084.77817	0.43116
2082.84961	0.42922
2080.92104	0.42731
2078.99248	0.42532
2077.06392	0.42315
2075.13535	0.42090
2073.20679	0.41872
2071.27822	0.41651
2069.34966	0.41427
2067.42109	0.41202
2065.49253	0.40966
2063.56396	0.40716
2061.63540	0.40464
2059.70684	0.40217
2057.77827	0.39973
2055.84971	0.39724
2053.92114	0.39468
2051.99258	0.39211
2050.06401	0.38955
2048.13545	0.38703
2046.20688	0.38446
2044.27832	0.38180
2042.34976	0.37903
2040.42119	0.37620
2038.49263	0.37333
2036.56406	0.37041
2034.63550	0.36755
2032.70693	0.36489
2030.77837	0.36235
2028.84980	0.35971
2026.92124	0.35688
2024.99268	0.35398
2023.06411	0.35123
2021.13555	0.34867
2019.20698	0.34608
2017.27842	0.34327
2015.34985	0.34034
2013.42129	0.33748
2011.49272	0.33463
2009.56416	0.33182
2007.63560	0.32912
2005.70703	0.32650
2003.77847	0.32391
2001.84990	0.32132
1999.92134	0.31865
1997.99277	0.31600
1996.06421	0.31350
1994.13564	0.31108
1992.20708	0.30867
1990.27852	0.30617
1988.34995	0.30363
1986.42139	0.30102
1984.49282	0.29846
1982.56426	0.29606
1980.63569	0.29376
1978.70713	0.29151
1976.77856	0.28927
1974.85000	0.28705
1972.92144	0.28484
1970.99287	0.28275
1969.06431	0.28080
1967.13574	0.27885
1965.20718	0.27674
1963.27861	0.27461
1961.35005	0.27264
1959.42148	0.27080
1957.49292	0.26907
1955.56436	0.26738
1953.63579	0.26563
1951.70723	0.26384
1949.77866	0.26220
1947.85010	0.26069
1945.92153	0.25926
1943.99297	0.25794
1942.06440	0.25649
1940.13584	0.25473
1938.20728	0.25305
1936.27871	0.25166
1934.35015	0.25038
1932.42158	0.24912
1930.49302	0.24795
1928.56445	0.24693
1926.63589	0.24601
1924.70732	0.24515
1922.77876	0.24421
1920.85020	0.24315
1918.92163	0.24224
1916.99307	0.24135
1915.06450	0.24026
1913.13594	0.23929
1911.20737	0.23868
1909.27881	0.23815
1907.35024	0.23745
1905.42168	0.23668
1903.49312	0.23602
1901.56455	0.23546
1899.63599	0.23500
1897.70742	0.23466
1895.77886	0.23440
1893.85029	0.23409
1891.92173	0.23367
1889.99316	0.23343
1888.06460	0.23316
1886.13604	0.23270
1884.20747	0.23239
1882.27891	0.23220
1880.35034	0.23202
1878.42178	0.23191
1876.49321	0.23189
1874.56465	0.23190
1872.63608	0.23209
1870.70752	0.23256
1868.77896	0.23330
1866.85039	0.23356
1864.92183	0.23321
1862.99326	0.23300
1861.06470	0.23319
1859.13613	0.23365
1857.20757	0.23406
1855.27900	0.23442
1853.35044	0.23479
1851.42187	0.23530
1849.49331	0.23597
1847.56475	0.23682
1845.63618	0.23789
1843.70762	0.23902
1841.77905	0.23967
1839.85049	0.23999
1837.92192	0.24065
1835.99336	0.24150
1834.06479	0.24244
1832.13623	0.24354
1830.20767	0.24515
1828.27910	0.24684
1826.35054	0.24790
1824.42197	0.24899
1822.49341	0.25011
1820.56484	0.25127
1818.63628	0.25263
1816.70771	0.25429
1814.77915	0.25597
1812.85059	0.25776
1810.92202	0.25984
1808.99346	0.26187
1807.06489	0.26370
1805.13633	0.26559
1803.20776	0.26795
1801.27920	0.27066
1799.35063	0.27347
1797.42207	0.27594
1795.49351	0.27842
1793.56494	0.28141
1791.63638	0.28515
1789.70781	0.28846
1787.77925	0.29082
1785.85068	0.29371
1783.92212	0.29727
1781.99355	0.30118
1780.06499	0.30536
1778.13643	0.30964
1776.20786	0.31378
1774.27930	0.31834
1772.35073	0.32433
1770.42217	0.33059
1768.49360	0.33574
1766.56504	0.34066
1764.63647	0.34577
1762.70791	0.35158
1760.77935	0.35898
1758.85078	0.36591
1756.92222	0.37272
1754.99365	0.38003
1753.06509	0.38675
1751.13652	0.39506
1749.20796	0.40559
1747.27939	0.41583
1745.35083	0.42476
1743.42227	0.43424
1741.49370	0.44478
1739.56514	0.45735
1737.63657	0.46998
1735.70801	0.48111
1733.77944	0.49786
1731.85088	0.51768
1729.92231	0.53319
1727.99375	0.54887
1726.06519	0.56569
1724.13662	0.58413
1722.20806	0.60421
1720.27949	0.62288
1718.35093	0.64475
1716.42236	0.67699
1714.49380	0.70759
1712.56523	0.73221
1710.63667	0.75611
1708.70811	0.78192
1706.77954	0.81134
1704.85098	0.84650
1702.92241	0.87787
1700.99385	0.90873
1699.06528	0.95463
1697.13672	0.99732
1695.20815	1.04135
1693.27959	1.08393
1691.35103	1.11824
1689.42246	1.15812
1687.49390	1.20023
1685.56533	1.24088
1683.63677	1.30363
1681.70820	1.36823
1679.77964	1.40945
1677.85107	1.44943
1675.92251	1.49576
1673.99395	1.55229
1672.06538	1.60246
1670.13682	1.65270
1668.20825	1.71828
1666.27969	1.77118
1664.35112	1.81645
1662.42256	1.87426
1660.49399	1.93954
1658.56543	1.99069
1656.63687	2.03234
1654.70830	2.07015
1652.77974	2.12819
1650.85117	2.18389
1648.92261	2.20357
1646.99404	2.22655
1645.06548	2.25281
1643.13691	2.27198
1641.20835	2.28331
1639.27979	2.29296
1637.35122	2.29834
1635.42266	2.29665
1633.49409	2.28737
1631.56553	2.27233
1629.63696	2.25434
1627.70840	2.22621
1625.77983	2.19408
1623.85127	2.15399
1621.92271	2.10451
1619.99414	2.05969
1618.06558	2.01494
1616.13701	1.94989
1614.20845	1.88342
1612.27988	1.83369
1610.35132	1.78303
1608.42275	1.72806
1606.49419	1.67300
1604.56562	1.62213
1602.63706	1.57379
1600.70850	1.52692
1598.77993	1.48347
1596.85137	1.44252
1594.92280	1.40277
1592.99424	1.36449
1591.06567	1.32968
1589.13711	1.29726
1587.20854	1.26730
1585.27998	1.23999
1583.35142	1.21443
1581.42285	1.19082
1579.49429	1.17080
1577.56572	1.15335
1575.63716	1.13261
1573.70859	1.11423
1571.78003	1.10209
1569.85146	1.08969
1567.92290	1.07627
1565.99434	1.06644
1564.06577	1.05904
1562.13721	1.05334
1560.20864	1.05046
1558.28008	1.04960
1556.35151	1.04775
1554.42295	1.04559
1552.49438	1.04380
1550.56582	1.04092
1548.63726	1.03619
1546.70869	1.03004
1544.78013	1.02153
1542.85156	1.01008
1540.92300	0.99413
1538.99443	0.96906
1537.06587	0.94978
1535.13730	0.93678
1533.20874	0.91980
1531.28018	0.90127
1529.35161	0.88781
1527.42305	0.87551
1525.49448	0.86290
1523.56592	0.85227
1521.63735	0.84224
1519.70879	0.83177
1517.78022	0.82271
1515.85166	0.81221
1513.92310	0.80106
1511.99453	0.79156
1510.06597	0.78325
1508.13740	0.77528
1506.20884	0.76256
1504.28027	0.75093
1502.35171	0.74443
1500.42314	0.73905
1498.49458	0.73346
1496.56602	0.72667
1494.63745	0.71959
1492.70889	0.71424
1490.78032	0.70988
1488.85176	0.70456
1486.92319	0.69891
1484.99463	0.69437
1483.06606	0.69084
1481.13750	0.68780
1479.20894	0.68538
1477.28037	0.68397
1475.35181	0.68323
1473.42324	0.68257
1471.49468	0.68089
1469.56611	0.67821
1467.63755	0.67559
1465.70898	0.67332
1463.78042	0.67143
1461.85186	0.67026
1459.92329	0.67002
1457.99473	0.67028
1456.06616	0.66922
1454.13760	0.66671
1452.20903	0.66447
1450.28047	0.66225
1448.35190	0.65970
1446.42334	0.65689
1444.49478	0.65441
1442.56621	0.65222
1440.63765	0.64999
1438.70908	0.64789
1436.78052	0.64530
1434.85195	0.64189
1432.92339	0.63918
1430.99482	0.63764
1429.06626	0.63683
1427.13770	0.63642
1425.20913	0.63638
1423.28057	0.63671
1421.35200	0.63720
1419.42344	0.63771
1417.49487	0.63730
1415.56631	0.63581
1413.63774	0.63469
1411.70918	0.63433
1409.78062	0.63454
1407.85205	0.63524
1405.92349	0.63637
1403.99492	0.63729
1402.06636	0.63727
1400.13779	0.63655
1398.20923	0.63526
1396.28066	0.63323
1394.35210	0.63007
1392.42354	0.62621
1390.49497	0.62257
1388.56641	0.61898
1386.63784	0.61484
1384.70928	0.61055
1382.78071	0.60658
1380.85215	0.60274
1378.92358	0.59928
1376.99502	0.59673
1375.06646	0.59498
1373.13789	0.59345
1371.20933	0.59224
1369.28076	0.59150
1367.35220	0.59062
1365.42363	0.58931
1363.49507	0.58791
1361.56650	0.58646
1359.63794	0.58493
1357.70937	0.58358
1355.78081	0.58245
1353.85225	0.58145
1351.92368	0.58066
1349.99512	0.58013
1348.06655	0.57953
1346.13799	0.57881
1344.20942	0.57808
1342.28086	0.57740
1340.35229	0.57691
1338.42373	0.57635
1336.49517	0.57554
1334.56660	0.57481
1332.63804	0.57440
1330.70947	0.57430
1328.78091	0.57452
1326.85234	0.57486
1324.92378	0.57521
1322.99521	0.57567
1321.06665	0.57617
1319.13809	0.57656
1317.20952	0.57667
1315.28096	0.57638
1313.35239	0.57588
1311.42383	0.57533
1309.49526	0.57478
1307.56670	0.57428
1305.63813	0.57359
1303.70957	0.57264
1301.78101	0.57174
1299.85244	0.57093
1297.92388	0.57003
1295.99531	0.56896
1294.06675	0.56765
1292.13818	0.56625
1290.20962	0.56503
1288.28105	0.56398
1286.35249	0.56301
1284.42393	0.56202
1282.49536	0.56092
1280.56680	0.55970
1278.63823	0.55840
1276.70967	0.55717
1274.78110	0.55613
1272.85254	0.55527
1270.92397	0.55459
1268.99541	0.55401
1267.06685	0.55345
1265.13828	0.55277
1263.20972	0.55190
1261.28115	0.55091
1259.35259	0.55002
1257.42402	0.54950
1255.49546	0.54930
1253.56689	0.54912
1251.63833	0.54901
1249.70977	0.54904
1247.78120	0.54905
1245.85264	0.54886
1243.92407	0.54837
1241.99551	0.54764
1240.06694	0.54675
1238.13838	0.54555
1236.20981	0.54392
1234.28125	0.54207
1232.35269	0.54031
1230.42412	0.53852
1228.49556	0.53658
1226.56699	0.53475
1224.63843	0.53330
1222.70986	0.53225
1220.78130	0.53138
1218.85273	0.53031
1216.92417	0.52911
1214.99561	0.52813
1213.06704	0.52732
1211.13848	0.52655
1209.20991	0.52592
1207.28135	0.52522
1205.35278	0.52425
1203.42422	0.52322
1201.49565	0.52241
1199.56709	0.52180
1197.63853	0.52125
1195.70996	0.52065
1193.78140	0.52002
1191.85283	0.51947
1189.92427	0.51906
1187.99570	0.51875
1186.06714	0.51853
1184.13857	0.51847
1182.21001	0.51872
1180.28145	0.51929
1178.35288	0.52011
1176.42432	0.52116
1174.49575	0.52218
1172.56719	0.52282
1170.63862	0.52305
1168.71006	0.52294
1166.78149	0.52245
1164.85293	0.52189
1162.92437	0.52156
1160.99580	0.52127
1159.06724	0.52068
1157.13867	0.51984
1155.21011	0.51883
1153.28154	0.51748
1151.35298	0.51573
1149.42441	0.51373
1147.49585	0.51155
1145.56729	0.50914
1143.63872	0.50678
1141.71016	0.50473
1139.78159	0.50284
1137.85303	0.50122
1135.92446	0.50003
1133.99590	0.49897
1132.06733	0.49796
1130.13877	0.49706
1128.21021	0.49626
1126.28164	0.49545
1124.35308	0.49464
1122.42451	0.49385
1120.49595	0.49308
1118.56738	0.49258
1116.63882	0.49228
1114.71025	0.49175
1112.78169	0.49127
1110.85312	0.49134
1108.92456	0.49195
1106.99600	0.49291
1105.06743	0.49412
1103.13887	0.49557
1101.21030	0.49741
1099.28174	0.49963
1097.35317	0.50212
1095.42461	0.50492
1093.49604	0.50819
1091.56748	0.51216
1089.63892	0.51702
1087.71035	0.52256
1085.78179	0.52849
1083.85322	0.53482
1081.92466	0.54131
1079.99609	0.54686
1078.06753	0.55027
1076.13896	0.55095
1074.21040	0.54886
1072.28184	0.54445
1070.35327	0.53857
1068.42471	0.53210
1066.49614	0.52549
1064.56758	0.51906
1062.63901	0.51303
1060.71045	0.50781
1058.78188	0.50372
1056.85332	0.50015
1054.92476	0.49648
1052.99619	0.49293
1051.06763	0.48975
1049.13906	0.48718
1047.21050	0.48552
1045.28193	0.48441
1043.35337	0.48319
1041.42480	0.48176
1039.49624	0.48044
1037.56768	0.47955
1035.63911	0.47910
1033.71055	0.47893
1031.78198	0.47879
1029.85342	0.47849
1027.92485	0.47816
1025.99629	0.47805
1024.06772	0.47815
1022.13916	0.47833
1020.21060	0.47889
1018.28203	0.47990
1016.35347	0.48092
1014.42490	0.48177
1012.49634	0.48267
1010.56777	0.48402
1008.63921	0.48580
1006.71064	0.48751
1004.78208	0.48922
1002.85352	0.49151
1000.92495	0.49443
998.99639	0.49773
997.06782	0.50135
995.13926	0.50529
993.21069	0.50933
991.28213	0.51287
989.35356	0.51544
987.42500	0.51705
985.49644	0.51790
983.56787	0.51849
981.63931	0.51943
979.71074	0.52095
977.78218	0.52290
975.85361	0.52511
973.92505	0.52775
971.99648	0.53122
970.06792	0.53522
968.13936	0.53903
966.21079	0.54279
964.28223	0.54713
962.35366	0.55215
960.42510	0.55741
958.49653	0.56269
956.56797	0.56818
954.63940	0.57405
952.71084	0.58020
950.78228	0.58659
948.85371	0.59308
946.92515	0.59946
944.99658	0.60585
943.06802	0.61226
941.13945	0.61854
939.21089	0.62467
937.28232	0.63033
935.35376	0.63567
933.42520	0.64136
931.49663	0.64741
929.56807	0.65332
927.63950	0.65885
925.71094	0.66449
923.78237	0.67117
921.85381	0.67853
919.92524	0.68566
917.99668	0.69248
916.06812	0.69913
914.13955	0.70639
912.21099	0.71461
910.28242	0.72274
908.35386	0.73076
906.42529	0.73963
904.49673	0.74981
902.56816	0.76079
900.63960	0.77107
898.71104	0.77965
896.78247	0.78734
894.85391	0.79622
892.92534	0.80731
890.99678	0.81897
889.06821	0.82931
887.13965	0.83919
885.21108	0.85073
883.28252	0.86319
881.35396	0.87453
879.42539	0.88580
877.49683	0.89893
875.56826	0.91280
873.63970	0.92430
871.71113	0.93300
869.78257	0.94203
867.85400	0.95315
865.92544	0.96555
863.99687	0.97816
862.06831	0.99023
860.13975	1.00216
858.21118	1.01436
856.28262	1.02702
854.35405	1.04111
852.42549	1.05460
850.49692	1.06523
848.56836	1.07580
846.63979	1.08853
844.71123	1.10089
842.78267	1.11051
840.85410	1.11963
838.92554	1.13109
836.99697	1.14525
835.06841	1.15911
833.13984	1.17002
831.21128	1.18015
829.28271	1.19049
827.35415	1.20255
825.42559	1.21675
823.49702	1.22843
821.56846	1.24444
819.63989	1.27246
817.71133	1.29231
815.78276	1.29374
813.85420	1.29940
811.92563	1.31641
809.99707	1.34489
808.06851	1.38513
806.13994	1.39937
804.21138	1.38958
802.28281	1.42445
800.35425	1.48724
798.42568	1.48047
796.49712	1.43695
794.56855	1.42828
792.63999	1.43933
790.71143	1.45476
788.78286	1.48328
786.85430	1.51477
784.92573	1.57310
782.99717	1.63897
781.06860	1.61458
779.14004	1.51816
777.21147	1.47792
775.28291	1.51202
773.35435	1.53908
771.42578	1.51029
769.49722	1.40396
767.56865	1.29398
765.64009	1.28560
763.71152	1.35199
761.78296	1.30850
759.85439	1.19141
757.92583	1.15400
755.99727	1.17170
754.06870	1.16772
752.14014	1.12248
750.21157	1.05759
748.28301	0.98186
746.35444	0.90276
744.42588	0.84453
742.49731	0.79297
740.56875	0.74263
738.64019	0.74701
736.71162	0.75751
734.78306	0.63724
732.85449	0.46914
730.92593	0.32846
728.99736	0.19492
727.06880	0.06580
725.14023	-0.08314
723.21167	-0.27985
721.28311	-0.78495
719.35454	-0.65067
717.42598	-0.52551
715.49741	-0.55998
713.56885	-0.24742
711.64028	0.14322
709.71172	0.26542
707.78315	0.19217
705.85459	0.20073
703.92603	0.29171
701.99746	0.31536
700.06890	0.28611
698.14033	0.27846
696.21177	0.26122
694.28320	0.22630
692.35464	0.21785
690.42607	0.25365
688.49751	0.30278
686.56895	0.32811
684.64038	0.34751
682.71182	0.33730
680.78325	0.27299
678.85469	0.25091
676.92612	0.27371
674.99756	0.26157
673.06899	0.24353
671.14043	0.28870
669.21187	0.37106
667.28330	0.37110
665.35474	0.28654
663.42617	0.26412
661.49761	0.31445
659.56904	0.34583
657.64048	0.31360
655.71191	0.27531
653.78335	0.26677
651.85479	0.27190
649.92622	0.24457
647.99766	0.21419
646.06909	0.23508
644.14053	0.26725
642.21196	0.25666
640.28340	0.24941
638.35483	0.25007
636.42627	0.24468
634.49771	0.24768
632.56914	0.22783
630.64058	0.17991
628.71201	0.17423
626.78345	0.22680
624.85488	0.26943
622.92632	0.28315
620.99775	0.28370
619.06919	0.28108
617.14062	0.27261
615.21206	0.24352
613.28350	0.23202
611.35493	0.28151
609.42637	0.34525
607.49780	0.34484
605.56924	0.32123
603.64067	0.31188
601.71211	0.29837
599.78354	0.27478
597.85498	0.23959
595.92642	0.20443
593.99785	0.19000
592.06929	0.19056
590.14072	0.17901
588.21216	0.16075
586.28359	0.16852
584.35503	0.20621
582.42646	0.23563
580.49790	0.23373
578.56934	0.21386
576.64077	0.19456
574.71221	0.20615
572.78364	0.24824
570.85508	0.27368
568.92651	0.29788
566.99795	0.33252
565.06938	0.34897
563.14082	0.32398
561.21226	0.27444
559.28369	0.24681
557.35513	0.25413
555.42656	0.27707
553.49800	0.28582
551.56943	0.25422
549.64087	0.21061
547.71230	0.18793
545.78374	0.19042
543.85518	0.21421
541.92661	0.24358
539.99805	0.24286
538.06948	0.22444
536.14092	0.24144
534.21235	0.27664
532.28379	0.25899
530.35522	0.21270
528.42666	0.21695
526.49810	0.26605
524.56953	0.29348
522.64097	0.28321
520.71240	0.25553
518.78384	0.22748
516.85527	0.21730
514.92671	0.21268
512.99814	0.20240
511.06958	0.19837
509.14102	0.20820
507.21245	0.22018
505.28389	0.23513
503.35532	0.25025
501.42676	0.24469
499.49819	0.21360
