3997.91411	0.06148
3995.98555	0.06177
3994.05698	0.06217
3992.12842	0.06255
3990.19985	0.06283
3988.27129	0.06307
3986.34272	0.06339
3984.41416	0.06371
3982.48560	0.06380
3980.55703	0.06384
3978.62847	0.06421
3976.69990	0.06473
3974.77134	0.06495
3972.84277	0.06513
3970.91421	0.06563
3968.98564	0.06598
3967.05708	0.06593
3965.12852	0.06572
3963.19995	0.06562
3961.27139	0.06584
3959.34282	0.06615
3957.41426	0.06617
3955.48569	0.06621
3953.55713	0.06649
3951.62856	0.06683
3949.70000	0.06735
3947.77144	0.06779
3945.84287	0.06752
3943.91431	0.06714
3941.98574	0.06738
3940.05718	0.06724
3938.12861	0.06658
3936.20005	0.06646
3934.27148	0.06690
3932.34292	0.06726
3930.41436	0.06718
3928.48579	0.06658
3926.55723	0.06611
3924.62866	0.06660
3922.70010	0.06733
3920.77153	0.06723
3918.84297	0.06684
3916.91440	0.06684
3914.98584	0.06674
3913.05728	0.06613
3911.12871	0.06572
3909.20015	0.06577
3907.27158	0.06603
3905.34302	0.06680
3903.41445	0.06821
3901.48589	0.06906
3899.55732	0.06885
3897.62876	0.06815
3895.70020	0.06697
3893.77163	0.06603
3891.84307	0.06634
3889.91450	0.06733
3887.98594	0.06731
3886.05737	0.06698
3884.12881	0.06732
3882.20024	0.06759
3880.27168	0.06784
3878.34312	0.06802
3876.41455	0.06784
3874.48599	0.06822
3872.55742	0.06919
3870.62886	0.06994
3868.70029	0.07061
3866.77173	0.07090
3864.84316	0.07086
3862.91460	0.07083
3860.98604	0.07054
3859.05747	0.07046
3857.12891	0.07088
3855.20034	0.07166
3853.27178	0.07313
3851.34321	0.07436
3849.41465	0.07368
3847.48608	0.07267
3845.55752	0.07249
3843.62896	0.07354
3841.70039	0.07518
3839.77183	0.07638
3837.84326	0.07740
3835.91470	0.07820
3833.98613	0.07825
3832.05757	0.07810
3830.12900	0.07808
3828.20044	0.07815
3826.27187	0.07888
3824.34331	0.08025
3822.41475	0.08171
3820.48618	0.08394
3818.55762	0.08569
3816.62905	0.08582
3814.70049	0.08571
3812.77192	0.08533
3810.84336	0.08522
3808.91479	0.08626
3806.98623	0.08837
3805.05767	0.09030
3803.12910	0.09153
3801.20054	0.09376
3799.27197	0.09598
3797.34341	0.09628
3795.41484	0.09622
3793.48628	0.09608
3791.55771	0.09605
3789.62915	0.09684
3787.70059	0.09841
3785.77202	0.10037
3783.84346	0.10226
3781.91489	0.10375
3779.98633	0.10544
3778.05776	0.10764
3776.12920	0.10915
3774.20063	0.11000
3772.27207	0.11119
3770.34351	0.11342
3768.41494	0.11657
3766.48638	0.11905
3764.55781	0.12068
3762.62925	0.12202
3760.70068	0.12361
3758.77212	0.12635
3756.84355	0.12970
3754.91499	0.13226
3752.98643	0.13453
3751.05786	0.13821
3749.12930	0.14290
3747.20073	0.14487
3745.27217	0.14583
3743.34360	0.14940
3741.41504	0.15334
3739.48647	0.15526
3737.55791	0.15743
3735.62935	0.16200
3733.70078	0.16847
3731.77222	0.17355
3729.84365	0.17671
3727.91509	0.17953
3725.98652	0.18414
3724.05796	0.19085
3722.12939	0.19813
3720.20083	0.20578
3718.27227	0.21339
3716.34370	0.22064
3714.41514	0.22797
3712.48657	0.23717
3710.55801	0.25041
3708.62944	0.26421
3706.70088	0.27507
3704.77231	0.28548
3702.84375	0.29812
3700.91519	0.31522
3698.98662	0.33416
3697.05806	0.35179
3695.12949	0.37031
3693.20093	0.38990
3691.27236	0.41126
3689.34380	0.43970
3687.41523	0.47515
3685.48667	0.50582
3683.55811	0.53184
3681.62954	0.55951
3679.70098	0.59053
3677.77241	0.62329
3675.84385	0.66264
3673.91528	0.71586
3671.98672	0.75860
3670.05815	0.79654
3668.12959	0.85001
3666.20103	0.89855
3664.27246	0.93826
3662.34390	0.98114
3660.41533	1.02824
3658.48677	1.07488
3656.55820	1.12425
3654.62964	1.17916
3652.70107	1.22458
3650.77251	1.26334
3648.84395	1.31867
3646.91538	1.38930
3644.98682	1.44078
3643.05825	1.47905
3641.12969	1.51827
3639.20112	1.56212
3637.27256	1.60671
3635.34399	1.65002
3633.41543	1.69277
3631.48687	1.73247
3629.55830	1.77311
3627.62974	1.82724
3625.70117	1.87761
3623.77261	1.91106
3621.84404	1.94319
3619.91548	1.98102
3617.98691	2.02770
3616.05835	2.07258
3614.12979	2.11032
3612.20122	2.15001
3610.27266	2.18899
3608.34409	2.22798
3606.41553	2.27074
3604.48696	2.31090
3602.55840	2.34613
3600.62983	2.38375
3598.70127	2.42439
3596.77271	2.46360
3594.84414	2.50340
3592.91558	2.54535
3590.98701	2.58565
3589.05845	2.62310
3587.12988	2.66717
3585.20132	2.71596
3583.27275	2.75680
3581.34419	2.79341
3579.41562	2.83317
3577.48706	2.87724
3575.55850	2.92115
3573.62993	2.96299
3571.70137	3.00378
3569.77280	3.04512
3567.84424	3.09035
3565.91567	3.14487
3563.98711	3.19549
3562.05854	3.23527
3560.12998	3.27601
3558.20142	3.32119
3556.27285	3.36793
3554.34429	3.41383
3552.41572	3.45940
3550.48716	3.50301
3548.55859	3.54640
3546.63003	3.59400
3544.70146	3.64459
3542.77290	3.69211
3540.84434	3.73805
3538.91577	3.78618
3536.98721	3.83315
3535.05864	3.87916
3533.13008	3.92470
3531.20151	3.96935
3529.27295	4.01564
3527.34438	4.06708
3525.41582	4.12039
3523.48726	4.17013
3521.55869	4.21909
3519.63013	4.27053
3517.70156	4.32320
3515.77300	4.37108
3513.84443	4.41270
3511.91587	4.45606
3509.98730	4.50728
3508.05874	4.56115
3506.13018	4.61066
3504.20161	4.65712
3502.27305	4.70248
3500.34448	4.74548
3498.41592	4.78724
3496.48735	4.83001
3494.55879	4.87615
3492.63022	4.92689
3490.70166	4.97674
3488.77310	5.02667
3486.84453	5.08173
3484.91597	5.13787
3482.98740	5.18775
3481.05884	5.22697
3479.13027	5.26361
3477.20171	5.31339
3475.27314	5.37284
3473.34458	5.42786
3471.41602	5.47332
3469.48745	5.51106
3467.55889	5.55602
3465.63032	5.61279
3463.70176	5.66586
3461.77319	5.71287
3459.84463	5.75652
3457.91606	5.79626
3455.98750	5.84990
3454.05894	5.91683
3452.13037	5.96691
3450.20181	5.99841
3448.27324	6.03274
3446.34468	6.08854
3444.41611	6.16139
3442.48755	6.22236
3440.55898	6.26551
3438.63042	6.31189
3436.70186	6.36491
3434.77329	6.40835
3432.84473	6.43861
3430.91616	6.48178
3428.98760	6.55216
3427.05903	6.61019
3425.13047	6.64455
3423.20190	6.68078
3421.27334	6.72316
3419.34478	6.76780
3417.41621	6.82089
3415.48765	6.88257
3413.55908	6.94734
3411.63052	7.02546
3409.70195	7.09220
3407.77339	7.10863
3405.84482	7.09992
3403.91626	7.12390
3401.98770	7.18408
3400.05913	7.25227
3398.13057	7.31612
3396.20200	7.37878
3394.27344	7.42251
3392.34487	7.41960
3390.41631	7.43241
3388.48774	7.49875
3386.55918	7.56600
3384.63062	7.58485
3382.70205	7.57357
3380.77349	7.55950
3378.84492	7.56700
3376.91636	7.60721
3374.98779	7.65049
3373.05923	7.70438
3371.13066	7.73394
3369.20210	7.72256
3367.27354	7.71899
3365.34497	7.76274
3363.41641	7.83841
3361.48784	7.84617
3359.55928	7.82907
3357.63071	7.93406
3355.70215	8.08074
3353.77358	8.10588
3351.84502	8.09963
3349.91646	8.07890
3347.98789	8.01816
3346.05933	7.97162
3344.13076	7.96034
3342.20220	8.02420
3340.27363	8.14242
3338.34507	8.18925
3336.41650	8.11753
3334.48794	8.06287
3332.55937	8.04500
3330.63081	8.01304
3328.70225	7.98416
3326.77368	7.98881
3324.84512	8.03022
3322.91655	8.05149
3320.98799	8.04743
3319.05942	8.05267
3317.13086	8.03703
3315.20229	7.95895
3313.27373	7.94703
3311.34517	8.06297
3309.41660	8.15746
3307.48804	8.12487
3305.55947	8.04700
3303.63091	8.04373
3301.70234	8.10253
3299.77378	8.17033
3297.84521	8.21073
3295.91665	8.23765
3293.98809	8.28049
3292.05952	8.33202
3290.13096	8.32857
3288.20239	8.20965
3286.27383	8.10964
3284.34526	8.14957
3282.41670	8.27312
3280.48813	8.30304
3278.55957	8.26721
3276.63101	8.31691
3274.70244	8.41363
3272.77388	8.44266
3270.84531	8.39039
3268.91675	8.28628
3266.98818	8.14423
3265.05962	8.09239
3263.13105	8.17365
3261.20249	8.29513
3259.27393	8.39663
3257.34536	8.39379
3255.41680	8.25035
3253.48823	8.11165
3251.55967	8.15146
3249.63110	8.35364
3247.70254	8.42597
3245.77397	8.24183
3243.84541	8.06238
3241.91685	8.03218
3239.98828	8.12950
3238.05972	8.24974
3236.13115	8.32289
3234.20259	8.32871
3232.27402	8.18922
3230.34546	8.00637
3228.41689	7.94238
3226.48833	7.96256
3224.55977	7.96005
3222.63120	7.95491
3220.70264	8.00165
3218.77407	8.07486
3216.84551	8.12233
3214.91694	8.06152
3212.98838	7.92966
3211.05981	7.88713
3209.13125	7.91365
3207.20269	7.89349
3205.27412	7.84009
3203.34556	7.78623
3201.41699	7.72400
3199.48843	7.67755
3197.55986	7.67635
3195.63130	7.67301
3193.70273	7.60666
3191.77417	7.50975
3189.84561	7.45497
3187.91704	7.42966
3185.98848	7.37888
3184.05991	7.36091
3182.13135	7.40255
3180.20278	7.40021
3178.27422	7.32815
3176.34565	7.26620
3174.41709	7.23385
3172.48853	7.19592
3170.55996	7.13278
3168.63140	7.05786
3166.70283	6.98164
3164.77427	6.89842
3162.84570	6.83146
3160.91714	6.77989
3158.98857	6.71334
3157.06001	6.65138
3155.13145	6.60920
3153.20288	6.55318
3151.27432	6.47202
3149.34575	6.38787
3147.41719	6.31116
3145.48862	6.23905
3143.56006	6.16459
3141.63149	6.09545
3139.70293	6.03803
3137.77437	5.97319
3135.84580	5.89676
3133.91724	5.82449
3131.98867	5.75422
3130.06011	5.68185
3128.13154	5.60851
3126.20298	5.52972
3124.27441	5.45316
3122.34585	5.38805
3120.41729	5.32682
3118.48872	5.26305
3116.56016	5.19641
3114.63159	5.12259
3112.70303	5.04471
3110.77446	4.96862
3108.84590	4.89304
3106.91733	4.82089
3104.98877	4.75350
3103.06021	4.68791
3101.13164	4.62357
3099.20308	4.55679
3097.27451	4.48570
3095.34595	4.41709
3093.41738	4.35425
3091.48882	4.29065
3089.56025	4.22305
3087.63169	4.15677
3085.70312	4.09331
3083.77456	4.02864
3081.84600	3.96355
3079.91743	3.90081
3077.98887	3.84132
3076.06030	3.78431
3074.13174	3.72716
3072.20317	3.66887
3070.27461	3.60935
3068.34604	3.54917
3066.41748	3.49054
3064.48892	3.43379
3062.56035	3.37638
3060.63179	3.31873
3058.70322	3.26406
3056.77466	3.21110
3054.84609	3.15693
3052.91753	3.10374
3050.98896	3.05281
3049.06040	3.00172
3047.13184	2.95082
3045.20327	2.90121
3043.27471	2.85148
3041.34614	2.80183
3039.41758	2.75355
3037.48901	2.70572
3035.56045	2.65804
3033.63188	2.61210
3031.70332	2.56756
3029.77476	2.52310
3027.84619	2.47930
3025.91763	2.43651
3023.98906	2.39387
3022.06050	2.35128
3020.13193	2.30910
3018.20337	2.26780
3016.27480	2.22796
3014.34624	2.18906
3012.41768	2.15056
3010.48911	2.11274
3008.56055	2.07548
3006.63198	2.03840
3004.70342	2.00178
3002.77485	1.96616
3000.84629	1.93143
2998.91772	1.89706
2996.98916	1.86332
2995.06060	1.83087
2993.13203	1.79907
2991.20347	1.76715
2989.27490	1.73559
2987.34634	1.70472
2985.41777	1.67433
2983.48921	1.64447
2981.56064	1.61530
2979.63208	1.58649
2977.70352	1.55788
2975.77495	1.52989
2973.84639	1.50260
2971.91782	1.47543
2969.98926	1.44801
2968.06069	1.42081
2966.13213	1.39449
2964.20356	1.36875
2962.27500	1.34322
2960.34644	1.31834
2958.41787	1.29420
2956.48931	1.27064
2954.56074	1.24793
2952.63218	1.22605
2950.70361	1.20470
2948.77505	1.18340
2946.84648	1.16157
2944.91792	1.13976
2942.98936	1.11859
2941.06079	1.09742
2939.13223	1.07586
2937.20366	1.05438
2935.27510	1.03332
2933.34653	1.01253
2931.41797	0.99170
2929.48940	0.97105
2927.56084	0.95114
2925.63228	0.93248
2923.70371	0.91540
2921.77515	0.89952
2919.84658	0.88449
2917.91802	0.87049
2915.98945	0.85703
2914.06089	0.84323
2912.13232	0.82936
2910.20376	0.81601
2908.27520	0.80278
2906.34663	0.78949
2904.41807	0.77645
2902.48950	0.76392
2900.56094	0.75181
2898.63237	0.73960
2896.70381	0.72712
2894.77524	0.71498
2892.84668	0.70359
2890.91812	0.69271
2888.98955	0.68201
2887.06099	0.67139
2885.13242	0.66093
2883.20386	0.65037
2881.27529	0.63952
2879.34673	0.62876
2877.41816	0.61826
2875.48960	0.60777
2873.56104	0.59720
2871.63247	0.58673
2869.70391	0.57633
2867.77534	0.56586
2865.84678	0.55542
2863.91821	0.54484
2861.98965	0.53379
2860.06108	0.52246
2858.13252	0.51113
2856.20396	0.50023
2854.27539	0.49054
2852.34683	0.48234
2850.41826	0.47545
2848.48970	0.46932
2846.56113	0.46328
2844.63257	0.45737
2842.70400	0.45183
2840.77544	0.44655
2838.84687	0.44119
2836.91831	0.43571
2834.98975	0.43009
2833.06118	0.42417
2831.13262	0.41808
2829.20405	0.41220
2827.27549	0.40647
2825.34692	0.40070
2823.41836	0.39487
2821.48979	0.38912
2819.56123	0.38346
2817.63267	0.37788
2815.70410	0.37239
2813.77554	0.36686
2811.84697	0.36144
2809.91841	0.35624
2807.98984	0.35107
2806.06128	0.34593
2804.13271	0.34104
2802.20415	0.33631
2800.27559	0.33154
2798.34702	0.32667
2796.41846	0.32179
2794.48989	0.31716
2792.56133	0.31290
2790.63276	0.30866
2788.70420	0.30425
2786.77563	0.29996
2784.84707	0.29585
2782.91851	0.29173
2780.98994	0.28770
2779.06138	0.28396
2777.13281	0.28037
2775.20425	0.27677
2773.27568	0.27307
2771.34712	0.26922
2769.41855	0.26548
2767.48999	0.26212
2765.56143	0.25890
2763.63286	0.25561
2761.70430	0.25230
2759.77573	0.24911
2757.84717	0.24624
2755.91860	0.24356
2753.99004	0.24070
2752.06147	0.23759
2750.13291	0.23447
2748.20435	0.23158
2746.27578	0.22893
2744.34722	0.22633
2742.41865	0.22375
2740.49009	0.22141
2738.56152	0.21919
2736.63296	0.21689
2734.70439	0.21449
2732.77583	0.21212
2730.84727	0.20996
2728.91870	0.20799
2726.99014	0.20597
2725.06157	0.20377
2723.13301	0.20153
2721.20444	0.19953
2719.27588	0.19782
2717.34731	0.19598
2715.41875	0.19386
2713.49019	0.19186
2711.56162	0.19014
2709.63306	0.18854
2707.70449	0.18688
2705.77593	0.18519
2703.84736	0.18358
2701.91880	0.18209
2699.99023	0.18076
2698.06167	0.17943
2696.13311	0.17789
2694.20454	0.17639
2692.27598	0.17510
2690.34741	0.17379
2688.41885	0.17233
2686.49028	0.17081
2684.56172	0.16935
2682.63315	0.16802
2680.70459	0.16683
2678.77603	0.16581
2676.84746	0.16487
2674.91890	0.16392
2672.99033	0.16298
2671.06177	0.16204
2669.13320	0.16093
2667.20464	0.15978
2665.27607	0.15885
2663.34751	0.15805
2661.41895	0.15717
2659.49038	0.15629
2657.56182	0.15549
2655.63325	0.15465
2653.70469	0.15379
2651.77612	0.15303
2649.84756	0.15240
2647.91899	0.15194
2645.99043	0.15150
2644.06187	0.15085
2642.13330	0.15015
2640.20474	0.14962
2638.27617	0.14913
2636.34761	0.14858
2634.41904	0.14806
2632.49048	0.14772
2630.56191	0.14748
2628.63335	0.14719
2626.70479	0.14681
2624.77622	0.14639
2622.84766	0.14607
2620.91909	0.14590
2618.99053	0.14575
2617.06196	0.14549
2615.13340	0.14516
2613.20483	0.14488
2611.27627	0.14474
2609.34771	0.14469
2607.41914	0.14459
2605.49058	0.14444
2603.56201	0.14430
2601.63345	0.14431
2599.70488	0.14449
2597.77632	0.14471
2595.84775	0.14491
2593.91919	0.14507
2591.99062	0.14512
2590.06206	0.14518
2588.13350	0.14546
2586.20493	0.14586
2584.27637	0.14613
2582.34780	0.14625
2580.41924	0.14632
2578.49067	0.14652
2576.56211	0.14688
2574.63354	0.14726
2572.70498	0.14761
2570.77642	0.14801
2568.84785	0.14836
2566.91929	0.14862
2564.99072	0.14900
2563.06216	0.14948
2561.13359	0.14990
2559.20503	0.15045
2557.27646	0.15113
2555.34790	0.15173
2553.41934	0.15215
2551.49077	0.15252
2549.56221	0.15306
2547.63364	0.15377
2545.70508	0.15449
2543.77651	0.15509
2541.84795	0.15570
2539.91938	0.15642
2537.99082	0.15710
2536.06226	0.15769
2534.13369	0.15832
2532.20513	0.15899
2530.27656	0.15963
2528.34800	0.16025
2526.41943	0.16100
2524.49087	0.16190
2522.56230	0.16278
2520.63374	0.16352
2518.70518	0.16421
2516.77661	0.16498
2514.84805	0.16583
2512.91948	0.16667
2510.99092	0.16742
2509.06235	0.16822
2507.13379	0.16909
2505.20522	0.16989
2503.27666	0.17064
2501.34810	0.17147
2499.41953	0.17231
2497.49097	0.17309
2495.56240	0.17382
2493.63384	0.17458
2491.70527	0.17547
2489.77671	0.17643
2487.84814	0.17727
2485.91958	0.17813
2483.99102	0.17910
2482.06245	0.18003
2480.13389	0.18094
2478.20532	0.18186
2476.27676	0.18274
2474.34819	0.18367
2472.41963	0.18461
2470.49106	0.18549
2468.56250	0.18637
2466.63394	0.18728
2464.70537	0.18820
2462.77681	0.18916
2460.84824	0.19008
2458.91968	0.19094
2456.99111	0.19192
2455.06255	0.19305
2453.13398	0.19418
2451.20542	0.19514
2449.27686	0.19595
2447.34829	0.19686
2445.41973	0.19793
2443.49116	0.19894
2441.56260	0.19983
2439.63403	0.20078
2437.70547	0.20179
2435.77690	0.20286
2433.84834	0.20401
2431.91978	0.20510
2429.99121	0.20613
2428.06265	0.20716
2426.13408	0.20821
2424.20552	0.20928
2422.27695	0.21041
2420.34839	0.21156
2418.41982	0.21273
2416.49126	0.21393
2414.56270	0.21514
2412.63413	0.21636
2410.70557	0.21747
2408.77700	0.21846
2406.84844	0.21955
2404.91987	0.22086
2402.99131	0.22217
2401.06274	0.22333
2399.13418	0.22442
2397.20562	0.22560
2395.27705	0.22687
2393.34849	0.22805
2391.41992	0.22919
2389.49136	0.23041
2387.56279	0.23171
2385.63423	0.23291
2383.70566	0.23382
2381.77710	0.23444
2379.84854	0.23488
2377.91997	0.23520
2375.99141	0.23535
2374.06284	0.23540
2372.13428	0.23523
2370.20571	0.23476
2368.27715	0.23429
2366.34858	0.23356
2364.42002	0.23231
2362.49146	0.23164
2360.56289	0.23216
2358.63433	0.23386
2356.70576	0.23704
2354.77720	0.24108
2352.84863	0.24585
2350.92007	0.25033
2348.99150	0.25273
2347.06294	0.25327
2345.13437	0.25318
2343.20581	0.25324
2341.27725	0.25373
2339.34868	0.25510
2337.42012	0.25728
2335.49155	0.25961
2333.56299	0.26179
2331.63442	0.26443
2329.70586	0.26726
2327.77729	0.26933
2325.84873	0.27117
2323.92017	0.27346
2321.99160	0.27604
2320.06304	0.27875
2318.13447	0.28145
2316.20591	0.28380
2314.27734	0.28582
2312.34878	0.28786
2310.42021	0.29007
2308.49165	0.29236
2306.56309	0.29461
2304.63452	0.29688
2302.70596	0.29912
2300.77739	0.30132
2298.84883	0.30344
2296.92026	0.30547
2294.99170	0.30751
2293.06313	0.30968
2291.13457	0.31180
2289.20601	0.31382
2287.27744	0.31581
2285.34888	0.31772
2283.42031	0.31964
2281.49175	0.32160
2279.56318	0.32359
2277.63462	0.32558
2275.70605	0.32752
2273.77749	0.32954
2271.84893	0.33177
2269.92036	0.33404
2267.99180	0.33616
2266.06323	0.33824
2264.13467	0.34041
2262.20610	0.34258
2260.27754	0.34471
2258.34897	0.34690
2256.42041	0.34917
2254.49185	0.35150
2252.56328	0.35377
2250.63472	0.35583
2248.70615	0.35784
2246.77759	0.35997
2244.84902	0.36224
2242.92046	0.36458
2240.99189	0.36689
2239.06333	0.36911
2237.13477	0.37140
2235.20620	0.37378
2233.27764	0.37610
2231.34907	0.37829
2229.42051	0.38041
2227.49194	0.38254
2225.56338	0.38469
2223.63481	0.38689
2221.70625	0.38912
2219.77769	0.39127
2217.84912	0.39343
2215.92056	0.39577
2213.99199	0.39814
2212.06343	0.40034
2210.13486	0.40238
2208.20630	0.40441
2206.27773	0.40648
2204.34917	0.40851
2202.42061	0.41052
2200.49204	0.41259
2198.56348	0.41474
2196.63491	0.41686
2194.70635	0.41879
2192.77778	0.42060
2190.84922	0.42241
2188.92065	0.42424
2186.99209	0.42609
2185.06353	0.42796
2183.13496	0.42974
2181.20640	0.43139
2179.27783	0.43303
2177.34927	0.43468
2175.42070	0.43619
2173.49214	0.43765
2171.56357	0.43916
2169.63501	0.44065
2167.70645	0.44198
2165.77788	0.44319
2163.84932	0.44443
2161.92075	0.44570
2159.99219	0.44678
2158.06362	0.44763
2156.13506	0.44840
2154.20649	0.44920
2152.27793	0.45010
2150.34937	0.45107
2148.42080	0.45195
2146.49224	0.45259
2144.56367	0.45303
2142.63511	0.45351
2140.70654	0.45403
2138.77798	0.45436
2136.84941	0.45443
2134.92085	0.45445
2132.99229	0.45449
2131.06372	0.45453
2129.13516	0.45446
2127.20659	0.45418
2125.27803	0.45376
2123.34946	0.45325
2121.42090	0.45267
2119.49233	0.45205
2117.56377	0.45153
2115.63521	0.45100
2113.70664	0.45021
2111.77808	0.44922
2109.84951	0.44827
2107.92095	0.44734
2105.99238	0.44624
2104.06382	0.44500
2102.13525	0.44364
2100.20669	0.44222
2098.27812	0.44081
2096.34956	0.43946
2094.42100	0.43809
2092.49243	0.43658
2090.56387	0.43497
2088.63530	0.43324
2086.70674	0.43138
2084.77817	0.42947
2082.84961	0.42760
2080.92104	0.42568
2078.99248	0.42370
2077.06392	0.42168
2075.13535	0.41953
2073.20679	0.41725
2071.27822	0.41499
2069.34966	0.41279
2067.42109	0.41056
2065.49253	0.40824
2063.56396	0.40584
2061.63540	0.40345
2059.70684	0.40103
2057.77827	0.39846
2055.84971	0.39585
2053.92114	0.39330
2051.99258	0.39069
2050.06401	0.38803
2048.13545	0.38535
2046.20688	0.38264
2044.27832	0.38001
2042.34976	0.37748
2040.42119	0.37493
2038.49263	0.37222
2036.56406	0.36945
2034.63550	0.36672
2032.70693	0.36395
2030.77837	0.36121
2028.84980	0.35849
2026.92124	0.35567
2024.99268	0.35280
2023.06411	0.35002
2021.13555	0.34731
2019.20698	0.34461
2017.27842	0.34194
2015.34985	0.33919
2013.42129	0.33635
2011.49272	0.33357
2009.56416	0.33089
2007.63560	0.32821
2005.70703	0.32548
2003.77847	0.32278
2001.84990	0.32017
1999.92134	0.31758
1997.99277	0.31487
1996.06421	0.31222
1994.13564	0.30985
1992.20708	0.30754
1990.27852	0.30496
1988.34995	0.30226
1986.42139	0.29969
1984.49282	0.29733
1982.56426	0.29516
1980.63569	0.29302
1978.70713	0.29081
1976.77856	0.28847
1974.85000	0.28608
1972.92144	0.28381
1970.99287	0.28173
1969.06431	0.27980
1967.13574	0.27790
1965.20718	0.27584
1963.27861	0.27371
1961.35005	0.27168
1959.42148	0.26978
1957.49292	0.26797
1955.56436	0.26621
1953.63579	0.26448
1951.70723	0.26278
1949.77866	0.26119
1947.85010	0.25965
1945.92153	0.25814
1943.99297	0.25676
1942.06440	0.25534
1940.13584	0.25369
1938.20728	0.25214
1936.27871	0.25081
1934.35015	0.24955
1932.42158	0.24839
1930.49302	0.24718
1928.56445	0.24586
1926.63589	0.24468
1924.70732	0.24384
1922.77876	0.24310
1920.85020	0.24219
1918.92163	0.24124
1916.99307	0.24038
1915.06450	0.23941
1913.13594	0.23841
1911.20737	0.23767
1909.27881	0.23710
1907.35024	0.23649
1905.42168	0.23581
1903.49312	0.23516
1901.56455	0.23446
1899.63599	0.23378
1897.70742	0.23336
1895.77886	0.23317
1893.85029	0.23289
1891.92173	0.23246
1889.99316	0.23224
1888.06460	0.23204
1886.13604	0.23164
1884.20747	0.23133
1882.27891	0.23117
1880.35034	0.23103
1878.42178	0.23094
1876.49321	0.23093
1874.56465	0.23093
1872.63608	0.23107
1870.70752	0.23148
1868.77896	0.23221
1866.85039	0.23255
1864.92183	0.23223
1862.99326	0.23200
1861.06470	0.23214
1859.13613	0.23253
1857.20757	0.23296
1855.27900	0.23343
1853.35044	0.23392
1851.42187	0.23448
1849.49331	0.23512
1847.56475	0.23591
1845.63618	0.23693
1843.70762	0.23807
1841.77905	0.23876
1839.85049	0.23900
1837.92192	0.23957
1835.99336	0.24044
1834.06479	0.24142
1832.13623	0.24255
1830.20767	0.24414
1828.27910	0.24573
1826.35054	0.24680
1824.42197	0.24797
1822.49341	0.24908
1820.56484	0.25021
1818.63628	0.25157
1816.70771	0.25322
1814.77915	0.25486
1812.85059	0.25664
1810.92202	0.25874
1808.99346	0.26084
1807.06489	0.26274
1805.13633	0.26460
1803.20776	0.26681
1801.27920	0.26943
1799.35063	0.27234
1797.42207	0.27488
1795.49351	0.27727
1793.56494	0.28011
1791.63638	0.28384
1789.70781	0.28724
1787.77925	0.28958
1785.85068	0.29251
1783.92212	0.29626
1781.99355	0.30026
1780.06499	0.30442
1778.13643	0.30874
1776.20786	0.31290
1774.27930	0.31744
1772.35073	0.32353
1770.42217	0.32978
1768.49360	0.33472
1766.56504	0.33956
1764.63647	0.34467
1762.70791	0.35045
1760.77935	0.35780
1758.85078	0.36454
1756.92222	0.37124
1754.99365	0.37858
1753.06509	0.38517
1751.13652	0.39309
1749.20796	0.40330
1747.27939	0.41340
1745.35083	0.42230
1743.42227	0.43197
1741.49370	0.44282
1739.56514	0.45565
1737.63657	0.46841
1735.70801	0.47947
1733.77944	0.49625
1731.85088	0.51653
1729.92231	0.53249
1727.99375	0.54849
1726.06519	0.56551
1724.13662	0.58403
1722.20806	0.60403
1720.27949	0.62248
1718.35093	0.64427
1716.42236	0.67690
1714.49380	0.70786
1712.56523	0.73248
1710.63667	0.75620
1708.70811	0.78194
1706.77954	0.81151
1704.85098	0.84690
1702.92241	0.87802
1700.99385	0.90832
1699.06528	0.95418
1697.13672	0.99669
1695.20815	1.03970
1693.27959	1.08128
1691.35103	1.11465
1689.42246	1.15322
1687.49390	1.19388
1685.56533	1.23286
1683.63677	1.29347
1681.70820	1.35674
1679.77964	1.39697
1677.85107	1.43528
1675.92251	1.47907
1673.99395	1.53280
1672.06538	1.58085
1670.13682	1.62832
1668.20825	1.68883
1666.27969	1.73629
1664.35112	1.77632
1662.42256	1.82717
1660.49399	1.88363
1658.56543	1.92668
1656.63687	1.96186
1654.70830	1.99452
1652.77974	2.04772
1650.85117	2.10143
1648.92261	2.12181
1646.99404	2.14759
1645.06548	2.17915
1643.13691	2.20099
1641.20835	2.21429
1639.27979	2.22625
1637.35122	2.23359
1635.42266	2.23473
1633.49409	2.23156
1631.56553	2.22214
1629.63696	2.20765
1627.70840	2.18260
1625.77983	2.15326
1623.85127	2.11582
1621.92271	2.07002
1619.99414	2.02901
1618.06558	1.98775
1616.13701	1.92618
1614.20845	1.86217
1612.27988	1.81486
1610.35132	1.76700
1608.42275	1.71464
1606.49419	1.66206
1604.56562	1.61385
1602.63706	1.56794
1600.70850	1.52287
1598.77993	1.48090
1596.85137	1.44108
1594.92280	1.40182
1592.99424	1.36336
1591.06567	1.32790
1589.13711	1.29441
1587.20854	1.26301
1585.27998	1.23352
1583.35142	1.20528
1581.42285	1.17913
1579.49429	1.15656
1577.56572	1.13598
1575.63716	1.11074
1573.70859	1.08792
1571.78003	1.07237
1569.85146	1.05580
1567.92290	1.03722
1565.99434	1.02273
1564.06577	1.01072
1562.13721	1.00074
1560.20864	0.99260
1558.28008	0.97937
1556.35151	0.96716
1554.42295	0.95960
1552.49438	0.95221
1550.56582	0.94460
1548.63726	0.93607
1546.70869	0.92748
1544.78013	0.91850
1542.85156	0.90831
1540.92300	0.89573
1538.99443	0.87793
1537.06587	0.86450
1535.13730	0.85517
1533.20874	0.84341
1531.28018	0.83093
1529.35161	0.82171
1527.42305	0.81300
1525.49448	0.80389
1523.56592	0.79594
1521.63735	0.78833
1519.70879	0.78026
1517.78022	0.77315
1515.85166	0.76539
1513.92310	0.75751
1511.99453	0.75091
1510.06597	0.74518
1508.13740	0.73978
1506.20884	0.73141
1504.28027	0.72360
1502.35171	0.71908
1500.42314	0.71543
1498.49458	0.71167
1496.56602	0.70706
1494.63745	0.70235
1492.70889	0.69872
1490.78032	0.69590
1488.85176	0.69303
1486.92319	0.68994
1484.99463	0.68708
1483.06606	0.68487
1481.13750	0.68319
1479.20894	0.68185
1477.28037	0.68096
1475.35181	0.68034
1473.42324	0.67945
1471.49468	0.67720
1469.56611	0.67432
1467.63755	0.67202
1465.70898	0.67029
1463.78042	0.66857
1461.85186	0.66680
1459.92329	0.66542
1457.99473	0.66432
1456.06616	0.66246
1454.13760	0.65963
1452.20903	0.65694
1450.28047	0.65437
1448.35190	0.65177
1446.42334	0.64908
1444.49478	0.64656
1442.56621	0.64418
1440.63765	0.64189
1438.70908	0.63990
1436.78052	0.63796
1434.85195	0.63567
1432.92339	0.63349
1430.99482	0.63186
1429.06626	0.63061
1427.13770	0.62958
1425.20913	0.62883
1423.28057	0.62819
1421.35200	0.62743
1419.42344	0.62663
1417.49487	0.62545
1415.56631	0.62368
1413.63774	0.62200
1411.70918	0.62064
1409.78062	0.61956
1407.85205	0.61864
1405.92349	0.61778
1403.99492	0.61682
1402.06636	0.61569
1400.13779	0.61448
1398.20923	0.61302
1396.28066	0.61113
1394.35210	0.60879
1392.42354	0.60627
1390.49497	0.60408
1388.56641	0.60220
1386.63784	0.60013
1384.70928	0.59774
1382.78071	0.59545
1380.85215	0.59348
1378.92358	0.59189
1376.99502	0.59058
1375.06646	0.58968
1373.13789	0.58920
1371.20933	0.58884
1369.28076	0.58852
1367.35220	0.58802
1365.42363	0.58708
1363.49507	0.58594
1361.56650	0.58468
1359.63794	0.58325
1357.70937	0.58196
1355.78081	0.58078
1353.85225	0.57957
1351.92368	0.57844
1349.99512	0.57731
1348.06655	0.57605
1346.13799	0.57485
1344.20942	0.57383
1342.28086	0.57293
1340.35229	0.57216
1338.42373	0.57132
1336.49517	0.57032
1334.56660	0.56930
1332.63804	0.56834
1330.70947	0.56760
1328.78091	0.56719
1326.85234	0.56690
1324.92378	0.56666
1322.99521	0.56651
1321.06665	0.56640
1319.13809	0.56623
1317.20952	0.56581
1315.28096	0.56520
1313.35239	0.56454
1311.42383	0.56366
1309.49526	0.56256
1307.56670	0.56136
1305.63813	0.56005
1303.70957	0.55870
1301.78101	0.55756
1299.85244	0.55657
1297.92388	0.55560
1295.99531	0.55457
1294.06675	0.55348
1292.13818	0.55248
1290.20962	0.55163
1288.28105	0.55090
1286.35249	0.55024
1284.42393	0.54952
1282.49536	0.54867
1280.56680	0.54778
1278.63823	0.54682
1276.70967	0.54591
1274.78110	0.54528
1272.85254	0.54481
1270.92397	0.54427
1268.99541	0.54367
1267.06685	0.54311
1265.13828	0.54254
1263.20972	0.54193
1261.28115	0.54130
1259.35259	0.54077
1257.42402	0.54029
1255.49546	0.53982
1253.56689	0.53947
1251.63833	0.53934
1249.70977	0.53928
1247.78120	0.53911
1245.85264	0.53875
1243.92407	0.53819
1241.99551	0.53751
1240.06694	0.53674
1238.13838	0.53584
1236.20981	0.53483
1234.28125	0.53372
1232.35269	0.53246
1230.42412	0.53119
1228.49556	0.53008
1226.56699	0.52901
1224.63843	0.52785
1222.70986	0.52666
1220.78130	0.52558
1218.85273	0.52452
1216.92417	0.52345
1214.99561	0.52247
1213.06704	0.52161
1211.13848	0.52095
1209.20991	0.52053
1207.28135	0.52013
1205.35278	0.51967
1203.42422	0.51922
1201.49565	0.51862
1199.56709	0.51786
1197.63853	0.51708
1195.70996	0.51632
1193.78140	0.51554
1191.85283	0.51482
1189.92427	0.51426
1187.99570	0.51379
1186.06714	0.51346
1184.13857	0.51334
1182.21001	0.51341
1180.28145	0.51372
1178.35288	0.51436
1176.42432	0.51533
1174.49575	0.51655
1172.56719	0.51787
1170.63862	0.51918
1168.71006	0.52045
1166.78149	0.52167
1164.85293	0.52295
1162.92437	0.52422
1160.99580	0.52528
1159.06724	0.52599
1157.13867	0.52616
1155.21011	0.52569
1153.28154	0.52482
1151.35298	0.52351
1149.42441	0.52140
1147.49585	0.51855
1145.56729	0.51544
1143.63872	0.51250
1141.71016	0.51002
1139.78159	0.50810
1137.85303	0.50667
1135.92446	0.50564
1133.99590	0.50504
1132.06733	0.50481
1130.13877	0.50480
1128.21021	0.50475
1126.28164	0.50452
1124.35308	0.50421
1122.42451	0.50414
1120.49595	0.50437
1118.56738	0.50455
1116.63882	0.50478
1114.71025	0.50538
1112.78169	0.50626
1110.85312	0.50725
1108.92456	0.50821
1106.99600	0.50913
1105.06743	0.50995
1103.13887	0.51058
1101.21030	0.51116
1099.28174	0.51192
1097.35317	0.51329
1095.42461	0.51565
1093.49604	0.51923
1091.56748	0.52444
1089.63892	0.53159
1087.71035	0.54047
1085.78179	0.55036
1083.85322	0.56020
1081.92466	0.56883
1079.99609	0.57505
1078.06753	0.57795
1076.13896	0.57713
1074.21040	0.57303
1072.28184	0.56681
1070.35327	0.55980
1068.42471	0.55282
1066.49614	0.54607
1064.56758	0.53987
1062.63901	0.53457
1060.71045	0.52999
1058.78188	0.52598
1056.85332	0.52267
1054.92476	0.51977
1052.99619	0.51701
1051.06763	0.51488
1049.13906	0.51397
1047.21050	0.51423
1045.28193	0.51519
1043.35337	0.51629
1041.42480	0.51724
1039.49624	0.51807
1037.56768	0.51884
1035.63911	0.51929
1033.71055	0.51898
1031.78198	0.51764
1029.85342	0.51547
1027.92485	0.51289
1025.99629	0.51027
1024.06772	0.50805
1022.13916	0.50645
1020.21060	0.50543
1018.28203	0.50469
1016.35347	0.50395
1014.42490	0.50320
1012.49634	0.50248
1010.56777	0.50180
1008.63921	0.50131
1006.71064	0.50125
1004.78208	0.50177
1002.85352	0.50311
1000.92495	0.50546
998.99639	0.50873
997.06782	0.51275
995.13926	0.51709
993.21069	0.52114
991.28213	0.52421
989.35356	0.52584
987.42500	0.52617
985.49644	0.52570
983.56787	0.52497
981.63931	0.52476
979.71074	0.52538
977.78218	0.52668
975.85361	0.52862
973.92505	0.53113
971.99648	0.53394
970.06792	0.53699
968.13936	0.54041
966.21079	0.54432
964.28223	0.54872
962.35366	0.55340
960.42510	0.55830
958.49653	0.56365
956.56797	0.56954
954.63940	0.57549
952.71084	0.58122
950.78228	0.58714
948.85371	0.59339
946.92515	0.59955
944.99658	0.60554
943.06802	0.61163
941.13945	0.61766
939.21089	0.62335
937.28232	0.62897
935.35376	0.63481
933.42520	0.64058
931.49663	0.64595
929.56807	0.65133
927.63950	0.65732
925.71094	0.66369
923.78237	0.67013
921.85381	0.67663
919.92524	0.68293
917.99668	0.68971
916.06812	0.69808
914.13955	0.70661
912.21099	0.71346
910.28242	0.72005
908.35386	0.72805
906.42529	0.73691
904.49673	0.74604
902.56816	0.75590
900.63960	0.76622
898.71104	0.77650
896.78247	0.78711
894.85391	0.79718
892.92534	0.80586
890.99678	0.81455
889.06821	0.82444
887.13965	0.83478
885.21108	0.84432
883.28252	0.85403
881.35396	0.86610
879.42539	0.87963
877.49683	0.89192
875.56826	0.90334
873.63970	0.91491
871.71113	0.92576
869.78257	0.93563
867.85400	0.94612
865.92544	0.95829
863.99687	0.97088
862.06831	0.98270
860.13975	0.99360
858.21118	1.00427
856.28262	1.01594
854.35405	1.02826
852.42549	1.03977
850.49692	1.05041
848.56836	1.06137
846.63979	1.07311
844.71123	1.08458
842.78267	1.09523
840.85410	1.10530
838.92554	1.11416
836.99697	1.12247
835.06841	1.13127
833.13984	1.14202
831.21128	1.15544
829.28271	1.16695
827.35415	1.17550
825.42559	1.18651
823.49702	1.19934
821.56846	1.20848
819.63989	1.21671
817.71133	1.22445
815.78276	1.22906
813.85420	1.24027
811.92563	1.25919
809.99707	1.27141
808.06851	1.27663
806.13994	1.28054
804.21138	1.27647
802.28281	1.27175
800.35425	1.28118
798.42568	1.29965
796.49712	1.30590
794.56855	1.30703
792.63999	1.33424
790.71143	1.37911
788.78286	1.39817
786.85430	1.35924
784.92573	1.31223
782.99717	1.30784
781.06860	1.30652
779.14004	1.26552
777.21147	1.22546
775.28291	1.23137
773.35435	1.29045
771.42578	1.36846
769.49722	1.42114
767.56865	1.39622
765.64009	1.25914
763.71152	1.17170
761.78296	1.22208
759.85439	1.35731
757.92583	1.38024
755.99727	1.24314
754.06870	1.12414
752.14014	1.07407
750.21157	1.06304
748.28301	1.02432
746.35444	1.00441
744.42588	1.09570
742.49731	1.23197
740.56875	1.10741
738.64019	0.90517
736.71162	0.85152
734.78306	0.93278
732.85449	0.91392
730.92593	0.74033
728.99736	0.58926
727.06880	0.47986
725.14023	0.30482
723.21167	0.06705
721.28311	-0.08246
719.35454	-0.12952
717.42598	-0.15175
715.49741	-0.18098
713.56885	-0.07949
711.64028	0.13865
709.71172	0.32330
707.78315	0.38291
705.85459	0.32685
703.92603	0.26483
701.99746	0.26695
700.06890	0.32740
698.14033	0.38505
696.21177	0.41162
694.28320	0.38313
692.35464	0.33469
690.42607	0.36461
688.49751	0.47658
686.56895	0.53180
684.64038	0.52379
682.71182	0.55043
680.78325	0.51858
678.85469	0.39312
676.92612	0.31615
674.99756	0.32709
673.06899	0.36480
671.14043	0.37200
669.21187	0.37212
667.28330	0.41701
665.35474	0.45176
663.42617	0.41564
661.49761	0.42411
659.56904	0.46073
657.64048	0.40640
655.71191	0.33979
653.78335	0.37468
651.85479	0.46153
649.92622	0.52721
647.99766	0.58713
646.06909	0.60002
644.14053	0.52826
642.21196	0.45552
640.28340	0.45619
638.35483	0.54956
636.42627	0.60962
634.49771	0.51600
632.56914	0.42809
630.64058	0.37465
628.71201	0.38368
626.78345	0.46882
624.85488	0.48661
622.92632	0.40984
620.99775	0.38336
619.06919	0.41042
617.14062	0.41053
615.21206	0.36519
613.28350	0.34977
611.35493	0.40234
609.42637	0.45711
607.49780	0.44333
605.56924	0.42232
603.64067	0.43131
601.71211	0.46029
599.78354	0.47929
597.85498	0.46641
595.92642	0.42210
593.99785	0.35089
592.06929	0.29423
590.14072	0.25626
588.21216	0.22919
586.28359	0.21313
584.35503	0.19735
582.42646	0.20417
580.49790	0.25469
578.56934	0.30862
576.64077	0.33844
574.71221	0.36810
572.78364	0.36268
570.85508	0.32371
568.92651	0.33892
566.99795	0.37293
565.06938	0.33835
563.14082	0.29753
561.21226	0.29041
559.28369	0.26497
557.35513	0.25106
555.42656	0.29962
553.49800	0.38246
551.56943	0.37385
549.64087	0.29970
547.71230	0.30558
545.78374	0.40412
543.85518	0.52704
541.92661	0.53542
539.99805	0.41475
538.06948	0.34015
536.14092	0.35250
534.21235	0.39192
532.28379	0.40907
530.35522	0.44853
528.42666	0.47370
526.49810	0.41299
524.56953	0.34834
522.64097	0.33358
520.71240	0.34266
518.78384	0.31780
516.85527	0.28111
514.92671	0.29160
512.99814	0.31743
511.06958	0.30260
509.14102	0.27639
507.21245	0.27380
505.28389	0.31752
503.35532	0.35505
501.42676	0.29576
499.49819	0.23598
