3997.91411	0.06267
3995.98555	0.06306
3994.05698	0.06313
3992.12842	0.06323
3990.19985	0.06371
3988.27129	0.06417
3986.34272	0.06420
3984.41416	0.06416
3982.48560	0.06444
3980.55703	0.06494
3978.62847	0.06525
3976.69990	0.06523
3974.77134	0.06512
3972.84277	0.06513
3970.91421	0.06526
3968.98564	0.06532
3967.05708	0.06550
3965.12852	0.06608
3963.19995	0.06662
3961.27139	0.06675
3959.34282	0.06679
3957.41426	0.06696
3955.48569	0.06730
3953.55713	0.06774
3951.62856	0.06806
3949.70000	0.06819
3947.77144	0.06816
3945.84287	0.06805
3943.91431	0.06819
3941.98574	0.06859
3940.05718	0.06848
3938.12861	0.06778
3936.20005	0.06733
3934.27148	0.06760
3932.34292	0.06841
3930.41436	0.06893
3928.48579	0.06857
3926.55723	0.06788
3924.62866	0.06744
3922.70010	0.06707
3920.77153	0.06691
3918.84297	0.06729
3916.91440	0.06753
3914.98584	0.06718
3913.05728	0.06680
3911.12871	0.06658
3909.20015	0.06652
3907.27158	0.06681
3905.34302	0.06738
3903.41445	0.06817
3901.48589	0.06886
3899.55732	0.06884
3897.62876	0.06820
3895.70020	0.06742
3893.77163	0.06701
3891.84307	0.06700
3889.91450	0.06698
3887.98594	0.06683
3886.05737	0.06712
3884.12881	0.06793
3882.20024	0.06850
3880.27168	0.06869
3878.34312	0.06831
3876.41455	0.06774
3874.48599	0.06804
3872.55742	0.06921
3870.62886	0.07067
3868.70029	0.07185
3866.77173	0.07194
3864.84316	0.07175
3862.91460	0.07168
3860.98604	0.07114
3859.05747	0.07076
3857.12891	0.07104
3855.20034	0.07186
3853.27178	0.07381
3851.34321	0.07555
3849.41465	0.07464
3847.48608	0.07353
3845.55752	0.07345
3843.62896	0.07442
3841.70039	0.07611
3839.77183	0.07773
3837.84326	0.07882
3835.91470	0.07924
3833.98613	0.07922
3832.05757	0.07925
3830.12900	0.07951
3828.20044	0.07983
3826.27187	0.08025
3824.34331	0.08083
3822.41475	0.08194
3820.48618	0.08405
3818.55762	0.08555
3816.62905	0.08602
3814.70049	0.08665
3812.77192	0.08678
3810.84336	0.08651
3808.91479	0.08693
3806.98623	0.08858
3805.05767	0.09063
3803.12910	0.09211
3801.20054	0.09385
3799.27197	0.09540
3797.34341	0.09624
3795.41484	0.09701
3793.48628	0.09700
3791.55771	0.09674
3789.62915	0.09745
3787.70059	0.09902
3785.77202	0.10105
3783.84346	0.10314
3781.91489	0.10475
3779.98633	0.10638
3778.05776	0.10834
3776.12920	0.10949
3774.20063	0.11020
3772.27207	0.11162
3770.34351	0.11402
3768.41494	0.11676
3766.48638	0.11889
3764.55781	0.12063
3762.62925	0.12208
3760.70068	0.12410
3758.77212	0.12749
3756.84355	0.13082
3754.91499	0.13291
3752.98643	0.13522
3751.05786	0.13922
3749.12930	0.14373
3747.20073	0.14629
3745.27217	0.14843
3743.34360	0.15214
3741.41504	0.15615
3739.48647	0.15949
3737.55791	0.16352
3735.62935	0.16927
3733.70078	0.17580
3731.77222	0.18104
3729.84365	0.18522
3727.91509	0.18906
3725.98652	0.19418
3724.05796	0.20102
3722.12939	0.20784
3720.20083	0.21418
3718.27227	0.22035
3716.34370	0.22641
3714.41514	0.23286
3712.48657	0.24207
3710.55801	0.25645
3708.62944	0.27148
3706.70088	0.28307
3704.77231	0.29423
3702.84375	0.30755
3700.91519	0.32451
3698.98662	0.34247
3697.05806	0.35920
3695.12949	0.37745
3693.20093	0.39732
3691.27236	0.41877
3689.34380	0.44640
3687.41523	0.48040
3685.48667	0.51019
3683.55811	0.53589
3681.62954	0.56346
3679.70098	0.59460
3677.77241	0.62790
3675.84385	0.66766
3673.91528	0.72004
3671.98672	0.76217
3670.05815	0.80036
3668.12959	0.85391
3666.20103	0.90270
3664.27246	0.94286
3662.34390	0.98570
3660.41533	1.03229
3658.48677	1.07855
3656.55820	1.12790
3654.62964	1.18328
3652.70107	1.23009
3650.77251	1.27100
3648.84395	1.32756
3646.91538	1.39543
3644.98682	1.44401
3643.05825	1.48247
3641.12969	1.52350
3639.20112	1.56863
3637.27256	1.61311
3635.34399	1.65620
3633.41543	1.69926
3631.48687	1.73896
3629.55830	1.77884
3627.62974	1.83207
3625.70117	1.88275
3623.77261	1.91702
3621.84404	1.94946
3619.91548	1.98635
3617.98691	2.03079
3616.05835	2.07341
3614.12979	2.10939
3612.20122	2.14849
3610.27266	2.18875
3608.34409	2.22957
3606.41553	2.27234
3604.48696	2.31085
3602.55840	2.34514
3600.62983	2.38344
3598.70127	2.42536
3596.77271	2.46508
3594.84414	2.50526
3592.91558	2.54736
3590.98701	2.58665
3589.05845	2.62241
3587.12988	2.66503
3585.20132	2.71366
3583.27275	2.75455
3581.34419	2.79119
3579.41562	2.83169
3577.48706	2.87471
3575.55850	2.91624
3573.62993	2.95863
3571.70137	3.00157
3569.77280	3.04239
3567.84424	3.08467
3565.91567	3.13706
3563.98711	3.18729
3562.05854	3.22744
3560.12998	3.26937
3558.20142	3.31466
3556.27285	3.35915
3554.34429	3.40151
3552.41572	3.44559
3550.48716	3.49341
3548.55859	3.54126
3546.63003	3.58604
3544.70146	3.63162
3542.77290	3.68015
3540.84434	3.72809
3538.91577	3.77450
3536.98721	3.82144
3535.05864	3.87374
3533.13008	3.92676
3531.20151	3.97324
3529.27295	4.01584
3527.34438	4.06000
3525.41582	4.10624
3523.48726	4.15433
3521.55869	4.20422
3519.63013	4.25323
3517.70156	4.30220
3515.77300	4.35033
3513.84443	4.39538
3511.91587	4.43920
3509.98730	4.48667
3508.05874	4.53758
3506.13018	4.58546
3504.20161	4.62864
3502.27305	4.67370
3500.34448	4.72427
3498.41592	4.77406
3496.48735	4.82258
3494.55879	4.87466
3492.63022	4.92803
3490.70166	4.97857
3488.77310	5.02786
3486.84453	5.08146
3484.91597	5.13902
3482.98740	5.18499
3481.05884	5.21676
3479.13027	5.25383
3477.20171	5.30221
3475.27314	5.35515
3473.34458	5.40628
3471.41602	5.45201
3469.48745	5.49361
3467.55889	5.53302
3465.63032	5.57909
3463.70176	5.63807
3461.77319	5.70135
3459.84463	5.76011
3457.91606	5.80913
3455.98750	5.85513
3454.05894	5.90643
3452.13037	5.95714
3450.20181	6.00007
3448.27324	6.03343
3446.34468	6.07112
3444.41611	6.12839
3442.48755	6.20021
3440.55898	6.26464
3438.63042	6.30865
3436.70186	6.34065
3434.77329	6.38251
3432.84473	6.44436
3430.91616	6.50781
3428.98760	6.56341
3427.05903	6.62207
3425.13047	6.68890
3423.20190	6.73964
3421.27334	6.77298
3419.34478	6.82439
3417.41621	6.89286
3415.48765	6.94394
3413.55908	6.98313
3411.63052	7.02516
3409.70195	7.05718
3407.77339	7.09670
3405.84482	7.14649
3403.91626	7.19407
3401.98770	7.22453
3400.05913	7.24976
3398.13057	7.28361
3396.20200	7.30098
3394.27344	7.32555
3392.34487	7.38943
3390.41631	7.47290
3388.48774	7.51663
3386.55918	7.54857
3384.63062	7.58852
3382.70205	7.58764
3380.77349	7.59325
3378.84492	7.63108
3376.91636	7.65128
3374.98779	7.65402
3373.05923	7.67601
3371.13066	7.74025
3369.20210	7.83925
3367.27354	7.86805
3365.34497	7.84139
3363.41641	7.85368
3361.48784	7.87683
3359.55928	7.88605
3357.63071	7.88465
3355.70215	7.90313
3353.77358	7.93521
3351.84502	7.97065
3349.91646	8.00685
3347.98789	8.07028
3346.05933	8.17975
3344.13076	8.24341
3342.20220	8.22410
3340.27363	8.19778
3338.34507	8.20310
3336.41650	8.17717
3334.48794	8.13800
3332.55937	8.15260
3330.63081	8.19847
3328.70225	8.17628
3326.77368	8.07175
3324.84512	8.00579
3322.91655	8.02203
3320.98799	8.07084
3319.05942	8.05904
3317.13086	8.00773
3315.20229	8.01830
3313.27373	8.10570
3311.34517	8.22036
3309.41660	8.26826
3307.48804	8.21783
3305.55947	8.17492
3303.63091	8.15727
3301.70234	8.13157
3299.77378	8.15639
3297.84521	8.21108
3295.91665	8.27038
3293.98809	8.29013
3292.05952	8.22470
3290.13096	8.16843
3288.20239	8.18135
3286.27383	8.26201
3284.34526	8.29263
3282.41670	8.21150
3280.48813	8.20224
3278.55957	8.31427
3276.63101	8.37060
3274.70244	8.32287
3272.77388	8.24810
3270.84531	8.18476
3268.91675	8.17095
3266.98818	8.18335
3265.05962	8.15011
3263.13105	8.11277
3261.20249	8.17006
3259.27393	8.24249
3257.34536	8.24921
3255.41680	8.23170
3253.48823	8.22525
3251.55967	8.25440
3249.63110	8.27362
3247.70254	8.23196
3245.77397	8.14793
3243.84541	8.11222
3241.91685	8.15278
3239.98828	8.17314
3238.05972	8.15581
3236.13115	8.13446
3234.20259	8.08006
3232.27402	8.03631
3230.34546	8.04424
3228.41689	8.04224
3226.48833	8.02881
3224.55977	8.07726
3222.63120	8.16187
3220.70264	8.15039
3218.77407	8.08223
3216.84551	8.05372
3214.91694	8.01749
3212.98838	7.99753
3211.05981	8.03058
3209.13125	8.00963
3207.20269	7.88990
3205.27412	7.78770
3203.34556	7.76223
3201.41699	7.78231
3199.48843	7.80405
3197.55986	7.79919
3195.63130	7.81935
3193.70273	7.85969
3191.77417	7.77034
3189.84561	7.61485
3187.91704	7.55051
3185.98848	7.51291
3184.05991	7.43045
3182.13135	7.35356
3180.20278	7.30696
3178.27422	7.29182
3176.34565	7.30232
3174.41709	7.27861
3172.48853	7.18722
3170.55996	7.07165
3168.63140	6.99600
3166.70283	6.97517
3164.77427	6.95177
3162.84570	6.89291
3160.91714	6.80669
3158.98857	6.70587
3157.06001	6.62547
3155.13145	6.56328
3153.20288	6.48108
3151.27432	6.39928
3149.34575	6.34841
3147.41719	6.30601
3145.48862	6.24752
3143.56006	6.17338
3141.63149	6.09582
3139.70293	6.01462
3137.77437	5.93224
3135.84580	5.86124
3133.91724	5.79353
3131.98867	5.72038
3130.06011	5.65125
3128.13154	5.58854
3126.20298	5.52448
3124.27441	5.45521
3122.34585	5.38029
3120.41729	5.29967
3118.48872	5.21717
3116.56016	5.14519
3114.63159	5.08447
3112.70303	5.01716
3110.77446	4.93961
3108.84590	4.86468
3106.91733	4.79594
3104.98877	4.72940
3103.06021	4.66445
3101.13164	4.59871
3099.20308	4.52957
3097.27451	4.45942
3095.34595	4.39378
3093.41738	4.33221
3091.48882	4.26600
3089.56025	4.19453
3087.63169	4.12473
3085.70312	4.05927
3083.77456	3.99677
3081.84600	3.93472
3079.91743	3.87290
3077.98887	3.81243
3076.06030	3.75288
3074.13174	3.69336
3072.20317	3.63358
3070.27461	3.57453
3068.34604	3.51553
3066.41748	3.45480
3064.48892	3.39506
3062.56035	3.33843
3060.63179	3.28333
3058.70322	3.22932
3056.77466	3.17591
3054.84609	3.12236
3052.91753	3.06964
3050.98896	3.01870
3049.06040	2.96848
3047.13184	2.91709
3045.20327	2.86588
3043.27471	2.81752
3041.34614	2.77036
3039.41758	2.72217
3037.48901	2.67411
3035.56045	2.62748
3033.63188	2.58172
3031.70332	2.53624
3029.77476	2.49136
3027.84619	2.44752
3025.91763	2.40466
3023.98906	2.36199
3022.06050	2.31978
3020.13193	2.27913
3018.20337	2.23921
3016.27480	2.19919
3014.34624	2.16003
3012.41768	2.12168
3010.48911	2.08327
3008.56055	2.04552
3006.63198	2.00869
3004.70342	1.97216
3002.77485	1.93652
3000.84629	1.90225
2998.91772	1.86841
2996.98916	1.83448
2995.06060	1.80111
2993.13203	1.76845
2991.20347	1.73603
2989.27490	1.70405
2987.34634	1.67288
2985.41777	1.64227
2983.48921	1.61199
2981.56064	1.58236
2979.63208	1.55352
2977.70352	1.52475
2975.77495	1.49579
2973.84639	1.46743
2971.91782	1.44014
2969.98926	1.41338
2968.06069	1.38658
2966.13213	1.36008
2964.20356	1.33455
2962.27500	1.30995
2960.34644	1.28579
2958.41787	1.26180
2956.48931	1.23844
2954.56074	1.21600
2952.63218	1.19396
2950.70361	1.17204
2948.77505	1.15036
2946.84648	1.12878
2944.91792	1.10739
2942.98936	1.08659
2941.06079	1.06628
2939.13223	1.04608
2937.20366	1.02589
2935.27510	1.00610
2933.34653	0.98720
2931.41797	0.96915
2929.48940	0.95155
2927.56084	0.93405
2925.63228	0.91679
2923.70371	0.90031
2921.77515	0.88437
2919.84658	0.86869
2917.91802	0.85336
2915.98945	0.83798
2914.06089	0.82253
2912.13232	0.80750
2910.20376	0.79299
2908.27520	0.77904
2906.34663	0.76575
2904.41807	0.75273
2902.48950	0.73952
2900.56094	0.72650
2898.63237	0.71416
2896.70381	0.70240
2894.77524	0.69089
2892.84668	0.67919
2890.91812	0.66721
2888.98955	0.65541
2887.06099	0.64405
2885.13242	0.63291
2883.20386	0.62190
2881.27529	0.61113
2879.34673	0.60047
2877.41816	0.58998
2875.48960	0.58001
2873.56104	0.57019
2871.63247	0.56018
2869.70391	0.55016
2867.77534	0.54045
2865.84678	0.53092
2863.91821	0.52131
2861.98965	0.51185
2860.06108	0.50287
2858.13252	0.49415
2856.20396	0.48557
2854.27539	0.47756
2852.34683	0.47015
2850.41826	0.46268
2848.48970	0.45498
2846.56113	0.44743
2844.63257	0.44035
2842.70400	0.43374
2840.77544	0.42745
2838.84687	0.42141
2836.91831	0.41556
2834.98975	0.40970
2833.06118	0.40373
2831.13262	0.39789
2829.20405	0.39228
2827.27549	0.38664
2825.34692	0.38085
2823.41836	0.37501
2821.48979	0.36938
2819.56123	0.36387
2817.63267	0.35824
2815.70410	0.35277
2813.77554	0.34754
2811.84697	0.34236
2809.91841	0.33726
2807.98984	0.33236
2806.06128	0.32754
2804.13271	0.32266
2802.20415	0.31772
2800.27559	0.31289
2798.34702	0.30840
2796.41846	0.30418
2794.48989	0.29996
2792.56133	0.29570
2790.63276	0.29153
2788.70420	0.28757
2786.77563	0.28374
2784.84707	0.27980
2782.91851	0.27581
2780.98994	0.27196
2779.06138	0.26819
2777.13281	0.26444
2775.20425	0.26084
2773.27568	0.25754
2771.34712	0.25435
2769.41855	0.25105
2767.48999	0.24768
2765.56143	0.24448
2763.63286	0.24146
2761.70430	0.23839
2759.77573	0.23532
2757.84717	0.23233
2755.91860	0.22935
2753.99004	0.22648
2752.06147	0.22377
2750.13291	0.22111
2748.20435	0.21850
2746.27578	0.21592
2744.34722	0.21336
2742.41865	0.21092
2740.49009	0.20861
2738.56152	0.20632
2736.63296	0.20400
2734.70439	0.20187
2732.77583	0.19993
2730.84727	0.19788
2728.91870	0.19569
2726.99014	0.19357
2725.06157	0.19167
2723.13301	0.18990
2721.20444	0.18813
2719.27588	0.18637
2717.34731	0.18453
2715.41875	0.18259
2713.49019	0.18076
2711.56162	0.17914
2709.63306	0.17758
2707.70449	0.17601
2705.77593	0.17456
2703.84736	0.17324
2701.91880	0.17186
2699.99023	0.17035
2698.06167	0.16882
2696.13311	0.16731
2694.20454	0.16583
2692.27598	0.16454
2690.34741	0.16347
2688.41885	0.16238
2686.49028	0.16121
2684.56172	0.16006
2682.63315	0.15901
2680.70459	0.15801
2678.77603	0.15683
2676.84746	0.15549
2674.91890	0.15426
2672.99033	0.15326
2671.06177	0.15237
2669.13320	0.15154
2667.20464	0.15079
2665.27607	0.15007
2663.34751	0.14935
2661.41895	0.14860
2659.49038	0.14778
2657.56182	0.14706
2655.63325	0.14647
2653.70469	0.14584
2651.77612	0.14515
2649.84756	0.14446
2647.91899	0.14378
2645.99043	0.14322
2644.06187	0.14281
2642.13330	0.14247
2640.20474	0.14216
2638.27617	0.14181
2636.34761	0.14130
2634.41904	0.14081
2632.49048	0.14063
2630.56191	0.14057
2628.63335	0.14027
2626.70479	0.13983
2624.77622	0.13945
2622.84766	0.13928
2620.91909	0.13922
2618.99053	0.13912
2617.06196	0.13903
2615.13340	0.13892
2613.20483	0.13874
2611.27627	0.13862
2609.34771	0.13860
2607.41914	0.13861
2605.49058	0.13867
2603.56201	0.13873
2601.63345	0.13870
2599.70488	0.13866
2597.77632	0.13878
2595.84775	0.13910
2593.91919	0.13947
2591.99062	0.13972
2590.06206	0.13985
2588.13350	0.14003
2586.20493	0.14026
2584.27637	0.14045
2582.34780	0.14061
2580.41924	0.14083
2578.49067	0.14115
2576.56211	0.14151
2574.63354	0.14188
2572.70498	0.14232
2570.77642	0.14284
2568.84785	0.14336
2566.91929	0.14381
2564.99072	0.14414
2563.06216	0.14457
2561.13359	0.14523
2559.20503	0.14595
2557.27646	0.14655
2555.34790	0.14704
2553.41934	0.14753
2551.49077	0.14806
2549.56221	0.14864
2547.63364	0.14928
2545.70508	0.14992
2543.77651	0.15061
2541.84795	0.15133
2539.91938	0.15203
2537.99082	0.15273
2536.06226	0.15344
2534.13369	0.15418
2532.20513	0.15496
2530.27656	0.15573
2528.34800	0.15644
2526.41943	0.15722
2524.49087	0.15808
2522.56230	0.15881
2520.63374	0.15942
2518.70518	0.16011
2516.77661	0.16096
2514.84805	0.16190
2512.91948	0.16282
2510.99092	0.16367
2509.06235	0.16450
2507.13379	0.16537
2505.20522	0.16628
2503.27666	0.16727
2501.34810	0.16820
2499.41953	0.16894
2497.49097	0.16966
2495.56240	0.17053
2493.63384	0.17148
2491.70527	0.17244
2489.77671	0.17340
2487.84814	0.17435
2485.91958	0.17531
2483.99102	0.17628
2482.06245	0.17725
2480.13389	0.17820
2478.20532	0.17918
2476.27676	0.18014
2474.34819	0.18103
2472.41963	0.18187
2470.49106	0.18277
2468.56250	0.18381
2466.63394	0.18486
2464.70537	0.18581
2462.77681	0.18669
2460.84824	0.18760
2458.91968	0.18864
2456.99111	0.18982
2455.06255	0.19088
2453.13398	0.19178
2451.20542	0.19271
2449.27686	0.19372
2447.34829	0.19482
2445.41973	0.19600
2443.49116	0.19715
2441.56260	0.19819
2439.63403	0.19921
2437.70547	0.20029
2435.77690	0.20131
2433.84834	0.20221
2431.91978	0.20322
2429.99121	0.20437
2428.06265	0.20544
2426.13408	0.20650
2424.20552	0.20766
2422.27695	0.20877
2420.34839	0.20983
2418.41982	0.21099
2416.49126	0.21219
2414.56270	0.21340
2412.63413	0.21465
2410.70557	0.21584
2408.77700	0.21699
2406.84844	0.21820
2404.91987	0.21941
2402.99131	0.22055
2401.06274	0.22174
2399.13418	0.22301
2397.20562	0.22431
2395.27705	0.22567
2393.34849	0.22691
2391.41992	0.22812
2389.49136	0.22956
2387.56279	0.23131
2385.63423	0.23349
2383.70566	0.23651
2381.77710	0.24048
2379.84854	0.24517
2377.91997	0.25049
2375.99141	0.25671
2374.06284	0.26401
2372.13428	0.27192
2370.20571	0.27986
2368.27715	0.28755
2366.34858	0.29472
2364.42002	0.30141
2362.49146	0.30757
2360.56289	0.31213
2358.63433	0.31383
2356.70576	0.31229
2354.77720	0.30814
2352.84863	0.30229
2350.92007	0.29589
2348.99150	0.29197
2347.06294	0.29284
2345.13437	0.29892
2343.20581	0.30699
2341.27725	0.31213
2339.34868	0.31428
2337.42012	0.31486
2335.49155	0.31469
2333.56299	0.31444
2331.63442	0.31464
2329.70586	0.31507
2327.77729	0.31520
2325.84873	0.31454
2323.92017	0.31351
2321.99160	0.31278
2320.06304	0.31179
2318.13447	0.31027
2316.20591	0.30898
2314.27734	0.30854
2312.34878	0.30878
2310.42021	0.30912
2308.49165	0.30919
2306.56309	0.30910
2304.63452	0.30909
2302.70596	0.30946
2300.77739	0.31023
2298.84883	0.31116
2296.92026	0.31222
2294.99170	0.31342
2293.06313	0.31449
2291.13457	0.31540
2289.20601	0.31650
2287.27744	0.31774
2285.34888	0.31901
2283.42031	0.32050
2281.49175	0.32236
2279.56318	0.32455
2277.63462	0.32686
2275.70605	0.32911
2273.77749	0.33126
2271.84893	0.33332
2269.92036	0.33534
2267.99180	0.33745
2266.06323	0.33959
2264.13467	0.34173
2262.20610	0.34380
2260.27754	0.34572
2258.34897	0.34756
2256.42041	0.34943
2254.49185	0.35140
2252.56328	0.35348
2250.63472	0.35554
2248.70615	0.35762
2246.77759	0.35974
2244.84902	0.36187
2242.92046	0.36398
2240.99189	0.36607
2239.06333	0.36822
2237.13477	0.37044
2235.20620	0.37264
2233.27764	0.37488
2231.34907	0.37721
2229.42051	0.37950
2227.49194	0.38168
2225.56338	0.38382
2223.63481	0.38600
2221.70625	0.38825
2219.77769	0.39057
2217.84912	0.39294
2215.92056	0.39526
2213.99199	0.39743
2212.06343	0.39950
2210.13486	0.40162
2208.20630	0.40373
2206.27773	0.40565
2204.34917	0.40753
2202.42061	0.40954
2200.49204	0.41163
2198.56348	0.41378
2196.63491	0.41588
2194.70635	0.41791
2192.77778	0.41991
2190.84922	0.42180
2188.92065	0.42362
2186.99209	0.42551
2185.06353	0.42740
2183.13496	0.42919
2181.20640	0.43089
2179.27783	0.43246
2177.34927	0.43398
2175.42070	0.43553
2173.49214	0.43704
2171.56357	0.43848
2169.63501	0.43994
2167.70645	0.44142
2165.77788	0.44282
2163.84932	0.44408
2161.92075	0.44522
2159.99219	0.44634
2158.06362	0.44741
2156.13506	0.44840
2154.20649	0.44931
2152.27793	0.45009
2150.34937	0.45074
2148.42080	0.45134
2146.49224	0.45194
2144.56367	0.45248
2142.63511	0.45292
2140.70654	0.45326
2138.77798	0.45364
2136.84941	0.45405
2134.92085	0.45424
2132.99229	0.45410
2131.06372	0.45381
2129.13516	0.45357
2127.20659	0.45343
2125.27803	0.45324
2123.34946	0.45288
2121.42090	0.45240
2119.49233	0.45187
2117.56377	0.45131
2115.63521	0.45066
2113.70664	0.44992
2111.77808	0.44906
2109.84951	0.44805
2107.92095	0.44706
2105.99238	0.44609
2104.06382	0.44495
2102.13525	0.44365
2100.20669	0.44235
2098.27812	0.44098
2096.34956	0.43947
2094.42100	0.43787
2092.49243	0.43632
2090.56387	0.43482
2088.63530	0.43317
2086.70674	0.43138
2084.77817	0.42957
2082.84961	0.42774
2080.92104	0.42577
2078.99248	0.42370
2077.06392	0.42163
2075.13535	0.41949
2073.20679	0.41731
2071.27822	0.41513
2069.34966	0.41285
2067.42109	0.41049
2065.49253	0.40814
2063.56396	0.40581
2061.63540	0.40343
2059.70684	0.40108
2057.77827	0.39871
2055.84971	0.39618
2053.92114	0.39355
2051.99258	0.39089
2050.06401	0.38829
2048.13545	0.38579
2046.20688	0.38327
2044.27832	0.38059
2042.34976	0.37785
2040.42119	0.37521
2038.49263	0.37260
2036.56406	0.36982
2034.63550	0.36696
2032.70693	0.36417
2030.77837	0.36146
2028.84980	0.35872
2026.92124	0.35591
2024.99268	0.35314
2023.06411	0.35041
2021.13555	0.34765
2019.20698	0.34497
2017.27842	0.34231
2015.34985	0.33952
2013.42129	0.33669
2011.49272	0.33391
2009.56416	0.33122
2007.63560	0.32855
2005.70703	0.32587
2003.77847	0.32324
2001.84990	0.32062
1999.92134	0.31797
1997.99277	0.31534
1996.06421	0.31282
1994.13564	0.31036
1992.20708	0.30785
1990.27852	0.30530
1988.34995	0.30284
1986.42139	0.30041
1984.49282	0.29789
1982.56426	0.29535
1980.63569	0.29293
1978.70713	0.29074
1976.77856	0.28862
1974.85000	0.28641
1972.92144	0.28415
1970.99287	0.28203
1969.06431	0.28008
1967.13574	0.27816
1965.20718	0.27614
1963.27861	0.27408
1961.35005	0.27211
1959.42148	0.27020
1957.49292	0.26833
1955.56436	0.26646
1953.63579	0.26461
1951.70723	0.26291
1949.77866	0.26134
1947.85010	0.25978
1945.92153	0.25829
1943.99297	0.25690
1942.06440	0.25551
1940.13584	0.25402
1938.20728	0.25251
1936.27871	0.25106
1934.35015	0.24968
1932.42158	0.24840
1930.49302	0.24721
1928.56445	0.24608
1926.63589	0.24501
1924.70732	0.24405
1922.77876	0.24312
1920.85020	0.24215
1918.92163	0.24129
1916.99307	0.24042
1915.06450	0.23941
1913.13594	0.23846
1911.20737	0.23773
1909.27881	0.23709
1907.35024	0.23643
1905.42168	0.23565
1903.49312	0.23489
1901.56455	0.23431
1899.63599	0.23389
1897.70742	0.23357
1895.77886	0.23323
1893.85029	0.23287
1891.92173	0.23250
1889.99316	0.23226
1888.06460	0.23206
1886.13604	0.23180
1884.20747	0.23155
1882.27891	0.23135
1880.35034	0.23122
1878.42178	0.23110
1876.49321	0.23105
1874.56465	0.23110
1872.63608	0.23127
1870.70752	0.23162
1868.77896	0.23225
1866.85039	0.23258
1864.92183	0.23237
1862.99326	0.23226
1861.06470	0.23246
1859.13613	0.23284
1857.20757	0.23315
1855.27900	0.23352
1853.35044	0.23398
1851.42187	0.23457
1849.49331	0.23525
1847.56475	0.23595
1845.63618	0.23677
1843.70762	0.23785
1841.77905	0.23873
1839.85049	0.23917
1837.92192	0.23983
1835.99336	0.24072
1834.06479	0.24165
1832.13623	0.24265
1830.20767	0.24413
1828.27910	0.24575
1826.35054	0.24681
1824.42197	0.24790
1822.49341	0.24909
1820.56484	0.25031
1818.63628	0.25170
1816.70771	0.25336
1814.77915	0.25505
1812.85059	0.25682
1810.92202	0.25886
1808.99346	0.26093
1807.06489	0.26282
1805.13633	0.26465
1803.20776	0.26685
1801.27920	0.26946
1799.35063	0.27239
1797.42207	0.27497
1795.49351	0.27742
1793.56494	0.28039
1791.63638	0.28422
1789.70781	0.28764
1787.77925	0.29004
1785.85068	0.29302
1783.92212	0.29671
1781.99355	0.30067
1780.06499	0.30486
1778.13643	0.30917
1776.20786	0.31323
1774.27930	0.31762
1772.35073	0.32355
1770.42217	0.32990
1768.49360	0.33524
1766.56504	0.34042
1764.63647	0.34571
1762.70791	0.35156
1760.77935	0.35906
1758.85078	0.36615
1756.92222	0.37317
1754.99365	0.38082
1753.06509	0.38786
1751.13652	0.39636
1749.20796	0.40715
1747.27939	0.41775
1745.35083	0.42696
1743.42227	0.43667
1741.49370	0.44744
1739.56514	0.46001
1737.63657	0.47244
1735.70801	0.48327
1733.77944	0.49975
1731.85088	0.51951
1729.92231	0.53504
1727.99375	0.55078
1726.06519	0.56775
1724.13662	0.58635
1722.20806	0.60643
1720.27949	0.62485
1718.35093	0.64643
1716.42236	0.67858
1714.49380	0.70914
1712.56523	0.73368
1710.63667	0.75746
1708.70811	0.78300
1706.77954	0.81196
1704.85098	0.84660
1702.92241	0.87734
1700.99385	0.90702
1699.06528	0.95125
1697.13672	0.99250
1695.20815	1.03464
1693.27959	1.07500
1691.35103	1.10683
1689.42246	1.14310
1687.49390	1.18117
1685.56533	1.21766
1683.63677	1.27377
1681.70820	1.33242
1679.77964	1.37047
1677.85107	1.40650
1675.92251	1.44720
1673.99395	1.49667
1672.06538	1.54003
1670.13682	1.58245
1668.20825	1.63794
1666.27969	1.68232
1664.35112	1.71860
1662.42256	1.76290
1660.49399	1.81162
1658.56543	1.84897
1656.63687	1.87992
1654.70830	1.91075
1652.77974	1.96503
1650.85117	2.01799
1648.92261	2.03826
1646.99404	2.06587
1645.06548	2.09836
1643.13691	2.12018
1641.20835	2.13604
1639.27979	2.15156
1637.35122	2.16101
1635.42266	2.16218
1633.49409	2.15926
1631.56553	2.15229
1629.63696	2.14126
1627.70840	2.11887
1625.77983	2.09166
1623.85127	2.05751
1621.92271	2.01328
1619.99414	1.97162
1618.06558	1.93124
1616.13701	1.87489
1614.20845	1.81649
1612.27988	1.77161
1610.35132	1.72483
1608.42275	1.67363
1606.49419	1.62278
1604.56562	1.57586
1602.63706	1.53004
1600.70850	1.48426
1598.77993	1.44164
1596.85137	1.40169
1594.92280	1.36276
1592.99424	1.32442
1591.06567	1.28842
1589.13711	1.25426
1587.20854	1.22224
1585.27998	1.19202
1583.35142	1.16285
1581.42285	1.13546
1579.49429	1.11163
1577.56572	1.08977
1575.63716	1.06257
1573.70859	1.03828
1571.78003	1.02201
1569.85146	1.00375
1567.92290	0.98244
1565.99434	0.96542
1564.06577	0.95058
1562.13721	0.93792
1560.20864	0.92707
1558.28008	0.90769
1556.35151	0.88917
1554.42295	0.87789
1552.49438	0.86716
1550.56582	0.85672
1548.63726	0.84595
1546.70869	0.83647
1544.78013	0.82826
1542.85156	0.82031
1540.92300	0.81168
1538.99443	0.79979
1537.06587	0.79032
1535.13730	0.78387
1533.20874	0.77638
1531.28018	0.76841
1529.35161	0.76243
1527.42305	0.75682
1525.49448	0.75094
1523.56592	0.74560
1521.63735	0.73985
1519.70879	0.73309
1517.78022	0.72726
1515.85166	0.72155
1513.92310	0.71622
1511.99453	0.71196
1510.06597	0.70834
1508.13740	0.70510
1506.20884	0.69995
1504.28027	0.69468
1502.35171	0.69141
1500.42314	0.68871
1498.49458	0.68598
1496.56602	0.68261
1494.63745	0.67911
1492.70889	0.67647
1490.78032	0.67448
1488.85176	0.67222
1486.92319	0.66934
1484.99463	0.66645
1483.06606	0.66396
1481.13750	0.66177
1479.20894	0.65972
1477.28037	0.65792
1475.35181	0.65637
1473.42324	0.65472
1471.49468	0.65200
1469.56611	0.64890
1467.63755	0.64639
1465.70898	0.64414
1463.78042	0.64173
1461.85186	0.63949
1459.92329	0.63780
1457.99473	0.63614
1456.06616	0.63326
1454.13760	0.63002
1452.20903	0.62758
1450.28047	0.62544
1448.35190	0.62332
1446.42334	0.62110
1444.49478	0.61897
1442.56621	0.61711
1440.63765	0.61551
1438.70908	0.61411
1436.78052	0.61257
1434.85195	0.61081
1432.92339	0.60924
1430.99482	0.60786
1429.06626	0.60632
1427.13770	0.60464
1425.20913	0.60312
1423.28057	0.60168
1421.35200	0.60022
1419.42344	0.59880
1417.49487	0.59720
1415.56631	0.59537
1413.63774	0.59357
1411.70918	0.59181
1409.78062	0.59002
1407.85205	0.58837
1405.92349	0.58704
1403.99492	0.58576
1402.06636	0.58429
1400.13779	0.58290
1398.20923	0.58153
1396.28066	0.58018
1394.35210	0.57881
1392.42354	0.57735
1390.49497	0.57604
1388.56641	0.57500
1386.63784	0.57393
1384.70928	0.57262
1382.78071	0.57135
1380.85215	0.57038
1378.92358	0.56968
1376.99502	0.56909
1375.06646	0.56860
1373.13789	0.56803
1371.20933	0.56718
1369.28076	0.56630
1367.35220	0.56547
1365.42363	0.56460
1363.49507	0.56365
1361.56650	0.56251
1359.63794	0.56127
1357.70937	0.56020
1355.78081	0.55917
1353.85225	0.55810
1351.92368	0.55711
1349.99512	0.55630
1348.06655	0.55555
1346.13799	0.55467
1344.20942	0.55372
1342.28086	0.55283
1340.35229	0.55196
1338.42373	0.55090
1336.49517	0.54980
1334.56660	0.54883
1332.63804	0.54792
1330.70947	0.54705
1328.78091	0.54618
1326.85234	0.54531
1324.92378	0.54455
1322.99521	0.54387
1321.06665	0.54312
1319.13809	0.54233
1317.20952	0.54148
1315.28096	0.54059
1313.35239	0.53977
1311.42383	0.53892
1309.49526	0.53796
1307.56670	0.53702
1305.63813	0.53612
1303.70957	0.53521
1301.78101	0.53438
1299.85244	0.53357
1297.92388	0.53278
1295.99531	0.53210
1294.06675	0.53150
1292.13818	0.53087
1290.20962	0.53025
1288.28105	0.52973
1286.35249	0.52920
1284.42393	0.52874
1282.49536	0.52835
1280.56680	0.52786
1278.63823	0.52730
1276.70967	0.52675
1274.78110	0.52617
1272.85254	0.52573
1270.92397	0.52549
1268.99541	0.52515
1267.06685	0.52460
1265.13828	0.52410
1263.20972	0.52384
1261.28115	0.52368
1259.35259	0.52336
1257.42402	0.52286
1255.49546	0.52233
1253.56689	0.52188
1251.63833	0.52163
1249.70977	0.52151
1247.78120	0.52128
1245.85264	0.52094
1243.92407	0.52053
1241.99551	0.52001
1240.06694	0.51943
1238.13838	0.51888
1236.20981	0.51838
1234.28125	0.51785
1232.35269	0.51733
1230.42412	0.51685
1228.49556	0.51631
1226.56699	0.51566
1224.63843	0.51499
1222.70986	0.51434
1220.78130	0.51367
1218.85273	0.51293
1216.92417	0.51213
1214.99561	0.51143
1213.06704	0.51081
1211.13848	0.51025
1209.20991	0.50985
1207.28135	0.50948
1205.35278	0.50899
1203.42422	0.50836
1201.49565	0.50772
1199.56709	0.50716
1197.63853	0.50656
1195.70996	0.50597
1193.78140	0.50543
1191.85283	0.50491
1189.92427	0.50447
1187.99570	0.50415
1186.06714	0.50389
1184.13857	0.50371
1182.21001	0.50371
1180.28145	0.50386
1178.35288	0.50422
1176.42432	0.50485
1174.49575	0.50561
1172.56719	0.50648
1170.63862	0.50734
1168.71006	0.50809
1166.78149	0.50885
1164.85293	0.50965
1162.92437	0.51038
1160.99580	0.51102
1159.06724	0.51144
1157.13867	0.51134
1155.21011	0.51059
1153.28154	0.50936
1151.35298	0.50785
1149.42441	0.50605
1147.49585	0.50389
1145.56729	0.50141
1143.63872	0.49875
1141.71016	0.49620
1139.78159	0.49404
1137.85303	0.49223
1135.92446	0.49059
1133.99590	0.48916
1132.06733	0.48790
1130.13877	0.48666
1128.21021	0.48541
1126.28164	0.48425
1124.35308	0.48320
1122.42451	0.48217
1120.49595	0.48145
1118.56738	0.48136
1116.63882	0.48180
1114.71025	0.48264
1112.78169	0.48352
1110.85312	0.48413
1108.92456	0.48478
1106.99600	0.48559
1105.06743	0.48644
1103.13887	0.48755
1101.21030	0.48905
1099.28174	0.49063
1097.35317	0.49236
1095.42461	0.49480
1093.49604	0.49831
1091.56748	0.50279
1089.63892	0.50832
1087.71035	0.51525
1085.78179	0.52332
1083.85322	0.53150
1081.92466	0.53885
1079.99609	0.54483
1078.06753	0.54870
1076.13896	0.54967
1074.21040	0.54751
1072.28184	0.54252
1070.35327	0.53578
1068.42471	0.52877
1066.49614	0.52215
1064.56758	0.51591
1062.63901	0.51032
1060.71045	0.50554
1058.78188	0.50140
1056.85332	0.49775
1054.92476	0.49460
1052.99619	0.49187
1051.06763	0.48960
1049.13906	0.48804
1047.21050	0.48731
1045.28193	0.48716
1043.35337	0.48718
1041.42480	0.48715
1039.49624	0.48714
1037.56768	0.48733
1035.63911	0.48761
1033.71055	0.48753
1031.78198	0.48691
1029.85342	0.48612
1027.92485	0.48537
1025.99629	0.48465
1024.06772	0.48403
1022.13916	0.48358
1020.21060	0.48347
1018.28203	0.48383
1016.35347	0.48427
1014.42490	0.48446
1012.49634	0.48456
1010.56777	0.48476
1008.63921	0.48526
1006.71064	0.48621
1004.78208	0.48763
1002.85352	0.48966
1000.92495	0.49246
998.99639	0.49583
997.06782	0.49948
995.13926	0.50337
993.21069	0.50718
991.28213	0.51028
989.35356	0.51261
987.42500	0.51407
985.49644	0.51445
983.56787	0.51444
981.63931	0.51495
979.71074	0.51617
977.78218	0.51798
975.85361	0.52032
973.92505	0.52304
971.99648	0.52603
970.06792	0.52928
968.13936	0.53287
966.21079	0.53695
964.28223	0.54154
962.35366	0.54654
960.42510	0.55171
958.49653	0.55696
956.56797	0.56263
954.63940	0.56881
952.71084	0.57518
950.78228	0.58150
948.85371	0.58775
946.92515	0.59401
944.99658	0.60017
943.06802	0.60596
941.13945	0.61170
939.21089	0.61774
937.28232	0.62377
935.35376	0.62950
933.42520	0.63512
931.49663	0.64079
929.56807	0.64627
927.63950	0.65198
925.71094	0.65855
923.78237	0.66525
921.85381	0.67151
919.92524	0.67771
917.99668	0.68446
916.06812	0.69222
914.13955	0.70034
912.21099	0.70791
910.28242	0.71546
908.35386	0.72366
906.42529	0.73233
904.49673	0.74122
902.56816	0.75044
900.63960	0.75985
898.71104	0.76920
896.78247	0.77863
894.85391	0.78786
892.92534	0.79698
890.99678	0.80646
889.06821	0.81637
887.13965	0.82717
885.21108	0.83963
883.28252	0.85282
881.35396	0.86407
879.42539	0.87405
877.49683	0.88574
875.56826	0.89850
873.63970	0.90994
871.71113	0.92007
869.78257	0.93135
867.85400	0.94457
865.92544	0.95753
863.99687	0.96815
862.06831	0.97679
860.13975	0.98584
858.21118	0.99679
856.28262	1.00815
854.35405	1.02032
852.42549	1.03510
850.49692	1.04824
848.56836	1.05674
846.63979	1.06569
844.71123	1.07846
842.78267	1.09140
840.85410	1.10196
838.92554	1.11211
836.99697	1.12146
835.06841	1.12993
833.13984	1.14240
831.21128	1.15963
829.28271	1.17531
827.35415	1.18364
825.42559	1.18802
823.49702	1.20018
821.56846	1.22100
819.63989	1.23908
817.71133	1.25394
815.78276	1.27436
813.85420	1.29396
811.92563	1.30149
809.99707	1.29956
808.06851	1.28911
806.13994	1.28006
804.21138	1.28911
802.28281	1.30609
800.35425	1.31563
798.42568	1.33362
796.49712	1.35703
794.56855	1.35906
792.63999	1.35350
790.71143	1.35505
788.78286	1.34775
786.85430	1.33455
784.92573	1.35034
782.99717	1.37412
781.06860	1.34840
779.14004	1.32395
777.21147	1.35404
775.28291	1.41236
773.35435	1.40344
771.42578	1.31797
769.49722	1.24818
767.56865	1.22491
765.64009	1.21837
763.71152	1.21073
761.78296	1.20651
759.85439	1.20374
757.92583	1.17641
755.99727	1.16125
754.06870	1.24200
752.14014	1.29895
750.21157	1.13452
748.28301	0.97464
746.35444	0.90974
744.42588	0.90486
742.49731	0.90139
740.56875	0.87071
738.64019	0.83030
736.71162	0.78846
734.78306	0.72538
732.85449	0.61381
730.92593	0.49500
728.99736	0.39277
727.06880	0.30842
725.14023	0.26799
723.21167	0.25471
721.28311	0.19995
719.35454	0.09340
717.42598	0.02582
715.49741	0.08209
713.56885	0.15160
711.64028	0.14486
709.71172	0.13587
707.78315	0.13360
705.85459	0.14762
703.92603	0.16463
701.99746	0.15831
700.06890	0.15722
698.14033	0.19895
696.21177	0.25472
694.28320	0.27255
692.35464	0.27571
690.42607	0.26623
688.49751	0.21776
686.56895	0.16004
684.64038	0.12344
682.71182	0.13088
680.78325	0.16259
678.85469	0.14461
676.92612	0.12735
674.99756	0.16021
673.06899	0.20112
671.14043	0.21774
669.21187	0.23258
667.28330	0.24234
665.35474	0.20823
663.42617	0.15698
661.49761	0.14129
659.56904	0.15677
657.64048	0.16293
655.71191	0.12136
653.78335	0.06971
651.85479	0.09844
649.92622	0.18534
647.99766	0.24385
646.06909	0.26286
644.14053	0.28903
642.21196	0.30480
640.28340	0.27483
638.35483	0.25498
636.42627	0.26422
634.49771	0.23755
632.56914	0.18822
630.64058	0.17880
628.71201	0.19536
626.78345	0.21060
624.85488	0.22012
622.92632	0.21335
620.99775	0.20094
619.06919	0.18500
617.14062	0.18306
615.21206	0.21588
613.28350	0.23683
611.35493	0.21504
609.42637	0.18730
607.49780	0.17916
605.56924	0.20257
603.64067	0.24470
601.71211	0.25773
599.78354	0.22961
597.85498	0.21098
595.92642	0.21722
593.99785	0.21400
592.06929	0.17385
590.14072	0.14437
588.21216	0.17514
586.28359	0.21663
584.35503	0.24184
582.42646	0.27910
580.49790	0.30135
578.56934	0.27999
576.64077	0.25173
574.71221	0.22193
572.78364	0.18242
570.85508	0.14822
568.92651	0.14346
566.99795	0.17310
565.06938	0.20279
563.14082	0.20414
561.21226	0.21239
559.28369	0.22848
557.35513	0.23133
555.42656	0.22312
553.49800	0.19928
551.56943	0.20123
549.64087	0.22499
547.71230	0.21902
545.78374	0.18879
543.85518	0.15963
541.92661	0.15790
539.99805	0.18736
538.06948	0.21571
536.14092	0.23014
534.21235	0.21010
532.28379	0.17470
530.35522	0.17249
528.42666	0.17688
526.49810	0.15807
524.56953	0.15631
522.64097	0.20293
520.71240	0.28002
518.78384	0.34809
516.85527	0.31851
514.92671	0.21874
512.99814	0.16117
511.06958	0.15847
509.14102	0.18076
507.21245	0.19434
505.28389	0.19332
503.35532	0.18241
501.42676	0.16508
499.49819	0.16207
