3997.91411	0.06151
3995.98555	0.06235
3994.05698	0.06295
3992.12842	0.06317
3990.19985	0.06380
3988.27129	0.06451
3986.34272	0.06467
3984.41416	0.06452
3982.48560	0.06455
3980.55703	0.06494
3978.62847	0.06529
3976.69990	0.06526
3974.77134	0.06523
3972.84277	0.06549
3970.91421	0.06574
3968.98564	0.06604
3967.05708	0.06641
3965.12852	0.06630
3963.19995	0.06597
3961.27139	0.06593
3959.34282	0.06597
3957.41426	0.06606
3955.48569	0.06642
3953.55713	0.06670
3951.62856	0.06655
3949.70000	0.06626
3947.77144	0.06608
3945.84287	0.06582
3943.91431	0.06547
3941.98574	0.06551
3940.05718	0.06609
3938.12861	0.06656
3936.20005	0.06653
3934.27148	0.06635
3932.34292	0.06634
3930.41436	0.06621
3928.48579	0.06575
3926.55723	0.06514
3924.62866	0.06492
3922.70010	0.06530
3920.77153	0.06543
3918.84297	0.06505
3916.91440	0.06503
3914.98584	0.06546
3913.05728	0.06562
3911.12871	0.06567
3909.20015	0.06581
3907.27158	0.06556
3905.34302	0.06505
3903.41445	0.06493
3901.48589	0.06525
3899.55732	0.06541
3897.62876	0.06543
3895.70020	0.06554
3893.77163	0.06561
3891.84307	0.06548
3889.91450	0.06534
3887.98594	0.06526
3886.05737	0.06523
3884.12881	0.06511
3882.20024	0.06512
3880.27168	0.06554
3878.34312	0.06604
3876.41455	0.06628
3874.48599	0.06645
3872.55742	0.06647
3870.62886	0.06641
3868.70029	0.06697
3866.77173	0.06753
3864.84316	0.06749
3862.91460	0.06760
3860.98604	0.06806
3859.05747	0.06821
3857.12891	0.06790
3855.20034	0.06747
3853.27178	0.06756
3851.34321	0.06891
3849.41465	0.07016
3847.48608	0.07071
3845.55752	0.07102
3843.62896	0.07145
3841.70039	0.07202
3839.77183	0.07235
3837.84326	0.07260
3835.91470	0.07303
3833.98613	0.07362
3832.05757	0.07459
3830.12900	0.07585
3828.20044	0.07691
3826.27187	0.07753
3824.34331	0.07769
3822.41475	0.07781
3820.48618	0.07871
3818.55762	0.08010
3816.62905	0.08124
3814.70049	0.08253
3812.77192	0.08368
3810.84336	0.08445
3808.91479	0.08519
3806.98623	0.08635
3805.05767	0.08761
3803.12910	0.08799
3801.20054	0.08826
3799.27197	0.08973
3797.34341	0.09160
3795.41484	0.09315
3793.48628	0.09439
3791.55771	0.09557
3789.62915	0.09690
3787.70059	0.09822
3785.77202	0.09956
3783.84346	0.10113
3781.91489	0.10263
3779.98633	0.10405
3778.05776	0.10573
3776.12920	0.10720
3774.20063	0.10835
3772.27207	0.10968
3770.34351	0.11136
3768.41494	0.11331
3766.48638	0.11521
3764.55781	0.11708
3762.62925	0.11880
3760.70068	0.12040
3758.77212	0.12266
3756.84355	0.12542
3754.91499	0.12738
3752.98643	0.12869
3751.05786	0.13078
3749.12930	0.13400
3747.20073	0.13630
3745.27217	0.13841
3743.34360	0.14272
3741.41504	0.14718
3739.48647	0.14966
3737.55791	0.15151
3735.62935	0.15385
3733.70078	0.15780
3731.77222	0.16268
3729.84365	0.16683
3727.91509	0.17066
3725.98652	0.17579
3724.05796	0.18249
3722.12939	0.18986
3720.20083	0.19814
3718.27227	0.20731
3716.34370	0.21649
3714.41514	0.22456
3712.48657	0.23232
3710.55801	0.24292
3708.62944	0.25614
3706.70088	0.26822
3704.77231	0.27958
3702.84375	0.29251
3700.91519	0.30927
3698.98662	0.32785
3697.05806	0.34532
3695.12949	0.36350
3693.20093	0.38277
3691.27236	0.40380
3689.34380	0.43134
3687.41523	0.46609
3685.48667	0.49753
3683.55811	0.52464
3681.62954	0.55291
3679.70098	0.58407
3677.77241	0.61602
3675.84385	0.65332
3673.91528	0.70559
3671.98672	0.74976
3670.05815	0.78835
3668.12959	0.84174
3666.20103	0.89155
3664.27246	0.93284
3662.34390	0.97638
3660.41533	1.02316
3658.48677	1.06911
3656.55820	1.11774
3654.62964	1.17232
3652.70107	1.21803
3650.77251	1.25625
3648.84395	1.30894
3646.91538	1.37671
3644.98682	1.42839
3643.05825	1.46843
3641.12969	1.50909
3639.20112	1.55304
3637.27256	1.59637
3635.34399	1.63817
3633.41543	1.68024
3631.48687	1.71974
3629.55830	1.75878
3627.62974	1.81052
3625.70117	1.86206
3623.77261	1.89789
3621.84404	1.93068
3619.91548	1.96746
3617.98691	2.01288
3616.05835	2.05788
3614.12979	2.09618
3612.20122	2.13657
3610.27266	2.17609
3608.34409	2.21467
3606.41553	2.25724
3604.48696	2.29818
3602.55840	2.33368
3600.62983	2.37087
3598.70127	2.41141
3596.77271	2.45004
3594.84414	2.48914
3592.91558	2.53267
3590.98701	2.57451
3589.05845	2.61073
3587.12988	2.65360
3585.20132	2.70386
3583.27275	2.74687
3581.34419	2.78504
3579.41562	2.82523
3577.48706	2.86820
3575.55850	2.91171
3573.62993	2.95506
3571.70137	2.99642
3569.77280	3.03561
3567.84424	3.07721
3565.91567	3.12981
3563.98711	3.18211
3562.05854	3.22359
3560.12998	3.26556
3558.20142	3.31243
3556.27285	3.35944
3554.34429	3.40280
3552.41572	3.44671
3550.48716	3.49341
3548.55859	3.53879
3546.63003	3.58239
3544.70146	3.62978
3542.77290	3.68064
3540.84434	3.72943
3538.91577	3.77565
3536.98721	3.82168
3535.05864	3.87052
3533.13008	3.91911
3531.20151	3.96540
3529.27295	4.01144
3527.34438	4.05900
3525.41582	4.10718
3523.48726	4.15506
3521.55869	4.20464
3519.63013	4.25552
3517.70156	4.30591
3515.77300	4.35449
3513.84443	4.40332
3511.91587	4.45332
3509.98730	4.50214
3508.05874	4.54822
3506.13018	4.59323
3504.20161	4.63961
3502.27305	4.68541
3500.34448	4.72779
3498.41592	4.77021
3496.48735	4.82021
3494.55879	4.88021
3492.63022	4.93808
3490.70166	4.98275
3488.77310	5.02591
3486.84453	5.07552
3484.91597	5.12260
3482.98740	5.16557
3481.05884	5.20920
3479.13027	5.25617
3477.20171	5.30906
3475.27314	5.36343
3473.34458	5.41418
3471.41602	5.45952
3469.48745	5.49772
3467.55889	5.53773
3465.63032	5.58902
3463.70176	5.64922
3461.77319	5.70256
3459.84463	5.74383
3457.91606	5.79188
3455.98750	5.84754
3454.05894	5.89430
3452.13037	5.93688
3450.20181	5.98105
3448.27324	6.02434
3446.34468	6.07788
3444.41611	6.13924
3442.48755	6.19081
3440.55898	6.23178
3438.63042	6.27480
3436.70186	6.31271
3434.77329	6.34311
3432.84473	6.38604
3430.91616	6.44207
3428.98760	6.49887
3427.05903	6.54739
3425.13047	6.59191
3423.20190	6.63984
3421.27334	6.70699
3419.34478	6.77521
3417.41621	6.80823
3415.48765	6.83734
3413.55908	6.87702
3411.63052	6.91183
3409.70195	6.96986
3407.77339	7.05462
3405.84482	7.09298
3403.91626	7.08302
3401.98770	7.09305
3400.05913	7.14301
3398.13057	7.19311
3396.20200	7.24570
3394.27344	7.35081
3392.34487	7.43659
3390.41631	7.42724
3388.48774	7.39286
3386.55918	7.40418
3384.63062	7.41807
3382.70205	7.40728
3380.77349	7.41503
3378.84492	7.47597
3376.91636	7.60254
3374.98779	7.71797
3373.05923	7.76123
3371.13066	7.72844
3369.20210	7.65874
3367.27354	7.65056
3365.34497	7.73224
3363.41641	7.79612
3361.48784	7.78015
3359.55928	7.74117
3357.63071	7.71485
3355.70215	7.74130
3353.77358	7.79310
3351.84502	7.80582
3349.91646	7.77226
3347.98789	7.76379
3346.05933	7.83174
3344.13076	7.91548
3342.20220	7.95089
3340.27363	7.96047
3338.34507	7.99018
3336.41650	7.99552
3334.48794	7.95145
3332.55937	7.89459
3330.63081	7.88389
3328.70225	7.94475
3326.77368	8.01764
3324.84512	8.01419
3322.91655	7.96614
3320.98799	7.98325
3319.05942	7.99707
3317.13086	7.96302
3315.20229	7.96290
3313.27373	7.98799
3311.34517	7.99180
3309.41660	8.00593
3307.48804	8.03583
3305.55947	8.03423
3303.63091	8.02611
3301.70234	8.00201
3299.77378	7.92748
3297.84521	7.88213
3295.91665	7.93930
3293.98809	7.99628
3292.05952	7.99253
3290.13096	7.97035
3288.20239	7.95314
3286.27383	8.04679
3284.34526	8.18764
3282.41670	8.14427
3280.48813	7.95982
3278.55957	7.86067
3276.63101	7.93067
3274.70244	8.05500
3272.77388	8.06408
3270.84531	8.01562
3268.91675	8.02888
3266.98818	8.05193
3265.05962	8.01909
3263.13105	7.96943
3261.20249	8.01248
3259.27393	8.12395
3257.34536	8.14473
3255.41680	8.04593
3253.48823	7.94045
3251.55967	7.89533
3249.63110	7.87250
3247.70254	7.90630
3245.77397	8.02713
3243.84541	8.10496
3241.91685	8.10639
3239.98828	8.12155
3238.05972	8.12311
3236.13115	8.06632
3234.20259	7.99680
3232.27402	8.02810
3230.34546	8.17139
3228.41689	8.22818
3226.48833	8.13828
3224.55977	8.03736
3222.63120	8.01631
3220.70264	8.08847
3218.77407	8.12604
3216.84551	8.05472
3214.91694	7.95892
3212.98838	7.87901
3211.05981	7.81770
3209.13125	7.76524
3207.20269	7.69358
3205.27412	7.63979
3203.34556	7.63861
3201.41699	7.66063
3199.48843	7.71402
3197.55986	7.77488
3195.63130	7.73815
3193.70273	7.62619
3191.77417	7.53236
3189.84561	7.45380
3187.91704	7.37343
3185.98848	7.33328
3184.05991	7.33412
3182.13135	7.29470
3180.20278	7.20036
3178.27422	7.12586
3176.34565	7.11520
3174.41709	7.14317
3172.48853	7.11118
3170.55996	6.98746
3168.63140	6.88080
3166.70283	6.82772
3164.77427	6.77392
3162.84570	6.69874
3160.91714	6.61766
3158.98857	6.55317
3157.06001	6.50818
3155.13145	6.45984
3153.20288	6.39397
3151.27432	6.32615
3149.34575	6.26785
3147.41719	6.21278
3145.48862	6.16274
3143.56006	6.11857
3141.63149	6.05649
3139.70293	5.96714
3137.77437	5.88427
3135.84580	5.82115
3133.91724	5.75692
3131.98867	5.68226
3130.06011	5.61148
3128.13154	5.54372
3126.20298	5.46392
3124.27441	5.38301
3122.34585	5.31142
3120.41729	5.24696
3118.48872	5.18701
3116.56016	5.12373
3114.63159	5.05513
3112.70303	4.98511
3110.77446	4.91323
3108.84590	4.84204
3106.91733	4.77973
3104.98877	4.72479
3103.06021	4.66560
3101.13164	4.59844
3099.20308	4.52976
3097.27451	4.46128
3095.34595	4.39283
3093.41738	4.32689
3091.48882	4.26123
3089.56025	4.19535
3087.63169	4.13323
3085.70312	4.07414
3083.77456	4.01662
3081.84600	3.96114
3079.91743	3.90296
3077.98887	3.84031
3076.06030	3.77901
3074.13174	3.72217
3072.20317	3.66682
3070.27461	3.60914
3068.34604	3.54988
3066.41748	3.49262
3064.48892	3.43880
3062.56035	3.38595
3060.63179	3.33209
3058.70322	3.27796
3056.77466	3.22378
3054.84609	3.17006
3052.91753	3.11817
3050.98896	3.06804
3049.06040	3.01777
3047.13184	2.96683
3045.20327	2.91698
3043.27471	2.86888
3041.34614	2.82164
3039.41758	2.77457
3037.48901	2.72743
3035.56045	2.68102
3033.63188	2.63630
3031.70332	2.59205
3029.77476	2.54686
3027.84619	2.50222
3025.91763	2.45934
3023.98906	2.41722
3022.06050	2.37527
3020.13193	2.33361
3018.20337	2.29249
3016.27480	2.25229
3014.34624	2.21314
3012.41768	2.17477
3010.48911	2.13673
3008.56055	2.09905
3006.63198	2.06231
3004.70342	2.02679
3002.77485	1.99217
3000.84629	1.95839
2998.91772	1.92537
2996.98916	1.89242
2995.06060	1.85987
2993.13203	1.82883
2991.20347	1.79897
2989.27490	1.76930
2987.34634	1.73993
2985.41777	1.71119
2983.48921	1.68352
2981.56064	1.65682
2979.63208	1.63027
2977.70352	1.60400
2975.77495	1.57846
2973.84639	1.55370
2971.91782	1.52964
2969.98926	1.50590
2968.06069	1.48227
2966.13213	1.45932
2964.20356	1.43689
2962.27500	1.41384
2960.34644	1.38984
2958.41787	1.36560
2956.48931	1.34177
2954.56074	1.31817
2952.63218	1.29441
2950.70361	1.27094
2948.77505	1.24828
2946.84648	1.22632
2944.91792	1.20491
2942.98936	1.18410
2941.06079	1.16396
2939.13223	1.14455
2937.20366	1.12542
2935.27510	1.10607
2933.34653	1.08641
2931.41797	1.06663
2929.48940	1.04705
2927.56084	1.02788
2925.63228	1.00915
2923.70371	0.99081
2921.77515	0.97279
2919.84658	0.95497
2917.91802	0.93732
2915.98945	0.91977
2914.06089	0.90240
2912.13232	0.88577
2910.20376	0.87011
2908.27520	0.85471
2906.34663	0.83935
2904.41807	0.82438
2902.48950	0.81001
2900.56094	0.79624
2898.63237	0.78291
2896.70381	0.76989
2894.77524	0.75703
2892.84668	0.74444
2890.91812	0.73240
2888.98955	0.72076
2887.06099	0.70944
2885.13242	0.69880
2883.20386	0.68889
2881.27529	0.67945
2879.34673	0.67012
2877.41816	0.66063
2875.48960	0.65084
2873.56104	0.64069
2871.63247	0.63026
2869.70391	0.61944
2867.77534	0.60784
2865.84678	0.59563
2863.91821	0.58332
2861.98965	0.57146
2860.06108	0.56052
2858.13252	0.55029
2856.20396	0.54049
2854.27539	0.53109
2852.34683	0.52197
2850.41826	0.51311
2848.48970	0.50449
2846.56113	0.49606
2844.63257	0.48822
2842.70400	0.48099
2840.77544	0.47403
2838.84687	0.46749
2836.91831	0.46119
2834.98975	0.45483
2833.06118	0.44856
2831.13262	0.44239
2829.20405	0.43631
2827.27549	0.43041
2825.34692	0.42457
2823.41836	0.41867
2821.48979	0.41275
2819.56123	0.40671
2817.63267	0.40061
2815.70410	0.39479
2813.77554	0.38918
2811.84697	0.38353
2809.91841	0.37783
2807.98984	0.37237
2806.06128	0.36714
2804.13271	0.36194
2802.20415	0.35682
2800.27559	0.35177
2798.34702	0.34677
2796.41846	0.34197
2794.48989	0.33739
2792.56133	0.33281
2790.63276	0.32819
2788.70420	0.32365
2786.77563	0.31914
2784.84707	0.31461
2782.91851	0.31021
2780.98994	0.30608
2779.06138	0.30212
2777.13281	0.29812
2775.20425	0.29403
2773.27568	0.29007
2771.34712	0.28633
2769.41855	0.28264
2767.48999	0.27887
2765.56143	0.27517
2763.63286	0.27159
2761.70430	0.26822
2759.77573	0.26503
2757.84717	0.26173
2755.91860	0.25849
2753.99004	0.25545
2752.06147	0.25238
2750.13291	0.24923
2748.20435	0.24627
2746.27578	0.24348
2744.34722	0.24069
2742.41865	0.23786
2740.49009	0.23506
2738.56152	0.23231
2736.63296	0.22972
2734.70439	0.22729
2732.77583	0.22483
2730.84727	0.22235
2728.91870	0.21995
2726.99014	0.21769
2725.06157	0.21560
2723.13301	0.21349
2721.20444	0.21127
2719.27588	0.20910
2717.34731	0.20698
2715.41875	0.20490
2713.49019	0.20299
2711.56162	0.20112
2709.63306	0.19926
2707.70449	0.19754
2705.77593	0.19590
2703.84736	0.19421
2701.91880	0.19258
2699.99023	0.19117
2698.06167	0.18971
2696.13311	0.18803
2694.20454	0.18641
2692.27598	0.18509
2690.34741	0.18391
2688.41885	0.18267
2686.49028	0.18133
2684.56172	0.18008
2682.63315	0.17900
2680.70459	0.17783
2678.77603	0.17654
2676.84746	0.17534
2674.91890	0.17429
2672.99033	0.17316
2671.06177	0.17190
2669.13320	0.17085
2667.20464	0.17002
2665.27607	0.16908
2663.34751	0.16796
2661.41895	0.16688
2659.49038	0.16605
2657.56182	0.16534
2655.63325	0.16464
2653.70469	0.16393
2651.77612	0.16313
2649.84756	0.16224
2647.91899	0.16140
2645.99043	0.16070
2644.06187	0.16011
2642.13330	0.15953
2640.20474	0.15895
2638.27617	0.15835
2636.34761	0.15774
2634.41904	0.15723
2632.49048	0.15683
2630.56191	0.15651
2628.63335	0.15619
2626.70479	0.15571
2624.77622	0.15517
2622.84766	0.15482
2620.91909	0.15458
2618.99053	0.15436
2617.06196	0.15408
2615.13340	0.15370
2613.20483	0.15339
2611.27627	0.15321
2609.34771	0.15310
2607.41914	0.15306
2605.49058	0.15299
2603.56201	0.15290
2601.63345	0.15282
2599.70488	0.15262
2597.77632	0.15245
2595.84775	0.15255
2593.91919	0.15273
2591.99062	0.15279
2590.06206	0.15278
2588.13350	0.15286
2586.20493	0.15302
2584.27637	0.15319
2582.34780	0.15329
2580.41924	0.15338
2578.49067	0.15353
2576.56211	0.15381
2574.63354	0.15418
2572.70498	0.15453
2570.77642	0.15483
2568.84785	0.15510
2566.91929	0.15535
2564.99072	0.15562
2563.06216	0.15600
2561.13359	0.15654
2559.20503	0.15708
2557.27646	0.15758
2555.34790	0.15798
2553.41934	0.15825
2551.49077	0.15858
2549.56221	0.15904
2547.63364	0.15949
2545.70508	0.16000
2543.77651	0.16059
2541.84795	0.16120
2539.91938	0.16184
2537.99082	0.16245
2536.06226	0.16298
2534.13369	0.16354
2532.20513	0.16408
2530.27656	0.16466
2528.34800	0.16533
2526.41943	0.16605
2524.49087	0.16679
2522.56230	0.16747
2520.63374	0.16813
2518.70518	0.16888
2516.77661	0.16969
2514.84805	0.17037
2512.91948	0.17096
2510.99092	0.17167
2509.06235	0.17255
2507.13379	0.17350
2505.20522	0.17438
2503.27666	0.17504
2501.34810	0.17561
2499.41953	0.17637
2497.49097	0.17728
2495.56240	0.17810
2493.63384	0.17874
2491.70527	0.17943
2489.77671	0.18028
2487.84814	0.18120
2485.91958	0.18214
2483.99102	0.18304
2482.06245	0.18381
2480.13389	0.18446
2478.20532	0.18512
2476.27676	0.18592
2474.34819	0.18692
2472.41963	0.18795
2470.49106	0.18876
2468.56250	0.18940
2466.63394	0.19021
2464.70537	0.19118
2462.77681	0.19195
2460.84824	0.19265
2458.91968	0.19351
2456.99111	0.19448
2455.06255	0.19549
2453.13398	0.19651
2451.20542	0.19748
2449.27686	0.19837
2447.34829	0.19932
2445.41973	0.20041
2443.49116	0.20144
2441.56260	0.20228
2439.63403	0.20306
2437.70547	0.20394
2435.77690	0.20495
2433.84834	0.20607
2431.91978	0.20715
2429.99121	0.20810
2428.06265	0.20894
2426.13408	0.20988
2424.20552	0.21101
2422.27695	0.21215
2420.34839	0.21318
2418.41982	0.21427
2416.49126	0.21546
2414.56270	0.21659
2412.63413	0.21769
2410.70557	0.21889
2408.77700	0.22007
2406.84844	0.22111
2404.91987	0.22210
2402.99131	0.22317
2401.06274	0.22434
2399.13418	0.22552
2397.20562	0.22674
2395.27705	0.22802
2393.34849	0.22928
2391.41992	0.23043
2389.49136	0.23144
2387.56279	0.23219
2385.63423	0.23234
2383.70566	0.23165
2381.77710	0.23003
2379.84854	0.22758
2377.91997	0.22444
2375.99141	0.22054
2374.06284	0.21583
2372.13428	0.21037
2370.20571	0.20419
2368.27715	0.19799
2366.34858	0.19312
2364.42002	0.18949
2362.49146	0.18668
2360.56289	0.18563
2358.63433	0.18705
2356.70576	0.19186
2354.77720	0.20014
2352.84863	0.21060
2350.92007	0.22082
2348.99150	0.22699
2347.06294	0.22762
2345.13437	0.22401
2343.20581	0.21980
2341.27725	0.21830
2339.34868	0.21929
2337.42012	0.22162
2335.49155	0.22465
2333.56299	0.22792
2331.63442	0.23098
2329.70586	0.23399
2327.77729	0.23740
2325.84873	0.24133
2323.92017	0.24583
2321.99160	0.25107
2320.06304	0.25673
2318.13447	0.26202
2316.20591	0.26645
2314.27734	0.27015
2312.34878	0.27350
2310.42021	0.27691
2308.49165	0.28061
2306.56309	0.28447
2304.63452	0.28808
2302.70596	0.29119
2300.77739	0.29404
2298.84883	0.29689
2296.92026	0.29963
2294.99170	0.30224
2293.06313	0.30493
2291.13457	0.30772
2289.20601	0.31048
2287.27744	0.31323
2285.34888	0.31600
2283.42031	0.31847
2281.49175	0.32047
2279.56318	0.32229
2277.63462	0.32417
2275.70605	0.32609
2273.77749	0.32795
2271.84893	0.32982
2269.92036	0.33181
2267.99180	0.33397
2266.06323	0.33621
2264.13467	0.33847
2262.20610	0.34078
2260.27754	0.34306
2258.34897	0.34529
2256.42041	0.34754
2254.49185	0.34977
2252.56328	0.35195
2250.63472	0.35422
2248.70615	0.35667
2246.77759	0.35914
2244.84902	0.36151
2242.92046	0.36373
2240.99189	0.36586
2239.06333	0.36804
2237.13477	0.37030
2235.20620	0.37260
2233.27764	0.37484
2231.34907	0.37696
2229.42051	0.37903
2227.49194	0.38115
2225.56338	0.38332
2223.63481	0.38553
2221.70625	0.38780
2219.77769	0.39010
2217.84912	0.39232
2215.92056	0.39445
2213.99199	0.39662
2212.06343	0.39882
2210.13486	0.40103
2208.20630	0.40322
2206.27773	0.40530
2204.34917	0.40731
2202.42061	0.40942
2200.49204	0.41152
2198.56348	0.41351
2196.63491	0.41548
2194.70635	0.41736
2192.77778	0.41913
2190.84922	0.42093
2188.92065	0.42283
2186.99209	0.42474
2185.06353	0.42655
2183.13496	0.42824
2181.20640	0.42984
2179.27783	0.43146
2177.34927	0.43308
2175.42070	0.43468
2173.49214	0.43624
2171.56357	0.43775
2169.63501	0.43919
2167.70645	0.44052
2165.77788	0.44172
2163.84932	0.44287
2161.92075	0.44398
2159.99219	0.44500
2158.06362	0.44596
2156.13506	0.44684
2154.20649	0.44763
2152.27793	0.44854
2150.34937	0.44947
2148.42080	0.45018
2146.49224	0.45072
2144.56367	0.45117
2142.63511	0.45151
2140.70654	0.45173
2138.77798	0.45196
2136.84941	0.45224
2134.92085	0.45244
2132.99229	0.45246
2131.06372	0.45236
2129.13516	0.45221
2127.20659	0.45199
2125.27803	0.45167
2123.34946	0.45130
2121.42090	0.45087
2119.49233	0.45030
2117.56377	0.44965
2115.63521	0.44889
2113.70664	0.44807
2111.77808	0.44719
2109.84951	0.44617
2107.92095	0.44506
2105.99238	0.44397
2104.06382	0.44284
2102.13525	0.44164
2100.20669	0.44045
2098.27812	0.43908
2096.34956	0.43744
2094.42100	0.43581
2092.49243	0.43431
2090.56387	0.43273
2088.63530	0.43099
2086.70674	0.42917
2084.77817	0.42728
2082.84961	0.42533
2080.92104	0.42340
2078.99248	0.42151
2077.06392	0.41948
2075.13535	0.41731
2073.20679	0.41516
2071.27822	0.41303
2069.34966	0.41087
2067.42109	0.40864
2065.49253	0.40630
2063.56396	0.40380
2061.63540	0.40128
2059.70684	0.39882
2057.77827	0.39634
2055.84971	0.39382
2053.92114	0.39132
2051.99258	0.38876
2050.06401	0.38611
2048.13545	0.38344
2046.20688	0.38075
2044.27832	0.37801
2042.34976	0.37527
2040.42119	0.37258
2038.49263	0.37001
2036.56406	0.36743
2034.63550	0.36463
2032.70693	0.36170
2030.77837	0.35889
2028.84980	0.35625
2026.92124	0.35366
2024.99268	0.35095
2023.06411	0.34821
2021.13555	0.34553
2019.20698	0.34276
2017.27842	0.33985
2015.34985	0.33696
2013.42129	0.33424
2011.49272	0.33163
2009.56416	0.32899
2007.63560	0.32622
2005.70703	0.32345
2003.77847	0.32078
2001.84990	0.31809
1999.92134	0.31547
1997.99277	0.31292
1996.06421	0.31036
1994.13564	0.30787
1992.20708	0.30546
1990.27852	0.30299
1988.34995	0.30049
1986.42139	0.29801
1984.49282	0.29561
1982.56426	0.29327
1980.63569	0.29095
1978.70713	0.28873
1976.77856	0.28659
1974.85000	0.28441
1972.92144	0.28218
1970.99287	0.28007
1969.06431	0.27802
1967.13574	0.27589
1965.20718	0.27389
1963.27861	0.27206
1961.35005	0.27018
1959.42148	0.26821
1957.49292	0.26631
1955.56436	0.26454
1953.63579	0.26283
1951.70723	0.26110
1949.77866	0.25942
1947.85010	0.25784
1945.92153	0.25633
1943.99297	0.25475
1942.06440	0.25313
1940.13584	0.25166
1938.20728	0.25040
1936.27871	0.24918
1934.35015	0.24787
1932.42158	0.24657
1930.49302	0.24535
1928.56445	0.24419
1926.63589	0.24305
1924.70732	0.24194
1922.77876	0.24089
1920.85020	0.23990
1918.92163	0.23902
1916.99307	0.23826
1915.06450	0.23760
1913.13594	0.23687
1911.20737	0.23606
1909.27881	0.23525
1907.35024	0.23456
1905.42168	0.23393
1903.49312	0.23333
1901.56455	0.23280
1899.63599	0.23237
1897.70742	0.23202
1895.77886	0.23163
1893.85029	0.23125
1891.92173	0.23084
1889.99316	0.23044
1888.06460	0.23011
1886.13604	0.22990
1884.20747	0.22976
1882.27891	0.22965
1880.35034	0.22954
1878.42178	0.22943
1876.49321	0.22940
1874.56465	0.22938
1872.63608	0.22936
1870.70752	0.22930
1868.77896	0.22948
1866.85039	0.22991
1864.92183	0.23025
1862.99326	0.23052
1861.06470	0.23078
1859.13613	0.23108
1857.20757	0.23142
1855.27900	0.23185
1853.35044	0.23228
1851.42187	0.23278
1849.49331	0.23328
1847.56475	0.23380
1845.63618	0.23439
1843.70762	0.23526
1841.77905	0.23629
1839.85049	0.23698
1837.92192	0.23770
1835.99336	0.23864
1834.06479	0.23968
1832.13623	0.24057
1830.20767	0.24164
1828.27910	0.24304
1826.35054	0.24431
1824.42197	0.24572
1822.49341	0.24716
1820.56484	0.24852
1818.63628	0.24992
1816.70771	0.25154
1814.77915	0.25309
1812.85059	0.25458
1810.92202	0.25636
1808.99346	0.25851
1807.06489	0.26067
1805.13633	0.26259
1803.20776	0.26459
1801.27920	0.26689
1799.35063	0.26966
1797.42207	0.27216
1795.49351	0.27434
1793.56494	0.27680
1791.63638	0.28032
1789.70781	0.28423
1787.77925	0.28729
1785.85068	0.29044
1783.92212	0.29395
1781.99355	0.29769
1780.06499	0.30173
1778.13643	0.30608
1776.20786	0.31010
1774.27930	0.31404
1772.35073	0.31928
1770.42217	0.32557
1768.49360	0.33139
1766.56504	0.33692
1764.63647	0.34224
1762.70791	0.34772
1760.77935	0.35482
1758.85078	0.36185
1756.92222	0.36895
1754.99365	0.37670
1753.06509	0.38354
1751.13652	0.39129
1749.20796	0.40128
1747.27939	0.41177
1745.35083	0.42118
1743.42227	0.43088
1741.49370	0.44141
1739.56514	0.45387
1737.63657	0.46643
1735.70801	0.47717
1733.77944	0.49306
1731.85088	0.51259
1729.92231	0.52850
1727.99375	0.54459
1726.06519	0.56154
1724.13662	0.57977
1722.20806	0.59953
1720.27949	0.61756
1718.35093	0.63796
1716.42236	0.66877
1714.49380	0.69984
1712.56523	0.72564
1710.63667	0.75013
1708.70811	0.77586
1706.77954	0.80470
1704.85098	0.83932
1702.92241	0.87064
1700.99385	0.90171
1699.06528	0.94843
1697.13672	0.99262
1695.20815	1.03882
1693.27959	1.08381
1691.35103	1.11996
1689.42246	1.16192
1687.49390	1.20651
1685.56533	1.24904
1683.63677	1.31506
1681.70820	1.38567
1679.77964	1.43158
1677.85107	1.47455
1675.92251	1.52327
1673.99395	1.58426
1672.06538	1.63939
1670.13682	1.69323
1668.20825	1.76382
1666.27969	1.82246
1664.35112	1.87310
1662.42256	1.93844
1660.49399	2.01399
1658.56543	2.07255
1656.63687	2.11795
1654.70830	2.15624
1652.77974	2.21284
1650.85117	2.27085
1648.92261	2.29275
1646.99404	2.31673
1645.06548	2.34313
1643.13691	2.36165
1641.20835	2.36927
1639.27979	2.37376
1637.35122	2.37412
1635.42266	2.36910
1633.49409	2.36188
1631.56553	2.34927
1629.63696	2.33138
1627.70840	2.30045
1625.77983	2.26292
1623.85127	2.21532
1621.92271	2.15878
1619.99414	2.10999
1618.06558	2.06245
1616.13701	1.99480
1614.20845	1.92766
1612.27988	1.87726
1610.35132	1.82391
1608.42275	1.76561
1606.49419	1.70838
1604.56562	1.65639
1602.63706	1.60698
1600.70850	1.55899
1598.77993	1.51474
1596.85137	1.47302
1594.92280	1.43250
1592.99424	1.39365
1591.06567	1.35819
1589.13711	1.32527
1587.20854	1.29522
1585.27998	1.26790
1583.35142	1.24265
1581.42285	1.21990
1579.49429	1.20077
1577.56572	1.18382
1575.63716	1.16407
1573.70859	1.14796
1571.78003	1.13819
1569.85146	1.12892
1567.92290	1.11999
1565.99434	1.11440
1564.06577	1.11125
1562.13721	1.10935
1560.20864	1.10922
1558.28008	1.11580
1556.35151	1.12534
1554.42295	1.13083
1552.49438	1.13570
1550.56582	1.13871
1548.63726	1.13846
1546.70869	1.13423
1544.78013	1.12557
1542.85156	1.11255
1540.92300	1.09185
1538.99443	1.06004
1537.06587	1.03767
1535.13730	1.02171
1533.20874	0.99957
1531.28018	0.97633
1529.35161	0.95945
1527.42305	0.94293
1525.49448	0.92542
1523.56592	0.91052
1521.63735	0.89681
1519.70879	0.88386
1517.78022	0.87310
1515.85166	0.86045
1513.92310	0.84705
1511.99453	0.83489
1510.06597	0.82328
1508.13740	0.81133
1506.20884	0.79396
1504.28027	0.78070
1502.35171	0.77362
1500.42314	0.76683
1498.49458	0.75914
1496.56602	0.75039
1494.63745	0.74204
1492.70889	0.73538
1490.78032	0.72910
1488.85176	0.72222
1486.92319	0.71659
1484.99463	0.71264
1483.06606	0.70963
1481.13750	0.70701
1479.20894	0.70489
1477.28037	0.70383
1475.35181	0.70373
1473.42324	0.70423
1471.49468	0.70470
1469.56611	0.70415
1467.63755	0.70238
1465.70898	0.70038
1463.78042	0.69929
1461.85186	0.69895
1459.92329	0.69856
1457.99473	0.69825
1456.06616	0.69831
1454.13760	0.69724
1452.20903	0.69505
1450.28047	0.69250
1448.35190	0.68994
1446.42334	0.68732
1444.49478	0.68473
1442.56621	0.68202
1440.63765	0.67896
1438.70908	0.67567
1436.78052	0.67161
1434.85195	0.66714
1432.92339	0.66362
1430.99482	0.66120
1429.06626	0.66004
1427.13770	0.65993
1425.20913	0.66039
1423.28057	0.66138
1421.35200	0.66223
1419.42344	0.66251
1417.49487	0.66242
1415.56631	0.66204
1413.63774	0.66179
1411.70918	0.66219
1409.78062	0.66350
1407.85205	0.66542
1405.92349	0.66770
1403.99492	0.66989
1402.06636	0.67094
1400.13779	0.67057
1398.20923	0.66887
1396.28066	0.66596
1394.35210	0.66190
1392.42354	0.65728
1390.49497	0.65270
1388.56641	0.64775
1386.63784	0.64217
1384.70928	0.63665
1382.78071	0.63141
1380.85215	0.62630
1378.92358	0.62179
1376.99502	0.61832
1375.06646	0.61593
1373.13789	0.61450
1371.20933	0.61366
1369.28076	0.61278
1367.35220	0.61146
1365.42363	0.60973
1363.49507	0.60781
1361.56650	0.60603
1359.63794	0.60460
1357.70937	0.60326
1355.78081	0.60183
1353.85225	0.60066
1351.92368	0.59984
1349.99512	0.59903
1348.06655	0.59812
1346.13799	0.59725
1344.20942	0.59652
1342.28086	0.59592
1340.35229	0.59535
1338.42373	0.59468
1336.49517	0.59416
1334.56660	0.59400
1332.63804	0.59406
1330.70947	0.59422
1328.78091	0.59472
1326.85234	0.59561
1324.92378	0.59662
1322.99521	0.59765
1321.06665	0.59864
1319.13809	0.59950
1317.20952	0.60002
1315.28096	0.60010
1313.35239	0.59986
1311.42383	0.59948
1309.49526	0.59906
1307.56670	0.59857
1305.63813	0.59802
1303.70957	0.59746
1301.78101	0.59689
1299.85244	0.59619
1297.92388	0.59520
1295.99531	0.59401
1294.06675	0.59276
1292.13818	0.59141
1290.20962	0.59001
1288.28105	0.58870
1286.35249	0.58747
1284.42393	0.58612
1282.49536	0.58456
1280.56680	0.58292
1278.63823	0.58130
1276.70967	0.57973
1274.78110	0.57836
1272.85254	0.57736
1270.92397	0.57671
1268.99541	0.57601
1267.06685	0.57510
1265.13828	0.57418
1263.20972	0.57330
1261.28115	0.57238
1259.35259	0.57152
1257.42402	0.57094
1255.49546	0.57063
1253.56689	0.57040
1251.63833	0.57033
1249.70977	0.57052
1247.78120	0.57069
1245.85264	0.57050
1243.92407	0.56990
1241.99551	0.56899
1240.06694	0.56759
1238.13838	0.56559
1236.20981	0.56316
1234.28125	0.56049
1232.35269	0.55784
1230.42412	0.55533
1228.49556	0.55289
1226.56699	0.55053
1224.63843	0.54843
1222.70986	0.54656
1220.78130	0.54490
1218.85273	0.54335
1216.92417	0.54187
1214.99561	0.54062
1213.06704	0.53973
1211.13848	0.53898
1209.20991	0.53825
1207.28135	0.53754
1205.35278	0.53667
1203.42422	0.53560
1201.49565	0.53452
1199.56709	0.53360
1197.63853	0.53291
1195.70996	0.53230
1193.78140	0.53164
1191.85283	0.53101
1189.92427	0.53046
1187.99570	0.52988
1186.06714	0.52944
1184.13857	0.52959
1182.21001	0.53041
1180.28145	0.53168
1178.35288	0.53328
1176.42432	0.53501
1174.49575	0.53652
1172.56719	0.53761
1170.63862	0.53823
1168.71006	0.53844
1166.78149	0.53832
1164.85293	0.53799
1162.92437	0.53765
1160.99580	0.53754
1159.06724	0.53760
1157.13867	0.53735
1155.21011	0.53641
1153.28154	0.53493
1151.35298	0.53308
1149.42441	0.53072
1147.49585	0.52792
1145.56729	0.52499
1143.63872	0.52232
1141.71016	0.51995
1139.78159	0.51775
1137.85303	0.51599
1135.92446	0.51491
1133.99590	0.51433
1132.06733	0.51407
1130.13877	0.51397
1128.21021	0.51382
1126.28164	0.51344
1124.35308	0.51297
1122.42451	0.51284
1120.49595	0.51298
1118.56738	0.51301
1116.63882	0.51310
1114.71025	0.51359
1112.78169	0.51429
1110.85312	0.51501
1108.92456	0.51594
1106.99600	0.51708
1105.06743	0.51822
1103.13887	0.51930
1101.21030	0.52045
1099.28174	0.52176
1097.35317	0.52344
1095.42461	0.52592
1093.49604	0.52950
1091.56748	0.53412
1089.63892	0.53978
1087.71035	0.54676
1085.78179	0.55476
1083.85322	0.56307
1081.92466	0.57066
1079.99609	0.57613
1078.06753	0.57874
1076.13896	0.57851
1074.21040	0.57563
1072.28184	0.57035
1070.35327	0.56329
1068.42471	0.55573
1066.49614	0.54882
1064.56758	0.54271
1062.63901	0.53716
1060.71045	0.53205
1058.78188	0.52745
1056.85332	0.52340
1054.92476	0.51977
1052.99619	0.51656
1051.06763	0.51395
1049.13906	0.51191
1047.21050	0.51043
1045.28193	0.50948
1043.35337	0.50890
1041.42480	0.50856
1039.49624	0.50838
1037.56768	0.50819
1035.63911	0.50788
1033.71055	0.50726
1031.78198	0.50622
1029.85342	0.50499
1027.92485	0.50371
1025.99629	0.50246
1024.06772	0.50143
1022.13916	0.50069
1020.21060	0.50031
1018.28203	0.50011
1016.35347	0.49989
1014.42490	0.49977
1012.49634	0.49960
1010.56777	0.49945
1008.63921	0.49971
1006.71064	0.50031
1004.78208	0.50128
1002.85352	0.50293
1000.92495	0.50544
998.99639	0.50884
997.06782	0.51296
995.13926	0.51749
993.21069	0.52184
991.28213	0.52526
989.35356	0.52730
987.42500	0.52808
985.49644	0.52813
983.56787	0.52803
981.63931	0.52809
979.71074	0.52861
977.78218	0.52998
975.85361	0.53203
973.92505	0.53447
971.99648	0.53719
970.06792	0.54021
968.13936	0.54372
966.21079	0.54775
964.28223	0.55214
962.35366	0.55684
960.42510	0.56190
958.49653	0.56748
956.56797	0.57339
954.63940	0.57924
952.71084	0.58521
950.78228	0.59139
948.85371	0.59765
946.92515	0.60397
944.99658	0.61023
943.06802	0.61622
941.13945	0.62217
939.21089	0.62842
937.28232	0.63457
935.35376	0.64012
933.42520	0.64536
931.49663	0.65091
929.56807	0.65686
927.63950	0.66258
925.71094	0.66818
923.78237	0.67446
921.85381	0.68105
919.92524	0.68753
917.99668	0.69430
916.06812	0.70136
914.13955	0.70858
912.21099	0.71650
910.28242	0.72535
908.35386	0.73407
906.42529	0.74231
904.49673	0.75024
902.56816	0.75764
900.63960	0.76598
898.71104	0.77590
896.78247	0.78588
894.85391	0.79593
892.92534	0.80621
890.99678	0.81648
889.06821	0.82825
887.13965	0.84124
885.21108	0.85317
883.28252	0.86365
881.35396	0.87292
879.42539	0.88253
877.49683	0.89454
875.56826	0.90790
873.63970	0.92074
871.71113	0.93256
869.78257	0.94320
867.85400	0.95320
865.92544	0.96286
863.99687	0.97266
862.06831	0.98393
860.13975	0.99619
858.21118	1.00764
856.28262	1.01799
854.35405	1.02863
852.42549	1.03965
850.49692	1.05092
848.56836	1.06383
846.63979	1.07738
844.71123	1.08914
842.78267	1.09982
840.85410	1.11192
838.92554	1.12567
836.99697	1.13901
835.06841	1.14966
833.13984	1.15692
831.21128	1.16212
829.28271	1.16917
827.35415	1.18080
825.42559	1.19218
823.49702	1.20115
821.56846	1.21194
819.63989	1.22473
817.71133	1.23748
815.78276	1.24764
813.85420	1.25288
811.92563	1.25260
809.99707	1.24649
808.06851	1.24497
806.13994	1.26382
804.21138	1.29542
802.28281	1.30957
800.35425	1.30351
798.42568	1.31184
796.49712	1.32931
794.56855	1.32561
792.63999	1.31883
790.71143	1.32043
788.78286	1.31056
786.85430	1.28773
784.92573	1.27644
782.99717	1.26073
781.06860	1.23119
779.14004	1.22171
777.21147	1.20634
775.28291	1.15308
773.35435	1.11646
771.42578	1.14255
769.49722	1.20793
767.56865	1.26524
765.64009	1.29881
763.71152	1.27734
761.78296	1.22671
759.85439	1.21003
757.92583	1.20799
755.99727	1.18403
754.06870	1.17246
752.14014	1.16583
750.21157	1.08988
748.28301	0.99946
746.35444	0.94998
744.42588	0.88821
742.49731	0.81236
740.56875	0.77608
738.64019	0.76421
736.71162	0.71112
734.78306	0.61911
732.85449	0.52121
730.92593	0.41353
728.99736	0.31137
727.06880	0.26584
725.14023	0.24042
723.21167	0.16288
721.28311	0.09953
719.35454	0.10526
717.42598	0.07354
715.49741	-0.06833
713.56885	-0.22603
711.64028	-0.24279
709.71172	-0.15588
707.78315	-0.06114
705.85459	0.00284
703.92603	0.07398
701.99746	0.12284
700.06890	0.12059
698.14033	0.11146
696.21177	0.12075
694.28320	0.19395
692.35464	0.33031
690.42607	0.35290
688.49751	0.24952
686.56895	0.15607
684.64038	0.15015
682.71182	0.16606
680.78325	0.18372
678.85469	0.22597
676.92612	0.22148
674.99756	0.18676
673.06899	0.23381
671.14043	0.29832
669.21187	0.25643
667.28330	0.17031
665.35474	0.12412
663.42617	0.11627
661.49761	0.10826
659.56904	0.09859
657.64048	0.12083
655.71191	0.16063
653.78335	0.20426
651.85479	0.21836
649.92622	0.17445
647.99766	0.16109
646.06909	0.20305
644.14053	0.18346
642.21196	0.09287
640.28340	0.04118
638.35483	0.04183
636.42627	0.10494
634.49771	0.20497
632.56914	0.24420
630.64058	0.25618
628.71201	0.25097
626.78345	0.20091
624.85488	0.18184
622.92632	0.24025
620.99775	0.32715
619.06919	0.32842
617.14062	0.30089
615.21206	0.27874
613.28350	0.22889
611.35493	0.16797
609.42637	0.14788
607.49780	0.14065
605.56924	0.10359
603.64067	0.06670
601.71211	0.06427
599.78354	0.10963
597.85498	0.17285
595.92642	0.20564
593.99785	0.19893
592.06929	0.19827
590.14072	0.25249
588.21216	0.30277
586.28359	0.26854
584.35503	0.21431
582.42646	0.22902
580.49790	0.30057
578.56934	0.27392
576.64077	0.17291
574.71221	0.13574
572.78364	0.14739
570.85508	0.16177
568.92651	0.17524
566.99795	0.20897
565.06938	0.22960
563.14082	0.22471
561.21226	0.21877
559.28369	0.20152
557.35513	0.17235
555.42656	0.16804
553.49800	0.16912
551.56943	0.14298
549.64087	0.11587
547.71230	0.09949
545.78374	0.10764
543.85518	0.11382
541.92661	0.09137
539.99805	0.10363
538.06948	0.20079
536.14092	0.28449
534.21235	0.23598
532.28379	0.16224
530.35522	0.16441
528.42666	0.23189
526.49810	0.27430
524.56953	0.22120
522.64097	0.15912
520.71240	0.15125
518.78384	0.17376
516.85527	0.18283
514.92671	0.17866
512.99814	0.16387
511.06958	0.13650
509.14102	0.11546
507.21245	0.10809
505.28389	0.12608
503.35532	0.18468
501.42676	0.22442
499.49819	0.18325
