3997.91411	0.06659
3995.98555	0.06675
3994.05698	0.06662
3992.12842	0.06675
3990.19985	0.06708
3988.27129	0.06727
3986.34272	0.06744
3984.41416	0.06785
3982.48560	0.06830
3980.55703	0.06838
3978.62847	0.06839
3976.69990	0.06893
3974.77134	0.06951
3972.84277	0.06975
3970.91421	0.07004
3968.98564	0.07028
3967.05708	0.07029
3965.12852	0.07032
3963.19995	0.07044
3961.27139	0.07046
3959.34282	0.07035
3957.41426	0.07017
3955.48569	0.07017
3953.55713	0.07053
3951.62856	0.07108
3949.70000	0.07158
3947.77144	0.07138
3945.84287	0.07049
3943.91431	0.07012
3941.98574	0.07043
3940.05718	0.07043
3938.12861	0.07022
3936.20005	0.07048
3934.27148	0.07098
3932.34292	0.07120
3930.41436	0.07100
3928.48579	0.07043
3926.55723	0.06989
3924.62866	0.07000
3922.70010	0.07057
3920.77153	0.07077
3918.84297	0.07055
3916.91440	0.07048
3914.98584	0.07041
3913.05728	0.06995
3911.12871	0.06947
3909.20015	0.06922
3907.27158	0.06918
3905.34302	0.06964
3903.41445	0.07054
3901.48589	0.07094
3899.55732	0.07062
3897.62876	0.07022
3895.70020	0.06976
3893.77163	0.06927
3891.84307	0.06925
3889.91450	0.06979
3887.98594	0.06978
3886.05737	0.06946
3884.12881	0.06959
3882.20024	0.06979
3880.27168	0.07007
3878.34312	0.07053
3876.41455	0.07059
3874.48599	0.07052
3872.55742	0.07098
3870.62886	0.07183
3868.70029	0.07248
3866.77173	0.07259
3864.84316	0.07268
3862.91460	0.07316
3860.98604	0.07353
3859.05747	0.07340
3857.12891	0.07331
3855.20034	0.07374
3853.27178	0.07484
3851.34321	0.07603
3849.41465	0.07611
3847.48608	0.07573
3845.55752	0.07565
3843.62896	0.07646
3841.70039	0.07781
3839.77183	0.07875
3837.84326	0.07941
3835.91470	0.07949
3833.98613	0.07915
3832.05757	0.07966
3830.12900	0.08085
3828.20044	0.08163
3826.27187	0.08214
3824.34331	0.08275
3822.41475	0.08318
3820.48618	0.08427
3818.55762	0.08614
3816.62905	0.08726
3814.70049	0.08784
3812.77192	0.08809
3810.84336	0.08837
3808.91479	0.08923
3806.98623	0.09056
3805.05767	0.09168
3803.12910	0.09247
3801.20054	0.09420
3799.27197	0.09650
3797.34341	0.09756
3795.41484	0.09836
3793.48628	0.09917
3791.55771	0.09985
3789.62915	0.10095
3787.70059	0.10244
3785.77202	0.10403
3783.84346	0.10562
3781.91489	0.10704
3779.98633	0.10860
3778.05776	0.11067
3776.12920	0.11236
3774.20063	0.11357
3772.27207	0.11489
3770.34351	0.11661
3768.41494	0.11882
3766.48638	0.12082
3764.55781	0.12262
3762.62925	0.12422
3760.70068	0.12570
3758.77212	0.12811
3756.84355	0.13130
3754.91499	0.13375
3752.98643	0.13552
3751.05786	0.13807
3749.12930	0.14212
3747.20073	0.14471
3745.27217	0.14584
3743.34360	0.14857
3741.41504	0.15213
3739.48647	0.15412
3737.55791	0.15567
3735.62935	0.15855
3733.70078	0.16332
3731.77222	0.16768
3729.84365	0.17059
3727.91509	0.17355
3725.98652	0.17836
3724.05796	0.18507
3722.12939	0.19269
3720.20083	0.20147
3718.27227	0.21101
3716.34370	0.22033
3714.41514	0.22857
3712.48657	0.23684
3710.55801	0.24810
3708.62944	0.26114
3706.70088	0.27212
3704.77231	0.28245
3702.84375	0.29514
3700.91519	0.31248
3698.98662	0.33162
3697.05806	0.34966
3695.12949	0.36878
3693.20093	0.38845
3691.27236	0.40895
3689.34380	0.43658
3687.41523	0.47255
3685.48667	0.50432
3683.55811	0.53116
3681.62954	0.55942
3679.70098	0.59076
3677.77241	0.62329
3675.84385	0.66178
3673.91528	0.71489
3671.98672	0.75871
3670.05815	0.79711
3668.12959	0.85085
3666.20103	0.90055
3664.27246	0.94131
3662.34390	0.98449
3660.41533	1.03131
3658.48677	1.07732
3656.55820	1.12628
3654.62964	1.18176
3652.70107	1.22820
3650.77251	1.26724
3648.84395	1.32144
3646.91538	1.39038
3644.98682	1.44141
3643.05825	1.48017
3641.12969	1.51974
3639.20112	1.56283
3637.27256	1.60567
3635.34399	1.64727
3633.41543	1.68906
3631.48687	1.72874
3629.55830	1.76931
3627.62974	1.82241
3625.70117	1.87250
3623.77261	1.90659
3621.84404	1.93940
3619.91548	1.97763
3617.98691	2.02469
3616.05835	2.07113
3614.12979	2.11015
3612.20122	2.14925
3610.27266	2.18707
3608.34409	2.22537
3606.41553	2.26748
3604.48696	2.30738
3602.55840	2.34265
3600.62983	2.38028
3598.70127	2.42154
3596.77271	2.46152
3594.84414	2.50104
3592.91558	2.54247
3590.98701	2.58295
3589.05845	2.62052
3587.12988	2.66429
3585.20132	2.71301
3583.27275	2.75502
3581.34419	2.79369
3579.41562	2.83464
3577.48706	2.87726
3575.55850	2.91935
3573.62993	2.96264
3571.70137	3.00509
3569.77280	3.04489
3567.84424	3.08785
3565.91567	3.14207
3563.98711	3.19400
3562.05854	3.23590
3560.12998	3.27850
3558.20142	3.32308
3556.27285	3.36850
3554.34429	3.41483
3552.41572	3.46282
3550.48716	3.51089
3548.55859	3.55645
3546.63003	3.60077
3544.70146	3.64745
3542.77290	3.69514
3540.84434	3.74242
3538.91577	3.79069
3536.98721	3.83911
3535.05864	3.88971
3533.13008	3.94031
3531.20151	3.98826
3529.27295	4.03503
3527.34438	4.08090
3525.41582	4.12518
3523.48726	4.17088
3521.55869	4.22089
3519.63013	4.27134
3517.70156	4.31931
3515.77300	4.36377
3513.84443	4.40903
3511.91587	4.46155
3509.98730	4.51796
3508.05874	4.56746
3506.13018	4.60951
3504.20161	4.65420
3502.27305	4.70421
3500.34448	4.75465
3498.41592	4.80140
3496.48735	4.84825
3494.55879	4.90031
3492.63022	4.95210
3490.70166	5.00048
3488.77310	5.04877
3486.84453	5.09524
3484.91597	5.14461
3482.98740	5.20015
3481.05884	5.24836
3479.13027	5.28421
3477.20171	5.32178
3475.27314	5.37124
3473.34458	5.43315
3471.41602	5.49688
3469.48745	5.55181
3467.55889	5.59794
3465.63032	5.63842
3463.70176	5.68272
3461.77319	5.73337
3459.84463	5.78145
3457.91606	5.82531
3455.98750	5.87644
3454.05894	5.93964
3452.13037	6.00680
3450.20181	6.06873
3448.27324	6.11859
3446.34468	6.15466
3444.41611	6.18422
3442.48755	6.22205
3440.55898	6.26732
3438.63042	6.32641
3436.70186	6.39069
3434.77329	6.42967
3432.84473	6.46443
3430.91616	6.53605
3428.98760	6.62789
3427.05903	6.69105
3425.13047	6.73252
3423.20190	6.77494
3421.27334	6.82410
3419.34478	6.87585
3417.41621	6.91713
3415.48765	6.95545
3413.55908	7.00636
3411.63052	7.05755
3409.70195	7.08675
3407.77339	7.11570
3405.84482	7.14627
3403.91626	7.18743
3401.98770	7.24615
3400.05913	7.31068
3398.13057	7.38389
3396.20200	7.44288
3394.27344	7.46553
3392.34487	7.45634
3390.41631	7.46969
3388.48774	7.51185
3386.55918	7.56922
3384.63062	7.64193
3382.70205	7.70537
3380.77349	7.75955
3378.84492	7.80145
3376.91636	7.82998
3374.98779	7.84013
3373.05923	7.82940
3371.13066	7.81017
3369.20210	7.84445
3367.27354	7.93015
3365.34497	7.96984
3363.41641	7.94665
3361.48784	7.92505
3359.55928	7.91719
3357.63071	7.92536
3355.70215	7.99766
3353.77358	8.06411
3351.84502	8.07263
3349.91646	8.08898
3347.98789	8.13885
3346.05933	8.18979
3344.13076	8.23327
3342.20220	8.29860
3340.27363	8.32931
3338.34507	8.29771
3336.41650	8.24875
3334.48794	8.20192
3332.55937	8.15509
3330.63081	8.12222
3328.70225	8.09561
3326.77368	8.09387
3324.84512	8.13158
3322.91655	8.17784
3320.98799	8.23227
3319.05942	8.23777
3317.13086	8.20489
3315.20229	8.20627
3313.27373	8.23029
3311.34517	8.24304
3309.41660	8.23999
3307.48804	8.20029
3305.55947	8.16311
3303.63091	8.18624
3301.70234	8.19070
3299.77378	8.22244
3297.84521	8.36257
3295.91665	8.43501
3293.98809	8.31292
3292.05952	8.21057
3290.13096	8.25437
3288.20239	8.35584
3286.27383	8.45251
3284.34526	8.51934
3282.41670	8.50991
3280.48813	8.43828
3278.55957	8.39379
3276.63101	8.34715
3274.70244	8.31376
3272.77388	8.36892
3270.84531	8.39017
3268.91675	8.35557
3266.98818	8.36383
3265.05962	8.40302
3263.13105	8.47131
3261.20249	8.60534
3259.27393	8.70447
3257.34536	8.67956
3255.41680	8.64075
3253.48823	8.60224
3251.55967	8.54609
3249.63110	8.56209
3247.70254	8.64063
3245.77397	8.62540
3243.84541	8.49269
3241.91685	8.41478
3239.98828	8.41124
3238.05972	8.37311
3236.13115	8.34071
3234.20259	8.33684
3232.27402	8.31277
3230.34546	8.30931
3228.41689	8.29250
3226.48833	8.22651
3224.55977	8.20447
3222.63120	8.23089
3220.70264	8.21115
3218.77407	8.15173
3216.84551	8.13459
3214.91694	8.19472
3212.98838	8.25194
3211.05981	8.19741
3209.13125	8.09512
3207.20269	8.00017
3205.27412	7.87521
3203.34556	7.79974
3201.41699	7.85275
3199.48843	7.91449
3197.55986	7.87969
3195.63130	7.81516
3193.70273	7.76408
3191.77417	7.71572
3189.84561	7.65106
3187.91704	7.58688
3185.98848	7.54556
3184.05991	7.50975
3182.13135	7.45989
3180.20278	7.38302
3178.27422	7.31580
3176.34565	7.27526
3174.41709	7.21187
3172.48853	7.15269
3170.55996	7.13155
3168.63140	7.09776
3166.70283	7.02863
3164.77427	6.94882
3162.84570	6.86940
3160.91714	6.80307
3158.98857	6.74371
3157.06001	6.66668
3155.13145	6.59095
3153.20288	6.52479
3151.27432	6.45900
3149.34575	6.40235
3147.41719	6.34624
3145.48862	6.28096
3143.56006	6.20768
3141.63149	6.12349
3139.70293	6.03332
3137.77437	5.95450
3135.84580	5.88844
3133.91724	5.82318
3131.98867	5.75167
3130.06011	5.67090
3128.13154	5.58762
3126.20298	5.50932
3124.27441	5.43523
3122.34585	5.36446
3120.41729	5.29678
3118.48872	5.22631
3116.56016	5.15582
3114.63159	5.09086
3112.70303	5.02814
3110.77446	4.96395
3108.84590	4.89461
3106.91733	4.82439
3104.98877	4.75653
3103.06021	4.68818
3101.13164	4.62048
3099.20308	4.55263
3097.27451	4.48266
3095.34595	4.41286
3093.41738	4.34684
3091.48882	4.28529
3089.56025	4.22628
3087.63169	4.16579
3085.70312	4.09986
3083.77456	4.03258
3081.84600	3.97115
3079.91743	3.91356
3077.98887	3.85460
3076.06030	3.79468
3074.13174	3.73505
3072.20317	3.67674
3070.27461	3.62058
3068.34604	3.56448
3066.41748	3.50732
3064.48892	3.45005
3062.56035	3.39302
3060.63179	3.33707
3058.70322	3.28263
3056.77466	3.22924
3054.84609	3.17639
3052.91753	3.12403
3050.98896	3.07263
3049.06040	3.02117
3047.13184	2.97006
3045.20327	2.92134
3043.27471	2.87379
3041.34614	2.82556
3039.41758	2.77779
3037.48901	2.73136
3035.56045	2.68506
3033.63188	2.63837
3031.70332	2.59240
3029.77476	2.54822
3027.84619	2.50522
3025.91763	2.46181
3023.98906	2.41838
3022.06050	2.37622
3020.13193	2.33482
3018.20337	2.29392
3016.27480	2.25398
3014.34624	2.21461
3012.41768	2.17543
3010.48911	2.13698
3008.56055	2.09942
3006.63198	2.06234
3004.70342	2.02581
3002.77485	1.99033
3000.84629	1.95614
2998.91772	1.92286
2996.98916	1.89033
2995.06060	1.85853
2993.13203	1.82703
2991.20347	1.79594
2989.27490	1.76553
2987.34634	1.73565
2985.41777	1.70643
2983.48921	1.67795
2981.56064	1.65003
2979.63208	1.62267
2977.70352	1.59594
2975.77495	1.57000
2973.84639	1.54466
2971.91782	1.51947
2969.98926	1.49453
2968.06069	1.46976
2966.13213	1.44502
2964.20356	1.42031
2962.27500	1.39552
2960.34644	1.37095
2958.41787	1.34657
2956.48931	1.32210
2954.56074	1.29794
2952.63218	1.27443
2950.70361	1.25121
2948.77505	1.22820
2946.84648	1.20566
2944.91792	1.18372
2942.98936	1.16221
2941.06079	1.14066
2939.13223	1.11898
2937.20366	1.09756
2935.27510	1.07633
2933.34653	1.05474
2931.41797	1.03285
2929.48940	1.01139
2927.56084	0.99064
2925.63228	0.97066
2923.70371	0.95207
2921.77515	0.93510
2919.84658	0.91947
2917.91802	0.90481
2915.98945	0.89012
2914.06089	0.87519
2912.13232	0.86077
2910.20376	0.84659
2908.27520	0.83213
2906.34663	0.81767
2904.41807	0.80363
2902.48950	0.79025
2900.56094	0.77724
2898.63237	0.76417
2896.70381	0.75118
2894.77524	0.73862
2892.84668	0.72649
2890.91812	0.71470
2888.98955	0.70331
2887.06099	0.69259
2885.13242	0.68250
2883.20386	0.67245
2881.27529	0.66242
2879.34673	0.65289
2877.41816	0.64357
2875.48960	0.63380
2873.56104	0.62342
2871.63247	0.61249
2869.70391	0.60125
2867.77534	0.58994
2865.84678	0.57830
2863.91821	0.56605
2861.98965	0.55351
2860.06108	0.54145
2858.13252	0.53003
2856.20396	0.51880
2854.27539	0.50813
2852.34683	0.49897
2850.41826	0.49163
2848.48970	0.48538
2846.56113	0.47924
2844.63257	0.47315
2842.70400	0.46759
2840.77544	0.46231
2838.84687	0.45687
2836.91831	0.45142
2834.98975	0.44598
2833.06118	0.44017
2831.13262	0.43405
2829.20405	0.42813
2827.27549	0.42243
2825.34692	0.41660
2823.41836	0.41074
2821.48979	0.40500
2819.56123	0.39932
2817.63267	0.39367
2815.70410	0.38813
2813.77554	0.38275
2811.84697	0.37748
2809.91841	0.37212
2807.98984	0.36670
2806.06128	0.36148
2804.13271	0.35637
2802.20415	0.35119
2800.27559	0.34608
2798.34702	0.34121
2796.41846	0.33655
2794.48989	0.33196
2792.56133	0.32734
2790.63276	0.32272
2788.70420	0.31832
2786.77563	0.31413
2784.84707	0.30988
2782.91851	0.30557
2780.98994	0.30143
2779.06138	0.29743
2777.13281	0.29354
2775.20425	0.28983
2773.27568	0.28615
2771.34712	0.28231
2769.41855	0.27851
2767.48999	0.27491
2765.56143	0.27130
2763.63286	0.26779
2761.70430	0.26462
2759.77573	0.26152
2757.84717	0.25838
2755.91860	0.25529
2753.99004	0.25224
2752.06147	0.24916
2750.13291	0.24600
2748.20435	0.24288
2746.27578	0.23999
2744.34722	0.23720
2742.41865	0.23434
2740.49009	0.23163
2738.56152	0.22920
2736.63296	0.22678
2734.70439	0.22427
2732.77583	0.22185
2730.84727	0.21960
2728.91870	0.21735
2726.99014	0.21502
2725.06157	0.21266
2723.13301	0.21039
2721.20444	0.20831
2719.27588	0.20635
2717.34731	0.20440
2715.41875	0.20240
2713.49019	0.20042
2711.56162	0.19861
2709.63306	0.19689
2707.70449	0.19511
2705.77593	0.19338
2703.84736	0.19182
2701.91880	0.19038
2699.99023	0.18902
2698.06167	0.18756
2696.13311	0.18600
2694.20454	0.18466
2692.27598	0.18357
2690.34741	0.18236
2688.41885	0.18092
2686.49028	0.17953
2684.56172	0.17828
2682.63315	0.17704
2680.70459	0.17585
2678.77603	0.17485
2676.84746	0.17393
2674.91890	0.17287
2672.99033	0.17173
2671.06177	0.17067
2669.13320	0.16962
2667.20464	0.16867
2665.27607	0.16790
2663.34751	0.16715
2661.41895	0.16631
2659.49038	0.16540
2657.56182	0.16447
2655.63325	0.16365
2653.70469	0.16294
2651.77612	0.16227
2649.84756	0.16165
2647.91899	0.16116
2645.99043	0.16064
2644.06187	0.15998
2642.13330	0.15933
2640.20474	0.15865
2638.27617	0.15792
2636.34761	0.15733
2634.41904	0.15696
2632.49048	0.15665
2630.56191	0.15625
2628.63335	0.15583
2626.70479	0.15557
2624.77622	0.15535
2622.84766	0.15506
2620.91909	0.15477
2618.99053	0.15445
2617.06196	0.15415
2615.13340	0.15404
2613.20483	0.15398
2611.27627	0.15377
2609.34771	0.15350
2607.41914	0.15331
2605.49058	0.15316
2603.56201	0.15303
2601.63345	0.15301
2599.70488	0.15303
2597.77632	0.15305
2595.84775	0.15316
2593.91919	0.15327
2591.99062	0.15325
2590.06206	0.15323
2588.13350	0.15344
2586.20493	0.15382
2584.27637	0.15413
2582.34780	0.15426
2580.41924	0.15431
2578.49067	0.15446
2576.56211	0.15477
2574.63354	0.15513
2572.70498	0.15547
2570.77642	0.15574
2568.84785	0.15594
2566.91929	0.15618
2564.99072	0.15654
2563.06216	0.15695
2561.13359	0.15735
2559.20503	0.15785
2557.27646	0.15840
2555.34790	0.15896
2553.41934	0.15947
2551.49077	0.15990
2549.56221	0.16031
2547.63364	0.16077
2545.70508	0.16136
2543.77651	0.16202
2541.84795	0.16270
2539.91938	0.16336
2537.99082	0.16391
2536.06226	0.16438
2534.13369	0.16486
2532.20513	0.16542
2530.27656	0.16606
2528.34800	0.16681
2526.41943	0.16767
2524.49087	0.16849
2522.56230	0.16923
2520.63374	0.16992
2518.70518	0.17059
2516.77661	0.17129
2514.84805	0.17204
2512.91948	0.17278
2510.99092	0.17348
2509.06235	0.17421
2507.13379	0.17498
2505.20522	0.17570
2503.27666	0.17649
2501.34810	0.17741
2499.41953	0.17827
2497.49097	0.17897
2495.56240	0.17970
2493.63384	0.18054
2491.70527	0.18147
2489.77671	0.18236
2487.84814	0.18306
2485.91958	0.18381
2483.99102	0.18480
2482.06245	0.18586
2480.13389	0.18684
2478.20532	0.18764
2476.27676	0.18834
2474.34819	0.18915
2472.41963	0.19003
2470.49106	0.19090
2468.56250	0.19180
2466.63394	0.19268
2464.70537	0.19351
2462.77681	0.19447
2460.84824	0.19555
2458.91968	0.19656
2456.99111	0.19743
2455.06255	0.19831
2453.13398	0.19924
2451.20542	0.20010
2449.27686	0.20093
2447.34829	0.20191
2445.41973	0.20301
2443.49116	0.20399
2441.56260	0.20486
2439.63403	0.20579
2437.70547	0.20678
2435.77690	0.20781
2433.84834	0.20894
2431.91978	0.21005
2429.99121	0.21109
2428.06265	0.21215
2426.13408	0.21325
2424.20552	0.21434
2422.27695	0.21533
2420.34839	0.21621
2418.41982	0.21719
2416.49126	0.21840
2414.56270	0.21973
2412.63413	0.22100
2410.70557	0.22213
2408.77700	0.22323
2406.84844	0.22437
2404.91987	0.22548
2402.99131	0.22658
2401.06274	0.22777
2399.13418	0.22895
2397.20562	0.23005
2395.27705	0.23121
2393.34849	0.23252
2391.41992	0.23387
2389.49136	0.23490
2387.56279	0.23548
2385.63423	0.23541
2383.70566	0.23425
2381.77710	0.23179
2379.84854	0.22818
2377.91997	0.22349
2375.99141	0.21755
2374.06284	0.21048
2372.13428	0.20248
2370.20571	0.19349
2368.27715	0.18410
2366.34858	0.17553
2364.42002	0.16801
2362.49146	0.16236
2360.56289	0.16042
2358.63433	0.16274
2356.70576	0.16945
2354.77720	0.18036
2352.84863	0.19460
2350.92007	0.20902
2348.99150	0.21757
2347.06294	0.21807
2345.13437	0.21204
2343.20581	0.20435
2341.27725	0.20143
2339.34868	0.20349
2337.42012	0.20695
2335.49155	0.21031
2333.56299	0.21387
2331.63442	0.21788
2329.70586	0.22232
2327.77729	0.22680
2325.84873	0.23144
2323.92017	0.23698
2321.99160	0.24348
2320.06304	0.25012
2318.13447	0.25649
2316.20591	0.26235
2314.27734	0.26719
2312.34878	0.27115
2310.42021	0.27510
2308.49165	0.27945
2306.56309	0.28404
2304.63452	0.28844
2302.70596	0.29213
2300.77739	0.29533
2298.84883	0.29853
2296.92026	0.30164
2294.99170	0.30462
2293.06313	0.30758
2291.13457	0.31046
2289.20601	0.31335
2287.27744	0.31635
2285.34888	0.31933
2283.42031	0.32198
2281.49175	0.32401
2279.56318	0.32569
2277.63462	0.32745
2275.70605	0.32937
2273.77749	0.33134
2271.84893	0.33328
2269.92036	0.33520
2267.99180	0.33729
2266.06323	0.33952
2264.13467	0.34187
2262.20610	0.34437
2260.27754	0.34678
2258.34897	0.34896
2256.42041	0.35113
2254.49185	0.35348
2252.56328	0.35593
2250.63472	0.35832
2248.70615	0.36055
2246.77759	0.36274
2244.84902	0.36508
2242.92046	0.36754
2240.99189	0.36992
2239.06333	0.37223
2237.13477	0.37454
2235.20620	0.37679
2233.27764	0.37891
2231.34907	0.38104
2229.42051	0.38327
2227.49194	0.38557
2225.56338	0.38784
2223.63481	0.38999
2221.70625	0.39209
2219.77769	0.39428
2217.84912	0.39652
2215.92056	0.39879
2213.99199	0.40103
2212.06343	0.40318
2210.13486	0.40524
2208.20630	0.40729
2206.27773	0.40946
2204.34917	0.41168
2202.42061	0.41372
2200.49204	0.41563
2198.56348	0.41763
2196.63491	0.41966
2194.70635	0.42157
2192.77778	0.42340
2190.84922	0.42525
2188.92065	0.42711
2186.99209	0.42900
2185.06353	0.43085
2183.13496	0.43260
2181.20640	0.43425
2179.27783	0.43587
2177.34927	0.43746
2175.42070	0.43902
2173.49214	0.44061
2171.56357	0.44216
2169.63501	0.44356
2167.70645	0.44479
2165.77788	0.44592
2163.84932	0.44703
2161.92075	0.44811
2159.99219	0.44921
2158.06362	0.45027
2156.13506	0.45120
2154.20649	0.45203
2152.27793	0.45286
2150.34937	0.45368
2148.42080	0.45438
2146.49224	0.45486
2144.56367	0.45522
2142.63511	0.45574
2140.70654	0.45631
2138.77798	0.45662
2136.84941	0.45669
2134.92085	0.45669
2132.99229	0.45668
2131.06372	0.45672
2129.13516	0.45675
2127.20659	0.45655
2125.27803	0.45610
2123.34946	0.45558
2121.42090	0.45506
2119.49233	0.45444
2117.56377	0.45379
2115.63521	0.45314
2113.70664	0.45240
2111.77808	0.45156
2109.84951	0.45061
2107.92095	0.44956
2105.99238	0.44844
2104.06382	0.44724
2102.13525	0.44591
2100.20669	0.44448
2098.27812	0.44296
2096.34956	0.44146
2094.42100	0.44000
2092.49243	0.43847
2090.56387	0.43684
2088.63530	0.43519
2086.70674	0.43350
2084.77817	0.43171
2082.84961	0.42981
2080.92104	0.42771
2078.99248	0.42553
2077.06392	0.42347
2075.13535	0.42143
2073.20679	0.41921
2071.27822	0.41689
2069.34966	0.41466
2067.42109	0.41249
2065.49253	0.41018
2063.56396	0.40764
2061.63540	0.40510
2059.70684	0.40267
2057.77827	0.40021
2055.84971	0.39767
2053.92114	0.39511
2051.99258	0.39252
2050.06401	0.38986
2048.13545	0.38720
2046.20688	0.38451
2044.27832	0.38184
2042.34976	0.37918
2040.42119	0.37652
2038.49263	0.37383
2036.56406	0.37113
2034.63550	0.36840
2032.70693	0.36557
2030.77837	0.36275
2028.84980	0.35996
2026.92124	0.35712
2024.99268	0.35428
2023.06411	0.35154
2021.13555	0.34887
2019.20698	0.34620
2017.27842	0.34357
2015.34985	0.34096
2013.42129	0.33825
2011.49272	0.33545
2009.56416	0.33268
2007.63560	0.32990
2005.70703	0.32709
2003.77847	0.32431
2001.84990	0.32167
1999.92134	0.31910
1997.99277	0.31650
1996.06421	0.31398
1994.13564	0.31150
1992.20708	0.30894
1990.27852	0.30631
1988.34995	0.30379
1986.42139	0.30130
1984.49282	0.29885
1982.56426	0.29654
1980.63569	0.29434
1978.70713	0.29213
1976.77856	0.28987
1974.85000	0.28760
1972.92144	0.28535
1970.99287	0.28325
1969.06431	0.28134
1967.13574	0.27944
1965.20718	0.27738
1963.27861	0.27531
1961.35005	0.27330
1959.42148	0.27138
1957.49292	0.26956
1955.56436	0.26780
1953.63579	0.26609
1951.70723	0.26439
1949.77866	0.26275
1947.85010	0.26120
1945.92153	0.25977
1943.99297	0.25843
1942.06440	0.25699
1940.13584	0.25537
1938.20728	0.25379
1936.27871	0.25235
1934.35015	0.25096
1932.42158	0.24971
1930.49302	0.24862
1928.56445	0.24756
1926.63589	0.24650
1924.70732	0.24552
1922.77876	0.24459
1920.85020	0.24361
1918.92163	0.24266
1916.99307	0.24181
1915.06450	0.24093
1913.13594	0.24002
1911.20737	0.23924
1909.27881	0.23852
1907.35024	0.23788
1905.42168	0.23725
1903.49312	0.23661
1901.56455	0.23600
1899.63599	0.23550
1897.70742	0.23510
1895.77886	0.23476
1893.85029	0.23446
1891.92173	0.23413
1889.99316	0.23388
1888.06460	0.23359
1886.13604	0.23325
1884.20747	0.23300
1882.27891	0.23281
1880.35034	0.23268
1878.42178	0.23264
1876.49321	0.23270
1874.56465	0.23272
1872.63608	0.23276
1870.70752	0.23286
1868.77896	0.23319
1866.85039	0.23352
1864.92183	0.23356
1862.99326	0.23362
1861.06470	0.23385
1859.13613	0.23417
1857.20757	0.23450
1855.27900	0.23496
1853.35044	0.23545
1851.42187	0.23595
1849.49331	0.23647
1847.56475	0.23713
1845.63618	0.23799
1843.70762	0.23904
1841.77905	0.23988
1839.85049	0.24031
1837.92192	0.24098
1835.99336	0.24194
1834.06479	0.24292
1832.13623	0.24380
1830.20767	0.24504
1828.27910	0.24661
1826.35054	0.24785
1824.42197	0.24912
1822.49341	0.25040
1820.56484	0.25168
1818.63628	0.25304
1816.70771	0.25460
1814.77915	0.25618
1812.85059	0.25788
1810.92202	0.25989
1808.99346	0.26202
1807.06489	0.26401
1805.13633	0.26587
1803.20776	0.26795
1801.27920	0.27037
1799.35063	0.27325
1797.42207	0.27590
1795.49351	0.27822
1793.56494	0.28081
1791.63638	0.28439
1789.70781	0.28799
1787.77925	0.29064
1785.85068	0.29367
1783.92212	0.29732
1781.99355	0.30121
1780.06499	0.30532
1778.13643	0.30958
1776.20786	0.31356
1774.27930	0.31776
1772.35073	0.32345
1770.42217	0.32974
1768.49360	0.33507
1766.56504	0.34019
1764.63647	0.34537
1762.70791	0.35094
1760.77935	0.35808
1758.85078	0.36477
1756.92222	0.37139
1754.99365	0.37869
1753.06509	0.38519
1751.13652	0.39275
1749.20796	0.40251
1747.27939	0.41257
1745.35083	0.42172
1743.42227	0.43160
1741.49370	0.44240
1739.56514	0.45496
1737.63657	0.46765
1735.70801	0.47877
1733.77944	0.49537
1731.85088	0.51539
1729.92231	0.53130
1727.99375	0.54734
1726.06519	0.56437
1724.13662	0.58285
1722.20806	0.60289
1720.27949	0.62121
1718.35093	0.64225
1716.42236	0.67391
1714.49380	0.70501
1712.56523	0.73050
1710.63667	0.75497
1708.70811	0.78097
1706.77954	0.81021
1704.85098	0.84522
1702.92241	0.87664
1700.99385	0.90768
1699.06528	0.95438
1697.13672	0.99819
1695.20815	1.04388
1693.27959	1.08836
1691.35103	1.12403
1689.42246	1.16548
1687.49390	1.20955
1685.56533	1.25156
1683.63677	1.31694
1681.70820	1.38637
1679.77964	1.43048
1677.85107	1.47194
1675.92251	1.52004
1673.99395	1.58052
1672.06538	1.63499
1670.13682	1.68837
1668.20825	1.75806
1666.27969	1.81563
1664.35112	1.86506
1662.42256	1.92757
1660.49399	1.99930
1658.56543	2.05647
1656.63687	2.10293
1654.70830	2.14435
1652.77974	2.20424
1650.85117	2.25853
1648.92261	2.27787
1646.99404	2.30396
1645.06548	2.32977
1643.13691	2.34418
1641.20835	2.35184
1639.27979	2.35896
1637.35122	2.36167
1635.42266	2.35819
1633.49409	2.34883
1631.56553	2.33378
1629.63696	2.31512
1627.70840	2.28445
1625.77983	2.24852
1623.85127	2.20332
1621.92271	2.14807
1619.99414	2.09949
1618.06558	2.05260
1616.13701	1.98556
1614.20845	1.91742
1612.27988	1.86624
1610.35132	1.81365
1608.42275	1.75659
1606.49419	1.69999
1604.56562	1.64791
1602.63706	1.59802
1600.70850	1.54985
1598.77993	1.50539
1596.85137	1.46318
1594.92280	1.42243
1592.99424	1.38370
1591.06567	1.34864
1589.13711	1.31627
1587.20854	1.28653
1585.27998	1.25911
1583.35142	1.23352
1581.42285	1.21052
1579.49429	1.19150
1577.56572	1.17497
1575.63716	1.15530
1573.70859	1.13843
1571.78003	1.12807
1569.85146	1.11835
1567.92290	1.10838
1565.99434	1.10172
1564.06577	1.09777
1562.13721	1.09515
1560.20864	1.09438
1558.28008	1.09900
1556.35151	1.10565
1554.42295	1.10918
1552.49438	1.11212
1550.56582	1.11332
1548.63726	1.11168
1546.70869	1.10679
1544.78013	1.09824
1542.85156	1.08612
1540.92300	1.06751
1538.99443	1.03784
1537.06587	1.01572
1535.13730	1.00013
1533.20874	0.97939
1531.28018	0.95758
1529.35161	0.94172
1527.42305	0.92659
1525.49448	0.91078
1523.56592	0.89715
1521.63735	0.88414
1519.70879	0.87154
1517.78022	0.86142
1515.85166	0.84953
1513.92310	0.83667
1511.99453	0.82535
1510.06597	0.81512
1508.13740	0.80489
1506.20884	0.78861
1504.28027	0.77485
1502.35171	0.76739
1500.42314	0.76073
1498.49458	0.75348
1496.56602	0.74515
1494.63745	0.73712
1492.70889	0.73094
1490.78032	0.72523
1488.85176	0.71848
1486.92319	0.71241
1484.99463	0.70798
1483.06606	0.70462
1481.13750	0.70180
1479.20894	0.69955
1477.28037	0.69817
1475.35181	0.69739
1473.42324	0.69694
1471.49468	0.69612
1469.56611	0.69438
1467.63755	0.69218
1465.70898	0.69009
1463.78042	0.68856
1461.85186	0.68791
1459.92329	0.68793
1457.99473	0.68828
1456.06616	0.68798
1454.13760	0.68607
1452.20903	0.68383
1450.28047	0.68158
1448.35190	0.67928
1446.42334	0.67679
1444.49478	0.67420
1442.56621	0.67152
1440.63765	0.66880
1438.70908	0.66603
1436.78052	0.66239
1434.85195	0.65816
1432.92339	0.65500
1430.99482	0.65300
1429.06626	0.65197
1427.13770	0.65181
1425.20913	0.65231
1423.28057	0.65324
1421.35200	0.65384
1419.42344	0.65404
1417.49487	0.65390
1415.56631	0.65323
1413.63774	0.65279
1411.70918	0.65312
1409.78062	0.65428
1407.85205	0.65600
1405.92349	0.65806
1403.99492	0.65987
1402.06636	0.66050
1400.13779	0.66008
1398.20923	0.65894
1396.28066	0.65683
1394.35210	0.65324
1392.42354	0.64865
1390.49497	0.64409
1388.56641	0.63938
1386.63784	0.63390
1384.70928	0.62828
1382.78071	0.62318
1380.85215	0.61835
1378.92358	0.61393
1376.99502	0.61045
1375.06646	0.60803
1373.13789	0.60637
1371.20933	0.60531
1369.28076	0.60459
1367.35220	0.60349
1365.42363	0.60187
1363.49507	0.60016
1361.56650	0.59856
1359.63794	0.59711
1357.70937	0.59587
1355.78081	0.59468
1353.85225	0.59351
1351.92368	0.59258
1349.99512	0.59192
1348.06655	0.59121
1346.13799	0.59046
1344.20942	0.58982
1342.28086	0.58924
1340.35229	0.58872
1338.42373	0.58826
1336.49517	0.58787
1334.56660	0.58766
1332.63804	0.58763
1330.70947	0.58788
1328.78091	0.58846
1326.85234	0.58918
1324.92378	0.58992
1322.99521	0.59071
1321.06665	0.59149
1319.13809	0.59211
1317.20952	0.59236
1315.28096	0.59237
1313.35239	0.59237
1311.42383	0.59218
1309.49526	0.59164
1307.56670	0.59106
1305.63813	0.59068
1303.70957	0.59038
1301.78101	0.58985
1299.85244	0.58895
1297.92388	0.58781
1295.99531	0.58654
1294.06675	0.58519
1292.13818	0.58379
1290.20962	0.58242
1288.28105	0.58118
1286.35249	0.58000
1284.42393	0.57890
1282.49536	0.57776
1280.56680	0.57639
1278.63823	0.57487
1276.70967	0.57346
1274.78110	0.57229
1272.85254	0.57141
1270.92397	0.57064
1268.99541	0.56973
1267.06685	0.56876
1265.13828	0.56785
1263.20972	0.56698
1261.28115	0.56608
1259.35259	0.56528
1257.42402	0.56472
1255.49546	0.56428
1253.56689	0.56404
1251.63833	0.56420
1249.70977	0.56452
1247.78120	0.56459
1245.85264	0.56435
1243.92407	0.56387
1241.99551	0.56306
1240.06694	0.56171
1238.13838	0.55984
1236.20981	0.55767
1234.28125	0.55531
1232.35269	0.55284
1230.42412	0.55054
1228.49556	0.54856
1226.56699	0.54669
1224.63843	0.54482
1222.70986	0.54306
1220.78130	0.54148
1218.85273	0.54012
1216.92417	0.53889
1214.99561	0.53777
1213.06704	0.53678
1211.13848	0.53596
1209.20991	0.53529
1207.28135	0.53460
1205.35278	0.53372
1203.42422	0.53274
1201.49565	0.53176
1199.56709	0.53087
1197.63853	0.53015
1195.70996	0.52949
1193.78140	0.52885
1191.85283	0.52840
1189.92427	0.52814
1187.99570	0.52790
1186.06714	0.52775
1184.13857	0.52783
1182.21001	0.52824
1180.28145	0.52912
1178.35288	0.53037
1176.42432	0.53177
1174.49575	0.53310
1172.56719	0.53389
1170.63862	0.53399
1168.71006	0.53384
1166.78149	0.53369
1164.85293	0.53334
1162.92437	0.53270
1160.99580	0.53188
1159.06724	0.53120
1157.13867	0.53059
1155.21011	0.52962
1153.28154	0.52820
1151.35298	0.52647
1149.42441	0.52438
1147.49585	0.52189
1145.56729	0.51923
1143.63872	0.51679
1141.71016	0.51473
1139.78159	0.51296
1137.85303	0.51151
1135.92446	0.51041
1133.99590	0.50941
1132.06733	0.50852
1130.13877	0.50797
1128.21021	0.50742
1126.28164	0.50639
1124.35308	0.50517
1122.42451	0.50428
1120.49595	0.50387
1118.56738	0.50377
1116.63882	0.50387
1114.71025	0.50409
1112.78169	0.50427
1110.85312	0.50460
1108.92456	0.50543
1106.99600	0.50672
1105.06743	0.50826
1103.13887	0.50977
1101.21030	0.51108
1099.28174	0.51249
1097.35317	0.51470
1095.42461	0.51791
1093.49604	0.52165
1091.56748	0.52573
1089.63892	0.53061
1087.71035	0.53654
1085.78179	0.54300
1083.85322	0.54953
1081.92466	0.55589
1079.99609	0.56131
1078.06753	0.56478
1076.13896	0.56567
1074.21040	0.56364
1072.28184	0.55901
1070.35327	0.55274
1068.42471	0.54587
1066.49614	0.53905
1064.56758	0.53250
1062.63901	0.52648
1060.71045	0.52116
1058.78188	0.51644
1056.85332	0.51240
1054.92476	0.50900
1052.99619	0.50581
1051.06763	0.50282
1049.13906	0.50032
1047.21050	0.49817
1045.28193	0.49621
1043.35337	0.49452
1041.42480	0.49305
1039.49624	0.49192
1037.56768	0.49131
1035.63911	0.49095
1033.71055	0.49054
1031.78198	0.49009
1029.85342	0.48964
1027.92485	0.48918
1025.99629	0.48877
1024.06772	0.48855
1022.13916	0.48851
1020.21060	0.48871
1018.28203	0.48928
1016.35347	0.49007
1014.42490	0.49085
1012.49634	0.49157
1010.56777	0.49248
1008.63921	0.49367
1006.71064	0.49506
1004.78208	0.49684
1002.85352	0.49911
1000.92495	0.50184
998.99639	0.50508
997.06782	0.50881
995.13926	0.51291
993.21069	0.51707
991.28213	0.52069
989.35356	0.52336
987.42500	0.52500
985.49644	0.52577
983.56787	0.52621
981.63931	0.52684
979.71074	0.52772
977.78218	0.52906
975.85361	0.53124
973.92505	0.53413
971.99648	0.53731
970.06792	0.54064
968.13936	0.54420
966.21079	0.54821
964.28223	0.55278
962.35366	0.55774
960.42510	0.56277
958.49653	0.56791
956.56797	0.57336
954.63940	0.57915
952.71084	0.58524
950.78228	0.59150
948.85371	0.59799
946.92515	0.60471
944.99658	0.61102
943.06802	0.61674
941.13945	0.62256
939.21089	0.62857
937.28232	0.63459
935.35376	0.64078
933.42520	0.64696
931.49663	0.65304
929.56807	0.65904
927.63950	0.66462
925.71094	0.66989
923.78237	0.67591
921.85381	0.68285
919.92524	0.68964
917.99668	0.69642
916.06812	0.70370
914.13955	0.71084
912.21099	0.71824
910.28242	0.72667
908.35386	0.73561
906.42529	0.74419
904.49673	0.75248
902.56816	0.76121
900.63960	0.77041
898.71104	0.78031
896.78247	0.79105
894.85391	0.80136
892.92534	0.81081
890.99678	0.82048
889.06821	0.83154
887.13965	0.84398
885.21108	0.85636
883.28252	0.86793
881.35396	0.87913
879.42539	0.89049
877.49683	0.90251
875.56826	0.91480
873.63970	0.92693
871.71113	0.93957
869.78257	0.95094
867.85400	0.95997
865.92544	0.96998
863.99687	0.98226
862.06831	0.99470
860.13975	1.00594
858.21118	1.01735
856.28262	1.03028
854.35405	1.04364
852.42549	1.05537
850.49692	1.06495
848.56836	1.07481
846.63979	1.08796
844.71123	1.10313
842.78267	1.11501
840.85410	1.12386
838.92554	1.13562
836.99697	1.14920
835.06841	1.15952
833.13984	1.16873
831.21128	1.17845
829.28271	1.18853
827.35415	1.20092
825.42559	1.21302
823.49702	1.22706
821.56846	1.24486
819.63989	1.25697
817.71133	1.26322
815.78276	1.27399
813.85420	1.29086
811.92563	1.31053
809.99707	1.32382
808.06851	1.32774
806.13994	1.34724
804.21138	1.38444
802.28281	1.40535
800.35425	1.40693
798.42568	1.41018
796.49712	1.40989
794.56855	1.40649
792.63999	1.43749
790.71143	1.52271
788.78286	1.59510
786.85430	1.56598
784.92573	1.50608
782.99717	1.47547
781.06860	1.49536
779.14004	1.58593
777.21147	1.71483
775.28291	1.79984
773.35435	1.71842
771.42578	1.55541
769.49722	1.45887
767.56865	1.42425
765.64009	1.43360
763.71152	1.53576
761.78296	1.64015
759.85439	1.57204
757.92583	1.47035
755.99727	1.42655
754.06870	1.49937
752.14014	1.62471
750.21157	1.52315
748.28301	1.33046
746.35444	1.24091
744.42588	1.25171
742.49731	1.26647
740.56875	1.11150
738.64019	0.90966
736.71162	0.81034
734.78306	0.81377
732.85449	0.83787
730.92593	0.78585
728.99736	0.68864
727.06880	0.50223
725.14023	0.16577
723.21167	-0.05749
721.28311	-0.07056
719.35454	-0.00062
717.42598	0.04182
715.49741	0.05645
713.56885	0.17482
711.64028	0.37403
709.71172	0.45326
707.78315	0.40082
705.85459	0.35385
703.92603	0.33750
701.99746	0.34077
700.06890	0.36030
698.14033	0.37258
696.21177	0.37219
694.28320	0.41120
692.35464	0.54486
690.42607	0.71352
688.49751	0.59071
686.56895	0.38356
684.64038	0.30298
682.71182	0.34649
680.78325	0.43735
678.85469	0.48103
676.92612	0.48347
674.99756	0.51959
673.06899	0.65022
671.14043	0.65240
669.21187	0.44677
667.28330	0.30626
665.35474	0.28342
663.42617	0.32109
661.49761	0.29147
659.56904	0.22092
657.64048	0.22582
655.71191	0.36921
653.78335	0.64644
651.85479	0.79028
649.92622	0.62855
647.99766	0.49902
646.06909	0.49261
644.14053	0.54709
642.21196	0.56545
640.28340	0.46195
638.35483	0.34910
636.42627	0.35413
634.49771	0.49513
632.56914	0.62074
630.64058	0.56378
628.71201	0.52736
626.78345	0.60956
624.85488	0.72995
622.92632	0.58485
620.99775	0.39163
619.06919	0.33477
617.14062	0.40479
615.21206	0.47573
613.28350	0.42781
611.35493	0.35167
609.42637	0.33033
607.49780	0.35430
605.56924	0.36408
603.64067	0.35092
601.71211	0.34719
599.78354	0.34234
597.85498	0.37248
595.92642	0.50603
593.99785	0.57536
592.06929	0.42727
590.14072	0.38322
588.21216	0.40159
586.28359	0.38097
584.35503	0.36247
582.42646	0.36761
580.49790	0.37894
578.56934	0.37077
576.64077	0.36442
574.71221	0.38382
572.78364	0.38791
570.85508	0.38200
568.92651	0.41515
566.99795	0.46129
565.06938	0.44378
563.14082	0.37710
561.21226	0.31649
559.28369	0.27466
557.35513	0.28541
555.42656	0.33309
553.49800	0.32596
551.56943	0.26307
549.64087	0.24560
547.71230	0.30080
545.78374	0.36903
543.85518	0.39177
541.92661	0.39189
539.99805	0.39404
538.06948	0.37072
536.14092	0.34546
534.21235	0.33122
532.28379	0.30072
530.35522	0.29068
528.42666	0.32061
526.49810	0.36481
524.56953	0.39364
522.64097	0.41361
520.71240	0.41048
518.78384	0.33139
516.85527	0.26040
514.92671	0.27163
512.99814	0.32147
511.06958	0.31784
509.14102	0.30192
507.21245	0.31487
505.28389	0.32802
503.35532	0.32455
501.42676	0.28269
499.49819	0.21452
