3997.91411	0.07668
3995.98555	0.07771
3994.05698	0.07815
3992.12842	0.07806
3990.19985	0.07856
3988.27129	0.07946
3986.34272	0.07984
3984.41416	0.08007
3982.48560	0.08049
3980.55703	0.08074
3978.62847	0.08085
3976.69990	0.08127
3974.77134	0.08199
3972.84277	0.08235
3970.91421	0.08241
3968.98564	0.08256
3967.05708	0.08252
3965.12852	0.08230
3963.19995	0.08258
3961.27139	0.08317
3959.34282	0.08329
3957.41426	0.08316
3955.48569	0.08341
3953.55713	0.08411
3951.62856	0.08587
3949.70000	0.08858
3947.77144	0.08986
3945.84287	0.08879
3943.91431	0.08858
3941.98574	0.08938
3940.05718	0.08791
3938.12861	0.08555
3936.20005	0.08504
3934.27148	0.08685
3932.34292	0.09043
3930.41436	0.09241
3928.48579	0.09049
3926.55723	0.08899
3924.62866	0.09097
3922.70010	0.09242
3920.77153	0.09127
3918.84297	0.09121
3916.91440	0.09202
3914.98584	0.08974
3913.05728	0.08521
3911.12871	0.08220
3909.20015	0.08209
3907.27158	0.08580
3905.34302	0.09422
3903.41445	0.10404
3901.48589	0.10847
3899.55732	0.10614
3897.62876	0.09931
3895.70020	0.09205
3893.77163	0.09019
3891.84307	0.09427
3889.91450	0.09641
3887.98594	0.09406
3886.05737	0.09521
3884.12881	0.09929
3882.20024	0.10077
3880.27168	0.10087
3878.34312	0.09747
3876.41455	0.09318
3874.48599	0.09534
3872.55742	0.10211
3870.62886	0.10829
3868.70029	0.11017
3866.77173	0.10707
3864.84316	0.10680
3862.91460	0.10834
3860.98604	0.10382
3859.05747	0.09847
3857.12891	0.09982
3855.20034	0.10895
3853.27178	0.12356
3851.34321	0.12549
3849.41465	0.11085
3847.48608	0.09976
3845.55752	0.09696
3843.62896	0.10109
3841.70039	0.10932
3839.77183	0.11916
3837.84326	0.12657
3835.91470	0.12487
3833.98613	0.11755
3832.05757	0.11163
3830.12900	0.10773
3828.20044	0.10626
3826.27187	0.10778
3824.34331	0.11076
3822.41475	0.11685
3820.48618	0.12639
3818.55762	0.12885
3816.62905	0.12522
3814.70049	0.12000
3812.77192	0.11173
3810.84336	0.10631
3808.91479	0.10767
3806.98623	0.11475
3805.05767	0.12194
3803.12910	0.12790
3801.20054	0.13542
3799.27197	0.13647
3797.34341	0.13087
3795.41484	0.12527
3793.48628	0.11896
3791.55771	0.11463
3789.62915	0.11439
3787.70059	0.11707
3785.77202	0.12158
3783.84346	0.12532
3781.91489	0.12716
3779.98633	0.13036
3778.05776	0.13279
3776.12920	0.13015
3774.20063	0.12769
3772.27207	0.13030
3770.34351	0.13757
3768.41494	0.14412
3766.48638	0.14601
3764.55781	0.14622
3762.62925	0.14659
3760.70068	0.15016
3758.77212	0.15768
3756.84355	0.16272
3754.91499	0.16508
3752.98643	0.17308
3751.05786	0.18927
3749.12930	0.20054
3747.20073	0.19886
3745.27217	0.19824
3743.34360	0.20091
3741.41504	0.20026
3739.48647	0.20140
3737.55791	0.21073
3735.62935	0.22847
3733.70078	0.24248
3731.77222	0.24061
3729.84365	0.23384
3727.91509	0.23367
3725.98652	0.24084
3724.05796	0.24902
3722.12939	0.25311
3720.20083	0.25361
3718.27227	0.25259
3716.34370	0.25335
3714.41514	0.25994
3712.48657	0.27701
3710.55801	0.30171
3708.62944	0.31621
3706.70088	0.31954
3704.77231	0.32527
3702.84375	0.33838
3700.91519	0.35653
3698.98662	0.37240
3697.05806	0.38614
3695.12949	0.40340
3693.20093	0.42530
3691.27236	0.45331
3689.34380	0.48805
3687.41523	0.51866
3685.48667	0.53747
3683.55811	0.55570
3681.62954	0.58188
3679.70098	0.61681
3677.77241	0.65734
3675.84385	0.70597
3673.91528	0.76071
3671.98672	0.79844
3670.05815	0.83514
3668.12959	0.88314
3666.20103	0.92005
3664.27246	0.95220
3662.34390	0.99240
3660.41533	1.03898
3658.48677	1.08734
3656.55820	1.14097
3654.62964	1.19853
3652.70107	1.24688
3650.77251	1.29685
3648.84395	1.36725
3646.91538	1.43358
3644.98682	1.46793
3643.05825	1.49610
3641.12969	1.53270
3639.20112	1.57658
3637.27256	1.62156
3635.34399	1.66705
3633.41543	1.71480
3631.48687	1.76130
3629.55830	1.81053
3627.62974	1.86918
3625.70117	1.91257
3623.77261	1.93875
3621.84404	1.97018
3619.91548	2.01255
3617.98691	2.06156
3616.05835	2.10253
3614.12979	2.13605
3612.20122	2.17348
3610.27266	2.21231
3608.34409	2.25332
3606.41553	2.29563
3604.48696	2.33199
3602.55840	2.36621
3600.62983	2.40638
3598.70127	2.44938
3596.77271	2.49014
3594.84414	2.53180
3592.91558	2.57280
3590.98701	2.60922
3589.05845	2.64602
3587.12988	2.69189
3585.20132	2.73766
3583.27275	2.77285
3581.34419	2.80592
3579.41562	2.84345
3577.48706	2.88578
3575.55850	2.93029
3573.62993	2.97408
3571.70137	3.01584
3569.77280	3.06017
3567.84424	3.11287
3565.91567	3.17296
3563.98711	3.21996
3562.05854	3.25257
3560.12998	3.28786
3558.20142	3.32956
3556.27285	3.37418
3554.34429	3.41933
3552.41572	3.46697
3550.48716	3.51516
3548.55859	3.56190
3546.63003	3.61020
3544.70146	3.65986
3542.77290	3.70459
3540.84434	3.74467
3538.91577	3.78835
3536.98721	3.83815
3535.05864	3.88949
3533.13008	3.93707
3531.20151	3.98320
3529.27295	4.03139
3527.34438	4.08122
3525.41582	4.12955
3523.48726	4.17793
3521.55869	4.22969
3519.63013	4.28060
3517.70156	4.32646
3515.77300	4.36872
3513.84443	4.41499
3511.91587	4.46506
3509.98730	4.51456
3508.05874	4.56457
3506.13018	4.61375
3504.20161	4.66208
3502.27305	4.71001
3500.34448	4.75469
3498.41592	4.79764
3496.48735	4.84284
3494.55879	4.89017
3492.63022	4.93792
3490.70166	4.98543
3488.77310	5.03317
3486.84453	5.08133
3484.91597	5.13174
3482.98740	5.18495
3481.05884	5.23740
3479.13027	5.28768
3477.20171	5.33636
3475.27314	5.38408
3473.34458	5.43534
3471.41602	5.48738
3469.48745	5.53282
3467.55889	5.57766
3465.63032	5.62894
3463.70176	5.68666
3461.77319	5.74511
3459.84463	5.79965
3457.91606	5.85046
3455.98750	5.89761
3454.05894	5.93923
3452.13037	5.97621
3450.20181	6.02041
3448.27324	6.08247
3446.34468	6.14398
3444.41611	6.17749
3442.48755	6.20682
3440.55898	6.25475
3438.63042	6.31161
3436.70186	6.36673
3434.77329	6.41730
3432.84473	6.46940
3430.91616	6.52417
3428.98760	6.57673
3427.05903	6.62414
3425.13047	6.67831
3423.20190	6.73603
3421.27334	6.78527
3419.34478	6.82330
3417.41621	6.86698
3415.48765	6.93408
3413.55908	6.98706
3411.63052	7.00529
3409.70195	7.02245
3407.77339	7.06226
3405.84482	7.11461
3403.91626	7.17239
3401.98770	7.22805
3400.05913	7.27805
3398.13057	7.32015
3396.20200	7.33408
3394.27344	7.33279
3392.34487	7.35708
3390.41631	7.43593
3388.48774	7.53560
3386.55918	7.60341
3384.63062	7.62565
3382.70205	7.64725
3380.77349	7.69486
3378.84492	7.72615
3376.91636	7.72732
3374.98779	7.71036
3373.05923	7.71848
3371.13066	7.75325
3369.20210	7.78104
3367.27354	7.82574
3365.34497	7.88759
3363.41641	7.90737
3361.48784	7.91137
3359.55928	7.94787
3357.63071	7.96253
3355.70215	7.95979
3353.77358	7.98502
3351.84502	8.03259
3349.91646	8.08130
3347.98789	8.11093
3346.05933	8.09631
3344.13076	8.09330
3342.20220	8.14174
3340.27363	8.13428
3338.34507	8.07734
3336.41650	8.08831
3334.48794	8.12808
3332.55937	8.09846
3330.63081	8.09087
3328.70225	8.14480
3326.77368	8.18181
3324.84512	8.19662
3322.91655	8.18886
3320.98799	8.20445
3319.05942	8.25791
3317.13086	8.26348
3315.20229	8.22816
3313.27373	8.25057
3311.34517	8.31624
3309.41660	8.35950
3307.48804	8.34763
3305.55947	8.29439
3303.63091	8.26659
3301.70234	8.25178
3299.77378	8.25602
3297.84521	8.27964
3295.91665	8.29471
3293.98809	8.32625
3292.05952	8.35387
3290.13096	8.32186
3288.20239	8.25499
3286.27383	8.22954
3284.34526	8.24401
3282.41670	8.25303
3280.48813	8.22864
3278.55957	8.19217
3276.63101	8.22795
3274.70244	8.34620
3272.77388	8.41026
3270.84531	8.39589
3268.91675	8.41417
3266.98818	8.45092
3265.05962	8.47292
3263.13105	8.46622
3261.20249	8.40895
3259.27393	8.37322
3257.34536	8.41243
3255.41680	8.46822
3253.48823	8.49576
3251.55967	8.49500
3249.63110	8.47688
3247.70254	8.42907
3245.77397	8.33883
3243.84541	8.29630
3241.91685	8.34046
3239.98828	8.39472
3238.05972	8.40458
3236.13115	8.38951
3234.20259	8.37127
3232.27402	8.34260
3230.34546	8.30662
3228.41689	8.26945
3226.48833	8.22152
3224.55977	8.15761
3222.63120	8.09586
3220.70264	8.04782
3218.77407	8.03984
3216.84551	8.09495
3214.91694	8.17617
3212.98838	8.22239
3211.05981	8.23773
3209.13125	8.25637
3207.20269	8.23499
3205.27412	8.14296
3203.34556	8.03736
3201.41699	7.96726
3199.48843	7.92461
3197.55986	7.88193
3195.63130	7.84093
3193.70273	7.81793
3191.77417	7.78765
3189.84561	7.72446
3187.91704	7.64830
3185.98848	7.58150
3184.05991	7.53311
3182.13135	7.47147
3180.20278	7.39117
3178.27422	7.33014
3176.34565	7.26532
3174.41709	7.19770
3172.48853	7.16134
3170.55996	7.11267
3168.63140	7.02890
3166.70283	6.95170
3164.77427	6.90016
3162.84570	6.86051
3160.91714	6.81414
3158.98857	6.76623
3157.06001	6.71477
3155.13145	6.64110
3153.20288	6.54888
3151.27432	6.46701
3149.34575	6.41055
3147.41719	6.36148
3145.48862	6.30747
3143.56006	6.24064
3141.63149	6.15280
3139.70293	6.06387
3137.77437	5.98738
3135.84580	5.91283
3133.91724	5.84210
3131.98867	5.77384
3130.06011	5.69741
3128.13154	5.62189
3126.20298	5.55495
3124.27441	5.48928
3122.34585	5.41843
3120.41729	5.34483
3118.48872	5.27456
3116.56016	5.20830
3114.63159	5.14023
3112.70303	5.06749
3110.77446	4.99594
3108.84590	4.92791
3106.91733	4.85798
3104.98877	4.78439
3103.06021	4.71315
3101.13164	4.64834
3099.20308	4.58544
3097.27451	4.52007
3095.34595	4.45463
3093.41738	4.39153
3091.48882	4.32818
3089.56025	4.26204
3087.63169	4.19660
3085.70312	4.13369
3083.77456	4.07029
3081.84600	4.00836
3079.91743	3.94933
3077.98887	3.88954
3076.06030	3.82873
3074.13174	3.76931
3072.20317	3.71095
3070.27461	3.65208
3068.34604	3.59415
3066.41748	3.53950
3064.48892	3.48602
3062.56035	3.43023
3060.63179	3.37433
3058.70322	3.32003
3056.77466	3.26570
3054.84609	3.21201
3052.91753	3.15905
3050.98896	3.10658
3049.06040	3.05615
3047.13184	3.00699
3045.20327	2.95726
3043.27471	2.90765
3041.34614	2.85890
3039.41758	2.81018
3037.48901	2.76154
3035.56045	2.71398
3033.63188	2.66839
3031.70332	2.62427
3029.77476	2.58004
3027.84619	2.53584
3025.91763	2.49261
3023.98906	2.44976
3022.06050	2.40710
3020.13193	2.36461
3018.20337	2.32215
3016.27480	2.28116
3014.34624	2.24232
3012.41768	2.20416
3010.48911	2.16589
3008.56055	2.12783
3006.63198	2.09002
3004.70342	2.05320
3002.77485	2.01805
3000.84629	1.98376
2998.91772	1.94942
2996.98916	1.91536
2995.06060	1.88255
2993.13203	1.85163
2991.20347	1.82187
2989.27490	1.79172
2987.34634	1.76114
2985.41777	1.73129
2983.48921	1.70285
2981.56064	1.67552
2979.63208	1.64844
2977.70352	1.62140
2975.77495	1.59469
2973.84639	1.56815
2971.91782	1.54178
2969.98926	1.51583
2968.06069	1.49019
2966.13213	1.46492
2964.20356	1.43982
2962.27500	1.41434
2960.34644	1.38860
2958.41787	1.36301
2956.48931	1.33802
2954.56074	1.31410
2952.63218	1.29078
2950.70361	1.26718
2948.77505	1.24338
2946.84648	1.22013
2944.91792	1.19779
2942.98936	1.17561
2941.06079	1.15304
2939.13223	1.13021
2937.20366	1.10685
2935.27510	1.08292
2933.34653	1.05843
2931.41797	1.03339
2929.48940	1.00870
2927.56084	0.98483
2925.63228	0.96139
2923.70371	0.93879
2921.77515	0.91725
2919.84658	0.89725
2917.91802	0.88065
2915.98945	0.86812
2914.06089	0.85852
2912.13232	0.85036
2910.20376	0.84222
2908.27520	0.83311
2906.34663	0.82262
2904.41807	0.81093
2902.48950	0.79863
2900.56094	0.78628
2898.63237	0.77432
2896.70381	0.76275
2894.77524	0.75119
2892.84668	0.73987
2890.91812	0.72921
2888.98955	0.71904
2887.06099	0.70915
2885.13242	0.69975
2883.20386	0.69082
2881.27529	0.68157
2879.34673	0.67167
2877.41816	0.66161
2875.48960	0.65152
2873.56104	0.64125
2871.63247	0.63070
2869.70391	0.61939
2867.77534	0.60704
2865.84678	0.59372
2863.91821	0.57951
2861.98965	0.56482
2860.06108	0.55020
2858.13252	0.53581
2856.20396	0.52138
2854.27539	0.50697
2852.34683	0.49364
2850.41826	0.48306
2848.48970	0.47685
2846.56113	0.47524
2844.63257	0.47574
2842.70400	0.47562
2840.77544	0.47401
2838.84687	0.47076
2836.91831	0.46635
2834.98975	0.46172
2833.06118	0.45693
2831.13262	0.45167
2829.20405	0.44609
2827.27549	0.44045
2825.34692	0.43484
2823.41836	0.42910
2821.48979	0.42309
2819.56123	0.41704
2817.63267	0.41130
2815.70410	0.40591
2813.77554	0.40058
2811.84697	0.39513
2809.91841	0.38964
2807.98984	0.38423
2806.06128	0.37902
2804.13271	0.37394
2802.20415	0.36885
2800.27559	0.36387
2798.34702	0.35891
2796.41846	0.35394
2794.48989	0.34912
2792.56133	0.34446
2790.63276	0.33996
2788.70420	0.33557
2786.77563	0.33125
2784.84707	0.32698
2782.91851	0.32270
2780.98994	0.31844
2779.06138	0.31422
2777.13281	0.31012
2775.20425	0.30617
2773.27568	0.30234
2771.34712	0.29860
2769.41855	0.29485
2767.48999	0.29110
2765.56143	0.28752
2763.63286	0.28405
2761.70430	0.28058
2759.77573	0.27717
2757.84717	0.27388
2755.91860	0.27077
2753.99004	0.26777
2752.06147	0.26473
2750.13291	0.26165
2748.20435	0.25865
2746.27578	0.25576
2744.34722	0.25291
2742.41865	0.25001
2740.49009	0.24708
2738.56152	0.24431
2736.63296	0.24177
2734.70439	0.23925
2732.77583	0.23676
2730.84727	0.23451
2728.91870	0.23229
2726.99014	0.22980
2725.06157	0.22737
2723.13301	0.22535
2721.20444	0.22344
2719.27588	0.22137
2717.34731	0.21922
2715.41875	0.21712
2713.49019	0.21512
2711.56162	0.21326
2709.63306	0.21156
2707.70449	0.20983
2705.77593	0.20798
2703.84736	0.20626
2701.91880	0.20471
2699.99023	0.20315
2698.06167	0.20164
2696.13311	0.20018
2694.20454	0.19865
2692.27598	0.19720
2690.34741	0.19592
2688.41885	0.19466
2686.49028	0.19347
2684.56172	0.19244
2682.63315	0.19132
2680.70459	0.18995
2678.77603	0.18858
2676.84746	0.18742
2674.91890	0.18640
2672.99033	0.18528
2671.06177	0.18395
2669.13320	0.18267
2667.20464	0.18160
2665.27607	0.18071
2663.34751	0.17998
2661.41895	0.17914
2659.49038	0.17811
2657.56182	0.17719
2655.63325	0.17647
2653.70469	0.17581
2651.77612	0.17515
2649.84756	0.17449
2647.91899	0.17379
2645.99043	0.17304
2644.06187	0.17234
2642.13330	0.17179
2640.20474	0.17134
2638.27617	0.17080
2636.34761	0.17019
2634.41904	0.16966
2632.49048	0.16916
2630.56191	0.16872
2628.63335	0.16830
2626.70479	0.16783
2624.77622	0.16747
2622.84766	0.16721
2620.91909	0.16695
2618.99053	0.16674
2617.06196	0.16654
2615.13340	0.16635
2613.20483	0.16617
2611.27627	0.16588
2609.34771	0.16559
2607.41914	0.16545
2605.49058	0.16539
2603.56201	0.16540
2601.63345	0.16539
2599.70488	0.16528
2597.77632	0.16525
2595.84775	0.16540
2593.91919	0.16555
2591.99062	0.16546
2590.06206	0.16532
2588.13350	0.16543
2586.20493	0.16568
2584.27637	0.16590
2582.34780	0.16615
2580.41924	0.16642
2578.49067	0.16670
2576.56211	0.16692
2574.63354	0.16701
2572.70498	0.16716
2570.77642	0.16748
2568.84785	0.16786
2566.91929	0.16817
2564.99072	0.16849
2563.06216	0.16888
2561.13359	0.16929
2559.20503	0.16970
2557.27646	0.17007
2555.34790	0.17043
2553.41934	0.17097
2551.49077	0.17158
2549.56221	0.17203
2547.63364	0.17243
2545.70508	0.17297
2543.77651	0.17354
2541.84795	0.17406
2539.91938	0.17454
2537.99082	0.17508
2536.06226	0.17568
2534.13369	0.17623
2532.20513	0.17687
2530.27656	0.17768
2528.34800	0.17857
2526.41943	0.17937
2524.49087	0.17999
2522.56230	0.18052
2520.63374	0.18113
2518.70518	0.18194
2516.77661	0.18279
2514.84805	0.18356
2512.91948	0.18439
2510.99092	0.18524
2509.06235	0.18592
2507.13379	0.18647
2505.20522	0.18707
2503.27666	0.18781
2501.34810	0.18870
2499.41953	0.18958
2497.49097	0.19040
2495.56240	0.19126
2493.63384	0.19217
2491.70527	0.19296
2489.77671	0.19367
2487.84814	0.19445
2485.91958	0.19529
2483.99102	0.19607
2482.06245	0.19679
2480.13389	0.19760
2478.20532	0.19848
2476.27676	0.19928
2474.34819	0.20011
2472.41963	0.20108
2470.49106	0.20214
2468.56250	0.20319
2466.63394	0.20411
2464.70537	0.20486
2462.77681	0.20562
2460.84824	0.20652
2458.91968	0.20743
2456.99111	0.20823
2455.06255	0.20910
2453.13398	0.21008
2451.20542	0.21108
2449.27686	0.21212
2447.34829	0.21316
2445.41973	0.21409
2443.49116	0.21491
2441.56260	0.21574
2439.63403	0.21672
2437.70547	0.21783
2435.77690	0.21892
2433.84834	0.21987
2431.91978	0.22066
2429.99121	0.22153
2428.06265	0.22261
2426.13408	0.22374
2424.20552	0.22481
2422.27695	0.22593
2420.34839	0.22708
2418.41982	0.22817
2416.49126	0.22922
2414.56270	0.23032
2412.63413	0.23152
2410.70557	0.23273
2408.77700	0.23389
2406.84844	0.23512
2404.91987	0.23644
2402.99131	0.23771
2401.06274	0.23883
2399.13418	0.23986
2397.20562	0.24094
2395.27705	0.24215
2393.34849	0.24347
2391.41992	0.24492
2389.49136	0.24679
2387.56279	0.24990
2385.63423	0.25528
2383.70566	0.26386
2381.77710	0.27614
2379.84854	0.29175
2377.91997	0.30986
2375.99141	0.33044
2374.06284	0.35417
2372.13428	0.38096
2370.20571	0.40977
2368.27715	0.43901
2366.34858	0.46695
2364.42002	0.49177
2362.49146	0.51074
2360.56289	0.52122
2358.63433	0.52147
2356.70576	0.51009
2354.77720	0.48755
2352.84863	0.45735
2350.92007	0.42591
2348.99150	0.40608
2347.06294	0.40677
2345.13437	0.42778
2343.20581	0.45426
2341.27725	0.46699
2339.34868	0.46715
2337.42012	0.46321
2335.49155	0.45923
2333.56299	0.45614
2331.63442	0.45406
2329.70586	0.45081
2327.77729	0.44472
2325.84873	0.43698
2323.92017	0.42929
2321.99160	0.42119
2320.06304	0.41087
2318.13447	0.39880
2316.20591	0.38822
2314.27734	0.38148
2312.34878	0.37764
2310.42021	0.37376
2308.49165	0.36828
2306.56309	0.36190
2304.63452	0.35615
2302.70596	0.35223
2300.77739	0.34994
2298.84883	0.34815
2296.92026	0.34644
2294.99170	0.34484
2293.06313	0.34334
2291.13457	0.34203
2289.20601	0.34086
2287.27744	0.33974
2285.34888	0.33890
2283.42031	0.33898
2281.49175	0.34058
2279.56318	0.34340
2277.63462	0.34642
2275.70605	0.34913
2273.77749	0.35147
2271.84893	0.35351
2269.92036	0.35544
2267.99180	0.35737
2266.06323	0.35927
2264.13467	0.36101
2262.20610	0.36267
2260.27754	0.36437
2258.34897	0.36597
2256.42041	0.36743
2254.49185	0.36898
2252.56328	0.37074
2250.63472	0.37257
2248.70615	0.37437
2246.77759	0.37620
2244.84902	0.37809
2242.92046	0.37999
2240.99189	0.38193
2239.06333	0.38389
2237.13477	0.38593
2235.20620	0.38815
2233.27764	0.39040
2231.34907	0.39246
2229.42051	0.39448
2227.49194	0.39666
2225.56338	0.39894
2223.63481	0.40114
2221.70625	0.40331
2219.77769	0.40552
2217.84912	0.40769
2215.92056	0.40973
2213.99199	0.41173
2212.06343	0.41390
2210.13486	0.41610
2208.20630	0.41821
2206.27773	0.42035
2204.34917	0.42246
2202.42061	0.42446
2200.49204	0.42649
2198.56348	0.42851
2196.63491	0.43044
2194.70635	0.43234
2192.77778	0.43426
2190.84922	0.43619
2188.92065	0.43811
2186.99209	0.43996
2185.06353	0.44171
2183.13496	0.44345
2181.20640	0.44519
2179.27783	0.44681
2177.34927	0.44828
2175.42070	0.44978
2173.49214	0.45137
2171.56357	0.45298
2169.63501	0.45442
2167.70645	0.45561
2165.77788	0.45674
2163.84932	0.45794
2161.92075	0.45907
2159.99219	0.46002
2158.06362	0.46084
2156.13506	0.46171
2154.20649	0.46263
2152.27793	0.46349
2150.34937	0.46422
2148.42080	0.46480
2146.49224	0.46527
2144.56367	0.46571
2142.63511	0.46613
2140.70654	0.46646
2138.77798	0.46666
2136.84941	0.46683
2134.92085	0.46698
2132.99229	0.46705
2131.06372	0.46701
2129.13516	0.46682
2127.20659	0.46647
2125.27803	0.46597
2123.34946	0.46536
2121.42090	0.46476
2119.49233	0.46420
2117.56377	0.46360
2115.63521	0.46297
2113.70664	0.46228
2111.77808	0.46141
2109.84951	0.46038
2107.92095	0.45925
2105.99238	0.45800
2104.06382	0.45664
2102.13525	0.45524
2100.20669	0.45388
2098.27812	0.45260
2096.34956	0.45124
2094.42100	0.44967
2092.49243	0.44809
2090.56387	0.44653
2088.63530	0.44475
2086.70674	0.44276
2084.77817	0.44077
2082.84961	0.43884
2080.92104	0.43694
2078.99248	0.43503
2077.06392	0.43291
2075.13535	0.43059
2073.20679	0.42832
2071.27822	0.42613
2069.34966	0.42390
2067.42109	0.42175
2065.49253	0.41970
2063.56396	0.41731
2061.63540	0.41451
2059.70684	0.41173
2057.77827	0.40913
2055.84971	0.40659
2053.92114	0.40399
2051.99258	0.40134
2050.06401	0.39873
2048.13545	0.39610
2046.20688	0.39339
2044.27832	0.39084
2042.34976	0.38847
2040.42119	0.38582
2038.49263	0.38270
2036.56406	0.37962
2034.63550	0.37683
2032.70693	0.37412
2030.77837	0.37137
2028.84980	0.36854
2026.92124	0.36565
2024.99268	0.36277
2023.06411	0.36001
2021.13555	0.35747
2019.20698	0.35526
2017.27842	0.35302
2015.34985	0.34999
2013.42129	0.34651
2011.49272	0.34338
2009.56416	0.34064
2007.63560	0.33798
2005.70703	0.33531
2003.77847	0.33260
2001.84990	0.32990
1999.92134	0.32732
1997.99277	0.32477
1996.06421	0.32235
1994.13564	0.32059
1992.20708	0.31916
1990.27852	0.31671
1988.34995	0.31339
1986.42139	0.31018
1984.49282	0.30736
1982.56426	0.30489
1980.63569	0.30254
1978.70713	0.30024
1976.77856	0.29805
1974.85000	0.29589
1972.92144	0.29371
1970.99287	0.29174
1969.06431	0.29043
1967.13574	0.28928
1965.20718	0.28698
1963.27861	0.28405
1961.35005	0.28173
1959.42148	0.27982
1957.49292	0.27806
1955.56436	0.27642
1953.63579	0.27465
1951.70723	0.27274
1949.77866	0.27105
1947.85010	0.26979
1945.92153	0.26911
1943.99297	0.26896
1942.06440	0.26810
1940.13584	0.26541
1938.20728	0.26248
1936.27871	0.26059
1934.35015	0.25930
1932.42158	0.25806
1930.49302	0.25673
1928.56445	0.25555
1926.63589	0.25484
1924.70732	0.25503
1922.77876	0.25540
1920.85020	0.25464
1918.92163	0.25367
1916.99307	0.25263
1915.06450	0.25058
1913.13594	0.24889
1911.20737	0.24868
1909.27881	0.24886
1907.35024	0.24803
1905.42168	0.24652
1903.49312	0.24537
1901.56455	0.24463
1899.63599	0.24404
1897.70742	0.24390
1895.77886	0.24423
1893.85029	0.24418
1891.92173	0.24398
1889.99316	0.24451
1888.06460	0.24424
1886.13604	0.24282
1884.20747	0.24181
1882.27891	0.24134
1880.35034	0.24112
1878.42178	0.24110
1876.49321	0.24110
1874.56465	0.24118
1872.63608	0.24204
1870.70752	0.24472
1868.77896	0.24833
1866.85039	0.24846
1864.92183	0.24531
1862.99326	0.24313
1861.06470	0.24282
1859.13613	0.24321
1857.20757	0.24348
1855.27900	0.24369
1853.35044	0.24397
1851.42187	0.24462
1849.49331	0.24612
1847.56475	0.24854
1845.63618	0.25155
1843.70762	0.25345
1841.77905	0.25221
1839.85049	0.25052
1837.92192	0.25083
1835.99336	0.25179
1834.06479	0.25262
1832.13623	0.25494
1830.20767	0.25917
1828.27910	0.26153
1826.35054	0.26141
1824.42197	0.26159
1822.49341	0.26127
1820.56484	0.26093
1818.63628	0.26180
1816.70771	0.26342
1814.77915	0.26522
1812.85059	0.26800
1810.92202	0.27146
1808.99346	0.27351
1807.06489	0.27423
1805.13633	0.27557
1803.20776	0.27882
1801.27920	0.28339
1799.35063	0.28702
1797.42207	0.28894
1795.49351	0.29150
1793.56494	0.29623
1791.63638	0.30113
1789.70781	0.30203
1787.77925	0.30159
1785.85068	0.30390
1783.92212	0.30805
1781.99355	0.31270
1780.06499	0.31732
1778.13643	0.32125
1776.20786	0.32561
1774.27930	0.33247
1772.35073	0.34158
1770.42217	0.34751
1768.49360	0.34939
1766.56504	0.35127
1764.63647	0.35492
1762.70791	0.36121
1760.77935	0.36873
1758.85078	0.37416
1756.92222	0.37946
1754.99365	0.38508
1753.06509	0.39099
1751.13652	0.40053
1749.20796	0.41189
1747.27939	0.41960
1745.35083	0.42487
1743.42227	0.43215
1741.49370	0.44224
1739.56514	0.45524
1737.63657	0.46856
1735.70801	0.48229
1733.77944	0.50401
1731.85088	0.52497
1729.92231	0.53793
1727.99375	0.55125
1726.06519	0.56727
1724.13662	0.58668
1722.20806	0.60826
1720.27949	0.62983
1718.35093	0.65786
1716.42236	0.69484
1714.49380	0.72248
1712.56523	0.74265
1710.63667	0.76465
1708.70811	0.79135
1706.77954	0.82379
1704.85098	0.86167
1702.92241	0.89424
1700.99385	0.92799
1699.06528	0.97799
1697.13672	1.02126
1695.20815	1.06246
1693.27959	1.10190
1691.35103	1.13637
1689.42246	1.17920
1687.49390	1.22538
1685.56533	1.27215
1683.63677	1.34140
1681.70820	1.40614
1679.77964	1.44588
1677.85107	1.48604
1675.92251	1.53478
1673.99395	1.59538
1672.06538	1.64966
1670.13682	1.70462
1668.20825	1.77318
1666.27969	1.82758
1664.35112	1.87745
1662.42256	1.94296
1660.49399	2.01461
1658.56543	2.06973
1656.63687	2.11790
1654.70830	2.16745
1652.77974	2.23533
1650.85117	2.28519
1648.92261	2.30252
1646.99404	2.32856
1645.06548	2.34905
1643.13691	2.35789
1641.20835	2.36318
1639.27979	2.37195
1637.35122	2.38046
1635.42266	2.37919
1633.49409	2.36083
1631.56553	2.33803
1629.63696	2.31725
1627.70840	2.28744
1625.77983	2.25325
1623.85127	2.21065
1621.92271	2.15573
1619.99414	2.10546
1618.06558	2.06014
1616.13701	1.99638
1614.20845	1.92698
1612.27988	1.87305
1610.35132	1.81876
1608.42275	1.76058
1606.49419	1.70363
1604.56562	1.65202
1602.63706	1.60289
1600.70850	1.55492
1598.77993	1.51074
1596.85137	1.46990
1594.92280	1.43057
1592.99424	1.39245
1591.06567	1.35782
1589.13711	1.32579
1587.20854	1.29620
1585.27998	1.26964
1583.35142	1.24591
1581.42285	1.22492
1579.49429	1.20816
1577.56572	1.19556
1575.63716	1.17949
1573.70859	1.16143
1571.78003	1.15023
1569.85146	1.14276
1567.92290	1.13404
1565.99434	1.12645
1564.06577	1.12239
1562.13721	1.12207
1560.20864	1.12881
1558.28008	1.14321
1556.35151	1.14626
1554.42295	1.14443
1552.49438	1.14499
1550.56582	1.14539
1548.63726	1.14320
1546.70869	1.13903
1544.78013	1.13463
1542.85156	1.12936
1540.92300	1.11688
1538.99443	1.08293
1537.06587	1.05107
1535.13730	1.03222
1533.20874	1.01110
1531.28018	0.98664
1529.35161	0.96867
1527.42305	0.95440
1525.49448	0.94050
1523.56592	0.92928
1521.63735	0.91937
1519.70879	0.90653
1517.78022	0.89389
1515.85166	0.87885
1513.92310	0.86206
1511.99453	0.84920
1510.06597	0.84173
1508.13740	0.83800
1506.20884	0.82324
1504.28027	0.80003
1502.35171	0.78680
1500.42314	0.77933
1498.49458	0.77371
1496.56602	0.76579
1494.63745	0.75509
1492.70889	0.74769
1490.78032	0.74476
1488.85176	0.74058
1486.92319	0.73153
1484.99463	0.72270
1483.06606	0.71712
1481.13750	0.71376
1479.20894	0.71162
1477.28037	0.71172
1475.35181	0.71441
1473.42324	0.71745
1471.49468	0.71502
1469.56611	0.70780
1467.63755	0.70297
1465.70898	0.70190
1463.78042	0.70161
1461.85186	0.70123
1459.92329	0.70410
1457.99473	0.71089
1456.06616	0.71257
1454.13760	0.70544
1452.20903	0.69954
1450.28047	0.69653
1448.35190	0.69500
1446.42334	0.69220
1444.49478	0.68810
1442.56621	0.68475
1440.63765	0.68253
1438.70908	0.68158
1436.78052	0.68058
1434.85195	0.67648
1432.92339	0.67200
1430.99482	0.67008
1429.06626	0.66931
1427.13770	0.66865
1425.20913	0.66953
1423.28057	0.67155
1421.35200	0.67360
1419.42344	0.67643
1417.49487	0.67685
1415.56631	0.67320
1413.63774	0.67035
1411.70918	0.67000
1409.78062	0.67110
1407.85205	0.67296
1405.92349	0.67570
1403.99492	0.67772
1402.06636	0.67810
1400.13779	0.67872
1398.20923	0.67925
1396.28066	0.67769
1394.35210	0.67294
1392.42354	0.66574
1390.49497	0.65958
1388.56641	0.65547
1386.63784	0.65057
1384.70928	0.64346
1382.78071	0.63657
1380.85215	0.63118
1378.92358	0.62718
1376.99502	0.62488
1375.06646	0.62416
1373.13789	0.62288
1371.20933	0.62066
1369.28076	0.61940
1367.35220	0.61848
1365.42363	0.61755
1363.49507	0.61750
1361.56650	0.61648
1359.63794	0.61340
1357.70937	0.61071
1355.78081	0.60919
1353.85225	0.60796
1351.92368	0.60671
1349.99512	0.60581
1348.06655	0.60507
1346.13799	0.60420
1344.20942	0.60352
1342.28086	0.60376
1340.35229	0.60497
1338.42373	0.60512
1336.49517	0.60325
1334.56660	0.60140
1332.63804	0.60070
1330.70947	0.60075
1328.78091	0.60118
1326.85234	0.60192
1324.92378	0.60289
1322.99521	0.60410
1321.06665	0.60559
1319.13809	0.60694
1317.20952	0.60746
1315.28096	0.60733
1313.35239	0.60701
1311.42383	0.60627
1309.49526	0.60513
1307.56670	0.60406
1305.63813	0.60332
1303.70957	0.60270
1301.78101	0.60187
1299.85244	0.60082
1297.92388	0.59973
1295.99531	0.59851
1294.06675	0.59710
1292.13818	0.59560
1290.20962	0.59414
1288.28105	0.59273
1286.35249	0.59125
1284.42393	0.58969
1282.49536	0.58799
1280.56680	0.58618
1278.63823	0.58447
1276.70967	0.58290
1274.78110	0.58155
1272.85254	0.58060
1270.92397	0.57990
1268.99541	0.57915
1267.06685	0.57835
1265.13828	0.57747
1263.20972	0.57656
1261.28115	0.57582
1259.35259	0.57508
1257.42402	0.57422
1255.49546	0.57364
1253.56689	0.57358
1251.63833	0.57375
1249.70977	0.57378
1247.78120	0.57366
1245.85264	0.57342
1243.92407	0.57282
1241.99551	0.57169
1240.06694	0.57021
1238.13838	0.56843
1236.20981	0.56624
1234.28125	0.56373
1232.35269	0.56117
1230.42412	0.55873
1228.49556	0.55645
1226.56699	0.55437
1224.63843	0.55241
1222.70986	0.55042
1220.78130	0.54837
1218.85273	0.54653
1216.92417	0.54514
1214.99561	0.54419
1213.06704	0.54337
1211.13848	0.54238
1209.20991	0.54135
1207.28135	0.54052
1205.35278	0.53970
1203.42422	0.53868
1201.49565	0.53759
1199.56709	0.53659
1197.63853	0.53563
1195.70996	0.53467
1193.78140	0.53381
1191.85283	0.53320
1189.92427	0.53278
1187.99570	0.53238
1186.06714	0.53197
1184.13857	0.53168
1182.21001	0.53180
1180.28145	0.53253
1178.35288	0.53362
1176.42432	0.53480
1174.49575	0.53595
1172.56719	0.53674
1170.63862	0.53696
1168.71006	0.53697
1166.78149	0.53710
1164.85293	0.53728
1162.92437	0.53735
1160.99580	0.53732
1159.06724	0.53720
1157.13867	0.53687
1155.21011	0.53614
1153.28154	0.53500
1151.35298	0.53352
1149.42441	0.53155
1147.49585	0.52892
1145.56729	0.52610
1143.63872	0.52370
1141.71016	0.52176
1139.78159	0.52016
1137.85303	0.51914
1135.92446	0.51874
1133.99590	0.51863
1132.06733	0.51866
1130.13877	0.51877
1128.21021	0.51862
1126.28164	0.51811
1124.35308	0.51750
1122.42451	0.51684
1120.49595	0.51641
1118.56738	0.51639
1116.63882	0.51668
1114.71025	0.51713
1112.78169	0.51761
1110.85312	0.51827
1108.92456	0.51918
1106.99600	0.52003
1105.06743	0.52096
1103.13887	0.52218
1101.21030	0.52346
1099.28174	0.52481
1097.35317	0.52666
1095.42461	0.52945
1093.49604	0.53340
1091.56748	0.53840
1089.63892	0.54434
1087.71035	0.55139
1085.78179	0.55955
1083.85322	0.56811
1081.92466	0.57586
1079.99609	0.58154
1078.06753	0.58425
1076.13896	0.58387
1074.21040	0.58068
1072.28184	0.57526
1070.35327	0.56858
1068.42471	0.56159
1066.49614	0.55469
1064.56758	0.54804
1062.63901	0.54221
1060.71045	0.53772
1058.78188	0.53409
1056.85332	0.53044
1054.92476	0.52681
1052.99619	0.52374
1051.06763	0.52132
1049.13906	0.51944
1047.21050	0.51820
1045.28193	0.51771
1043.35337	0.51758
1041.42480	0.51737
1039.49624	0.51700
1037.56768	0.51663
1035.63911	0.51626
1033.71055	0.51562
1031.78198	0.51450
1029.85342	0.51305
1027.92485	0.51151
1025.99629	0.50988
1024.06772	0.50845
1022.13916	0.50759
1020.21060	0.50724
1018.28203	0.50707
1016.35347	0.50691
1014.42490	0.50666
1012.49634	0.50637
1010.56777	0.50608
1008.63921	0.50600
1006.71064	0.50650
1004.78208	0.50768
1002.85352	0.50951
1000.92495	0.51196
998.99639	0.51508
997.06782	0.51907
995.13926	0.52373
993.21069	0.52831
991.28213	0.53194
989.35356	0.53411
987.42500	0.53480
985.49644	0.53466
983.56787	0.53456
981.63931	0.53486
979.71074	0.53553
977.78218	0.53653
975.85361	0.53811
973.92505	0.54042
971.99648	0.54326
970.06792	0.54665
968.13936	0.55068
966.21079	0.55491
964.28223	0.55890
962.35366	0.56312
960.42510	0.56813
958.49653	0.57374
956.56797	0.57949
954.63940	0.58545
952.71084	0.59173
950.78228	0.59812
948.85371	0.60471
946.92515	0.61153
944.99658	0.61817
943.06802	0.62448
941.13945	0.63057
939.21089	0.63649
937.28232	0.64232
935.35376	0.64807
933.42520	0.65372
931.49663	0.65967
929.56807	0.66618
927.63950	0.67257
925.71094	0.67868
923.78237	0.68482
921.85381	0.69072
919.92524	0.69676
917.99668	0.70353
916.06812	0.71101
914.13955	0.71883
912.21099	0.72686
910.28242	0.73539
908.35386	0.74370
906.42529	0.75139
904.49673	0.76004
902.56816	0.77005
900.63960	0.78005
898.71104	0.78941
896.78247	0.79839
894.85391	0.80774
892.92534	0.81767
890.99678	0.82775
889.06821	0.83805
887.13965	0.84940
885.21108	0.86124
883.28252	0.87222
881.35396	0.88318
879.42539	0.89527
877.49683	0.90828
875.56826	0.92138
873.63970	0.93307
871.71113	0.94293
869.78257	0.95292
867.85400	0.96423
865.92544	0.97637
863.99687	0.98866
862.06831	1.00002
860.13975	1.01164
858.21118	1.02551
856.28262	1.03942
854.35405	1.05086
852.42549	1.06082
850.49692	1.07050
848.56836	1.08126
846.63979	1.09396
844.71123	1.10571
842.78267	1.11424
840.85410	1.12321
838.92554	1.13715
836.99697	1.15393
835.06841	1.16758
833.13984	1.17809
831.21128	1.19057
829.28271	1.20816
827.35415	1.22862
825.42559	1.24598
823.49702	1.25660
821.56846	1.26382
819.63989	1.27188
817.71133	1.27888
815.78276	1.28518
813.85420	1.29461
811.92563	1.31125
809.99707	1.32989
808.06851	1.34218
806.13994	1.35713
804.21138	1.37506
802.28281	1.38497
800.35425	1.38796
798.42568	1.39810
796.49712	1.42728
794.56855	1.45170
792.63999	1.44356
790.71143	1.46225
788.78286	1.56897
786.85430	1.66053
784.92573	1.58078
782.99717	1.49912
781.06860	1.51867
779.14004	1.57529
777.21147	1.57212
775.28291	1.56153
773.35435	1.54468
771.42578	1.45792
769.49722	1.41764
767.56865	1.55193
765.64009	1.79644
763.71152	1.98615
761.78296	4.57070
759.85439	4.55913
757.92583	1.54135
755.99727	1.35192
754.06870	1.44880
752.14014	1.82051
750.21157	2.27102
748.28301	1.58401
746.35444	1.33899
744.42588	1.35000
742.49731	1.46077
740.56875	1.55369
738.64019	1.50536
736.71162	1.27479
734.78306	1.14309
732.85449	1.17752
730.92593	1.11738
728.99736	0.85387
727.06880	0.70264
725.14023	0.65258
723.21167	0.61555
721.28311	0.61387
719.35454	0.63133
717.42598	0.57384
715.49741	0.53058
713.56885	0.63261
711.64028	0.97608
709.71172	0.99561
707.78315	0.57652
705.85459	0.42308
703.92603	0.37921
701.99746	0.34356
700.06890	0.36438
698.14033	0.54882
696.21177	0.60803
694.28320	0.50605
692.35464	0.60908
690.42607	0.79250
688.49751	0.54437
686.56895	0.44212
684.64038	0.51995
682.71182	0.54692
680.78325	0.53258
678.85469	0.63934
676.92612	0.73630
674.99756	0.55961
673.06899	0.37833
671.14043	0.28087
669.21187	0.22554
667.28330	0.23292
665.35474	0.35509
663.42617	0.52430
661.49761	0.55650
659.56904	0.43897
657.64048	0.41143
655.71191	0.52870
653.78335	0.62189
651.85479	0.45674
649.92622	0.35678
647.99766	0.45370
646.06909	0.66458
644.14053	0.67885
642.21196	0.63587
640.28340	0.75214
638.35483	0.64332
636.42627	0.45122
634.49771	0.45118
632.56914	0.55389
630.64058	0.58040
628.71201	0.51654
626.78345	0.45614
624.85488	0.46116
622.92632	0.50842
620.99775	0.50036
619.06919	0.48192
617.14062	0.69785
615.21206	0.95069
613.28350	0.46336
611.35493	0.26820
609.42637	0.25167
607.49780	0.27070
605.56924	0.24014
603.64067	0.23361
601.71211	0.27709
599.78354	0.32717
597.85498	0.39088
595.92642	0.58242
593.99785	3.56399
592.06929	3.55242
590.14072	3.54084
588.21216	0.83570
586.28359	0.46282
584.35503	0.39861
582.42646	0.42984
580.49790	0.43246
578.56934	0.37684
576.64077	0.35207
574.71221	0.35782
572.78364	0.31871
570.85508	0.26611
568.92651	0.28018
566.99795	0.34542
565.06938	0.34418
563.14082	0.29873
561.21226	0.32859
559.28369	0.39745
557.35513	0.35476
555.42656	0.28084
553.49800	0.30441
551.56943	0.35051
549.64087	0.32503
547.71230	0.29014
545.78374	0.27529
543.85518	0.28725
541.92661	0.36756
539.99805	0.47027
538.06948	0.46618
536.14092	0.38994
534.21235	0.33865
532.28379	0.33388
530.35522	0.35338
528.42666	0.41879
526.49810	0.50378
524.56953	0.43413
522.64097	0.35986
520.71240	0.40001
518.78384	0.43734
516.85527	0.34685
514.92671	0.27666
512.99814	0.30163
511.06958	0.33612
509.14102	0.35175
507.21245	0.34844
505.28389	0.28825
503.35532	0.25566
501.42676	0.29006
499.49819	0.30520
