3997.91411	0.05699
3995.98555	0.05752
3994.05698	0.05805
3992.12842	0.05846
3990.19985	0.05860
3988.27129	0.05870
3986.34272	0.05901
3984.41416	0.05946
3982.48560	0.05992
3980.55703	0.06034
3978.62847	0.06041
3976.69990	0.06038
3974.77134	0.06076
3972.84277	0.06150
3970.91421	0.06220
3968.98564	0.06229
3967.05708	0.06171
3965.12852	0.06131
3963.19995	0.06185
3961.27139	0.06282
3959.34282	0.06310
3957.41426	0.06284
3955.48569	0.06273
3953.55713	0.06284
3951.62856	0.06352
3949.70000	0.06474
3947.77144	0.06542
3945.84287	0.06499
3943.91431	0.06481
3941.98574	0.06521
3940.05718	0.06458
3938.12861	0.06320
3936.20005	0.06254
3934.27148	0.06316
3932.34292	0.06492
3930.41436	0.06611
3928.48579	0.06546
3926.55723	0.06493
3924.62866	0.06590
3922.70010	0.06655
3920.77153	0.06586
3918.84297	0.06544
3916.91440	0.06558
3914.98584	0.06497
3913.05728	0.06373
3911.12871	0.06269
3909.20015	0.06210
3907.27158	0.06311
3905.34302	0.06681
3903.41445	0.07135
3901.48589	0.07301
3899.55732	0.07140
3897.62876	0.06835
3895.70020	0.06585
3893.77163	0.06569
3891.84307	0.06743
3889.91450	0.06812
3887.98594	0.06749
3886.05737	0.06854
3884.12881	0.07048
3882.20024	0.07103
3880.27168	0.07074
3878.34312	0.06883
3876.41455	0.06674
3874.48599	0.06768
3872.55742	0.07099
3870.62886	0.07396
3868.70029	0.07470
3866.77173	0.07351
3864.84316	0.07382
3862.91460	0.07483
3860.98604	0.07325
3859.05747	0.07131
3857.12891	0.07217
3855.20034	0.07629
3853.27178	0.08261
3851.34321	0.08349
3849.41465	0.07753
3847.48608	0.07346
3845.55752	0.07313
3843.62896	0.07558
3841.70039	0.07920
3839.77183	0.08309
3837.84326	0.08641
3835.91470	0.08626
3833.98613	0.08372
3832.05757	0.08201
3830.12900	0.08097
3828.20044	0.08037
3826.27187	0.08107
3824.34331	0.08288
3822.41475	0.08609
3820.48618	0.09077
3818.55762	0.09257
3816.62905	0.09162
3814.70049	0.08984
3812.77192	0.08666
3810.84336	0.08491
3808.91479	0.08638
3806.98623	0.09001
3805.05767	0.09296
3803.12910	0.09553
3801.20054	0.09958
3799.27197	0.10119
3797.34341	0.09967
3795.41484	0.09820
3793.48628	0.09662
3791.55771	0.09576
3789.62915	0.09609
3787.70059	0.09725
3785.77202	0.09950
3783.84346	0.10211
3781.91489	0.10413
3779.98633	0.10642
3778.05776	0.10842
3776.12920	0.10839
3774.20063	0.10823
3772.27207	0.11018
3770.34351	0.11431
3768.41494	0.11849
3766.48638	0.12067
3764.55781	0.12196
3762.62925	0.12317
3760.70068	0.12585
3758.77212	0.13064
3756.84355	0.13449
3754.91499	0.13675
3752.98643	0.14073
3751.05786	0.14792
3749.12930	0.15459
3747.20073	0.15722
3745.27217	0.15984
3743.34360	0.16323
3741.41504	0.16487
3739.48647	0.16722
3737.55791	0.17316
3735.62935	0.18339
3733.70078	0.19321
3731.77222	0.19636
3729.84365	0.19712
3727.91509	0.20041
3725.98652	0.20701
3724.05796	0.21442
3722.12939	0.21986
3720.20083	0.22361
3718.27227	0.22659
3716.34370	0.23023
3714.41514	0.23657
3712.48657	0.24872
3710.55801	0.26737
3708.62944	0.28294
3706.70088	0.29188
3704.77231	0.30137
3702.84375	0.31467
3700.91519	0.33159
3698.98662	0.34868
3697.05806	0.36478
3695.12949	0.38295
3693.20093	0.40371
3691.27236	0.42778
3689.34380	0.45777
3687.41523	0.48996
3685.48667	0.51592
3683.55811	0.53916
3681.62954	0.56614
3679.70098	0.59869
3677.77241	0.63448
3675.84385	0.67672
3673.91528	0.72962
3671.98672	0.77055
3670.05815	0.80831
3668.12959	0.85974
3666.20103	0.90442
3664.27246	0.94226
3662.34390	0.98512
3660.41533	1.03255
3658.48677	1.07979
3656.55820	1.13049
3654.62964	1.18617
3652.70107	1.23290
3650.77251	1.27622
3648.84395	1.33659
3646.91538	1.40395
3644.98682	1.44906
3643.05825	1.48459
3641.12969	1.52338
3639.20112	1.56763
3637.27256	1.61253
3635.34399	1.65635
3633.41543	1.70128
3631.48687	1.74524
3629.55830	1.79078
3627.62974	1.84631
3625.70117	1.89327
3623.77261	1.92421
3621.84404	1.95602
3619.91548	1.99414
3617.98691	2.04006
3616.05835	2.08373
3614.12979	2.12012
3612.20122	2.15817
3610.27266	2.19685
3608.34409	2.23653
3606.41553	2.27773
3604.48696	2.31461
3602.55840	2.34861
3600.62983	2.38727
3598.70127	2.42949
3596.77271	2.47079
3594.84414	2.51307
3592.91558	2.55451
3590.98701	2.59101
3589.05845	2.62615
3587.12988	2.67069
3585.20132	2.71903
3583.27275	2.75740
3581.34419	2.79244
3579.41562	2.83168
3577.48706	2.87396
3575.55850	2.91654
3573.62993	2.96008
3571.70137	3.00296
3569.77280	3.04515
3567.84424	3.09178
3565.91567	3.14725
3563.98711	3.19588
3562.05854	3.23292
3560.12998	3.27130
3558.20142	3.31470
3556.27285	3.35976
3554.34429	3.40257
3552.41572	3.44760
3550.48716	3.49631
3548.55859	3.54265
3546.63003	3.58808
3544.70146	3.63888
3542.77290	3.69040
3540.84434	3.73676
3538.91577	3.77967
3536.98721	3.82089
3535.05864	3.86634
3533.13008	3.91638
3531.20151	3.96522
3529.27295	4.01244
3527.34438	4.06396
3525.41582	4.11915
3523.48726	4.16974
3521.55869	4.21460
3519.63013	4.25873
3517.70156	4.30565
3515.77300	4.35271
3513.84443	4.39994
3511.91587	4.44901
3509.98730	4.49721
3508.05874	4.54548
3506.13018	4.59519
3504.20161	4.64231
3502.27305	4.69039
3500.34448	4.74404
3498.41592	4.79357
3496.48735	4.83566
3494.55879	4.87950
3492.63022	4.92844
3490.70166	4.97846
3488.77310	5.03013
3486.84453	5.08422
3484.91597	5.13934
3482.98740	5.19370
3481.05884	5.23897
3479.13027	5.27551
3477.20171	5.31927
3475.27314	5.37473
3473.34458	5.43726
3471.41602	5.49940
3469.48745	5.54780
3467.55889	5.58632
3465.63032	5.63012
3463.70176	5.68435
3461.77319	5.74629
3459.84463	5.81122
3457.91606	5.86755
3455.98750	5.90885
3454.05894	5.94533
3452.13037	5.99009
3450.20181	6.04568
3448.27324	6.10098
3446.34468	6.15142
3444.41611	6.19984
3442.48755	6.24750
3440.55898	6.29356
3438.63042	6.33992
3436.70186	6.38837
3434.77329	6.44148
3432.84473	6.50014
3430.91616	6.54909
3428.98760	6.58293
3427.05903	6.62127
3425.13047	6.68209
3423.20190	6.74691
3421.27334	6.80278
3419.34478	6.85452
3417.41621	6.89673
3415.48765	6.94027
3413.55908	6.99768
3411.63052	7.05346
3409.70195	7.09032
3407.77339	7.13485
3405.84482	7.19057
3403.91626	7.24190
3401.98770	7.29573
3400.05913	7.35210
3398.13057	7.40799
3396.20200	7.46348
3394.27344	7.51290
3392.34487	7.53411
3390.41631	7.53066
3388.48774	7.52924
3386.55918	7.54652
3384.63062	7.58056
3382.70205	7.64968
3380.77349	7.74854
3378.84492	7.82882
3376.91636	7.86487
3374.98779	7.88096
3373.05923	7.91277
3371.13066	7.89614
3369.20210	7.86602
3367.27354	7.93712
3365.34497	8.05517
3363.41641	8.06573
3361.48784	8.01276
3359.55928	8.05534
3357.63071	8.14856
3355.70215	8.18729
3353.77358	8.16720
3351.84502	8.12088
3349.91646	8.09154
3347.98789	8.10565
3346.05933	8.13655
3344.13076	8.15518
3342.20220	8.17339
3340.27363	8.18644
3338.34507	8.17262
3336.41650	8.14082
3334.48794	8.14543
3332.55937	8.22752
3330.63081	8.36395
3328.70225	8.40091
3326.77368	8.34511
3324.84512	8.37143
3322.91655	8.43626
3320.98799	8.42946
3319.05942	8.39627
3317.13086	8.40533
3315.20229	8.37302
3313.27373	8.30477
3311.34517	8.33526
3309.41660	8.41357
3307.48804	8.40154
3305.55947	8.36023
3303.63091	8.35888
3301.70234	8.37190
3299.77378	8.42265
3297.84521	8.46701
3295.91665	8.43917
3293.98809	8.36427
3292.05952	8.32486
3290.13096	8.35367
3288.20239	8.39507
3286.27383	8.38985
3284.34526	8.33942
3282.41670	8.32066
3280.48813	8.35597
3278.55957	8.43976
3276.63101	8.51957
3274.70244	8.47821
3272.77388	8.37029
3270.84531	8.37732
3268.91675	8.52667
3266.98818	8.69445
3265.05962	8.76457
3263.13105	8.71910
3261.20249	8.63137
3259.27393	8.46093
3257.34536	8.27858
3255.41680	8.23361
3253.48823	8.29510
3251.55967	8.37997
3249.63110	8.47600
3247.70254	8.57696
3245.77397	8.58263
3243.84541	8.50364
3241.91685	8.50897
3239.98828	8.61053
3238.05972	8.63884
3236.13115	8.57475
3234.20259	8.51134
3232.27402	8.44472
3230.34546	8.41493
3228.41689	8.44360
3226.48833	8.49957
3224.55977	8.51757
3222.63120	8.43615
3220.70264	8.34121
3218.77407	8.28657
3216.84551	8.25445
3214.91694	8.27135
3212.98838	8.30776
3211.05981	8.30545
3209.13125	8.27223
3207.20269	8.24245
3205.27412	8.21460
3203.34556	8.14466
3201.41699	8.04523
3199.48843	7.94894
3197.55986	7.86196
3195.63130	7.78722
3193.70273	7.74537
3191.77417	7.75796
3189.84561	7.78441
3187.91704	7.76542
3185.98848	7.69493
3184.05991	7.61394
3182.13135	7.55867
3180.20278	7.52127
3178.27422	7.47109
3176.34565	7.39560
3174.41709	7.31350
3172.48853	7.25415
3170.55996	7.21708
3168.63140	7.16283
3166.70283	7.08231
3164.77427	7.02552
3162.84570	6.98438
3160.91714	6.89503
3158.98857	6.78620
3157.06001	6.71111
3155.13145	6.65675
3153.20288	6.60048
3151.27432	6.53637
3149.34575	6.46059
3147.41719	6.37833
3145.48862	6.29190
3143.56006	6.19650
3141.63149	6.11491
3139.70293	6.05947
3137.77437	6.00515
3135.84580	5.93831
3133.91724	5.87131
3131.98867	5.81180
3130.06011	5.75014
3128.13154	5.67508
3126.20298	5.58609
3124.27441	5.49817
3122.34585	5.42275
3120.41729	5.35457
3118.48872	5.28577
3116.56016	5.21370
3114.63159	5.14081
3112.70303	5.06904
3110.77446	4.99517
3108.84590	4.91659
3106.91733	4.83784
3104.98877	4.76587
3103.06021	4.69829
3101.13164	4.62698
3099.20308	4.55459
3097.27451	4.48858
3095.34595	4.42726
3093.41738	4.36366
3091.48882	4.29604
3089.56025	4.22966
3087.63169	4.16540
3085.70312	4.09992
3083.77456	4.03409
3081.84600	3.97036
3079.91743	3.90876
3077.98887	3.84726
3076.06030	3.78497
3074.13174	3.72234
3072.20317	3.65941
3070.27461	3.59770
3068.34604	3.53899
3066.41748	3.48203
3064.48892	3.42461
3062.56035	3.36769
3060.63179	3.31290
3058.70322	3.25844
3056.77466	3.20330
3054.84609	3.14889
3052.91753	3.09581
3050.98896	3.04329
3049.06040	2.99041
3047.13184	2.93842
3045.20327	2.88893
3043.27471	2.84054
3041.34614	2.79130
3039.41758	2.74178
3037.48901	2.69350
3035.56045	2.64671
3033.63188	2.60118
3031.70332	2.55656
3029.77476	2.51216
3027.84619	2.46779
3025.91763	2.42424
3023.98906	2.38202
3022.06050	2.34078
3020.13193	2.29982
3018.20337	2.25831
3016.27480	2.21660
3014.34624	2.17647
3012.41768	2.13832
3010.48911	2.10072
3008.56055	2.06316
3006.63198	2.02589
3004.70342	1.98874
3002.77485	1.95259
3000.84629	1.91812
2998.91772	1.88415
2996.98916	1.85045
2995.06060	1.81742
2993.13203	1.78443
2991.20347	1.75191
2989.27490	1.72074
2987.34634	1.69017
2985.41777	1.65950
2983.48921	1.62932
2981.56064	1.60001
2979.63208	1.57127
2977.70352	1.54286
2975.77495	1.51488
2973.84639	1.48725
2971.91782	1.45973
2969.98926	1.43282
2968.06069	1.40694
2966.13213	1.38145
2964.20356	1.35595
2962.27500	1.33088
2960.34644	1.30644
2958.41787	1.28223
2956.48931	1.25810
2954.56074	1.23434
2952.63218	1.21131
2950.70361	1.18884
2948.77505	1.16669
2946.84648	1.14490
2944.91792	1.12347
2942.98936	1.10229
2941.06079	1.08134
2939.13223	1.06051
2937.20366	1.03993
2935.27510	1.02012
2933.34653	1.00146
2931.41797	0.98340
2929.48940	0.96510
2927.56084	0.94715
2925.63228	0.93033
2923.70371	0.91415
2921.77515	0.89818
2919.84658	0.88221
2917.91802	0.86600
2915.98945	0.84947
2914.06089	0.83268
2912.13232	0.81620
2910.20376	0.80038
2908.27520	0.78522
2906.34663	0.77100
2904.41807	0.75764
2902.48950	0.74476
2900.56094	0.73179
2898.63237	0.71860
2896.70381	0.70598
2894.77524	0.69385
2892.84668	0.68152
2890.91812	0.66909
2888.98955	0.65699
2887.06099	0.64554
2885.13242	0.63479
2883.20386	0.62433
2881.27529	0.61398
2879.34673	0.60377
2877.41816	0.59351
2875.48960	0.58326
2873.56104	0.57314
2871.63247	0.56302
2869.70391	0.55288
2867.77534	0.54300
2865.84678	0.53324
2863.91821	0.52352
2861.98965	0.51406
2860.06108	0.50501
2858.13252	0.49651
2856.20396	0.48836
2854.27539	0.48016
2852.34683	0.47223
2850.41826	0.46485
2848.48970	0.45715
2846.56113	0.44888
2844.63257	0.44095
2842.70400	0.43367
2840.77544	0.42679
2838.84687	0.42052
2836.91831	0.41491
2834.98975	0.40929
2833.06118	0.40345
2831.13262	0.39762
2829.20405	0.39180
2827.27549	0.38590
2825.34692	0.38004
2823.41836	0.37444
2821.48979	0.36898
2819.56123	0.36352
2817.63267	0.35809
2815.70410	0.35266
2813.77554	0.34729
2811.84697	0.34203
2809.91841	0.33692
2807.98984	0.33188
2806.06128	0.32690
2804.13271	0.32207
2802.20415	0.31732
2800.27559	0.31254
2798.34702	0.30789
2796.41846	0.30347
2794.48989	0.29922
2792.56133	0.29507
2790.63276	0.29088
2788.70420	0.28677
2786.77563	0.28278
2784.84707	0.27875
2782.91851	0.27477
2780.98994	0.27092
2779.06138	0.26712
2777.13281	0.26346
2775.20425	0.25994
2773.27568	0.25648
2771.34712	0.25299
2769.41855	0.24949
2767.48999	0.24618
2765.56143	0.24310
2763.63286	0.24003
2761.70430	0.23697
2759.77573	0.23406
2757.84717	0.23116
2755.91860	0.22827
2753.99004	0.22553
2752.06147	0.22284
2750.13291	0.22013
2748.20435	0.21745
2746.27578	0.21484
2744.34722	0.21232
2742.41865	0.20985
2740.49009	0.20734
2738.56152	0.20481
2736.63296	0.20239
2734.70439	0.20018
2732.77583	0.19816
2730.84727	0.19617
2728.91870	0.19409
2726.99014	0.19188
2725.06157	0.18969
2723.13301	0.18767
2721.20444	0.18579
2719.27588	0.18400
2717.34731	0.18239
2715.41875	0.18091
2713.49019	0.17928
2711.56162	0.17741
2709.63306	0.17559
2707.70449	0.17401
2705.77593	0.17263
2703.84736	0.17128
2701.91880	0.16975
2699.99023	0.16813
2698.06167	0.16681
2696.13311	0.16565
2694.20454	0.16429
2692.27598	0.16289
2690.34741	0.16171
2688.41885	0.16066
2686.49028	0.15956
2684.56172	0.15841
2682.63315	0.15738
2680.70459	0.15649
2678.77603	0.15565
2676.84746	0.15468
2674.91890	0.15351
2672.99033	0.15239
2671.06177	0.15155
2669.13320	0.15086
2667.20464	0.15003
2665.27607	0.14915
2663.34751	0.14836
2661.41895	0.14769
2659.49038	0.14706
2657.56182	0.14631
2655.63325	0.14554
2653.70469	0.14494
2651.77612	0.14448
2649.84756	0.14407
2647.91899	0.14361
2645.99043	0.14302
2644.06187	0.14245
2642.13330	0.14211
2640.20474	0.14189
2638.27617	0.14159
2636.34761	0.14124
2634.41904	0.14089
2632.49048	0.14052
2630.56191	0.14019
2628.63335	0.13985
2626.70479	0.13949
2624.77622	0.13921
2622.84766	0.13894
2620.91909	0.13875
2618.99053	0.13881
2617.06196	0.13901
2615.13340	0.13899
2613.20483	0.13864
2611.27627	0.13838
2609.34771	0.13845
2607.41914	0.13859
2605.49058	0.13861
2603.56201	0.13866
2601.63345	0.13881
2599.70488	0.13892
2597.77632	0.13899
2595.84775	0.13912
2593.91919	0.13936
2591.99062	0.13969
2590.06206	0.14005
2588.13350	0.14035
2586.20493	0.14062
2584.27637	0.14090
2582.34780	0.14118
2580.41924	0.14148
2578.49067	0.14190
2576.56211	0.14227
2574.63354	0.14249
2572.70498	0.14271
2570.77642	0.14308
2568.84785	0.14365
2566.91929	0.14428
2564.99072	0.14473
2563.06216	0.14505
2561.13359	0.14552
2559.20503	0.14613
2557.27646	0.14668
2555.34790	0.14726
2553.41934	0.14797
2551.49077	0.14864
2549.56221	0.14919
2547.63364	0.14971
2545.70508	0.15028
2543.77651	0.15092
2541.84795	0.15160
2539.91938	0.15238
2537.99082	0.15319
2536.06226	0.15394
2534.13369	0.15477
2532.20513	0.15561
2530.27656	0.15624
2528.34800	0.15691
2526.41943	0.15772
2524.49087	0.15850
2522.56230	0.15927
2520.63374	0.16006
2518.70518	0.16082
2516.77661	0.16170
2514.84805	0.16266
2512.91948	0.16353
2510.99092	0.16437
2509.06235	0.16529
2507.13379	0.16620
2505.20522	0.16706
2503.27666	0.16795
2501.34810	0.16886
2499.41953	0.16970
2497.49097	0.17048
2495.56240	0.17130
2493.63384	0.17223
2491.70527	0.17328
2489.77671	0.17438
2487.84814	0.17538
2485.91958	0.17628
2483.99102	0.17709
2482.06245	0.17786
2480.13389	0.17874
2478.20532	0.17977
2476.27676	0.18085
2474.34819	0.18187
2472.41963	0.18280
2470.49106	0.18374
2468.56250	0.18475
2466.63394	0.18567
2464.70537	0.18655
2462.77681	0.18762
2460.84824	0.18876
2458.91968	0.18976
2456.99111	0.19071
2455.06255	0.19167
2453.13398	0.19260
2451.20542	0.19358
2449.27686	0.19465
2447.34829	0.19577
2445.41973	0.19691
2443.49116	0.19808
2441.56260	0.19921
2439.63403	0.20018
2437.70547	0.20114
2435.77690	0.20221
2433.84834	0.20328
2431.91978	0.20441
2429.99121	0.20561
2428.06265	0.20677
2426.13408	0.20785
2424.20552	0.20903
2422.27695	0.21037
2420.34839	0.21163
2418.41982	0.21268
2416.49126	0.21365
2414.56270	0.21474
2412.63413	0.21599
2410.70557	0.21732
2408.77700	0.21860
2406.84844	0.21976
2404.91987	0.22084
2402.99131	0.22198
2401.06274	0.22327
2399.13418	0.22467
2397.20562	0.22606
2395.27705	0.22734
2393.34849	0.22857
2391.41992	0.22991
2389.49136	0.23159
2387.56279	0.23401
2385.63423	0.23790
2383.70566	0.24393
2381.77710	0.25229
2379.84854	0.26267
2377.91997	0.27450
2375.99141	0.28764
2374.06284	0.30277
2372.13428	0.32030
2370.20571	0.33954
2368.27715	0.35906
2366.34858	0.37755
2364.42002	0.39412
2362.49146	0.40714
2360.56289	0.41431
2358.63433	0.41467
2356.70576	0.40770
2354.77720	0.39349
2352.84863	0.37489
2350.92007	0.35620
2348.99150	0.34464
2347.06294	0.34524
2345.13437	0.35835
2343.20581	0.37571
2341.27725	0.38497
2339.34868	0.38597
2337.42012	0.38444
2335.49155	0.38285
2333.56299	0.38108
2331.63442	0.37961
2329.70586	0.37817
2327.77729	0.37576
2325.84873	0.37194
2323.92017	0.36740
2321.99160	0.36263
2320.06304	0.35677
2318.13447	0.34989
2316.20591	0.34381
2314.27734	0.34023
2312.34878	0.33866
2310.42021	0.33715
2308.49165	0.33461
2306.56309	0.33138
2304.63452	0.32836
2302.70596	0.32649
2300.77739	0.32576
2298.84883	0.32526
2296.92026	0.32480
2294.99170	0.32465
2293.06313	0.32465
2291.13457	0.32448
2289.20601	0.32424
2287.27744	0.32417
2285.34888	0.32440
2283.42031	0.32521
2281.49175	0.32698
2279.56318	0.32953
2277.63462	0.33225
2275.70605	0.33482
2273.77749	0.33717
2271.84893	0.33927
2269.92036	0.34127
2267.99180	0.34335
2266.06323	0.34540
2264.13467	0.34730
2262.20610	0.34913
2260.27754	0.35096
2258.34897	0.35279
2256.42041	0.35460
2254.49185	0.35640
2252.56328	0.35820
2250.63472	0.35997
2248.70615	0.36181
2246.77759	0.36381
2244.84902	0.36587
2242.92046	0.36795
2240.99189	0.37007
2239.06333	0.37231
2237.13477	0.37461
2235.20620	0.37681
2233.27764	0.37891
2231.34907	0.38101
2229.42051	0.38323
2227.49194	0.38556
2225.56338	0.38786
2223.63481	0.39004
2221.70625	0.39218
2219.77769	0.39441
2217.84912	0.39667
2215.92056	0.39886
2213.99199	0.40092
2212.06343	0.40303
2210.13486	0.40526
2208.20630	0.40745
2206.27773	0.40954
2204.34917	0.41167
2202.42061	0.41385
2200.49204	0.41600
2198.56348	0.41803
2196.63491	0.41992
2194.70635	0.42176
2192.77778	0.42366
2190.84922	0.42565
2188.92065	0.42754
2186.99209	0.42931
2185.06353	0.43109
2183.13496	0.43285
2181.20640	0.43462
2179.27783	0.43634
2177.34927	0.43791
2175.42070	0.43943
2173.49214	0.44106
2171.56357	0.44269
2169.63501	0.44420
2167.70645	0.44564
2165.77788	0.44702
2163.84932	0.44823
2161.92075	0.44922
2159.99219	0.45018
2158.06362	0.45125
2156.13506	0.45225
2154.20649	0.45304
2152.27793	0.45371
2150.34937	0.45437
2148.42080	0.45507
2146.49224	0.45576
2144.56367	0.45626
2142.63511	0.45658
2140.70654	0.45686
2138.77798	0.45720
2136.84941	0.45751
2134.92085	0.45763
2132.99229	0.45751
2131.06372	0.45733
2129.13516	0.45721
2127.20659	0.45709
2125.27803	0.45690
2123.34946	0.45659
2121.42090	0.45616
2119.49233	0.45556
2117.56377	0.45486
2115.63521	0.45411
2113.70664	0.45327
2111.77808	0.45235
2109.84951	0.45139
2107.92095	0.45038
2105.99238	0.44927
2104.06382	0.44811
2102.13525	0.44690
2100.20669	0.44561
2098.27812	0.44418
2096.34956	0.44265
2094.42100	0.44111
2092.49243	0.43955
2090.56387	0.43794
2088.63530	0.43620
2086.70674	0.43434
2084.77817	0.43242
2082.84961	0.43055
2080.92104	0.42866
2078.99248	0.42660
2077.06392	0.42436
2075.13535	0.42211
2073.20679	0.41996
2071.27822	0.41789
2069.34966	0.41570
2067.42109	0.41329
2065.49253	0.41087
2063.56396	0.40844
2061.63540	0.40594
2059.70684	0.40348
2057.77827	0.40105
2055.84971	0.39855
2053.92114	0.39592
2051.99258	0.39327
2050.06401	0.39063
2048.13545	0.38793
2046.20688	0.38520
2044.27832	0.38258
2042.34976	0.38000
2040.42119	0.37729
2038.49263	0.37448
2036.56406	0.37170
2034.63550	0.36894
2032.70693	0.36615
2030.77837	0.36342
2028.84980	0.36070
2026.92124	0.35794
2024.99268	0.35514
2023.06411	0.35233
2021.13555	0.34955
2019.20698	0.34697
2017.27842	0.34451
2015.34985	0.34171
2013.42129	0.33866
2011.49272	0.33581
2009.56416	0.33318
2007.63560	0.33045
2005.70703	0.32757
2003.77847	0.32473
2001.84990	0.32206
1999.92134	0.31956
1997.99277	0.31704
1996.06421	0.31444
1994.13564	0.31215
1992.20708	0.31006
1990.27852	0.30756
1988.34995	0.30478
1986.42139	0.30204
1984.49282	0.29941
1982.56426	0.29697
1980.63569	0.29466
1978.70713	0.29235
1976.77856	0.29003
1974.85000	0.28781
1972.92144	0.28568
1970.99287	0.28362
1969.06431	0.28184
1967.13574	0.28011
1965.20718	0.27790
1963.27861	0.27548
1961.35005	0.27335
1959.42148	0.27150
1957.49292	0.26978
1955.56436	0.26814
1953.63579	0.26649
1951.70723	0.26474
1949.77866	0.26302
1947.85010	0.26148
1945.92153	0.26029
1943.99297	0.25943
1942.06440	0.25820
1940.13584	0.25617
1938.20728	0.25415
1936.27871	0.25267
1934.35015	0.25142
1932.42158	0.25019
1930.49302	0.24897
1928.56445	0.24783
1926.63589	0.24688
1924.70732	0.24641
1922.77876	0.24594
1920.85020	0.24487
1918.92163	0.24383
1916.99307	0.24294
1915.06450	0.24160
1913.13594	0.24041
1911.20737	0.23989
1909.27881	0.23949
1907.35024	0.23876
1905.42168	0.23788
1903.49312	0.23716
1901.56455	0.23652
1899.63599	0.23592
1897.70742	0.23556
1895.77886	0.23540
1893.85029	0.23514
1891.92173	0.23489
1889.99316	0.23504
1888.06460	0.23483
1886.13604	0.23411
1884.20747	0.23359
1882.27891	0.23331
1880.35034	0.23315
1878.42178	0.23312
1876.49321	0.23317
1874.56465	0.23314
1872.63608	0.23342
1870.70752	0.23462
1868.77896	0.23639
1866.85039	0.23673
1864.92183	0.23558
1862.99326	0.23482
1861.06470	0.23484
1859.13613	0.23514
1857.20757	0.23535
1855.27900	0.23564
1853.35044	0.23608
1851.42187	0.23674
1849.49331	0.23770
1847.56475	0.23904
1845.63618	0.24075
1843.70762	0.24214
1841.77905	0.24214
1839.85049	0.24174
1837.92192	0.24230
1835.99336	0.24331
1834.06479	0.24434
1832.13623	0.24590
1830.20767	0.24836
1828.27910	0.25018
1826.35054	0.25081
1824.42197	0.25163
1822.49341	0.25235
1820.56484	0.25306
1818.63628	0.25422
1816.70771	0.25582
1814.77915	0.25758
1812.85059	0.25974
1810.92202	0.26225
1808.99346	0.26430
1807.06489	0.26582
1805.13633	0.26756
1803.20776	0.27020
1801.27920	0.27346
1799.35063	0.27655
1797.42207	0.27894
1795.49351	0.28149
1793.56494	0.28507
1791.63638	0.28920
1789.70781	0.29174
1787.77925	0.29322
1785.85068	0.29604
1783.92212	0.30003
1781.99355	0.30437
1780.06499	0.30876
1778.13643	0.31293
1776.20786	0.31721
1774.27930	0.32269
1772.35073	0.32997
1770.42217	0.33631
1768.49360	0.34052
1766.56504	0.34471
1764.63647	0.34969
1762.70791	0.35601
1760.77935	0.36386
1758.85078	0.37085
1756.92222	0.37797
1754.99365	0.38569
1753.06509	0.39307
1751.13652	0.40282
1749.20796	0.41495
1747.27939	0.42566
1745.35083	0.43444
1743.42227	0.44390
1741.49370	0.45446
1739.56514	0.46679
1737.63657	0.47909
1735.70801	0.49066
1733.77944	0.50848
1731.85088	0.52801
1729.92231	0.54224
1727.99375	0.55672
1726.06519	0.57280
1724.13662	0.59112
1722.20806	0.61131
1720.27949	0.63067
1718.35093	0.65438
1716.42236	0.68807
1714.49380	0.71753
1712.56523	0.74039
1710.63667	0.76327
1708.70811	0.78900
1706.77954	0.81906
1704.85098	0.85457
1702.92241	0.88556
1700.99385	0.91644
1699.06528	0.96264
1697.13672	1.00428
1695.20815	1.04491
1693.27959	1.08333
1691.35103	1.11480
1689.42246	1.15237
1687.49390	1.19262
1685.56533	1.23225
1683.63677	1.29212
1681.70820	1.35081
1679.77964	1.38687
1677.85107	1.42239
1675.92251	1.46485
1673.99395	1.51753
1672.06538	1.56415
1670.13682	1.61022
1668.20825	1.66808
1666.27969	1.71241
1664.35112	1.75033
1662.42256	1.80012
1660.49399	1.85542
1658.56543	1.89740
1656.63687	1.93267
1654.70830	1.96769
1652.77974	2.02309
1650.85117	2.07385
1648.92261	2.09423
1646.99404	2.12329
1645.06548	2.15499
1643.13691	2.17312
1641.20835	2.18331
1639.27979	2.19415
1637.35122	2.20272
1635.42266	2.20446
1633.49409	2.19803
1631.56553	2.18649
1629.63696	2.17250
1627.70840	2.14887
1625.77983	2.12050
1623.85127	2.08403
1621.92271	2.03817
1619.99414	1.99612
1618.06558	1.95524
1616.13701	1.89659
1614.20845	1.83454
1612.27988	1.78697
1610.35132	1.73876
1608.42275	1.68619
1606.49419	1.63301
1604.56562	1.58369
1602.63706	1.53623
1600.70850	1.48945
1598.77993	1.44609
1596.85137	1.40575
1594.92280	1.36660
1592.99424	1.32821
1591.06567	1.29287
1589.13711	1.25962
1587.20854	1.22831
1585.27998	1.19945
1583.35142	1.17250
1581.42285	1.14765
1579.49429	1.12659
1577.56572	1.10818
1575.63716	1.08455
1573.70859	1.06155
1571.78003	1.04635
1569.85146	1.03137
1567.92290	1.01371
1565.99434	0.99921
1564.06577	0.98791
1562.13721	0.97961
1560.20864	0.97470
1558.28008	0.96575
1556.35151	0.95299
1554.42295	0.94389
1552.49438	0.93573
1550.56582	0.92748
1548.63726	0.91834
1546.70869	0.91009
1544.78013	0.90311
1542.85156	0.89617
1540.92300	0.88674
1538.99443	0.86847
1537.06587	0.85251
1535.13730	0.84302
1533.20874	0.83242
1531.28018	0.82015
1529.35161	0.81117
1527.42305	0.80375
1525.49448	0.79604
1523.56592	0.78941
1521.63735	0.78298
1519.70879	0.77462
1517.78022	0.76695
1515.85166	0.75882
1513.92310	0.75009
1511.99453	0.74323
1510.06597	0.73890
1508.13740	0.73657
1506.20884	0.72941
1504.28027	0.71843
1502.35171	0.71199
1500.42314	0.70811
1498.49458	0.70505
1496.56602	0.70085
1494.63745	0.69527
1492.70889	0.69111
1490.78032	0.68887
1488.85176	0.68618
1486.92319	0.68145
1484.99463	0.67655
1483.06606	0.67280
1481.13750	0.66983
1479.20894	0.66716
1477.28037	0.66531
1475.35181	0.66455
1473.42324	0.66398
1471.49468	0.66099
1469.56611	0.65633
1467.63755	0.65289
1465.70898	0.65062
1463.78042	0.64829
1461.85186	0.64644
1459.92329	0.64632
1457.99473	0.64734
1456.06616	0.64550
1454.13760	0.64085
1452.20903	0.63750
1450.28047	0.63532
1448.35190	0.63345
1446.42334	0.63110
1444.49478	0.62867
1442.56621	0.62667
1440.63765	0.62499
1438.70908	0.62393
1436.78052	0.62305
1434.85195	0.62099
1432.92339	0.61865
1430.99482	0.61712
1429.06626	0.61572
1427.13770	0.61423
1425.20913	0.61330
1423.28057	0.61274
1421.35200	0.61229
1419.42344	0.61227
1417.49487	0.61136
1415.56631	0.60892
1413.63774	0.60682
1411.70918	0.60559
1409.78062	0.60481
1407.85205	0.60435
1405.92349	0.60424
1403.99492	0.60385
1402.06636	0.60301
1400.13779	0.60233
1398.20923	0.60150
1396.28066	0.59995
1394.35210	0.59738
1392.42354	0.59419
1390.49497	0.59183
1388.56641	0.59043
1386.63784	0.58854
1384.70928	0.58556
1382.78071	0.58267
1380.85215	0.58047
1378.92358	0.57887
1376.99502	0.57773
1375.06646	0.57695
1373.13789	0.57586
1371.20933	0.57441
1369.28076	0.57314
1367.35220	0.57182
1365.42363	0.57068
1363.49507	0.57021
1361.56650	0.56951
1359.63794	0.56795
1357.70937	0.56650
1355.78081	0.56539
1353.85225	0.56431
1351.92368	0.56345
1349.99512	0.56289
1348.06655	0.56231
1346.13799	0.56148
1344.20942	0.56062
1342.28086	0.56014
1340.35229	0.56008
1338.42373	0.55961
1336.49517	0.55835
1334.56660	0.55701
1332.63804	0.55606
1330.70947	0.55542
1328.78091	0.55488
1326.85234	0.55437
1324.92378	0.55388
1322.99521	0.55349
1321.06665	0.55334
1319.13809	0.55324
1317.20952	0.55276
1315.28096	0.55202
1313.35239	0.55136
1311.42383	0.55065
1309.49526	0.54983
1307.56670	0.54909
1305.63813	0.54842
1303.70957	0.54769
1301.78101	0.54704
1299.85244	0.54641
1297.92388	0.54564
1295.99531	0.54478
1294.06675	0.54393
1292.13818	0.54305
1290.20962	0.54218
1288.28105	0.54144
1286.35249	0.54076
1284.42393	0.53997
1282.49536	0.53913
1280.56680	0.53840
1278.63823	0.53776
1276.70967	0.53714
1274.78110	0.53653
1272.85254	0.53601
1270.92397	0.53554
1268.99541	0.53498
1267.06685	0.53437
1265.13828	0.53383
1263.20972	0.53334
1261.28115	0.53293
1259.35259	0.53254
1257.42402	0.53204
1255.49546	0.53160
1253.56689	0.53141
1251.63833	0.53131
1249.70977	0.53114
1247.78120	0.53093
1245.85264	0.53077
1243.92407	0.53049
1241.99551	0.52998
1240.06694	0.52936
1238.13838	0.52861
1236.20981	0.52760
1234.28125	0.52655
1232.35269	0.52566
1230.42412	0.52490
1228.49556	0.52418
1226.56699	0.52328
1224.63843	0.52226
1222.70986	0.52128
1220.78130	0.52034
1218.85273	0.51948
1216.92417	0.51880
1214.99561	0.51823
1213.06704	0.51757
1211.13848	0.51685
1209.20991	0.51625
1207.28135	0.51573
1205.35278	0.51516
1203.42422	0.51457
1201.49565	0.51392
1199.56709	0.51323
1197.63853	0.51263
1195.70996	0.51210
1193.78140	0.51148
1191.85283	0.51094
1189.92427	0.51069
1187.99570	0.51063
1186.06714	0.51052
1184.13857	0.51025
1182.21001	0.51001
1180.28145	0.51017
1178.35288	0.51073
1176.42432	0.51145
1174.49575	0.51213
1172.56719	0.51270
1170.63862	0.51301
1168.71006	0.51294
1166.78149	0.51264
1164.85293	0.51237
1162.92437	0.51220
1160.99580	0.51205
1159.06724	0.51173
1157.13867	0.51109
1155.21011	0.51010
1153.28154	0.50883
1151.35298	0.50735
1149.42441	0.50556
1147.49585	0.50351
1145.56729	0.50130
1143.63872	0.49891
1141.71016	0.49644
1139.78159	0.49412
1137.85303	0.49203
1135.92446	0.49011
1133.99590	0.48835
1132.06733	0.48674
1130.13877	0.48523
1128.21021	0.48381
1126.28164	0.48235
1124.35308	0.48088
1122.42451	0.47986
1120.49595	0.47940
1118.56738	0.47900
1116.63882	0.47852
1114.71025	0.47841
1112.78169	0.47878
1110.85312	0.47927
1108.92456	0.47974
1106.99600	0.48039
1105.06743	0.48146
1103.13887	0.48305
1101.21030	0.48505
1099.28174	0.48734
1097.35317	0.48980
1095.42461	0.49255
1093.49604	0.49599
1091.56748	0.50007
1089.63892	0.50462
1087.71035	0.50985
1085.78179	0.51571
1083.85322	0.52201
1081.92466	0.52852
1079.99609	0.53436
1078.06753	0.53816
1076.13896	0.53933
1074.21040	0.53788
1072.28184	0.53383
1070.35327	0.52778
1068.42471	0.52121
1066.49614	0.51494
1064.56758	0.50877
1062.63901	0.50279
1060.71045	0.49748
1058.78188	0.49310
1056.85332	0.48940
1054.92476	0.48605
1052.99619	0.48302
1051.06763	0.48044
1049.13906	0.47829
1047.21050	0.47633
1045.28193	0.47452
1043.35337	0.47298
1041.42480	0.47183
1039.49624	0.47108
1037.56768	0.47063
1035.63911	0.47050
1033.71055	0.47057
1031.78198	0.47072
1029.85342	0.47100
1027.92485	0.47130
1025.99629	0.47167
1024.06772	0.47228
1022.13916	0.47299
1020.21060	0.47364
1018.28203	0.47433
1016.35347	0.47538
1014.42490	0.47676
1012.49634	0.47818
1010.56777	0.47959
1008.63921	0.48119
1006.71064	0.48307
1004.78208	0.48512
1002.85352	0.48735
1000.92495	0.48989
998.99639	0.49287
997.06782	0.49643
995.13926	0.50046
993.21069	0.50448
991.28213	0.50805
989.35356	0.51071
987.42500	0.51218
985.49644	0.51296
983.56787	0.51402
981.63931	0.51574
979.71074	0.51772
977.78218	0.51978
975.85361	0.52219
973.92505	0.52507
971.99648	0.52831
970.06792	0.53181
968.13936	0.53565
966.21079	0.53994
964.28223	0.54454
962.35366	0.54928
960.42510	0.55423
958.49653	0.55968
956.56797	0.56565
954.63940	0.57187
952.71084	0.57820
950.78228	0.58482
948.85371	0.59142
946.92515	0.59754
944.99658	0.60366
943.06802	0.60998
941.13945	0.61617
939.21089	0.62244
937.28232	0.62876
935.35376	0.63487
933.42520	0.64083
931.49663	0.64639
929.56807	0.65146
927.63950	0.65690
925.71094	0.66308
923.78237	0.66946
921.85381	0.67585
919.92524	0.68254
917.99668	0.68969
916.06812	0.69743
914.13955	0.70543
912.21099	0.71301
910.28242	0.72064
908.35386	0.72909
906.42529	0.73804
904.49673	0.74737
902.56816	0.75693
900.63960	0.76645
898.71104	0.77644
896.78247	0.78664
894.85391	0.79663
892.92534	0.80655
890.99678	0.81626
889.06821	0.82652
887.13965	0.83743
885.21108	0.84862
883.28252	0.86041
881.35396	0.87224
879.42539	0.88396
877.49683	0.89589
875.56826	0.90832
873.63970	0.92073
871.71113	0.93139
869.78257	0.94119
867.85400	0.95212
865.92544	0.96344
863.99687	0.97372
862.06831	0.98335
860.13975	0.99406
858.21118	1.00672
856.28262	1.01958
854.35405	1.03074
852.42549	1.04050
850.49692	1.05101
848.56836	1.06421
846.63979	1.07837
844.71123	1.09063
842.78267	1.10116
840.85410	1.11239
838.92554	1.12559
836.99697	1.13946
835.06841	1.15154
833.13984	1.16203
831.21128	1.17409
829.28271	1.18599
827.35415	1.19431
825.42559	1.20479
823.49702	1.22062
821.56846	1.23685
819.63989	1.25563
817.71133	1.27463
815.78276	1.28343
813.85420	1.28773
811.92563	1.30032
809.99707	1.32086
808.06851	1.33808
806.13994	1.34949
804.21138	1.36052
802.28281	1.37193
800.35425	1.39931
798.42568	1.45926
796.49712	1.49461
794.56855	1.46257
792.63999	1.46197
790.71143	1.52261
788.78286	1.54076
786.85430	1.51700
784.92573	1.58878
782.99717	1.73623
781.06860	1.71238
779.14004	1.66352
777.21147	1.81434
775.28291	2.07959
773.35435	1.94584
771.42578	1.75834
769.49722	1.73597
767.56865	1.88947
765.64009	1.80533
763.71152	1.51796
761.78296	1.44712
759.85439	1.62164
757.92583	1.75234
755.99727	1.52804
754.06870	1.43485
752.14014	1.60340
750.21157	2.18336
748.28301	1.88328
746.35444	1.54131
744.42588	1.32201
742.49731	1.16351
740.56875	1.07977
738.64019	0.98533
736.71162	0.87880
734.78306	0.81424
732.85449	0.74580
730.92593	0.64789
728.99736	0.53256
727.06880	0.38009
725.14023	0.23910
723.21167	0.17574
721.28311	0.09012
719.35454	-0.00713
717.42598	-0.03101
715.49741	-0.03078
713.56885	-0.02284
711.64028	-0.00584
709.71172	0.00329
707.78315	0.07148
705.85459	0.20033
703.92603	0.34315
701.99746	0.40227
700.06890	0.33903
698.14033	0.33736
696.21177	0.35413
694.28320	0.25411
692.35464	0.22259
690.42607	0.41855
688.49751	0.67235
686.56895	0.48258
684.64038	0.34203
682.71182	0.33539
680.78325	0.39657
678.85469	0.41564
676.92612	0.36922
674.99756	0.30378
673.06899	0.26166
671.14043	0.27234
669.21187	0.36799
667.28330	0.50922
665.35474	0.47618
663.42617	0.32727
661.49761	0.23464
659.56904	0.24820
657.64048	0.32621
655.71191	0.31620
653.78335	0.23082
651.85479	0.18333
649.92622	0.19026
647.99766	0.22668
646.06909	0.24055
644.14053	0.22027
642.21196	0.22536
640.28340	0.27499
638.35483	0.29495
636.42627	0.21940
634.49771	0.18697
632.56914	0.27431
630.64058	0.40326
628.71201	0.37973
626.78345	0.22702
624.85488	0.15015
622.92632	0.18459
620.99775	0.25357
619.06919	0.26788
617.14062	0.25684
615.21206	0.28227
613.28350	0.30540
611.35493	0.29425
609.42637	0.30885
607.49780	0.32754
605.56924	0.30693
603.64067	0.33775
601.71211	0.49199
599.78354	0.55046
597.85498	0.37656
595.92642	0.28944
593.99785	0.26413
592.06929	0.24707
590.14072	0.23538
588.21216	0.22071
586.28359	0.20548
584.35503	0.22167
582.42646	0.24197
580.49790	0.20155
578.56934	0.14873
576.64077	0.16243
574.71221	0.22045
572.78364	0.23675
570.85508	0.22128
568.92651	0.25280
566.99795	0.36562
565.06938	0.51717
563.14082	0.47731
561.21226	0.37188
559.28369	0.31643
557.35513	0.26202
555.42656	0.20561
553.49800	0.18160
551.56943	0.17187
549.64087	0.16390
547.71230	0.18800
545.78374	0.24000
543.85518	0.30160
541.92661	0.34366
539.99805	0.31152
538.06948	0.25551
536.14092	0.22667
534.21235	0.18625
532.28379	0.15529
530.35522	0.17867
528.42666	0.21994
526.49810	0.23167
524.56953	0.24764
522.64097	0.24182
520.71240	0.21096
518.78384	0.19079
516.85527	0.18383
514.92671	0.19457
512.99814	0.20796
511.06958	0.20053
509.14102	0.19300
507.21245	0.18057
505.28389	0.13286
503.35532	0.09788
501.42676	0.12241
499.49819	0.20145
