3997.91411	0.07237
3995.98555	0.07265
3994.05698	0.07326
3992.12842	0.07394
3990.19985	0.07437
3988.27129	0.07450
3986.34272	0.07451
3984.41416	0.07467
3982.48560	0.07504
3980.55703	0.07531
3978.62847	0.07544
3976.69990	0.07571
3974.77134	0.07602
3972.84277	0.07632
3970.91421	0.07653
3968.98564	0.07657
3967.05708	0.07671
3965.12852	0.07688
3963.19995	0.07688
3961.27139	0.07686
3959.34282	0.07697
3957.41426	0.07712
3955.48569	0.07727
3953.55713	0.07735
3951.62856	0.07733
3949.70000	0.07743
3947.77144	0.07770
3945.84287	0.07806
3943.91431	0.07865
3941.98574	0.07904
3940.05718	0.07851
3938.12861	0.07752
3936.20005	0.07703
3934.27148	0.07740
3932.34292	0.07830
3930.41436	0.07869
3928.48579	0.07817
3926.55723	0.07786
3924.62866	0.07800
3922.70010	0.07766
3920.77153	0.07721
3918.84297	0.07749
3916.91440	0.07808
3914.98584	0.07810
3913.05728	0.07731
3911.12871	0.07623
3909.20015	0.07562
3907.27158	0.07614
3905.34302	0.07773
3903.41445	0.07961
3901.48589	0.08051
3899.55732	0.08037
3897.62876	0.07956
3895.70020	0.07839
3893.77163	0.07798
3891.84307	0.07850
3889.91450	0.07867
3887.98594	0.07814
3886.05737	0.07812
3884.12881	0.07869
3882.20024	0.07911
3880.27168	0.07973
3878.34312	0.07994
3876.41455	0.07941
3874.48599	0.07954
3872.55742	0.08062
3870.62886	0.08183
3868.70029	0.08241
3866.77173	0.08197
3864.84316	0.08177
3862.91460	0.08211
3860.98604	0.08198
3859.05747	0.08162
3857.12891	0.08178
3855.20034	0.08305
3853.27178	0.08621
3851.34321	0.08842
3849.41465	0.08652
3847.48608	0.08420
3845.55752	0.08349
3843.62896	0.08457
3841.70039	0.08651
3839.77183	0.08845
3837.84326	0.09011
3835.91470	0.09064
3833.98613	0.09020
3832.05757	0.08987
3830.12900	0.08995
3828.20044	0.09044
3826.27187	0.09144
3824.34331	0.09243
3822.41475	0.09363
3820.48618	0.09605
3818.55762	0.09777
3816.62905	0.09815
3814.70049	0.09796
3812.77192	0.09685
3810.84336	0.09643
3808.91479	0.09753
3806.98623	0.09967
3805.05767	0.10163
3803.12910	0.10305
3801.20054	0.10504
3799.27197	0.10647
3797.34341	0.10668
3795.41484	0.10725
3793.48628	0.10773
3791.55771	0.10785
3789.62915	0.10844
3787.70059	0.10994
3785.77202	0.11219
3783.84346	0.11438
3781.91489	0.11590
3779.98633	0.11735
3778.05776	0.11896
3776.12920	0.11995
3774.20063	0.12089
3772.27207	0.12273
3770.34351	0.12546
3768.41494	0.12817
3766.48638	0.12994
3764.55781	0.13145
3762.62925	0.13318
3760.70068	0.13542
3758.77212	0.13876
3756.84355	0.14210
3754.91499	0.14395
3752.98643	0.14600
3751.05786	0.15052
3749.12930	0.15601
3747.20073	0.15914
3745.27217	0.16212
3743.34360	0.16734
3741.41504	0.17258
3739.48647	0.17703
3737.55791	0.18323
3735.62935	0.19238
3733.70078	0.20173
3731.77222	0.20743
3729.84365	0.21152
3727.91509	0.21611
3725.98652	0.22208
3724.05796	0.22831
3722.12939	0.23306
3720.20083	0.23678
3718.27227	0.24004
3716.34370	0.24354
3714.41514	0.24881
3712.48657	0.25899
3710.55801	0.27628
3708.62944	0.29379
3706.70088	0.30597
3704.77231	0.31695
3702.84375	0.32984
3700.91519	0.34614
3698.98662	0.36410
3697.05806	0.38165
3695.12949	0.40009
3693.20093	0.41925
3691.27236	0.43990
3689.34380	0.46611
3687.41523	0.49780
3685.48667	0.52649
3683.55811	0.55219
3681.62954	0.57992
3679.70098	0.61128
3677.77241	0.64480
3675.84385	0.68459
3673.91528	0.73688
3671.98672	0.77917
3670.05815	0.81740
3668.12959	0.87020
3666.20103	0.91797
3664.27246	0.95788
3662.34390	1.00131
3660.41533	1.04846
3658.48677	1.09480
3656.55820	1.14443
3654.62964	1.20007
3652.70107	1.24629
3650.77251	1.28636
3648.84395	1.34265
3646.91538	1.41202
3644.98682	1.46236
3643.05825	1.50081
3641.12969	1.54087
3639.20112	1.58606
3637.27256	1.63201
3635.34399	1.67689
3633.41543	1.72222
3631.48687	1.76458
3629.55830	1.80685
3627.62974	1.86226
3625.70117	1.91306
3623.77261	1.94601
3621.84404	1.97744
3619.91548	2.01357
3617.98691	2.05725
3616.05835	2.09892
3614.12979	2.13358
3612.20122	2.17186
3610.27266	2.21267
3608.34409	2.25472
3606.41553	2.29776
3604.48696	2.33604
3602.55840	2.37122
3600.62983	2.41067
3598.70127	2.45356
3596.77271	2.49474
3594.84414	2.53551
3592.91558	2.57628
3590.98701	2.61302
3589.05845	2.64701
3587.12988	2.68915
3585.20132	2.73578
3583.27275	2.77527
3581.34419	2.81270
3579.41562	2.85284
3577.48706	2.89455
3575.55850	2.93619
3573.62993	2.97938
3571.70137	3.02124
3569.77280	3.06045
3567.84424	3.10333
3565.91567	3.15634
3563.98711	3.20712
3562.05854	3.24836
3560.12998	3.28870
3558.20142	3.33187
3556.27285	3.37639
3554.34429	3.42028
3552.41572	3.46728
3550.48716	3.51645
3548.55859	3.56311
3546.63003	3.60843
3544.70146	3.65465
3542.77290	3.70117
3540.84434	3.74855
3538.91577	3.79674
3536.98721	3.84423
3535.05864	3.89406
3533.13008	3.94467
3531.20151	3.99192
3529.27295	4.03662
3527.34438	4.08218
3525.41582	4.12908
3523.48726	4.17822
3521.55869	4.23065
3519.63013	4.28182
3517.70156	4.33177
3515.77300	4.38148
3513.84443	4.42754
3511.91587	4.46933
3509.98730	4.51351
3508.05874	4.56339
3506.13018	4.61358
3504.20161	4.66307
3502.27305	4.71504
3500.34448	4.76661
3498.41592	4.81442
3496.48735	4.86223
3494.55879	4.91234
3492.63022	4.96245
3490.70166	5.01085
3488.77310	5.05785
3486.84453	5.10410
3484.91597	5.15286
3482.98740	5.20497
3481.05884	5.25689
3479.13027	5.30471
3477.20171	5.34735
3475.27314	5.39145
3473.34458	5.44364
3471.41602	5.50028
3469.48745	5.55480
3467.55889	5.60636
3465.63032	5.65643
3463.70176	5.70580
3461.77319	5.75414
3459.84463	5.80849
3457.91606	5.86392
3455.98750	5.91161
3454.05894	5.95979
3452.13037	6.00758
3450.20181	6.05355
3448.27324	6.10656
3446.34468	6.17028
3444.41611	6.23320
3442.48755	6.28232
3440.55898	6.31886
3438.63042	6.35821
3436.70186	6.40928
3434.77329	6.46503
3432.84473	6.51371
3430.91616	6.55033
3428.98760	6.57993
3427.05903	6.61622
3425.13047	6.68509
3423.20190	6.77145
3421.27334	6.84753
3419.34478	6.90524
3417.41621	6.93406
3415.48765	6.95586
3413.55908	7.00392
3411.63052	7.07853
3409.70195	7.15256
3407.77339	7.22445
3405.84482	7.29545
3403.91626	7.35604
3401.98770	7.39594
3400.05913	7.42743
3398.13057	7.45265
3396.20200	7.45048
3394.27344	7.46098
3392.34487	7.51244
3390.41631	7.57257
3388.48774	7.60498
3386.55918	7.63244
3384.63062	7.66138
3382.70205	7.69941
3380.77349	7.77978
3378.84492	7.87692
3376.91636	7.94884
3374.98779	7.96763
3373.05923	7.96552
3371.13066	7.98170
3369.20210	8.00004
3367.27354	8.01151
3365.34497	8.07028
3363.41641	8.14065
3361.48784	8.16589
3359.55928	8.20990
3357.63071	8.26943
3355.70215	8.31851
3353.77358	8.32447
3351.84502	8.26629
3349.91646	8.20005
3347.98789	8.22049
3346.05933	8.31905
3344.13076	8.41367
3342.20220	8.43728
3340.27363	8.33890
3338.34507	8.26253
3336.41650	8.31441
3334.48794	8.43427
3332.55937	8.47989
3330.63081	8.41226
3328.70225	8.33687
3326.77368	8.33884
3324.84512	8.45141
3322.91655	8.59569
3320.98799	8.63457
3319.05942	8.52286
3317.13086	8.39993
3315.20229	8.40367
3313.27373	8.51613
3311.34517	8.65074
3309.41660	8.75533
3307.48804	8.72363
3305.55947	8.60056
3303.63091	8.54181
3301.70234	8.52095
3299.77378	8.54435
3297.84521	8.63347
3295.91665	8.72245
3293.98809	8.68076
3292.05952	8.57718
3290.13096	8.58908
3288.20239	8.62155
3286.27383	8.50035
3284.34526	8.30472
3282.41670	8.27215
3280.48813	8.42411
3278.55957	8.51236
3276.63101	8.40924
3274.70244	8.26256
3272.77388	8.20403
3270.84531	8.25791
3268.91675	8.38067
3266.98818	8.55392
3265.05962	8.73295
3263.13105	8.76096
3261.20249	8.65105
3259.27393	8.53341
3257.34536	8.45068
3255.41680	8.40194
3253.48823	8.45737
3251.55967	8.63506
3249.63110	8.70689
3247.70254	8.51390
3245.77397	8.33121
3243.84541	8.44274
3241.91685	8.68725
3239.98828	8.76884
3238.05972	8.78250
3236.13115	8.67635
3234.20259	8.46304
3232.27402	8.35143
3230.34546	8.33698
3228.41689	8.34623
3226.48833	8.35731
3224.55977	8.35491
3222.63120	8.34995
3220.70264	8.35184
3218.77407	8.39075
3216.84551	8.45632
3214.91694	8.46539
3212.98838	8.43368
3211.05981	8.45061
3209.13125	8.45836
3207.20269	8.34764
3205.27412	8.22017
3203.34556	8.13860
3201.41699	8.06164
3199.48843	7.99644
3197.55986	7.91380
3195.63130	7.82105
3193.70273	7.78815
3191.77417	7.79297
3189.84561	7.76889
3187.91704	7.70945
3185.98848	7.66914
3184.05991	7.67518
3182.13135	7.67029
3180.20278	7.59899
3178.27422	7.48984
3176.34565	7.41471
3174.41709	7.36325
3172.48853	7.28115
3170.55996	7.19948
3168.63140	7.14680
3166.70283	7.08620
3164.77427	7.00982
3162.84570	6.94445
3160.91714	6.88519
3158.98857	6.82409
3157.06001	6.76061
3155.13145	6.68786
3153.20288	6.61278
3151.27432	6.53721
3149.34575	6.45833
3147.41719	6.38900
3145.48862	6.31797
3143.56006	6.22429
3141.63149	6.12825
3139.70293	6.05876
3137.77437	6.01140
3135.84580	5.94657
3133.91724	5.85179
3131.98867	5.76089
3130.06011	5.69182
3128.13154	5.62964
3126.20298	5.55172
3124.27441	5.46273
3122.34585	5.38840
3120.41729	5.33017
3118.48872	5.26622
3116.56016	5.19150
3114.63159	5.11593
3112.70303	5.04344
3110.77446	4.97136
3108.84590	4.89786
3106.91733	4.82687
3104.98877	4.75639
3103.06021	4.68249
3101.13164	4.60930
3099.20308	4.53860
3097.27451	4.46725
3095.34595	4.39850
3093.41738	4.33604
3091.48882	4.27227
3089.56025	4.20373
3087.63169	4.13691
3085.70312	4.07287
3083.77456	4.00829
3081.84600	3.94405
3079.91743	3.88150
3077.98887	3.81972
3076.06030	3.75836
3074.13174	3.69797
3072.20317	3.63809
3070.27461	3.57878
3068.34604	3.52094
3066.41748	3.46275
3064.48892	3.40366
3062.56035	3.34633
3060.63179	3.29070
3058.70322	3.23549
3056.77466	3.18162
3054.84609	3.12897
3052.91753	3.07596
3050.98896	3.02253
3049.06040	2.96983
3047.13184	2.91841
3045.20327	2.86833
3043.27471	2.82002
3041.34614	2.77282
3039.41758	2.72498
3037.48901	2.67675
3035.56045	2.62978
3033.63188	2.58444
3031.70332	2.53948
3029.77476	2.49375
3027.84619	2.44883
3025.91763	2.40604
3023.98906	2.36376
3022.06050	2.32152
3020.13193	2.28062
3018.20337	2.24089
3016.27480	2.20113
3014.34624	2.16134
3012.41768	2.12235
3010.48911	2.08444
3008.56055	2.04732
3006.63198	2.01067
3004.70342	1.97446
3002.77485	1.93844
3000.84629	1.90273
2998.91772	1.86806
2996.98916	1.83469
2995.06060	1.80226
2993.13203	1.77018
2991.20347	1.73789
2989.27490	1.70530
2987.34634	1.67310
2985.41777	1.64220
2983.48921	1.61234
2981.56064	1.58258
2979.63208	1.55299
2977.70352	1.52420
2975.77495	1.49598
2973.84639	1.46791
2971.91782	1.44007
2969.98926	1.41266
2968.06069	1.38584
2966.13213	1.35940
2964.20356	1.33346
2962.27500	1.30837
2960.34644	1.28394
2958.41787	1.26006
2956.48931	1.23664
2954.56074	1.21340
2952.63218	1.19031
2950.70361	1.16766
2948.77505	1.14596
2946.84648	1.12502
2944.91792	1.10418
2942.98936	1.08333
2941.06079	1.06241
2939.13223	1.04147
2937.20366	1.02115
2935.27510	1.00139
2933.34653	0.98175
2931.41797	0.96282
2929.48940	0.94508
2927.56084	0.92783
2925.63228	0.91028
2923.70371	0.89302
2921.77515	0.87692
2919.84658	0.86182
2917.91802	0.84721
2915.98945	0.83227
2914.06089	0.81663
2912.13232	0.80132
2910.20376	0.78684
2908.27520	0.77283
2906.34663	0.75922
2904.41807	0.74603
2902.48950	0.73301
2900.56094	0.72012
2898.63237	0.70772
2896.70381	0.69562
2894.77524	0.68327
2892.84668	0.67090
2890.91812	0.65911
2888.98955	0.64792
2887.06099	0.63688
2885.13242	0.62576
2883.20386	0.61463
2881.27529	0.60377
2879.34673	0.59325
2877.41816	0.58290
2875.48960	0.57286
2873.56104	0.56304
2871.63247	0.55307
2869.70391	0.54309
2867.77534	0.53352
2865.84678	0.52426
2863.91821	0.51500
2861.98965	0.50572
2860.06108	0.49660
2858.13252	0.48787
2856.20396	0.47960
2854.27539	0.47179
2852.34683	0.46433
2850.41826	0.45696
2848.48970	0.44958
2846.56113	0.44236
2844.63257	0.43555
2842.70400	0.42914
2840.77544	0.42303
2838.84687	0.41718
2836.91831	0.41153
2834.98975	0.40587
2833.06118	0.40007
2831.13262	0.39434
2829.20405	0.38868
2827.27549	0.38289
2825.34692	0.37709
2823.41836	0.37160
2821.48979	0.36618
2819.56123	0.36043
2817.63267	0.35466
2815.70410	0.34936
2813.77554	0.34439
2811.84697	0.33937
2809.91841	0.33430
2807.98984	0.32936
2806.06128	0.32454
2804.13271	0.31980
2802.20415	0.31540
2800.27559	0.31110
2798.34702	0.30658
2796.41846	0.30212
2794.48989	0.29799
2792.56133	0.29399
2790.63276	0.28992
2788.70420	0.28571
2786.77563	0.28151
2784.84707	0.27771
2782.91851	0.27417
2780.98994	0.27037
2779.06138	0.26650
2777.13281	0.26295
2775.20425	0.25962
2773.27568	0.25630
2771.34712	0.25292
2769.41855	0.24958
2767.48999	0.24646
2765.56143	0.24352
2763.63286	0.24044
2761.70430	0.23729
2759.77573	0.23440
2757.84717	0.23163
2755.91860	0.22872
2753.99004	0.22579
2752.06147	0.22307
2750.13291	0.22052
2748.20435	0.21800
2746.27578	0.21553
2744.34722	0.21314
2742.41865	0.21073
2740.49009	0.20837
2738.56152	0.20610
2736.63296	0.20385
2734.70439	0.20165
2732.77583	0.19949
2730.84727	0.19738
2728.91870	0.19542
2726.99014	0.19350
2725.06157	0.19150
2723.13301	0.18951
2721.20444	0.18766
2719.27588	0.18592
2717.34731	0.18421
2715.41875	0.18247
2713.49019	0.18069
2711.56162	0.17906
2709.63306	0.17764
2707.70449	0.17626
2705.77593	0.17480
2703.84736	0.17324
2701.91880	0.17168
2699.99023	0.17028
2698.06167	0.16895
2696.13311	0.16765
2694.20454	0.16647
2692.27598	0.16528
2690.34741	0.16397
2688.41885	0.16277
2686.49028	0.16167
2684.56172	0.16054
2682.63315	0.15944
2680.70459	0.15839
2678.77603	0.15739
2676.84746	0.15657
2674.91890	0.15584
2672.99033	0.15500
2671.06177	0.15404
2669.13320	0.15310
2667.20464	0.15219
2665.27607	0.15134
2663.34751	0.15059
2661.41895	0.14988
2659.49038	0.14920
2657.56182	0.14858
2655.63325	0.14798
2653.70469	0.14743
2651.77612	0.14695
2649.84756	0.14647
2647.91899	0.14595
2645.99043	0.14552
2644.06187	0.14517
2642.13330	0.14471
2640.20474	0.14428
2638.27617	0.14405
2636.34761	0.14377
2634.41904	0.14326
2632.49048	0.14275
2630.56191	0.14251
2628.63335	0.14244
2626.70479	0.14231
2624.77622	0.14219
2622.84766	0.14215
2620.91909	0.14201
2618.99053	0.14169
2617.06196	0.14138
2615.13340	0.14130
2613.20483	0.14125
2611.27627	0.14109
2609.34771	0.14112
2607.41914	0.14144
2605.49058	0.14167
2603.56201	0.14163
2601.63345	0.14159
2599.70488	0.14174
2597.77632	0.14198
2595.84775	0.14219
2593.91919	0.14236
2591.99062	0.14253
2590.06206	0.14275
2588.13350	0.14306
2586.20493	0.14337
2584.27637	0.14362
2582.34780	0.14391
2580.41924	0.14429
2578.49067	0.14460
2576.56211	0.14489
2574.63354	0.14528
2572.70498	0.14573
2570.77642	0.14614
2568.84785	0.14655
2566.91929	0.14700
2564.99072	0.14749
2563.06216	0.14799
2561.13359	0.14850
2559.20503	0.14908
2557.27646	0.14976
2555.34790	0.15046
2553.41934	0.15112
2551.49077	0.15170
2549.56221	0.15222
2547.63364	0.15280
2545.70508	0.15348
2543.77651	0.15410
2541.84795	0.15475
2539.91938	0.15557
2537.99082	0.15635
2536.06226	0.15704
2534.13369	0.15770
2532.20513	0.15838
2530.27656	0.15911
2528.34800	0.15990
2526.41943	0.16069
2524.49087	0.16154
2522.56230	0.16246
2520.63374	0.16338
2518.70518	0.16420
2516.77661	0.16495
2514.84805	0.16571
2512.91948	0.16653
2510.99092	0.16736
2509.06235	0.16815
2507.13379	0.16894
2505.20522	0.16987
2503.27666	0.17084
2501.34810	0.17172
2499.41953	0.17266
2497.49097	0.17363
2495.56240	0.17449
2493.63384	0.17532
2491.70527	0.17628
2489.77671	0.17732
2487.84814	0.17831
2485.91958	0.17922
2483.99102	0.18015
2482.06245	0.18117
2480.13389	0.18221
2478.20532	0.18319
2476.27676	0.18412
2474.34819	0.18510
2472.41963	0.18614
2470.49106	0.18710
2468.56250	0.18800
2466.63394	0.18887
2464.70537	0.18978
2462.77681	0.19085
2460.84824	0.19198
2458.91968	0.19299
2456.99111	0.19395
2455.06255	0.19504
2453.13398	0.19620
2451.20542	0.19732
2449.27686	0.19841
2447.34829	0.19943
2445.41973	0.20034
2443.49116	0.20135
2441.56260	0.20250
2439.63403	0.20364
2437.70547	0.20480
2435.77690	0.20588
2433.84834	0.20679
2431.91978	0.20771
2429.99121	0.20879
2428.06265	0.20996
2426.13408	0.21117
2424.20552	0.21240
2422.27695	0.21361
2420.34839	0.21471
2418.41982	0.21572
2416.49126	0.21682
2414.56270	0.21805
2412.63413	0.21936
2410.70557	0.22071
2408.77700	0.22202
2406.84844	0.22310
2404.91987	0.22404
2402.99131	0.22513
2401.06274	0.22648
2399.13418	0.22791
2397.20562	0.22919
2395.27705	0.23033
2393.34849	0.23156
2391.41992	0.23315
2389.49136	0.23525
2387.56279	0.23836
2385.63423	0.24355
2383.70566	0.25182
2381.77710	0.26335
2379.84854	0.27753
2377.91997	0.29388
2375.99141	0.31262
2374.06284	0.33429
2372.13428	0.35918
2370.20571	0.38676
2368.27715	0.41508
2366.34858	0.44198
2364.42002	0.46575
2362.49146	0.48397
2360.56289	0.49437
2358.63433	0.49538
2356.70576	0.48448
2354.77720	0.46224
2352.84863	0.43334
2350.92007	0.40388
2348.99150	0.38573
2347.06294	0.38601
2345.13437	0.40469
2343.20581	0.43021
2341.27725	0.44336
2339.34868	0.44345
2337.42012	0.44010
2335.49155	0.43730
2333.56299	0.43448
2331.63442	0.43214
2329.70586	0.42984
2327.77729	0.42590
2325.84873	0.41922
2323.92017	0.41043
2321.99160	0.40105
2320.06304	0.39161
2318.13447	0.38194
2316.20591	0.37308
2314.27734	0.36683
2312.34878	0.36337
2310.42021	0.36049
2308.49165	0.35615
2306.56309	0.35052
2304.63452	0.34506
2302.70596	0.34135
2300.77739	0.33943
2298.84883	0.33795
2296.92026	0.33637
2294.99170	0.33491
2293.06313	0.33356
2291.13457	0.33229
2289.20601	0.33119
2287.27744	0.33018
2285.34888	0.32934
2283.42031	0.32940
2281.49175	0.33099
2279.56318	0.33362
2277.63462	0.33641
2275.70605	0.33902
2273.77749	0.34142
2271.84893	0.34357
2269.92036	0.34553
2267.99180	0.34734
2266.06323	0.34908
2264.13467	0.35094
2262.20610	0.35281
2260.27754	0.35448
2258.34897	0.35607
2256.42041	0.35770
2254.49185	0.35930
2252.56328	0.36084
2250.63472	0.36242
2248.70615	0.36420
2246.77759	0.36618
2244.84902	0.36825
2242.92046	0.37036
2240.99189	0.37239
2239.06333	0.37434
2237.13477	0.37646
2235.20620	0.37867
2233.27764	0.38077
2231.34907	0.38291
2229.42051	0.38512
2227.49194	0.38719
2225.56338	0.38918
2223.63481	0.39131
2221.70625	0.39369
2219.77769	0.39617
2217.84912	0.39842
2215.92056	0.40038
2213.99199	0.40240
2212.06343	0.40463
2210.13486	0.40690
2208.20630	0.40914
2206.27773	0.41123
2204.34917	0.41319
2202.42061	0.41524
2200.49204	0.41739
2198.56348	0.41949
2196.63491	0.42159
2194.70635	0.42373
2192.77778	0.42574
2190.84922	0.42755
2188.92065	0.42932
2186.99209	0.43120
2185.06353	0.43307
2183.13496	0.43476
2181.20640	0.43635
2179.27783	0.43799
2177.34927	0.43966
2175.42070	0.44123
2173.49214	0.44268
2171.56357	0.44408
2169.63501	0.44543
2167.70645	0.44676
2165.77788	0.44814
2163.84932	0.44950
2161.92075	0.45077
2159.99219	0.45188
2158.06362	0.45279
2156.13506	0.45368
2154.20649	0.45464
2152.27793	0.45556
2150.34937	0.45635
2148.42080	0.45698
2146.49224	0.45749
2144.56367	0.45803
2142.63511	0.45858
2140.70654	0.45900
2138.77798	0.45926
2136.84941	0.45943
2134.92085	0.45959
2132.99229	0.45966
2131.06372	0.45963
2129.13516	0.45946
2127.20659	0.45916
2125.27803	0.45892
2123.34946	0.45862
2121.42090	0.45809
2119.49233	0.45744
2117.56377	0.45683
2115.63521	0.45613
2113.70664	0.45523
2111.77808	0.45426
2109.84951	0.45338
2107.92095	0.45251
2105.99238	0.45145
2104.06382	0.45021
2102.13525	0.44895
2100.20669	0.44770
2098.27812	0.44633
2096.34956	0.44484
2094.42100	0.44333
2092.49243	0.44177
2090.56387	0.44007
2088.63530	0.43832
2086.70674	0.43671
2084.77817	0.43506
2082.84961	0.43316
2080.92104	0.43107
2078.99248	0.42897
2077.06392	0.42691
2075.13535	0.42483
2073.20679	0.42269
2071.27822	0.42043
2069.34966	0.41811
2067.42109	0.41582
2065.49253	0.41356
2063.56396	0.41119
2061.63540	0.40868
2059.70684	0.40616
2057.77827	0.40368
2055.84971	0.40118
2053.92114	0.39864
2051.99258	0.39606
2050.06401	0.39346
2048.13545	0.39088
2046.20688	0.38829
2044.27832	0.38572
2042.34976	0.38311
2040.42119	0.38042
2038.49263	0.37769
2036.56406	0.37498
2034.63550	0.37224
2032.70693	0.36938
2030.77837	0.36649
2028.84980	0.36373
2026.92124	0.36105
2024.99268	0.35831
2023.06411	0.35550
2021.13555	0.35271
2019.20698	0.35008
2017.27842	0.34754
2015.34985	0.34483
2013.42129	0.34198
2011.49272	0.33910
2009.56416	0.33625
2007.63560	0.33352
2005.70703	0.33089
2003.77847	0.32824
2001.84990	0.32556
1999.92134	0.32287
1997.99277	0.32021
1996.06421	0.31764
1994.13564	0.31523
1992.20708	0.31288
1990.27852	0.31034
1988.34995	0.30773
1986.42139	0.30521
1984.49282	0.30281
1982.56426	0.30043
1980.63569	0.29801
1978.70713	0.29568
1976.77856	0.29346
1974.85000	0.29128
1972.92144	0.28913
1970.99287	0.28709
1969.06431	0.28518
1967.13574	0.28319
1965.20718	0.28098
1963.27861	0.27873
1961.35005	0.27666
1959.42148	0.27474
1957.49292	0.27286
1955.56436	0.27098
1953.63579	0.26920
1951.70723	0.26753
1949.77866	0.26589
1947.85010	0.26435
1945.92153	0.26303
1943.99297	0.26183
1942.06440	0.26049
1940.13584	0.25886
1938.20728	0.25717
1936.27871	0.25565
1934.35015	0.25424
1932.42158	0.25295
1930.49302	0.25176
1928.56445	0.25060
1926.63589	0.24952
1924.70732	0.24870
1922.77876	0.24797
1920.85020	0.24700
1918.92163	0.24604
1916.99307	0.24521
1915.06450	0.24422
1913.13594	0.24315
1911.20737	0.24227
1909.27881	0.24162
1907.35024	0.24106
1905.42168	0.24037
1903.49312	0.23966
1901.56455	0.23906
1899.63599	0.23849
1897.70742	0.23802
1895.77886	0.23775
1893.85029	0.23747
1891.92173	0.23713
1889.99316	0.23707
1888.06460	0.23696
1886.13604	0.23651
1884.20747	0.23600
1882.27891	0.23562
1880.35034	0.23543
1878.42178	0.23535
1876.49321	0.23530
1874.56465	0.23529
1872.63608	0.23549
1870.70752	0.23604
1868.77896	0.23691
1866.85039	0.23722
1864.92183	0.23686
1862.99326	0.23672
1861.06470	0.23692
1859.13613	0.23728
1857.20757	0.23761
1855.27900	0.23800
1853.35044	0.23841
1851.42187	0.23889
1849.49331	0.23944
1847.56475	0.24019
1845.63618	0.24128
1843.70762	0.24252
1841.77905	0.24324
1839.85049	0.24348
1837.92192	0.24408
1835.99336	0.24499
1834.06479	0.24596
1832.13623	0.24707
1830.20767	0.24871
1828.27910	0.25032
1826.35054	0.25136
1824.42197	0.25256
1822.49341	0.25367
1820.56484	0.25471
1818.63628	0.25604
1816.70771	0.25769
1814.77915	0.25927
1812.85059	0.26099
1810.92202	0.26305
1808.99346	0.26508
1807.06489	0.26700
1805.13633	0.26899
1803.20776	0.27127
1801.27920	0.27390
1799.35063	0.27679
1797.42207	0.27935
1795.49351	0.28183
1793.56494	0.28482
1791.63638	0.28861
1789.70781	0.29192
1787.77925	0.29428
1785.85068	0.29733
1783.92212	0.30108
1781.99355	0.30509
1780.06499	0.30934
1778.13643	0.31366
1776.20786	0.31773
1774.27930	0.32227
1772.35073	0.32848
1770.42217	0.33499
1768.49360	0.34016
1766.56504	0.34504
1764.63647	0.35010
1762.70791	0.35596
1760.77935	0.36359
1758.85078	0.37073
1756.92222	0.37788
1754.99365	0.38572
1753.06509	0.39295
1751.13652	0.40158
1749.20796	0.41231
1747.27939	0.42270
1745.35083	0.43185
1743.42227	0.44162
1741.49370	0.45239
1739.56514	0.46501
1737.63657	0.47755
1735.70801	0.48850
1733.77944	0.50509
1731.85088	0.52498
1729.92231	0.54052
1727.99375	0.55609
1726.06519	0.57276
1724.13662	0.59113
1722.20806	0.61126
1720.27949	0.63010
1718.35093	0.65231
1716.42236	0.68492
1714.49380	0.71529
1712.56523	0.73933
1710.63667	0.76279
1708.70811	0.78838
1706.77954	0.81767
1704.85098	0.85259
1702.92241	0.88359
1700.99385	0.91411
1699.06528	0.95945
1697.13672	1.00040
1695.20815	1.04128
1693.27959	1.08066
1691.35103	1.11240
1689.42246	1.14923
1687.49390	1.18798
1685.56533	1.22498
1683.63677	1.28134
1681.70820	1.33923
1679.77964	1.37601
1677.85107	1.41118
1675.92251	1.45184
1673.99395	1.50189
1672.06538	1.54599
1670.13682	1.58924
1668.20825	1.64439
1666.27969	1.68738
1664.35112	1.72317
1662.42256	1.76783
1660.49399	1.81666
1658.56543	1.85375
1656.63687	1.88498
1654.70830	1.91618
1652.77974	1.97047
1650.85117	2.02535
1648.92261	2.04841
1646.99404	2.07922
1645.06548	2.11354
1643.13691	2.13390
1641.20835	2.14592
1639.27979	2.15654
1637.35122	2.16376
1635.42266	2.16898
1633.49409	2.16961
1631.56553	2.16221
1629.63696	2.15062
1627.70840	2.12732
1625.77983	2.09867
1623.85127	2.06398
1621.92271	2.02091
1619.99414	1.98098
1618.06558	1.94168
1616.13701	1.88557
1614.20845	1.82654
1612.27988	1.78075
1610.35132	1.73365
1608.42275	1.68279
1606.49419	1.63167
1604.56562	1.58351
1602.63706	1.53679
1600.70850	1.49149
1598.77993	1.44956
1596.85137	1.40963
1594.92280	1.37084
1592.99424	1.33300
1591.06567	1.29771
1589.13711	1.26420
1587.20854	1.23224
1585.27998	1.20166
1583.35142	1.17248
1581.42285	1.14578
1579.49429	1.12291
1577.56572	1.10188
1575.63716	1.07477
1573.70859	1.04973
1571.78003	1.03296
1569.85146	1.01462
1567.92290	0.99302
1565.99434	0.97568
1564.06577	0.96106
1562.13721	0.94889
1560.20864	0.93866
1558.28008	0.91922
1556.35151	0.89947
1554.42295	0.88739
1552.49438	0.87607
1550.56582	0.86510
1548.63726	0.85402
1546.70869	0.84463
1544.78013	0.83669
1542.85156	0.82890
1540.92300	0.82031
1538.99443	0.80768
1537.06587	0.79753
1535.13730	0.79106
1533.20874	0.78364
1531.28018	0.77534
1529.35161	0.76897
1527.42305	0.76327
1525.49448	0.75744
1523.56592	0.75216
1521.63735	0.74656
1519.70879	0.73991
1517.78022	0.73414
1515.85166	0.72827
1513.92310	0.72234
1511.99453	0.71767
1510.06597	0.71421
1508.13740	0.71172
1506.20884	0.70701
1504.28027	0.70077
1502.35171	0.69662
1500.42314	0.69345
1498.49458	0.69052
1496.56602	0.68715
1494.63745	0.68353
1492.70889	0.68074
1490.78032	0.67881
1488.85176	0.67645
1486.92319	0.67318
1484.99463	0.66992
1483.06606	0.66713
1481.13750	0.66473
1479.20894	0.66241
1477.28037	0.66033
1475.35181	0.65862
1473.42324	0.65672
1471.49468	0.65352
1469.56611	0.65001
1467.63755	0.64727
1465.70898	0.64481
1463.78042	0.64194
1461.85186	0.63925
1459.92329	0.63758
1457.99473	0.63650
1456.06616	0.63401
1454.13760	0.63035
1452.20903	0.62740
1450.28047	0.62491
1448.35190	0.62260
1446.42334	0.62021
1444.49478	0.61790
1442.56621	0.61598
1440.63765	0.61433
1438.70908	0.61296
1436.78052	0.61175
1434.85195	0.61019
1432.92339	0.60850
1430.99482	0.60720
1429.06626	0.60599
1427.13770	0.60460
1425.20913	0.60332
1423.28057	0.60206
1421.35200	0.60075
1419.42344	0.59961
1417.49487	0.59817
1415.56631	0.59609
1413.63774	0.59404
1411.70918	0.59226
1409.78062	0.59062
1407.85205	0.58905
1405.92349	0.58771
1403.99492	0.58642
1402.06636	0.58504
1400.13779	0.58382
1398.20923	0.58272
1396.28066	0.58143
1394.35210	0.57975
1392.42354	0.57794
1390.49497	0.57651
1388.56641	0.57539
1386.63784	0.57419
1384.70928	0.57269
1382.78071	0.57129
1380.85215	0.57015
1378.92358	0.56908
1376.99502	0.56811
1375.06646	0.56741
1373.13789	0.56664
1371.20933	0.56559
1369.28076	0.56461
1367.35220	0.56375
1365.42363	0.56292
1363.49507	0.56223
1361.56650	0.56146
1359.63794	0.56035
1357.70937	0.55928
1355.78081	0.55838
1353.85225	0.55747
1351.92368	0.55645
1349.99512	0.55546
1348.06655	0.55460
1346.13799	0.55377
1344.20942	0.55293
1342.28086	0.55222
1340.35229	0.55175
1338.42373	0.55118
1336.49517	0.55014
1334.56660	0.54888
1332.63804	0.54782
1330.70947	0.54708
1328.78091	0.54643
1326.85234	0.54562
1324.92378	0.54473
1322.99521	0.54402
1321.06665	0.54344
1319.13809	0.54276
1317.20952	0.54196
1315.28096	0.54124
1313.35239	0.54066
1311.42383	0.53993
1309.49526	0.53898
1307.56670	0.53798
1305.63813	0.53694
1303.70957	0.53582
1301.78101	0.53486
1299.85244	0.53419
1297.92388	0.53359
1295.99531	0.53281
1294.06675	0.53188
1292.13818	0.53104
1290.20962	0.53049
1288.28105	0.53005
1286.35249	0.52961
1284.42393	0.52919
1282.49536	0.52870
1280.56680	0.52818
1278.63823	0.52777
1276.70967	0.52743
1274.78110	0.52697
1272.85254	0.52638
1270.92397	0.52580
1268.99541	0.52528
1267.06685	0.52484
1265.13828	0.52443
1263.20972	0.52404
1261.28115	0.52364
1259.35259	0.52323
1257.42402	0.52288
1255.49546	0.52254
1253.56689	0.52225
1251.63833	0.52208
1249.70977	0.52186
1247.78120	0.52153
1245.85264	0.52118
1243.92407	0.52080
1241.99551	0.52048
1240.06694	0.52018
1238.13838	0.51968
1236.20981	0.51903
1234.28125	0.51833
1232.35269	0.51773
1230.42412	0.51735
1228.49556	0.51697
1226.56699	0.51641
1224.63843	0.51587
1222.70986	0.51537
1220.78130	0.51475
1218.85273	0.51395
1216.92417	0.51315
1214.99561	0.51251
1213.06704	0.51204
1211.13848	0.51161
1209.20991	0.51112
1207.28135	0.51057
1205.35278	0.50999
1203.42422	0.50931
1201.49565	0.50860
1199.56709	0.50807
1197.63853	0.50775
1195.70996	0.50736
1193.78140	0.50692
1191.85283	0.50653
1189.92427	0.50614
1187.99570	0.50570
1186.06714	0.50532
1184.13857	0.50515
1182.21001	0.50528
1180.28145	0.50562
1178.35288	0.50593
1176.42432	0.50627
1174.49575	0.50679
1172.56719	0.50739
1170.63862	0.50796
1168.71006	0.50839
1166.78149	0.50864
1164.85293	0.50885
1162.92437	0.50906
1160.99580	0.50908
1159.06724	0.50868
1157.13867	0.50777
1155.21011	0.50665
1153.28154	0.50556
1151.35298	0.50423
1149.42441	0.50237
1147.49585	0.50022
1145.56729	0.49810
1143.63872	0.49600
1141.71016	0.49378
1139.78159	0.49146
1137.85303	0.48922
1135.92446	0.48715
1133.99590	0.48533
1132.06733	0.48379
1130.13877	0.48234
1128.21021	0.48093
1126.28164	0.47966
1124.35308	0.47849
1122.42451	0.47735
1120.49595	0.47636
1118.56738	0.47563
1116.63882	0.47504
1114.71025	0.47461
1112.78169	0.47455
1110.85312	0.47481
1108.92456	0.47513
1106.99600	0.47561
1105.06743	0.47641
1103.13887	0.47753
1101.21030	0.47926
1099.28174	0.48175
1097.35317	0.48451
1095.42461	0.48732
1093.49604	0.49059
1091.56748	0.49456
1089.63892	0.49914
1087.71035	0.50439
1085.78179	0.51034
1083.85322	0.51660
1081.92466	0.52287
1079.99609	0.52871
1078.06753	0.53286
1076.13896	0.53407
1074.21040	0.53225
1072.28184	0.52817
1070.35327	0.52273
1068.42471	0.51640
1066.49614	0.50961
1064.56758	0.50318
1062.63901	0.49767
1060.71045	0.49289
1058.78188	0.48842
1056.85332	0.48433
1054.92476	0.48096
1052.99619	0.47824
1051.06763	0.47600
1049.13906	0.47419
1047.21050	0.47268
1045.28193	0.47150
1043.35337	0.47066
1041.42480	0.46983
1039.49624	0.46891
1037.56768	0.46827
1035.63911	0.46797
1033.71055	0.46783
1031.78198	0.46786
1029.85342	0.46802
1027.92485	0.46824
1025.99629	0.46859
1024.06772	0.46933
1022.13916	0.47037
1020.21060	0.47126
1018.28203	0.47197
1016.35347	0.47289
1014.42490	0.47414
1012.49634	0.47561
1010.56777	0.47732
1008.63921	0.47918
1006.71064	0.48107
1004.78208	0.48310
1002.85352	0.48538
1000.92495	0.48803
998.99639	0.49118
997.06782	0.49473
995.13926	0.49844
993.21069	0.50208
991.28213	0.50543
989.35356	0.50825
987.42500	0.51028
985.49644	0.51150
983.56787	0.51245
981.63931	0.51378
979.71074	0.51571
977.78218	0.51809
975.85361	0.52073
973.92505	0.52348
971.99648	0.52637
970.06792	0.52986
968.13936	0.53408
966.21079	0.53849
964.28223	0.54283
962.35366	0.54758
960.42510	0.55297
958.49653	0.55863
956.56797	0.56444
954.63940	0.57055
952.71084	0.57677
950.78228	0.58296
948.85371	0.58916
946.92515	0.59538
944.99658	0.60183
943.06802	0.60846
941.13945	0.61484
939.21089	0.62108
937.28232	0.62723
935.35376	0.63287
933.42520	0.63821
931.49663	0.64362
929.56807	0.64928
927.63950	0.65522
925.71094	0.66108
923.78237	0.66753
921.85381	0.67504
919.92524	0.68219
917.99668	0.68814
916.06812	0.69410
914.13955	0.70121
912.21099	0.70903
910.28242	0.71731
908.35386	0.72627
906.42529	0.73530
904.49673	0.74427
902.56816	0.75392
900.63960	0.76451
898.71104	0.77495
896.78247	0.78396
894.85391	0.79272
892.92534	0.80312
890.99678	0.81434
889.06821	0.82440
887.13965	0.83436
885.21108	0.84600
883.28252	0.85873
881.35396	0.87239
879.42539	0.88555
877.49683	0.89551
875.56826	0.90407
873.63970	0.91466
871.71113	0.92698
869.78257	0.93983
867.85400	0.95296
865.92544	0.96379
863.99687	0.97199
862.06831	0.98226
860.13975	0.99540
858.21118	1.00799
856.28262	1.01922
854.35405	1.03075
852.42549	1.04379
850.49692	1.05782
848.56836	1.07053
846.63979	1.08150
844.71123	1.09168
842.78267	1.10022
840.85410	1.10969
838.92554	1.12406
836.99697	1.14117
835.06841	1.15481
833.13984	1.16567
831.21128	1.18178
829.28271	1.20136
827.35415	1.21631
825.42559	1.22707
823.49702	1.23609
821.56846	1.24651
819.63989	1.26314
817.71133	1.27968
815.78276	1.28983
813.85420	1.30087
811.92563	1.31933
809.99707	1.34648
808.06851	1.38304
806.13994	1.42468
804.21138	1.46197
802.28281	1.48701
800.35425	1.48320
798.42568	1.46670
796.49712	1.47862
794.56855	1.50811
792.63999	1.53743
790.71143	1.60098
788.78286	1.69063
786.85430	1.76097
784.92573	1.95039
782.99717	2.14377
781.06860	1.84700
779.14004	1.62279
777.21147	1.52616
775.28291	1.41577
773.35435	1.34184
771.42578	1.35667
769.49722	1.37896
767.56865	1.34593
765.64009	1.31533
763.71152	1.26866
761.78296	1.18695
759.85439	1.12495
757.92583	1.07338
755.99727	1.01337
754.06870	1.01130
752.14014	1.04769
750.21157	1.04933
748.28301	1.11435
746.35444	1.21519
744.42588	1.07244
742.49731	0.92839
740.56875	0.91125
738.64019	0.92215
736.71162	0.84482
734.78306	0.72534
732.85449	0.60451
730.92593	0.48319
728.99736	0.36673
727.06880	0.28860
725.14023	0.28704
723.21167	0.29189
721.28311	0.18841
719.35454	0.06363
717.42598	0.02509
715.49741	0.11761
713.56885	0.28342
711.64028	0.23266
709.71172	0.11954
707.78315	0.05847
705.85459	-0.05314
703.92603	-0.11384
701.99746	-0.03090
700.06890	0.04664
698.14033	0.08796
696.21177	0.16969
694.28320	0.24781
692.35464	0.21663
690.42607	0.16899
688.49751	0.15912
686.56895	0.11512
684.64038	0.04656
682.71182	0.07420
680.78325	0.17258
678.85469	0.21386
676.92612	0.17877
674.99756	0.11862
673.06899	0.09071
671.14043	0.10894
669.21187	0.17621
667.28330	0.22656
665.35474	0.16298
663.42617	0.12907
661.49761	0.16041
659.56904	0.19151
657.64048	0.17170
655.71191	0.17559
653.78335	0.22305
651.85479	0.24779
649.92622	0.23838
647.99766	0.13785
646.06909	-0.00245
644.14053	0.00492
642.21196	0.11408
640.28340	0.12018
638.35483	0.06553
636.42627	0.12306
634.49771	0.22090
632.56914	0.21540
630.64058	0.19566
628.71201	0.18959
626.78345	0.16418
624.85488	0.13681
622.92632	0.13911
620.99775	0.15118
619.06919	0.13850
617.14062	0.11282
615.21206	0.08591
613.28350	0.09226
611.35493	0.14568
609.42637	0.17505
607.49780	0.16777
605.56924	0.19349
603.64067	0.17990
601.71211	0.09968
599.78354	0.03954
597.85498	0.05246
595.92642	0.09585
593.99785	0.11053
592.06929	0.09140
590.14072	0.06324
588.21216	0.06823
586.28359	0.12454
584.35503	0.17838
582.42646	0.16942
580.49790	0.11398
578.56934	0.06041
576.64077	0.03889
574.71221	0.04470
572.78364	0.03898
570.85508	0.01831
568.92651	0.04616
566.99795	0.14794
565.06938	0.21766
563.14082	0.17166
561.21226	0.10362
559.28369	0.13723
557.35513	0.19725
555.42656	0.17497
553.49800	0.09955
551.56943	0.02555
549.64087	0.02715
547.71230	0.08346
545.78374	0.12315
543.85518	0.12914
541.92661	0.14161
539.99805	0.15680
538.06948	0.13330
536.14092	0.10642
534.21235	0.11891
532.28379	0.13925
530.35522	0.17101
528.42666	0.23569
526.49810	0.26875
524.56953	0.20441
522.64097	0.13263
520.71240	0.11540
518.78384	0.13027
516.85527	0.12560
514.92671	0.12059
512.99814	0.13953
511.06958	0.15207
509.14102	0.13123
507.21245	0.09727
505.28389	0.08509
503.35532	0.08261
501.42676	0.06005
499.49819	0.03458
