3997.91411	0.04910
3995.98555	0.04925
3994.05698	0.04942
3992.12842	0.04987
3990.19985	0.05061
3988.27129	0.05109
3986.34272	0.05102
3984.41416	0.05090
3982.48560	0.05107
3980.55703	0.05132
3978.62847	0.05154
3976.69990	0.05195
3974.77134	0.05242
3972.84277	0.05268
3970.91421	0.05280
3968.98564	0.05293
3967.05708	0.05314
3965.12852	0.05329
3963.19995	0.05323
3961.27139	0.05332
3959.34282	0.05357
3957.41426	0.05364
3955.48569	0.05370
3953.55713	0.05376
3951.62856	0.05381
3949.70000	0.05412
3947.77144	0.05466
3945.84287	0.05486
3943.91431	0.05446
3941.98574	0.05394
3940.05718	0.05365
3938.12861	0.05336
3936.20005	0.05335
3934.27148	0.05388
3932.34292	0.05456
3930.41436	0.05491
3928.48579	0.05476
3926.55723	0.05442
3924.62866	0.05439
3922.70010	0.05445
3920.77153	0.05426
3918.84297	0.05409
3916.91440	0.05416
3914.98584	0.05410
3913.05728	0.05374
3911.12871	0.05343
3909.20015	0.05326
3907.27158	0.05348
3905.34302	0.05404
3903.41445	0.05405
3901.48589	0.05326
3899.55732	0.05326
3897.62876	0.05399
3895.70020	0.05386
3893.77163	0.05334
3891.84307	0.05362
3889.91450	0.05420
3887.98594	0.05402
3886.05737	0.05391
3884.12881	0.05441
3882.20024	0.05484
3880.27168	0.05511
3878.34312	0.05535
3876.41455	0.05543
3874.48599	0.05577
3872.55742	0.05659
3870.62886	0.05723
3868.70029	0.05709
3866.77173	0.05640
3864.84316	0.05623
3862.91460	0.05681
3860.98604	0.05728
3859.05747	0.05750
3857.12891	0.05759
3855.20034	0.05743
3853.27178	0.05780
3851.34321	0.05947
3849.41465	0.06004
3847.48608	0.05965
3845.55752	0.05966
3843.62896	0.06052
3841.70039	0.06198
3839.77183	0.06339
3837.84326	0.06439
3835.91470	0.06460
3833.98613	0.06417
3832.05757	0.06393
3830.12900	0.06441
3828.20044	0.06532
3826.27187	0.06642
3824.34331	0.06729
3822.41475	0.06777
3820.48618	0.06895
3818.55762	0.07031
3816.62905	0.07092
3814.70049	0.07207
3812.77192	0.07320
3810.84336	0.07367
3808.91479	0.07427
3806.98623	0.07547
3805.05767	0.07682
3803.12910	0.07783
3801.20054	0.07960
3799.27197	0.08188
3797.34341	0.08285
3795.41484	0.08340
3793.48628	0.08391
3791.55771	0.08425
3789.62915	0.08516
3787.70059	0.08673
3785.77202	0.08844
3783.84346	0.09003
3781.91489	0.09146
3779.98633	0.09305
3778.05776	0.09498
3776.12920	0.09654
3774.20063	0.09785
3772.27207	0.09937
3770.34351	0.10118
3768.41494	0.10327
3766.48638	0.10539
3764.55781	0.10762
3762.62925	0.10957
3760.70068	0.11122
3758.77212	0.11350
3756.84355	0.11617
3754.91499	0.11814
3752.98643	0.11997
3751.05786	0.12309
3749.12930	0.12756
3747.20073	0.13081
3745.27217	0.13334
3743.34360	0.13751
3741.41504	0.14195
3739.48647	0.14554
3737.55791	0.14974
3735.62935	0.15540
3733.70078	0.16191
3731.77222	0.16790
3729.84365	0.17356
3727.91509	0.17889
3725.98652	0.18460
3724.05796	0.19078
3722.12939	0.19674
3720.20083	0.20280
3718.27227	0.20873
3716.34370	0.21440
3714.41514	0.22042
3712.48657	0.22888
3710.55801	0.24271
3708.62944	0.25844
3706.70088	0.27080
3704.77231	0.28226
3702.84375	0.29552
3700.91519	0.31202
3698.98662	0.33003
3697.05806	0.34730
3695.12949	0.36548
3693.20093	0.38483
3691.27236	0.40550
3689.34380	0.43145
3687.41523	0.46450
3685.48667	0.49529
3683.55811	0.52194
3681.62954	0.54969
3679.70098	0.58040
3677.77241	0.61241
3675.84385	0.65009
3673.91528	0.70205
3671.98672	0.74573
3670.05815	0.78425
3668.12959	0.83734
3666.20103	0.88648
3664.27246	0.92727
3662.34390	0.97053
3660.41533	1.01697
3658.48677	1.06246
3656.55820	1.11079
3654.62964	1.16528
3652.70107	1.21131
3650.77251	1.25088
3648.84395	1.30557
3646.91538	1.37410
3644.98682	1.42555
3643.05825	1.46481
3641.12969	1.50437
3639.20112	1.54850
3637.27256	1.59373
3635.34399	1.63780
3633.41543	1.68177
3631.48687	1.72263
3629.55830	1.76274
3627.62974	1.81571
3625.70117	1.86685
3623.77261	1.90089
3621.84404	1.93231
3619.91548	1.96815
3617.98691	2.01287
3616.05835	2.05744
3614.12979	2.09406
3612.20122	2.13222
3610.27266	2.17223
3608.34409	2.21308
3606.41553	2.25616
3604.48696	2.29623
3602.55840	2.33151
3600.62983	2.36929
3598.70127	2.41091
3596.77271	2.45179
3594.84414	2.49314
3592.91558	2.53443
3590.98701	2.57092
3589.05845	2.60371
3587.12988	2.64479
3585.20132	2.69401
3583.27275	2.73692
3581.34419	2.77485
3579.41562	2.81464
3577.48706	2.85752
3575.55850	2.90139
3573.62993	2.94481
3571.70137	2.98455
3569.77280	3.02197
3567.84424	3.06364
3565.91567	3.11724
3563.98711	3.17094
3562.05854	3.21392
3560.12998	3.25541
3558.20142	3.29929
3556.27285	3.34320
3554.34429	3.38517
3552.41572	3.42891
3550.48716	3.47628
3548.55859	3.52265
3546.63003	3.56636
3544.70146	3.61199
3542.77290	3.65916
3540.84434	3.70540
3538.91577	3.75264
3536.98721	3.80153
3535.05864	3.85296
3533.13008	3.90297
3531.20151	3.94894
3529.27295	3.99437
3527.34438	4.04185
3525.41582	4.08810
3523.48726	4.13312
3521.55869	4.18094
3519.63013	4.23224
3517.70156	4.28718
3515.77300	4.33631
3513.84443	4.37585
3511.91587	4.41967
3509.98730	4.47248
3508.05874	4.52545
3506.13018	4.57550
3504.20161	4.62286
3502.27305	4.66843
3500.34448	4.71604
3498.41592	4.76276
3496.48735	4.80749
3494.55879	4.85566
3492.63022	4.90970
3490.70166	4.96520
3488.77310	5.01010
3486.84453	5.04296
3484.91597	5.08159
3482.98740	5.13058
3481.05884	5.17907
3479.13027	5.22295
3477.20171	5.26821
3475.27314	5.32095
3473.34458	5.37877
3471.41602	5.43073
3469.48745	5.47567
3467.55889	5.52309
3465.63032	5.56952
3463.70176	5.61311
3461.77319	5.65855
3459.84463	5.70895
3457.91606	5.75785
3455.98750	5.79945
3454.05894	5.85256
3452.13037	5.92362
3450.20181	5.98410
3448.27324	6.01956
3446.34468	6.05716
3444.41611	6.11168
3442.48755	6.16489
3440.55898	6.20704
3438.63042	6.24456
3436.70186	6.27650
3434.77329	6.31586
3432.84473	6.37247
3430.91616	6.41412
3428.98760	6.44743
3427.05903	6.51572
3425.13047	6.61071
3423.20190	6.68410
3421.27334	6.72109
3419.34478	6.73364
3417.41621	6.74648
3415.48765	6.78347
3413.55908	6.82314
3411.63052	6.85192
3409.70195	6.90164
3407.77339	6.98162
3405.84482	7.03238
3403.91626	7.03739
3401.98770	7.02872
3400.05913	7.03272
3398.13057	7.07882
3396.20200	7.14921
3394.27344	7.20543
3392.34487	7.23742
3390.41631	7.26908
3388.48774	7.32244
3386.55918	7.40122
3384.63062	7.45858
3382.70205	7.48043
3380.77349	7.51337
3378.84492	7.55852
3376.91636	7.59308
3374.98779	7.56958
3373.05923	7.51497
3371.13066	7.50434
3369.20210	7.52912
3367.27354	7.53576
3365.34497	7.53040
3363.41641	7.55252
3361.48784	7.61547
3359.55928	7.66791
3357.63071	7.63743
3355.70215	7.59256
3353.77358	7.60083
3351.84502	7.64514
3349.91646	7.72197
3347.98789	7.83664
3346.05933	7.89041
3344.13076	7.82091
3342.20220	7.76705
3340.27363	7.79640
3338.34507	7.85543
3336.41650	7.89607
3334.48794	7.89816
3332.55937	7.85295
3330.63081	7.79979
3328.70225	7.79127
3326.77368	7.86417
3324.84512	7.96653
3322.91655	7.96751
3320.98799	7.89950
3319.05942	7.86121
3317.13086	7.87091
3315.20229	7.93993
3313.27373	8.05233
3311.34517	8.05896
3309.41660	7.94200
3307.48804	7.89382
3305.55947	7.92934
3303.63091	7.95925
3301.70234	7.99732
3299.77378	7.98692
3297.84521	7.87761
3295.91665	7.82052
3293.98809	7.81621
3292.05952	7.78756
3290.13096	7.82655
3288.20239	7.95848
3286.27383	8.04916
3284.34526	8.04729
3282.41670	8.00797
3280.48813	7.91939
3278.55957	7.80272
3276.63101	7.71891
3274.70244	7.74162
3272.77388	7.86178
3270.84531	7.94795
3268.91675	7.95218
3266.98818	7.94554
3265.05962	7.93112
3263.13105	7.85346
3261.20249	7.77655
3259.27393	7.77119
3257.34536	7.83587
3255.41680	7.95583
3253.48823	8.09579
3251.55967	8.13289
3249.63110	8.01763
3247.70254	7.93752
3245.77397	7.99121
3243.84541	8.07685
3241.91685	8.09134
3239.98828	8.09428
3238.05972	8.09854
3236.13115	8.05801
3234.20259	8.02153
3232.27402	7.96953
3230.34546	7.86302
3228.41689	7.80034
3226.48833	7.82153
3224.55977	7.82545
3222.63120	7.76453
3220.70264	7.70412
3218.77407	7.72430
3216.84551	7.81124
3214.91694	7.84901
3212.98838	7.78950
3211.05981	7.74464
3209.13125	7.75742
3207.20269	7.72623
3205.27412	7.65961
3203.34556	7.63095
3201.41699	7.65445
3199.48843	7.68252
3197.55986	7.61945
3195.63130	7.49764
3193.70273	7.43901
3191.77417	7.44790
3189.84561	7.43665
3187.91704	7.39217
3185.98848	7.33604
3184.05991	7.25579
3182.13135	7.17294
3180.20278	7.12024
3178.27422	7.09526
3176.34565	7.07877
3174.41709	7.05127
3172.48853	7.00546
3170.55996	6.95245
3168.63140	6.89996
3166.70283	6.84470
3164.77427	6.78741
3162.84570	6.73222
3160.91714	6.66258
3158.98857	6.58678
3157.06001	6.53203
3155.13145	6.46462
3153.20288	6.36975
3151.27432	6.29683
3149.34575	6.25060
3147.41719	6.19343
3145.48862	6.12360
3143.56006	6.05559
3141.63149	5.98600
3139.70293	5.92149
3137.77437	5.87154
3135.84580	5.81760
3133.91724	5.74534
3131.98867	5.66896
3130.06011	5.59723
3128.13154	5.52760
3126.20298	5.46397
3124.27441	5.40216
3122.34585	5.33025
3120.41729	5.25222
3118.48872	5.17814
3116.56016	5.10943
3114.63159	5.04307
3112.70303	4.97697
3110.77446	4.90881
3108.84590	4.83737
3106.91733	4.76793
3104.98877	4.70240
3103.06021	4.63639
3101.13164	4.57094
3099.20308	4.50778
3097.27451	4.44231
3095.34595	4.37394
3093.41738	4.30744
3091.48882	4.24362
3089.56025	4.18113
3087.63169	4.12077
3085.70312	4.06253
3083.77456	4.00413
3081.84600	3.94426
3079.91743	3.88317
3077.98887	3.82110
3076.06030	3.75854
3074.13174	3.69704
3072.20317	3.63861
3070.27461	3.58355
3068.34604	3.52853
3066.41748	3.47097
3064.48892	3.41355
3062.56035	3.35863
3060.63179	3.30478
3058.70322	3.25104
3056.77466	3.19820
3054.84609	3.14654
3052.91753	3.09487
3050.98896	3.04287
3049.06040	2.99238
3047.13184	2.94301
3045.20327	2.89262
3043.27471	2.84208
3041.34614	2.79315
3039.41758	2.74653
3037.48901	2.70146
3035.56045	2.65595
3033.63188	2.60982
3031.70332	2.56393
3029.77476	2.51874
3027.84619	2.47565
3025.91763	2.43446
3023.98906	2.39239
3022.06050	2.34946
3020.13193	2.30769
3018.20337	2.26709
3016.27480	2.22724
3014.34624	2.18819
3012.41768	2.14944
3010.48911	2.11093
3008.56055	2.07355
3006.63198	2.03724
3004.70342	2.00139
3002.77485	1.96596
3000.84629	1.93114
2998.91772	1.89711
2996.98916	1.86418
2995.06060	1.83225
2993.13203	1.80086
2991.20347	1.76990
2989.27490	1.73959
2987.34634	1.71000
2985.41777	1.68099
2983.48921	1.65230
2981.56064	1.62387
2979.63208	1.59624
2977.70352	1.56991
2975.77495	1.54395
2973.84639	1.51762
2971.91782	1.49189
2969.98926	1.46720
2968.06069	1.44298
2966.13213	1.41931
2964.20356	1.39598
2962.27500	1.37199
2960.34644	1.34725
2958.41787	1.32271
2956.48931	1.29907
2954.56074	1.27587
2952.63218	1.25250
2950.70361	1.22926
2948.77505	1.20660
2946.84648	1.18443
2944.91792	1.16285
2942.98936	1.14203
2941.06079	1.12172
2939.13223	1.10185
2937.20366	1.08239
2935.27510	1.06297
2933.34653	1.04333
2931.41797	1.02386
2929.48940	1.00539
2927.56084	0.98778
2925.63228	0.96986
2923.70371	0.95159
2921.77515	0.93359
2919.84658	0.91608
2917.91802	0.89912
2915.98945	0.88232
2914.06089	0.86551
2912.13232	0.84914
2910.20376	0.83361
2908.27520	0.81850
2906.34663	0.80322
2904.41807	0.78838
2902.48950	0.77454
2900.56094	0.76111
2898.63237	0.74785
2896.70381	0.73493
2894.77524	0.72239
2892.84668	0.71021
2890.91812	0.69834
2888.98955	0.68687
2887.06099	0.67573
2885.13242	0.66476
2883.20386	0.65414
2881.27529	0.64406
2879.34673	0.63430
2877.41816	0.62454
2875.48960	0.61481
2873.56104	0.60511
2871.63247	0.59502
2869.70391	0.58420
2867.77534	0.57314
2865.84678	0.56231
2863.91821	0.55152
2861.98965	0.54089
2860.06108	0.53081
2858.13252	0.52099
2856.20396	0.51120
2854.27539	0.50183
2852.34683	0.49326
2850.41826	0.48501
2848.48970	0.47658
2846.56113	0.46831
2844.63257	0.46075
2842.70400	0.45379
2840.77544	0.44695
2838.84687	0.44037
2836.91831	0.43426
2834.98975	0.42829
2833.06118	0.42228
2831.13262	0.41645
2829.20405	0.41070
2827.27549	0.40488
2825.34692	0.39902
2823.41836	0.39310
2821.48979	0.38711
2819.56123	0.38119
2817.63267	0.37551
2815.70410	0.37009
2813.77554	0.36470
2811.84697	0.35916
2809.91841	0.35367
2807.98984	0.34847
2806.06128	0.34345
2804.13271	0.33841
2802.20415	0.33328
2800.27559	0.32820
2798.34702	0.32339
2796.41846	0.31884
2794.48989	0.31432
2792.56133	0.30974
2790.63276	0.30525
2788.70420	0.30089
2786.77563	0.29658
2784.84707	0.29235
2782.91851	0.28825
2780.98994	0.28430
2779.06138	0.28046
2777.13281	0.27663
2775.20425	0.27271
2773.27568	0.26875
2771.34712	0.26498
2769.41855	0.26141
2767.48999	0.25788
2765.56143	0.25446
2763.63286	0.25118
2761.70430	0.24791
2759.77573	0.24461
2757.84717	0.24144
2755.91860	0.23853
2753.99004	0.23573
2752.06147	0.23282
2750.13291	0.22991
2748.20435	0.22714
2746.27578	0.22439
2744.34722	0.22163
2742.41865	0.21888
2740.49009	0.21613
2738.56152	0.21353
2736.63296	0.21105
2734.70439	0.20867
2732.77583	0.20639
2730.84727	0.20416
2728.91870	0.20191
2726.99014	0.19976
2725.06157	0.19764
2723.13301	0.19540
2721.20444	0.19315
2719.27588	0.19105
2717.34731	0.18914
2715.41875	0.18736
2713.49019	0.18568
2711.56162	0.18404
2709.63306	0.18240
2707.70449	0.18072
2705.77593	0.17902
2703.84736	0.17741
2701.91880	0.17589
2699.99023	0.17433
2698.06167	0.17283
2696.13311	0.17150
2694.20454	0.17017
2692.27598	0.16874
2690.34741	0.16735
2688.41885	0.16611
2686.49028	0.16490
2684.56172	0.16375
2682.63315	0.16272
2680.70459	0.16167
2678.77603	0.16057
2676.84746	0.15952
2674.91890	0.15847
2672.99033	0.15729
2671.06177	0.15607
2669.13320	0.15503
2667.20464	0.15412
2665.27607	0.15324
2663.34751	0.15245
2661.41895	0.15168
2659.49038	0.15090
2657.56182	0.15021
2655.63325	0.14957
2653.70469	0.14891
2651.77612	0.14823
2649.84756	0.14758
2647.91899	0.14695
2645.99043	0.14627
2644.06187	0.14566
2642.13330	0.14526
2640.20474	0.14482
2638.27617	0.14421
2636.34761	0.14371
2634.41904	0.14334
2632.49048	0.14299
2630.56191	0.14266
2628.63335	0.14240
2626.70479	0.14207
2624.77622	0.14164
2622.84766	0.14119
2620.91909	0.14078
2618.99053	0.14046
2617.06196	0.14028
2615.13340	0.14023
2613.20483	0.14029
2611.27627	0.14037
2609.34771	0.14032
2607.41914	0.14012
2605.49058	0.13995
2603.56201	0.13987
2601.63345	0.13984
2599.70488	0.13988
2597.77632	0.13999
2595.84775	0.14010
2593.91919	0.14017
2591.99062	0.14023
2590.06206	0.14038
2588.13350	0.14054
2586.20493	0.14068
2584.27637	0.14091
2582.34780	0.14115
2580.41924	0.14136
2578.49067	0.14164
2576.56211	0.14196
2574.63354	0.14224
2572.70498	0.14256
2570.77642	0.14286
2568.84785	0.14307
2566.91929	0.14335
2564.99072	0.14391
2563.06216	0.14459
2561.13359	0.14513
2559.20503	0.14553
2557.27646	0.14595
2555.34790	0.14642
2553.41934	0.14684
2551.49077	0.14726
2549.56221	0.14787
2547.63364	0.14854
2545.70508	0.14905
2543.77651	0.14949
2541.84795	0.15001
2539.91938	0.15062
2537.99082	0.15131
2536.06226	0.15200
2534.13369	0.15266
2532.20513	0.15330
2530.27656	0.15395
2528.34800	0.15468
2526.41943	0.15546
2524.49087	0.15616
2522.56230	0.15680
2520.63374	0.15748
2518.70518	0.15820
2516.77661	0.15900
2514.84805	0.15985
2512.91948	0.16074
2510.99092	0.16168
2509.06235	0.16262
2507.13379	0.16338
2505.20522	0.16401
2503.27666	0.16470
2501.34810	0.16548
2499.41953	0.16635
2497.49097	0.16724
2495.56240	0.16801
2493.63384	0.16872
2491.70527	0.16952
2489.77671	0.17042
2487.84814	0.17132
2485.91958	0.17219
2483.99102	0.17309
2482.06245	0.17401
2480.13389	0.17494
2478.20532	0.17586
2476.27676	0.17676
2474.34819	0.17767
2472.41963	0.17854
2470.49106	0.17935
2468.56250	0.18019
2466.63394	0.18107
2464.70537	0.18192
2462.77681	0.18275
2460.84824	0.18368
2458.91968	0.18478
2456.99111	0.18591
2455.06255	0.18695
2453.13398	0.18789
2451.20542	0.18882
2449.27686	0.18973
2447.34829	0.19057
2445.41973	0.19139
2443.49116	0.19239
2441.56260	0.19358
2439.63403	0.19484
2437.70547	0.19602
2435.77690	0.19700
2433.84834	0.19790
2431.91978	0.19894
2429.99121	0.20006
2428.06265	0.20110
2426.13408	0.20218
2424.20552	0.20331
2422.27695	0.20437
2420.34839	0.20542
2418.41982	0.20650
2416.49126	0.20764
2414.56270	0.20875
2412.63413	0.20976
2410.70557	0.21078
2408.77700	0.21198
2406.84844	0.21323
2404.91987	0.21437
2402.99131	0.21550
2401.06274	0.21673
2399.13418	0.21800
2397.20562	0.21918
2395.27705	0.22038
2393.34849	0.22175
2391.41992	0.22330
2389.49136	0.22498
2387.56279	0.22694
2385.63423	0.22973
2383.70566	0.23399
2381.77710	0.23983
2379.84854	0.24689
2377.91997	0.25490
2375.99141	0.26406
2374.06284	0.27460
2372.13428	0.28622
2370.20571	0.29856
2368.27715	0.31140
2366.34858	0.32388
2364.42002	0.33475
2362.49146	0.34358
2360.56289	0.34974
2358.63433	0.35140
2356.70576	0.34748
2354.77720	0.33882
2352.84863	0.32765
2350.92007	0.31604
2348.99150	0.30863
2347.06294	0.30932
2345.13437	0.31829
2343.20581	0.32951
2341.27725	0.33556
2339.34868	0.33739
2337.42012	0.33773
2335.49155	0.33735
2333.56299	0.33654
2331.63442	0.33634
2329.70586	0.33647
2327.77729	0.33545
2325.84873	0.33310
2323.92017	0.33047
2321.99160	0.32786
2320.06304	0.32463
2318.13447	0.32090
2316.20591	0.31787
2314.27734	0.31622
2312.34878	0.31542
2310.42021	0.31465
2308.49165	0.31352
2306.56309	0.31207
2304.63452	0.31079
2302.70596	0.31027
2300.77739	0.31033
2298.84883	0.31051
2296.92026	0.31088
2294.99170	0.31147
2293.06313	0.31206
2291.13457	0.31251
2289.20601	0.31298
2287.27744	0.31363
2285.34888	0.31447
2283.42031	0.31568
2281.49175	0.31744
2279.56318	0.31962
2277.63462	0.32185
2275.70605	0.32407
2273.77749	0.32638
2271.84893	0.32871
2269.92036	0.33090
2267.99180	0.33295
2266.06323	0.33496
2264.13467	0.33693
2262.20610	0.33880
2260.27754	0.34056
2258.34897	0.34232
2256.42041	0.34420
2254.49185	0.34619
2252.56328	0.34819
2250.63472	0.35014
2248.70615	0.35206
2246.77759	0.35402
2244.84902	0.35617
2242.92046	0.35849
2240.99189	0.36079
2239.06333	0.36293
2237.13477	0.36498
2235.20620	0.36708
2233.27764	0.36932
2231.34907	0.37158
2229.42051	0.37377
2227.49194	0.37593
2225.56338	0.37806
2223.63481	0.38020
2221.70625	0.38241
2219.77769	0.38476
2217.84912	0.38711
2215.92056	0.38924
2213.99199	0.39121
2212.06343	0.39324
2210.13486	0.39541
2208.20630	0.39760
2206.27773	0.39972
2204.34917	0.40182
2202.42061	0.40394
2200.49204	0.40599
2198.56348	0.40807
2196.63491	0.41015
2194.70635	0.41214
2192.77778	0.41400
2190.84922	0.41584
2188.92065	0.41776
2186.99209	0.41958
2185.06353	0.42124
2183.13496	0.42294
2181.20640	0.42473
2179.27783	0.42643
2177.34927	0.42798
2175.42070	0.42939
2173.49214	0.43080
2171.56357	0.43229
2169.63501	0.43379
2167.70645	0.43514
2165.77788	0.43631
2163.84932	0.43744
2161.92075	0.43855
2159.99219	0.43963
2158.06362	0.44063
2156.13506	0.44158
2154.20649	0.44250
2152.27793	0.44340
2150.34937	0.44424
2148.42080	0.44501
2146.49224	0.44569
2144.56367	0.44617
2142.63511	0.44653
2140.70654	0.44683
2138.77798	0.44703
2136.84941	0.44716
2134.92085	0.44728
2132.99229	0.44725
2131.06372	0.44711
2129.13516	0.44698
2127.20659	0.44678
2125.27803	0.44654
2123.34946	0.44623
2121.42090	0.44573
2119.49233	0.44510
2117.56377	0.44448
2115.63521	0.44391
2113.70664	0.44330
2111.77808	0.44247
2109.84951	0.44145
2107.92095	0.44041
2105.99238	0.43932
2104.06382	0.43814
2102.13525	0.43690
2100.20669	0.43564
2098.27812	0.43418
2096.34956	0.43256
2094.42100	0.43092
2092.49243	0.42933
2090.56387	0.42780
2088.63530	0.42615
2086.70674	0.42434
2084.77817	0.42242
2082.84961	0.42046
2080.92104	0.41842
2078.99248	0.41639
2077.06392	0.41443
2075.13535	0.41241
2073.20679	0.41029
2071.27822	0.40813
2069.34966	0.40588
2067.42109	0.40355
2065.49253	0.40122
2063.56396	0.39890
2061.63540	0.39657
2059.70684	0.39407
2057.77827	0.39144
2055.84971	0.38891
2053.92114	0.38635
2051.99258	0.38373
2050.06401	0.38115
2048.13545	0.37862
2046.20688	0.37601
2044.27832	0.37330
2042.34976	0.37057
2040.42119	0.36786
2038.49263	0.36514
2036.56406	0.36244
2034.63550	0.35972
2032.70693	0.35694
2030.77837	0.35410
2028.84980	0.35131
2026.92124	0.34862
2024.99268	0.34590
2023.06411	0.34314
2021.13555	0.34045
2019.20698	0.33776
2017.27842	0.33492
2015.34985	0.33204
2013.42129	0.32931
2011.49272	0.32664
2009.56416	0.32397
2007.63560	0.32127
2005.70703	0.31855
2003.77847	0.31595
2001.84990	0.31345
1999.92134	0.31085
1997.99277	0.30814
1996.06421	0.30547
1994.13564	0.30291
1992.20708	0.30044
1990.27852	0.29802
1988.34995	0.29565
1986.42139	0.29325
1984.49282	0.29087
1982.56426	0.28857
1980.63569	0.28625
1978.70713	0.28394
1976.77856	0.28165
1974.85000	0.27940
1972.92144	0.27721
1970.99287	0.27520
1969.06431	0.27331
1967.13574	0.27140
1965.20718	0.26930
1963.27861	0.26712
1961.35005	0.26505
1959.42148	0.26316
1957.49292	0.26142
1955.56436	0.25970
1953.63579	0.25792
1951.70723	0.25610
1949.77866	0.25441
1947.85010	0.25294
1945.92153	0.25156
1943.99297	0.25018
1942.06440	0.24872
1940.13584	0.24708
1938.20728	0.24551
1936.27871	0.24421
1934.35015	0.24302
1932.42158	0.24183
1930.49302	0.24057
1928.56445	0.23928
1926.63589	0.23812
1924.70732	0.23725
1922.77876	0.23649
1920.85020	0.23551
1918.92163	0.23446
1916.99307	0.23347
1915.06450	0.23258
1913.13594	0.23181
1911.20737	0.23120
1909.27881	0.23063
1907.35024	0.23003
1905.42168	0.22933
1903.49312	0.22859
1901.56455	0.22786
1899.63599	0.22727
1897.70742	0.22694
1895.77886	0.22668
1893.85029	0.22638
1891.92173	0.22610
1889.99316	0.22596
1888.06460	0.22573
1886.13604	0.22536
1884.20747	0.22506
1882.27891	0.22480
1880.35034	0.22464
1878.42178	0.22464
1876.49321	0.22470
1874.56465	0.22469
1872.63608	0.22475
1870.70752	0.22497
1868.77896	0.22544
1866.85039	0.22577
1864.92183	0.22579
1862.99326	0.22589
1861.06470	0.22614
1859.13613	0.22646
1857.20757	0.22671
1855.27900	0.22704
1853.35044	0.22745
1851.42187	0.22799
1849.49331	0.22866
1847.56475	0.22943
1845.63618	0.23028
1843.70762	0.23124
1841.77905	0.23201
1839.85049	0.23244
1837.92192	0.23316
1835.99336	0.23415
1834.06479	0.23513
1832.13623	0.23608
1830.20767	0.23748
1828.27910	0.23907
1826.35054	0.24016
1824.42197	0.24138
1822.49341	0.24272
1820.56484	0.24402
1818.63628	0.24537
1816.70771	0.24694
1814.77915	0.24856
1812.85059	0.25030
1810.92202	0.25233
1808.99346	0.25438
1807.06489	0.25627
1805.13633	0.25813
1803.20776	0.26030
1801.27920	0.26282
1799.35063	0.26571
1797.42207	0.26836
1795.49351	0.27078
1793.56494	0.27355
1791.63638	0.27719
1789.70781	0.28071
1787.77925	0.28332
1785.85068	0.28635
1783.92212	0.28999
1781.99355	0.29396
1780.06499	0.29818
1778.13643	0.30243
1776.20786	0.30640
1774.27930	0.31069
1772.35073	0.31651
1770.42217	0.32285
1768.49360	0.32819
1766.56504	0.33337
1764.63647	0.33865
1762.70791	0.34439
1760.77935	0.35179
1758.85078	0.35888
1756.92222	0.36597
1754.99365	0.37370
1753.06509	0.38059
1751.13652	0.38870
1749.20796	0.39926
1747.27939	0.41001
1745.35083	0.41936
1743.42227	0.42897
1741.49370	0.43948
1739.56514	0.45195
1737.63657	0.46440
1735.70801	0.47508
1733.77944	0.49124
1731.85088	0.51106
1729.92231	0.52679
1727.99375	0.54255
1726.06519	0.55940
1724.13662	0.57780
1722.20806	0.59773
1720.27949	0.61602
1718.35093	0.63708
1716.42236	0.66850
1714.49380	0.69918
1712.56523	0.72431
1710.63667	0.74859
1708.70811	0.77454
1706.77954	0.80385
1704.85098	0.83871
1702.92241	0.86969
1700.99385	0.90030
1699.06528	0.94629
1697.13672	0.98904
1695.20815	1.03335
1693.27959	1.07683
1691.35103	1.11184
1689.42246	1.15202
1687.49390	1.19453
1685.56533	1.23529
1683.63677	1.29809
1681.70820	1.36449
1679.77964	1.40748
1677.85107	1.44776
1675.92251	1.49324
1673.99395	1.55011
1672.06538	1.60188
1670.13682	1.65266
1668.20825	1.71892
1666.27969	1.77354
1664.35112	1.81993
1662.42256	1.87884
1660.49399	1.94643
1658.56543	1.99864
1656.63687	2.03897
1654.70830	2.07431
1652.77974	2.13122
1650.85117	2.18709
1648.92261	2.20496
1646.99404	2.22751
1645.06548	2.25700
1643.13691	2.27755
1641.20835	2.28693
1639.27979	2.29311
1637.35122	2.29537
1635.42266	2.29312
1633.49409	2.28762
1631.56553	2.27670
1629.63696	2.26053
1627.70840	2.23128
1625.77983	2.19605
1623.85127	2.15310
1621.92271	2.10314
1619.99414	2.05886
1618.06558	2.01431
1616.13701	1.95080
1614.20845	1.88603
1612.27988	1.83543
1610.35132	1.78245
1608.42275	1.72655
1606.49419	1.67253
1604.56562	1.62260
1602.63706	1.57404
1600.70850	1.52676
1598.77993	1.48365
1596.85137	1.44306
1594.92280	1.40305
1592.99424	1.36424
1591.06567	1.32911
1589.13711	1.29653
1587.20854	1.26615
1585.27998	1.23820
1583.35142	1.21248
1581.42285	1.18914
1579.49429	1.16902
1577.56572	1.15100
1575.63716	1.13005
1573.70859	1.11203
1571.78003	1.10010
1569.85146	1.08782
1567.92290	1.07473
1565.99434	1.06549
1564.06577	1.05902
1562.13721	1.05408
1560.20864	1.05056
1558.28008	1.04913
1556.35151	1.05076
1554.42295	1.05177
1552.49438	1.05193
1550.56582	1.05023
1548.63726	1.04624
1546.70869	1.04041
1544.78013	1.03169
1542.85156	1.01934
1540.92300	1.00152
1538.99443	0.97565
1537.06587	0.95739
1535.13730	0.94464
1533.20874	0.92700
1531.28018	0.90775
1529.35161	0.89356
1527.42305	0.88030
1525.49448	0.86675
1523.56592	0.85527
1521.63735	0.84449
1519.70879	0.83367
1517.78022	0.82431
1515.85166	0.81351
1513.92310	0.80241
1511.99453	0.79268
1510.06597	0.78343
1508.13740	0.77389
1506.20884	0.76023
1504.28027	0.74953
1502.35171	0.74353
1500.42314	0.73793
1498.49458	0.73167
1496.56602	0.72430
1494.63745	0.71711
1492.70889	0.71166
1490.78032	0.70708
1488.85176	0.70184
1486.92319	0.69666
1484.99463	0.69250
1483.06606	0.68916
1481.13750	0.68636
1479.20894	0.68425
1477.28037	0.68294
1475.35181	0.68219
1473.42324	0.68191
1471.49468	0.68124
1469.56611	0.67936
1467.63755	0.67695
1465.70898	0.67482
1463.78042	0.67325
1461.85186	0.67215
1459.92329	0.67141
1457.99473	0.67091
1456.06616	0.67022
1454.13760	0.66848
1452.20903	0.66607
1450.28047	0.66346
1448.35190	0.66102
1446.42334	0.65860
1444.49478	0.65616
1442.56621	0.65371
1440.63765	0.65104
1438.70908	0.64827
1436.78052	0.64511
1434.85195	0.64173
1432.92339	0.63903
1430.99482	0.63715
1429.06626	0.63601
1427.13770	0.63545
1425.20913	0.63535
1423.28057	0.63566
1421.35200	0.63597
1419.42344	0.63601
1417.49487	0.63564
1415.56631	0.63472
1413.63774	0.63396
1411.70918	0.63380
1409.78062	0.63422
1407.85205	0.63501
1405.92349	0.63608
1403.99492	0.63704
1402.06636	0.63722
1400.13779	0.63661
1398.20923	0.63522
1396.28066	0.63292
1394.35210	0.62960
1392.42354	0.62578
1390.49497	0.62227
1388.56641	0.61869
1386.63784	0.61443
1384.70928	0.60989
1382.78071	0.60566
1380.85215	0.60164
1378.92358	0.59811
1376.99502	0.59546
1375.06646	0.59367
1373.13789	0.59236
1371.20933	0.59142
1369.28076	0.59071
1367.35220	0.58965
1365.42363	0.58806
1363.49507	0.58638
1361.56650	0.58476
1359.63794	0.58314
1357.70937	0.58178
1355.78081	0.58075
1353.85225	0.57997
1351.92368	0.57932
1349.99512	0.57874
1348.06655	0.57810
1346.13799	0.57728
1344.20942	0.57635
1342.28086	0.57546
1340.35229	0.57465
1338.42373	0.57393
1336.49517	0.57337
1334.56660	0.57304
1332.63804	0.57286
1330.70947	0.57276
1328.78091	0.57289
1326.85234	0.57326
1324.92378	0.57377
1322.99521	0.57437
1321.06665	0.57494
1319.13809	0.57533
1317.20952	0.57548
1315.28096	0.57537
1313.35239	0.57501
1311.42383	0.57432
1309.49526	0.57359
1307.56670	0.57313
1305.63813	0.57269
1303.70957	0.57213
1301.78101	0.57161
1299.85244	0.57094
1297.92388	0.56987
1295.99531	0.56856
1294.06675	0.56723
1292.13818	0.56590
1290.20962	0.56460
1288.28105	0.56350
1286.35249	0.56257
1284.42393	0.56168
1282.49536	0.56068
1280.56680	0.55948
1278.63823	0.55823
1276.70967	0.55708
1274.78110	0.55599
1272.85254	0.55502
1270.92397	0.55423
1268.99541	0.55353
1267.06685	0.55289
1265.13828	0.55225
1263.20972	0.55158
1261.28115	0.55081
1259.35259	0.54996
1257.42402	0.54931
1255.49546	0.54905
1253.56689	0.54901
1251.63833	0.54905
1249.70977	0.54913
1247.78120	0.54908
1245.85264	0.54879
1243.92407	0.54834
1241.99551	0.54760
1240.06694	0.54638
1238.13838	0.54475
1236.20981	0.54289
1234.28125	0.54093
1232.35269	0.53899
1230.42412	0.53717
1228.49556	0.53547
1226.56699	0.53384
1224.63843	0.53233
1222.70986	0.53089
1220.78130	0.52943
1218.85273	0.52803
1216.92417	0.52685
1214.99561	0.52590
1213.06704	0.52505
1211.13848	0.52439
1209.20991	0.52385
1207.28135	0.52319
1205.35278	0.52235
1203.42422	0.52145
1201.49565	0.52061
1199.56709	0.51984
1197.63853	0.51912
1195.70996	0.51845
1193.78140	0.51788
1191.85283	0.51742
1189.92427	0.51713
1187.99570	0.51700
1186.06714	0.51699
1184.13857	0.51710
1182.21001	0.51730
1180.28145	0.51779
1178.35288	0.51877
1176.42432	0.52003
1174.49575	0.52120
1172.56719	0.52206
1170.63862	0.52254
1168.71006	0.52269
1166.78149	0.52260
1164.85293	0.52233
1162.92437	0.52205
1160.99580	0.52175
1159.06724	0.52126
1157.13867	0.52054
1155.21011	0.51957
1153.28154	0.51832
1151.35298	0.51675
1149.42441	0.51475
1147.49585	0.51218
1145.56729	0.50937
1143.63872	0.50673
1141.71016	0.50424
1139.78159	0.50196
1137.85303	0.50022
1135.92446	0.49901
1133.99590	0.49830
1132.06733	0.49782
1130.13877	0.49709
1128.21021	0.49606
1126.28164	0.49492
1124.35308	0.49380
1122.42451	0.49299
1120.49595	0.49272
1118.56738	0.49268
1116.63882	0.49262
1114.71025	0.49268
1112.78169	0.49297
1110.85312	0.49338
1108.92456	0.49385
1106.99600	0.49465
1105.06743	0.49584
1103.13887	0.49723
1101.21030	0.49880
1099.28174	0.50071
1097.35317	0.50305
1095.42461	0.50579
1093.49604	0.50916
1091.56748	0.51346
1089.63892	0.51861
1087.71035	0.52464
1085.78179	0.53148
1083.85322	0.53861
1081.92466	0.54527
1079.99609	0.55063
1078.06753	0.55388
1076.13896	0.55436
1074.21040	0.55200
1072.28184	0.54755
1070.35327	0.54144
1068.42471	0.53410
1066.49614	0.52666
1064.56758	0.52009
1062.63901	0.51458
1060.71045	0.50989
1058.78188	0.50577
1056.85332	0.50197
1054.92476	0.49846
1052.99619	0.49537
1051.06763	0.49264
1049.13906	0.49023
1047.21050	0.48830
1045.28193	0.48689
1043.35337	0.48576
1041.42480	0.48473
1039.49624	0.48385
1037.56768	0.48319
1035.63911	0.48273
1033.71055	0.48240
1031.78198	0.48213
1029.85342	0.48180
1027.92485	0.48132
1025.99629	0.48084
1024.06772	0.48060
1022.13916	0.48078
1020.21060	0.48123
1018.28203	0.48171
1016.35347	0.48229
1014.42490	0.48290
1012.49634	0.48337
1010.56777	0.48393
1008.63921	0.48507
1006.71064	0.48672
1004.78208	0.48851
1002.85352	0.49053
1000.92495	0.49299
998.99639	0.49596
997.06782	0.49962
995.13926	0.50382
993.21069	0.50782
991.28213	0.51118
989.35356	0.51384
987.42500	0.51551
985.49644	0.51624
983.56787	0.51669
981.63931	0.51726
979.71074	0.51814
977.78218	0.51973
975.85361	0.52200
973.92505	0.52466
971.99648	0.52768
970.06792	0.53117
968.13936	0.53504
966.21079	0.53903
964.28223	0.54327
962.35366	0.54813
960.42510	0.55345
958.49653	0.55886
956.56797	0.56418
954.63940	0.56973
952.71084	0.57587
950.78228	0.58254
948.85371	0.58947
946.92515	0.59613
944.99658	0.60195
943.06802	0.60733
941.13945	0.61293
939.21089	0.61864
937.28232	0.62450
935.35376	0.63059
933.42520	0.63603
931.49663	0.64085
929.56807	0.64657
927.63950	0.65330
925.71094	0.65962
923.78237	0.66537
921.85381	0.67123
919.92524	0.67744
917.99668	0.68403
916.06812	0.69109
914.13955	0.69892
912.21099	0.70698
910.28242	0.71456
908.35386	0.72229
906.42529	0.73058
904.49673	0.73887
902.56816	0.74702
900.63960	0.75539
898.71104	0.76470
896.78247	0.77569
894.85391	0.78713
892.92534	0.79738
890.99678	0.80682
889.06821	0.81557
887.13965	0.82366
885.21108	0.83329
883.28252	0.84580
881.35396	0.85921
879.42539	0.87174
877.49683	0.88294
875.56826	0.89267
873.63970	0.90195
871.71113	0.91269
869.78257	0.92607
867.85400	0.93996
865.92544	0.95144
863.99687	0.96232
862.06831	0.97418
860.13975	0.98471
858.21118	0.99470
856.28262	1.00658
854.35405	1.01834
852.42549	1.02869
850.49692	1.04072
848.56836	1.05522
846.63979	1.06915
844.71123	1.08041
842.78267	1.08823
840.85410	1.09503
838.92554	1.10456
836.99697	1.11536
835.06841	1.12449
833.13984	1.13384
831.21128	1.14300
829.28271	1.14866
827.35415	1.15338
825.42559	1.16218
823.49702	1.17370
821.56846	1.17911
819.63989	1.18169
817.71133	1.19083
815.78276	1.20232
813.85420	1.21314
811.92563	1.22441
809.99707	1.22661
808.06851	1.20523
806.13994	1.17803
804.21138	1.18041
802.28281	1.21627
800.35425	1.24786
798.42568	1.23830
796.49712	1.21029
794.56855	1.20245
792.63999	1.22595
790.71143	1.24662
788.78286	1.22420
786.85430	1.20064
784.92573	1.21648
782.99717	1.23623
781.06860	1.20515
779.14004	1.14766
777.21147	1.11818
775.28291	1.12295
773.35435	1.13257
771.42578	1.12665
769.49722	1.10261
767.56865	1.07074
765.64009	1.04891
763.71152	1.03498
761.78296	0.99843
759.85439	0.93123
757.92583	0.88409
755.99727	0.88511
754.06870	0.91131
752.14014	0.94372
750.21157	0.94255
748.28301	0.87171
746.35444	0.79707
744.42588	0.75775
742.49731	0.71206
740.56875	0.61947
738.64019	0.52187
736.71162	0.43544
734.78306	0.29196
732.85449	0.09572
730.92593	-0.07302
728.99736	-0.39759
727.06880	4.36241
725.14023	4.35084
723.21167	4.33927
721.28311	4.32770
719.35454	-0.44377
717.42598	-0.09756
715.49741	0.03913
713.56885	0.16681
711.64028	0.27544
709.71172	0.32493
707.78315	0.35257
705.85459	0.39647
703.92603	0.40386
701.99746	0.37510
700.06890	0.35688
698.14033	0.35232
696.21177	0.34004
694.28320	0.33273
692.35464	0.35187
690.42607	0.38654
688.49751	0.43604
686.56895	0.46958
684.64038	0.39331
682.71182	0.29895
680.78325	0.27370
678.85469	0.28850
676.92612	0.28867
674.99756	0.28496
673.06899	0.31279
671.14043	0.32180
669.21187	0.28632
667.28330	0.26721
665.35474	0.26998
663.42617	0.28366
661.49761	0.29645
659.56904	0.28760
657.64048	0.28598
655.71191	0.32297
653.78335	0.38055
651.85479	0.42172
649.92622	0.43452
647.99766	0.42292
646.06909	0.37778
644.14053	0.32112
642.21196	0.29231
640.28340	0.29135
638.35483	0.30781
636.42627	0.33312
634.49771	0.35666
632.56914	0.35146
630.64058	0.31217
628.71201	0.27673
626.78345	0.27186
624.85488	0.27745
622.92632	0.26642
620.99775	0.26261
619.06919	0.28177
617.14062	0.30342
615.21206	0.30553
613.28350	0.30253
611.35493	0.31223
609.42637	0.32552
607.49780	0.33919
605.56924	0.35068
603.64067	0.33960
601.71211	0.31669
599.78354	0.29992
597.85498	0.28341
595.92642	0.27933
593.99785	0.28388
592.06929	0.29398
590.14072	0.33028
588.21216	0.37119
586.28359	0.36315
584.35503	0.32723
582.42646	0.30371
580.49790	0.25931
578.56934	0.21491
576.64077	0.22717
574.71221	0.26007
572.78364	0.27004
570.85508	0.27483
568.92651	0.27185
566.99795	0.26149
565.06938	0.25524
563.14082	0.24736
561.21226	0.25851
559.28369	0.29133
557.35513	0.28692
555.42656	0.23945
553.49800	0.21739
551.56943	0.22973
549.64087	0.25029
547.71230	0.27387
545.78374	0.30087
543.85518	0.32109
541.92661	0.31077
539.99805	0.29171
538.06948	0.28831
536.14092	0.27656
534.21235	0.24185
532.28379	0.22275
530.35522	0.23468
528.42666	0.25000
526.49810	0.26427
524.56953	0.28630
522.64097	0.28954
520.71240	0.25854
518.78384	0.22172
516.85527	0.21137
514.92671	0.23774
512.99814	0.29007
511.06958	0.32274
509.14102	0.32269
507.21245	0.32504
505.28389	0.31116
503.35532	0.27134
501.42676	0.24202
499.49819	0.22666
