3997.91411	0.06914
3995.98555	0.06968
3994.05698	0.07001
3992.12842	0.07041
3990.19985	0.07079
3988.27129	0.07089
3986.34272	0.07086
3984.41416	0.07101
3982.48560	0.07139
3980.55703	0.07173
3978.62847	0.07191
3976.69990	0.07222
3974.77134	0.07259
3972.84277	0.07285
3970.91421	0.07307
3968.98564	0.07309
3967.05708	0.07292
3965.12852	0.07291
3963.19995	0.07325
3961.27139	0.07351
3959.34282	0.07343
3957.41426	0.07344
3955.48569	0.07373
3953.55713	0.07404
3951.62856	0.07438
3949.70000	0.07493
3947.77144	0.07541
3945.84287	0.07533
3943.91431	0.07524
3941.98574	0.07542
3940.05718	0.07493
3938.12861	0.07395
3936.20005	0.07368
3934.27148	0.07448
3932.34292	0.07565
3930.41436	0.07611
3928.48579	0.07551
3926.55723	0.07480
3924.62866	0.07493
3922.70010	0.07525
3920.77153	0.07514
3918.84297	0.07525
3916.91440	0.07543
3914.98584	0.07473
3913.05728	0.07347
3911.12871	0.07272
3909.20015	0.07287
3907.27158	0.07378
3905.34302	0.07518
3903.41445	0.07681
3901.48589	0.07784
3899.55732	0.07769
3897.62876	0.07651
3895.70020	0.07518
3893.77163	0.07475
3891.84307	0.07523
3889.91450	0.07548
3887.98594	0.07500
3886.05737	0.07521
3884.12881	0.07643
3882.20024	0.07721
3880.27168	0.07712
3878.34312	0.07592
3876.41455	0.07476
3874.48599	0.07563
3872.55742	0.07785
3870.62886	0.07957
3868.70029	0.08043
3866.77173	0.08020
3864.84316	0.07994
3862.91460	0.08004
3860.98604	0.07930
3859.05747	0.07835
3857.12891	0.07848
3855.20034	0.08003
3853.27178	0.08312
3851.34321	0.08460
3849.41465	0.08221
3847.48608	0.08024
3845.55752	0.08008
3843.62896	0.08138
3841.70039	0.08383
3839.77183	0.08672
3837.84326	0.08882
3835.91470	0.08881
3833.98613	0.08748
3832.05757	0.08656
3830.12900	0.08658
3828.20044	0.08717
3826.27187	0.08788
3824.34331	0.08862
3822.41475	0.08999
3820.48618	0.09244
3818.55762	0.09390
3816.62905	0.09414
3814.70049	0.09431
3812.77192	0.09355
3810.84336	0.09265
3808.91479	0.09321
3806.98623	0.09577
3805.05767	0.09849
3803.12910	0.10000
3801.20054	0.10210
3799.27197	0.10381
3797.34341	0.10382
3795.41484	0.10362
3793.48628	0.10314
3791.55771	0.10292
3789.62915	0.10378
3787.70059	0.10552
3785.77202	0.10767
3783.84346	0.10957
3781.91489	0.11084
3779.98633	0.11232
3778.05776	0.11419
3776.12920	0.11520
3774.20063	0.11587
3772.27207	0.11750
3770.34351	0.12045
3768.41494	0.12372
3766.48638	0.12582
3764.55781	0.12727
3762.62925	0.12864
3760.70068	0.13091
3758.77212	0.13474
3756.84355	0.13798
3754.91499	0.13969
3752.98643	0.14240
3751.05786	0.14772
3749.12930	0.15309
3747.20073	0.15535
3745.27217	0.15744
3743.34360	0.16136
3741.41504	0.16524
3739.48647	0.16840
3737.55791	0.17255
3735.62935	0.17915
3733.70078	0.18670
3731.77222	0.19134
3729.84365	0.19434
3727.91509	0.19795
3725.98652	0.20337
3724.05796	0.21003
3722.12939	0.21633
3720.20083	0.22218
3718.27227	0.22752
3716.34370	0.23249
3714.41514	0.23837
3712.48657	0.24818
3710.55801	0.26392
3708.62944	0.27955
3706.70088	0.29072
3704.77231	0.30125
3702.84375	0.31414
3700.91519	0.33086
3698.98662	0.34878
3697.05806	0.36551
3695.12949	0.38336
3693.20093	0.40289
3691.27236	0.42475
3689.34380	0.45299
3687.41523	0.48673
3685.48667	0.51527
3683.55811	0.53972
3681.62954	0.56681
3679.70098	0.59846
3677.77241	0.63271
3675.84385	0.67332
3673.91528	0.72620
3671.98672	0.76796
3670.05815	0.80510
3668.12959	0.85713
3666.20103	0.90448
3664.27246	0.94379
3662.34390	0.98638
3660.41533	1.03295
3658.48677	1.07915
3656.55820	1.12868
3654.62964	1.18423
3652.70107	1.23065
3650.77251	1.27125
3648.84395	1.32866
3646.91538	1.39753
3644.98682	1.44544
3643.05825	1.48294
3641.12969	1.52342
3639.20112	1.56832
3637.27256	1.61273
3635.34399	1.65582
3633.41543	1.69934
3631.48687	1.74017
3629.55830	1.78148
3627.62974	1.83570
3625.70117	1.88606
3623.77261	1.91960
3621.84404	1.95194
3619.91548	1.98941
3617.98691	2.03428
3616.05835	2.07737
3614.12979	2.11395
3612.20122	2.15278
3610.27266	2.19129
3608.34409	2.22984
3606.41553	2.27157
3604.48696	2.31048
3602.55840	2.34584
3600.62983	2.38540
3598.70127	2.42862
3596.77271	2.46918
3594.84414	2.50866
3592.91558	2.54894
3590.98701	2.58652
3589.05845	2.62230
3587.12988	2.66672
3585.20132	2.71572
3583.27275	2.75616
3581.34419	2.79281
3579.41562	2.83231
3577.48706	2.87491
3575.55850	2.91806
3573.62993	2.96160
3571.70137	3.00348
3569.77280	3.04236
3567.84424	3.08347
3565.91567	3.13576
3563.98711	3.18684
3562.05854	3.22799
3560.12998	3.26986
3558.20142	3.31420
3556.27285	3.35763
3554.34429	3.40037
3552.41572	3.44708
3550.48716	3.49539
3548.55859	3.54067
3546.63003	3.58697
3544.70146	3.63811
3542.77290	3.68765
3540.84434	3.73189
3538.91577	3.77632
3536.98721	3.82301
3535.05864	3.87132
3533.13008	3.91820
3531.20151	3.96493
3529.27295	4.01569
3527.34438	4.06780
3525.41582	4.11432
3523.48726	4.15926
3521.55869	4.20984
3519.63013	4.26120
3517.70156	4.30959
3515.77300	4.35476
3513.84443	4.39929
3511.91587	4.44721
3509.98730	4.49774
3508.05874	4.54801
3506.13018	4.59720
3504.20161	4.64469
3502.27305	4.69010
3500.34448	4.73730
3498.41592	4.78518
3496.48735	4.82854
3494.55879	4.87393
3492.63022	4.92882
3490.70166	4.98505
3488.77310	5.03501
3486.84453	5.08314
3484.91597	5.13040
3482.98740	5.17104
3481.05884	5.21038
3479.13027	5.25340
3477.20171	5.29868
3475.27314	5.35105
3473.34458	5.40940
3471.41602	5.46077
3469.48745	5.50311
3467.55889	5.54922
3465.63032	5.59880
3463.70176	5.64441
3461.77319	5.68676
3459.84463	5.73170
3457.91606	5.78174
3455.98750	5.83404
3454.05894	5.88668
3452.13037	5.94535
3450.20181	6.01338
3448.27324	6.07552
3446.34468	6.12676
3444.41611	6.17556
3442.48755	6.21977
3440.55898	6.25540
3438.63042	6.29163
3436.70186	6.33362
3434.77329	6.38309
3432.84473	6.44238
3430.91616	6.50176
3428.98760	6.55662
3427.05903	6.61201
3425.13047	6.67235
3423.20190	6.72427
3421.27334	6.77013
3419.34478	6.81617
3417.41621	6.86932
3415.48765	6.93848
3413.55908	6.99151
3411.63052	7.01336
3409.70195	7.02953
3407.77339	7.07571
3405.84482	7.12484
3403.91626	7.12802
3401.98770	7.12487
3400.05913	7.17889
3398.13057	7.26042
3396.20200	7.31632
3394.27344	7.37632
3392.34487	7.43664
3390.41631	7.46742
3388.48774	7.49101
3386.55918	7.53592
3384.63062	7.56423
3382.70205	7.57025
3380.77349	7.58131
3378.84492	7.58526
3376.91636	7.61875
3374.98779	7.68058
3373.05923	7.73373
3371.13066	7.75820
3369.20210	7.77528
3367.27354	7.84106
3365.34497	7.93116
3363.41641	7.95166
3361.48784	7.92589
3359.55928	7.91956
3357.63071	7.91711
3355.70215	7.92508
3353.77358	7.91330
3351.84502	7.87565
3349.91646	7.86439
3347.98789	7.91028
3346.05933	7.96320
3344.13076	7.95888
3342.20220	7.96059
3340.27363	8.01702
3338.34507	8.09033
3336.41650	8.11196
3334.48794	8.09847
3332.55937	8.10703
3330.63081	8.12900
3328.70225	8.14189
3326.77368	8.16151
3324.84512	8.18849
3322.91655	8.19121
3320.98799	8.14761
3319.05942	8.09171
3317.13086	8.10994
3315.20229	8.16827
3313.27373	8.24211
3311.34517	8.33262
3309.41660	8.32631
3307.48804	8.23512
3305.55947	8.20642
3303.63091	8.24506
3301.70234	8.22168
3299.77378	8.18493
3297.84521	8.24401
3295.91665	8.31846
3293.98809	8.28115
3292.05952	8.18733
3290.13096	8.11536
3288.20239	8.08926
3286.27383	8.07068
3284.34526	7.96138
3282.41670	7.88240
3280.48813	7.98060
3278.55957	8.19365
3276.63101	8.32843
3274.70244	8.33817
3272.77388	8.32739
3270.84531	8.29594
3268.91675	8.26649
3266.98818	8.29135
3265.05962	8.32888
3263.13105	8.28592
3261.20249	8.19242
3259.27393	8.17600
3257.34536	8.26576
3255.41680	8.37350
3253.48823	8.46933
3251.55967	8.52931
3249.63110	8.49053
3247.70254	8.43822
3245.77397	8.44610
3243.84541	8.51817
3241.91685	8.52596
3239.98828	8.35494
3238.05972	8.16073
3236.13115	8.06194
3234.20259	8.06461
3232.27402	8.13272
3230.34546	8.16815
3228.41689	8.16285
3226.48833	8.22527
3224.55977	8.26602
3222.63120	8.13451
3220.70264	7.97195
3218.77407	7.94293
3216.84551	8.00775
3214.91694	7.99951
3212.98838	7.89565
3211.05981	7.81605
3209.13125	7.80272
3207.20269	7.83004
3205.27412	7.87583
3203.34556	7.90427
3201.41699	7.86670
3199.48843	7.78438
3197.55986	7.74183
3195.63130	7.77160
3193.70273	7.78223
3191.77417	7.70426
3189.84561	7.61482
3187.91704	7.55236
3185.98848	7.49425
3184.05991	7.44701
3182.13135	7.41101
3180.20278	7.36072
3178.27422	7.29592
3176.34565	7.26425
3174.41709	7.24290
3172.48853	7.16884
3170.55996	7.08513
3168.63140	7.01521
3166.70283	6.92089
3164.77427	6.84342
3162.84570	6.82096
3160.91714	6.79159
3158.98857	6.70561
3157.06001	6.59977
3155.13145	6.52053
3153.20288	6.45690
3151.27432	6.39231
3149.34575	6.33884
3147.41719	6.28515
3145.48862	6.21327
3143.56006	6.13576
3141.63149	6.06400
3139.70293	5.99775
3137.77437	5.93117
3135.84580	5.84821
3133.91724	5.76095
3131.98867	5.69202
3130.06011	5.63445
3128.13154	5.57261
3126.20298	5.50029
3124.27441	5.42667
3122.34585	5.35914
3120.41729	5.29147
3118.48872	5.21885
3116.56016	5.14529
3114.63159	5.07278
3112.70303	4.99937
3110.77446	4.92751
3108.84590	4.85982
3106.91733	4.79422
3104.98877	4.72630
3103.06021	4.65825
3101.13164	4.59450
3099.20308	4.53267
3097.27451	4.46803
3095.34595	4.40108
3093.41738	4.33576
3091.48882	4.27048
3089.56025	4.20303
3087.63169	4.13577
3085.70312	4.07069
3083.77456	4.00845
3081.84600	3.94880
3079.91743	3.88908
3077.98887	3.82808
3076.06030	3.76823
3074.13174	3.70989
3072.20317	3.65217
3070.27461	3.59624
3068.34604	3.54111
3066.41748	3.48416
3064.48892	3.42613
3062.56035	3.37071
3060.63179	3.31809
3058.70322	3.26377
3056.77466	3.20765
3054.84609	3.15374
3052.91753	3.10248
3050.98896	3.05233
3049.06040	3.00236
3047.13184	2.95248
3045.20327	2.90300
3043.27471	2.85341
3041.34614	2.80376
3039.41758	2.75559
3037.48901	2.70894
3035.56045	2.66236
3033.63188	2.61630
3031.70332	2.57119
3029.77476	2.52666
3027.84619	2.48342
3025.91763	2.44103
3023.98906	2.39841
3022.06050	2.35608
3020.13193	2.31490
3018.20337	2.27466
3016.27480	2.23446
3014.34624	2.19456
3012.41768	2.15594
3010.48911	2.11852
3008.56055	2.08203
3006.63198	2.04609
3004.70342	2.01027
3002.77485	1.97482
3000.84629	1.93991
2998.91772	1.90589
2996.98916	1.87328
2995.06060	1.84167
2993.13203	1.81049
2991.20347	1.77948
2989.27490	1.74860
2987.34634	1.71832
2985.41777	1.68910
2983.48921	1.66102
2981.56064	1.63353
2979.63208	1.60581
2977.70352	1.57808
2975.77495	1.55107
2973.84639	1.52509
2971.91782	1.50007
2969.98926	1.47572
2968.06069	1.45170
2966.13213	1.42743
2964.20356	1.40293
2962.27500	1.37933
2960.34644	1.35639
2958.41787	1.33309
2956.48931	1.30965
2954.56074	1.28628
2952.63218	1.26271
2950.70361	1.23955
2948.77505	1.21719
2946.84648	1.19510
2944.91792	1.17319
2942.98936	1.15198
2941.06079	1.13199
2939.13223	1.11296
2937.20366	1.09383
2935.27510	1.07441
2933.34653	1.05561
2931.41797	1.03762
2929.48940	1.01948
2927.56084	1.00089
2925.63228	0.98265
2923.70371	0.96508
2921.77515	0.94763
2919.84658	0.93005
2917.91802	0.91259
2915.98945	0.89538
2914.06089	0.87855
2912.13232	0.86214
2910.20376	0.84605
2908.27520	0.83018
2906.34663	0.81459
2904.41807	0.79976
2902.48950	0.78590
2900.56094	0.77242
2898.63237	0.75884
2896.70381	0.74558
2894.77524	0.73301
2892.84668	0.72070
2890.91812	0.70830
2888.98955	0.69627
2887.06099	0.68496
2885.13242	0.67418
2883.20386	0.66370
2881.27529	0.65346
2879.34673	0.64364
2877.41816	0.63428
2875.48960	0.62491
2873.56104	0.61503
2871.63247	0.60466
2869.70391	0.59402
2867.77534	0.58313
2865.84678	0.57196
2863.91821	0.56084
2861.98965	0.55035
2860.06108	0.54068
2858.13252	0.53153
2856.20396	0.52267
2854.27539	0.51424
2852.34683	0.50626
2850.41826	0.49837
2848.48970	0.49010
2846.56113	0.48131
2844.63257	0.47260
2842.70400	0.46466
2840.77544	0.45757
2838.84687	0.45094
2836.91831	0.44461
2834.98975	0.43843
2833.06118	0.43232
2831.13262	0.42645
2829.20405	0.42068
2827.27549	0.41477
2825.34692	0.40866
2823.41836	0.40249
2821.48979	0.39670
2819.56123	0.39126
2817.63267	0.38576
2815.70410	0.38020
2813.77554	0.37467
2811.84697	0.36907
2809.91841	0.36345
2807.98984	0.35803
2806.06128	0.35290
2804.13271	0.34794
2802.20415	0.34303
2800.27559	0.33810
2798.34702	0.33332
2796.41846	0.32868
2794.48989	0.32404
2792.56133	0.31958
2790.63276	0.31526
2788.70420	0.31098
2786.77563	0.30691
2784.84707	0.30298
2782.91851	0.29883
2780.98994	0.29459
2779.06138	0.29054
2777.13281	0.28666
2775.20425	0.28290
2773.27568	0.27929
2771.34712	0.27569
2769.41855	0.27210
2767.48999	0.26856
2765.56143	0.26513
2763.63286	0.26196
2761.70430	0.25891
2759.77573	0.25574
2757.84717	0.25246
2755.91860	0.24918
2753.99004	0.24611
2752.06147	0.24326
2750.13291	0.24041
2748.20435	0.23761
2746.27578	0.23500
2744.34722	0.23241
2742.41865	0.22974
2740.49009	0.22712
2738.56152	0.22460
2736.63296	0.22215
2734.70439	0.21971
2732.77583	0.21724
2730.84727	0.21479
2728.91870	0.21256
2726.99014	0.21058
2725.06157	0.20861
2723.13301	0.20653
2721.20444	0.20451
2719.27588	0.20257
2717.34731	0.20056
2715.41875	0.19854
2713.49019	0.19663
2711.56162	0.19489
2709.63306	0.19330
2707.70449	0.19168
2705.77593	0.18999
2703.84736	0.18835
2701.91880	0.18680
2699.99023	0.18534
2698.06167	0.18406
2696.13311	0.18291
2694.20454	0.18164
2692.27598	0.18021
2690.34741	0.17875
2688.41885	0.17746
2686.49028	0.17632
2684.56172	0.17516
2682.63315	0.17394
2680.70459	0.17280
2678.77603	0.17181
2676.84746	0.17080
2674.91890	0.16959
2672.99033	0.16838
2671.06177	0.16738
2669.13320	0.16646
2667.20464	0.16558
2665.27607	0.16479
2663.34751	0.16401
2661.41895	0.16330
2659.49038	0.16257
2657.56182	0.16177
2655.63325	0.16108
2653.70469	0.16047
2651.77612	0.15977
2649.84756	0.15901
2647.91899	0.15832
2645.99043	0.15778
2644.06187	0.15741
2642.13330	0.15713
2640.20474	0.15678
2638.27617	0.15621
2636.34761	0.15549
2634.41904	0.15489
2632.49048	0.15451
2630.56191	0.15429
2628.63335	0.15406
2626.70479	0.15372
2624.77622	0.15329
2622.84766	0.15290
2620.91909	0.15262
2618.99053	0.15247
2617.06196	0.15237
2615.13340	0.15218
2613.20483	0.15196
2611.27627	0.15192
2609.34771	0.15202
2607.41914	0.15203
2605.49058	0.15192
2603.56201	0.15174
2601.63345	0.15156
2599.70488	0.15154
2597.77632	0.15167
2595.84775	0.15177
2593.91919	0.15180
2591.99062	0.15184
2590.06206	0.15198
2588.13350	0.15216
2586.20493	0.15227
2584.27637	0.15233
2582.34780	0.15246
2580.41924	0.15270
2578.49067	0.15299
2576.56211	0.15331
2574.63354	0.15374
2572.70498	0.15420
2570.77642	0.15460
2568.84785	0.15495
2566.91929	0.15532
2564.99072	0.15574
2563.06216	0.15621
2561.13359	0.15664
2559.20503	0.15704
2557.27646	0.15748
2555.34790	0.15801
2553.41934	0.15848
2551.49077	0.15886
2549.56221	0.15938
2547.63364	0.16003
2545.70508	0.16060
2543.77651	0.16113
2541.84795	0.16170
2539.91938	0.16237
2537.99082	0.16306
2536.06226	0.16360
2534.13369	0.16415
2532.20513	0.16491
2530.27656	0.16575
2528.34800	0.16646
2526.41943	0.16706
2524.49087	0.16765
2522.56230	0.16828
2520.63374	0.16906
2518.70518	0.16998
2516.77661	0.17082
2514.84805	0.17161
2512.91948	0.17238
2510.99092	0.17304
2509.06235	0.17378
2507.13379	0.17477
2505.20522	0.17576
2503.27666	0.17663
2501.34810	0.17740
2499.41953	0.17804
2497.49097	0.17878
2495.56240	0.17972
2493.63384	0.18071
2491.70527	0.18161
2489.77671	0.18235
2487.84814	0.18303
2485.91958	0.18383
2483.99102	0.18472
2482.06245	0.18565
2480.13389	0.18663
2478.20532	0.18761
2476.27676	0.18848
2474.34819	0.18932
2472.41963	0.19015
2470.49106	0.19099
2468.56250	0.19193
2466.63394	0.19286
2464.70537	0.19372
2462.77681	0.19470
2460.84824	0.19575
2458.91968	0.19673
2456.99111	0.19765
2455.06255	0.19856
2453.13398	0.19950
2451.20542	0.20048
2449.27686	0.20149
2447.34829	0.20248
2445.41973	0.20350
2443.49116	0.20466
2441.56260	0.20582
2439.63403	0.20680
2437.70547	0.20768
2435.77690	0.20858
2433.84834	0.20958
2431.91978	0.21073
2429.99121	0.21182
2428.06265	0.21277
2426.13408	0.21377
2424.20552	0.21496
2422.27695	0.21618
2420.34839	0.21724
2418.41982	0.21820
2416.49126	0.21923
2414.56270	0.22034
2412.63413	0.22146
2410.70557	0.22264
2408.77700	0.22388
2406.84844	0.22500
2404.91987	0.22596
2402.99131	0.22696
2401.06274	0.22823
2399.13418	0.22971
2397.20562	0.23112
2395.27705	0.23240
2393.34849	0.23368
2391.41992	0.23504
2389.49136	0.23657
2387.56279	0.23864
2385.63423	0.24168
2383.70566	0.24609
2381.77710	0.25182
2379.84854	0.25842
2377.91997	0.26570
2375.99141	0.27400
2374.06284	0.28367
2372.13428	0.29450
2370.20571	0.30585
2368.27715	0.31699
2366.34858	0.32764
2364.42002	0.33770
2362.49146	0.34598
2360.56289	0.35127
2358.63433	0.35280
2356.70576	0.34944
2354.77720	0.34181
2352.84863	0.33219
2350.92007	0.32220
2348.99150	0.31574
2347.06294	0.31627
2345.13437	0.32442
2343.20581	0.33523
2341.27725	0.34101
2339.34868	0.34183
2337.42012	0.34117
2335.49155	0.34094
2333.56299	0.34108
2331.63442	0.34141
2329.70586	0.34147
2327.77729	0.34053
2325.84873	0.33868
2323.92017	0.33692
2321.99160	0.33547
2320.06304	0.33322
2318.13447	0.32998
2316.20591	0.32711
2314.27734	0.32574
2312.34878	0.32561
2310.42021	0.32553
2308.49165	0.32466
2306.56309	0.32324
2304.63452	0.32199
2302.70596	0.32143
2300.77739	0.32155
2298.84883	0.32198
2296.92026	0.32244
2294.99170	0.32285
2293.06313	0.32314
2291.13457	0.32348
2289.20601	0.32408
2287.27744	0.32479
2285.34888	0.32560
2283.42031	0.32679
2281.49175	0.32855
2279.56318	0.33078
2277.63462	0.33311
2275.70605	0.33527
2273.77749	0.33725
2271.84893	0.33927
2269.92036	0.34138
2267.99180	0.34348
2266.06323	0.34552
2264.13467	0.34757
2262.20610	0.34959
2260.27754	0.35147
2258.34897	0.35325
2256.42041	0.35506
2254.49185	0.35696
2252.56328	0.35892
2250.63472	0.36097
2248.70615	0.36301
2246.77759	0.36495
2244.84902	0.36691
2242.92046	0.36894
2240.99189	0.37107
2239.06333	0.37330
2237.13477	0.37550
2235.20620	0.37772
2233.27764	0.38003
2231.34907	0.38233
2229.42051	0.38454
2227.49194	0.38669
2225.56338	0.38885
2223.63481	0.39109
2221.70625	0.39338
2219.77769	0.39558
2217.84912	0.39763
2215.92056	0.39966
2213.99199	0.40178
2212.06343	0.40404
2210.13486	0.40629
2208.20630	0.40835
2206.27773	0.41027
2204.34917	0.41223
2202.42061	0.41424
2200.49204	0.41627
2198.56348	0.41834
2196.63491	0.42038
2194.70635	0.42240
2192.77778	0.42444
2190.84922	0.42642
2188.92065	0.42825
2186.99209	0.42999
2185.06353	0.43168
2183.13496	0.43333
2181.20640	0.43506
2179.27783	0.43684
2177.34927	0.43851
2175.42070	0.44002
2173.49214	0.44144
2171.56357	0.44281
2169.63501	0.44416
2167.70645	0.44551
2165.77788	0.44684
2163.84932	0.44813
2161.92075	0.44929
2159.99219	0.45033
2158.06362	0.45134
2156.13506	0.45227
2154.20649	0.45308
2152.27793	0.45392
2150.34937	0.45477
2148.42080	0.45547
2146.49224	0.45603
2144.56367	0.45657
2142.63511	0.45710
2140.70654	0.45749
2138.77798	0.45768
2136.84941	0.45763
2134.92085	0.45754
2132.99229	0.45753
2131.06372	0.45753
2129.13516	0.45750
2127.20659	0.45740
2125.27803	0.45712
2123.34946	0.45671
2121.42090	0.45625
2119.49233	0.45571
2117.56377	0.45506
2115.63521	0.45431
2113.70664	0.45353
2111.77808	0.45268
2109.84951	0.45171
2107.92095	0.45070
2105.99238	0.44961
2104.06382	0.44832
2102.13525	0.44696
2100.20669	0.44566
2098.27812	0.44430
2096.34956	0.44284
2094.42100	0.44133
2092.49243	0.43975
2090.56387	0.43817
2088.63530	0.43654
2086.70674	0.43477
2084.77817	0.43286
2082.84961	0.43090
2080.92104	0.42888
2078.99248	0.42684
2077.06392	0.42481
2075.13535	0.42274
2073.20679	0.42062
2071.27822	0.41840
2069.34966	0.41618
2067.42109	0.41391
2065.49253	0.41159
2063.56396	0.40922
2061.63540	0.40677
2059.70684	0.40430
2057.77827	0.40186
2055.84971	0.39933
2053.92114	0.39670
2051.99258	0.39409
2050.06401	0.39146
2048.13545	0.38881
2046.20688	0.38619
2044.27832	0.38363
2042.34976	0.38104
2040.42119	0.37838
2038.49263	0.37560
2036.56406	0.37276
2034.63550	0.36996
2032.70693	0.36719
2030.77837	0.36443
2028.84980	0.36167
2026.92124	0.35896
2024.99268	0.35626
2023.06411	0.35348
2021.13555	0.35066
2019.20698	0.34801
2017.27842	0.34544
2015.34985	0.34269
2013.42129	0.33982
2011.49272	0.33696
2009.56416	0.33419
2007.63560	0.33154
2005.70703	0.32894
2003.77847	0.32632
2001.84990	0.32370
1999.92134	0.32107
1997.99277	0.31837
1996.06421	0.31574
1994.13564	0.31333
1992.20708	0.31099
1990.27852	0.30847
1988.34995	0.30594
1986.42139	0.30349
1984.49282	0.30100
1982.56426	0.29844
1980.63569	0.29599
1978.70713	0.29378
1976.77856	0.29167
1974.85000	0.28948
1972.92144	0.28731
1970.99287	0.28529
1969.06431	0.28339
1967.13574	0.28147
1965.20718	0.27931
1963.27861	0.27714
1961.35005	0.27517
1959.42148	0.27329
1957.49292	0.27144
1955.56436	0.26965
1953.63579	0.26787
1951.70723	0.26607
1949.77866	0.26437
1947.85010	0.26286
1945.92153	0.26155
1943.99297	0.26036
1942.06440	0.25906
1940.13584	0.25738
1938.20728	0.25564
1936.27871	0.25417
1934.35015	0.25284
1932.42158	0.25150
1930.49302	0.25022
1928.56445	0.24917
1926.63589	0.24827
1924.70732	0.24750
1922.77876	0.24672
1920.85020	0.24575
1918.92163	0.24488
1916.99307	0.24406
1915.06450	0.24301
1913.13594	0.24199
1911.20737	0.24126
1909.27881	0.24066
1907.35024	0.24000
1905.42168	0.23919
1903.49312	0.23838
1901.56455	0.23778
1899.63599	0.23736
1897.70742	0.23705
1895.77886	0.23681
1893.85029	0.23657
1891.92173	0.23622
1889.99316	0.23598
1888.06460	0.23575
1886.13604	0.23543
1884.20747	0.23515
1882.27891	0.23493
1880.35034	0.23477
1878.42178	0.23467
1876.49321	0.23467
1874.56465	0.23467
1872.63608	0.23480
1870.70752	0.23527
1868.77896	0.23612
1866.85039	0.23644
1864.92183	0.23601
1862.99326	0.23572
1861.06470	0.23582
1859.13613	0.23608
1857.20757	0.23635
1855.27900	0.23676
1853.35044	0.23726
1851.42187	0.23785
1849.49331	0.23858
1847.56475	0.23948
1845.63618	0.24056
1843.70762	0.24166
1841.77905	0.24225
1839.85049	0.24250
1837.92192	0.24324
1835.99336	0.24428
1834.06479	0.24524
1832.13623	0.24625
1830.20767	0.24779
1828.27910	0.24940
1826.35054	0.25042
1824.42197	0.25154
1822.49341	0.25265
1820.56484	0.25373
1818.63628	0.25505
1816.70771	0.25666
1814.77915	0.25828
1812.85059	0.26015
1810.92202	0.26242
1808.99346	0.26452
1807.06489	0.26626
1805.13633	0.26802
1803.20776	0.27030
1801.27920	0.27303
1799.35063	0.27589
1797.42207	0.27831
1795.49351	0.28073
1793.56494	0.28384
1791.63638	0.28774
1789.70781	0.29095
1787.77925	0.29312
1785.85068	0.29603
1783.92212	0.29979
1781.99355	0.30392
1780.06499	0.30818
1778.13643	0.31240
1776.20786	0.31648
1774.27930	0.32114
1772.35073	0.32744
1770.42217	0.33387
1768.49360	0.33885
1766.56504	0.34356
1764.63647	0.34858
1762.70791	0.35450
1760.77935	0.36219
1758.85078	0.36931
1756.92222	0.37632
1754.99365	0.38401
1753.06509	0.39124
1751.13652	0.40017
1749.20796	0.41143
1747.27939	0.42210
1745.35083	0.43098
1743.42227	0.44029
1741.49370	0.45078
1739.56514	0.46328
1737.63657	0.47569
1735.70801	0.48656
1733.77944	0.50294
1731.85088	0.52220
1729.92231	0.53730
1727.99375	0.55268
1726.06519	0.56927
1724.13662	0.58757
1722.20806	0.60755
1720.27949	0.62608
1718.35093	0.64793
1716.42236	0.68034
1714.49380	0.71087
1712.56523	0.73509
1710.63667	0.75853
1708.70811	0.78418
1706.77954	0.81379
1704.85098	0.84910
1702.92241	0.88017
1700.99385	0.91077
1699.06528	0.95727
1697.13672	1.00059
1695.20815	1.04444
1693.27959	1.08672
1691.35103	1.12106
1689.42246	1.16101
1687.49390	1.20320
1685.56533	1.24401
1683.63677	1.30725
1681.70820	1.37255
1679.77964	1.41371
1677.85107	1.45290
1675.92251	1.49863
1673.99395	1.55567
1672.06538	1.60622
1670.13682	1.65616
1668.20825	1.72193
1666.27969	1.77524
1664.35112	1.82038
1662.42256	1.87830
1660.49399	1.94415
1658.56543	1.99455
1656.63687	2.03463
1654.70830	2.07223
1652.77974	2.13294
1650.85117	2.18941
1648.92261	2.20912
1646.99404	2.23536
1645.06548	2.26301
1643.13691	2.27872
1641.20835	2.28667
1639.27979	2.29420
1637.35122	2.29829
1635.42266	2.29536
1633.49409	2.28585
1631.56553	2.27190
1629.63696	2.25497
1627.70840	2.22710
1625.77983	2.19386
1623.85127	2.15143
1621.92271	2.10069
1619.99414	2.05769
1618.06558	2.01607
1616.13701	1.95338
1614.20845	1.88717
1612.27988	1.83677
1610.35132	1.78550
1608.42275	1.73018
1606.49419	1.67497
1604.56562	1.62414
1602.63706	1.57545
1600.70850	1.52784
1598.77993	1.48394
1596.85137	1.44305
1594.92280	1.40382
1592.99424	1.36587
1591.06567	1.33092
1589.13711	1.29868
1587.20854	1.26916
1585.27998	1.24183
1583.35142	1.21637
1581.42285	1.19339
1579.49429	1.17386
1577.56572	1.15658
1575.63716	1.13571
1573.70859	1.11704
1571.78003	1.10507
1569.85146	1.09329
1567.92290	1.08031
1565.99434	1.07056
1564.06577	1.06331
1562.13721	1.05792
1560.20864	1.05546
1558.28008	1.05493
1556.35151	1.05330
1554.42295	1.05147
1552.49438	1.05005
1550.56582	1.04744
1548.63726	1.04270
1546.70869	1.03639
1544.78013	1.02812
1542.85156	1.01707
1540.92300	1.00087
1538.99443	0.97537
1537.06587	0.95603
1535.13730	0.94298
1533.20874	0.92595
1531.28018	0.90716
1529.35161	0.89334
1527.42305	0.88080
1525.49448	0.86802
1523.56592	0.85720
1521.63735	0.84695
1519.70879	0.83619
1517.78022	0.82701
1515.85166	0.81650
1513.92310	0.80517
1511.99453	0.79536
1510.06597	0.78702
1508.13740	0.77959
1506.20884	0.76731
1504.28027	0.75504
1502.35171	0.74784
1500.42314	0.74193
1498.49458	0.73596
1496.56602	0.72907
1494.63745	0.72194
1492.70889	0.71649
1490.78032	0.71228
1488.85176	0.70738
1486.92319	0.70179
1484.99463	0.69688
1483.06606	0.69305
1481.13750	0.69004
1479.20894	0.68781
1477.28037	0.68660
1475.35181	0.68631
1473.42324	0.68629
1471.49468	0.68495
1469.56611	0.68233
1467.63755	0.67988
1465.70898	0.67805
1463.78042	0.67640
1461.85186	0.67508
1459.92329	0.67500
1457.99473	0.67618
1456.06616	0.67584
1454.13760	0.67267
1452.20903	0.66961
1450.28047	0.66702
1448.35190	0.66458
1446.42334	0.66180
1444.49478	0.65892
1442.56621	0.65630
1440.63765	0.65385
1438.70908	0.65165
1436.78052	0.64928
1434.85195	0.64614
1432.92339	0.64325
1430.99482	0.64130
1429.06626	0.64008
1427.13770	0.63935
1425.20913	0.63926
1423.28057	0.63966
1421.35200	0.64006
1419.42344	0.64070
1417.49487	0.64091
1415.56631	0.63972
1413.63774	0.63844
1411.70918	0.63797
1409.78062	0.63831
1407.85205	0.63904
1405.92349	0.63996
1403.99492	0.64068
1402.06636	0.64067
1400.13779	0.64022
1398.20923	0.63912
1396.28066	0.63687
1394.35210	0.63340
1392.42354	0.62942
1390.49497	0.62592
1388.56641	0.62262
1386.63784	0.61862
1384.70928	0.61409
1382.78071	0.60981
1380.85215	0.60587
1378.92358	0.60248
1376.99502	0.59999
1375.06646	0.59828
1373.13789	0.59685
1371.20933	0.59559
1369.28076	0.59455
1367.35220	0.59335
1365.42363	0.59201
1363.49507	0.59083
1361.56650	0.58956
1359.63794	0.58801
1357.70937	0.58659
1355.78081	0.58542
1353.85225	0.58443
1351.92368	0.58357
1349.99512	0.58281
1348.06655	0.58221
1346.13799	0.58163
1344.20942	0.58089
1342.28086	0.58011
1340.35229	0.57956
1338.42373	0.57908
1336.49517	0.57835
1334.56660	0.57762
1332.63804	0.57728
1330.70947	0.57728
1328.78091	0.57743
1326.85234	0.57778
1324.92378	0.57828
1322.99521	0.57875
1321.06665	0.57913
1319.13809	0.57950
1317.20952	0.57966
1315.28096	0.57953
1313.35239	0.57924
1311.42383	0.57873
1309.49526	0.57806
1307.56670	0.57747
1305.63813	0.57699
1303.70957	0.57646
1301.78101	0.57570
1299.85244	0.57470
1297.92388	0.57368
1295.99531	0.57264
1294.06675	0.57152
1292.13818	0.57033
1290.20962	0.56913
1288.28105	0.56806
1286.35249	0.56708
1284.42393	0.56603
1282.49536	0.56484
1280.56680	0.56367
1278.63823	0.56257
1276.70967	0.56147
1274.78110	0.56046
1272.85254	0.55957
1270.92397	0.55876
1268.99541	0.55810
1267.06685	0.55748
1265.13828	0.55664
1263.20972	0.55574
1261.28115	0.55498
1259.35259	0.55430
1257.42402	0.55373
1255.49546	0.55339
1253.56689	0.55321
1251.63833	0.55318
1249.70977	0.55334
1247.78120	0.55345
1245.85264	0.55321
1243.92407	0.55262
1241.99551	0.55188
1240.06694	0.55097
1238.13838	0.54962
1236.20981	0.54782
1234.28125	0.54591
1232.35269	0.54403
1230.42412	0.54210
1228.49556	0.54035
1226.56699	0.53891
1224.63843	0.53758
1222.70986	0.53614
1220.78130	0.53464
1218.85273	0.53332
1216.92417	0.53232
1214.99561	0.53142
1213.06704	0.53060
1211.13848	0.53002
1209.20991	0.52946
1207.28135	0.52872
1205.35278	0.52785
1203.42422	0.52683
1201.49565	0.52578
1199.56709	0.52491
1197.63853	0.52423
1195.70996	0.52369
1193.78140	0.52329
1191.85283	0.52298
1189.92427	0.52272
1187.99570	0.52243
1186.06714	0.52218
1184.13857	0.52214
1182.21001	0.52246
1180.28145	0.52321
1178.35288	0.52422
1176.42432	0.52530
1174.49575	0.52621
1172.56719	0.52673
1170.63862	0.52684
1168.71006	0.52669
1166.78149	0.52645
1164.85293	0.52621
1162.92437	0.52603
1160.99580	0.52582
1159.06724	0.52534
1157.13867	0.52446
1155.21011	0.52317
1153.28154	0.52167
1151.35298	0.52018
1149.42441	0.51845
1147.49585	0.51613
1145.56729	0.51357
1143.63872	0.51124
1141.71016	0.50913
1139.78159	0.50708
1137.85303	0.50526
1135.92446	0.50402
1133.99590	0.50335
1132.06733	0.50274
1130.13877	0.50185
1128.21021	0.50084
1126.28164	0.49985
1124.35308	0.49890
1122.42451	0.49806
1120.49595	0.49722
1118.56738	0.49640
1116.63882	0.49606
1114.71025	0.49614
1112.78169	0.49621
1110.85312	0.49632
1108.92456	0.49680
1106.99600	0.49769
1105.06743	0.49873
1103.13887	0.49986
1101.21030	0.50144
1099.28174	0.50353
1097.35317	0.50603
1095.42461	0.50914
1093.49604	0.51294
1091.56748	0.51714
1089.63892	0.52165
1087.71035	0.52671
1085.78179	0.53253
1083.85322	0.53901
1081.92466	0.54542
1079.99609	0.55069
1078.06753	0.55407
1076.13896	0.55495
1074.21040	0.55301
1072.28184	0.54849
1070.35327	0.54231
1068.42471	0.53560
1066.49614	0.52894
1064.56758	0.52256
1062.63901	0.51664
1060.71045	0.51126
1058.78188	0.50664
1056.85332	0.50272
1054.92476	0.49928
1052.99619	0.49634
1051.06763	0.49385
1049.13906	0.49177
1047.21050	0.49008
1045.28193	0.48853
1043.35337	0.48708
1041.42480	0.48582
1039.49624	0.48467
1037.56768	0.48362
1035.63911	0.48277
1033.71055	0.48209
1031.78198	0.48151
1029.85342	0.48100
1027.92485	0.48089
1025.99629	0.48132
1024.06772	0.48195
1022.13916	0.48260
1020.21060	0.48330
1018.28203	0.48406
1016.35347	0.48484
1014.42490	0.48563
1012.49634	0.48644
1010.56777	0.48744
1008.63921	0.48862
1006.71064	0.48993
1004.78208	0.49173
1002.85352	0.49420
1000.92495	0.49717
998.99639	0.50052
997.06782	0.50422
995.13926	0.50818
993.21069	0.51203
991.28213	0.51541
989.35356	0.51809
987.42500	0.51984
985.49644	0.52077
983.56787	0.52145
981.63931	0.52232
979.71074	0.52365
977.78218	0.52566
975.85361	0.52817
973.92505	0.53078
971.99648	0.53359
970.06792	0.53689
968.13936	0.54070
966.21079	0.54496
964.28223	0.54962
962.35366	0.55448
960.42510	0.55950
958.49653	0.56496
956.56797	0.57090
954.63940	0.57699
952.71084	0.58298
950.78228	0.58903
948.85371	0.59524
946.92515	0.60167
944.99658	0.60835
943.06802	0.61487
941.13945	0.62096
939.21089	0.62686
937.28232	0.63275
935.35376	0.63868
933.42520	0.64425
931.49663	0.64933
929.56807	0.65480
927.63950	0.66100
925.71094	0.66726
923.78237	0.67312
921.85381	0.67907
919.92524	0.68575
917.99668	0.69289
916.06812	0.70023
914.13955	0.70780
912.21099	0.71529
910.28242	0.72282
908.35386	0.73107
906.42529	0.74011
904.49673	0.74943
902.56816	0.75899
900.63960	0.76870
898.71104	0.77801
896.78247	0.78714
894.85391	0.79646
892.92534	0.80609
890.99678	0.81657
889.06821	0.82805
887.13965	0.83959
885.21108	0.85066
883.28252	0.86172
881.35396	0.87338
879.42539	0.88535
877.49683	0.89664
875.56826	0.90766
873.63970	0.91944
871.71113	0.93127
869.78257	0.94243
867.85400	0.95329
865.92544	0.96446
863.99687	0.97657
862.06831	0.98973
860.13975	1.00247
858.21118	1.01318
856.28262	1.02220
854.35405	1.03237
852.42549	1.04636
850.49692	1.06207
848.56836	1.07550
846.63979	1.08705
844.71123	1.09844
842.78267	1.10935
840.85410	1.12047
838.92554	1.13288
836.99697	1.14629
835.06841	1.15720
833.13984	1.16402
831.21128	1.17152
829.28271	1.18180
827.35415	1.19356
825.42559	1.20563
823.49702	1.21751
821.56846	1.22919
819.63989	1.23997
817.71133	1.24828
815.78276	1.25636
813.85420	1.26839
811.92563	1.28078
809.99707	1.29180
808.06851	1.30290
806.13994	1.31465
804.21138	1.33474
802.28281	1.36200
800.35425	1.37187
798.42568	1.36432
796.49712	1.35343
794.56855	1.34489
792.63999	1.35863
790.71143	1.40643
788.78286	1.42909
786.85430	1.35075
784.92573	1.24098
782.99717	1.17669
781.06860	1.15934
779.14004	1.18574
777.21147	1.22975
775.28291	1.19661
773.35435	1.12096
771.42578	1.07617
769.49722	1.02898
767.56865	0.97956
765.64009	0.94748
763.71152	0.94306
761.78296	0.96805
759.85439	0.97990
757.92583	0.93511
755.99727	0.86151
754.06870	0.80800
752.14014	0.79144
750.21157	0.78115
748.28301	0.73484
746.35444	0.67112
744.42588	0.61992
742.49731	0.57338
740.56875	0.53619
738.64019	0.52618
736.71162	0.51049
734.78306	0.42520
732.85449	0.30098
730.92593	0.22550
728.99736	0.18959
727.06880	0.11591
725.14023	0.00758
723.21167	-0.06558
721.28311	-0.10896
719.35454	-0.15508
717.42598	-0.21643
715.49741	-0.23190
713.56885	-0.19616
711.64028	-0.15726
709.71172	-0.10701
707.78315	-0.06855
705.85459	-0.05057
703.92603	-0.05852
701.99746	-0.07719
700.06890	-0.06012
698.14033	-0.02655
696.21177	-0.01254
694.28320	-0.00124
692.35464	0.00549
690.42607	-0.00200
688.49751	-0.00872
686.56895	-0.02352
684.64038	-0.07689
682.71182	-0.12957
680.78325	-0.10367
678.85469	-0.03969
676.92612	-0.00784
674.99756	0.00364
673.06899	0.01227
671.14043	0.01940
669.21187	0.02297
667.28330	0.01979
665.35474	0.01604
663.42617	-0.00865
661.49761	-0.05444
659.56904	-0.06913
657.64048	-0.03936
655.71191	-0.01247
653.78335	-0.00788
651.85479	0.00945
649.92622	0.03044
647.99766	0.04086
646.06909	0.05312
644.14053	0.05500
642.21196	0.03711
640.28340	0.01591
638.35483	-0.00136
636.42627	-0.01939
634.49771	-0.03410
632.56914	-0.04520
630.64058	-0.04989
628.71201	-0.04079
626.78345	-0.00684
624.85488	0.04733
622.92632	0.06747
620.99775	0.03748
619.06919	-0.00282
617.14062	-0.02093
615.21206	-0.03056
613.28350	-0.03471
611.35493	-0.02668
609.42637	-0.02274
607.49780	-0.00972
605.56924	0.01246
603.64067	0.01778
601.71211	0.00713
599.78354	-0.00137
597.85498	0.01378
595.92642	0.03017
593.99785	0.00136
592.06929	-0.04669
590.14072	-0.04976
588.21216	-0.01492
586.28359	-0.00626
584.35503	-0.02318
582.42646	-0.02524
580.49790	-0.00177
578.56934	0.01848
576.64077	0.01764
574.71221	0.00520
572.78364	-0.01142
570.85508	-0.02033
568.92651	-0.01668
566.99795	-0.02227
565.06938	-0.04451
563.14082	-0.06623
561.21226	-0.05647
559.28369	-0.01835
557.35513	0.01241
555.42656	0.02617
553.49800	0.02747
551.56943	0.03621
549.64087	0.05419
547.71230	0.05361
545.78374	0.04145
543.85518	0.04250
541.92661	0.04078
539.99805	0.03009
538.06948	0.02618
536.14092	0.02496
534.21235	0.01590
532.28379	0.00718
530.35522	0.01202
528.42666	0.01161
526.49810	-0.00895
524.56953	-0.01579
522.64097	0.00245
520.71240	0.00887
518.78384	0.00719
516.85527	0.02900
514.92671	0.06570
512.99814	0.08545
511.06958	0.08508
509.14102	0.06990
507.21245	0.04694
505.28389	0.02399
503.35532	0.00012
501.42676	-0.01360
499.49819	-0.00863
