3997.91411	0.06100
3995.98555	0.06125
3994.05698	0.06106
3992.12842	0.06082
3990.19985	0.06115
3988.27129	0.06166
3986.34272	0.06209
3984.41416	0.06258
3982.48560	0.06295
3980.55703	0.06320
3978.62847	0.06324
3976.69990	0.06312
3974.77134	0.06319
3972.84277	0.06340
3970.91421	0.06354
3968.98564	0.06373
3967.05708	0.06394
3965.12852	0.06391
3963.19995	0.06390
3961.27139	0.06423
3959.34282	0.06462
3957.41426	0.06474
3955.48569	0.06486
3953.55713	0.06492
3951.62856	0.06486
3949.70000	0.06515
3947.77144	0.06557
3945.84287	0.06560
3943.91431	0.06538
3941.98574	0.06520
3940.05718	0.06512
3938.12861	0.06520
3936.20005	0.06510
3934.27148	0.06469
3932.34292	0.06454
3930.41436	0.06479
3928.48579	0.06490
3926.55723	0.06458
3924.62866	0.06437
3922.70010	0.06480
3920.77153	0.06529
3918.84297	0.06527
3916.91440	0.06511
3914.98584	0.06519
3913.05728	0.06532
3911.12871	0.06512
3909.20015	0.06441
3907.27158	0.06384
3905.34302	0.06402
3903.41445	0.06443
3901.48589	0.06423
3899.55732	0.06413
3897.62876	0.06456
3895.70020	0.06473
3893.77163	0.06474
3891.84307	0.06484
3889.91450	0.06473
3887.98594	0.06445
3886.05737	0.06425
3884.12881	0.06422
3882.20024	0.06463
3880.27168	0.06524
3878.34312	0.06540
3876.41455	0.06502
3874.48599	0.06470
3872.55742	0.06494
3870.62886	0.06567
3868.70029	0.06643
3866.77173	0.06696
3864.84316	0.06736
3862.91460	0.06770
3860.98604	0.06784
3859.05747	0.06794
3857.12891	0.06800
3855.20034	0.06759
3853.27178	0.06706
3851.34321	0.06813
3849.41465	0.06968
3847.48608	0.07063
3845.55752	0.07131
3843.62896	0.07181
3841.70039	0.07209
3839.77183	0.07235
3837.84326	0.07324
3835.91470	0.07448
3833.98613	0.07491
3832.05757	0.07490
3830.12900	0.07550
3828.20044	0.07642
3826.27187	0.07680
3824.34331	0.07678
3822.41475	0.07730
3820.48618	0.07940
3818.55762	0.08190
3816.62905	0.08304
3814.70049	0.08352
3812.77192	0.08379
3810.84336	0.08419
3808.91479	0.08486
3806.98623	0.08572
3805.05767	0.08673
3803.12910	0.08766
3801.20054	0.08902
3799.27197	0.09106
3797.34341	0.09267
3795.41484	0.09392
3793.48628	0.09488
3791.55771	0.09554
3789.62915	0.09637
3787.70059	0.09746
3785.77202	0.09877
3783.84346	0.10026
3781.91489	0.10155
3779.98633	0.10301
3778.05776	0.10521
3776.12920	0.10703
3774.20063	0.10812
3772.27207	0.10941
3770.34351	0.11131
3768.41494	0.11379
3766.48638	0.11610
3764.55781	0.11787
3762.62925	0.11931
3760.70068	0.12101
3758.77212	0.12364
3756.84355	0.12634
3754.91499	0.12782
3752.98643	0.12889
3751.05786	0.13104
3749.12930	0.13501
3747.20073	0.13871
3745.27217	0.14119
3743.34360	0.14427
3741.41504	0.14747
3739.48647	0.14927
3737.55791	0.15075
3735.62935	0.15343
3733.70078	0.15802
3731.77222	0.16292
3729.84365	0.16656
3727.91509	0.16972
3725.98652	0.17455
3724.05796	0.18155
3722.12939	0.18929
3720.20083	0.19759
3718.27227	0.20678
3716.34370	0.21626
3714.41514	0.22450
3712.48657	0.23229
3710.55801	0.24296
3708.62944	0.25605
3706.70088	0.26808
3704.77231	0.27944
3702.84375	0.29203
3700.91519	0.30829
3698.98662	0.32671
3697.05806	0.34450
3695.12949	0.36306
3693.20093	0.38248
3691.27236	0.40349
3689.34380	0.43128
3687.41523	0.46639
3685.48667	0.49743
3683.55811	0.52412
3681.62954	0.55257
3679.70098	0.58401
3677.77241	0.61627
3675.84385	0.65413
3673.91528	0.70634
3671.98672	0.75043
3670.05815	0.78943
3668.12959	0.84198
3666.20103	0.88990
3664.27246	0.92998
3662.34390	0.97291
3660.41533	1.01922
3658.48677	1.06496
3656.55820	1.11355
3654.62964	1.16795
3652.70107	1.21402
3650.77251	1.25301
3648.84395	1.30548
3646.91538	1.37232
3644.98682	1.42396
3643.05825	1.46383
3641.12969	1.50383
3639.20112	1.54719
3637.27256	1.59020
3635.34399	1.63170
3633.41543	1.67291
3631.48687	1.71097
3629.55830	1.74913
3627.62974	1.80057
3625.70117	1.85173
3623.77261	1.88794
3621.84404	1.92169
3619.91548	1.95880
3617.98691	2.00309
3616.05835	2.04706
3614.12979	2.08491
3612.20122	2.12402
3610.27266	2.16241
3608.34409	2.20038
3606.41553	2.24156
3604.48696	2.28128
3602.55840	2.31686
3600.62983	2.35456
3598.70127	2.39475
3596.77271	2.43356
3594.84414	2.47362
3592.91558	2.51524
3590.98701	2.55403
3589.05845	2.59003
3587.12988	2.63236
3585.20132	2.68078
3583.27275	2.72514
3581.34419	2.76481
3579.41562	2.80394
3577.48706	2.84549
3575.55850	2.88864
3573.62993	2.93247
3571.70137	2.97479
3569.77280	3.01569
3567.84424	3.05938
3565.91567	3.11264
3563.98711	3.16366
3562.05854	3.20304
3560.12998	3.24170
3558.20142	3.28534
3556.27285	3.33282
3554.34429	3.38015
3552.41572	3.42624
3550.48716	3.47050
3548.55859	3.51444
3546.63003	3.56034
3544.70146	3.60781
3542.77290	3.65540
3540.84434	3.70382
3538.91577	3.75181
3536.98721	3.79588
3535.05864	3.84144
3533.13008	3.89095
3531.20151	3.93966
3529.27295	3.98691
3527.34438	4.03643
3525.41582	4.08899
3523.48726	4.14073
3521.55869	4.18868
3519.63013	4.23429
3517.70156	4.28210
3515.77300	4.32941
3513.84443	4.37435
3511.91587	4.42251
3509.98730	4.47492
3508.05874	4.52378
3506.13018	4.56612
3504.20161	4.60788
3502.27305	4.65504
3500.34448	4.70952
3498.41592	4.76276
3496.48735	4.81113
3494.55879	4.86394
3492.63022	4.91875
3490.70166	4.96338
3488.77310	5.00351
3486.84453	5.05004
3484.91597	5.10068
3482.98740	5.15178
3481.05884	5.20518
3479.13027	5.25751
3477.20171	5.30131
3475.27314	5.33991
3473.34458	5.38653
3471.41602	5.44530
3469.48745	5.50533
3467.55889	5.55777
3465.63032	5.60536
3463.70176	5.65307
3461.77319	5.70367
3459.84463	5.76273
3457.91606	5.82031
3455.98750	5.86323
3454.05894	5.89974
3452.13037	5.94498
3450.20181	5.99605
3448.27324	6.03657
3446.34468	6.07307
3444.41611	6.11938
3442.48755	6.18269
3440.55898	6.26103
3438.63042	6.32994
3436.70186	6.37752
3434.77329	6.42831
3432.84473	6.48471
3430.91616	6.52056
3428.98760	6.54903
3427.05903	6.59574
3425.13047	6.66044
3423.20190	6.72428
3421.27334	6.78772
3419.34478	6.84546
3417.41621	6.87525
3415.48765	6.90200
3413.55908	6.94640
3411.63052	6.99242
3409.70195	7.04461
3407.77339	7.12386
3405.84482	7.20483
3403.91626	7.25534
3401.98770	7.26040
3400.05913	7.24069
3398.13057	7.23893
3396.20200	7.27608
3394.27344	7.34875
3392.34487	7.41488
3390.41631	7.46766
3388.48774	7.51113
3386.55918	7.54702
3384.63062	7.59920
3382.70205	7.65648
3380.77349	7.66862
3378.84492	7.65683
3376.91636	7.68890
3374.98779	7.76280
3373.05923	7.86016
3371.13066	7.92626
3369.20210	7.95531
3367.27354	8.00375
3365.34497	8.05042
3363.41641	8.06709
3361.48784	8.07693
3359.55928	8.07820
3357.63071	8.07627
3355.70215	8.08271
3353.77358	8.04338
3351.84502	7.99924
3349.91646	8.03603
3347.98789	8.11638
3346.05933	8.12334
3344.13076	8.10375
3342.20220	8.16810
3340.27363	8.27292
3338.34507	8.32567
3336.41650	8.27859
3334.48794	8.26065
3332.55937	8.33572
3330.63081	8.41690
3328.70225	8.43401
3326.77368	8.32295
3324.84512	8.16670
3322.91655	8.12352
3320.98799	8.18072
3319.05942	8.24581
3317.13086	8.31620
3315.20229	8.34239
3313.27373	8.32941
3311.34517	8.32903
3309.41660	8.30139
3307.48804	8.24643
3305.55947	8.22293
3303.63091	8.25270
3301.70234	8.29756
3299.77378	8.33728
3297.84521	8.34010
3295.91665	8.35270
3293.98809	8.38466
3292.05952	8.33509
3290.13096	8.24388
3288.20239	8.22601
3286.27383	8.30310
3284.34526	8.41808
3282.41670	8.51991
3280.48813	8.55642
3278.55957	8.58841
3276.63101	8.64496
3274.70244	8.58403
3272.77388	8.43179
3270.84531	8.38405
3268.91675	8.49562
3266.98818	8.59003
3265.05962	8.50644
3263.13105	8.35359
3261.20249	8.31236
3259.27393	8.36631
3257.34536	8.37416
3255.41680	8.36782
3253.48823	8.45653
3251.55967	8.53916
3249.63110	8.49704
3247.70254	8.46283
3245.77397	8.45591
3243.84541	8.42139
3241.91685	8.44938
3239.98828	8.50089
3238.05972	8.47298
3236.13115	8.42145
3234.20259	8.36762
3232.27402	8.30834
3230.34546	8.26877
3228.41689	8.25235
3226.48833	8.26074
3224.55977	8.24709
3222.63120	8.20874
3220.70264	8.23003
3218.77407	8.31434
3216.84551	8.29543
3214.91694	8.13378
3212.98838	8.04195
3211.05981	8.11772
3209.13125	8.24190
3207.20269	8.23933
3205.27412	8.12987
3203.34556	8.01450
3201.41699	7.94252
3199.48843	7.92257
3197.55986	7.89271
3195.63130	7.82678
3193.70273	7.74655
3191.77417	7.69992
3189.84561	7.72507
3187.91704	7.74406
3185.98848	7.69999
3184.05991	7.63072
3182.13135	7.55981
3180.20278	7.49569
3178.27422	7.42078
3176.34565	7.33254
3174.41709	7.24364
3172.48853	7.16767
3170.55996	7.12537
3168.63140	7.09031
3166.70283	7.04529
3164.77427	7.01307
3162.84570	6.96707
3160.91714	6.87413
3158.98857	6.76298
3157.06001	6.67852
3155.13145	6.63217
3153.20288	6.59181
3151.27432	6.53953
3149.34575	6.47620
3147.41719	6.38548
3145.48862	6.27543
3143.56006	6.17587
3141.63149	6.09735
3139.70293	6.03874
3137.77437	5.99095
3135.84580	5.93693
3133.91724	5.87577
3131.98867	5.80794
3130.06011	5.72719
3128.13154	5.63936
3126.20298	5.55493
3124.27441	5.47873
3122.34585	5.40575
3120.41729	5.32920
3118.48872	5.25266
3116.56016	5.18723
3114.63159	5.12704
3112.70303	5.05530
3110.77446	4.97538
3108.84590	4.90082
3106.91733	4.83262
3104.98877	4.76369
3103.06021	4.69349
3101.13164	4.62217
3099.20308	4.55107
3097.27451	4.48267
3095.34595	4.41335
3093.41738	4.34479
3091.48882	4.28139
3089.56025	4.22031
3087.63169	4.15760
3085.70312	4.09171
3083.77456	4.02450
3081.84600	3.96070
3079.91743	3.89995
3077.98887	3.83714
3076.06030	3.77214
3074.13174	3.70912
3072.20317	3.64849
3070.27461	3.58841
3068.34604	3.52861
3066.41748	3.46880
3064.48892	3.41001
3062.56035	3.35394
3060.63179	3.30081
3058.70322	3.24800
3056.77466	3.19264
3054.84609	3.13669
3052.91753	3.08301
3050.98896	3.03113
3049.06040	2.97934
3047.13184	2.92758
3045.20327	2.87702
3043.27471	2.82733
3041.34614	2.77784
3039.41758	2.72940
3037.48901	2.68200
3035.56045	2.63466
3033.63188	2.58822
3031.70332	2.54304
3029.77476	2.49846
3027.84619	2.45437
3025.91763	2.41054
3023.98906	2.36760
3022.06050	2.32609
3020.13193	2.28499
3018.20337	2.24402
3016.27480	2.20398
3014.34624	2.16486
3012.41768	2.12600
3010.48911	2.08751
3008.56055	2.04995
3006.63198	2.01347
3004.70342	1.97800
3002.77485	1.94255
3000.84629	1.90616
2998.91772	1.87036
2996.98916	1.83667
2995.06060	1.80415
2993.13203	1.77146
2991.20347	1.73884
2989.27490	1.70690
2987.34634	1.67551
2985.41777	1.64469
2983.48921	1.61449
2981.56064	1.58460
2979.63208	1.55511
2977.70352	1.52635
2975.77495	1.49807
2973.84639	1.47002
2971.91782	1.44248
2969.98926	1.41554
2968.06069	1.38882
2966.13213	1.36213
2964.20356	1.33601
2962.27500	1.31091
2960.34644	1.28620
2958.41787	1.26184
2956.48931	1.23853
2954.56074	1.21604
2952.63218	1.19378
2950.70361	1.17201
2948.77505	1.15090
2946.84648	1.12996
2944.91792	1.10894
2942.98936	1.08849
2941.06079	1.06907
2939.13223	1.04961
2937.20366	1.02941
2935.27510	1.00965
2933.34653	0.99084
2931.41797	0.97209
2929.48940	0.95357
2927.56084	0.93618
2925.63228	0.91973
2923.70371	0.90344
2921.77515	0.88708
2919.84658	0.87083
2917.91802	0.85460
2915.98945	0.83859
2914.06089	0.82320
2912.13232	0.80834
2910.20376	0.79374
2908.27520	0.77946
2906.34663	0.76578
2904.41807	0.75244
2902.48950	0.73936
2900.56094	0.72669
2898.63237	0.71424
2896.70381	0.70204
2894.77524	0.69006
2892.84668	0.67796
2890.91812	0.66578
2888.98955	0.65401
2887.06099	0.64256
2885.13242	0.63118
2883.20386	0.62007
2881.27529	0.60915
2879.34673	0.59854
2877.41816	0.58849
2875.48960	0.57847
2873.56104	0.56821
2871.63247	0.55813
2869.70391	0.54838
2867.77534	0.53900
2865.84678	0.52991
2863.91821	0.52081
2861.98965	0.51169
2860.06108	0.50284
2858.13252	0.49432
2856.20396	0.48587
2854.27539	0.47744
2852.34683	0.46915
2850.41826	0.46104
2848.48970	0.45327
2846.56113	0.44595
2844.63257	0.43894
2842.70400	0.43209
2840.77544	0.42567
2838.84687	0.41965
2836.91831	0.41358
2834.98975	0.40751
2833.06118	0.40161
2831.13262	0.39569
2829.20405	0.38982
2827.27549	0.38412
2825.34692	0.37841
2823.41836	0.37254
2821.48979	0.36672
2819.56123	0.36121
2817.63267	0.35592
2815.70410	0.35053
2813.77554	0.34505
2811.84697	0.33970
2809.91841	0.33451
2807.98984	0.32951
2806.06128	0.32464
2804.13271	0.31979
2802.20415	0.31510
2800.27559	0.31061
2798.34702	0.30621
2796.41846	0.30195
2794.48989	0.29772
2792.56133	0.29335
2790.63276	0.28906
2788.70420	0.28500
2786.77563	0.28100
2784.84707	0.27701
2782.91851	0.27312
2780.98994	0.26940
2779.06138	0.26577
2777.13281	0.26218
2775.20425	0.25866
2773.27568	0.25524
2771.34712	0.25190
2769.41855	0.24875
2767.48999	0.24577
2765.56143	0.24272
2763.63286	0.23948
2761.70430	0.23630
2759.77573	0.23324
2757.84717	0.23022
2755.91860	0.22733
2753.99004	0.22460
2752.06147	0.22201
2750.13291	0.21947
2748.20435	0.21683
2746.27578	0.21424
2744.34722	0.21188
2742.41865	0.20964
2740.49009	0.20736
2738.56152	0.20508
2736.63296	0.20271
2734.70439	0.20032
2732.77583	0.19810
2730.84727	0.19609
2728.91870	0.19422
2726.99014	0.19225
2725.06157	0.19019
2723.13301	0.18831
2721.20444	0.18659
2719.27588	0.18487
2717.34731	0.18313
2715.41875	0.18134
2713.49019	0.17951
2711.56162	0.17775
2709.63306	0.17607
2707.70449	0.17443
2705.77593	0.17294
2703.84736	0.17163
2701.91880	0.17034
2699.99023	0.16905
2698.06167	0.16784
2696.13311	0.16648
2694.20454	0.16480
2692.27598	0.16327
2690.34741	0.16212
2688.41885	0.16107
2686.49028	0.15999
2684.56172	0.15887
2682.63315	0.15774
2680.70459	0.15676
2678.77603	0.15579
2676.84746	0.15466
2674.91890	0.15359
2672.99033	0.15265
2671.06177	0.15169
2669.13320	0.15072
2667.20464	0.14974
2665.27607	0.14879
2663.34751	0.14800
2661.41895	0.14737
2659.49038	0.14681
2657.56182	0.14625
2655.63325	0.14561
2653.70469	0.14494
2651.77612	0.14438
2649.84756	0.14386
2647.91899	0.14318
2645.99043	0.14236
2644.06187	0.14165
2642.13330	0.14124
2640.20474	0.14107
2638.27617	0.14094
2636.34761	0.14061
2634.41904	0.14011
2632.49048	0.13970
2630.56191	0.13952
2628.63335	0.13938
2626.70479	0.13912
2624.77622	0.13882
2622.84766	0.13854
2620.91909	0.13834
2618.99053	0.13832
2617.06196	0.13832
2615.13340	0.13818
2613.20483	0.13799
2611.27627	0.13785
2609.34771	0.13788
2607.41914	0.13812
2605.49058	0.13837
2603.56201	0.13851
2601.63345	0.13863
2599.70488	0.13868
2597.77632	0.13863
2595.84775	0.13860
2593.91919	0.13860
2591.99062	0.13867
2590.06206	0.13895
2588.13350	0.13946
2586.20493	0.13997
2584.27637	0.14034
2582.34780	0.14064
2580.41924	0.14090
2578.49067	0.14118
2576.56211	0.14150
2574.63354	0.14182
2572.70498	0.14218
2570.77642	0.14270
2568.84785	0.14328
2566.91929	0.14373
2564.99072	0.14407
2563.06216	0.14450
2561.13359	0.14513
2559.20503	0.14581
2557.27646	0.14639
2555.34790	0.14692
2553.41934	0.14740
2551.49077	0.14791
2549.56221	0.14850
2547.63364	0.14908
2545.70508	0.14962
2543.77651	0.15026
2541.84795	0.15105
2539.91938	0.15191
2537.99082	0.15266
2536.06226	0.15326
2534.13369	0.15393
2532.20513	0.15476
2530.27656	0.15560
2528.34800	0.15643
2526.41943	0.15730
2524.49087	0.15816
2522.56230	0.15890
2520.63374	0.15961
2518.70518	0.16037
2516.77661	0.16114
2514.84805	0.16192
2512.91948	0.16272
2510.99092	0.16354
2509.06235	0.16438
2507.13379	0.16527
2505.20522	0.16618
2503.27666	0.16716
2501.34810	0.16813
2499.41953	0.16896
2497.49097	0.16967
2495.56240	0.17049
2493.63384	0.17154
2491.70527	0.17269
2489.77671	0.17374
2487.84814	0.17460
2485.91958	0.17545
2483.99102	0.17639
2482.06245	0.17723
2480.13389	0.17800
2478.20532	0.17900
2476.27676	0.18016
2474.34819	0.18128
2472.41963	0.18232
2470.49106	0.18328
2468.56250	0.18412
2466.63394	0.18494
2464.70537	0.18596
2462.77681	0.18714
2460.84824	0.18817
2458.91968	0.18897
2456.99111	0.18979
2455.06255	0.19082
2453.13398	0.19200
2451.20542	0.19320
2449.27686	0.19434
2447.34829	0.19533
2445.41973	0.19624
2443.49116	0.19712
2441.56260	0.19802
2439.63403	0.19907
2437.70547	0.20023
2435.77690	0.20133
2433.84834	0.20237
2431.91978	0.20341
2429.99121	0.20451
2428.06265	0.20567
2426.13408	0.20689
2424.20552	0.20802
2422.27695	0.20902
2420.34839	0.21019
2418.41982	0.21150
2416.49126	0.21266
2414.56270	0.21370
2412.63413	0.21483
2410.70557	0.21610
2408.77700	0.21739
2406.84844	0.21865
2404.91987	0.21988
2402.99131	0.22096
2401.06274	0.22206
2399.13418	0.22336
2397.20562	0.22473
2395.27705	0.22602
2393.34849	0.22724
2391.41992	0.22840
2389.49136	0.22953
2387.56279	0.23047
2385.63423	0.23072
2383.70566	0.22982
2381.77710	0.22773
2379.84854	0.22474
2377.91997	0.22100
2375.99141	0.21643
2374.06284	0.21103
2372.13428	0.20444
2370.20571	0.19653
2368.27715	0.18833
2366.34858	0.18123
2364.42002	0.17537
2362.49146	0.17104
2360.56289	0.17013
2358.63433	0.17285
2356.70576	0.17839
2354.77720	0.18749
2352.84863	0.20029
2350.92007	0.21318
2348.99150	0.22091
2347.06294	0.22214
2345.13437	0.21776
2343.20581	0.21147
2341.27725	0.20945
2339.34868	0.21189
2337.42012	0.21518
2335.49155	0.21816
2333.56299	0.22146
2331.63442	0.22478
2329.70586	0.22778
2327.77729	0.23110
2325.84873	0.23532
2323.92017	0.24036
2321.99160	0.24599
2320.06304	0.25227
2318.13447	0.25846
2316.20591	0.26338
2314.27734	0.26734
2312.34878	0.27106
2310.42021	0.27474
2308.49165	0.27861
2306.56309	0.28281
2304.63452	0.28695
2302.70596	0.29052
2300.77739	0.29352
2298.84883	0.29635
2296.92026	0.29926
2294.99170	0.30216
2293.06313	0.30500
2291.13457	0.30792
2289.20601	0.31090
2287.27744	0.31383
2285.34888	0.31669
2283.42031	0.31923
2281.49175	0.32121
2279.56318	0.32283
2277.63462	0.32450
2275.70605	0.32641
2273.77749	0.32833
2271.84893	0.33023
2269.92036	0.33235
2267.99180	0.33473
2266.06323	0.33709
2264.13467	0.33931
2262.20610	0.34158
2260.27754	0.34401
2258.34897	0.34647
2256.42041	0.34883
2254.49185	0.35103
2252.56328	0.35314
2250.63472	0.35539
2248.70615	0.35792
2246.77759	0.36048
2244.84902	0.36276
2242.92046	0.36487
2240.99189	0.36702
2239.06333	0.36930
2237.13477	0.37171
2235.20620	0.37417
2233.27764	0.37648
2231.34907	0.37861
2229.42051	0.38077
2227.49194	0.38306
2225.56338	0.38540
2223.63481	0.38770
2221.70625	0.38998
2219.77769	0.39226
2217.84912	0.39447
2215.92056	0.39655
2213.99199	0.39857
2212.06343	0.40068
2210.13486	0.40291
2208.20630	0.40508
2206.27773	0.40720
2204.34917	0.40936
2202.42061	0.41143
2200.49204	0.41333
2198.56348	0.41516
2196.63491	0.41707
2194.70635	0.41907
2192.77778	0.42111
2190.84922	0.42319
2188.92065	0.42515
2186.99209	0.42694
2185.06353	0.42875
2183.13496	0.43065
2181.20640	0.43254
2179.27783	0.43428
2177.34927	0.43583
2175.42070	0.43731
2173.49214	0.43887
2171.56357	0.44040
2169.63501	0.44177
2167.70645	0.44306
2165.77788	0.44433
2163.84932	0.44546
2161.92075	0.44645
2159.99219	0.44745
2158.06362	0.44844
2156.13506	0.44936
2154.20649	0.45031
2152.27793	0.45131
2150.34937	0.45222
2148.42080	0.45296
2146.49224	0.45358
2144.56367	0.45403
2142.63511	0.45431
2140.70654	0.45463
2138.77798	0.45501
2136.84941	0.45519
2134.92085	0.45515
2132.99229	0.45503
2131.06372	0.45491
2129.13516	0.45468
2127.20659	0.45431
2125.27803	0.45393
2123.34946	0.45354
2121.42090	0.45316
2119.49233	0.45269
2117.56377	0.45199
2115.63521	0.45114
2113.70664	0.45033
2111.77808	0.44953
2109.84951	0.44867
2107.92095	0.44772
2105.99238	0.44661
2104.06382	0.44536
2102.13525	0.44397
2100.20669	0.44258
2098.27812	0.44128
2096.34956	0.43989
2094.42100	0.43838
2092.49243	0.43681
2090.56387	0.43512
2088.63530	0.43331
2086.70674	0.43147
2084.77817	0.42959
2082.84961	0.42757
2080.92104	0.42547
2078.99248	0.42347
2077.06392	0.42154
2075.13535	0.41953
2073.20679	0.41735
2071.27822	0.41500
2069.34966	0.41265
2067.42109	0.41040
2065.49253	0.40814
2063.56396	0.40577
2061.63540	0.40333
2059.70684	0.40083
2057.77827	0.39825
2055.84971	0.39570
2053.92114	0.39313
2051.99258	0.39051
2050.06401	0.38789
2048.13545	0.38528
2046.20688	0.38256
2044.27832	0.37976
2042.34976	0.37704
2040.42119	0.37449
2038.49263	0.37188
2036.56406	0.36910
2034.63550	0.36627
2032.70693	0.36352
2030.77837	0.36088
2028.84980	0.35815
2026.92124	0.35529
2024.99268	0.35237
2023.06411	0.34948
2021.13555	0.34668
2019.20698	0.34403
2017.27842	0.34149
2015.34985	0.33885
2013.42129	0.33609
2011.49272	0.33325
2009.56416	0.33044
2007.63560	0.32768
2005.70703	0.32497
2003.77847	0.32229
2001.84990	0.31964
1999.92134	0.31701
1997.99277	0.31444
1996.06421	0.31197
1994.13564	0.30954
1992.20708	0.30701
1990.27852	0.30435
1988.34995	0.30170
1986.42139	0.29921
1984.49282	0.29693
1982.56426	0.29472
1980.63569	0.29246
1978.70713	0.29018
1976.77856	0.28791
1974.85000	0.28564
1972.92144	0.28348
1970.99287	0.28142
1969.06431	0.27931
1967.13574	0.27719
1965.20718	0.27513
1963.27861	0.27318
1961.35005	0.27128
1959.42148	0.26937
1957.49292	0.26757
1955.56436	0.26595
1953.63579	0.26431
1951.70723	0.26253
1949.77866	0.26076
1947.85010	0.25914
1945.92153	0.25767
1943.99297	0.25621
1942.06440	0.25470
1940.13584	0.25316
1938.20728	0.25166
1936.27871	0.25033
1934.35015	0.24916
1932.42158	0.24800
1930.49302	0.24685
1928.56445	0.24576
1926.63589	0.24470
1924.70732	0.24370
1922.77876	0.24266
1920.85020	0.24158
1918.92163	0.24066
1916.99307	0.23993
1915.06450	0.23916
1913.13594	0.23831
1911.20737	0.23753
1909.27881	0.23680
1907.35024	0.23614
1905.42168	0.23546
1903.49312	0.23479
1901.56455	0.23429
1899.63599	0.23394
1897.70742	0.23356
1895.77886	0.23309
1893.85029	0.23264
1891.92173	0.23223
1889.99316	0.23197
1888.06460	0.23177
1886.13604	0.23153
1884.20747	0.23138
1882.27891	0.23134
1880.35034	0.23123
1878.42178	0.23102
1876.49321	0.23093
1874.56465	0.23095
1872.63608	0.23111
1870.70752	0.23135
1868.77896	0.23177
1866.85039	0.23216
1864.92183	0.23225
1862.99326	0.23225
1861.06470	0.23244
1859.13613	0.23289
1857.20757	0.23329
1855.27900	0.23366
1853.35044	0.23410
1851.42187	0.23470
1849.49331	0.23539
1847.56475	0.23608
1845.63618	0.23684
1843.70762	0.23780
1841.77905	0.23863
1839.85049	0.23905
1837.92192	0.23974
1835.99336	0.24076
1834.06479	0.24183
1832.13623	0.24281
1830.20767	0.24400
1828.27910	0.24532
1826.35054	0.24642
1824.42197	0.24773
1822.49341	0.24915
1820.56484	0.25058
1818.63628	0.25204
1816.70771	0.25362
1814.77915	0.25517
1812.85059	0.25689
1810.92202	0.25893
1808.99346	0.26097
1807.06489	0.26291
1805.13633	0.26488
1803.20776	0.26713
1801.27920	0.26960
1799.35063	0.27237
1797.42207	0.27496
1795.49351	0.27742
1793.56494	0.28024
1791.63638	0.28384
1789.70781	0.28740
1787.77925	0.29017
1785.85068	0.29334
1783.92212	0.29702
1781.99355	0.30096
1780.06499	0.30519
1778.13643	0.30963
1776.20786	0.31371
1774.27930	0.31788
1772.35073	0.32349
1770.42217	0.32992
1768.49360	0.33557
1766.56504	0.34097
1764.63647	0.34640
1762.70791	0.35222
1760.77935	0.35958
1758.85078	0.36666
1756.92222	0.37390
1754.99365	0.38182
1753.06509	0.38881
1751.13652	0.39682
1749.20796	0.40717
1747.27939	0.41782
1745.35083	0.42728
1743.42227	0.43720
1741.49370	0.44802
1739.56514	0.46059
1737.63657	0.47317
1735.70801	0.48405
1733.77944	0.50041
1731.85088	0.52056
1729.92231	0.53651
1727.99375	0.55234
1726.06519	0.56928
1724.13662	0.58777
1722.20806	0.60782
1720.27949	0.62629
1718.35093	0.64746
1716.42236	0.67882
1714.49380	0.70947
1712.56523	0.73457
1710.63667	0.75869
1708.70811	0.78440
1706.77954	0.81328
1704.85098	0.84751
1702.92241	0.87800
1700.99385	0.90785
1699.06528	0.95210
1697.13672	0.99251
1695.20815	1.03367
1693.27959	1.07377
1691.35103	1.10582
1689.42246	1.14200
1687.49390	1.17945
1685.56533	1.21504
1683.63677	1.26992
1681.70820	1.32764
1679.77964	1.36524
1677.85107	1.40069
1675.92251	1.44058
1673.99395	1.48939
1672.06538	1.53247
1670.13682	1.57449
1668.20825	1.62873
1666.27969	1.67138
1664.35112	1.70624
1662.42256	1.74949
1660.49399	1.79763
1658.56543	1.83459
1656.63687	1.86449
1654.70830	1.89326
1652.77974	1.94424
1650.85117	1.99611
1648.92261	2.01696
1646.99404	2.04540
1645.06548	2.08047
1643.13691	2.10369
1641.20835	2.11863
1639.27979	2.13243
1637.35122	2.14234
1635.42266	2.14590
1633.49409	2.14034
1631.56553	2.12902
1629.63696	2.11626
1627.70840	2.09507
1625.77983	2.06973
1623.85127	2.03628
1621.92271	1.99196
1619.99414	1.95084
1618.06558	1.91129
1616.13701	1.85621
1614.20845	1.79971
1612.27988	1.75573
1610.35132	1.70914
1608.42275	1.65837
1606.49419	1.60767
1604.56562	1.56043
1602.63706	1.51474
1600.70850	1.46983
1598.77993	1.42806
1596.85137	1.38838
1594.92280	1.34968
1592.99424	1.31237
1591.06567	1.27792
1589.13711	1.24479
1587.20854	1.21306
1585.27998	1.18303
1583.35142	1.15450
1581.42285	1.12840
1579.49429	1.10601
1577.56572	1.08507
1575.63716	1.05813
1573.70859	1.03401
1571.78003	1.01786
1569.85146	0.99954
1567.92290	0.97826
1565.99434	0.96146
1564.06577	0.94671
1562.13721	0.93395
1560.20864	0.92299
1558.28008	0.90321
1556.35151	0.88441
1554.42295	0.87330
1552.49438	0.86250
1550.56582	0.85149
1548.63726	0.84041
1546.70869	0.83129
1544.78013	0.82342
1542.85156	0.81514
1540.92300	0.80526
1538.99443	0.79272
1537.06587	0.78441
1535.13730	0.77874
1533.20874	0.77162
1531.28018	0.76417
1529.35161	0.75836
1527.42305	0.75237
1525.49448	0.74597
1523.56592	0.74031
1521.63735	0.73458
1519.70879	0.72868
1517.78022	0.72380
1515.85166	0.71858
1513.92310	0.71347
1511.99453	0.70924
1510.06597	0.70535
1508.13740	0.70153
1506.20884	0.69614
1504.28027	0.69177
1502.35171	0.68905
1500.42314	0.68616
1498.49458	0.68287
1496.56602	0.67946
1494.63745	0.67643
1492.70889	0.67392
1490.78032	0.67161
1488.85176	0.66889
1486.92319	0.66603
1484.99463	0.66339
1483.06606	0.66101
1481.13750	0.65871
1479.20894	0.65648
1477.28037	0.65439
1475.35181	0.65223
1473.42324	0.64972
1471.49468	0.64658
1469.56611	0.64386
1467.63755	0.64188
1465.70898	0.64010
1463.78042	0.63806
1461.85186	0.63603
1459.92329	0.63427
1457.99473	0.63219
1456.06616	0.62923
1454.13760	0.62662
1452.20903	0.62452
1450.28047	0.62238
1448.35190	0.62022
1446.42334	0.61813
1444.49478	0.61633
1442.56621	0.61465
1440.63765	0.61286
1438.70908	0.61118
1436.78052	0.60962
1434.85195	0.60819
1432.92339	0.60692
1430.99482	0.60564
1429.06626	0.60407
1427.13770	0.60243
1425.20913	0.60104
1423.28057	0.59976
1421.35200	0.59842
1419.42344	0.59702
1417.49487	0.59565
1415.56631	0.59409
1413.63774	0.59231
1411.70918	0.59050
1409.78062	0.58886
1407.85205	0.58728
1405.92349	0.58557
1403.99492	0.58389
1402.06636	0.58240
1400.13779	0.58089
1398.20923	0.57932
1396.28066	0.57803
1394.35210	0.57687
1392.42354	0.57564
1390.49497	0.57450
1388.56641	0.57350
1386.63784	0.57250
1384.70928	0.57133
1382.78071	0.57015
1380.85215	0.56917
1378.92358	0.56843
1376.99502	0.56784
1375.06646	0.56725
1373.13789	0.56646
1371.20933	0.56560
1369.28076	0.56480
1367.35220	0.56403
1365.42363	0.56318
1363.49507	0.56226
1361.56650	0.56133
1359.63794	0.56040
1357.70937	0.55956
1355.78081	0.55868
1353.85225	0.55763
1351.92368	0.55651
1349.99512	0.55540
1348.06655	0.55435
1346.13799	0.55339
1344.20942	0.55245
1342.28086	0.55142
1340.35229	0.55039
1338.42373	0.54939
1336.49517	0.54837
1334.56660	0.54734
1332.63804	0.54641
1330.70947	0.54558
1328.78091	0.54486
1326.85234	0.54419
1324.92378	0.54349
1322.99521	0.54277
1321.06665	0.54204
1319.13809	0.54124
1317.20952	0.54040
1315.28096	0.53961
1313.35239	0.53885
1311.42383	0.53799
1309.49526	0.53696
1307.56670	0.53594
1305.63813	0.53502
1303.70957	0.53407
1301.78101	0.53313
1299.85244	0.53232
1297.92388	0.53161
1295.99531	0.53086
1294.06675	0.53003
1292.13818	0.52932
1290.20962	0.52874
1288.28105	0.52818
1286.35249	0.52765
1284.42393	0.52716
1282.49536	0.52667
1280.56680	0.52619
1278.63823	0.52576
1276.70967	0.52537
1274.78110	0.52490
1272.85254	0.52430
1270.92397	0.52368
1268.99541	0.52327
1267.06685	0.52290
1265.13828	0.52233
1263.20972	0.52179
1261.28115	0.52150
1259.35259	0.52122
1257.42402	0.52080
1255.49546	0.52033
1253.56689	0.51995
1251.63833	0.51973
1249.70977	0.51958
1247.78120	0.51936
1245.85264	0.51917
1243.92407	0.51893
1241.99551	0.51844
1240.06694	0.51780
1238.13838	0.51729
1236.20981	0.51687
1234.28125	0.51631
1232.35269	0.51561
1230.42412	0.51494
1228.49556	0.51437
1226.56699	0.51376
1224.63843	0.51306
1222.70986	0.51228
1220.78130	0.51143
1218.85273	0.51064
1216.92417	0.50992
1214.99561	0.50928
1213.06704	0.50872
1211.13848	0.50818
1209.20991	0.50766
1207.28135	0.50723
1205.35278	0.50674
1203.42422	0.50608
1201.49565	0.50536
1199.56709	0.50479
1197.63853	0.50428
1195.70996	0.50368
1193.78140	0.50308
1191.85283	0.50257
1189.92427	0.50210
1187.99570	0.50170
1186.06714	0.50154
1184.13857	0.50150
1182.21001	0.50131
1180.28145	0.50123
1178.35288	0.50140
1176.42432	0.50167
1174.49575	0.50208
1172.56719	0.50284
1170.63862	0.50382
1168.71006	0.50471
1166.78149	0.50541
1164.85293	0.50599
1162.92437	0.50653
1160.99580	0.50698
1159.06724	0.50721
1157.13867	0.50713
1155.21011	0.50665
1153.28154	0.50568
1151.35298	0.50429
1149.42441	0.50263
1147.49585	0.50068
1145.56729	0.49848
1143.63872	0.49607
1141.71016	0.49348
1139.78159	0.49116
1137.85303	0.48941
1135.92446	0.48799
1133.99590	0.48653
1132.06733	0.48502
1130.13877	0.48381
1128.21021	0.48305
1126.28164	0.48231
1124.35308	0.48132
1122.42451	0.48046
1120.49595	0.48014
1118.56738	0.48004
1116.63882	0.48006
1114.71025	0.48027
1112.78169	0.48041
1110.85312	0.48068
1108.92456	0.48150
1106.99600	0.48257
1105.06743	0.48349
1103.13887	0.48436
1101.21030	0.48561
1099.28174	0.48736
1097.35317	0.48944
1095.42461	0.49205
1093.49604	0.49562
1091.56748	0.50016
1089.63892	0.50584
1087.71035	0.51274
1085.78179	0.52047
1083.85322	0.52848
1081.92466	0.53602
1079.99609	0.54209
1078.06753	0.54551
1076.13896	0.54597
1074.21040	0.54396
1072.28184	0.53957
1070.35327	0.53312
1068.42471	0.52588
1066.49614	0.51905
1064.56758	0.51299
1062.63901	0.50746
1060.71045	0.50244
1058.78188	0.49818
1056.85332	0.49468
1054.92476	0.49163
1052.99619	0.48889
1051.06763	0.48677
1049.13906	0.48535
1047.21050	0.48442
1045.28193	0.48401
1043.35337	0.48416
1041.42480	0.48470
1039.49624	0.48501
1037.56768	0.48492
1035.63911	0.48486
1033.71055	0.48487
1031.78198	0.48445
1029.85342	0.48350
1027.92485	0.48256
1025.99629	0.48191
1024.06772	0.48144
1022.13916	0.48114
1020.21060	0.48103
1018.28203	0.48110
1016.35347	0.48147
1014.42490	0.48198
1012.49634	0.48219
1010.56777	0.48230
1008.63921	0.48286
1006.71064	0.48390
1004.78208	0.48527
1002.85352	0.48729
1000.92495	0.49007
998.99639	0.49338
997.06782	0.49707
995.13926	0.50093
993.21069	0.50463
991.28213	0.50772
989.35356	0.50986
987.42500	0.51100
985.49644	0.51147
983.56787	0.51199
981.63931	0.51287
979.71074	0.51403
977.78218	0.51560
975.85361	0.51777
973.92505	0.52051
971.99648	0.52361
970.06792	0.52696
968.13936	0.53065
966.21079	0.53475
964.28223	0.53930
962.35366	0.54434
960.42510	0.54957
958.49653	0.55473
956.56797	0.56014
954.63940	0.56625
952.71084	0.57291
950.78228	0.57944
948.85371	0.58567
946.92515	0.59196
944.99658	0.59838
943.06802	0.60461
941.13945	0.61039
939.21089	0.61604
937.28232	0.62205
935.35376	0.62787
933.42520	0.63312
931.49663	0.63844
929.56807	0.64407
927.63950	0.64995
925.71094	0.65663
923.78237	0.66387
921.85381	0.67049
919.92524	0.67670
917.99668	0.68344
916.06812	0.69056
914.13955	0.69785
912.21099	0.70578
910.28242	0.71422
908.35386	0.72249
906.42529	0.73041
904.49673	0.73871
902.56816	0.74864
900.63960	0.75963
898.71104	0.77002
896.78247	0.78058
894.85391	0.79190
892.92534	0.80166
890.99678	0.80931
889.06821	0.81781
887.13965	0.82836
885.21108	0.83990
883.28252	0.85226
881.35396	0.86546
879.42539	0.87848
877.49683	0.88937
875.56826	0.89774
873.63970	0.90656
871.71113	0.91841
869.78257	0.93237
867.85400	0.94603
865.92544	0.95852
863.99687	0.97123
862.06831	0.98426
860.13975	0.99549
858.21118	1.00545
856.28262	1.01641
854.35405	1.02812
852.42549	1.03893
850.49692	1.04946
848.56836	1.06096
846.63979	1.07168
844.71123	1.08250
842.78267	1.09749
840.85410	1.11295
838.92554	1.12119
836.99697	1.12656
835.06841	1.13670
833.13984	1.15072
831.21128	1.16416
829.28271	1.17319
827.35415	1.18140
825.42559	1.19437
823.49702	1.20989
821.56846	1.22630
819.63989	1.24404
817.71133	1.25851
815.78276	1.26660
813.85420	1.27052
811.92563	1.27504
809.99707	1.28188
808.06851	1.28423
806.13994	1.28505
804.21138	1.30169
802.28281	1.34495
800.35425	1.39853
798.42568	1.43929
796.49712	1.47302
794.56855	1.48361
792.63999	1.46167
790.71143	1.46841
788.78286	1.54081
786.85430	1.63677
784.92573	1.65300
782.99717	1.56846
781.06860	1.52268
779.14004	1.57565
777.21147	1.65213
775.28291	1.63959
773.35435	1.58154
771.42578	1.58315
769.49722	1.59584
767.56865	1.55796
765.64009	1.47387
763.71152	1.49747
761.78296	1.66470
759.85439	1.61570
757.92583	1.39377
755.99727	1.34120
754.06870	1.37270
752.14014	1.28641
750.21157	1.20802
748.28301	1.24861
746.35444	1.42152
744.42588	2.10523
742.49731	4.45498
740.56875	1.33242
738.64019	1.01777
736.71162	0.93533
734.78306	1.04120
732.85449	0.95571
730.92593	0.51785
728.99736	0.17253
727.06880	-0.25964
725.14023	4.35084
723.21167	4.33927
721.28311	4.32770
719.35454	4.31613
717.42598	-0.09721
715.49741	0.26377
713.56885	0.44092
711.64028	0.56457
709.71172	0.62136
707.78315	0.58984
705.85459	0.56783
703.92603	0.60564
701.99746	0.61231
700.06890	0.57459
698.14033	0.63777
696.21177	0.78987
694.28320	0.71478
692.35464	0.57158
690.42607	0.61685
688.49751	0.81192
686.56895	0.72957
684.64038	0.54538
682.71182	0.57222
680.78325	0.76337
678.85469	0.82750
676.92612	0.62840
674.99756	0.49208
673.06899	0.47415
671.14043	0.52898
669.21187	0.55021
667.28330	0.54331
665.35474	0.54393
663.42617	0.54317
661.49761	0.60982
659.56904	0.74309
657.64048	0.72960
655.71191	0.61495
653.78335	0.53339
651.85479	0.51191
649.92622	0.53960
647.99766	0.55983
646.06909	0.54068
644.14053	0.50925
642.21196	0.56476
640.28340	0.78472
638.35483	0.99725
636.42627	0.78397
634.49771	0.61482
632.56914	0.56710
630.64058	0.53905
628.71201	0.43406
626.78345	0.37061
624.85488	0.41151
622.92632	0.48171
620.99775	0.50056
619.06919	0.50386
617.14062	0.56967
615.21206	0.70678
613.28350	0.84021
611.35493	0.80927
609.42637	0.67608
607.49780	0.61551
605.56924	0.65852
603.64067	0.74135
601.71211	0.75212
599.78354	0.58446
597.85498	0.43824
595.92642	0.42208
593.99785	0.52210
592.06929	0.58514
590.14072	0.47918
588.21216	0.40800
586.28359	0.43659
584.35503	0.54029
582.42646	0.55616
580.49790	0.49032
578.56934	0.52300
576.64077	0.55615
574.71221	0.51043
572.78364	0.52189
570.85508	0.57557
568.92651	0.54541
566.99795	0.51299
565.06938	0.50426
563.14082	0.41671
561.21226	0.34185
559.28369	0.36005
557.35513	0.42285
555.42656	0.43376
553.49800	0.43421
551.56943	0.45974
549.64087	0.44076
547.71230	0.40382
545.78374	0.42502
543.85518	0.45621
541.92661	0.46887
539.99805	0.48087
538.06948	0.43751
536.14092	0.39677
534.21235	0.45578
532.28379	0.60926
530.35522	0.68521
528.42666	0.60396
526.49810	0.53511
524.56953	0.48518
522.64097	0.45450
520.71240	0.43961
518.78384	0.43443
516.85527	0.43311
514.92671	0.40353
512.99814	0.36338
511.06958	0.34558
509.14102	0.33776
507.21245	0.35392
505.28389	0.40482
503.35532	0.43194
501.42676	0.40071
499.49819	0.36219
