3997.91411	0.07125
3995.98555	0.07158
3994.05698	0.07207
3992.12842	0.07250
3990.19985	0.07268
3988.27129	0.07301
3986.34272	0.07366
3984.41416	0.07407
3982.48560	0.07426
3980.55703	0.07480
3978.62847	0.07522
3976.69990	0.07502
3974.77134	0.07476
3972.84277	0.07463
3970.91421	0.07457
3968.98564	0.07468
3967.05708	0.07493
3965.12852	0.07538
3963.19995	0.07599
3961.27139	0.07654
3959.34282	0.07676
3957.41426	0.07653
3955.48569	0.07607
3953.55713	0.07562
3951.62856	0.07565
3949.70000	0.07626
3947.77144	0.07659
3945.84287	0.07622
3943.91431	0.07593
3941.98574	0.07607
3940.05718	0.07603
3938.12861	0.07584
3936.20005	0.07581
3934.27148	0.07583
3932.34292	0.07607
3930.41436	0.07645
3928.48579	0.07637
3926.55723	0.07597
3924.62866	0.07585
3922.70010	0.07593
3920.77153	0.07581
3918.84297	0.07578
3916.91440	0.07614
3914.98584	0.07638
3913.05728	0.07608
3911.12871	0.07543
3909.20015	0.07484
3907.27158	0.07479
3905.34302	0.07564
3903.41445	0.07705
3901.48589	0.07772
3899.55732	0.07710
3897.62876	0.07615
3895.70020	0.07537
3893.77163	0.07492
3891.84307	0.07507
3889.91450	0.07540
3887.98594	0.07541
3886.05737	0.07568
3884.12881	0.07627
3882.20024	0.07690
3880.27168	0.07753
3878.34312	0.07743
3876.41455	0.07673
3874.48599	0.07670
3872.55742	0.07730
3870.62886	0.07792
3868.70029	0.07834
3866.77173	0.07826
3864.84316	0.07864
3862.91460	0.07944
3860.98604	0.07914
3859.05747	0.07837
3857.12891	0.07839
3855.20034	0.07937
3853.27178	0.08149
3851.34321	0.08331
3849.41465	0.08267
3847.48608	0.08165
3845.55752	0.08162
3843.62896	0.08259
3841.70039	0.08386
3839.77183	0.08505
3837.84326	0.08634
3835.91470	0.08716
3833.98613	0.08729
3832.05757	0.08715
3830.12900	0.08692
3828.20044	0.08711
3826.27187	0.08823
3824.34331	0.08942
3822.41475	0.08996
3820.48618	0.09070
3818.55762	0.09129
3816.62905	0.09182
3814.70049	0.09320
3812.77192	0.09407
3810.84336	0.09405
3808.91479	0.09454
3806.98623	0.09622
3805.05767	0.09815
3803.12910	0.09958
3801.20054	0.10139
3799.27197	0.10286
3797.34341	0.10343
3795.41484	0.10431
3793.48628	0.10495
3791.55771	0.10512
3789.62915	0.10563
3787.70059	0.10667
3785.77202	0.10809
3783.84346	0.10980
3781.91489	0.11160
3779.98633	0.11359
3778.05776	0.11587
3776.12920	0.11742
3774.20063	0.11834
3772.27207	0.11966
3770.34351	0.12160
3768.41494	0.12371
3766.48638	0.12567
3764.55781	0.12754
3762.62925	0.12903
3760.70068	0.13065
3758.77212	0.13322
3756.84355	0.13614
3754.91499	0.13837
3752.98643	0.14053
3751.05786	0.14410
3749.12930	0.14843
3747.20073	0.15057
3745.27217	0.15188
3743.34360	0.15473
3741.41504	0.15819
3739.48647	0.16082
3737.55791	0.16367
3735.62935	0.16826
3733.70078	0.17435
3731.77222	0.17915
3729.84365	0.18254
3727.91509	0.18597
3725.98652	0.19071
3724.05796	0.19692
3722.12939	0.20359
3720.20083	0.21095
3718.27227	0.21899
3716.34370	0.22690
3714.41514	0.23451
3712.48657	0.24357
3710.55801	0.25632
3708.62944	0.26973
3706.70088	0.28056
3704.77231	0.29109
3702.84375	0.30369
3700.91519	0.32034
3698.98662	0.33872
3697.05806	0.35602
3695.12949	0.37439
3693.20093	0.39373
3691.27236	0.41428
3689.34380	0.44128
3687.41523	0.47567
3685.48667	0.50606
3683.55811	0.53184
3681.62954	0.55927
3679.70098	0.59007
3677.77241	0.62239
3675.84385	0.66072
3673.91528	0.71269
3671.98672	0.75544
3670.05815	0.79311
3668.12959	0.84497
3666.20103	0.89307
3664.27246	0.93336
3662.34390	0.97613
3660.41533	1.02247
3658.48677	1.06829
3656.55820	1.11667
3654.62964	1.17077
3652.70107	1.21630
3650.77251	1.25499
3648.84395	1.30808
3646.91538	1.37553
3644.98682	1.42638
3643.05825	1.46509
3641.12969	1.50499
3639.20112	1.54902
3637.27256	1.59200
3635.34399	1.63288
3633.41543	1.67444
3631.48687	1.71398
3629.55830	1.75371
3627.62974	1.80612
3625.70117	1.85690
3623.77261	1.89205
3621.84404	1.92500
3619.91548	1.96196
3617.98691	2.00649
3616.05835	2.04975
3614.12979	2.08600
3612.20122	2.12461
3610.27266	2.16440
3608.34409	2.20444
3606.41553	2.24674
3604.48696	2.28582
3602.55840	2.32105
3600.62983	2.35979
3598.70127	2.40088
3596.77271	2.43958
3594.84414	2.47911
3592.91558	2.52028
3590.98701	2.55916
3589.05845	2.59564
3587.12988	2.63887
3585.20132	2.68707
3583.27275	2.72852
3581.34419	2.76657
3579.41562	2.80687
3577.48706	2.84842
3575.55850	2.89023
3573.62993	2.93449
3571.70137	2.97761
3569.77280	3.01705
3567.84424	3.05850
3565.91567	3.11077
3563.98711	3.16337
3562.05854	3.20559
3560.12998	3.24543
3558.20142	3.28776
3556.27285	3.33119
3554.34429	3.37457
3552.41572	3.42166
3550.48716	3.46975
3548.55859	3.51412
3546.63003	3.55938
3544.70146	3.61061
3542.77290	3.66162
3540.84434	3.70647
3538.91577	3.74970
3536.98721	3.79689
3535.05864	3.84878
3533.13008	3.89794
3531.20151	3.94171
3529.27295	3.98391
3527.34438	4.03029
3525.41582	4.08133
3523.48726	4.13225
3521.55869	4.18356
3519.63013	4.23350
3517.70156	4.28001
3515.77300	4.32566
3513.84443	4.37235
3511.91587	4.42107
3509.98730	4.47483
3508.05874	4.52910
3506.13018	4.57678
3504.20161	4.62187
3502.27305	4.67096
3500.34448	4.72065
3498.41592	4.76438
3496.48735	4.80733
3494.55879	4.85433
3492.63022	4.90106
3490.70166	4.94396
3488.77310	4.98937
3486.84453	5.04284
3484.91597	5.09769
3482.98740	5.14642
3481.05884	5.19009
3479.13027	5.23708
3477.20171	5.29142
3475.27314	5.34133
3473.34458	5.38365
3471.41602	5.43414
3469.48745	5.48934
3467.55889	5.53809
3465.63032	5.59022
3463.70176	5.64387
3461.77319	5.68488
3459.84463	5.72343
3457.91606	5.77374
3455.98750	5.82734
3454.05894	5.87189
3452.13037	5.91872
3450.20181	5.97262
3448.27324	6.02103
3446.34468	6.07796
3444.41611	6.14329
3442.48755	6.19889
3440.55898	6.24994
3438.63042	6.30144
3436.70186	6.35452
3434.77329	6.40925
3432.84473	6.45452
3430.91616	6.49220
3428.98760	6.54329
3427.05903	6.59767
3425.13047	6.64039
3423.20190	6.68233
3421.27334	6.73685
3419.34478	6.79361
3417.41621	6.83479
3415.48765	6.87552
3413.55908	6.92473
3411.63052	6.97014
3409.70195	7.01659
3407.77339	7.07737
3405.84482	7.12952
3403.91626	7.15349
3401.98770	7.16994
3400.05913	7.21429
3398.13057	7.27259
3396.20200	7.31077
3394.27344	7.34181
3392.34487	7.37491
3390.41631	7.41347
3388.48774	7.44802
3386.55918	7.48705
3384.63062	7.54462
3382.70205	7.61513
3380.77349	7.67888
3378.84492	7.69907
3376.91636	7.68980
3374.98779	7.68960
3373.05923	7.69691
3371.13066	7.68489
3369.20210	7.66663
3367.27354	7.67137
3365.34497	7.72556
3363.41641	7.79003
3361.48784	7.80436
3359.55928	7.81210
3357.63071	7.84938
3355.70215	7.88709
3353.77358	7.86975
3351.84502	7.84037
3349.91646	7.88645
3347.98789	7.96193
3346.05933	7.96742
3344.13076	7.95903
3342.20220	7.99238
3340.27363	8.03281
3338.34507	8.06417
3336.41650	8.07647
3334.48794	8.09834
3332.55937	8.10495
3330.63081	8.08574
3328.70225	8.04307
3326.77368	7.98471
3324.84512	7.99043
3322.91655	8.07407
3320.98799	8.15321
3319.05942	8.13423
3317.13086	8.08715
3315.20229	8.07397
3313.27373	8.05338
3311.34517	8.03267
3309.41660	8.07795
3307.48804	8.19126
3305.55947	8.26277
3303.63091	8.26834
3301.70234	8.25890
3299.77378	8.23452
3297.84521	8.17263
3295.91665	8.10305
3293.98809	8.08503
3292.05952	8.17548
3290.13096	8.32274
3288.20239	8.35391
3286.27383	8.30222
3284.34526	8.29784
3282.41670	8.30448
3280.48813	8.23617
3278.55957	8.13425
3276.63101	8.08263
3274.70244	8.15051
3272.77388	8.32436
3270.84531	8.43530
3268.91675	8.37199
3266.98818	8.23581
3265.05962	8.17441
3263.13105	8.21217
3261.20249	8.30419
3259.27393	8.38629
3257.34536	8.36593
3255.41680	8.23849
3253.48823	8.13197
3251.55967	8.17053
3249.63110	8.33479
3247.70254	8.45717
3245.77397	8.40607
3243.84541	8.22340
3241.91685	8.03771
3239.98828	7.98270
3238.05972	8.09218
3236.13115	8.27705
3234.20259	8.36995
3232.27402	8.31795
3230.34546	8.23309
3228.41689	8.18987
3226.48833	8.20693
3224.55977	8.20771
3222.63120	8.13922
3220.70264	8.05854
3218.77407	8.03155
3216.84551	8.04943
3214.91694	8.03784
3212.98838	8.01751
3211.05981	7.99999
3209.13125	7.94328
3207.20269	7.87428
3205.27412	7.82887
3203.34556	7.80955
3201.41699	7.80286
3199.48843	7.79799
3197.55986	7.76410
3195.63130	7.71475
3193.70273	7.69832
3191.77417	7.69909
3189.84561	7.70138
3187.91704	7.63905
3185.98848	7.49006
3184.05991	7.38581
3182.13135	7.35119
3180.20278	7.33040
3178.27422	7.33692
3176.34565	7.33971
3174.41709	7.28592
3172.48853	7.21369
3170.55996	7.13841
3168.63140	7.05183
3166.70283	6.97975
3164.77427	6.93421
3162.84570	6.89056
3160.91714	6.81270
3158.98857	6.72277
3157.06001	6.65924
3155.13145	6.59679
3153.20288	6.52080
3151.27432	6.45746
3149.34575	6.39782
3147.41719	6.32303
3145.48862	6.24277
3143.56006	6.16942
3141.63149	6.10371
3139.70293	6.03699
3137.77437	5.97294
3135.84580	5.91439
3133.91724	5.85150
3131.98867	5.77973
3130.06011	5.70249
3128.13154	5.63056
3126.20298	5.56631
3124.27441	5.49800
3122.34585	5.42323
3120.41729	5.34609
3118.48872	5.26773
3116.56016	5.19229
3114.63159	5.11521
3112.70303	5.03290
3110.77446	4.95591
3108.84590	4.89350
3106.91733	4.83904
3104.98877	4.77852
3103.06021	4.71251
3101.13164	4.64521
3099.20308	4.57519
3097.27451	4.50322
3095.34595	4.43349
3093.41738	4.36908
3091.48882	4.30442
3089.56025	4.23618
3087.63169	4.16892
3085.70312	4.10417
3083.77456	4.04065
3081.84600	3.97738
3079.91743	3.91252
3077.98887	3.84848
3076.06030	3.79019
3074.13174	3.73435
3072.20317	3.67396
3070.27461	3.61226
3068.34604	3.55554
3066.41748	3.50001
3064.48892	3.44162
3062.56035	3.38331
3060.63179	3.32699
3058.70322	3.27125
3056.77466	3.21574
3054.84609	3.16170
3052.91753	3.10861
3050.98896	3.05588
3049.06040	3.00496
3047.13184	2.95596
3045.20327	2.90650
3043.27471	2.85594
3041.34614	2.80625
3039.41758	2.75844
3037.48901	2.71132
3035.56045	2.66379
3033.63188	2.61646
3031.70332	2.57087
3029.77476	2.52714
3027.84619	2.48405
3025.91763	2.44092
3023.98906	2.39792
3022.06050	2.35593
3020.13193	2.31515
3018.20337	2.27471
3016.27480	2.23380
3014.34624	2.19279
3012.41768	2.15306
3010.48911	2.11523
3008.56055	2.07850
3006.63198	2.04180
3004.70342	2.00536
3002.77485	1.96999
3000.84629	1.93533
2998.91772	1.90056
2996.98916	1.86611
2995.06060	1.83286
2993.13203	1.80063
2991.20347	1.76923
2989.27490	1.73840
2987.34634	1.70755
2985.41777	1.67674
2983.48921	1.64650
2981.56064	1.61727
2979.63208	1.58900
2977.70352	1.56131
2975.77495	1.53418
2973.84639	1.50764
2971.91782	1.48149
2969.98926	1.45545
2968.06069	1.42961
2966.13213	1.40470
2964.20356	1.38062
2962.27500	1.35631
2960.34644	1.33177
2958.41787	1.30761
2956.48931	1.28420
2954.56074	1.26172
2952.63218	1.23975
2950.70361	1.21774
2948.77505	1.19566
2946.84648	1.17367
2944.91792	1.15193
2942.98936	1.13105
2941.06079	1.11101
2939.13223	1.09103
2937.20366	1.07110
2935.27510	1.05120
2933.34653	1.03127
2931.41797	1.01193
2929.48940	0.99333
2927.56084	0.97526
2925.63228	0.95789
2923.70371	0.94103
2921.77515	0.92430
2919.84658	0.90795
2917.91802	0.89178
2915.98945	0.87568
2914.06089	0.86032
2912.13232	0.84554
2910.20376	0.83083
2908.27520	0.81608
2906.34663	0.80138
2904.41807	0.78722
2902.48950	0.77366
2900.56094	0.76031
2898.63237	0.74757
2896.70381	0.73560
2894.77524	0.72348
2892.84668	0.71091
2890.91812	0.69883
2888.98955	0.68758
2887.06099	0.67670
2885.13242	0.66595
2883.20386	0.65509
2881.27529	0.64406
2879.34673	0.63333
2877.41816	0.62322
2875.48960	0.61335
2873.56104	0.60330
2871.63247	0.59289
2869.70391	0.58236
2867.77534	0.57225
2865.84678	0.56246
2863.91821	0.55247
2861.98965	0.54224
2860.06108	0.53209
2858.13252	0.52239
2856.20396	0.51349
2854.27539	0.50522
2852.34683	0.49694
2850.41826	0.48867
2848.48970	0.48073
2846.56113	0.47311
2844.63257	0.46582
2842.70400	0.45896
2840.77544	0.45253
2838.84687	0.44615
2836.91831	0.43963
2834.98975	0.43318
2833.06118	0.42680
2831.13262	0.42050
2829.20405	0.41446
2827.27549	0.40863
2825.34692	0.40289
2823.41836	0.39714
2821.48979	0.39132
2819.56123	0.38548
2817.63267	0.37974
2815.70410	0.37422
2813.77554	0.36897
2811.84697	0.36386
2809.91841	0.35865
2807.98984	0.35331
2806.06128	0.34805
2804.13271	0.34304
2802.20415	0.33822
2800.27559	0.33350
2798.34702	0.32890
2796.41846	0.32432
2794.48989	0.31967
2792.56133	0.31504
2790.63276	0.31052
2788.70420	0.30621
2786.77563	0.30215
2784.84707	0.29820
2782.91851	0.29420
2780.98994	0.29026
2779.06138	0.28653
2777.13281	0.28287
2775.20425	0.27911
2773.27568	0.27532
2771.34712	0.27166
2769.41855	0.26820
2767.48999	0.26499
2765.56143	0.26182
2763.63286	0.25847
2761.70430	0.25507
2759.77573	0.25181
2757.84717	0.24873
2755.91860	0.24585
2753.99004	0.24319
2752.06147	0.24045
2750.13291	0.23748
2748.20435	0.23459
2746.27578	0.23194
2744.34722	0.22923
2742.41865	0.22656
2740.49009	0.22426
2738.56152	0.22204
2736.63296	0.21960
2734.70439	0.21722
2732.77583	0.21497
2730.84727	0.21270
2728.91870	0.21052
2726.99014	0.20849
2725.06157	0.20649
2723.13301	0.20451
2721.20444	0.20243
2719.27588	0.20025
2717.34731	0.19838
2715.41875	0.19684
2713.49019	0.19519
2711.56162	0.19339
2709.63306	0.19171
2707.70449	0.19012
2705.77593	0.18849
2703.84736	0.18681
2701.91880	0.18521
2699.99023	0.18380
2698.06167	0.18242
2696.13311	0.18109
2694.20454	0.17990
2692.27598	0.17868
2690.34741	0.17726
2688.41885	0.17573
2686.49028	0.17432
2684.56172	0.17310
2682.63315	0.17198
2680.70459	0.17081
2678.77603	0.16960
2676.84746	0.16856
2674.91890	0.16773
2672.99033	0.16688
2671.06177	0.16594
2669.13320	0.16482
2667.20464	0.16361
2665.27607	0.16267
2663.34751	0.16195
2661.41895	0.16119
2659.49038	0.16040
2657.56182	0.15952
2655.63325	0.15865
2653.70469	0.15810
2651.77612	0.15757
2649.84756	0.15676
2647.91899	0.15593
2645.99043	0.15520
2644.06187	0.15459
2642.13330	0.15419
2640.20474	0.15392
2638.27617	0.15354
2636.34761	0.15304
2634.41904	0.15260
2632.49048	0.15227
2630.56191	0.15191
2628.63335	0.15149
2626.70479	0.15120
2624.77622	0.15100
2622.84766	0.15074
2620.91909	0.15049
2618.99053	0.15030
2617.06196	0.15014
2615.13340	0.14997
2613.20483	0.14975
2611.27627	0.14959
2609.34771	0.14956
2607.41914	0.14955
2605.49058	0.14948
2603.56201	0.14935
2601.63345	0.14922
2599.70488	0.14921
2597.77632	0.14942
2595.84775	0.14965
2593.91919	0.14969
2591.99062	0.14968
2590.06206	0.14981
2588.13350	0.15002
2586.20493	0.15017
2584.27637	0.15028
2582.34780	0.15048
2580.41924	0.15083
2578.49067	0.15109
2576.56211	0.15127
2574.63354	0.15157
2572.70498	0.15202
2570.77642	0.15265
2568.84785	0.15332
2566.91929	0.15379
2564.99072	0.15413
2563.06216	0.15447
2561.13359	0.15484
2559.20503	0.15527
2557.27646	0.15570
2555.34790	0.15613
2553.41934	0.15664
2551.49077	0.15720
2549.56221	0.15789
2547.63364	0.15865
2545.70508	0.15935
2543.77651	0.15995
2541.84795	0.16053
2539.91938	0.16112
2537.99082	0.16169
2536.06226	0.16226
2534.13369	0.16288
2532.20513	0.16357
2530.27656	0.16433
2528.34800	0.16515
2526.41943	0.16606
2524.49087	0.16691
2522.56230	0.16761
2520.63374	0.16828
2518.70518	0.16900
2516.77661	0.16976
2514.84805	0.17057
2512.91948	0.17141
2510.99092	0.17218
2509.06235	0.17291
2507.13379	0.17370
2505.20522	0.17456
2503.27666	0.17545
2501.34810	0.17633
2499.41953	0.17726
2497.49097	0.17813
2495.56240	0.17887
2493.63384	0.17964
2491.70527	0.18053
2489.77671	0.18142
2487.84814	0.18228
2485.91958	0.18319
2483.99102	0.18417
2482.06245	0.18514
2480.13389	0.18602
2478.20532	0.18684
2476.27676	0.18758
2474.34819	0.18832
2472.41963	0.18926
2470.49106	0.19032
2468.56250	0.19125
2466.63394	0.19213
2464.70537	0.19314
2462.77681	0.19420
2460.84824	0.19522
2458.91968	0.19623
2456.99111	0.19715
2455.06255	0.19803
2453.13398	0.19896
2451.20542	0.19988
2449.27686	0.20076
2447.34829	0.20170
2445.41973	0.20276
2443.49116	0.20396
2441.56260	0.20524
2439.63403	0.20635
2437.70547	0.20724
2435.77690	0.20815
2433.84834	0.20905
2431.91978	0.20990
2429.99121	0.21092
2428.06265	0.21210
2426.13408	0.21328
2424.20552	0.21450
2422.27695	0.21572
2420.34839	0.21681
2418.41982	0.21788
2416.49126	0.21903
2414.56270	0.22021
2412.63413	0.22138
2410.70557	0.22242
2408.77700	0.22344
2406.84844	0.22462
2404.91987	0.22580
2402.99131	0.22690
2401.06274	0.22803
2399.13418	0.22919
2397.20562	0.23040
2395.27705	0.23170
2393.34849	0.23302
2391.41992	0.23435
2389.49136	0.23562
2387.56279	0.23672
2385.63423	0.23755
2383.70566	0.23816
2381.77710	0.23855
2379.84854	0.23864
2377.91997	0.23852
2375.99141	0.23838
2374.06284	0.23816
2372.13428	0.23764
2370.20571	0.23698
2368.27715	0.23663
2366.34858	0.23663
2364.42002	0.23643
2362.49146	0.23680
2360.56289	0.23854
2358.63433	0.24004
2356.70576	0.24115
2354.77720	0.24374
2352.84863	0.24818
2350.92007	0.25248
2348.99150	0.25490
2347.06294	0.25570
2345.13437	0.25575
2343.20581	0.25568
2341.27725	0.25637
2339.34868	0.25875
2337.42012	0.26185
2335.49155	0.26415
2333.56299	0.26577
2331.63442	0.26760
2329.70586	0.26961
2327.77729	0.27171
2325.84873	0.27399
2323.92017	0.27617
2321.99160	0.27855
2320.06304	0.28140
2318.13447	0.28421
2316.20591	0.28665
2314.27734	0.28896
2312.34878	0.29129
2310.42021	0.29356
2308.49165	0.29570
2306.56309	0.29795
2304.63452	0.30044
2302.70596	0.30276
2300.77739	0.30476
2298.84883	0.30678
2296.92026	0.30906
2294.99170	0.31144
2293.06313	0.31373
2291.13457	0.31591
2289.20601	0.31805
2287.27744	0.32006
2285.34888	0.32198
2283.42031	0.32405
2281.49175	0.32629
2279.56318	0.32837
2277.63462	0.33018
2275.70605	0.33206
2273.77749	0.33415
2271.84893	0.33627
2269.92036	0.33837
2267.99180	0.34046
2266.06323	0.34255
2264.13467	0.34476
2262.20610	0.34710
2260.27754	0.34939
2258.34897	0.35153
2256.42041	0.35362
2254.49185	0.35579
2252.56328	0.35806
2250.63472	0.36028
2248.70615	0.36249
2246.77759	0.36482
2244.84902	0.36724
2242.92046	0.36955
2240.99189	0.37171
2239.06333	0.37378
2237.13477	0.37582
2235.20620	0.37789
2233.27764	0.38006
2231.34907	0.38232
2229.42051	0.38467
2227.49194	0.38710
2225.56338	0.38947
2223.63481	0.39167
2221.70625	0.39369
2219.77769	0.39569
2217.84912	0.39786
2215.92056	0.40015
2213.99199	0.40238
2212.06343	0.40455
2210.13486	0.40663
2208.20630	0.40865
2206.27773	0.41078
2204.34917	0.41294
2202.42061	0.41505
2200.49204	0.41714
2198.56348	0.41917
2196.63491	0.42113
2194.70635	0.42307
2192.77778	0.42498
2190.84922	0.42683
2188.92065	0.42864
2186.99209	0.43050
2185.06353	0.43241
2183.13496	0.43433
2181.20640	0.43613
2179.27783	0.43767
2177.34927	0.43913
2175.42070	0.44075
2173.49214	0.44240
2171.56357	0.44380
2169.63501	0.44509
2167.70645	0.44637
2165.77788	0.44755
2163.84932	0.44869
2161.92075	0.44986
2159.99219	0.45099
2158.06362	0.45198
2156.13506	0.45283
2154.20649	0.45371
2152.27793	0.45463
2150.34937	0.45539
2148.42080	0.45596
2146.49224	0.45646
2144.56367	0.45692
2142.63511	0.45727
2140.70654	0.45750
2138.77798	0.45774
2136.84941	0.45790
2134.92085	0.45792
2132.99229	0.45794
2131.06372	0.45802
2129.13516	0.45797
2127.20659	0.45761
2125.27803	0.45711
2123.34946	0.45666
2121.42090	0.45624
2119.49233	0.45571
2117.56377	0.45502
2115.63521	0.45428
2113.70664	0.45348
2111.77808	0.45252
2109.84951	0.45146
2107.92095	0.45036
2105.99238	0.44921
2104.06382	0.44812
2102.13525	0.44697
2100.20669	0.44559
2098.27812	0.44405
2096.34956	0.44245
2094.42100	0.44082
2092.49243	0.43924
2090.56387	0.43762
2088.63530	0.43581
2086.70674	0.43398
2084.77817	0.43212
2082.84961	0.43022
2080.92104	0.42829
2078.99248	0.42628
2077.06392	0.42419
2075.13535	0.42209
2073.20679	0.41993
2071.27822	0.41768
2069.34966	0.41548
2067.42109	0.41326
2065.49253	0.41083
2063.56396	0.40825
2061.63540	0.40577
2059.70684	0.40333
2057.77827	0.40082
2055.84971	0.39825
2053.92114	0.39565
2051.99258	0.39307
2050.06401	0.39041
2048.13545	0.38773
2046.20688	0.38509
2044.27832	0.38237
2042.34976	0.37960
2040.42119	0.37689
2038.49263	0.37423
2036.56406	0.37151
2034.63550	0.36872
2032.70693	0.36593
2030.77837	0.36320
2028.84980	0.36043
2026.92124	0.35765
2024.99268	0.35493
2023.06411	0.35219
2021.13555	0.34938
2019.20698	0.34663
2017.27842	0.34394
2015.34985	0.34118
2013.42129	0.33837
2011.49272	0.33561
2009.56416	0.33294
2007.63560	0.33026
2005.70703	0.32753
2003.77847	0.32476
2001.84990	0.32202
1999.92134	0.31938
1997.99277	0.31677
1996.06421	0.31421
1994.13564	0.31179
1992.20708	0.30938
1990.27852	0.30685
1988.34995	0.30432
1986.42139	0.30174
1984.49282	0.29919
1982.56426	0.29685
1980.63569	0.29469
1978.70713	0.29253
1976.77856	0.29032
1974.85000	0.28814
1972.92144	0.28594
1970.99287	0.28375
1969.06431	0.28175
1967.13574	0.27986
1965.20718	0.27780
1963.27861	0.27564
1961.35005	0.27357
1959.42148	0.27163
1957.49292	0.26989
1955.56436	0.26831
1953.63579	0.26665
1951.70723	0.26486
1949.77866	0.26315
1947.85010	0.26160
1945.92153	0.26016
1943.99297	0.25880
1942.06440	0.25734
1940.13584	0.25570
1938.20728	0.25413
1936.27871	0.25281
1934.35015	0.25159
1932.42158	0.25042
1930.49302	0.24932
1928.56445	0.24828
1926.63589	0.24723
1924.70732	0.24626
1922.77876	0.24536
1920.85020	0.24441
1918.92163	0.24348
1916.99307	0.24257
1915.06450	0.24166
1913.13594	0.24081
1911.20737	0.24014
1909.27881	0.23948
1907.35024	0.23877
1905.42168	0.23805
1903.49312	0.23736
1901.56455	0.23673
1899.63599	0.23627
1897.70742	0.23592
1895.77886	0.23557
1893.85029	0.23523
1891.92173	0.23493
1889.99316	0.23470
1888.06460	0.23437
1886.13604	0.23405
1884.20747	0.23385
1882.27891	0.23370
1880.35034	0.23368
1878.42178	0.23373
1876.49321	0.23373
1874.56465	0.23366
1872.63608	0.23374
1870.70752	0.23407
1868.77896	0.23471
1866.85039	0.23504
1864.92183	0.23483
1862.99326	0.23470
1861.06470	0.23488
1859.13613	0.23534
1857.20757	0.23588
1855.27900	0.23635
1853.35044	0.23671
1851.42187	0.23714
1849.49331	0.23773
1847.56475	0.23843
1845.63618	0.23923
1843.70762	0.24013
1841.77905	0.24084
1839.85049	0.24129
1837.92192	0.24208
1835.99336	0.24311
1834.06479	0.24413
1832.13623	0.24514
1830.20767	0.24653
1828.27910	0.24806
1826.35054	0.24919
1824.42197	0.25043
1822.49341	0.25167
1820.56484	0.25280
1818.63628	0.25413
1816.70771	0.25585
1814.77915	0.25760
1812.85059	0.25934
1810.92202	0.26129
1808.99346	0.26336
1807.06489	0.26534
1805.13633	0.26723
1803.20776	0.26940
1801.27920	0.27185
1799.35063	0.27460
1797.42207	0.27723
1795.49351	0.27976
1793.56494	0.28263
1791.63638	0.28629
1789.70781	0.28976
1787.77925	0.29234
1785.85068	0.29539
1783.92212	0.29909
1781.99355	0.30303
1780.06499	0.30712
1778.13643	0.31142
1776.20786	0.31549
1774.27930	0.31976
1772.35073	0.32550
1770.42217	0.33178
1768.49360	0.33712
1766.56504	0.34233
1764.63647	0.34777
1762.70791	0.35373
1760.77935	0.36118
1758.85078	0.36818
1756.92222	0.37529
1754.99365	0.38311
1753.06509	0.39021
1751.13652	0.39856
1749.20796	0.40903
1747.27939	0.41943
1745.35083	0.42866
1743.42227	0.43844
1741.49370	0.44920
1739.56514	0.46182
1737.63657	0.47456
1735.70801	0.48571
1733.77944	0.50199
1731.85088	0.52144
1729.92231	0.53705
1727.99375	0.55283
1726.06519	0.56974
1724.13662	0.58810
1722.20806	0.60787
1720.27949	0.62627
1718.35093	0.64794
1716.42236	0.67981
1714.49380	0.71004
1712.56523	0.73463
1710.63667	0.75859
1708.70811	0.78422
1706.77954	0.81319
1704.85098	0.84790
1702.92241	0.87908
1700.99385	0.90986
1699.06528	0.95541
1697.13672	0.99718
1695.20815	1.03994
1693.27959	1.08166
1691.35103	1.11529
1689.42246	1.15382
1687.49390	1.19428
1685.56533	1.23291
1683.63677	1.29192
1681.70820	1.35364
1679.77964	1.39366
1677.85107	1.43152
1675.92251	1.47459
1673.99395	1.52793
1672.06538	1.57554
1670.13682	1.62167
1668.20825	1.68167
1666.27969	1.73040
1664.35112	1.77066
1662.42256	1.82107
1660.49399	1.87823
1658.56543	1.92269
1656.63687	1.95936
1654.70830	1.99427
1652.77974	2.04882
1650.85117	2.10026
1648.92261	2.11950
1646.99404	2.14386
1645.06548	2.17255
1643.13691	2.19350
1641.20835	2.20653
1639.27979	2.21633
1637.35122	2.22076
1635.42266	2.22033
1633.49409	2.21512
1631.56553	2.20402
1629.63696	2.18960
1627.70840	2.16410
1625.77983	2.13271
1623.85127	2.09372
1621.92271	2.04760
1619.99414	2.00654
1618.06558	1.96449
1616.13701	1.90375
1614.20845	1.84270
1612.27988	1.79612
1610.35132	1.74719
1608.42275	1.69455
1606.49419	1.64261
1604.56562	1.59400
1602.63706	1.54692
1600.70850	1.50114
1598.77993	1.45862
1596.85137	1.41796
1594.92280	1.37826
1592.99424	1.34009
1591.06567	1.30523
1589.13711	1.27225
1587.20854	1.24088
1585.27998	1.21166
1583.35142	1.18443
1581.42285	1.15932
1579.49429	1.13752
1577.56572	1.11757
1575.63716	1.09285
1573.70859	1.07118
1571.78003	1.05724
1569.85146	1.04217
1567.92290	1.02497
1565.99434	1.01203
1564.06577	1.00198
1562.13721	0.99392
1560.20864	0.98753
1558.28008	0.97702
1556.35151	0.96703
1554.42295	0.96098
1552.49438	0.95507
1550.56582	0.94844
1548.63726	0.94055
1546.70869	0.93269
1544.78013	0.92454
1542.85156	0.91497
1540.92300	0.90218
1538.99443	0.88295
1537.06587	0.86872
1535.13730	0.85940
1533.20874	0.84760
1531.28018	0.83481
1529.35161	0.82526
1527.42305	0.81611
1525.49448	0.80649
1523.56592	0.79824
1521.63735	0.79041
1519.70879	0.78228
1517.78022	0.77510
1515.85166	0.76703
1513.92310	0.75900
1511.99453	0.75226
1510.06597	0.74609
1508.13740	0.73999
1506.20884	0.73104
1504.28027	0.72323
1502.35171	0.71861
1500.42314	0.71446
1498.49458	0.70998
1496.56602	0.70489
1494.63745	0.70004
1492.70889	0.69627
1490.78032	0.69302
1488.85176	0.68942
1486.92319	0.68571
1484.99463	0.68252
1483.06606	0.68005
1481.13750	0.67797
1479.20894	0.67603
1477.28037	0.67440
1475.35181	0.67311
1473.42324	0.67214
1471.49468	0.67090
1469.56611	0.66906
1467.63755	0.66697
1465.70898	0.66488
1463.78042	0.66297
1461.85186	0.66154
1459.92329	0.66058
1457.99473	0.65961
1456.06616	0.65758
1454.13760	0.65472
1452.20903	0.65210
1450.28047	0.64967
1448.35190	0.64735
1446.42334	0.64491
1444.49478	0.64255
1442.56621	0.64048
1440.63765	0.63846
1438.70908	0.63642
1436.78052	0.63411
1434.85195	0.63158
1432.92339	0.62938
1430.99482	0.62748
1429.06626	0.62568
1427.13770	0.62434
1425.20913	0.62360
1423.28057	0.62298
1421.35200	0.62205
1419.42344	0.62090
1417.49487	0.61961
1415.56631	0.61822
1413.63774	0.61697
1411.70918	0.61597
1409.78062	0.61525
1407.85205	0.61478
1405.92349	0.61450
1403.99492	0.61409
1402.06636	0.61333
1400.13779	0.61236
1398.20923	0.61109
1396.28066	0.60942
1394.35210	0.60717
1392.42354	0.60450
1390.49497	0.60203
1388.56641	0.59985
1386.63784	0.59755
1384.70928	0.59509
1382.78071	0.59272
1380.85215	0.59040
1378.92358	0.58842
1376.99502	0.58710
1375.06646	0.58628
1373.13789	0.58546
1371.20933	0.58446
1369.28076	0.58349
1367.35220	0.58252
1365.42363	0.58138
1363.49507	0.58017
1361.56650	0.57896
1359.63794	0.57775
1357.70937	0.57659
1355.78081	0.57543
1353.85225	0.57433
1351.92368	0.57334
1349.99512	0.57243
1348.06655	0.57155
1346.13799	0.57059
1344.20942	0.56951
1342.28086	0.56842
1340.35229	0.56752
1338.42373	0.56680
1336.49517	0.56592
1334.56660	0.56493
1332.63804	0.56422
1330.70947	0.56379
1328.78091	0.56343
1326.85234	0.56313
1324.92378	0.56283
1322.99521	0.56249
1321.06665	0.56214
1319.13809	0.56180
1317.20952	0.56130
1315.28096	0.56061
1313.35239	0.55989
1311.42383	0.55919
1309.49526	0.55840
1307.56670	0.55760
1305.63813	0.55696
1303.70957	0.55626
1301.78101	0.55542
1299.85244	0.55468
1297.92388	0.55398
1295.99531	0.55309
1294.06675	0.55221
1292.13818	0.55146
1290.20962	0.55069
1288.28105	0.54995
1286.35249	0.54923
1284.42393	0.54829
1282.49536	0.54719
1280.56680	0.54619
1278.63823	0.54537
1276.70967	0.54470
1274.78110	0.54413
1272.85254	0.54365
1270.92397	0.54321
1268.99541	0.54276
1267.06685	0.54230
1265.13828	0.54175
1263.20972	0.54103
1261.28115	0.54021
1259.35259	0.53956
1257.42402	0.53919
1255.49546	0.53890
1253.56689	0.53871
1251.63833	0.53857
1249.70977	0.53833
1247.78120	0.53803
1245.85264	0.53775
1243.92407	0.53738
1241.99551	0.53674
1240.06694	0.53579
1238.13838	0.53463
1236.20981	0.53339
1234.28125	0.53220
1232.35269	0.53113
1230.42412	0.52995
1228.49556	0.52859
1226.56699	0.52736
1224.63843	0.52630
1222.70986	0.52516
1220.78130	0.52398
1218.85273	0.52301
1216.92417	0.52218
1214.99561	0.52125
1213.06704	0.52023
1211.13848	0.51946
1209.20991	0.51903
1207.28135	0.51864
1205.35278	0.51804
1203.42422	0.51724
1201.49565	0.51646
1199.56709	0.51576
1197.63853	0.51505
1195.70996	0.51427
1193.78140	0.51351
1191.85283	0.51286
1189.92427	0.51236
1187.99570	0.51199
1186.06714	0.51174
1184.13857	0.51169
1182.21001	0.51181
1180.28145	0.51209
1178.35288	0.51272
1176.42432	0.51367
1174.49575	0.51460
1172.56719	0.51549
1170.63862	0.51632
1168.71006	0.51707
1166.78149	0.51801
1164.85293	0.51912
1162.92437	0.52003
1160.99580	0.52054
1159.06724	0.52068
1157.13867	0.52057
1155.21011	0.52017
1153.28154	0.51928
1151.35298	0.51772
1149.42441	0.51561
1147.49585	0.51321
1145.56729	0.51071
1143.63872	0.50811
1141.71016	0.50551
1139.78159	0.50325
1137.85303	0.50153
1135.92446	0.50012
1133.99590	0.49886
1132.06733	0.49790
1130.13877	0.49724
1128.21021	0.49658
1126.28164	0.49576
1124.35308	0.49494
1122.42451	0.49447
1120.49595	0.49454
1118.56738	0.49495
1116.63882	0.49547
1114.71025	0.49608
1112.78169	0.49695
1110.85312	0.49802
1108.92456	0.49903
1106.99600	0.49986
1105.06743	0.50055
1103.13887	0.50142
1101.21030	0.50268
1099.28174	0.50417
1097.35317	0.50581
1095.42461	0.50815
1093.49604	0.51182
1091.56748	0.51680
1089.63892	0.52310
1087.71035	0.53081
1085.78179	0.53934
1083.85322	0.54792
1081.92466	0.55588
1079.99609	0.56185
1078.06753	0.56468
1076.13896	0.56466
1074.21040	0.56218
1072.28184	0.55725
1070.35327	0.55065
1068.42471	0.54343
1066.49614	0.53634
1064.56758	0.52998
1062.63901	0.52462
1060.71045	0.52002
1058.78188	0.51593
1056.85332	0.51226
1054.92476	0.50895
1052.99619	0.50593
1051.06763	0.50341
1049.13906	0.50185
1047.21050	0.50129
1045.28193	0.50117
1043.35337	0.50109
1041.42480	0.50122
1039.49624	0.50169
1037.56768	0.50217
1035.63911	0.50247
1033.71055	0.50233
1031.78198	0.50141
1029.85342	0.49988
1027.92485	0.49821
1025.99629	0.49673
1024.06772	0.49555
1022.13916	0.49462
1020.21060	0.49409
1018.28203	0.49406
1016.35347	0.49410
1014.42490	0.49390
1012.49634	0.49368
1010.56777	0.49366
1008.63921	0.49374
1006.71064	0.49402
1004.78208	0.49492
1002.85352	0.49662
1000.92495	0.49903
998.99639	0.50213
997.06782	0.50587
995.13926	0.51008
993.21069	0.51423
991.28213	0.51756
989.35356	0.51964
987.42500	0.52055
985.49644	0.52063
983.56787	0.52042
981.63931	0.52047
979.71074	0.52117
977.78218	0.52251
975.85361	0.52444
973.92505	0.52699
971.99648	0.52999
970.06792	0.53329
968.13936	0.53686
966.21079	0.54092
964.28223	0.54549
962.35366	0.55024
960.42510	0.55527
958.49653	0.56089
956.56797	0.56666
954.63940	0.57234
952.71084	0.57847
950.78228	0.58483
948.85371	0.59092
946.92515	0.59718
944.99658	0.60359
943.06802	0.60974
941.13945	0.61599
939.21089	0.62249
937.28232	0.62869
935.35376	0.63441
933.42520	0.63998
931.49663	0.64520
929.56807	0.64999
927.63950	0.65522
925.71094	0.66120
923.78237	0.66765
921.85381	0.67457
919.92524	0.68168
917.99668	0.68874
916.06812	0.69627
914.13955	0.70432
912.21099	0.71195
910.28242	0.71918
908.35386	0.72659
906.42529	0.73449
904.49673	0.74370
902.56816	0.75415
900.63960	0.76397
898.71104	0.77250
896.78247	0.78092
894.85391	0.78925
892.92534	0.79862
890.99678	0.81072
889.06821	0.82351
887.13965	0.83446
885.21108	0.84455
883.28252	0.85573
881.35396	0.86716
879.42539	0.87834
877.49683	0.89113
875.56826	0.90508
873.63970	0.91735
871.71113	0.92819
869.78257	0.93868
867.85400	0.94758
865.92544	0.95614
863.99687	0.96686
862.06831	0.97913
860.13975	0.99132
858.21118	1.00340
856.28262	1.01598
854.35405	1.02856
852.42549	1.03992
850.49692	1.05049
848.56836	1.06202
846.63979	1.07388
844.71123	1.08515
842.78267	1.09553
840.85410	1.10446
838.92554	1.11482
836.99697	1.12946
835.06841	1.14388
833.13984	1.15382
831.21128	1.16412
829.28271	1.17726
827.35415	1.19024
825.42559	1.19946
823.49702	1.20062
821.56846	1.20205
819.63989	1.21852
817.71133	1.24644
815.78276	1.26696
813.85420	1.27006
811.92563	1.26775
809.99707	1.27539
808.06851	1.28805
806.13994	1.29037
804.21138	1.28511
802.28281	1.28827
800.35425	1.29733
798.42568	1.30999
796.49712	1.33284
794.56855	1.34012
792.63999	1.32664
790.71143	1.33725
788.78286	1.38079
786.85430	1.41313
784.92573	1.41107
782.99717	1.40429
781.06860	1.39416
779.14004	1.35613
777.21147	1.32988
775.28291	1.35258
773.35435	1.36741
771.42578	1.30231
769.49722	1.22329
767.56865	1.18865
765.64009	1.16226
763.71152	1.14176
761.78296	1.17860
759.85439	1.25782
757.92583	1.25183
755.99727	1.15309
754.06870	1.12424
752.14014	1.23210
750.21157	1.35519
748.28301	1.26166
746.35444	1.16273
744.42588	1.14648
742.49731	1.15309
740.56875	1.11599
738.64019	1.05475
736.71162	1.05613
734.78306	1.18816
732.85449	2.01860
730.92593	4.38556
728.99736	1.43236
727.06880	1.07899
725.14023	0.74212
723.21167	0.53585
721.28311	0.49924
719.35454	0.51564
717.42598	0.45270
715.49741	0.42178
713.56885	0.50955
711.64028	0.60602
709.71172	0.45590
707.78315	0.27561
705.85459	0.21970
703.92603	0.22078
701.99746	0.13503
700.06890	0.05779
698.14033	0.07612
696.21177	0.14929
694.28320	0.32276
692.35464	0.58963
690.42607	0.49710
688.49751	0.36324
686.56895	0.27999
684.64038	0.25235
682.71182	0.27495
680.78325	0.35484
678.85469	0.47617
676.92612	0.53732
674.99756	0.46497
673.06899	0.25253
671.14043	0.11882
669.21187	0.11857
667.28330	-0.00449
665.35474	-0.36320
663.42617	-0.04769
661.49761	0.14823
659.56904	0.18303
657.64048	0.24707
655.71191	0.35855
653.78335	0.38690
651.85479	0.33934
649.92622	0.33197
647.99766	0.43377
646.06909	0.60202
644.14053	0.45666
642.21196	0.16078
640.28340	0.03040
638.35483	0.13632
636.42627	0.44704
634.49771	0.57512
632.56914	0.44790
630.64058	0.39988
628.71201	0.34399
626.78345	0.21798
624.85488	0.11687
622.92632	0.07236
620.99775	0.05894
619.06919	0.08251
617.14062	0.16617
615.21206	0.21047
613.28350	0.15547
611.35493	0.14916
609.42637	0.21604
607.49780	0.30093
605.56924	0.35536
603.64067	0.35259
601.71211	0.34876
599.78354	0.31839
597.85498	0.21954
595.92642	0.09756
593.99785	0.01250
592.06929	-0.01855
590.14072	-0.01080
588.21216	0.04694
586.28359	0.11106
584.35503	0.13401
582.42646	0.12459
580.49790	0.13271
578.56934	0.16055
576.64077	0.16876
574.71221	0.15257
572.78364	0.14922
570.85508	0.21068
568.92651	0.29646
566.99795	0.18210
565.06938	0.04618
563.14082	0.03233
561.21226	0.11499
559.28369	0.14069
557.35513	0.16553
555.42656	0.27659
553.49800	0.67329
551.56943	3.30942
549.64087	3.29785
547.71230	0.46103
545.78374	0.34557
543.85518	0.34694
541.92661	0.23173
539.99805	0.07913
538.06948	0.04919
536.14092	0.09037
534.21235	0.15253
532.28379	0.25374
530.35522	0.24561
528.42666	0.18566
526.49810	0.22725
524.56953	0.29984
522.64097	0.31594
520.71240	0.27454
518.78384	0.21004
516.85527	0.14002
514.92671	0.06095
512.99814	0.01337
511.06958	0.02549
509.14102	0.03414
507.21245	0.05423
505.28389	0.14559
503.35532	0.18657
501.42676	0.16245
499.49819	0.12673
